3996.71440	0.99477
3994.66059	0.99454
3992.60678	0.99440
3990.55297	0.99473
3988.49916	0.99497
3986.44535	0.99466
3984.39154	0.99410
3982.33773	0.99386
3980.28391	0.99416
3978.23010	0.99474
3976.17629	0.99516
3974.12248	0.99531
3972.06867	0.99532
3970.01486	0.99510
3967.96105	0.99478
3965.90724	0.99489
3963.85343	0.99542
3961.79962	0.99567
3959.74581	0.99517
3957.69200	0.99435
3955.63819	0.99392
3953.58438	0.99399
3951.53057	0.99425
3949.47676	0.99461
3947.42295	0.99479
3945.36914	0.99460
3943.31533	0.99434
3941.26152	0.99423
3939.20771	0.99424
3937.15390	0.99430
3935.10009	0.99451
3933.04628	0.99490
3930.99247	0.99514
3928.93866	0.99491
3926.88485	0.99448
3924.83104	0.99424
3922.77723	0.99431
3920.72342	0.99454
3918.66961	0.99463
3916.61580	0.99454
3914.56199	0.99438
3912.50818	0.99412
3910.45437	0.99400
3908.40056	0.99403
3906.34675	0.99404
3904.29294	0.99413
3902.23913	0.99419
3900.18532	0.99414
3898.13151	0.99413
3896.07770	0.99408
3894.02389	0.99391
3891.97008	0.99394
3889.91627	0.99408
3887.86246	0.99395
3885.80865	0.99382
3883.75484	0.99385
3881.70103	0.99376
3879.64722	0.99362
3877.59341	0.99373
3875.53960	0.99399
3873.48579	0.99400
3871.43198	0.99364
3869.37817	0.99330
3867.32436	0.99315
3865.27055	0.99319
3863.21674	0.99369
3861.16293	0.99426
3859.10912	0.99425
3857.05531	0.99390
3855.00150	0.99391
3852.94769	0.99424
3850.89388	0.99397
3848.84007	0.99360
3846.78626	0.99368
3844.73245	0.99395
3842.67864	0.99395
3840.62483	0.99362
3838.57102	0.99318
3836.51721	0.99302
3834.46340	0.99314
3832.40959	0.99334
3830.35578	0.99357
3828.30197	0.99371
3826.24816	0.99379
3824.19435	0.99359
3822.14054	0.99312
3820.08673	0.99293
3818.03292	0.99319
3815.97911	0.99351
3813.92530	0.99349
3811.87149	0.99325
3809.81768	0.99325
3807.76387	0.99346
3805.71006	0.99334
3803.65625	0.99284
3801.60244	0.99229
3799.54863	0.99220
3797.49482	0.99265
3795.44101	0.99296
3793.38720	0.99278
3791.33339	0.99260
3789.27958	0.99263
3787.22577	0.99258
3785.17196	0.99251
3783.11815	0.99246
3781.06434	0.99230
3779.01053	0.99204
3776.95672	0.99186
3774.90291	0.99183
3772.84910	0.99159
3770.79529	0.99113
3768.74148	0.99100
3766.68767	0.99129
3764.63386	0.99157
3762.58005	0.99163
3760.52624	0.99166
3758.47243	0.99182
3756.41862	0.99193
3754.36481	0.99200
3752.31100	0.99235
3750.25719	0.99285
3748.20338	0.99326
3746.14957	0.99353
3744.09576	0.99312
3742.04195	0.99197
3739.98814	0.99096
3737.93433	0.99066
3735.88052	0.99124
3733.82671	0.99145
3731.77290	0.99079
3729.71909	0.99030
3727.66528	0.99020
3725.61147	0.99023
3723.55766	0.98999
3721.50385	0.98951
3719.45004	0.98907
3717.39623	0.98859
3715.34242	0.98837
3713.28861	0.98862
3711.23480	0.98852
3709.18099	0.98772
3707.12718	0.98720
3705.07337	0.98689
3703.01956	0.98644
3700.96575	0.98568
3698.91194	0.98478
3696.85813	0.98401
3694.80432	0.98361
3692.75051	0.98384
3690.69670	0.98421
3688.64289	0.98389
3686.58907	0.98283
3684.53526	0.98158
3682.48145	0.98062
3680.42764	0.97983
3678.37383	0.97889
3676.32002	0.97788
3674.26621	0.97674
3672.21240	0.97599
3670.15859	0.97563
3668.10478	0.97475
3666.05097	0.97323
3663.99716	0.97159
3661.94335	0.97021
3659.88954	0.96901
3657.83573	0.96782
3655.78192	0.96685
3653.72811	0.96633
3651.67430	0.96584
3649.62049	0.96483
3647.56668	0.96327
3645.51287	0.96168
3643.45906	0.96016
3641.40525	0.95856
3639.35144	0.95707
3637.29763	0.95574
3635.24382	0.95456
3633.19001	0.95357
3631.13620	0.95250
3629.08239	0.95092
3627.02858	0.94928
3624.97477	0.94821
3622.92096	0.94739
3620.86715	0.94642
3618.81334	0.94481
3616.75953	0.94319
3614.70572	0.94245
3612.65191	0.94192
3610.59810	0.94071
3608.54429	0.93915
3606.49048	0.93775
3604.43667	0.93663
3602.38286	0.93567
3600.32905	0.93465
3598.27524	0.93355
3596.22143	0.93266
3594.16762	0.93206
3592.11381	0.93141
3590.06000	0.93035
3588.00619	0.92877
3585.95238	0.92729
3583.89857	0.92640
3581.84476	0.92567
3579.79095	0.92474
3577.73714	0.92371
3575.68333	0.92258
3573.62952	0.92131
3571.57571	0.92040
3569.52190	0.91988
3567.46809	0.91892
3565.41428	0.91766
3563.36047	0.91668
3561.30666	0.91535
3559.25285	0.91362
3557.19904	0.91213
3555.14523	0.91102
3553.09142	0.91001
3551.03761	0.90901
3548.98380	0.90801
3546.92999	0.90686
3544.87618	0.90590
3542.82237	0.90520
3540.76856	0.90408
3538.71475	0.90260
3536.66094	0.90127
3534.60713	0.90028
3532.55332	0.89952
3530.49951	0.89872
3528.44570	0.89765
3526.39189	0.89651
3524.33808	0.89551
3522.28427	0.89453
3520.23046	0.89354
3518.17665	0.89251
3516.12284	0.89148
3514.06903	0.89062
3512.01522	0.88970
3509.96141	0.88875
3507.90760	0.88808
3505.85379	0.88748
3503.79998	0.88680
3501.74617	0.88613
3499.69236	0.88535
3497.63855	0.88442
3495.58474	0.88347
3493.53093	0.88251
3491.47712	0.88155
3489.42331	0.88081
3487.36950	0.88023
3485.31569	0.87958
3483.26188	0.87894
3481.20807	0.87827
3479.15426	0.87749
3477.10045	0.87653
3475.04664	0.87555
3472.99283	0.87498
3470.93902	0.87468
3468.88521	0.87411
3466.83140	0.87322
3464.77759	0.87231
3462.72378	0.87153
3460.66997	0.87088
3458.61616	0.87024
3456.56235	0.86963
3454.50854	0.86903
3452.45473	0.86842
3450.40092	0.86797
3448.34711	0.86757
3446.29330	0.86701
3444.23949	0.86641
3442.18568	0.86579
3440.13187	0.86505
3438.07806	0.86436
3436.02425	0.86408
3433.97044	0.86398
3431.91663	0.86351
3429.86282	0.86289
3427.80901	0.86237
3425.75520	0.86182
3423.70139	0.86140
3421.64758	0.86131
3419.59377	0.86130
3417.53996	0.86098
3415.48615	0.86045
3413.43234	0.86008
3411.37853	0.85982
3409.32472	0.85957
3407.27091	0.85943
3405.21710	0.85937
3403.16329	0.85933
3401.10948	0.85944
3399.05567	0.85949
3397.00186	0.85934
3394.94805	0.85925
3392.89424	0.85937
3390.84042	0.85967
3388.78661	0.85987
3386.73280	0.85958
3384.67899	0.85916
3382.62518	0.85917
3380.57137	0.85950
3378.51756	0.85983
3376.46375	0.86013
3374.40994	0.86043
3372.35613	0.86063
3370.30232	0.86083
3368.24851	0.86108
3366.19470	0.86117
3364.14089	0.86134
3362.08708	0.86200
3360.03327	0.86269
3357.97946	0.86313
3355.92565	0.86353
3353.87184	0.86382
3351.81803	0.86400
3349.76422	0.86427
3347.71041	0.86466
3345.65660	0.86507
3343.60279	0.86541
3341.54898	0.86576
3339.49517	0.86618
3337.44136	0.86676
3335.38755	0.86723
3333.33374	0.86739
3331.27993	0.86775
3329.22612	0.86837
3327.17231	0.86881
3325.11850	0.86911
3323.06469	0.86937
3321.01088	0.86961
3318.95707	0.87010
3316.90326	0.87081
3314.84945	0.87131
3312.79564	0.87151
3310.74183	0.87171
3308.68802	0.87191
3306.63421	0.87200
3304.58040	0.87219
3302.52659	0.87264
3300.47278	0.87322
3298.41897	0.87365
3296.36516	0.87396
3294.31135	0.87414
3292.25754	0.87414
3290.20373	0.87428
3288.14992	0.87475
3286.09611	0.87532
3284.04230	0.87589
3281.98849	0.87642
3279.93468	0.87661
3277.88087	0.87654
3275.82706	0.87664
3273.77325	0.87709
3271.71944	0.87782
3269.66563	0.87852
3267.61182	0.87899
3265.55801	0.87960
3263.50420	0.88051
3261.45039	0.88132
3259.39658	0.88189
3257.34277	0.88236
3255.28896	0.88298
3253.23515	0.88388
3251.18134	0.88467
3249.12753	0.88512
3247.07372	0.88551
3245.01991	0.88619
3242.96610	0.88704
3240.91229	0.88775
3238.85848	0.88832
3236.80467	0.88906
3234.75086	0.89005
3232.69705	0.89106
3230.64324	0.89190
3228.58943	0.89250
3226.53562	0.89316
3224.48181	0.89396
3222.42800	0.89463
3220.37419	0.89534
3218.32038	0.89625
3216.26657	0.89714
3214.21276	0.89794
3212.15895	0.89879
3210.10514	0.89963
3208.05133	0.90040
3205.99752	0.90131
3203.94371	0.90248
3201.88990	0.90351
3199.83609	0.90437
3197.78228	0.90543
3195.72847	0.90638
3193.67466	0.90703
3191.62085	0.90789
3189.56704	0.90907
3187.51323	0.91027
3185.45942	0.91129
3183.40561	0.91235
3181.35180	0.91368
3179.29799	0.91494
3177.24418	0.91592
3175.19037	0.91684
3173.13656	0.91782
3171.08275	0.91873
3169.02894	0.91951
3166.97513	0.92035
3164.92132	0.92141
3162.86751	0.92260
3160.81370	0.92369
3158.75989	0.92463
3156.70608	0.92562
3154.65227	0.92672
3152.59846	0.92765
3150.54465	0.92824
3148.49084	0.92884
3146.43703	0.92987
3144.38322	0.93101
3142.32941	0.93186
3140.27560	0.93267
3138.22179	0.93353
3136.16798	0.93442
3134.11417	0.93553
3132.06036	0.93665
3130.00655	0.93754
3127.95274	0.93829
3125.89893	0.93905
3123.84512	0.93990
3121.79131	0.94070
3119.73750	0.94137
3117.68369	0.94184
3115.62988	0.94229
3113.57607	0.94311
3111.52226	0.94423
3109.46845	0.94511
3107.41464	0.94557
3105.36083	0.94602
3103.30702	0.94670
3101.25321	0.94745
3099.19940	0.94812
3097.14559	0.94867
3095.09177	0.94908
3093.03796	0.94933
3090.98415	0.94967
3088.93034	0.95020
3086.87653	0.95078
3084.82272	0.95121
3082.76891	0.95158
3080.71510	0.95220
3078.66129	0.95300
3076.60748	0.95373
3074.55367	0.95427
3072.49986	0.95455
3070.44605	0.95485
3068.39224	0.95544
3066.33843	0.95600
3064.28462	0.95650
3062.23081	0.95715
3060.17700	0.95763
3058.12319	0.95787
3056.06938	0.95816
3054.01557	0.95862
3051.96176	0.95919
3049.90795	0.95968
3047.85414	0.96015
3045.80033	0.96063
3043.74652	0.96095
3041.69271	0.96114
3039.63890	0.96133
3037.58509	0.96158
3035.53128	0.96181
3033.47747	0.96210
3031.42366	0.96256
3029.36985	0.96292
3027.31604	0.96308
3025.26223	0.96341
3023.20842	0.96391
3021.15461	0.96411
3019.10080	0.96420
3017.04699	0.96445
3014.99318	0.96462
3012.93937	0.96467
3010.88556	0.96479
3008.83175	0.96483
3006.77794	0.96481
3004.72413	0.96500
3002.67032	0.96534
3000.61651	0.96541
2998.56270	0.96501
2996.50889	0.96451
2994.45508	0.96416
2992.40127	0.96386
2990.34746	0.96334
2988.29365	0.96230
2986.23984	0.96080
2984.18603	0.95928
2982.13222	0.95791
2980.07841	0.95642
2978.02460	0.95444
2975.97079	0.95182
2973.91698	0.94853
2971.86317	0.94467
2969.80936	0.94046
2967.75555	0.93600
2965.70174	0.93109
2963.64793	0.92579
2961.59412	0.92034
2959.54031	0.91518
2957.48650	0.91084
2955.43269	0.90725
2953.37888	0.90411
2951.32507	0.90083
2949.27126	0.89620
2947.21745	0.88896
2945.16364	0.87850
2943.10983	0.86432
2941.05602	0.84612
2939.00221	0.82445
2936.94840	0.79973
2934.89459	0.77172
2932.84078	0.74014
2930.78697	0.70463
2928.73316	0.66439
2926.67935	0.61812
2924.62554	0.56481
2922.57173	0.50527
2920.51792	0.44354
2918.46411	0.38849
2916.41030	0.35419
2914.35649	0.35241
2912.30268	0.38178
2910.24887	0.42893
2908.19506	0.47942
2906.14125	0.52455
2904.08744	0.56167
2902.03363	0.59174
2899.97982	0.61657
2897.92601	0.63799
2895.87220	0.65771
2893.81839	0.67690
2891.76458	0.69630
2889.71077	0.71624
2887.65696	0.73629
2885.60315	0.75580
2883.54934	0.77452
2881.49553	0.79226
2879.44172	0.80847
2877.38791	0.82267
2875.33410	0.83409
2873.28029	0.84175
2871.22648	0.84575
2869.17267	0.84660
2867.11886	0.84367
2865.06505	0.83537
2863.01124	0.81979
2860.95743	0.79482
2858.90362	0.75783
2856.84981	0.70515
2854.79600	0.63333
2852.74219	0.54489
2850.68838	0.45801
2848.63457	0.40731
2846.58076	0.41861
2844.52695	0.48335
2842.47314	0.57041
2840.41933	0.65400
2838.36552	0.72273
2836.31171	0.77499
2834.25790	0.81366
2832.20409	0.84245
2830.15028	0.86422
2828.09647	0.88099
2826.04266	0.89413
2823.98885	0.90461
2821.93504	0.91336
2819.88123	0.92073
2817.82742	0.92663
2815.77361	0.93135
2813.71980	0.93563
2811.66599	0.93962
2809.61218	0.94307
2807.55837	0.94605
2805.50456	0.94868
2803.45075	0.95118
2801.39693	0.95371
2799.34312	0.95591
2797.28931	0.95773
2795.23550	0.95959
2793.18169	0.96147
2791.12788	0.96319
2789.07407	0.96487
2787.02026	0.96652
2784.96645	0.96791
2782.91264	0.96903
2780.85883	0.97017
2778.80502	0.97122
2776.75121	0.97209
2774.69740	0.97304
2772.64359	0.97399
2770.58978	0.97469
2768.53597	0.97530
2766.48216	0.97600
2764.42835	0.97671
2762.37454	0.97724
2760.32073	0.97754
2758.26692	0.97781
2756.21311	0.97812
2754.15930	0.97837
2752.10549	0.97861
2750.05168	0.97903
2747.99787	0.97943
2745.94406	0.97948
2743.89025	0.97942
2741.83644	0.97967
2739.78263	0.98002
2737.72882	0.98013
2735.67501	0.98010
2733.62120	0.98016
2731.56739	0.98038
2729.51358	0.98062
2727.45977	0.98078
2725.40596	0.98093
2723.35215	0.98113
2721.29834	0.98140
2719.24453	0.98177
2717.19072	0.98219
2715.13691	0.98260
2713.08310	0.98296
2711.02929	0.98312
2708.97548	0.98309
2706.92167	0.98318
2704.86786	0.98347
2702.81405	0.98372
2700.76024	0.98376
2698.70643	0.98377
2696.65262	0.98383
2694.59881	0.98394
2692.54500	0.98406
2690.49119	0.98415
2688.43738	0.98415
2686.38357	0.98408
2684.32976	0.98395
2682.27595	0.98381
2680.22214	0.98372
2678.16833	0.98367
2676.11452	0.98351
2674.06071	0.98331
2672.00690	0.98318
2669.95309	0.98300
2667.89928	0.98287
2665.84547	0.98278
2663.79166	0.98253
2661.73785	0.98228
2659.68404	0.98214
2657.63023	0.98213
2655.57642	0.98229
2653.52261	0.98256
2651.46880	0.98290
2649.41499	0.98319
2647.36118	0.98314
2645.30737	0.98288
2643.25356	0.98288
2641.19975	0.98311
2639.14594	0.98305
2637.09213	0.98270
2635.03832	0.98261
2632.98451	0.98293
2630.93070	0.98331
2628.87689	0.98373
2626.82308	0.98425
2624.76927	0.98471
2622.71546	0.98507
2620.66165	0.98536
2618.60784	0.98570
2616.55403	0.98625
2614.50022	0.98665
2612.44641	0.98668
2610.39260	0.98668
2608.33879	0.98693
2606.28498	0.98747
2604.23117	0.98781
2602.17736	0.98759
2600.12355	0.98748
2598.06974	0.98787
2596.01593	0.98821
2593.96212	0.98840
2591.90831	0.98874
2589.85450	0.98919
2587.80069	0.98954
2585.74688	0.98953
2583.69307	0.98919
2581.63926	0.98928
2579.58545	0.98993
2577.53164	0.99031
2575.47783	0.99026
2573.42402	0.99036
2571.37021	0.99057
2569.31640	0.99066
2567.26259	0.99080
2565.20878	0.99086
2563.15497	0.99102
2561.10116	0.99144
2559.04735	0.99184
2556.99354	0.99214
2554.93973	0.99216
2552.88592	0.99173
2550.83211	0.99145
2548.77830	0.99165
2546.72449	0.99208
2544.67068	0.99265
2542.61687	0.99311
2540.56306	0.99314
2538.50925	0.99276
2536.45544	0.99234
2534.40163	0.99233
2532.34782	0.99258
2530.29401	0.99254
2528.24020	0.99231
2526.18639	0.99239
2524.13258	0.99262
2522.07877	0.99268
2520.02496	0.99287
2517.97115	0.99315
2515.91734	0.99320
2513.86353	0.99314
2511.80972	0.99305
2509.75591	0.99287
2507.70210	0.99283
2505.64828	0.99313
2503.59447	0.99362
2501.54066	0.99387
2499.48685	0.99374
2497.43304	0.99361
2495.37923	0.99374
2493.32542	0.99380
2491.27161	0.99368
2489.21780	0.99372
2487.16399	0.99385
2485.11018	0.99401
2483.05637	0.99403
2481.00256	0.99386
2478.94875	0.99386
2476.89494	0.99392
2474.84113	0.99386
2472.78732	0.99378
2470.73351	0.99398
2468.67970	0.99443
2466.62589	0.99467
2464.57208	0.99483
2462.51827	0.99529
2460.46446	0.99556
2458.41065	0.99531
2456.35684	0.99499
2454.30303	0.99476
2452.24922	0.99474
2450.19541	0.99483
2448.14160	0.99469
2446.08779	0.99454
2444.03398	0.99456
2441.98017	0.99455
2439.92636	0.99468
2437.87255	0.99500
2435.81874	0.99514
2433.76493	0.99498
2431.71112	0.99473
2429.65731	0.99462
2427.60350	0.99467
2425.54969	0.99469
2423.49588	0.99451
2421.44207	0.99418
2419.38826	0.99420
2417.33445	0.99446
2415.28064	0.99427
2413.22683	0.99390
2411.17302	0.99393
2409.11921	0.99437
2407.06540	0.99497
2405.01159	0.99518
2402.95778	0.99493
2400.90397	0.99455
2398.85016	0.99442
2396.79635	0.99477
2394.74254	0.99501
2392.68873	0.99480
2390.63492	0.99456
2388.58111	0.99442
2386.52730	0.99437
2384.47349	0.99455
2382.41968	0.99463
2380.36587	0.99444
2378.31206	0.99432
2376.25825	0.99418
2374.20444	0.99387
2372.15063	0.99379
2370.09682	0.99425
2368.04301	0.99472
2365.98920	0.99450
2363.93539	0.99416
2361.88158	0.99433
2359.82777	0.99413
2357.77396	0.99327
2355.72015	0.99273
2353.66634	0.99232
2351.61253	0.99193
2349.55872	0.99176
2347.50491	0.99148
2345.45110	0.99141
2343.39729	0.99182
2341.34348	0.99170
2339.28967	0.99100
2337.23586	0.99054
2335.18205	0.99009
2333.12824	0.98966
2331.07443	0.98996
2329.02062	0.99030
2326.96681	0.98937
2324.91300	0.98835
2322.85919	0.98903
2320.80538	0.99044
2318.75157	0.99092
2316.69776	0.99081
2314.64395	0.99089
2312.59014	0.99104
2310.53633	0.99091
2308.48252	0.99067
2306.42871	0.99066
2304.37490	0.99094
2302.32109	0.99128
2300.26728	0.99142
2298.21347	0.99139
2296.15966	0.99145
2294.10585	0.99150
2292.05204	0.99115
2289.99823	0.99033
2287.94442	0.98980
2285.89061	0.98999
2283.83680	0.99011
2281.78299	0.98983
2279.72918	0.99001
2277.67537	0.99102
2275.62156	0.99178
2273.56775	0.99186
2271.51394	0.99170
2269.46013	0.99169
2267.40632	0.99194
2265.35251	0.99176
2263.29870	0.99147
2261.24489	0.99146
2259.19108	0.99124
2257.13727	0.99132
2255.08346	0.99179
2253.02965	0.99193
2250.97584	0.99199
2248.92203	0.99263
2246.86822	0.99312
2244.81441	0.99226
2242.76060	0.99085
2240.70679	0.99014
2238.65298	0.99003
2236.59917	0.99027
2234.54536	0.99085
2232.49155	0.99143
2230.43774	0.99173
2228.38393	0.99182
2226.33012	0.99179
2224.27631	0.99213
2222.22250	0.99265
2220.16869	0.99245
2218.11488	0.99196
2216.06107	0.99201
2214.00726	0.99259
2211.95344	0.99260
2209.89963	0.99122
2207.84582	0.99012
2205.79201	0.99100
2203.73820	0.99244
2201.68439	0.99300
2199.63058	0.99291
2197.57677	0.99233
2195.52296	0.99168
2193.46915	0.99103
2191.41534	0.99028
2189.36153	0.98978
2187.30772	0.98937
2185.25391	0.98928
2183.20010	0.99011
2181.14629	0.99110
2179.09248	0.99172
2177.03867	0.99269
2174.98486	0.99356
2172.93105	0.99342
2170.87724	0.99228
2168.82343	0.99046
2166.76962	0.98936
2164.71581	0.98995
2162.66200	0.99128
2160.60819	0.99325
2158.55438	0.99568
2156.50057	0.99650
2154.44676	0.99564
2152.39295	0.99435
2150.33914	0.99295
2148.28533	0.99248
2146.23152	0.99389
2144.17771	0.99606
2142.12390	0.99694
2140.07009	0.99585
2138.01628	0.99445
2135.96247	0.99410
2133.90866	0.99424
2131.85485	0.99406
2129.80104	0.99351
2127.74723	0.99306
2125.69342	0.99277
2123.63961	0.99245
2121.58580	0.99201
2119.53199	0.99167
2117.47818	0.99144
2115.42437	0.99115
2113.37056	0.99084
2111.31675	0.99052
2109.26294	0.99049
2107.20913	0.99103
2105.15532	0.99137
2103.10151	0.99082
2101.04770	0.99043
2098.99389	0.99101
2096.94008	0.99165
2094.88627	0.99166
2092.83246	0.99136
2090.77865	0.99118
2088.72484	0.99085
2086.67103	0.99032
2084.61722	0.99010
2082.56341	0.99007
2080.50960	0.98991
2078.45579	0.98986
2076.40198	0.99023
2074.34817	0.99067
2072.29436	0.99043
2070.24055	0.99008
2068.18674	0.99072
2066.13293	0.99174
2064.07912	0.99217
2062.02531	0.99214
2059.97150	0.99216
2057.91769	0.99235
2055.86388	0.99271
2053.81007	0.99279
2051.75626	0.99165
2049.70245	0.99047
2047.64864	0.99067
2045.59483	0.99133
2043.54102	0.99163
2041.48721	0.99121
2039.43340	0.99000
2037.37959	0.98902
2035.32578	0.98966
2033.27197	0.99174
2031.21816	0.99332
2029.16435	0.99370
2027.11054	0.99341
2025.05673	0.99247
2023.00292	0.99138
2020.94911	0.99073
2018.89530	0.99024
2016.84149	0.99000
2014.78768	0.99061
2012.73387	0.99146
2010.68006	0.99153
2008.62625	0.99244
2006.57244	0.99450
2004.51863	0.99482
2002.46482	0.99400
2000.41101	0.99382
1998.35720	0.99415
1996.30339	0.99469
1994.24958	0.99444
1992.19577	0.99329
1990.14196	0.99246
1988.08815	0.99230
1986.03434	0.99253
1983.98053	0.99228
1981.92672	0.99176
1979.87291	0.99249
1977.81910	0.99374
1975.76529	0.99385
1973.71148	0.99316
1971.65767	0.99239
1969.60386	0.99229
1967.55005	0.99282
1965.49624	0.99258
1963.44243	0.99274
1961.38862	0.99466
1959.33481	0.99603
1957.28100	0.99582
1955.22719	0.99518
1953.17338	0.99447
1951.11957	0.99345
1949.06576	0.99242
1947.01195	0.99241
1944.95814	0.99282
1942.90433	0.99239
1940.85052	0.99195
1938.79671	0.99257
1936.74290	0.99331
1934.68909	0.99326
1932.63528	0.99330
1930.58147	0.99383
1928.52766	0.99416
1926.47385	0.99454
1924.42004	0.99491
1922.36623	0.99447
1920.31242	0.99358
1918.25861	0.99263
1916.20479	0.99203
1914.15098	0.99239
1912.09717	0.99298
1910.04336	0.99319
1907.98955	0.99306
1905.93574	0.99270
1903.88193	0.99248
1901.82812	0.99217
1899.77431	0.99192
1897.72050	0.99210
1895.66669	0.99200
1893.61288	0.99191
1891.55907	0.99217
1889.50526	0.99203
1887.45145	0.99169
1885.39764	0.99169
1883.34383	0.99193
1881.29002	0.99246
1879.23621	0.99285
1877.18240	0.99281
1875.12859	0.99254
1873.07478	0.99211
1871.02097	0.99192
1868.96716	0.99229
1866.91335	0.99261
1864.85954	0.99251
1862.80573	0.99255
1860.75192	0.99284
1858.69811	0.99275
1856.64430	0.99216
1854.59049	0.99185
1852.53668	0.99213
1850.48287	0.99225
1848.42906	0.99185
1846.37525	0.99144
1844.32144	0.99123
1842.26763	0.99106
1840.21382	0.99101
1838.16001	0.99108
1836.10620	0.99106
1834.05239	0.99111
1831.99858	0.99122
1829.94477	0.99100
1827.89096	0.99051
1825.83715	0.99026
1823.78334	0.99019
1821.72953	0.98992
1819.67572	0.98967
1817.62191	0.98968
1815.56810	0.98970
1813.51429	0.98958
1811.46048	0.98922
1809.40667	0.98882
1807.35286	0.98849
1805.29905	0.98799
1803.24524	0.98744
1801.19143	0.98694
1799.13762	0.98613
1797.08381	0.98516
1795.03000	0.98447
1792.97619	0.98396
1790.92238	0.98326
1788.86857	0.98242
1786.81476	0.98156
1784.76095	0.98057
1782.70714	0.97967
1780.65333	0.97899
1778.59952	0.97845
1776.54571	0.97803
1774.49190	0.97768
1772.43809	0.97713
1770.38428	0.97636
1768.33047	0.97555
1766.27666	0.97480
1764.22285	0.97405
1762.16904	0.97306
1760.11523	0.97205
1758.06142	0.97121
1756.00761	0.97026
1753.95380	0.96900
1751.89999	0.96729
1749.84618	0.96484
1747.79237	0.96179
1745.73856	0.95850
1743.68475	0.95485
1741.63094	0.95077
1739.57713	0.94712
1737.52332	0.94499
1735.46951	0.94367
1733.41570	0.94180
1731.36189	0.93922
1729.30808	0.93564
1727.25427	0.93003
1725.20046	0.92199
1723.14665	0.91229
1721.09284	0.90373
1719.03903	0.89649
1716.98522	0.88882
1714.93141	0.88293
1712.87760	0.88044
1710.82379	0.88079
1708.76998	0.88355
1706.71617	0.88845
1704.66236	0.89438
1702.60855	0.89903
1700.55474	0.90321
1698.50093	0.90721
1696.44712	0.91080
1694.39331	0.91435
1692.33950	0.91650
1690.28569	0.91779
1688.23188	0.91864
1686.17807	0.91894
1684.12426	0.91807
1682.07045	0.91626
1680.01664	0.91473
1677.96283	0.91333
1675.90902	0.91127
1673.85521	0.90853
1671.80140	0.90620
1669.74759	0.90392
1667.69378	0.90160
1665.63997	0.89974
1663.58616	0.89783
1661.53235	0.89563
1659.47854	0.89364
1657.42473	0.89217
1655.37092	0.89126
1653.31711	0.89007
1651.26330	0.88875
1649.20949	0.88823
1647.15568	0.88766
1645.10187	0.88704
1643.04806	0.88692
1640.99425	0.88704
1638.94044	0.88729
1636.88663	0.88788
1634.83282	0.88858
1632.77901	0.88938
1630.72520	0.89070
1628.67139	0.89268
1626.61758	0.89508
1624.56377	0.89783
1622.50996	0.90090
1620.45614	0.90362
1618.40233	0.90626
1616.34852	0.90975
1614.29471	0.91303
1612.24090	0.91550
1610.18709	0.91800
1608.13328	0.92055
1606.07947	0.92276
1604.02566	0.92477
1601.97185	0.92663
1599.91804	0.92814
1597.86423	0.92947
1595.81042	0.93086
1593.75661	0.93216
1591.70280	0.93307
1589.64899	0.93371
1587.59518	0.93441
1585.54137	0.93523
1583.48756	0.93607
1581.43375	0.93678
1579.37994	0.93740
1577.32613	0.93804
1575.27232	0.93844
1573.21851	0.93868
1571.16470	0.93905
1569.11089	0.93929
1567.05708	0.93915
1565.00327	0.93880
1562.94946	0.93848
1560.89565	0.93840
1558.84184	0.93827
1556.78803	0.93807
1554.73422	0.93811
1552.68041	0.93814
1550.62660	0.93818
1548.57279	0.93850
1546.51898	0.93924
1544.46517	0.94036
1542.41136	0.94152
1540.35755	0.94264
1538.30374	0.94379
1536.24993	0.94475
1534.19612	0.94587
1532.14231	0.94718
1530.08850	0.94848
1528.03469	0.94990
1525.98088	0.95127
1523.92707	0.95243
1521.87326	0.95360
1519.81945	0.95461
1517.76564	0.95549
1515.71183	0.95644
1513.65802	0.95722
1511.60421	0.95807
1509.55040	0.95914
1507.49659	0.96015
1505.44278	0.96057
1503.38897	0.96058
1501.33516	0.96078
1499.28135	0.96105
1497.22754	0.96096
1495.17373	0.96044
1493.11992	0.96011
1491.06611	0.95985
1489.01230	0.95905
1486.95849	0.95747
1484.90468	0.95523
1482.85087	0.95161
1480.79706	0.94500
1478.74325	0.93100
1476.68944	0.89591
1474.63563	0.82886
1472.58182	0.76051
1470.52801	0.74186
1468.47420	0.75010
1466.42039	0.75195
1464.36658	0.74730
1462.31277	0.75774
1460.25896	0.78772
1458.20515	0.82511
1456.15134	0.85502
1454.09753	0.87110
1452.04372	0.88261
1449.98991	0.89238
1447.93610	0.89969
1445.88229	0.90455
1443.82848	0.90752
1441.77467	0.90993
1439.72086	0.91241
1437.66705	0.91532
1435.61324	0.91867
1433.55943	0.92166
1431.50562	0.92449
1429.45181	0.92743
1427.39800	0.92996
1425.34419	0.93170
1423.29038	0.93258
1421.23657	0.93266
1419.18276	0.93186
1417.12895	0.93004
1415.07514	0.92805
1413.02133	0.92659
1410.96752	0.92627
1408.91371	0.92715
1406.85990	0.92884
1404.80609	0.93112
1402.75228	0.93354
1400.69847	0.93569
1398.64466	0.93756
1396.59085	0.93916
1394.53704	0.94038
1392.48323	0.94102
1390.42942	0.94120
1388.37561	0.94091
1386.32180	0.93951
1384.26799	0.93668
1382.21418	0.93251
1380.16037	0.92748
1378.10656	0.92353
1376.05275	0.92240
1373.99894	0.92346
1371.94513	0.92462
1369.89132	0.92527
1367.83751	0.92614
1365.78370	0.92777
1363.72989	0.92991
1361.67608	0.93191
1359.62227	0.93330
1357.56846	0.93414
1355.51465	0.93472
1353.46084	0.93523
1351.40703	0.93581
1349.35322	0.93672
1347.29941	0.93795
1345.24560	0.93917
1343.19179	0.94036
1341.13798	0.94150
1339.08417	0.94249
1337.03036	0.94322
1334.97655	0.94384
1332.92274	0.94443
1330.86893	0.94475
1328.81512	0.94451
1326.76130	0.94389
1324.70749	0.94323
1322.65368	0.94234
1320.59987	0.94123
1318.54606	0.94029
1316.49225	0.93957
1314.43844	0.93868
1312.38463	0.93761
1310.33082	0.93682
1308.27701	0.93625
1306.22320	0.93552
1304.16939	0.93471
1302.11558	0.93399
1300.06177	0.93336
1298.00796	0.93287
1295.95415	0.93267
1293.90034	0.93284
1291.84653	0.93316
1289.79272	0.93335
1287.73891	0.93333
1285.68510	0.93309
1283.63129	0.93265
1281.57748	0.93219
1279.52367	0.93201
1277.46986	0.93198
1275.41605	0.93177
1273.36224	0.93126
1271.30843	0.93069
1269.25462	0.93016
1267.20081	0.92957
1265.14700	0.92879
1263.09319	0.92779
1261.03938	0.92679
1258.98557	0.92594
1256.93176	0.92510
1254.87795	0.92412
1252.82414	0.92307
1250.77033	0.92196
1248.71652	0.92092
1246.66271	0.92012
1244.60890	0.91966
1242.55509	0.91952
1240.50128	0.91950
1238.44747	0.91948
1236.39366	0.91956
1234.33985	0.91989
1232.28604	0.92036
1230.23223	0.92073
1228.17842	0.92096
1226.12461	0.92115
1224.07080	0.92113
1222.01699	0.92084
1219.96318	0.92053
1217.90937	0.92022
1215.85556	0.91988
1213.80175	0.91963
1211.74794	0.91951
1209.69413	0.91951
1207.64032	0.91957
1205.58651	0.91971
1203.53270	0.92014
1201.47889	0.92080
1199.42508	0.92144
1197.37127	0.92199
1195.31746	0.92259
1193.26365	0.92302
1191.20984	0.92313
1189.15603	0.92319
1187.10222	0.92329
1185.04841	0.92327
1182.99460	0.92284
1180.94079	0.92216
1178.88698	0.92168
1176.83317	0.92143
1174.77936	0.92122
1172.72555	0.92103
1170.67174	0.92082
1168.61793	0.92061
1166.56412	0.92051
1164.51031	0.92061
1162.45650	0.92101
1160.40269	0.92173
1158.34888	0.92240
1156.29507	0.92287
1154.24126	0.92352
1152.18745	0.92438
1150.13364	0.92515
1148.07983	0.92584
1146.02602	0.92654
1143.97221	0.92711
1141.91840	0.92760
1139.86459	0.92816
1137.81078	0.92866
1135.75697	0.92873
1133.70316	0.92828
1131.64935	0.92761
1129.59554	0.92674
1127.54173	0.92575
1125.48792	0.92485
1123.43411	0.92397
1121.38030	0.92286
1119.32649	0.92146
1117.27268	0.92012
1115.21887	0.91911
1113.16506	0.91819
1111.11125	0.91698
1109.05744	0.91550
1107.00363	0.91404
1104.94982	0.91287
1102.89601	0.91203
1100.84220	0.91119
1098.78839	0.91021
1096.73458	0.90916
1094.68077	0.90806
1092.62696	0.90722
1090.57315	0.90648
1088.51934	0.90552
1086.46553	0.90460
1084.41172	0.90395
1082.35791	0.90367
1080.30410	0.90374
1078.25029	0.90379
1076.19648	0.90370
1074.14267	0.90383
1072.08886	0.90416
1070.03505	0.90412
1067.98124	0.90355
1065.92743	0.90270
1063.87362	0.90180
1061.81981	0.90124
1059.76600	0.90138
1057.71219	0.90204
1055.65838	0.90253
1053.60457	0.90252
1051.55076	0.90212
1049.49695	0.90149
1047.44314	0.90083
1045.38933	0.90039
1043.33552	0.90035
1041.28171	0.90058
1039.22790	0.90101
1037.17409	0.90169
1035.12028	0.90277
1033.06647	0.90425
1031.01265	0.90595
1028.95884	0.90768
1026.90503	0.90925
1024.85122	0.91081
1022.79741	0.91263
1020.74360	0.91455
1018.68979	0.91602
1016.63598	0.91690
1014.58217	0.91778
1012.52836	0.91897
1010.47455	0.92006
1008.42074	0.92088
1006.36693	0.92170
1004.31312	0.92285
1002.25931	0.92425
1000.20550	0.92559
998.15169	0.92681
996.09788	0.92806
994.04407	0.92934
991.99026	0.93043
989.93645	0.93121
987.88264	0.93188
985.82883	0.93246
983.77502	0.93280
981.72121	0.93310
979.66740	0.93337
977.61359	0.93358
975.55978	0.93372
973.50597	0.93343
971.45216	0.93254
969.39835	0.93137
967.34454	0.93051
965.29073	0.93002
963.23692	0.92976
961.18311	0.92972
959.12930	0.92968
957.07549	0.92964
955.02168	0.92987
952.96787	0.93029
950.91406	0.93077
948.86025	0.93133
946.80644	0.93176
944.75263	0.93199
942.69882	0.93254
940.64501	0.93336
938.59120	0.93375
936.53739	0.93370
934.48358	0.93358
932.42977	0.93345
930.37596	0.93335
928.32215	0.93328
926.26834	0.93307
924.21453	0.93249
922.16072	0.93173
920.10691	0.93119
918.05310	0.93072
915.99929	0.92993
913.94548	0.92884
911.89167	0.92768
909.83786	0.92691
907.78405	0.92661
905.73024	0.92640
903.67643	0.92599
901.62262	0.92532
899.56881	0.92452
897.51500	0.92365
895.46119	0.92279
893.40738	0.92191
891.35357	0.92094
889.29976	0.92029
887.24595	0.92016
885.19214	0.92028
883.13833	0.92013
881.08452	0.91929
879.03071	0.91821
876.97690	0.91758
874.92309	0.91714
872.86928	0.91641
870.81547	0.91578
868.76166	0.91533
866.70785	0.91485
864.65404	0.91438
862.60023	0.91356
860.54642	0.91226
858.49261	0.91075
856.43880	0.90915
854.38499	0.90764
852.33118	0.90642
850.27737	0.90541
848.22356	0.90450
846.16975	0.90359
844.11594	0.90235
842.06213	0.90086
840.00832	0.89951
837.95451	0.89824
835.90070	0.89712
833.84689	0.89629
831.79308	0.89553
829.73927	0.89459
827.68546	0.89353
825.63165	0.89250
823.57784	0.89157
821.52403	0.89051
819.47022	0.88914
817.41641	0.88801
815.36260	0.88676
813.30879	0.88473
811.25498	0.88300
809.20117	0.88178
807.14736	0.88007
805.09355	0.87823
803.03974	0.87673
800.98593	0.87535
798.93212	0.87413
796.87831	0.87287
794.82450	0.87168
792.77069	0.87088
790.71688	0.86999
788.66307	0.86889
786.60926	0.86787
784.55545	0.86658
782.50164	0.86495
780.44783	0.86343
778.39402	0.86181
776.34021	0.86030
774.28640	0.85949
772.23259	0.85865
770.17878	0.85726
768.12497	0.85572
766.07116	0.85431
764.01735	0.85332
761.96354	0.85291
759.90973	0.85280
757.85592	0.85217
755.80211	0.85045
753.74830	0.84838
751.69449	0.84688
749.64068	0.84571
747.58687	0.84415
745.53306	0.84218
743.47925	0.84006
741.42544	0.83762
739.37163	0.83405
737.31781	0.82793
735.26400	0.81429
733.21019	0.78474
731.15638	0.74647
729.10257	0.72563
727.04876	0.72636
724.99495	0.72330
722.94114	0.69779
720.88733	0.65362
718.83352	0.62103
716.77971	0.62980
714.72590	0.67271
712.67209	0.72069
710.61828	0.75413
708.56447	0.77270
706.51066	0.78349
704.45685	0.79093
702.40304	0.79604
700.34923	0.79875
698.29542	0.80021
696.24161	0.80196
694.18780	0.80386
692.13399	0.80494
690.08018	0.80500
688.02637	0.80435
685.97256	0.80354
683.91875	0.80356
681.86494	0.80396
679.81113	0.80331
677.75732	0.80253
675.70351	0.80291
673.64970	0.80369
671.59589	0.80390
669.54208	0.80312
667.48827	0.80226
665.43446	0.80258
663.38065	0.80257
661.32684	0.80213
659.27303	0.80235
657.21922	0.80287
655.16541	0.80300
653.11160	0.80298
651.05779	0.80306
649.00398	0.80342
646.95017	0.80389
644.89636	0.80371
642.84255	0.80326
640.78874	0.80299
638.73493	0.80228
636.68112	0.80122
634.62731	0.80061
632.57350	0.80046
630.51969	0.79974
628.46588	0.79846
626.41207	0.79825
624.35826	0.79940
622.30445	0.80026
620.25064	0.80034
618.19683	0.80030
616.14302	0.80065
614.08921	0.80187
612.03540	0.80281
609.98159	0.80277
607.92778	0.80301
605.87397	0.80344
603.82016	0.80328
601.76635	0.80323
599.71254	0.80399
597.65873	0.80495
595.60492	0.80519
593.55111	0.80463
591.49730	0.80402
589.44349	0.80377
587.38968	0.80358
585.33587	0.80326
583.28206	0.80311
581.22825	0.80316
579.17444	0.80186
577.12063	0.80017
575.06682	0.80142
573.01301	0.80353
570.95920	0.80373
568.90539	0.80347
566.85158	0.80392
564.79777	0.80495
562.74396	0.80551
560.69015	0.80426
558.63634	0.80239
556.58253	0.80186
554.52872	0.80217
552.47491	0.80264
550.42110	0.80377
548.36729	0.80500
546.31348	0.80453
544.25967	0.80311
542.20586	0.80271
540.15205	0.80281
538.09824	0.80331
536.04443	0.80435
533.99062	0.80499
531.93681	0.80497
529.88300	0.80451
527.82919	0.80366
525.77538	0.80312
523.72157	0.80429
521.66776	0.80660
519.61395	0.80854
517.56014	0.80995
515.50633	0.81091
513.45252	0.81124
511.39871	0.81163
509.34490	0.81313
507.29109	0.81527
505.23728	0.81633
503.18347	0.81597
501.12966	0.81552
499.07585	0.81613
497.02204	0.81704
494.96823	0.81637
492.91442	0.81505
490.86061	0.81558
488.80680	0.81692
486.75299	0.81709
484.69918	0.81703
482.64537	0.81817
480.59156	0.81907
478.53775	0.81751
476.48394	0.81441
474.43013	0.81236
472.37632	0.81207
470.32251	0.81261
468.26870	0.81458
466.21489	0.81872
464.16108	0.82220
462.10727	0.82303
460.05346	0.82334
457.99965	0.82584
455.94584	0.82843
453.89203	0.82698
451.83822	0.82460
449.78441	0.82599
447.73060	0.82916
445.67679	0.82983
443.62298	0.82732
441.56916	0.82405
439.51535	0.82311
437.46154	0.82505
435.40773	0.82630
433.35392	0.82477
431.30011	0.82322
429.24630	0.82428
427.19249	0.82797
425.13868	0.83072
423.08487	0.83044
421.03106	0.83050
418.97725	0.83359
416.92344	0.83697
414.86963	0.83657
412.81582	0.83442
410.76201	0.83559
408.70820	0.83994
406.65439	0.84160
404.60058	0.84105
402.54677	0.84274
400.49296	0.84658
398.43915	0.85094
