3996.71440	0.98549
3994.66059	0.98544
3992.60678	0.98520
3990.55297	0.98496
3988.49916	0.98497
3986.44535	0.98501
3984.39154	0.98496
3982.33773	0.98477
3980.28391	0.98451
3978.23010	0.98429
3976.17629	0.98423
3974.12248	0.98439
3972.06867	0.98458
3970.01486	0.98477
3967.96105	0.98503
3965.90724	0.98504
3963.85343	0.98474
3961.79962	0.98449
3959.74581	0.98428
3957.69200	0.98415
3955.63819	0.98438
3953.58438	0.98483
3951.53057	0.98509
3949.47676	0.98501
3947.42295	0.98480
3945.36914	0.98486
3943.31533	0.98493
3941.26152	0.98449
3939.20771	0.98414
3937.15390	0.98439
3935.10009	0.98468
3933.04628	0.98465
3930.99247	0.98469
3928.93866	0.98476
3926.88485	0.98466
3924.83104	0.98479
3922.77723	0.98491
3920.72342	0.98455
3918.66961	0.98416
3916.61580	0.98404
3914.56199	0.98395
3912.50818	0.98387
3910.45437	0.98387
3908.40056	0.98388
3906.34675	0.98390
3904.29294	0.98398
3902.23913	0.98391
3900.18532	0.98371
3898.13151	0.98351
3896.07770	0.98343
3894.02389	0.98369
3891.97008	0.98410
3889.91627	0.98410
3887.86246	0.98380
3885.80865	0.98364
3883.75484	0.98383
3881.70103	0.98407
3879.64722	0.98399
3877.59341	0.98386
3875.53960	0.98403
3873.48579	0.98418
3871.43198	0.98395
3869.37817	0.98367
3867.32436	0.98363
3865.27055	0.98375
3863.21674	0.98398
3861.16293	0.98407
3859.10912	0.98399
3857.05531	0.98386
3855.00150	0.98374
3852.94769	0.98367
3850.89388	0.98368
3848.84007	0.98350
3846.78626	0.98331
3844.73245	0.98349
3842.67864	0.98383
3840.62483	0.98371
3838.57102	0.98322
3836.51721	0.98328
3834.46340	0.98376
3832.40959	0.98387
3830.35578	0.98374
3828.30197	0.98362
3826.24816	0.98343
3824.19435	0.98329
3822.14054	0.98344
3820.08673	0.98369
3818.03292	0.98358
3815.97911	0.98315
3813.92530	0.98291
3811.87149	0.98284
3809.81768	0.98256
3807.76387	0.98235
3805.71006	0.98269
3803.65625	0.98320
3801.60244	0.98324
3799.54863	0.98295
3797.49482	0.98298
3795.44101	0.98321
3793.38720	0.98304
3791.33339	0.98246
3789.27958	0.98212
3787.22577	0.98219
3785.17196	0.98241
3783.11815	0.98279
3781.06434	0.98276
3779.01053	0.98209
3776.95672	0.98160
3774.90291	0.98157
3772.84910	0.98165
3770.79529	0.98154
3768.74148	0.98127
3766.68767	0.98137
3764.63386	0.98177
3762.58005	0.98203
3760.52624	0.98237
3758.47243	0.98276
3756.41862	0.98264
3754.36481	0.98241
3752.31100	0.98254
3750.25719	0.98242
3748.20338	0.98210
3746.14957	0.98231
3744.09576	0.98253
3742.04195	0.98213
3739.98814	0.98149
3737.93433	0.98105
3735.88052	0.98108
3733.82671	0.98110
3731.77290	0.98076
3729.71909	0.98044
3727.66528	0.98020
3725.61147	0.98011
3723.55766	0.98015
3721.50385	0.97986
3719.45004	0.97935
3717.39623	0.97910
3715.34242	0.97900
3713.28861	0.97861
3711.23480	0.97790
3709.18099	0.97707
3707.12718	0.97616
3705.07337	0.97551
3703.01956	0.97513
3700.96575	0.97447
3698.91194	0.97379
3696.85813	0.97341
3694.80432	0.97318
3692.75051	0.97310
3690.69670	0.97288
3688.64289	0.97227
3686.58907	0.97144
3684.53526	0.97056
3682.48145	0.96960
3680.42764	0.96855
3678.37383	0.96771
3676.32002	0.96683
3674.26621	0.96542
3672.21240	0.96417
3670.15859	0.96302
3668.10478	0.96180
3666.05097	0.96070
3663.99716	0.95941
3661.94335	0.95793
3659.88954	0.95644
3657.83573	0.95486
3655.78192	0.95313
3653.72811	0.95178
3651.67430	0.95064
3649.62049	0.94893
3647.56668	0.94658
3645.51287	0.94467
3643.45906	0.94334
3641.40525	0.94192
3639.35144	0.94053
3637.29763	0.93942
3635.24382	0.93795
3633.19001	0.93625
3631.13620	0.93496
3629.08239	0.93327
3627.02858	0.93091
3624.97477	0.92910
3622.92096	0.92794
3620.86715	0.92702
3618.81334	0.92538
3616.75953	0.92348
3614.70572	0.92205
3612.65191	0.92072
3610.59810	0.91942
3608.54429	0.91811
3606.49048	0.91665
3604.43667	0.91514
3602.38286	0.91373
3600.32905	0.91254
3598.27524	0.91142
3596.22143	0.90987
3594.16762	0.90823
3592.11381	0.90753
3590.06000	0.90716
3588.00619	0.90562
3585.95238	0.90339
3583.89857	0.90218
3581.84476	0.90152
3579.79095	0.90043
3577.73714	0.89902
3575.68333	0.89776
3573.62952	0.89676
3571.57571	0.89585
3569.52190	0.89484
3567.46809	0.89330
3565.41428	0.89144
3563.36047	0.89007
3561.30666	0.88892
3559.25285	0.88767
3557.19904	0.88649
3555.14523	0.88556
3553.09142	0.88451
3551.03761	0.88309
3548.98380	0.88174
3546.92999	0.88051
3544.87618	0.87929
3542.82237	0.87839
3540.76856	0.87755
3538.71475	0.87645
3536.66094	0.87531
3534.60713	0.87430
3532.55332	0.87351
3530.49951	0.87286
3528.44570	0.87195
3526.39189	0.87055
3524.33808	0.86911
3522.28427	0.86810
3520.23046	0.86745
3518.17665	0.86665
3516.12284	0.86538
3514.06903	0.86424
3512.01522	0.86385
3509.96141	0.86357
3507.90760	0.86258
3505.85379	0.86131
3503.79998	0.86019
3501.74617	0.85920
3499.69236	0.85827
3497.63855	0.85715
3495.58474	0.85598
3493.53093	0.85506
3491.47712	0.85439
3489.42331	0.85381
3487.36950	0.85315
3485.31569	0.85236
3483.26188	0.85163
3481.20807	0.85096
3479.15426	0.85033
3477.10045	0.84966
3475.04664	0.84876
3472.99283	0.84788
3470.93902	0.84721
3468.88521	0.84649
3466.83140	0.84571
3464.77759	0.84514
3462.72378	0.84452
3460.66997	0.84383
3458.61616	0.84323
3456.56235	0.84246
3454.50854	0.84170
3452.45473	0.84134
3450.40092	0.84105
3448.34711	0.84046
3446.29330	0.83977
3444.23949	0.83909
3442.18568	0.83833
3440.13187	0.83782
3438.07806	0.83780
3436.02425	0.83793
3433.97044	0.83768
3431.91663	0.83708
3429.86282	0.83649
3427.80901	0.83585
3425.75520	0.83510
3423.70139	0.83465
3421.64758	0.83471
3419.59377	0.83476
3417.53996	0.83436
3415.48615	0.83387
3413.43234	0.83380
3411.37853	0.83385
3409.32472	0.83364
3407.27091	0.83340
3405.21710	0.83339
3403.16329	0.83353
3401.10948	0.83344
3399.05567	0.83315
3397.00186	0.83310
3394.94805	0.83324
3392.89424	0.83321
3390.84042	0.83309
3388.78661	0.83308
3386.73280	0.83325
3384.67899	0.83336
3382.62518	0.83315
3380.57137	0.83292
3378.51756	0.83306
3376.46375	0.83326
3374.40994	0.83333
3372.35613	0.83354
3370.30232	0.83383
3368.24851	0.83407
3366.19470	0.83432
3364.14089	0.83465
3362.08708	0.83519
3360.03327	0.83579
3357.97946	0.83603
3355.92565	0.83576
3353.87184	0.83551
3351.81803	0.83588
3349.76422	0.83667
3347.71041	0.83690
3345.65660	0.83655
3343.60279	0.83669
3341.54898	0.83736
3339.49517	0.83775
3337.44136	0.83783
3335.38755	0.83820
3333.33374	0.83905
3331.27993	0.83985
3329.22612	0.84025
3327.17231	0.84047
3325.11850	0.84082
3323.06469	0.84121
3321.01088	0.84153
3318.95707	0.84174
3316.90326	0.84182
3314.84945	0.84182
3312.79564	0.84210
3310.74183	0.84276
3308.68802	0.84324
3306.63421	0.84355
3304.58040	0.84392
3302.52659	0.84415
3300.47278	0.84426
3298.41897	0.84451
3296.36516	0.84495
3294.31135	0.84522
3292.25754	0.84513
3290.20373	0.84511
3288.14992	0.84545
3286.09611	0.84617
3284.04230	0.84692
3281.98849	0.84709
3279.93468	0.84691
3277.88087	0.84711
3275.82706	0.84753
3273.77325	0.84780
3271.71944	0.84803
3269.66563	0.84820
3267.61182	0.84838
3265.55801	0.84875
3263.50420	0.84912
3261.45039	0.84941
3259.39658	0.84970
3257.34277	0.85000
3255.28896	0.85024
3253.23515	0.85037
3251.18134	0.85063
3249.12753	0.85117
3247.07372	0.85174
3245.01991	0.85222
3242.96610	0.85244
3240.91229	0.85235
3238.85848	0.85232
3236.80467	0.85260
3234.75086	0.85306
3232.69705	0.85348
3230.64324	0.85384
3228.58943	0.85423
3226.53562	0.85471
3224.48181	0.85528
3222.42800	0.85595
3220.37419	0.85663
3218.32038	0.85709
3216.26657	0.85722
3214.21276	0.85733
3212.15895	0.85774
3210.10514	0.85834
3208.05133	0.85893
3205.99752	0.85953
3203.94371	0.86016
3201.88990	0.86064
3199.83609	0.86100
3197.78228	0.86165
3195.72847	0.86259
3193.67466	0.86323
3191.62085	0.86339
3189.56704	0.86345
3187.51323	0.86373
3185.45942	0.86423
3183.40561	0.86481
3181.35180	0.86536
3179.29799	0.86597
3177.24418	0.86665
3175.19037	0.86707
3173.13656	0.86732
3171.08275	0.86789
3169.02894	0.86876
3166.97513	0.86945
3164.92132	0.86992
3162.86751	0.87041
3160.81370	0.87096
3158.75989	0.87150
3156.70608	0.87187
3154.65227	0.87214
3152.59846	0.87260
3150.54465	0.87328
3148.49084	0.87404
3146.43703	0.87480
3144.38322	0.87540
3142.32941	0.87573
3140.27560	0.87579
3138.22179	0.87583
3136.16798	0.87626
3134.11417	0.87709
3132.06036	0.87790
3130.00655	0.87839
3127.95274	0.87874
3125.89893	0.87909
3123.84512	0.87951
3121.79131	0.88007
3119.73750	0.88071
3117.68369	0.88120
3115.62988	0.88148
3113.57607	0.88182
3111.52226	0.88225
3109.46845	0.88269
3107.41464	0.88315
3105.36083	0.88359
3103.30702	0.88404
3101.25321	0.88435
3099.19940	0.88456
3097.14559	0.88483
3095.09177	0.88509
3093.03796	0.88521
3090.98415	0.88521
3088.93034	0.88534
3086.87653	0.88562
3084.82272	0.88601
3082.76891	0.88658
3080.71510	0.88709
3078.66129	0.88746
3076.60748	0.88785
3074.55367	0.88817
3072.49986	0.88846
3070.44605	0.88882
3068.39224	0.88912
3066.33843	0.88932
3064.28462	0.88975
3062.23081	0.89032
3060.17700	0.89050
3058.12319	0.89058
3056.06938	0.89089
3054.01557	0.89117
3051.96176	0.89137
3049.90795	0.89152
3047.85414	0.89170
3045.80033	0.89197
3043.74652	0.89218
3041.69271	0.89245
3039.63890	0.89292
3037.58509	0.89341
3035.53128	0.89386
3033.47747	0.89408
3031.42366	0.89388
3029.36985	0.89390
3027.31604	0.89444
3025.26223	0.89495
3023.20842	0.89511
3021.15461	0.89515
3019.10080	0.89529
3017.04699	0.89553
3014.99318	0.89569
3012.93937	0.89593
3010.88556	0.89648
3008.83175	0.89705
3006.77794	0.89743
3004.72413	0.89761
3002.67032	0.89765
3000.61651	0.89782
2998.56270	0.89815
2996.50889	0.89824
2994.45508	0.89800
2992.40127	0.89794
2990.34746	0.89813
2988.29365	0.89812
2986.23984	0.89766
2984.18603	0.89686
2982.13222	0.89614
2980.07841	0.89582
2978.02460	0.89563
2975.97079	0.89524
2973.91698	0.89460
2971.86317	0.89350
2969.80936	0.89193
2967.75555	0.89013
2965.70174	0.88831
2963.64793	0.88660
2961.59412	0.88482
2959.54031	0.88266
2957.48650	0.88036
2955.43269	0.87821
2953.37888	0.87597
2951.32507	0.87326
2949.27126	0.86969
2947.21745	0.86465
2945.16364	0.85771
2943.10983	0.84855
2941.05602	0.83680
2939.00221	0.82232
2936.94840	0.80516
2934.89459	0.78501
2932.84078	0.76122
2930.78697	0.73328
2928.73316	0.70042
2926.67935	0.66101
2924.62554	0.61323
2922.57173	0.55685
2920.51792	0.49540
2918.46411	0.43665
2916.41030	0.39238
2914.35649	0.37478
2912.30268	0.38777
2910.24887	0.42308
2908.19506	0.46695
2906.14125	0.50870
2904.08744	0.54361
2902.03363	0.57122
2899.97982	0.59326
2897.92601	0.61194
2895.87220	0.62883
2893.81839	0.64484
2891.76458	0.66058
2889.71077	0.67647
2887.65696	0.69264
2885.60315	0.70908
2883.54934	0.72584
2881.49553	0.74270
2879.44172	0.75926
2877.38791	0.77511
2875.33410	0.78934
2873.28029	0.80071
2871.22648	0.80865
2869.17267	0.81295
2867.11886	0.81340
2865.06505	0.80980
2863.01124	0.80095
2860.95743	0.78467
2858.90362	0.75843
2856.84981	0.71782
2854.79600	0.65649
2852.74219	0.57205
2850.68838	0.47893
2848.63457	0.41380
2846.58076	0.40935
2844.52695	0.46156
2842.47314	0.53841
2840.41933	0.61180
2838.36552	0.67053
2836.31171	0.71446
2834.25790	0.74668
2832.20409	0.77032
2830.15028	0.78817
2828.09647	0.80221
2826.04266	0.81353
2823.98885	0.82281
2821.93504	0.83059
2819.88123	0.83712
2817.82742	0.84240
2815.77361	0.84675
2813.71980	0.85073
2811.66599	0.85451
2809.61218	0.85779
2807.55837	0.86049
2805.50456	0.86303
2803.45075	0.86546
2801.39693	0.86767
2799.34312	0.86973
2797.28931	0.87173
2795.23550	0.87364
2793.18169	0.87538
2791.12788	0.87705
2789.07407	0.87880
2787.02026	0.88055
2784.96645	0.88214
2782.91264	0.88359
2780.85883	0.88492
2778.80502	0.88613
2776.75121	0.88734
2774.69740	0.88855
2772.64359	0.88955
2770.58978	0.89024
2768.53597	0.89085
2766.48216	0.89163
2764.42835	0.89257
2762.37454	0.89345
2760.32073	0.89410
2758.26692	0.89453
2756.21311	0.89503
2754.15930	0.89575
2752.10549	0.89641
2750.05168	0.89682
2747.99787	0.89713
2745.94406	0.89741
2743.89025	0.89758
2741.83644	0.89786
2739.78263	0.89835
2737.72882	0.89878
2735.67501	0.89912
2733.62120	0.89953
2731.56739	0.89999
2729.51358	0.90043
2727.45977	0.90085
2725.40596	0.90129
2723.35215	0.90181
2721.29834	0.90236
2719.24453	0.90277
2717.19072	0.90305
2715.13691	0.90335
2713.08310	0.90377
2711.02929	0.90421
2708.97548	0.90445
2706.92167	0.90456
2704.86786	0.90481
2702.81405	0.90524
2700.76024	0.90552
2698.70643	0.90567
2696.65262	0.90592
2694.59881	0.90620
2692.54500	0.90646
2690.49119	0.90665
2688.43738	0.90673
2686.38357	0.90676
2684.32976	0.90684
2682.27595	0.90703
2680.22214	0.90723
2678.16833	0.90733
2676.11452	0.90735
2674.06071	0.90718
2672.00690	0.90689
2669.95309	0.90666
2667.89928	0.90632
2665.84547	0.90596
2663.79166	0.90587
2661.73785	0.90602
2659.68404	0.90625
2657.63023	0.90647
2655.57642	0.90661
2653.52261	0.90660
2651.46880	0.90659
2649.41499	0.90686
2647.36118	0.90728
2645.30737	0.90756
2643.25356	0.90771
2641.19975	0.90787
2639.14594	0.90790
2637.09213	0.90765
2635.03832	0.90742
2632.98451	0.90753
2630.93070	0.90791
2628.87689	0.90832
2626.82308	0.90859
2624.76927	0.90898
2622.71546	0.90968
2620.66165	0.91039
2618.60784	0.91089
2616.55403	0.91123
2614.50022	0.91171
2612.44641	0.91233
2610.39260	0.91263
2608.33879	0.91263
2606.28498	0.91277
2604.23117	0.91312
2602.17736	0.91363
2600.12355	0.91413
2598.06974	0.91405
2596.01593	0.91378
2593.96212	0.91404
2591.90831	0.91451
2589.85450	0.91497
2587.80069	0.91557
2585.74688	0.91617
2583.69307	0.91649
2581.63926	0.91648
2579.58545	0.91626
2577.53164	0.91624
2575.47783	0.91651
2573.42402	0.91668
2571.37021	0.91666
2569.31640	0.91644
2567.26259	0.91619
2565.20878	0.91632
2563.15497	0.91668
2561.10116	0.91694
2559.04735	0.91721
2556.99354	0.91739
2554.93973	0.91734
2552.88592	0.91746
2550.83211	0.91797
2548.77830	0.91847
2546.72449	0.91861
2544.67068	0.91844
2542.61687	0.91844
2540.56306	0.91874
2538.50925	0.91898
2536.45544	0.91901
2534.40163	0.91892
2532.34782	0.91877
2530.29401	0.91872
2528.24020	0.91892
2526.18639	0.91930
2524.13258	0.91954
2522.07877	0.91921
2520.02496	0.91887
2517.97115	0.91910
2515.91734	0.91932
2513.86353	0.91937
2511.80972	0.91950
2509.75591	0.91961
2507.70210	0.91964
2505.64828	0.91961
2503.59447	0.91954
2501.54066	0.91946
2499.48685	0.91935
2497.43304	0.91928
2495.37923	0.91954
2493.32542	0.92007
2491.27161	0.92025
2489.21780	0.92002
2487.16399	0.92012
2485.11018	0.92056
2483.05637	0.92082
2481.00256	0.92091
2478.94875	0.92078
2476.89494	0.92031
2474.84113	0.92003
2472.78732	0.92015
2470.73351	0.92028
2468.67970	0.92016
2466.62589	0.91985
2464.57208	0.91989
2462.51827	0.92024
2460.46446	0.92045
2458.41065	0.92103
2456.35684	0.92186
2454.30303	0.92199
2452.24922	0.92137
2450.19541	0.92092
2448.14160	0.92106
2446.08779	0.92138
2444.03398	0.92135
2441.98017	0.92093
2439.92636	0.92055
2437.87255	0.92062
2435.81874	0.92105
2433.76493	0.92142
2431.71112	0.92141
2429.65731	0.92121
2427.60350	0.92118
2425.54969	0.92121
2423.49588	0.92113
2421.44207	0.92115
2419.38826	0.92110
2417.33445	0.92100
2415.28064	0.92116
2413.22683	0.92141
2411.17302	0.92121
2409.11921	0.92059
2407.06540	0.92034
2405.01159	0.92064
2402.95778	0.92110
2400.90397	0.92164
2398.85016	0.92202
2396.79635	0.92191
2394.74254	0.92141
2392.68873	0.92104
2390.63492	0.92107
2388.58111	0.92119
2386.52730	0.92121
2384.47349	0.92127
2382.41968	0.92132
2380.36587	0.92115
2378.31206	0.92102
2376.25825	0.92116
2374.20444	0.92136
2372.15063	0.92149
2370.09682	0.92133
2368.04301	0.92050
2365.98920	0.91932
2363.93539	0.91881
2361.88158	0.91931
2359.82777	0.92024
2357.77396	0.92086
2355.72015	0.92020
2353.66634	0.91889
2351.61253	0.91805
2349.55872	0.91732
2347.50491	0.91646
2345.45110	0.91594
2343.39729	0.91622
2341.34348	0.91667
2339.28967	0.91670
2337.23586	0.91654
2335.18205	0.91665
2333.12824	0.91703
2331.07443	0.91725
2329.02062	0.91723
2326.96681	0.91676
2324.91300	0.91588
2322.85919	0.91523
2320.80538	0.91538
2318.75157	0.91632
2316.69776	0.91720
2314.64395	0.91747
2312.59014	0.91749
2310.53633	0.91749
2308.48252	0.91740
2306.42871	0.91753
2304.37490	0.91810
2302.32109	0.91870
2300.26728	0.91859
2298.21347	0.91793
2296.15966	0.91751
2294.10585	0.91735
2292.05204	0.91742
2289.99823	0.91775
2287.94442	0.91785
2285.89061	0.91763
2283.83680	0.91738
2281.78299	0.91742
2279.72918	0.91785
2277.67537	0.91852
2275.62156	0.91898
2273.56775	0.91901
2271.51394	0.91906
2269.46013	0.91930
2267.40632	0.91958
2265.35251	0.91989
2263.29870	0.92019
2261.24489	0.92016
2259.19108	0.91961
2257.13727	0.91931
2255.08346	0.91973
2253.02965	0.92037
2250.97584	0.92090
2248.92203	0.92103
2246.86822	0.92046
2244.81441	0.91952
2242.76060	0.91907
2240.70679	0.91919
2238.65298	0.91894
2236.59917	0.91896
2234.54536	0.91989
2232.49155	0.92055
2230.43774	0.92091
2228.38393	0.92131
2226.33012	0.92105
2224.27631	0.92033
2222.22250	0.92020
2220.16869	0.92087
2218.11488	0.92135
2216.06107	0.92104
2214.00726	0.92052
2211.95344	0.91996
2209.89963	0.91960
2207.84582	0.91971
2205.79201	0.91961
2203.73820	0.91909
2201.68439	0.91881
2199.63058	0.91916
2197.57677	0.91968
2195.52296	0.91972
2193.46915	0.91974
2191.41534	0.92030
2189.36153	0.92019
2187.30772	0.91900
2185.25391	0.91811
2183.20010	0.91843
2181.14629	0.91988
2179.09248	0.92070
2177.03867	0.92012
2174.98486	0.91993
2172.93105	0.91994
2170.87724	0.91909
2168.82343	0.91819
2166.76962	0.91839
2164.71581	0.91925
2162.66200	0.91894
2160.60819	0.91847
2158.55438	0.92076
2156.50057	0.92353
2154.44676	0.92310
2152.39295	0.92148
2150.33914	0.92174
2148.28533	0.92304
2146.23152	0.92322
2144.17771	0.92228
2142.12390	0.92189
2140.07009	0.92233
2138.01628	0.92255
2135.96247	0.92247
2133.90866	0.92208
2131.85485	0.92086
2129.80104	0.91938
2127.74723	0.91873
2125.69342	0.91878
2123.63961	0.91895
2121.58580	0.91900
2119.53199	0.91874
2117.47818	0.91838
2115.42437	0.91779
2113.37056	0.91703
2111.31675	0.91636
2109.26294	0.91610
2107.20913	0.91679
2105.15532	0.91785
2103.10151	0.91823
2101.04770	0.91794
2098.99389	0.91764
2096.94008	0.91787
2094.88627	0.91838
2092.83246	0.91855
2090.77865	0.91853
2088.72484	0.91860
2086.67103	0.91863
2084.61722	0.91807
2082.56341	0.91666
2080.50960	0.91536
2078.45579	0.91522
2076.40198	0.91586
2074.34817	0.91613
2072.29436	0.91599
2070.24055	0.91627
2068.18674	0.91650
2066.13293	0.91621
2064.07912	0.91636
2062.02531	0.91704
2059.97150	0.91704
2057.91769	0.91617
2055.86388	0.91595
2053.81007	0.91696
2051.75626	0.91774
2049.70245	0.91764
2047.64864	0.91703
2045.59483	0.91640
2043.54102	0.91657
2041.48721	0.91715
2039.43340	0.91718
2037.37959	0.91684
2035.32578	0.91718
2033.27197	0.91804
2031.21816	0.91769
2029.16435	0.91649
2027.11054	0.91565
2025.05673	0.91522
2023.00292	0.91548
2020.94911	0.91559
2018.89530	0.91552
2016.84149	0.91727
2014.78768	0.91980
2012.73387	0.92018
2010.68006	0.91875
2008.62625	0.91784
2006.57244	0.91836
2004.51863	0.91899
2002.46482	0.91845
2000.41101	0.91722
1998.35720	0.91654
1996.30339	0.91642
1994.24958	0.91608
1992.19577	0.91519
1990.14196	0.91410
1988.08815	0.91353
1986.03434	0.91319
1983.98053	0.91211
1981.92672	0.91105
1979.87291	0.91142
1977.81910	0.91286
1975.76529	0.91435
1973.71148	0.91509
1971.65767	0.91533
1969.60386	0.91568
1967.55005	0.91544
1965.49624	0.91488
1963.44243	0.91447
1961.38862	0.91446
1959.33481	0.91471
1957.28100	0.91435
1955.22719	0.91364
1953.17338	0.91305
1951.11957	0.91218
1949.06576	0.91116
1947.01195	0.91075
1944.95814	0.91057
1942.90433	0.91004
1940.85052	0.90949
1938.79671	0.90894
1936.74290	0.90829
1934.68909	0.90807
1932.63528	0.90845
1930.58147	0.90884
1928.52766	0.90866
1926.47385	0.90804
1924.42004	0.90733
1922.36623	0.90639
1920.31242	0.90529
1918.25861	0.90419
1916.20479	0.90371
1914.15098	0.90406
1912.09717	0.90409
1910.04336	0.90353
1907.98955	0.90317
1905.93574	0.90263
1903.88193	0.90135
1901.82812	0.90034
1899.77431	0.89991
1897.72050	0.89930
1895.66669	0.89870
1893.61288	0.89844
1891.55907	0.89835
1889.50526	0.89839
1887.45145	0.89832
1885.39764	0.89804
1883.34383	0.89736
1881.29002	0.89634
1879.23621	0.89568
1877.18240	0.89556
1875.12859	0.89531
1873.07478	0.89460
1871.02097	0.89389
1868.96716	0.89364
1866.91335	0.89359
1864.85954	0.89337
1862.80573	0.89308
1860.75192	0.89261
1858.69811	0.89194
1856.64430	0.89120
1854.59049	0.89032
1852.53668	0.88956
1850.48287	0.88945
1848.42906	0.88958
1846.37525	0.88899
1844.32144	0.88766
1842.26763	0.88685
1840.21382	0.88660
1838.16001	0.88591
1836.10620	0.88496
1834.05239	0.88445
1831.99858	0.88426
1829.94477	0.88374
1827.89096	0.88293
1825.83715	0.88249
1823.78334	0.88213
1821.72953	0.88137
1819.67572	0.88046
1817.62191	0.87981
1815.56810	0.87942
1813.51429	0.87897
1811.46048	0.87833
1809.40667	0.87748
1807.35286	0.87658
1805.29905	0.87584
1803.24524	0.87531
1801.19143	0.87478
1799.13762	0.87373
1797.08381	0.87255
1795.03000	0.87181
1792.97619	0.87121
1790.92238	0.87031
1788.86857	0.86930
1786.81476	0.86851
1784.76095	0.86783
1782.70714	0.86712
1780.65333	0.86639
1778.59952	0.86563
1776.54571	0.86492
1774.49190	0.86424
1772.43809	0.86345
1770.38428	0.86256
1768.33047	0.86170
1766.27666	0.86078
1764.22285	0.85985
1762.16904	0.85893
1760.11523	0.85809
1758.06142	0.85722
1756.00761	0.85640
1753.95380	0.85580
1751.89999	0.85487
1749.84618	0.85330
1747.79237	0.85198
1745.73856	0.85113
1743.68475	0.85007
1741.63094	0.84875
1739.57713	0.84747
1737.52332	0.84648
1735.46951	0.84564
1733.41570	0.84447
1731.36189	0.84330
1729.30808	0.84196
1727.25427	0.83984
1725.20046	0.83692
1723.14665	0.83351
1721.09284	0.83046
1719.03903	0.82758
1716.98522	0.82389
1714.93141	0.82081
1712.87760	0.81961
1710.82379	0.81983
1708.76998	0.82084
1706.71617	0.82233
1704.66236	0.82412
1702.60855	0.82559
1700.55474	0.82658
1698.50093	0.82713
1696.44712	0.82784
1694.39331	0.82920
1692.33950	0.83066
1690.28569	0.83184
1688.23188	0.83270
1686.17807	0.83318
1684.12426	0.83323
1682.07045	0.83327
1680.01664	0.83352
1677.96283	0.83364
1675.90902	0.83326
1673.85521	0.83264
1671.80140	0.83222
1669.74759	0.83152
1667.69378	0.83061
1665.63997	0.83005
1663.58616	0.82950
1661.53235	0.82877
1659.47854	0.82808
1657.42473	0.82748
1655.37092	0.82697
1653.31711	0.82594
1651.26330	0.82485
1649.20949	0.82448
1647.15568	0.82391
1645.10187	0.82318
1643.04806	0.82290
1640.99425	0.82285
1638.94044	0.82291
1636.88663	0.82320
1634.83282	0.82379
1632.77901	0.82462
1630.72520	0.82558
1628.67139	0.82675
1626.61758	0.82829
1624.56377	0.83035
1622.50996	0.83273
1620.45614	0.83475
1618.40233	0.83675
1616.34852	0.83950
1614.29471	0.84227
1612.24090	0.84456
1610.18709	0.84680
1608.13328	0.84919
1606.07947	0.85156
1604.02566	0.85386
1601.97185	0.85620
1599.91804	0.85839
1597.86423	0.86030
1595.81042	0.86207
1593.75661	0.86392
1591.70280	0.86576
1589.64899	0.86738
1587.59518	0.86882
1585.54137	0.87026
1583.48756	0.87162
1581.43375	0.87272
1579.37994	0.87368
1577.32613	0.87481
1575.27232	0.87610
1573.21851	0.87719
1571.16470	0.87819
1569.11089	0.87910
1567.05708	0.87985
1565.00327	0.88056
1562.94946	0.88118
1560.89565	0.88179
1558.84184	0.88257
1556.78803	0.88305
1554.73422	0.88342
1552.68041	0.88390
1550.62660	0.88430
1548.57279	0.88467
1546.51898	0.88515
1544.46517	0.88575
1542.41136	0.88634
1540.35755	0.88667
1538.30374	0.88656
1536.24993	0.88653
1534.19612	0.88680
1532.14231	0.88704
1530.08850	0.88708
1528.03469	0.88723
1525.98088	0.88737
1523.92707	0.88751
1521.87326	0.88792
1519.81945	0.88833
1517.76564	0.88829
1515.71183	0.88787
1513.65802	0.88758
1511.60421	0.88776
1509.55040	0.88828
1507.49659	0.88853
1505.44278	0.88793
1503.38897	0.88738
1501.33516	0.88726
1499.28135	0.88720
1497.22754	0.88685
1495.17373	0.88636
1493.11992	0.88614
1491.06611	0.88568
1489.01230	0.88466
1486.95849	0.88346
1484.90468	0.88196
1482.85087	0.87951
1480.79706	0.87464
1478.74325	0.86201
1476.68944	0.82555
1474.63563	0.75335
1472.58182	0.68741
1470.52801	0.69082
1468.47420	0.72519
1466.42039	0.74108
1464.36658	0.72710
1462.31277	0.71730
1460.25896	0.73958
1458.20515	0.78227
1456.15134	0.81709
1454.09753	0.83126
1452.04372	0.83858
1449.98991	0.84399
1447.93610	0.84783
1445.88229	0.85036
1443.82848	0.85195
1441.77467	0.85323
1439.72086	0.85453
1437.66705	0.85601
1435.61324	0.85751
1433.55943	0.85873
1431.50562	0.86008
1429.45181	0.86150
1427.39800	0.86263
1425.34419	0.86353
1423.29038	0.86426
1421.23657	0.86460
1419.18276	0.86454
1417.12895	0.86411
1415.07514	0.86353
1413.02133	0.86284
1410.96752	0.86224
1408.91371	0.86191
1406.85990	0.86182
1404.80609	0.86213
1402.75228	0.86272
1400.69847	0.86333
1398.64466	0.86378
1396.59085	0.86390
1394.53704	0.86347
1392.48323	0.86280
1390.42942	0.86228
1388.37561	0.86160
1386.32180	0.86043
1384.26799	0.85896
1382.21418	0.85716
1380.16037	0.85498
1378.10656	0.85294
1376.05275	0.85151
1373.99894	0.85052
1371.94513	0.84943
1369.89132	0.84826
1367.83751	0.84731
1365.78370	0.84688
1363.72989	0.84691
1361.67608	0.84701
1359.62227	0.84690
1357.56846	0.84656
1355.51465	0.84600
1353.46084	0.84532
1351.40703	0.84481
1349.35322	0.84474
1347.29941	0.84501
1345.24560	0.84530
1343.19179	0.84546
1341.13798	0.84536
1339.08417	0.84500
1337.03036	0.84480
1334.97655	0.84487
1332.92274	0.84479
1330.86893	0.84446
1328.81512	0.84414
1326.76130	0.84387
1324.70749	0.84341
1322.65368	0.84270
1320.59987	0.84197
1318.54606	0.84128
1316.49225	0.84061
1314.43844	0.83991
1312.38463	0.83903
1310.33082	0.83806
1308.27701	0.83718
1306.22320	0.83650
1304.16939	0.83592
1302.11558	0.83519
1300.06177	0.83449
1298.00796	0.83400
1295.95415	0.83351
1293.90034	0.83287
1291.84653	0.83233
1289.79272	0.83190
1287.73891	0.83127
1285.68510	0.83054
1283.63129	0.83000
1281.57748	0.82950
1279.52367	0.82877
1277.46986	0.82769
1275.41605	0.82647
1273.36224	0.82533
1271.30843	0.82414
1269.25462	0.82271
1267.20081	0.82099
1265.14700	0.81905
1263.09319	0.81694
1261.03938	0.81449
1258.98557	0.81161
1256.93176	0.80848
1254.87795	0.80523
1252.82414	0.80171
1250.77033	0.79778
1248.71652	0.79374
1246.66271	0.78967
1244.60890	0.78528
1242.55509	0.78055
1240.50128	0.77574
1238.44747	0.77085
1236.39366	0.76585
1234.33985	0.76110
1232.28604	0.75666
1230.23223	0.75216
1228.17842	0.74756
1226.12461	0.74304
1224.07080	0.73863
1222.01699	0.73430
1219.96318	0.73027
1217.90937	0.72660
1215.85556	0.72310
1213.80175	0.71972
1211.74794	0.71658
1209.69413	0.71364
1207.64032	0.71061
1205.58651	0.70768
1203.53270	0.70520
1201.47889	0.70290
1199.42508	0.70054
1197.37127	0.69820
1195.31746	0.69596
1193.26365	0.69391
1191.20984	0.69202
1189.15603	0.69012
1187.10222	0.68821
1185.04841	0.68666
1182.99460	0.68548
1180.94079	0.68420
1178.88698	0.68281
1176.83317	0.68153
1174.77936	0.68039
1172.72555	0.67960
1170.67174	0.67937
1168.61793	0.67957
1166.56412	0.68011
1164.51031	0.68117
1162.45650	0.68249
1160.40269	0.68383
1158.34888	0.68556
1156.29507	0.68771
1154.24126	0.68970
1152.18745	0.69153
1150.13364	0.69353
1148.07983	0.69576
1146.02602	0.69811
1143.97221	0.70034
1141.91840	0.70240
1139.86459	0.70433
1137.81078	0.70612
1135.75697	0.70776
1133.70316	0.70923
1131.64935	0.71059
1129.59554	0.71187
1127.54173	0.71301
1125.48792	0.71405
1123.43411	0.71498
1121.38030	0.71579
1119.32649	0.71658
1117.27268	0.71740
1115.21887	0.71843
1113.16506	0.71950
1111.11125	0.72012
1109.05744	0.72058
1107.00363	0.72126
1104.94982	0.72185
1102.89601	0.72239
1100.84220	0.72299
1098.78839	0.72352
1096.73458	0.72416
1094.68077	0.72481
1092.62696	0.72525
1090.57315	0.72577
1088.51934	0.72636
1086.46553	0.72682
1084.41172	0.72724
1082.35791	0.72764
1080.30410	0.72771
1078.25029	0.72736
1076.19648	0.72671
1074.14267	0.72568
1072.08886	0.72422
1070.03505	0.72205
1067.98124	0.71880
1065.92743	0.71466
1063.87362	0.70981
1061.81981	0.70415
1059.76600	0.69781
1057.71219	0.69122
1055.65838	0.68489
1053.60457	0.67923
1051.55076	0.67460
1049.49695	0.67149
1047.44314	0.67012
1045.38933	0.67020
1043.33552	0.67120
1041.28171	0.67262
1039.22790	0.67447
1037.17409	0.67707
1035.12028	0.68060
1033.06647	0.68479
1031.01265	0.68918
1028.95884	0.69374
1026.90503	0.69855
1024.85122	0.70349
1022.79741	0.70827
1020.74360	0.71282
1018.68979	0.71722
1016.63598	0.72133
1014.58217	0.72508
1012.52836	0.72864
1010.47455	0.73205
1008.42074	0.73550
1006.36693	0.73940
1004.31312	0.74333
1002.25931	0.74667
1000.20550	0.74974
998.15169	0.75307
996.09788	0.75646
994.04407	0.75944
991.99026	0.76209
989.93645	0.76459
987.88264	0.76679
985.82883	0.76864
983.77502	0.77025
981.72121	0.77180
979.66740	0.77327
977.61359	0.77460
975.55978	0.77576
973.50597	0.77682
971.45216	0.77785
969.39835	0.77890
967.34454	0.78007
965.29073	0.78142
963.23692	0.78276
961.18311	0.78377
959.12930	0.78465
957.07549	0.78583
955.02168	0.78709
952.96787	0.78809
950.91406	0.78883
948.86025	0.78920
946.80644	0.78936
944.75263	0.78964
942.69882	0.78999
940.64501	0.79002
938.59120	0.78972
936.53739	0.78954
934.48358	0.78940
932.42977	0.78880
930.37596	0.78810
928.32215	0.78757
926.26834	0.78670
924.21453	0.78519
922.16072	0.78334
920.10691	0.78148
918.05310	0.77947
915.99929	0.77726
913.94548	0.77497
911.89167	0.77263
909.83786	0.77030
907.78405	0.76806
905.73024	0.76577
903.67643	0.76322
901.62262	0.76072
899.56881	0.75887
897.51500	0.75736
895.46119	0.75551
893.40738	0.75352
891.35357	0.75219
889.29976	0.75158
887.24595	0.75116
885.19214	0.75080
883.13833	0.75074
881.08452	0.75124
879.03071	0.75228
876.97690	0.75348
874.92309	0.75451
872.86928	0.75577
870.81547	0.75768
868.76166	0.75995
866.70785	0.76221
864.65404	0.76430
862.60023	0.76636
860.54642	0.76858
858.49261	0.77089
856.43880	0.77302
854.38499	0.77472
852.33118	0.77612
850.27737	0.77750
848.22356	0.77892
846.16975	0.77999
844.11594	0.78055
842.06213	0.78120
840.00832	0.78215
837.95451	0.78278
835.90070	0.78302
833.84689	0.78336
831.79308	0.78392
829.73927	0.78430
827.68546	0.78436
825.63165	0.78442
823.57784	0.78475
821.52403	0.78483
819.47022	0.78413
817.41641	0.78334
815.36260	0.78305
813.30879	0.78269
811.25498	0.78208
809.20117	0.78170
807.14736	0.78134
805.09355	0.78063
803.03974	0.77985
800.98593	0.77931
798.93212	0.77882
796.87831	0.77828
794.82450	0.77796
792.77069	0.77776
790.71688	0.77732
788.66307	0.77672
786.60926	0.77645
784.55545	0.77633
782.50164	0.77594
780.44783	0.77548
778.39402	0.77510
776.34021	0.77473
774.28640	0.77461
772.23259	0.77448
770.17878	0.77374
768.12497	0.77294
766.07116	0.77272
764.01735	0.77259
761.96354	0.77219
759.90973	0.77164
757.85592	0.77089
755.80211	0.76997
753.74830	0.76947
751.69449	0.76964
749.64068	0.76956
747.58687	0.76867
745.53306	0.76757
743.47925	0.76660
741.42544	0.76569
739.37163	0.76422
737.31781	0.75991
735.26400	0.74518
733.21019	0.70982
731.15638	0.66848
729.10257	0.65677
727.04876	0.67394
724.99495	0.68489
722.94114	0.66584
720.88733	0.61572
718.83352	0.56720
716.77971	0.56081
714.72590	0.59564
712.67209	0.64159
710.61828	0.67534
708.56447	0.69450
706.51066	0.70509
704.45685	0.71113
702.40304	0.71507
700.34923	0.71779
698.29542	0.71933
696.24161	0.72060
694.18780	0.72192
692.13399	0.72254
690.08018	0.72286
688.02637	0.72343
685.97256	0.72371
683.91875	0.72360
681.86494	0.72313
679.81113	0.72210
677.75732	0.72138
675.70351	0.72153
673.64970	0.72180
671.59589	0.72156
669.54208	0.72050
667.48827	0.71894
665.43446	0.71826
663.38065	0.71811
661.32684	0.71773
659.27303	0.71668
657.21922	0.71519
655.16541	0.71398
653.11160	0.71298
651.05779	0.71234
649.00398	0.71208
646.95017	0.71062
644.89636	0.70812
642.84255	0.70595
640.78874	0.70387
638.73493	0.70209
636.68112	0.70132
634.62731	0.70035
632.57350	0.69806
630.51969	0.69544
628.46588	0.69281
626.41207	0.68997
624.35826	0.68737
622.30445	0.68495
620.25064	0.68271
618.19683	0.68050
616.14302	0.67747
614.08921	0.67358
612.03540	0.66931
609.98159	0.66469
607.92778	0.66016
605.87397	0.65624
603.82016	0.65215
601.76635	0.64727
599.71254	0.64225
597.65873	0.63764
595.60492	0.63314
593.55111	0.62892
591.49730	0.62565
589.44349	0.62288
587.38968	0.61971
585.33587	0.61781
583.28206	0.61902
581.22825	0.62136
579.17444	0.62326
577.12063	0.62566
575.06682	0.62849
573.01301	0.63185
570.95920	0.63590
568.90539	0.63940
566.85158	0.64227
564.79777	0.64476
562.74396	0.64665
560.69015	0.64816
558.63634	0.64983
556.58253	0.65211
554.52872	0.65397
552.47491	0.65450
550.42110	0.65537
548.36729	0.65767
546.31348	0.65958
544.25967	0.66035
542.20586	0.66104
540.15205	0.66190
538.09824	0.66283
536.04443	0.66319
533.99062	0.66328
531.93681	0.66426
529.88300	0.66490
527.82919	0.66487
525.77538	0.66557
523.72157	0.66650
521.66776	0.66682
519.61395	0.66708
517.56014	0.66762
515.50633	0.66794
513.45252	0.66824
511.39871	0.66865
509.34490	0.66830
507.29109	0.66728
505.23728	0.66688
503.18347	0.66737
501.12966	0.66780
499.07585	0.66775
497.02204	0.66727
494.96823	0.66656
492.91442	0.66629
490.86061	0.66592
488.80680	0.66430
486.75299	0.66196
484.69918	0.65958
482.64537	0.65773
480.59156	0.65682
478.53775	0.65595
476.48394	0.65406
474.43013	0.65170
472.37632	0.65057
470.32251	0.65052
468.26870	0.64963
466.21489	0.64805
464.16108	0.64707
462.10727	0.64678
460.05346	0.64769
457.99965	0.64869
455.94584	0.64715
453.89203	0.64555
451.83822	0.64549
449.78441	0.64470
447.73060	0.64342
445.67679	0.64439
443.62298	0.64663
441.56916	0.64713
439.51535	0.64549
437.46154	0.64317
435.40773	0.64156
433.35392	0.64136
431.30011	0.64219
429.24630	0.64291
427.19249	0.64357
425.13868	0.64469
423.08487	0.64617
421.03106	0.64723
418.97725	0.64711
416.92344	0.64694
414.86963	0.64694
412.81582	0.64798
410.76201	0.65167
408.70820	0.65557
406.65439	0.65639
404.60058	0.65547
402.54677	0.65534
400.49296	0.65500
398.43915	0.65617
