3996.70104	0.95207
3994.64724	0.95307
3992.59344	0.95358
3990.53964	0.95373
3988.48583	0.95329
3986.43203	0.95215
3984.37823	0.95150
3982.32442	0.95197
3980.27062	0.95259
3978.21682	0.95245
3976.16301	0.95219
3974.10921	0.95236
3972.05541	0.95276
3970.00160	0.95333
3967.94780	0.95368
3965.89400	0.95365
3963.84019	0.95333
3961.78639	0.95265
3959.73259	0.95219
3957.67878	0.95246
3955.62498	0.95271
3953.57118	0.95274
3951.51737	0.95296
3949.46357	0.95299
3947.40977	0.95294
3945.35596	0.95319
3943.30216	0.95334
3941.24836	0.95306
3939.19455	0.95248
3937.14075	0.95231
3935.08695	0.95299
3933.03315	0.95385
3930.97934	0.95400
3928.92554	0.95336
3926.87174	0.95252
3924.81793	0.95234
3922.76413	0.95327
3920.71033	0.95411
3918.65652	0.95379
3916.60272	0.95289
3914.54892	0.95217
3912.49511	0.95187
3910.44131	0.95232
3908.38751	0.95324
3906.33370	0.95383
3904.27990	0.95345
3902.22610	0.95266
3900.17229	0.95292
3898.11849	0.95371
3896.06469	0.95391
3894.01088	0.95357
3891.95708	0.95255
3889.90328	0.95180
3887.84947	0.95260
3885.79567	0.95377
3883.74187	0.95364
3881.68807	0.95284
3879.63426	0.95301
3877.58046	0.95419
3875.52666	0.95517
3873.47285	0.95538
3871.41905	0.95513
3869.36525	0.95458
3867.31144	0.95381
3865.25764	0.95347
3863.20384	0.95339
3861.15003	0.95323
3859.09623	0.95313
3857.04243	0.95327
3854.98862	0.95387
3852.93482	0.95410
3850.88102	0.95368
3848.82721	0.95385
3846.77341	0.95427
3844.71961	0.95458
3842.66580	0.95461
3840.61200	0.95448
3838.55820	0.95451
3836.50439	0.95432
3834.45059	0.95387
3832.39679	0.95334
3830.34298	0.95313
3828.28918	0.95355
3826.23538	0.95405
3824.18158	0.95424
3822.12777	0.95360
3820.07397	0.95229
3818.02017	0.95223
3815.96636	0.95308
3813.91256	0.95336
3811.85876	0.95334
3809.80495	0.95362
3807.75115	0.95403
3805.69735	0.95440
3803.64354	0.95454
3801.58974	0.95401
3799.53594	0.95331
3797.48213	0.95372
3795.42833	0.95470
3793.37453	0.95470
3791.32072	0.95378
3789.26692	0.95331
3787.21312	0.95387
3785.15931	0.95492
3783.10551	0.95577
3781.05171	0.95590
3778.99790	0.95522
3776.94410	0.95440
3774.89030	0.95409
3772.83650	0.95425
3770.78269	0.95421
3768.72889	0.95372
3766.67509	0.95366
3764.62128	0.95395
3762.56748	0.95403
3760.51368	0.95371
3758.45987	0.95330
3756.40607	0.95363
3754.35227	0.95434
3752.29846	0.95497
3750.24466	0.95542
3748.19086	0.95538
3746.13705	0.95562
3744.08325	0.95627
3742.02945	0.95688
3739.97564	0.95744
3737.92184	0.95733
3735.86804	0.95634
3733.81423	0.95604
3731.76043	0.95671
3729.70663	0.95706
3727.65282	0.95680
3725.59902	0.95592
3723.54522	0.95457
3721.49141	0.95323
3719.43761	0.95273
3717.38381	0.95320
3715.33001	0.95325
3713.27620	0.95244
3711.22240	0.95146
3709.16860	0.94984
3707.11479	0.94782
3705.06099	0.94627
3703.00719	0.94488
3700.95338	0.94291
3698.89958	0.94104
3696.84578	0.94009
3694.79197	0.93980
3692.73817	0.94002
3690.68437	0.94040
3688.63056	0.94063
3686.57676	0.94209
3684.52296	0.94377
3682.46915	0.94416
3680.41535	0.94391
3678.36155	0.94392
3676.30774	0.94369
3674.25394	0.94284
3672.20014	0.94212
3670.14633	0.94072
3668.09253	0.93922
3666.03873	0.93879
3663.98492	0.93795
3661.93112	0.93647
3659.87732	0.93542
3657.82352	0.93485
3655.76971	0.93408
3653.71591	0.93343
3651.66211	0.93293
3649.60830	0.93144
3647.55450	0.93022
3645.50070	0.93079
3643.44689	0.93083
3641.39309	0.92951
3639.33929	0.92798
3637.28548	0.92692
3635.23168	0.92591
3633.17788	0.92496
3631.12407	0.92432
3629.07027	0.92324
3627.01647	0.92242
3624.96266	0.92253
3622.90886	0.92233
3620.85506	0.92155
3618.80125	0.92066
3616.74745	0.92022
3614.69365	0.91994
3612.63984	0.91984
3610.58604	0.92048
3608.53224	0.92129
3606.47844	0.92199
3604.42463	0.92291
3602.37083	0.92348
3600.31703	0.92340
3598.26322	0.92299
3596.20942	0.92238
3594.15562	0.92170
3592.10181	0.92147
3590.04801	0.92152
3587.99421	0.92138
3585.94040	0.92153
3583.88660	0.92185
3581.83280	0.92176
3579.77899	0.92150
3577.72519	0.92148
3575.67139	0.92156
3573.61758	0.92127
3571.56378	0.92105
3569.50998	0.92123
3567.45617	0.92112
3565.40237	0.92001
3563.34857	0.91880
3561.29476	0.91819
3559.24096	0.91793
3557.18716	0.91808
3555.13335	0.91867
3553.07955	0.91885
3551.02575	0.91850
3548.97195	0.91866
3546.91814	0.91903
3544.86434	0.91860
3542.81054	0.91738
3540.75673	0.91602
3538.70293	0.91503
3536.64913	0.91455
3534.59532	0.91474
3532.54152	0.91542
3530.48772	0.91613
3528.43391	0.91676
3526.38011	0.91676
3524.32631	0.91560
3522.27250	0.91461
3520.21870	0.91487
3518.16490	0.91582
3516.11109	0.91664
3514.05729	0.91668
3512.00349	0.91601
3509.94968	0.91533
3507.89588	0.91527
3505.84208	0.91551
3503.78827	0.91531
3501.73447	0.91498
3499.68067	0.91502
3497.62687	0.91509
3495.57306	0.91479
3493.51926	0.91419
3491.46546	0.91365
3489.41165	0.91357
3487.35785	0.91383
3485.30405	0.91372
3483.25024	0.91302
3481.19644	0.91249
3479.14264	0.91239
3477.08883	0.91221
3475.03503	0.91182
3472.98123	0.91114
3470.92742	0.91034
3468.87362	0.91005
3466.81982	0.91035
3464.76601	0.91062
3462.71221	0.91044
3460.65841	0.90995
3458.60460	0.90958
3456.55080	0.90932
3454.49700	0.90906
3452.44319	0.90895
3450.38939	0.90891
3448.33559	0.90884
3446.28178	0.90886
3444.22798	0.90887
3442.17418	0.90859
3440.12038	0.90830
3438.06657	0.90805
3436.01277	0.90742
3433.95897	0.90658
3431.90516	0.90602
3429.85136	0.90579
3427.79756	0.90600
3425.74375	0.90655
3423.68995	0.90682
3421.63615	0.90644
3419.58234	0.90575
3417.52854	0.90536
3415.47474	0.90539
3413.42093	0.90543
3411.36713	0.90510
3409.31333	0.90443
3407.25952	0.90400
3405.20572	0.90430
3403.15192	0.90479
3401.09811	0.90494
3399.04431	0.90505
3396.99051	0.90501
3394.93670	0.90461
3392.88290	0.90419
3390.82910	0.90436
3388.77529	0.90508
3386.72149	0.90577
3384.66769	0.90591
3382.61389	0.90540
3380.56008	0.90484
3378.50628	0.90473
3376.45248	0.90482
3374.39867	0.90469
3372.34487	0.90467
3370.29107	0.90504
3368.23726	0.90542
3366.18346	0.90541
3364.12966	0.90518
3362.07585	0.90525
3360.02205	0.90558
3357.96825	0.90569
3355.91444	0.90540
3353.86064	0.90516
3351.80684	0.90564
3349.75303	0.90654
3347.69923	0.90701
3345.64543	0.90678
3343.59162	0.90632
3341.53782	0.90628
3339.48402	0.90642
3337.43021	0.90649
3335.37641	0.90675
3333.32261	0.90701
3331.26881	0.90724
3329.21500	0.90749
3327.16120	0.90743
3325.10740	0.90737
3323.05359	0.90769
3320.99979	0.90816
3318.94599	0.90871
3316.89218	0.90933
3314.83838	0.90959
3312.78458	0.90936
3310.73077	0.90917
3308.67697	0.90957
3306.62317	0.91017
3304.56936	0.91036
3302.51556	0.91048
3300.46176	0.91076
3298.40795	0.91069
3296.35415	0.91057
3294.30035	0.91084
3292.24654	0.91122
3290.19274	0.91151
3288.13894	0.91143
3286.08513	0.91106
3284.03133	0.91132
3281.97753	0.91223
3279.92372	0.91285
3277.86992	0.91281
3275.81612	0.91231
3273.76232	0.91179
3271.70851	0.91179
3269.65471	0.91234
3267.60091	0.91294
3265.54710	0.91307
3263.49330	0.91279
3261.43950	0.91293
3259.38569	0.91381
3257.33189	0.91478
3255.27809	0.91512
3253.22428	0.91480
3251.17048	0.91437
3249.11668	0.91424
3247.06287	0.91463
3245.00907	0.91541
3242.95527	0.91596
3240.90146	0.91599
3238.84766	0.91592
3236.79386	0.91624
3234.74005	0.91660
3232.68625	0.91648
3230.63245	0.91615
3228.57864	0.91597
3226.52484	0.91601
3224.47104	0.91659
3222.41724	0.91739
3220.36343	0.91789
3218.30963	0.91838
3216.25583	0.91892
3214.20202	0.91919
3212.14822	0.91948
3210.09442	0.91984
3208.04061	0.92002
3205.98681	0.92031
3203.93301	0.92071
3201.87920	0.92086
3199.82540	0.92065
3197.77160	0.92045
3195.71779	0.92092
3193.66399	0.92166
3191.61019	0.92199
3189.55638	0.92227
3187.50258	0.92246
3185.44878	0.92222
3183.39497	0.92220
3181.34117	0.92282
3179.28737	0.92354
3177.23356	0.92385
3175.17976	0.92382
3173.12596	0.92407
3171.07215	0.92469
3169.01835	0.92513
3166.96455	0.92534
3164.91075	0.92543
3162.85694	0.92552
3160.80314	0.92596
3158.74934	0.92670
3156.69553	0.92731
3154.64173	0.92768
3152.58793	0.92789
3150.53412	0.92821
3148.48032	0.92869
3146.42652	0.92903
3144.37271	0.92939
3142.31891	0.92957
3140.26511	0.92924
3138.21130	0.92899
3136.15750	0.92927
3134.10370	0.92964
3132.04989	0.92994
3129.99609	0.93034
3127.94229	0.93051
3125.88848	0.93037
3123.83468	0.93022
3121.78088	0.93042
3119.72707	0.93109
3117.67327	0.93186
3115.61947	0.93235
3113.56566	0.93220
3111.51186	0.93165
3109.45806	0.93139
3107.40426	0.93119
3105.35045	0.93085
3103.29665	0.93071
3101.24285	0.93080
3099.18904	0.93124
3097.13524	0.93198
3095.08144	0.93244
3093.02763	0.93240
3090.97383	0.93185
3088.92003	0.93058
3086.86622	0.92874
3084.81242	0.92705
3082.75862	0.92622
3080.70481	0.92627
3078.65101	0.92696
3076.59721	0.92796
3074.54340	0.92917
3072.48960	0.93034
3070.43580	0.93041
3068.38199	0.92912
3066.32819	0.92738
3064.27439	0.92566
3062.22058	0.92406
3060.16678	0.92318
3058.11298	0.92345
3056.05918	0.92481
3054.00537	0.92660
3051.95157	0.92798
3049.89777	0.92910
3047.84396	0.93024
3045.79016	0.93132
3043.73636	0.93220
3041.68255	0.93231
3039.62875	0.93152
3037.57495	0.93043
3035.52114	0.92903
3033.46734	0.92639
3031.41354	0.92226
3029.35973	0.91757
3027.30593	0.91337
3025.25213	0.91100
3023.19832	0.91183
3021.14452	0.91537
3019.09072	0.92007
3017.03691	0.92441
3014.98311	0.92746
3012.92931	0.92957
3010.87550	0.93137
3008.82170	0.93261
3006.76790	0.93309
3004.71409	0.93310
3002.66029	0.93273
3000.60649	0.93246
2998.55269	0.93295
2996.49888	0.93391
2994.44508	0.93480
2992.39128	0.93575
2990.33747	0.93676
2988.28367	0.93744
2986.22987	0.93785
2984.17606	0.93816
2982.12226	0.93811
2980.06846	0.93792
2978.01465	0.93803
2975.96085	0.93845
2973.90705	0.93883
2971.85324	0.93860
2969.79944	0.93805
2967.74564	0.93765
2965.69183	0.93711
2963.63803	0.93638
2961.58423	0.93593
2959.53042	0.93592
2957.47662	0.93609
2955.42282	0.93582
2953.36901	0.93506
2951.31521	0.93417
2949.26141	0.93303
2947.20761	0.93185
2945.15380	0.93086
2943.10000	0.92959
2941.04620	0.92779
2938.99239	0.92571
2936.93859	0.92312
2934.88479	0.91957
2932.83098	0.91560
2930.77718	0.91210
2928.72338	0.90927
2926.66957	0.90704
2924.61577	0.90535
2922.56197	0.90417
2920.50816	0.90345
2918.45436	0.90323
2916.40056	0.90390
2914.34675	0.90549
2912.29295	0.90746
2910.23915	0.90955
2908.18534	0.91175
2906.13154	0.91379
2904.07774	0.91557
2902.02393	0.91722
2899.97013	0.91916
2897.91633	0.92152
2895.86252	0.92355
2893.80872	0.92496
2891.75492	0.92593
2889.70112	0.92675
2887.64731	0.92771
2885.59351	0.92872
2883.53971	0.92966
2881.48590	0.93037
2879.43210	0.93084
2877.37830	0.93147
2875.32449	0.93235
2873.27069	0.93287
2871.21689	0.93297
2869.16308	0.93311
2867.10928	0.93321
2865.05548	0.93302
2863.00167	0.93255
2860.94787	0.93188
2858.89407	0.93072
2856.84026	0.92911
2854.78646	0.92768
2852.73266	0.92678
2850.67885	0.92645
2848.62505	0.92640
2846.57125	0.92677
2844.51744	0.92794
2842.46364	0.92966
2840.40984	0.93169
2838.35603	0.93391
2836.30223	0.93603
2834.24843	0.93763
2832.19463	0.93847
2830.14082	0.93880
2828.08702	0.93911
2826.03322	0.93957
2823.97941	0.93986
2821.92561	0.94004
2819.87181	0.94038
2817.81800	0.94068
2815.76420	0.94101
2813.71040	0.94145
2811.65659	0.94180
2809.60279	0.94197
2807.54899	0.94201
2805.49518	0.94226
2803.44138	0.94274
2801.38758	0.94281
2799.33377	0.94242
2797.27997	0.94228
2795.22617	0.94269
2793.17236	0.94320
2791.11856	0.94357
2789.06476	0.94379
2787.01095	0.94384
2784.95715	0.94377
2782.90335	0.94360
2780.84955	0.94346
2778.79574	0.94367
2776.74194	0.94422
2774.68814	0.94445
2772.63433	0.94434
2770.58053	0.94456
2768.52673	0.94519
2766.47292	0.94562
2764.41912	0.94552
2762.36532	0.94543
2760.31151	0.94563
2758.25771	0.94574
2756.20391	0.94558
2754.15010	0.94537
2752.09630	0.94533
2750.04250	0.94547
2747.98869	0.94569
2745.93489	0.94590
2743.88109	0.94589
2741.82728	0.94577
2739.77348	0.94582
2737.71968	0.94580
2735.66587	0.94567
2733.61207	0.94571
2731.55827	0.94578
2729.50446	0.94581
2727.45066	0.94590
2725.39686	0.94586
2723.34306	0.94581
2721.28925	0.94599
2719.23545	0.94609
2717.18165	0.94592
2715.12784	0.94563
2713.07404	0.94550
2711.02024	0.94577
2708.96643	0.94611
2706.91263	0.94621
2704.85883	0.94624
2702.80502	0.94630
2700.75122	0.94639
2698.69742	0.94663
2696.64361	0.94687
2694.58981	0.94690
2692.53601	0.94691
2690.48220	0.94697
2688.42840	0.94688
2686.37460	0.94680
2684.32079	0.94693
2682.26699	0.94689
2680.21319	0.94662
2678.15938	0.94663
2676.10558	0.94691
2674.05178	0.94727
2671.99797	0.94742
2669.94417	0.94734
2667.89037	0.94733
2665.83657	0.94725
2663.78276	0.94696
2661.72896	0.94688
2659.67516	0.94717
2657.62135	0.94735
2655.56755	0.94722
2653.51375	0.94718
2651.45994	0.94731
2649.40614	0.94740
2647.35234	0.94744
2645.29853	0.94753
2643.24473	0.94761
2641.19093	0.94760
2639.13712	0.94735
2637.08332	0.94698
2635.02952	0.94704
2632.97571	0.94729
2630.92191	0.94721
2628.86811	0.94710
2626.81430	0.94733
2624.76050	0.94792
2622.70670	0.94854
2620.65289	0.94876
2618.59909	0.94866
2616.54529	0.94848
2614.49149	0.94819
2612.43768	0.94780
2610.38388	0.94754
2608.33008	0.94769
2606.27627	0.94806
2604.22247	0.94814
2602.16867	0.94796
2600.11486	0.94797
2598.06106	0.94812
2596.00726	0.94803
2593.95345	0.94782
2591.89965	0.94809
2589.84585	0.94916
2587.79204	0.95023
2585.73824	0.95002
2583.68444	0.94880
2581.63063	0.94827
2579.57683	0.94868
2577.52303	0.94886
2575.46922	0.94907
2573.41542	0.94954
2571.36162	0.94957
2569.30781	0.94980
2567.25401	0.95014
2565.20021	0.94959
2563.14640	0.94914
2561.09260	0.94977
2559.03880	0.95053
2556.98500	0.95048
2554.93119	0.95013
2552.87739	0.95020
2550.82359	0.95039
2548.76978	0.95066
2546.71598	0.95106
2544.66218	0.95117
2542.60837	0.95078
2540.55457	0.95034
2538.50077	0.95030
2536.44696	0.95040
2534.39316	0.95025
2532.33936	0.95027
2530.28555	0.95056
2528.23175	0.95055
2526.17795	0.95035
2524.12414	0.95051
2522.07034	0.95107
2520.01654	0.95141
2517.96273	0.95118
2515.90893	0.95070
2513.85513	0.95059
2511.80132	0.95073
2509.74752	0.95067
2507.69372	0.95090
2505.63992	0.95143
2503.58611	0.95146
2501.53231	0.95102
2499.47851	0.95077
2497.42470	0.95092
2495.37090	0.95111
2493.31710	0.95106
2491.26329	0.95087
2489.20949	0.95080
2487.15569	0.95065
2485.10188	0.95036
2483.04808	0.95032
2480.99428	0.95050
2478.94047	0.95053
2476.88667	0.95042
2474.83287	0.95053
2472.77906	0.95060
2470.72526	0.95045
2468.67146	0.95079
2466.61765	0.95131
2464.56385	0.95121
2462.51005	0.95123
2460.45624	0.95167
2458.40244	0.95145
2456.34864	0.95073
2454.29483	0.95049
2452.24103	0.95086
2450.18723	0.95105
2448.13343	0.95069
2446.07962	0.95075
2444.02582	0.95134
2441.97202	0.95166
2439.91821	0.95176
2437.86441	0.95183
2435.81061	0.95173
2433.75680	0.95140
2431.70300	0.95121
2429.64920	0.95164
2427.59539	0.95215
2425.54159	0.95211
2423.48779	0.95170
2421.43398	0.95157
2419.38018	0.95211
2417.32638	0.95277
2415.27257	0.95287
2413.21877	0.95255
2411.16497	0.95227
2409.11116	0.95219
2407.05736	0.95241
2405.00356	0.95248
2402.94975	0.95202
2400.89595	0.95138
2398.84215	0.95095
2396.78834	0.95123
2394.73454	0.95195
2392.68074	0.95219
2390.62694	0.95181
2388.57313	0.95157
2386.51933	0.95177
2384.46553	0.95189
2382.41172	0.95192
2380.35792	0.95215
2378.30412	0.95259
2376.25031	0.95305
2374.19651	0.95301
2372.14271	0.95207
2370.08890	0.95048
2368.03510	0.94952
2365.98130	0.95016
2363.92749	0.95118
2361.87369	0.95110
2359.81989	0.95119
2357.76608	0.95167
2355.71228	0.95103
2353.65848	0.95040
2351.60467	0.95050
2349.55087	0.95084
2347.49707	0.95123
2345.44326	0.95158
2343.38946	0.95203
2341.33566	0.95206
2339.28186	0.95150
2337.22805	0.95102
2335.17425	0.95114
2333.12045	0.95185
2331.06664	0.95223
2329.01284	0.95148
2326.95904	0.95030
2324.90523	0.94950
2322.85143	0.94929
2320.79763	0.94981
2318.74382	0.95040
2316.69002	0.95058
2314.63622	0.95063
2312.58241	0.95059
2310.52861	0.95032
2308.47481	0.95041
2306.42100	0.95102
2304.36720	0.95126
2302.31340	0.95090
2300.25959	0.95069
2298.20579	0.95078
2296.15199	0.95071
2294.09818	0.95058
2292.04438	0.95016
2289.99058	0.94978
2287.93677	0.95013
2285.88297	0.95031
2283.82917	0.95024
2281.77537	0.95109
2279.72156	0.95229
2277.66776	0.95258
2275.61396	0.95232
2273.56015	0.95247
2271.50635	0.95295
2269.45255	0.95322
2267.39874	0.95280
2265.34494	0.95188
2263.29114	0.95181
2261.23733	0.95288
2259.18353	0.95384
2257.12973	0.95352
2255.07592	0.95199
2253.02212	0.95117
2250.96832	0.95220
2248.91451	0.95391
2246.86071	0.95503
2244.80691	0.95482
2242.75310	0.95326
2240.69930	0.95252
2238.64550	0.95324
2236.59169	0.95402
2234.53789	0.95469
2232.48409	0.95375
2230.43029	0.95106
2228.37648	0.95036
2226.32268	0.95206
2224.26888	0.95335
2222.21507	0.95458
2220.16127	0.95691
2218.10747	0.95807
2216.05366	0.95616
2213.99986	0.95416
2211.94606	0.95501
2209.89225	0.95603
2207.83845	0.95442
2205.78465	0.95302
2203.73084	0.95362
2201.67704	0.95282
2199.62324	0.95084
2197.56943	0.95178
2195.51563	0.95460
2193.46183	0.95556
2191.40802	0.95548
2189.35422	0.95604
2187.30042	0.95499
2185.24661	0.95221
2183.19281	0.95097
2181.13901	0.95156
2179.08520	0.95323
2177.03140	0.95608
2174.97760	0.95750
2172.92380	0.95610
2170.86999	0.95403
2168.81619	0.95317
2166.76239	0.95384
2164.70858	0.95514
2162.65478	0.95610
2160.60098	0.95602
2158.54717	0.95580
2156.49337	0.95593
2154.43957	0.95569
2152.38576	0.95643
2150.33196	0.95802
2148.27816	0.95871
2146.22435	0.95905
2144.17055	0.96034
2142.11675	0.96064
2140.06294	0.95951
2138.00914	0.95968
2135.95534	0.95989
2133.90153	0.95815
2131.84773	0.95631
2129.79393	0.95588
2127.74012	0.95551
2125.68632	0.95449
2123.63252	0.95392
2121.57871	0.95360
2119.52491	0.95295
2117.47111	0.95272
2115.41731	0.95350
2113.36350	0.95473
2111.30970	0.95593
2109.25590	0.95688
2107.20209	0.95661
2105.14829	0.95475
2103.09449	0.95320
2101.04068	0.95321
2098.98688	0.95387
2096.93308	0.95557
2094.87927	0.95819
2092.82547	0.95944
2090.77167	0.95891
2088.71786	0.95785
2086.66406	0.95684
2084.61026	0.95698
2082.55645	0.95810
2080.50265	0.95769
2078.44885	0.95561
2076.39504	0.95386
2074.34124	0.95303
2072.28744	0.95296
2070.23363	0.95281
2068.17983	0.95257
2066.12603	0.95344
2064.07223	0.95484
2062.01842	0.95596
2059.96462	0.95677
2057.91082	0.95709
2055.85701	0.95731
2053.80321	0.95754
2051.74941	0.95700
2049.69560	0.95569
2047.64180	0.95492
2045.58800	0.95504
2043.53419	0.95573
2041.48039	0.95685
2039.42659	0.95743
2037.37278	0.95675
2035.31898	0.95608
2033.26518	0.95816
2031.21137	0.96069
2029.15757	0.95944
2027.10377	0.95714
2025.04996	0.95774
2022.99616	0.95900
2020.94236	0.95868
2018.88855	0.95894
2016.83475	0.95948
2014.78095	0.95814
2012.72714	0.95670
2010.67334	0.95670
2008.61954	0.95860
2006.56574	0.96194
2004.51193	0.96315
2002.45813	0.96198
2000.40433	0.96028
1998.35052	0.95859
1996.29672	0.95826
1994.24292	0.96016
1992.18911	0.96269
1990.13531	0.96219
1988.08151	0.96008
1986.02770	0.95996
1983.97390	0.95973
1981.92010	0.95665
1979.86629	0.95310
1977.81249	0.95379
1975.75869	0.95652
1973.70488	0.95658
1971.65108	0.95606
1969.59728	0.95612
1967.54347	0.95695
1965.48967	0.95864
1963.43587	0.95850
1961.38206	0.95759
1959.32826	0.95734
1957.27446	0.95726
1955.22066	0.95801
1953.16685	0.95824
1951.11305	0.95744
1949.05925	0.95649
1947.00544	0.95492
1944.95164	0.95333
1942.89784	0.95321
1940.84403	0.95404
1938.79023	0.95431
1936.73643	0.95474
1934.68262	0.95543
1932.62882	0.95518
1930.57502	0.95512
1928.52121	0.95565
1926.46741	0.95515
1924.41361	0.95415
1922.35980	0.95428
1920.30600	0.95485
1918.25220	0.95530
1916.19839	0.95620
1914.14459	0.95672
1912.09079	0.95663
1910.03698	0.95621
1907.98318	0.95538
1905.92938	0.95536
1903.87557	0.95596
1901.82177	0.95571
1899.76797	0.95516
1897.71417	0.95496
1895.66036	0.95494
1893.60656	0.95488
1891.55276	0.95472
1889.49895	0.95492
1887.44515	0.95460
1885.39135	0.95360
1883.33754	0.95312
1881.28374	0.95309
1879.22994	0.95305
1877.17613	0.95282
1875.12233	0.95284
1873.06853	0.95330
1871.01472	0.95330
1868.96092	0.95277
1866.90712	0.95268
1864.85331	0.95268
1862.79951	0.95245
1860.74571	0.95270
1858.69190	0.95346
1856.63810	0.95412
1854.58430	0.95455
1852.53049	0.95456
1850.47669	0.95415
1848.42289	0.95405
1846.36908	0.95472
1844.31528	0.95535
1842.26148	0.95486
1840.20768	0.95437
1838.15387	0.95438
1836.10007	0.95414
1834.04627	0.95394
1831.99246	0.95450
1829.93866	0.95534
1827.88486	0.95524
1825.83105	0.95444
1823.77725	0.95370
1821.72345	0.95311
1819.66964	0.95286
1817.61584	0.95309
1815.56204	0.95335
1813.50823	0.95310
1811.45443	0.95250
1809.40063	0.95184
1807.34682	0.95133
1805.29302	0.95097
1803.23922	0.95074
1801.18541	0.95087
1799.13161	0.95134
1797.07781	0.95175
1795.02400	0.95197
1792.97020	0.95219
1790.91640	0.95244
1788.86260	0.95255
1786.80879	0.95244
1784.75499	0.95243
1782.70119	0.95305
1780.64738	0.95378
1778.59358	0.95374
1776.53978	0.95351
1774.48597	0.95367
1772.43217	0.95377
1770.37837	0.95355
1768.32456	0.95351
1766.27076	0.95354
1764.21696	0.95336
1762.16315	0.95310
1760.10935	0.95291
1758.05555	0.95262
1756.00174	0.95190
1753.94794	0.95090
1751.89414	0.95022
1749.84033	0.95010
1747.78653	0.95010
1745.73273	0.94997
1743.67892	0.94986
1741.62512	0.94968
1739.57132	0.94943
1737.51751	0.94930
1735.46371	0.94934
1733.40991	0.94914
1731.35611	0.94863
1729.30230	0.94832
1727.24850	0.94820
1725.19470	0.94808
1723.14089	0.94812
1721.08709	0.94844
1719.03329	0.94850
1716.97948	0.94801
1714.92568	0.94777
1712.87188	0.94792
1710.81807	0.94778
1708.76427	0.94723
1706.71047	0.94676
1704.65666	0.94655
1702.60286	0.94626
1700.54906	0.94552
1698.49525	0.94445
1696.44145	0.94349
1694.38765	0.94270
1692.33384	0.94225
1690.28004	0.94159
1688.22624	0.94041
1686.17243	0.93929
1684.11863	0.93797
1682.06483	0.93624
1680.01103	0.93477
1677.95722	0.93354
1675.90342	0.93253
1673.84962	0.93137
1671.79581	0.93010
1669.74201	0.92877
1667.68821	0.92762
1665.63440	0.92693
1663.58060	0.92615
1661.52680	0.92529
1659.47299	0.92486
1657.41919	0.92460
1655.36539	0.92432
1653.31158	0.92404
1651.25778	0.92393
1649.20398	0.92397
1647.15017	0.92389
1645.09637	0.92362
1643.04257	0.92350
1640.98876	0.92372
1638.93496	0.92429
1636.88116	0.92473
1634.82735	0.92472
1632.77355	0.92486
1630.71975	0.92517
1628.66594	0.92532
1626.61214	0.92542
1624.55834	0.92585
1622.50454	0.92649
1620.45073	0.92703
1618.39693	0.92761
1616.34313	0.92836
1614.28932	0.92890
1612.23552	0.92900
1610.18172	0.92810
1608.12791	0.92516
1606.07411	0.92012
1604.02031	0.91441
1601.96650	0.91067
1599.91270	0.91102
1597.85890	0.91460
1595.80509	0.91902
1593.75129	0.92283
1591.69749	0.92572
1589.64368	0.92767
1587.58988	0.92845
1585.53608	0.92802
1583.48227	0.92746
1581.42847	0.92837
1579.37467	0.93063
1577.32086	0.93310
1575.26706	0.93488
1573.21326	0.93558
1571.15945	0.93594
1569.10565	0.93644
1567.05185	0.93702
1564.99805	0.93749
1562.94424	0.93769
1560.89044	0.93747
1558.83664	0.93699
1556.78283	0.93720
1554.72903	0.93740
1552.67523	0.93720
1550.62142	0.93667
1548.56762	0.93578
1546.51382	0.93502
1544.46001	0.93494
1542.40621	0.93579
1540.35241	0.93659
1538.29860	0.93600
1536.24480	0.93545
1534.19100	0.93529
1532.13719	0.93508
1530.08339	0.93499
1528.02959	0.93518
1525.97578	0.93539
1523.92198	0.93572
1521.86818	0.93592
1519.81437	0.93548
1517.76057	0.93489
1515.70677	0.93417
1513.65297	0.93348
1511.59916	0.93303
1509.54536	0.93275
1507.49156	0.93201
1505.43775	0.93049
1503.38395	0.92932
1501.33015	0.92744
1499.27634	0.92186
1497.22254	0.90628
1495.16874	0.88278
1493.11493	0.86768
1491.06113	0.86871
1489.00733	0.88351
1486.95352	0.89737
1484.89972	0.90485
1482.84592	0.90938
1480.79211	0.91245
1478.73831	0.91440
1476.68451	0.91546
1474.63070	0.91587
1472.57690	0.91614
1470.52310	0.91674
1468.46929	0.91745
1466.41549	0.91798
1464.36169	0.91808
1462.30788	0.91769
1460.25408	0.91619
1458.20028	0.90917
1456.14648	0.88954
1454.09267	0.87021
1452.03887	0.86076
1449.98507	0.86159
1447.93126	0.86977
1445.87746	0.87901
1443.82366	0.88647
1441.76985	0.89250
1439.71605	0.89725
1437.66225	0.90169
1435.60844	0.90615
1433.55464	0.90942
1431.50084	0.91192
1429.44703	0.91401
1427.39323	0.91563
1425.33943	0.91731
1423.28562	0.91922
1421.23182	0.92098
1419.17802	0.92236
1417.12421	0.92353
1415.07041	0.92489
1413.01661	0.92635
1410.96280	0.92770
1408.90900	0.92910
1406.85520	0.93029
1404.80139	0.93097
1402.74759	0.93144
1400.69379	0.93217
1398.63999	0.93302
1396.58618	0.93383
1394.53238	0.93452
1392.47858	0.93481
1390.42477	0.93481
1388.37097	0.93454
1386.31717	0.93396
1384.26336	0.93345
1382.20956	0.93307
1380.15576	0.93262
1378.10195	0.93208
1376.04815	0.93160
1373.99435	0.93131
1371.94054	0.93132
1369.88674	0.93168
1367.83294	0.93209
1365.77913	0.93237
1363.72533	0.93279
1361.67153	0.93348
1359.61772	0.93419
1357.56392	0.93490
1355.51012	0.93552
1353.45631	0.93582
1351.40251	0.93597
1349.34871	0.93612
1347.29491	0.93619
1345.24110	0.93636
1343.18730	0.93669
1341.13350	0.93708
1339.07969	0.93747
1337.02589	0.93779
1334.97209	0.93791
1332.91828	0.93778
1330.86448	0.93759
1328.81068	0.93739
1326.75687	0.93714
1324.70307	0.93706
1322.64927	0.93741
1320.59546	0.93797
1318.54166	0.93801
1316.48786	0.93747
1314.43405	0.93701
1312.38025	0.93706
1310.32645	0.93749
1308.27264	0.93784
1306.21884	0.93816
1304.16504	0.93851
1302.11123	0.93861
1300.05743	0.93870
1298.00363	0.93909
1295.94982	0.93954
1293.89602	0.93973
1291.84222	0.93958
1289.78842	0.93934
1287.73461	0.93905
1285.68081	0.93866
1283.62701	0.93837
1281.57320	0.93821
1279.51940	0.93791
1277.46560	0.93746
1275.41179	0.93710
1273.35799	0.93690
1271.30419	0.93679
1269.25038	0.93676
1267.19658	0.93668
1265.14278	0.93653
1263.08897	0.93667
1261.03517	0.93695
1258.98137	0.93681
1256.92756	0.93649
1254.87376	0.93625
1252.81996	0.93596
1250.76615	0.93556
1248.71235	0.93526
1246.65855	0.93507
1244.60474	0.93475
1242.55094	0.93426
1240.49714	0.93369
1238.44334	0.93315
1236.38953	0.93291
1234.33573	0.93287
1232.28193	0.93243
1230.22812	0.93159
1228.17432	0.93084
1226.12052	0.93013
1224.06671	0.92914
1222.01291	0.92777
1219.95911	0.92627
1217.90530	0.92474
1215.85150	0.92282
1213.79770	0.92073
1211.74389	0.91860
1209.69009	0.91608
1207.63629	0.91320
1205.58248	0.91021
1203.52868	0.90728
1201.47488	0.90447
1199.42107	0.90158
1197.36727	0.89834
1195.31347	0.89487
1193.25966	0.89166
1191.20586	0.88856
1189.15206	0.88491
1187.09825	0.88058
1185.04445	0.87605
1182.99065	0.87179
1180.93685	0.86804
1178.88304	0.86499
1176.82924	0.86238
1174.77544	0.85950
1172.72163	0.85619
1170.66783	0.85288
1168.61403	0.84964
1166.56022	0.84645
1164.50642	0.84363
1162.45262	0.84141
1160.39881	0.83979
1158.34501	0.83805
1156.29121	0.83562
1154.23740	0.83301
1152.18360	0.83110
1150.12980	0.82988
1148.07599	0.82843
1146.02219	0.82642
1143.96839	0.82449
1141.91458	0.82287
1139.86078	0.82128
1137.80698	0.81954
1135.75317	0.81751
1133.69937	0.81484
1131.64557	0.81150
1129.59176	0.80787
1127.53796	0.80421
1125.48416	0.80013
1123.43036	0.79511
1121.37655	0.78928
1119.32275	0.78306
1117.26895	0.77667
1115.21514	0.77029
1113.16134	0.76404
1111.10754	0.75810
1109.05373	0.75264
1106.99993	0.74762
1104.94613	0.74320
1102.89232	0.73930
1100.83852	0.73526
1098.78472	0.73126
1096.73091	0.72791
1094.67711	0.72478
1092.62331	0.72142
1090.56950	0.71843
1088.51570	0.71614
1086.46190	0.71389
1084.40809	0.71107
1082.35429	0.70798
1080.30049	0.70509
1078.24668	0.70242
1076.19288	0.69945
1074.13908	0.69590
1072.08528	0.69191
1070.03147	0.68746
1067.97767	0.68288
1065.92387	0.67860
1063.87006	0.67432
1061.81626	0.66952
1059.76246	0.66435
1057.70865	0.65878
1055.65485	0.65285
1053.60105	0.64680
1051.54724	0.64011
1049.49344	0.63196
1047.43964	0.62259
1045.38583	0.61281
1043.33203	0.60245
1041.27823	0.59156
1039.22442	0.58068
1037.17062	0.57004
1035.11682	0.55961
1033.06301	0.54910
1031.00921	0.53876
1028.95541	0.52935
1026.90160	0.52160
1024.84780	0.51618
1022.79400	0.51264
1020.74019	0.50934
1018.68639	0.50556
1016.63259	0.50155
1014.57879	0.49750
1012.52498	0.49324
1010.47118	0.48893
1008.41738	0.48517
1006.36357	0.48193
1004.30977	0.47900
1002.25597	0.47692
1000.20216	0.47621
998.14836	0.47680
996.09456	0.47829
994.04075	0.48012
991.98695	0.48227
989.93315	0.48519
987.87934	0.48881
985.82554	0.49312
983.77174	0.49856
981.71793	0.50526
979.66413	0.51290
977.61033	0.52156
975.55652	0.53147
973.50272	0.54219
971.44892	0.55351
969.39511	0.56511
967.34131	0.57642
965.28751	0.58744
963.23371	0.59789
961.17990	0.60767
959.12610	0.61752
957.07230	0.62729
955.01849	0.63602
952.96469	0.64358
950.91089	0.65020
948.85708	0.65593
946.80328	0.66095
944.74948	0.66594
942.69567	0.67134
940.64187	0.67667
938.58807	0.68184
936.53426	0.68706
934.48046	0.69221
932.42666	0.69697
930.37285	0.70121
928.31905	0.70518
926.26525	0.70886
924.21144	0.71189
922.15764	0.71371
920.10384	0.71403
918.05003	0.71324
915.99623	0.71185
913.94243	0.71014
911.88862	0.70895
909.83482	0.70936
907.78102	0.71174
905.72722	0.71659
903.67341	0.72432
901.61961	0.73413
899.56581	0.74460
897.51200	0.75488
895.45820	0.76457
893.40440	0.77297
891.35059	0.77961
889.29679	0.78497
887.24299	0.78976
885.18918	0.79391
883.13538	0.79687
881.08158	0.79858
879.02777	0.80013
876.97397	0.80279
874.92017	0.80682
872.86636	0.81198
870.81256	0.81723
868.75876	0.82115
866.70495	0.82381
864.65115	0.82632
862.59735	0.82927
860.54354	0.83253
858.48974	0.83601
856.43594	0.83976
854.38213	0.84345
852.32833	0.84649
850.27453	0.84831
848.22073	0.84892
846.16692	0.84844
844.11312	0.84711
842.05932	0.84591
840.00551	0.84539
837.95171	0.84500
835.89791	0.84457
833.84410	0.84451
831.79030	0.84408
829.73650	0.84294
827.68269	0.84244
825.62889	0.84329
823.57509	0.84459
821.52128	0.84608
819.46748	0.84788
817.41368	0.84903
815.35987	0.84924
813.30607	0.84885
811.25227	0.84749
809.19846	0.84395
807.14466	0.83718
805.09086	0.82835
803.03705	0.81985
800.98325	0.81314
798.92945	0.80939
796.87565	0.80976
794.82184	0.81308
792.76804	0.81612
790.71424	0.81750
788.66043	0.81777
786.60663	0.81715
784.55283	0.81526
782.49902	0.81162
780.44522	0.80747
778.39142	0.80472
776.33761	0.80296
774.28381	0.80069
772.23001	0.79634
770.17620	0.78882
768.12240	0.77893
766.06860	0.76797
764.01479	0.75641
761.96099	0.74449
759.90719	0.73311
757.85338	0.72391
755.79958	0.71816
753.74578	0.71593
751.69197	0.71575
749.63817	0.71607
747.58437	0.71762
745.53056	0.72301
743.47676	0.73331
741.42296	0.74647
739.36916	0.75992
737.31535	0.77225
735.26155	0.78320
733.20775	0.79314
731.15394	0.80160
729.10014	0.80780
727.04634	0.81222
724.99253	0.81572
722.93873	0.81908
720.88493	0.82262
718.83112	0.82577
716.77732	0.82819
714.72352	0.82890
712.66971	0.82618
710.61591	0.81837
708.56211	0.80250
706.50830	0.77460
704.45450	0.73249
702.40070	0.67821
700.34689	0.61660
698.29309	0.55581
696.23929	0.51480
694.18548	0.51683
692.13168	0.56014
690.07788	0.61521
688.02408	0.65802
685.97027	0.68558
683.91647	0.70328
681.86267	0.71479
679.80886	0.72275
677.75506	0.72921
675.70126	0.73403
673.64745	0.73733
671.59365	0.74024
669.53985	0.74329
667.48604	0.74558
665.43224	0.74634
663.37844	0.74770
661.32463	0.74964
659.27083	0.75038
657.21703	0.74949
655.16322	0.74731
653.10942	0.74435
651.05562	0.74222
649.00181	0.74157
646.94801	0.74168
644.89421	0.74350
642.84040	0.74810
640.78660	0.75323
638.73280	0.75583
636.67899	0.75621
634.62519	0.75704
632.57139	0.75880
630.51759	0.75990
628.46378	0.75987
626.40998	0.75888
624.35618	0.75719
622.30237	0.75489
620.24857	0.75232
618.19477	0.75066
616.14096	0.74938
614.08716	0.74689
612.03336	0.74366
609.97955	0.74102
607.92575	0.73929
605.87195	0.73738
603.81814	0.73434
601.76434	0.73087
599.71054	0.72646
597.65673	0.72146
595.60293	0.71806
593.54913	0.71533
591.49532	0.71176
589.44152	0.70843
587.38772	0.70682
585.33391	0.70645
583.28011	0.70490
581.22631	0.70191
579.17250	0.69952
577.11870	0.69745
575.06490	0.69392
573.01110	0.68925
570.95729	0.68408
568.90349	0.67753
566.84969	0.66949
564.79588	0.66192
562.74208	0.65570
560.68828	0.64888
558.63447	0.63994
556.58067	0.62961
554.52687	0.61999
552.47306	0.61181
550.41926	0.60427
548.36546	0.59586
546.31165	0.58562
544.25785	0.57397
542.20405	0.56030
540.15024	0.54521
538.09644	0.53131
536.04264	0.52081
533.98883	0.51573
531.93503	0.51458
529.88123	0.51343
527.82742	0.51276
525.77362	0.51450
523.71982	0.51767
521.66602	0.52172
519.61221	0.52697
517.55841	0.53296
515.50461	0.53944
513.45080	0.54669
511.39700	0.55380
509.34320	0.55919
507.28939	0.56275
505.23559	0.56588
503.18179	0.56984
501.12798	0.57377
499.07418	0.57647
497.02038	0.57680
494.96657	0.57331
492.91277	0.56646
490.85897	0.55824
488.80516	0.54971
486.75136	0.53931
484.69756	0.52554
482.64375	0.50879
480.58995	0.49108
478.53615	0.47360
476.48234	0.45604
474.42854	0.43933
472.37474	0.42462
470.32093	0.41204
468.26713	0.40266
466.21333	0.39886
464.15953	0.39883
462.10572	0.39919
460.05192	0.40109
457.99812	0.40625
455.94431	0.41275
453.89051	0.41813
451.83671	0.42440
449.78290	0.43193
447.72910	0.43775
445.67530	0.44022
443.62149	0.44092
441.56769	0.44208
439.51389	0.44121
437.46008	0.43580
435.40628	0.42892
433.35248	0.42462
431.29867	0.42337
429.24487	0.42313
427.19107	0.42144
425.13726	0.41998
423.08346	0.42011
421.02966	0.41923
418.97585	0.41840
416.92205	0.42005
414.86825	0.42209
412.81445	0.42751
410.76064	0.43893
408.70684	0.45212
406.65304	0.46267
404.59923	0.46949
402.54543	0.47446
400.49163	0.47485
398.43782	0.46723
