3996.71440	0.99081
3994.66059	0.99062
3992.60678	0.99044
3990.55297	0.99045
3988.49916	0.99052
3986.44535	0.99055
3984.39154	0.99066
3982.33773	0.99079
3980.28391	0.99070
3978.23010	0.99058
3976.17629	0.99052
3974.12248	0.99035
3972.06867	0.99018
3970.01486	0.99017
3967.96105	0.99024
3965.90724	0.99055
3963.85343	0.99109
3961.79962	0.99130
3959.74581	0.99118
3957.69200	0.99113
3955.63819	0.99105
3953.58438	0.99081
3951.53057	0.99059
3949.47676	0.99067
3947.42295	0.99106
3945.36914	0.99128
3943.31533	0.99105
3941.26152	0.99075
3939.20771	0.99075
3937.15390	0.99073
3935.10009	0.99035
3933.04628	0.98996
3930.99247	0.98992
3928.93866	0.98990
3926.88485	0.98988
3924.83104	0.98993
3922.77723	0.99007
3920.72342	0.99060
3918.66961	0.99117
3916.61580	0.99118
3914.56199	0.99107
3912.50818	0.99106
3910.45437	0.99082
3908.40056	0.99048
3906.34675	0.99045
3904.29294	0.99092
3902.23913	0.99131
3900.18532	0.99109
3898.13151	0.99072
3896.07770	0.99055
3894.02389	0.99063
3891.97008	0.99093
3889.91627	0.99113
3887.86246	0.99074
3885.80865	0.99030
3883.75484	0.99065
3881.70103	0.99106
3879.64722	0.99099
3877.59341	0.99074
3875.53960	0.99063
3873.48579	0.99087
3871.43198	0.99150
3869.37817	0.99190
3867.32436	0.99129
3865.27055	0.99036
3863.21674	0.99031
3861.16293	0.99103
3859.10912	0.99136
3857.05531	0.99114
3855.00150	0.99104
3852.94769	0.99149
3850.89388	0.99139
3848.84007	0.99074
3846.78626	0.99029
3844.73245	0.99028
3842.67864	0.99047
3840.62483	0.99065
3838.57102	0.99098
3836.51721	0.99127
3834.46340	0.99138
3832.40959	0.99140
3830.35578	0.99139
3828.30197	0.99132
3826.24816	0.99109
3824.19435	0.99100
3822.14054	0.99157
3820.08673	0.99217
3818.03292	0.99171
3815.97911	0.99110
3813.92530	0.99099
3811.87149	0.99089
3809.81768	0.99079
3807.76387	0.99095
3805.71006	0.99136
3803.65625	0.99179
3801.60244	0.99213
3799.54863	0.99204
3797.49482	0.99167
3795.44101	0.99124
3793.38720	0.99080
3791.33339	0.99057
3789.27958	0.99068
3787.22577	0.99120
3785.17196	0.99171
3783.11815	0.99161
3781.06434	0.99121
3779.01053	0.99109
3776.95672	0.99122
3774.90291	0.99129
3772.84910	0.99111
3770.79529	0.99079
3768.74148	0.99073
3766.68767	0.99104
3764.63386	0.99134
3762.58005	0.99129
3760.52624	0.99125
3758.47243	0.99162
3756.41862	0.99167
3754.36481	0.99124
3752.31100	0.99099
3750.25719	0.99125
3748.20338	0.99180
3746.14957	0.99217
3744.09576	0.99197
3742.04195	0.99163
3739.98814	0.99159
3737.93433	0.99177
3735.88052	0.99215
3733.82671	0.99238
3731.77290	0.99205
3729.71909	0.99154
3727.66528	0.99116
3725.61147	0.99097
3723.55766	0.99097
3721.50385	0.99107
3719.45004	0.99108
3717.39623	0.99108
3715.34242	0.99116
3713.28861	0.99128
3711.23480	0.99159
3709.18099	0.99137
3707.12718	0.99054
3705.07337	0.99006
3703.01956	0.99038
3700.96575	0.99082
3698.91194	0.99041
3696.85813	0.98974
3694.80432	0.98937
3692.75051	0.98922
3690.69670	0.98950
3688.64289	0.98993
3686.58907	0.98949
3684.53526	0.98881
3682.48145	0.98860
3680.42764	0.98840
3678.37383	0.98800
3676.32002	0.98808
3674.26621	0.98848
3672.21240	0.98831
3670.15859	0.98812
3668.10478	0.98826
3666.05097	0.98808
3663.99716	0.98750
3661.94335	0.98687
3659.88954	0.98623
3657.83573	0.98595
3655.78192	0.98617
3653.72811	0.98615
3651.67430	0.98581
3649.62049	0.98540
3647.56668	0.98469
3645.51287	0.98374
3643.45906	0.98299
3641.40525	0.98253
3639.35144	0.98217
3637.29763	0.98168
3635.24382	0.98085
3633.19001	0.98011
3631.13620	0.97986
3629.08239	0.97946
3627.02858	0.97836
3624.97477	0.97749
3622.92096	0.97709
3620.86715	0.97676
3618.81334	0.97639
3616.75953	0.97594
3614.70572	0.97559
3612.65191	0.97533
3610.59810	0.97444
3608.54429	0.97303
3606.49048	0.97182
3604.43667	0.97120
3602.38286	0.97106
3600.32905	0.97088
3598.27524	0.97020
3596.22143	0.96935
3594.16762	0.96883
3592.11381	0.96868
3590.06000	0.96855
3588.00619	0.96808
3585.95238	0.96710
3583.89857	0.96610
3581.84476	0.96563
3579.79095	0.96538
3577.73714	0.96477
3575.68333	0.96411
3573.62952	0.96371
3571.57571	0.96317
3569.52190	0.96244
3567.46809	0.96189
3565.41428	0.96133
3563.36047	0.96050
3561.30666	0.95966
3559.25285	0.95900
3557.19904	0.95836
3555.14523	0.95763
3553.09142	0.95693
3551.03761	0.95619
3548.98380	0.95545
3546.92999	0.95490
3544.87618	0.95445
3542.82237	0.95397
3540.76856	0.95325
3538.71475	0.95224
3536.66094	0.95130
3534.60713	0.95064
3532.55332	0.95015
3530.49951	0.94969
3528.44570	0.94906
3526.39189	0.94851
3524.33808	0.94812
3522.28427	0.94765
3520.23046	0.94711
3518.17665	0.94658
3516.12284	0.94612
3514.06903	0.94562
3512.01522	0.94499
3509.96141	0.94432
3507.90760	0.94378
3505.85379	0.94323
3503.79998	0.94237
3501.74617	0.94153
3499.69236	0.94110
3497.63855	0.94074
3495.58474	0.94027
3493.53093	0.93976
3491.47712	0.93917
3489.42331	0.93854
3487.36950	0.93818
3485.31569	0.93811
3483.26188	0.93786
3481.20807	0.93739
3479.15426	0.93691
3477.10045	0.93634
3475.04664	0.93565
3472.99283	0.93500
3470.93902	0.93457
3468.88521	0.93447
3466.83140	0.93429
3464.77759	0.93364
3462.72378	0.93300
3460.66997	0.93258
3458.61616	0.93203
3456.56235	0.93169
3454.50854	0.93176
3452.45473	0.93158
3450.40092	0.93090
3448.34711	0.93034
3446.29330	0.93009
3444.23949	0.93000
3442.18568	0.93005
3440.13187	0.92983
3438.07806	0.92927
3436.02425	0.92885
3433.97044	0.92877
3431.91663	0.92867
3429.86282	0.92841
3427.80901	0.92815
3425.75520	0.92787
3423.70139	0.92762
3421.64758	0.92754
3419.59377	0.92767
3417.53996	0.92786
3415.48615	0.92785
3413.43234	0.92758
3411.37853	0.92727
3409.32472	0.92707
3407.27091	0.92688
3405.21710	0.92680
3403.16329	0.92706
3401.10948	0.92747
3399.05567	0.92778
3397.00186	0.92765
3394.94805	0.92730
3392.89424	0.92742
3390.84042	0.92784
3388.78661	0.92817
3386.73280	0.92856
3384.67899	0.92875
3382.62518	0.92861
3380.57137	0.92862
3378.51756	0.92879
3376.46375	0.92887
3374.40994	0.92909
3372.35613	0.92944
3370.30232	0.92964
3368.24851	0.92992
3366.19470	0.93029
3364.14089	0.93047
3362.08708	0.93076
3360.03327	0.93148
3357.97946	0.93234
3355.92565	0.93288
3353.87184	0.93307
3351.81803	0.93331
3349.76422	0.93373
3347.71041	0.93409
3345.65660	0.93440
3343.60279	0.93467
3341.54898	0.93504
3339.49517	0.93572
3337.44136	0.93643
3335.38755	0.93684
3333.33374	0.93723
3331.27993	0.93782
3329.22612	0.93839
3327.17231	0.93868
3325.11850	0.93880
3323.06469	0.93893
3321.01088	0.93914
3318.95707	0.93960
3316.90326	0.94044
3314.84945	0.94130
3312.79564	0.94170
3310.74183	0.94199
3308.68802	0.94264
3306.63421	0.94327
3304.58040	0.94355
3302.52659	0.94372
3300.47278	0.94415
3298.41897	0.94477
3296.36516	0.94529
3294.31135	0.94580
3292.25754	0.94625
3290.20373	0.94639
3288.14992	0.94636
3286.09611	0.94665
3284.04230	0.94730
3281.98849	0.94771
3279.93468	0.94791
3277.88087	0.94822
3275.82706	0.94849
3273.77325	0.94877
3271.71944	0.94918
3269.66563	0.94949
3267.61182	0.94965
3265.55801	0.94980
3263.50420	0.94982
3261.45039	0.94995
3259.39658	0.95040
3257.34277	0.95091
3255.28896	0.95129
3253.23515	0.95158
3251.18134	0.95179
3249.12753	0.95189
3247.07372	0.95206
3245.01991	0.95256
3242.96610	0.95326
3240.91229	0.95366
3238.85848	0.95369
3236.80467	0.95389
3234.75086	0.95428
3232.69705	0.95453
3230.64324	0.95455
3228.58943	0.95457
3226.53562	0.95497
3224.48181	0.95567
3222.42800	0.95636
3220.37419	0.95688
3218.32038	0.95705
3216.26657	0.95707
3214.21276	0.95716
3212.15895	0.95739
3210.10514	0.95779
3208.05133	0.95830
3205.99752	0.95902
3203.94371	0.95963
3201.88990	0.95978
3199.83609	0.95999
3197.78228	0.96067
3195.72847	0.96137
3193.67466	0.96172
3191.62085	0.96181
3189.56704	0.96188
3187.51323	0.96218
3185.45942	0.96266
3183.40561	0.96318
3181.35180	0.96370
3179.29799	0.96409
3177.24418	0.96444
3175.19037	0.96488
3173.13656	0.96532
3171.08275	0.96568
3169.02894	0.96604
3166.97513	0.96645
3164.92132	0.96679
3162.86751	0.96700
3160.81370	0.96722
3158.75989	0.96744
3156.70608	0.96753
3154.65227	0.96780
3152.59846	0.96849
3150.54465	0.96927
3148.49084	0.96975
3146.43703	0.97009
3144.38322	0.97039
3142.32941	0.97049
3140.27560	0.97063
3138.22179	0.97098
3136.16798	0.97103
3134.11417	0.97075
3132.06036	0.97079
3130.00655	0.97132
3127.95274	0.97188
3125.89893	0.97224
3123.84512	0.97254
3121.79131	0.97272
3119.73750	0.97274
3117.68369	0.97284
3115.62988	0.97311
3113.57607	0.97340
3111.52226	0.97371
3109.46845	0.97402
3107.41464	0.97410
3105.36083	0.97402
3103.30702	0.97412
3101.25321	0.97443
3099.19940	0.97469
3097.14559	0.97478
3095.09177	0.97459
3093.03796	0.97427
3090.98415	0.97424
3088.93034	0.97449
3086.87653	0.97465
3084.82272	0.97468
3082.76891	0.97473
3080.71510	0.97469
3078.66129	0.97460
3076.60748	0.97451
3074.55367	0.97441
3072.49986	0.97446
3070.44605	0.97469
3068.39224	0.97500
3066.33843	0.97537
3064.28462	0.97579
3062.23081	0.97598
3060.17700	0.97575
3058.12319	0.97528
3056.06938	0.97493
3054.01557	0.97496
3051.96176	0.97520
3049.90795	0.97528
3047.85414	0.97524
3045.80033	0.97542
3043.74652	0.97575
3041.69271	0.97569
3039.63890	0.97524
3037.58509	0.97504
3035.53128	0.97524
3033.47747	0.97541
3031.42366	0.97523
3029.36985	0.97490
3027.31604	0.97475
3025.26223	0.97481
3023.20842	0.97483
3021.15461	0.97464
3019.10080	0.97413
3017.04699	0.97358
3014.99318	0.97355
3012.93937	0.97385
3010.88556	0.97373
3008.83175	0.97312
3006.77794	0.97247
3004.72413	0.97189
3002.67032	0.97116
3000.61651	0.97034
2998.56270	0.96942
2996.50889	0.96826
2994.45508	0.96706
2992.40127	0.96600
2990.34746	0.96475
2988.29365	0.96285
2986.23984	0.96025
2984.18603	0.95716
2982.13222	0.95360
2980.07841	0.94912
2978.02460	0.94343
2975.97079	0.93639
2973.91698	0.92724
2971.86317	0.91515
2969.80936	0.90010
2967.75555	0.88259
2965.70174	0.86314
2963.64793	0.84410
2961.59412	0.83025
2959.54031	0.82406
2957.48650	0.82113
2955.43269	0.81418
2953.37888	0.80141
2951.32507	0.78964
2949.27126	0.78804
2947.21745	0.79848
2945.16364	0.81393
2943.10983	0.82547
2941.05602	0.82835
2939.00221	0.82200
2936.94840	0.80751
2934.89459	0.78584
2932.84078	0.75733
2930.78697	0.72213
2928.73316	0.68054
2926.67935	0.63274
2924.62554	0.57785
2922.57173	0.51526
2920.51792	0.44843
2918.46411	0.38679
2916.41030	0.34475
2914.35649	0.33639
2912.30268	0.36392
2910.24887	0.41333
2908.19506	0.46628
2906.14125	0.51284
2904.08744	0.55185
2902.03363	0.58494
2899.97982	0.61341
2897.92601	0.63833
2895.87220	0.66048
2893.81839	0.68011
2891.76458	0.69708
2889.71077	0.71154
2887.65696	0.72416
2885.60315	0.73563
2883.54934	0.74612
2881.49553	0.75543
2879.44172	0.76439
2877.38791	0.77495
2875.33410	0.78715
2873.28029	0.79759
2871.22648	0.80307
2869.17267	0.80378
2867.11886	0.80249
2865.06505	0.80264
2863.01124	0.80421
2860.95743	0.80063
2858.90362	0.78249
2856.84981	0.74184
2854.79600	0.67326
2852.74219	0.58053
2850.68838	0.48956
2848.63457	0.44477
2846.58076	0.47009
2844.52695	0.53994
2842.47314	0.61013
2840.41933	0.66115
2838.36552	0.69900
2836.31171	0.73488
2834.25790	0.77303
2832.20409	0.81009
2830.15028	0.84130
2828.09647	0.86515
2826.04266	0.88272
2823.98885	0.89577
2821.93504	0.90583
2819.88123	0.91370
2817.82742	0.91986
2815.77361	0.92489
2813.71980	0.92929
2811.66599	0.93311
2809.61218	0.93636
2807.55837	0.93940
2805.50456	0.94251
2803.45075	0.94552
2801.39693	0.94826
2799.34312	0.95052
2797.28931	0.95217
2795.23550	0.95366
2793.18169	0.95523
2791.12788	0.95684
2789.07407	0.95863
2787.02026	0.96062
2784.96645	0.96245
2782.91264	0.96392
2780.85883	0.96527
2778.80502	0.96659
2776.75121	0.96758
2774.69740	0.96814
2772.64359	0.96864
2770.58978	0.96932
2768.53597	0.97001
2766.48216	0.97072
2764.42835	0.97134
2762.37454	0.97168
2760.32073	0.97216
2758.26692	0.97290
2756.21311	0.97351
2754.15930	0.97388
2752.10549	0.97401
2750.05168	0.97399
2747.99787	0.97406
2745.94406	0.97420
2743.89025	0.97407
2741.83644	0.97364
2739.78263	0.97331
2737.72882	0.97330
2735.67501	0.97326
2733.62120	0.97300
2731.56739	0.97286
2729.51358	0.97287
2727.45977	0.97263
2725.40596	0.97214
2723.35215	0.97178
2721.29834	0.97187
2719.24453	0.97245
2717.19072	0.97328
2715.13691	0.97408
2713.08310	0.97473
2711.02929	0.97533
2708.97548	0.97595
2706.92167	0.97651
2704.86786	0.97690
2702.81405	0.97716
2700.76024	0.97754
2698.70643	0.97802
2696.65262	0.97829
2694.59881	0.97834
2692.54500	0.97834
2690.49119	0.97842
2688.43738	0.97855
2686.38357	0.97856
2684.32976	0.97845
2682.27595	0.97842
2680.22214	0.97835
2678.16833	0.97815
2676.11452	0.97792
2674.06071	0.97767
2672.00690	0.97740
2669.95309	0.97708
2667.89928	0.97675
2665.84547	0.97659
2663.79166	0.97639
2661.73785	0.97610
2659.68404	0.97615
2657.63023	0.97643
2655.57642	0.97660
2653.52261	0.97674
2651.46880	0.97701
2649.41499	0.97739
2647.36118	0.97770
2645.30737	0.97766
2643.25356	0.97744
2641.19975	0.97739
2639.14594	0.97736
2637.09213	0.97724
2635.03832	0.97720
2632.98451	0.97742
2630.93070	0.97767
2628.87689	0.97774
2626.82308	0.97777
2624.76927	0.97809
2622.71546	0.97886
2620.66165	0.97959
2618.60784	0.97976
2616.55403	0.97986
2614.50022	0.98027
2612.44641	0.98070
2610.39260	0.98103
2608.33879	0.98129
2606.28498	0.98145
2604.23117	0.98175
2602.17736	0.98222
2600.12355	0.98264
2598.06974	0.98290
2596.01593	0.98297
2593.96212	0.98295
2591.90831	0.98308
2589.85450	0.98336
2587.80069	0.98342
2585.74688	0.98294
2583.69307	0.98243
2581.63926	0.98231
2579.58545	0.98247
2577.53164	0.98301
2575.47783	0.98377
2573.42402	0.98428
2571.37021	0.98449
2569.31640	0.98461
2567.26259	0.98472
2565.20878	0.98497
2563.15497	0.98551
2561.10116	0.98590
2559.04735	0.98584
2556.99354	0.98574
2554.93973	0.98559
2552.88592	0.98548
2550.83211	0.98568
2548.77830	0.98592
2546.72449	0.98617
2544.67068	0.98645
2542.61687	0.98647
2540.56306	0.98632
2538.50925	0.98650
2536.45544	0.98718
2534.40163	0.98775
2532.34782	0.98781
2530.29401	0.98769
2528.24020	0.98765
2526.18639	0.98758
2524.13258	0.98760
2522.07877	0.98787
2520.02496	0.98808
2517.97115	0.98808
2515.91734	0.98806
2513.86353	0.98810
2511.80972	0.98834
2509.75591	0.98869
2507.70210	0.98894
2505.64828	0.98914
2503.59447	0.98904
2501.54066	0.98876
2499.48685	0.98892
2497.43304	0.98937
2495.37923	0.98952
2493.32542	0.98935
2491.27161	0.98923
2489.21780	0.98917
2487.16399	0.98916
2485.11018	0.98927
2483.05637	0.98931
2481.00256	0.98926
2478.94875	0.98924
2476.89494	0.98926
2474.84113	0.98966
2472.78732	0.99022
2470.73351	0.99039
2468.67970	0.99052
2466.62589	0.99073
2464.57208	0.99044
2462.51827	0.98998
2460.46446	0.98985
2458.41065	0.98965
2456.35684	0.98948
2454.30303	0.98981
2452.24922	0.99011
2450.19541	0.99011
2448.14160	0.98986
2446.08779	0.98943
2444.03398	0.98938
2441.98017	0.98980
2439.92636	0.99022
2437.87255	0.99028
2435.81874	0.99008
2433.76493	0.98989
2431.71112	0.98979
2429.65731	0.98987
2427.60350	0.99000
2425.54969	0.98988
2423.49588	0.98980
2421.44207	0.99014
2419.38826	0.99063
2417.33445	0.99069
2415.28064	0.99050
2413.22683	0.99053
2411.17302	0.99047
2409.11921	0.99027
2407.06540	0.99031
2405.01159	0.99044
2402.95778	0.99042
2400.90397	0.99037
2398.85016	0.99029
2396.79635	0.99037
2394.74254	0.99071
2392.68873	0.99093
2390.63492	0.99086
2388.58111	0.99061
2386.52730	0.99025
2384.47349	0.99005
2382.41968	0.99002
2380.36587	0.98994
2378.31206	0.99000
2376.25825	0.99024
2374.20444	0.99039
2372.15063	0.99058
2370.09682	0.99080
2368.04301	0.99073
2365.98920	0.99054
2363.93539	0.99056
2361.88158	0.99042
2359.82777	0.98968
2357.77396	0.98891
2355.72015	0.98891
2353.66634	0.98923
2351.61253	0.98915
2349.55872	0.98878
2347.50491	0.98839
2345.45110	0.98807
2343.39729	0.98813
2341.34348	0.98815
2339.28967	0.98786
2337.23586	0.98798
2335.18205	0.98841
2333.12824	0.98886
2331.07443	0.98909
2329.02062	0.98844
2326.96681	0.98737
2324.91300	0.98694
2322.85919	0.98739
2320.80538	0.98794
2318.75157	0.98846
2316.69776	0.98912
2314.64395	0.98940
2312.59014	0.98944
2310.53633	0.98935
2308.48252	0.98892
2306.42871	0.98854
2304.37490	0.98852
2302.32109	0.98901
2300.26728	0.98973
2298.21347	0.98962
2296.15966	0.98862
2294.10585	0.98796
2292.05204	0.98818
2289.99823	0.98879
2287.94442	0.98913
2285.89061	0.98909
2283.83680	0.98915
2281.78299	0.98930
2279.72918	0.98892
2277.67537	0.98834
2275.62156	0.98820
2273.56775	0.98830
2271.51394	0.98875
2269.46013	0.98970
2267.40632	0.99047
2265.35251	0.99033
2263.29870	0.98993
2261.24489	0.99027
2259.19108	0.99077
2257.13727	0.99077
2255.08346	0.99056
2253.02965	0.99079
2250.97584	0.99153
2248.92203	0.99212
2246.86822	0.99219
2244.81441	0.99168
2242.76060	0.99093
2240.70679	0.99043
2238.65298	0.99049
2236.59917	0.99099
2234.54536	0.99151
2232.49155	0.99180
2230.43774	0.99157
2228.38393	0.99110
2226.33012	0.99065
2224.27631	0.99011
2222.22250	0.98990
2220.16869	0.99026
2218.11488	0.99062
2216.06107	0.99098
2214.00726	0.99178
2211.95344	0.99207
2209.89963	0.99111
2207.84582	0.98992
2205.79201	0.98943
2203.73820	0.98983
2201.68439	0.99107
2199.63058	0.99186
2197.57677	0.99113
2195.52296	0.99038
2193.46915	0.99089
2191.41534	0.99176
2189.36153	0.99196
2187.30772	0.99181
2185.25391	0.99198
2183.20010	0.99206
2181.14629	0.99168
2179.09248	0.99156
2177.03867	0.99264
2174.98486	0.99389
2172.93105	0.99307
2170.87724	0.99193
2168.82343	0.99240
2166.76962	0.99277
2164.71581	0.99179
2162.66200	0.99037
2160.60819	0.99075
2158.55438	0.99402
2156.50057	0.99684
2154.44676	0.99609
2152.39295	0.99431
2150.33914	0.99365
2148.28533	0.99316
2146.23152	0.99273
2144.17771	0.99310
2142.12390	0.99402
2140.07009	0.99441
2138.01628	0.99428
2135.96247	0.99474
2133.90866	0.99596
2131.85485	0.99596
2129.80104	0.99424
2127.74723	0.99299
2125.69342	0.99268
2123.63961	0.99266
2121.58580	0.99296
2119.53199	0.99306
2117.47818	0.99242
2115.42437	0.99157
2113.37056	0.99096
2111.31675	0.99087
2109.26294	0.99136
2107.20913	0.99201
2105.15532	0.99276
2103.10151	0.99326
2101.04770	0.99287
2098.99389	0.99205
2096.94008	0.99183
2094.88627	0.99229
2092.83246	0.99268
2090.77865	0.99255
2088.72484	0.99229
2086.67103	0.99218
2084.61722	0.99223
2082.56341	0.99224
2080.50960	0.99151
2078.45579	0.99046
2076.40198	0.99041
2074.34817	0.99150
2072.29436	0.99262
2070.24055	0.99310
2068.18674	0.99333
2066.13293	0.99337
2064.07912	0.99306
2062.02531	0.99312
2059.97150	0.99310
2057.91769	0.99213
2055.86388	0.99128
2053.81007	0.99123
2051.75626	0.99100
2049.70245	0.99048
2047.64864	0.99052
2045.59483	0.99092
2043.54102	0.99169
2041.48721	0.99235
2039.43340	0.99258
2037.37959	0.99322
2035.32578	0.99288
2033.27197	0.99116
2031.21816	0.99067
2029.16435	0.99248
2027.11054	0.99418
2025.05673	0.99386
2023.00292	0.99296
2020.94911	0.99293
2018.89530	0.99343
2016.84149	0.99334
2014.78768	0.99213
2012.73387	0.99204
2010.68006	0.99419
2008.62625	0.99610
2006.57244	0.99645
2004.51863	0.99594
2002.46482	0.99510
2000.41101	0.99419
1998.35720	0.99395
1996.30339	0.99475
1994.24958	0.99563
1992.19577	0.99563
1990.14196	0.99517
1988.08815	0.99471
1986.03434	0.99378
1983.98053	0.99269
1981.92672	0.99178
1979.87291	0.99167
1977.81910	0.99297
1975.76529	0.99442
1973.71148	0.99495
1971.65767	0.99527
1969.60386	0.99566
1967.55005	0.99549
1965.49624	0.99492
1963.44243	0.99456
1961.38862	0.99501
1959.33481	0.99574
1957.28100	0.99543
1955.22719	0.99430
1953.17338	0.99335
1951.11957	0.99322
1949.06576	0.99379
1947.01195	0.99361
1944.95814	0.99284
1942.90433	0.99295
1940.85052	0.99319
1938.79671	0.99290
1936.74290	0.99258
1934.68909	0.99213
1932.63528	0.99183
1930.58147	0.99255
1928.52766	0.99357
1926.47385	0.99374
1924.42004	0.99359
1922.36623	0.99357
1920.31242	0.99331
1918.25861	0.99271
1916.20479	0.99247
1914.15098	0.99309
1912.09717	0.99354
1910.04336	0.99315
1907.98955	0.99262
1905.93574	0.99238
1903.88193	0.99240
1901.82812	0.99262
1899.77431	0.99273
1897.72050	0.99260
1895.66669	0.99270
1893.61288	0.99274
1891.55907	0.99208
1889.50526	0.99161
1887.45145	0.99194
1885.39764	0.99247
1883.34383	0.99266
1881.29002	0.99251
1879.23621	0.99235
1877.18240	0.99247
1875.12859	0.99290
1873.07478	0.99335
1871.02097	0.99365
1868.96716	0.99361
1866.91335	0.99312
1864.85954	0.99256
1862.80573	0.99231
1860.75192	0.99232
1858.69811	0.99241
1856.64430	0.99234
1854.59049	0.99208
1852.53668	0.99195
1850.48287	0.99205
1848.42906	0.99226
1846.37525	0.99248
1844.32144	0.99260
1842.26763	0.99255
1840.21382	0.99249
1838.16001	0.99223
1836.10620	0.99173
1834.05239	0.99117
1831.99858	0.99075
1829.94477	0.99087
1827.89096	0.99128
1825.83715	0.99128
1823.78334	0.99094
1821.72953	0.99056
1819.67572	0.99045
1817.62191	0.99075
1815.56810	0.99089
1813.51429	0.99067
1811.46048	0.99030
1809.40667	0.98985
1807.35286	0.98946
1805.29905	0.98910
1803.24524	0.98859
1801.19143	0.98794
1799.13762	0.98704
1797.08381	0.98597
1795.03000	0.98493
1792.97619	0.98370
1790.92238	0.98220
1788.86857	0.98067
1786.81476	0.97922
1784.76095	0.97779
1782.70714	0.97624
1780.65333	0.97455
1778.59952	0.97320
1776.54571	0.97256
1774.49190	0.97210
1772.43809	0.97101
1770.38428	0.96961
1768.33047	0.96883
1766.27666	0.96839
1764.22285	0.96797
1762.16904	0.96749
1760.11523	0.96694
1758.06142	0.96633
1756.00761	0.96546
1753.95380	0.96459
1751.89999	0.96365
1749.84618	0.96202
1747.79237	0.95999
1745.73856	0.95794
1743.68475	0.95580
1741.63094	0.95373
1739.57713	0.95196
1737.52332	0.95094
1735.46951	0.95057
1733.41570	0.95016
1731.36189	0.94919
1729.30808	0.94720
1727.25427	0.94372
1725.20046	0.93881
1723.14665	0.93291
1721.09284	0.92753
1719.03903	0.92303
1716.98522	0.91860
1714.93141	0.91563
1712.87760	0.91524
1710.82379	0.91688
1708.76998	0.91997
1706.71617	0.92425
1704.66236	0.92898
1702.60855	0.93283
1700.55474	0.93651
1698.50093	0.93995
1696.44712	0.94350
1694.39331	0.94779
1692.33950	0.95107
1690.28569	0.95347
1688.23188	0.95530
1686.17807	0.95674
1684.12426	0.95810
1682.07045	0.95876
1680.01664	0.95887
1677.96283	0.95878
1675.90902	0.95853
1673.85521	0.95808
1671.80140	0.95755
1669.74759	0.95693
1667.69378	0.95596
1665.63997	0.95494
1663.58616	0.95415
1661.53235	0.95333
1659.47854	0.95244
1657.42473	0.95168
1655.37092	0.95118
1653.31711	0.95023
1651.26330	0.94869
1649.20949	0.94786
1647.15568	0.94715
1645.10187	0.94603
1643.04806	0.94497
1640.99425	0.94428
1638.94044	0.94401
1636.88663	0.94396
1634.83282	0.94369
1632.77901	0.94343
1630.72520	0.94338
1628.67139	0.94363
1626.61758	0.94411
1624.56377	0.94468
1622.50996	0.94553
1620.45614	0.94658
1618.40233	0.94787
1616.34852	0.94975
1614.29471	0.95166
1612.24090	0.95331
1610.18709	0.95501
1608.13328	0.95653
1606.07947	0.95778
1604.02566	0.95893
1601.97185	0.96011
1599.91804	0.96118
1597.86423	0.96197
1595.81042	0.96268
1593.75661	0.96334
1591.70280	0.96393
1589.64899	0.96438
1587.59518	0.96463
1585.54137	0.96502
1583.48756	0.96568
1581.43375	0.96616
1579.37994	0.96642
1577.32613	0.96685
1575.27232	0.96754
1573.21851	0.96817
1571.16470	0.96870
1569.11089	0.96905
1567.05708	0.96914
1565.00327	0.96936
1562.94946	0.96981
1560.89565	0.97048
1558.84184	0.97146
1556.78803	0.97207
1554.73422	0.97246
1552.68041	0.97280
1550.62660	0.97323
1548.57279	0.97382
1546.51898	0.97446
1544.46517	0.97521
1542.41136	0.97595
1540.35755	0.97669
1538.30374	0.97740
1536.24993	0.97785
1534.19612	0.97837
1532.14231	0.97873
1530.08850	0.97881
1528.03469	0.97925
1525.98088	0.98000
1523.92707	0.98050
1521.87326	0.98071
1519.81945	0.98070
1517.76564	0.98050
1515.71183	0.98026
1513.65802	0.98021
1511.60421	0.98039
1509.55040	0.98063
1507.49659	0.98072
1505.44278	0.98003
1503.38897	0.97904
1501.33516	0.97841
1499.28135	0.97794
1497.22754	0.97700
1495.17373	0.97554
1493.11992	0.97436
1491.06611	0.97311
1489.01230	0.97115
1486.95849	0.96856
1484.90468	0.96542
1482.85087	0.96070
1480.79706	0.95231
1478.74325	0.93463
1476.68944	0.89189
1474.63563	0.81695
1472.58182	0.75626
1470.52801	0.76069
1468.47420	0.78555
1466.42039	0.78913
1464.36658	0.76926
1462.31277	0.75823
1460.25896	0.77274
1458.20515	0.79926
1456.15134	0.81914
1454.09753	0.82726
1452.04372	0.83303
1449.98991	0.84173
1447.93610	0.85707
1445.88229	0.87686
1443.82848	0.89410
1441.77467	0.90605
1439.72086	0.91221
1437.66705	0.91398
1435.61324	0.91557
1433.55943	0.92146
1431.50562	0.93023
1429.45181	0.93809
1427.39800	0.94263
1425.34419	0.94485
1423.29038	0.94594
1421.23657	0.94644
1419.18276	0.94670
1417.12895	0.94648
1415.07514	0.94589
1413.02133	0.94538
1410.96752	0.94530
1408.91371	0.94552
1406.85990	0.94611
1404.80609	0.94745
1402.75228	0.94914
1400.69847	0.95051
1398.64466	0.95132
1396.59085	0.95142
1394.53704	0.95076
1392.48323	0.94948
1390.42942	0.94749
1388.37561	0.94340
1386.32180	0.93502
1384.26799	0.92066
1382.21418	0.89624
1380.16037	0.85620
1378.10656	0.80759
1376.05275	0.77978
1373.99894	0.79815
1371.94513	0.84408
1369.89132	0.88288
1367.83751	0.90604
1365.78370	0.91642
1363.72989	0.91858
1361.67608	0.91567
1359.62227	0.91269
1357.56846	0.91473
1355.51465	0.92197
1353.46084	0.93056
1351.40703	0.93761
1349.35322	0.94292
1347.29941	0.94683
1345.24560	0.94972
1343.19179	0.95194
1341.13798	0.95359
1339.08417	0.95450
1337.03036	0.95465
1334.97655	0.95422
1332.92274	0.95320
1330.86893	0.95188
1328.81512	0.95100
1326.76130	0.95093
1324.70749	0.95150
1322.65368	0.95198
1320.59987	0.95169
1318.54606	0.95077
1316.49225	0.94989
1314.43844	0.94959
1312.38463	0.94978
1310.33082	0.94961
1308.27701	0.94800
1306.22320	0.94531
1304.16939	0.94364
1302.11558	0.94405
1300.06177	0.94501
1298.00796	0.94520
1295.95415	0.94523
1293.90034	0.94592
1291.84653	0.94709
1289.79272	0.94818
1287.73891	0.94892
1285.68510	0.94941
1283.63129	0.94984
1281.57748	0.95019
1279.52367	0.95028
1277.46986	0.95010
1275.41605	0.94981
1273.36224	0.94948
1271.30843	0.94911
1269.25462	0.94870
1267.20081	0.94825
1265.14700	0.94751
1263.09319	0.94616
1261.03938	0.94426
1258.98557	0.94178
1256.93176	0.93913
1254.87795	0.93753
1252.82414	0.93738
1250.77033	0.93754
1248.71652	0.93718
1246.66271	0.93663
1244.60890	0.93654
1242.55509	0.93703
1240.50128	0.93776
1238.44747	0.93827
1236.39366	0.93866
1234.33985	0.93904
1232.28604	0.93917
1230.23223	0.93906
1228.17842	0.93867
1226.12461	0.93776
1224.07080	0.93646
1222.01699	0.93498
1219.96318	0.93350
1217.90937	0.93238
1215.85556	0.93209
1213.80175	0.93281
1211.74794	0.93409
1209.69413	0.93514
1207.64032	0.93574
1205.58651	0.93626
1203.53270	0.93683
1201.47889	0.93713
1199.42508	0.93721
1197.37127	0.93723
1195.31746	0.93708
1193.26365	0.93667
1191.20984	0.93609
1189.15603	0.93544
1187.10222	0.93466
1185.04841	0.93386
1182.99460	0.93309
1180.94079	0.93197
1178.88698	0.93000
1176.83317	0.92721
1174.77936	0.92332
1172.72555	0.91717
1170.67174	0.90882
1168.61793	0.90177
1166.56412	0.90030
1164.51031	0.90446
1162.45650	0.91074
1160.40269	0.91638
1158.34888	0.92037
1156.29507	0.92262
1154.24126	0.92399
1152.18745	0.92536
1150.13364	0.92716
1148.07983	0.92937
1146.02602	0.93146
1143.97221	0.93309
1141.91840	0.93430
1139.86459	0.93500
1137.81078	0.93533
1135.75697	0.93544
1133.70316	0.93530
1131.64935	0.93507
1129.59554	0.93503
1127.54173	0.93515
1125.48792	0.93499
1123.43411	0.93457
1121.38030	0.93428
1119.32649	0.93398
1117.27268	0.93352
1115.21887	0.93297
1113.16506	0.93209
1111.11125	0.93039
1109.05744	0.92786
1107.00363	0.92529
1104.94982	0.92366
1102.89601	0.92339
1100.84220	0.92427
1098.78839	0.92576
1096.73458	0.92721
1094.68077	0.92821
1092.62696	0.92870
1090.57315	0.92881
1088.51934	0.92891
1086.46553	0.92911
1084.41172	0.92926
1082.35791	0.92932
1080.30410	0.92943
1078.25029	0.92966
1076.19648	0.92993
1074.14267	0.93010
1072.08886	0.93021
1070.03505	0.93043
1067.98124	0.93061
1065.92743	0.93043
1063.87362	0.93013
1061.81981	0.93000
1059.76600	0.92982
1057.71219	0.92930
1055.65838	0.92900
1053.60457	0.92915
1051.55076	0.92888
1049.49695	0.92794
1047.44314	0.92672
1045.38933	0.92549
1043.33552	0.92502
1041.28171	0.92579
1039.22790	0.92718
1037.17409	0.92819
1035.12028	0.92866
1033.06647	0.92910
1031.01265	0.92966
1028.95884	0.93002
1026.90503	0.93017
1024.85122	0.93049
1022.79741	0.93079
1020.74360	0.93090
1018.68979	0.93118
1016.63598	0.93171
1014.58217	0.93207
1012.52836	0.93210
1010.47455	0.93214
1008.42074	0.93209
1006.36693	0.93094
1004.31312	0.92736
1002.25931	0.92025
1000.20550	0.91035
998.15169	0.90334
996.09788	0.90566
994.04407	0.91534
991.99026	0.92501
989.93645	0.93110
987.88264	0.93435
985.82883	0.93593
983.77502	0.93611
981.72121	0.93474
979.66740	0.93135
977.61359	0.92483
975.55978	0.91517
973.50597	0.90707
971.45216	0.90735
969.39835	0.91575
967.34454	0.92521
965.29073	0.93183
963.23692	0.93620
961.18311	0.93906
959.12930	0.94103
957.07549	0.94241
955.02168	0.94313
952.96787	0.94345
950.91406	0.94357
948.86025	0.94356
946.80644	0.94349
944.75263	0.94316
942.69882	0.94260
940.64501	0.94249
938.59120	0.94328
936.53739	0.94457
934.48358	0.94600
932.42977	0.94757
930.37596	0.94892
928.32215	0.94984
926.26834	0.95047
924.21453	0.95090
922.16072	0.95139
920.10691	0.95190
918.05310	0.95199
915.99929	0.95158
913.94548	0.95094
911.89167	0.95013
909.83786	0.94930
907.78405	0.94882
905.73024	0.94833
903.67643	0.94642
901.62262	0.94295
899.56881	0.94077
897.51500	0.94266
895.46119	0.94738
893.40738	0.95157
891.35357	0.95380
889.29976	0.95478
887.24595	0.95538
885.19214	0.95595
883.13833	0.95648
881.08452	0.95683
879.03071	0.95690
876.97690	0.95691
874.92309	0.95721
872.86928	0.95762
870.81547	0.95791
868.76166	0.95800
866.70785	0.95769
864.65404	0.95727
862.60023	0.95733
860.54642	0.95741
858.49261	0.95651
856.43880	0.95504
854.38499	0.95432
852.33118	0.95431
850.27737	0.95402
848.22356	0.95244
846.16975	0.94750
844.11594	0.93699
842.06213	0.92547
840.00832	0.92440
837.95451	0.93501
835.90070	0.94612
833.84689	0.95187
831.79308	0.95409
829.73927	0.95502
827.68546	0.95565
825.63165	0.95592
823.57784	0.95592
821.52403	0.95552
819.47022	0.95423
817.41641	0.95238
815.36260	0.94996
813.30879	0.94609
811.25498	0.94122
809.20117	0.93825
807.14736	0.93972
805.09355	0.94397
803.03974	0.94727
800.98593	0.94889
798.93212	0.94995
796.87831	0.95055
794.82450	0.95038
792.77069	0.94999
790.71688	0.95007
788.66307	0.95041
786.60926	0.95016
784.55545	0.94923
782.50164	0.94832
780.44783	0.94772
778.39402	0.94744
776.34021	0.94746
774.28640	0.94779
772.23259	0.94832
770.17878	0.94857
768.12497	0.94795
766.07116	0.94713
764.01735	0.94695
761.96354	0.94681
759.90973	0.94643
757.85592	0.94633
755.80211	0.94645
753.74830	0.94641
751.69449	0.94588
749.64068	0.94481
747.58687	0.94384
745.53306	0.94288
743.47925	0.94118
741.42544	0.93901
739.37163	0.93613
737.31781	0.92980
735.26400	0.91298
733.21019	0.87872
731.15638	0.84299
729.10257	0.83632
727.04876	0.85225
724.99495	0.85603
722.94114	0.82942
720.88733	0.77753
718.83352	0.73270
716.77971	0.73398
714.72590	0.78225
712.67209	0.84127
710.61828	0.88038
708.56447	0.89899
706.51066	0.90753
704.45685	0.91241
702.40304	0.91553
700.34923	0.91721
698.29542	0.91791
696.24161	0.91818
694.18780	0.91881
692.13399	0.91970
690.08018	0.92022
688.02637	0.91992
685.97256	0.91891
683.91875	0.91805
681.86494	0.91807
679.81113	0.91834
677.75732	0.91790
675.70351	0.91688
673.64970	0.91592
671.59589	0.91564
669.54208	0.91584
667.48827	0.91590
665.43446	0.91608
663.38065	0.91590
661.32684	0.91501
659.27303	0.91428
657.21922	0.91383
655.16541	0.91341
653.11160	0.91349
651.05779	0.91338
649.00398	0.91241
646.95017	0.91161
644.89636	0.91135
642.84255	0.91148
640.78874	0.91153
638.73493	0.91100
636.68112	0.91041
634.62731	0.90997
632.57350	0.90956
630.51969	0.90888
628.46588	0.90782
626.41207	0.90729
624.35826	0.90716
622.30445	0.90646
620.25064	0.90604
618.19683	0.90618
616.14302	0.90572
614.08921	0.90521
612.03540	0.90525
609.98159	0.90543
607.92778	0.90562
605.87397	0.90496
603.82016	0.90303
601.76635	0.90182
599.71254	0.90248
597.65873	0.90410
595.60492	0.90519
593.55111	0.90475
591.49730	0.90378
589.44349	0.90292
587.38968	0.90216
585.33587	0.90302
583.28206	0.90469
581.22825	0.90495
579.17444	0.90441
577.12063	0.90377
575.06682	0.90265
573.01301	0.90122
570.95920	0.89986
568.90539	0.89996
566.85158	0.90161
564.79777	0.90185
562.74396	0.90042
560.69015	0.89969
558.63634	0.89955
556.58253	0.89962
554.52872	0.90001
552.47491	0.89927
550.42110	0.89783
548.36729	0.89721
546.31348	0.89699
544.25967	0.89656
542.20586	0.89557
540.15205	0.89468
538.09824	0.89496
536.04443	0.89498
533.99062	0.89327
531.93681	0.89164
529.88300	0.89204
527.82919	0.89437
525.77538	0.89631
523.72157	0.89560
521.66776	0.89391
519.61395	0.89358
517.56014	0.89468
515.50633	0.89626
513.45252	0.89768
511.39871	0.89853
509.34490	0.89898
507.29109	0.89919
505.23728	0.89868
503.18347	0.89857
501.12966	0.89964
499.07585	0.90013
497.02204	0.90041
494.96823	0.90255
492.91442	0.90425
490.86061	0.90271
488.80680	0.90078
486.75299	0.90132
484.69918	0.90247
482.64537	0.90117
480.59156	0.89824
478.53775	0.89653
476.48394	0.89651
474.43013	0.89626
472.37632	0.89524
470.32251	0.89525
468.26870	0.89640
466.21489	0.89587
464.16108	0.89196
462.10727	0.88826
460.05346	0.88767
457.99965	0.88973
455.94584	0.89262
453.89203	0.89350
451.83822	0.89381
449.78441	0.89548
447.73060	0.89718
445.67679	0.89756
443.62298	0.89708
441.56916	0.89773
439.51535	0.90075
437.46154	0.90375
435.40773	0.90309
433.35392	0.90004
431.30011	0.89996
429.24630	0.90240
427.19249	0.90294
425.13868	0.90353
423.08487	0.90529
421.03106	0.90621
418.97725	0.90722
416.92344	0.90618
414.86963	0.90469
412.81582	0.90720
410.76201	0.91126
408.70820	0.91179
406.65439	0.90990
404.60058	0.91028
402.54677	0.91342
400.49296	0.91486
398.43915	0.91110
