3996.71440	0.98142
3994.66059	0.98159
3992.60678	0.98173
3990.55297	0.98189
3988.49916	0.98186
3986.44535	0.98163
3984.39154	0.98134
3982.33773	0.98115
3980.28391	0.98124
3978.23010	0.98141
3976.17629	0.98140
3974.12248	0.98152
3972.06867	0.98175
3970.01486	0.98169
3967.96105	0.98171
3965.90724	0.98203
3963.85343	0.98216
3961.79962	0.98196
3959.74581	0.98152
3957.69200	0.98126
3955.63819	0.98148
3953.58438	0.98188
3951.53057	0.98196
3949.47676	0.98155
3947.42295	0.98121
3945.36914	0.98136
3943.31533	0.98154
3941.26152	0.98136
3939.20771	0.98138
3937.15390	0.98180
3935.10009	0.98210
3933.04628	0.98189
3930.99247	0.98139
3928.93866	0.98121
3926.88485	0.98138
3924.83104	0.98150
3922.77723	0.98154
3920.72342	0.98175
3918.66961	0.98193
3916.61580	0.98169
3914.56199	0.98136
3912.50818	0.98121
3910.45437	0.98116
3908.40056	0.98128
3906.34675	0.98148
3904.29294	0.98143
3902.23913	0.98106
3900.18532	0.98106
3898.13151	0.98175
3896.07770	0.98243
3894.02389	0.98271
3891.97008	0.98247
3889.91627	0.98177
3887.86246	0.98155
3885.80865	0.98204
3883.75484	0.98236
3881.70103	0.98209
3879.64722	0.98157
3877.59341	0.98135
3875.53960	0.98158
3873.48579	0.98197
3871.43198	0.98214
3869.37817	0.98177
3867.32436	0.98147
3865.27055	0.98171
3863.21674	0.98196
3861.16293	0.98177
3859.10912	0.98164
3857.05531	0.98194
3855.00150	0.98210
3852.94769	0.98156
3850.89388	0.98151
3848.84007	0.98210
3846.78626	0.98277
3844.73245	0.98309
3842.67864	0.98255
3840.62483	0.98158
3838.57102	0.98097
3836.51721	0.98112
3834.46340	0.98177
3832.40959	0.98228
3830.35578	0.98227
3828.30197	0.98198
3826.24816	0.98194
3824.19435	0.98232
3822.14054	0.98242
3820.08673	0.98190
3818.03292	0.98182
3815.97911	0.98210
3813.92530	0.98209
3811.87149	0.98194
3809.81768	0.98198
3807.76387	0.98223
3805.71006	0.98225
3803.65625	0.98200
3801.60244	0.98197
3799.54863	0.98234
3797.49482	0.98242
3795.44101	0.98195
3793.38720	0.98154
3791.33339	0.98167
3789.27958	0.98199
3787.22577	0.98208
3785.17196	0.98216
3783.11815	0.98236
3781.06434	0.98233
3779.01053	0.98200
3776.95672	0.98171
3774.90291	0.98153
3772.84910	0.98145
3770.79529	0.98156
3768.74148	0.98199
3766.68767	0.98239
3764.63386	0.98241
3762.58005	0.98218
3760.52624	0.98211
3758.47243	0.98263
3756.41862	0.98334
3754.36481	0.98336
3752.31100	0.98279
3750.25719	0.98251
3748.20338	0.98273
3746.14957	0.98296
3744.09576	0.98282
3742.04195	0.98226
3739.98814	0.98189
3737.93433	0.98180
3735.88052	0.98173
3733.82671	0.98160
3731.77290	0.98156
3729.71909	0.98185
3727.66528	0.98235
3725.61147	0.98243
3723.55766	0.98208
3721.50385	0.98165
3719.45004	0.98096
3717.39623	0.98017
3715.34242	0.97967
3713.28861	0.97914
3711.23480	0.97795
3709.18099	0.97680
3707.12718	0.97608
3705.07337	0.97500
3703.01956	0.97335
3700.96575	0.97166
3698.91194	0.97066
3696.85813	0.97005
3694.80432	0.96980
3692.75051	0.97035
3690.69670	0.97113
3688.64289	0.97145
3686.58907	0.97178
3684.53526	0.97202
3682.48145	0.97183
3680.42764	0.97149
3678.37383	0.97124
3676.32002	0.97105
3674.26621	0.97123
3672.21240	0.97139
3670.15859	0.97117
3668.10478	0.97124
3666.05097	0.97173
3663.99716	0.97204
3661.94335	0.97198
3659.88954	0.97162
3657.83573	0.97126
3655.78192	0.97104
3653.72811	0.97066
3651.67430	0.97026
3649.62049	0.97010
3647.56668	0.96956
3645.51287	0.96864
3643.45906	0.96794
3641.40525	0.96747
3639.35144	0.96713
3637.29763	0.96689
3635.24382	0.96681
3633.19001	0.96681
3631.13620	0.96644
3629.08239	0.96494
3627.02858	0.96332
3624.97477	0.96296
3622.92096	0.96292
3620.86715	0.96272
3618.81334	0.96271
3616.75953	0.96341
3614.70572	0.96418
3612.65191	0.96423
3610.59810	0.96397
3608.54429	0.96372
3606.49048	0.96349
3604.43667	0.96339
3602.38286	0.96334
3600.32905	0.96346
3598.27524	0.96384
3596.22143	0.96407
3594.16762	0.96394
3592.11381	0.96402
3590.06000	0.96439
3588.00619	0.96435
3585.95238	0.96369
3583.89857	0.96323
3581.84476	0.96324
3579.79095	0.96333
3577.73714	0.96324
3575.68333	0.96309
3573.62952	0.96304
3571.57571	0.96315
3569.52190	0.96326
3567.46809	0.96273
3565.41428	0.96185
3563.36047	0.96145
3561.30666	0.96096
3559.25285	0.96045
3557.19904	0.96041
3555.14523	0.96045
3553.09142	0.96022
3551.03761	0.95977
3548.98380	0.95944
3546.92999	0.95941
3544.87618	0.95929
3542.82237	0.95889
3540.76856	0.95856
3538.71475	0.95854
3536.66094	0.95848
3534.60713	0.95814
3532.55332	0.95775
3530.49951	0.95736
3528.44570	0.95701
3526.39189	0.95696
3524.33808	0.95701
3522.28427	0.95699
3520.23046	0.95709
3518.17665	0.95708
3516.12284	0.95692
3514.06903	0.95677
3512.01522	0.95664
3509.96141	0.95668
3507.90760	0.95682
3505.85379	0.95698
3503.79998	0.95699
3501.74617	0.95642
3499.69236	0.95544
3497.63855	0.95481
3495.58474	0.95478
3493.53093	0.95495
3491.47712	0.95504
3489.42331	0.95487
3487.36950	0.95442
3485.31569	0.95415
3483.26188	0.95416
3481.20807	0.95417
3479.15426	0.95429
3477.10045	0.95446
3475.04664	0.95428
3472.99283	0.95390
3470.93902	0.95366
3468.88521	0.95349
3466.83140	0.95351
3464.77759	0.95351
3462.72378	0.95304
3460.66997	0.95236
3458.61616	0.95188
3456.56235	0.95167
3454.50854	0.95168
3452.45473	0.95170
3450.40092	0.95156
3448.34711	0.95144
3446.29330	0.95131
3444.23949	0.95118
3442.18568	0.95126
3440.13187	0.95126
3438.07806	0.95109
3436.02425	0.95093
3433.97044	0.95082
3431.91663	0.95081
3429.86282	0.95080
3427.80901	0.95078
3425.75520	0.95078
3423.70139	0.95062
3421.64758	0.95029
3419.59377	0.94988
3417.53996	0.94944
3415.48615	0.94941
3413.43234	0.94998
3411.37853	0.95033
3409.32472	0.95007
3407.27091	0.94974
3405.21710	0.94964
3403.16329	0.94956
3401.10948	0.94930
3399.05567	0.94922
3397.00186	0.94938
3394.94805	0.94935
3392.89424	0.94915
3390.84042	0.94910
3388.78661	0.94914
3386.73280	0.94907
3384.67899	0.94923
3382.62518	0.94975
3380.57137	0.95007
3378.51756	0.94998
3376.46375	0.94977
3374.40994	0.94961
3372.35613	0.94954
3370.30232	0.94962
3368.24851	0.94977
3366.19470	0.94981
3364.14089	0.94981
3362.08708	0.94985
3360.03327	0.95010
3357.97946	0.95056
3355.92565	0.95077
3353.87184	0.95070
3351.81803	0.95070
3349.76422	0.95075
3347.71041	0.95073
3345.65660	0.95097
3343.60279	0.95134
3341.54898	0.95141
3339.49517	0.95155
3337.44136	0.95184
3335.38755	0.95176
3333.33374	0.95158
3331.27993	0.95172
3329.22612	0.95189
3327.17231	0.95193
3325.11850	0.95192
3323.06469	0.95194
3321.01088	0.95219
3318.95707	0.95251
3316.90326	0.95272
3314.84945	0.95272
3312.79564	0.95259
3310.74183	0.95260
3308.68802	0.95281
3306.63421	0.95298
3304.58040	0.95284
3302.52659	0.95264
3300.47278	0.95270
3298.41897	0.95290
3296.36516	0.95298
3294.31135	0.95298
3292.25754	0.95310
3290.20373	0.95337
3288.14992	0.95369
3286.09611	0.95385
3284.04230	0.95385
3281.98849	0.95399
3279.93468	0.95432
3277.88087	0.95459
3275.82706	0.95459
3273.77325	0.95442
3271.71944	0.95450
3269.66563	0.95478
3267.61182	0.95499
3265.55801	0.95517
3263.50420	0.95530
3261.45039	0.95530
3259.39658	0.95557
3257.34277	0.95621
3255.28896	0.95668
3253.23515	0.95685
3251.18134	0.95682
3249.12753	0.95667
3247.07372	0.95663
3245.01991	0.95686
3242.96610	0.95730
3240.91229	0.95765
3238.85848	0.95770
3236.80467	0.95789
3234.75086	0.95848
3232.69705	0.95880
3230.64324	0.95861
3228.58943	0.95857
3226.53562	0.95887
3224.48181	0.95924
3222.42800	0.95957
3220.37419	0.95980
3218.32038	0.95990
3216.26657	0.95984
3214.21276	0.95976
3212.15895	0.95992
3210.10514	0.96032
3208.05133	0.96071
3205.99752	0.96088
3203.94371	0.96091
3201.88990	0.96113
3199.83609	0.96145
3197.78228	0.96162
3195.72847	0.96190
3193.67466	0.96241
3191.62085	0.96287
3189.56704	0.96313
3187.51323	0.96311
3185.45942	0.96277
3183.40561	0.96250
3181.35180	0.96282
3179.29799	0.96358
3177.24418	0.96423
3175.19037	0.96451
3173.13656	0.96448
3171.08275	0.96427
3169.02894	0.96409
3166.97513	0.96430
3164.92132	0.96491
3162.86751	0.96534
3160.81370	0.96545
3158.75989	0.96581
3156.70608	0.96636
3154.65227	0.96647
3152.59846	0.96624
3150.54465	0.96626
3148.49084	0.96664
3146.43703	0.96714
3144.38322	0.96743
3142.32941	0.96763
3140.27560	0.96800
3138.22179	0.96839
3136.16798	0.96847
3134.11417	0.96835
3132.06036	0.96827
3130.00655	0.96824
3127.95274	0.96833
3125.89893	0.96865
3123.84512	0.96901
3121.79131	0.96922
3119.73750	0.96932
3117.68369	0.96934
3115.62988	0.96951
3113.57607	0.96973
3111.52226	0.96962
3109.46845	0.96936
3107.41464	0.96926
3105.36083	0.96938
3103.30702	0.96956
3101.25321	0.96961
3099.19940	0.96958
3097.14559	0.96952
3095.09177	0.96955
3093.03796	0.96979
3090.98415	0.97004
3088.93034	0.97008
3086.87653	0.96985
3084.82272	0.96958
3082.76891	0.96957
3080.71510	0.96971
3078.66129	0.96999
3076.60748	0.97036
3074.55367	0.97037
3072.49986	0.97010
3070.44605	0.97015
3068.39224	0.97042
3066.33843	0.97044
3064.28462	0.97028
3062.23081	0.97025
3060.17700	0.97055
3058.12319	0.97095
3056.06938	0.97099
3054.01557	0.97097
3051.96176	0.97131
3049.90795	0.97156
3047.85414	0.97143
3045.80033	0.97133
3043.74652	0.97146
3041.69271	0.97145
3039.63890	0.97124
3037.58509	0.97117
3035.53128	0.97143
3033.47747	0.97175
3031.42366	0.97177
3029.36985	0.97163
3027.31604	0.97156
3025.26223	0.97160
3023.20842	0.97166
3021.15461	0.97170
3019.10080	0.97178
3017.04699	0.97192
3014.99318	0.97195
3012.93937	0.97179
3010.88556	0.97152
3008.83175	0.97134
3006.77794	0.97147
3004.72413	0.97163
3002.67032	0.97156
3000.61651	0.97140
2998.56270	0.97104
2996.50889	0.97044
2994.45508	0.96998
2992.40127	0.96980
2990.34746	0.96977
2988.29365	0.96951
2986.23984	0.96874
2984.18603	0.96792
2982.13222	0.96738
2980.07841	0.96696
2978.02460	0.96639
2975.97079	0.96552
2973.91698	0.96435
2971.86317	0.96283
2969.80936	0.96119
2967.75555	0.95964
2965.70174	0.95790
2963.64793	0.95573
2961.59412	0.95340
2959.54031	0.95115
2957.48650	0.94888
2955.43269	0.94650
2953.37888	0.94385
2951.32507	0.94066
2949.27126	0.93668
2947.21745	0.93156
2945.16364	0.92479
2943.10983	0.91598
2941.05602	0.90480
2939.00221	0.89095
2936.94840	0.87440
2934.89459	0.85516
2932.84078	0.83281
2930.78697	0.80677
2928.73316	0.77670
2926.67935	0.74183
2924.62554	0.70109
2922.57173	0.65480
2920.51792	0.60570
2918.46411	0.55939
2916.41030	0.52539
2914.35649	0.51453
2912.30268	0.52986
2910.24887	0.56251
2908.19506	0.59974
2906.14125	0.63378
2904.08744	0.66208
2902.03363	0.68468
2899.97982	0.70305
2897.92601	0.71887
2895.87220	0.73345
2893.81839	0.74786
2891.76458	0.76251
2889.71077	0.77723
2887.65696	0.79209
2885.60315	0.80710
2883.54934	0.82213
2881.49553	0.83693
2879.44172	0.85110
2877.38791	0.86422
2875.33410	0.87568
2873.28029	0.88456
2871.22648	0.89025
2869.17267	0.89276
2867.11886	0.89186
2865.06505	0.88682
2863.01124	0.87650
2860.95743	0.85913
2858.90362	0.83226
2856.84981	0.79265
2854.79600	0.73699
2852.74219	0.66731
2850.68838	0.59810
2848.63457	0.55554
2846.58076	0.55918
2844.52695	0.60330
2842.47314	0.66520
2840.41933	0.72544
2838.36552	0.77504
2836.31171	0.81273
2834.25790	0.84074
2832.20409	0.86197
2830.15028	0.87842
2828.09647	0.89128
2826.04266	0.90138
2823.98885	0.90936
2821.93504	0.91577
2819.88123	0.92107
2817.82742	0.92565
2815.77361	0.92975
2813.71980	0.93336
2811.66599	0.93631
2809.61218	0.93875
2807.55837	0.94103
2805.50456	0.94318
2803.45075	0.94503
2801.39693	0.94666
2799.34312	0.94832
2797.28931	0.94993
2795.23550	0.95131
2793.18169	0.95252
2791.12788	0.95372
2789.07407	0.95494
2787.02026	0.95616
2784.96645	0.95738
2782.91264	0.95848
2780.85883	0.95931
2778.80502	0.96006
2776.75121	0.96088
2774.69740	0.96164
2772.64359	0.96227
2770.58978	0.96280
2768.53597	0.96338
2766.48216	0.96398
2764.42835	0.96442
2762.37454	0.96482
2760.32073	0.96522
2758.26692	0.96563
2756.21311	0.96625
2754.15930	0.96676
2752.10549	0.96687
2750.05168	0.96685
2747.99787	0.96702
2745.94406	0.96737
2743.89025	0.96759
2741.83644	0.96744
2739.78263	0.96730
2737.72882	0.96748
2735.67501	0.96774
2733.62120	0.96802
2731.56739	0.96836
2729.51358	0.96869
2727.45977	0.96906
2725.40596	0.96939
2723.35215	0.96966
2721.29834	0.97002
2719.24453	0.97034
2717.19072	0.97046
2715.13691	0.97056
2713.08310	0.97067
2711.02929	0.97080
2708.97548	0.97112
2706.92167	0.97146
2704.86786	0.97147
2702.81405	0.97141
2700.76024	0.97158
2698.70643	0.97175
2696.65262	0.97180
2694.59881	0.97178
2692.54500	0.97173
2690.49119	0.97181
2688.43738	0.97204
2686.38357	0.97226
2684.32976	0.97231
2682.27595	0.97227
2680.22214	0.97228
2678.16833	0.97224
2676.11452	0.97215
2674.06071	0.97204
2672.00690	0.97183
2669.95309	0.97163
2667.89928	0.97160
2665.84547	0.97153
2663.79166	0.97133
2661.73785	0.97124
2659.68404	0.97124
2657.63023	0.97132
2655.57642	0.97151
2653.52261	0.97163
2651.46880	0.97152
2649.41499	0.97137
2647.36118	0.97148
2645.30737	0.97171
2643.25356	0.97182
2641.19975	0.97190
2639.14594	0.97198
2637.09213	0.97196
2635.03832	0.97192
2632.98451	0.97196
2630.93070	0.97213
2628.87689	0.97251
2626.82308	0.97299
2624.76927	0.97333
2622.71546	0.97353
2620.66165	0.97379
2618.60784	0.97427
2616.55403	0.97499
2614.50022	0.97558
2612.44641	0.97556
2610.39260	0.97525
2608.33879	0.97512
2606.28498	0.97516
2604.23117	0.97529
2602.17736	0.97551
2600.12355	0.97592
2598.06974	0.97644
2596.01593	0.97682
2593.96212	0.97689
2591.90831	0.97688
2589.85450	0.97704
2587.80069	0.97724
2585.74688	0.97728
2583.69307	0.97735
2581.63926	0.97759
2579.58545	0.97778
2577.53164	0.97804
2575.47783	0.97848
2573.42402	0.97856
2571.37021	0.97849
2569.31640	0.97872
2567.26259	0.97893
2565.20878	0.97897
2563.15497	0.97872
2561.10116	0.97841
2559.04735	0.97877
2556.99354	0.97923
2554.93973	0.97920
2552.88592	0.97920
2550.83211	0.97936
2548.77830	0.97931
2546.72449	0.97930
2544.67068	0.97961
2542.61687	0.97965
2540.56306	0.97924
2538.50925	0.97913
2536.45544	0.97933
2534.40163	0.97929
2532.34782	0.97940
2530.29401	0.97979
2528.24020	0.97985
2526.18639	0.97959
2524.13258	0.97954
2522.07877	0.97977
2520.02496	0.98007
2517.97115	0.98041
2515.91734	0.98052
2513.86353	0.98039
2511.80972	0.98055
2509.75591	0.98097
2507.70210	0.98137
2505.64828	0.98165
2503.59447	0.98166
2501.54066	0.98137
2499.48685	0.98100
2497.43304	0.98101
2495.37923	0.98137
2493.32542	0.98154
2491.27161	0.98144
2489.21780	0.98129
2487.16399	0.98119
2485.11018	0.98106
2483.05637	0.98096
2481.00256	0.98124
2478.94875	0.98150
2476.89494	0.98134
2474.84113	0.98129
2472.78732	0.98164
2470.73351	0.98222
2468.67970	0.98266
2466.62589	0.98270
2464.57208	0.98244
2462.51827	0.98231
2460.46446	0.98265
2458.41065	0.98293
2456.35684	0.98256
2454.30303	0.98185
2452.24922	0.98144
2450.19541	0.98155
2448.14160	0.98190
2446.08779	0.98242
2444.03398	0.98316
2441.98017	0.98333
2439.92636	0.98264
2437.87255	0.98227
2435.81874	0.98243
2433.76493	0.98255
2431.71112	0.98269
2429.65731	0.98269
2427.60350	0.98232
2425.54969	0.98183
2423.49588	0.98185
2421.44207	0.98227
2419.38826	0.98230
2417.33445	0.98226
2415.28064	0.98238
2413.22683	0.98235
2411.17302	0.98243
2409.11921	0.98296
2407.06540	0.98344
2405.01159	0.98340
2402.95778	0.98331
2400.90397	0.98333
2398.85016	0.98321
2396.79635	0.98298
2394.74254	0.98272
2392.68873	0.98254
2390.63492	0.98238
2388.58111	0.98241
2386.52730	0.98275
2384.47349	0.98304
2382.41968	0.98314
2380.36587	0.98302
2378.31206	0.98282
2376.25825	0.98295
2374.20444	0.98327
2372.15063	0.98319
2370.09682	0.98255
2368.04301	0.98222
2365.98920	0.98286
2363.93539	0.98366
2361.88158	0.98339
2359.82777	0.98212
2357.77396	0.98098
2355.72015	0.98043
2353.66634	0.98035
2351.61253	0.98070
2349.55872	0.98105
2347.50491	0.98097
2345.45110	0.98081
2343.39729	0.98131
2341.34348	0.98174
2339.28967	0.98134
2337.23586	0.98090
2335.18205	0.98117
2333.12824	0.98168
2331.07443	0.98157
2329.02062	0.98090
2326.96681	0.98000
2324.91300	0.97913
2322.85919	0.97869
2320.80538	0.97895
2318.75157	0.97976
2316.69776	0.98041
2314.64395	0.98073
2312.59014	0.98118
2310.53633	0.98140
2308.48252	0.98112
2306.42871	0.98105
2304.37490	0.98129
2302.32109	0.98110
2300.26728	0.98075
2298.21347	0.98086
2296.15966	0.98102
2294.10585	0.98103
2292.05204	0.98116
2289.99823	0.98138
2287.94442	0.98144
2285.89061	0.98115
2283.83680	0.98104
2281.78299	0.98168
2279.72918	0.98228
2277.67537	0.98209
2275.62156	0.98170
2273.56775	0.98126
2271.51394	0.98088
2269.46013	0.98133
2267.40632	0.98189
2265.35251	0.98172
2263.29870	0.98158
2261.24489	0.98204
2259.19108	0.98278
2257.13727	0.98350
2255.08346	0.98411
2253.02965	0.98403
2250.97584	0.98330
2248.92203	0.98287
2246.86822	0.98278
2244.81441	0.98238
2242.76060	0.98202
2240.70679	0.98234
2238.65298	0.98291
2236.59917	0.98301
2234.54536	0.98277
2232.49155	0.98312
2230.43774	0.98351
2228.38393	0.98312
2226.33012	0.98297
2224.27631	0.98354
2222.22250	0.98394
2220.16869	0.98353
2218.11488	0.98257
2216.06107	0.98229
2214.00726	0.98345
2211.95344	0.98452
2209.89963	0.98462
2207.84582	0.98425
2205.79201	0.98355
2203.73820	0.98345
2201.68439	0.98425
2199.63058	0.98441
2197.57677	0.98355
2195.52296	0.98286
2193.46915	0.98315
2191.41534	0.98402
2189.36153	0.98412
2187.30772	0.98348
2185.25391	0.98308
2183.20010	0.98310
2181.14629	0.98298
2179.09248	0.98256
2177.03867	0.98301
2174.98486	0.98462
2172.93105	0.98553
2170.87724	0.98452
2168.82343	0.98286
2166.76962	0.98157
2164.71581	0.97988
2162.66200	0.97837
2160.60819	0.98045
2158.55438	0.98632
2156.50057	0.98910
2154.44676	0.98763
2152.39295	0.98650
2150.33914	0.98677
2148.28533	0.98741
2146.23152	0.98713
2144.17771	0.98578
2142.12390	0.98518
2140.07009	0.98550
2138.01628	0.98585
2135.96247	0.98684
2133.90866	0.98805
2131.85485	0.98822
2129.80104	0.98759
2127.74723	0.98692
2125.69342	0.98666
2123.63961	0.98675
2121.58580	0.98618
2119.53199	0.98486
2117.47818	0.98423
2115.42437	0.98444
2113.37056	0.98458
2111.31675	0.98428
2109.26294	0.98399
2107.20913	0.98422
2105.15532	0.98449
2103.10151	0.98475
2101.04770	0.98515
2098.99389	0.98531
2096.94008	0.98535
2094.88627	0.98523
2092.83246	0.98490
2090.77865	0.98506
2088.72484	0.98555
2086.67103	0.98578
2084.61722	0.98575
2082.56341	0.98503
2080.50960	0.98391
2078.45579	0.98343
2076.40198	0.98375
2074.34817	0.98465
2072.29436	0.98534
2070.24055	0.98518
2068.18674	0.98472
2066.13293	0.98370
2064.07912	0.98220
2062.02531	0.98169
2059.97150	0.98220
2057.91769	0.98350
2055.86388	0.98520
2053.81007	0.98559
2051.75626	0.98444
2049.70245	0.98368
2047.64864	0.98457
2045.59483	0.98585
2043.54102	0.98585
2041.48721	0.98477
2039.43340	0.98355
2037.37959	0.98294
2035.32578	0.98339
2033.27197	0.98480
2031.21816	0.98611
2029.16435	0.98635
2027.11054	0.98515
2025.05673	0.98329
2023.00292	0.98333
2020.94911	0.98533
2018.89530	0.98708
2016.84149	0.98774
2014.78768	0.98729
2012.73387	0.98694
2010.68006	0.98739
2008.62625	0.98703
2006.57244	0.98531
2004.51863	0.98421
2002.46482	0.98458
2000.41101	0.98573
1998.35720	0.98725
1996.30339	0.98832
1994.24958	0.98804
1992.19577	0.98688
1990.14196	0.98538
1988.08815	0.98403
1986.03434	0.98426
1983.98053	0.98497
1981.92672	0.98450
1979.87291	0.98482
1977.81910	0.98610
1975.76529	0.98706
1973.71148	0.98826
1971.65767	0.98858
1969.60386	0.98804
1967.55005	0.98751
1965.49624	0.98657
1963.44243	0.98612
1961.38862	0.98686
1959.33481	0.98764
1957.28100	0.98731
1955.22719	0.98614
1953.17338	0.98516
1951.11957	0.98507
1949.06576	0.98546
1947.01195	0.98574
1944.95814	0.98603
1942.90433	0.98633
1940.85052	0.98624
1938.79671	0.98611
1936.74290	0.98617
1934.68909	0.98574
1932.63528	0.98528
1930.58147	0.98551
1928.52766	0.98535
1926.47385	0.98465
1924.42004	0.98448
1922.36623	0.98455
1920.31242	0.98431
1918.25861	0.98433
1916.20479	0.98472
1914.15098	0.98488
1912.09717	0.98467
1910.04336	0.98431
1907.98955	0.98433
1905.93574	0.98464
1903.88193	0.98475
1901.82812	0.98472
1899.77431	0.98437
1897.72050	0.98349
1895.66669	0.98297
1893.61288	0.98343
1891.55907	0.98366
1889.50526	0.98339
1887.45145	0.98344
1885.39764	0.98356
1883.34383	0.98376
1881.29002	0.98416
1879.23621	0.98427
1877.18240	0.98399
1875.12859	0.98367
1873.07478	0.98365
1871.02097	0.98395
1868.96716	0.98400
1866.91335	0.98370
1864.85954	0.98379
1862.80573	0.98427
1860.75192	0.98460
1858.69811	0.98455
1856.64430	0.98446
1854.59049	0.98473
1852.53668	0.98509
1850.48287	0.98514
1848.42906	0.98507
1846.37525	0.98497
1844.32144	0.98461
1842.26763	0.98424
1840.21382	0.98415
1838.16001	0.98425
1836.10620	0.98430
1834.05239	0.98428
1831.99858	0.98424
1829.94477	0.98411
1827.89096	0.98379
1825.83715	0.98330
1823.78334	0.98293
1821.72953	0.98291
1819.67572	0.98306
1817.62191	0.98328
1815.56810	0.98342
1813.51429	0.98317
1811.46048	0.98283
1809.40667	0.98266
1807.35286	0.98237
1805.29905	0.98195
1803.24524	0.98177
1801.19143	0.98164
1799.13762	0.98145
1797.08381	0.98143
1795.03000	0.98135
1792.97619	0.98094
1790.92238	0.98051
1788.86857	0.98036
1786.81476	0.98022
1784.76095	0.98023
1782.70714	0.98061
1780.65333	0.98098
1778.59952	0.98114
1776.54571	0.98125
1774.49190	0.98109
1772.43809	0.98061
1770.38428	0.98039
1768.33047	0.98052
1766.27666	0.98051
1764.22285	0.98019
1762.16904	0.97986
1760.11523	0.97976
1758.06142	0.97960
1756.00761	0.97912
1753.95380	0.97851
1751.89999	0.97784
1749.84618	0.97715
1747.79237	0.97658
1745.73856	0.97591
1743.68475	0.97498
1741.63094	0.97385
1739.57713	0.97281
1737.52332	0.97238
1735.46951	0.97241
1733.41570	0.97220
1731.36189	0.97185
1729.30808	0.97150
1727.25427	0.97112
1725.20046	0.97091
1723.14665	0.97065
1721.09284	0.97028
1719.03903	0.96971
1716.98522	0.96892
1714.93141	0.96866
1712.87760	0.96884
1710.82379	0.96887
1708.76998	0.96868
1706.71617	0.96834
1704.66236	0.96795
1702.60855	0.96747
1700.55474	0.96657
1698.50093	0.96539
1696.44712	0.96436
1694.39331	0.96352
1692.33950	0.96283
1690.28569	0.96169
1688.23188	0.96042
1686.17807	0.95961
1684.12426	0.95831
1682.07045	0.95677
1680.01664	0.95591
1677.96283	0.95518
1675.90902	0.95412
1673.85521	0.95301
1671.80140	0.95232
1669.74759	0.95135
1667.69378	0.95009
1665.63997	0.94913
1663.58616	0.94799
1661.53235	0.94664
1659.47854	0.94590
1657.42473	0.94585
1655.37092	0.94594
1653.31711	0.94507
1651.26330	0.94385
1649.20949	0.94370
1647.15568	0.94369
1645.10187	0.94372
1643.04806	0.94384
1640.99425	0.94391
1638.94044	0.94407
1636.88663	0.94423
1634.83282	0.94439
1632.77901	0.94487
1630.72520	0.94534
1628.67139	0.94563
1626.61758	0.94599
1624.56377	0.94643
1622.50996	0.94682
1620.45614	0.94749
1618.40233	0.94825
1616.34852	0.94877
1614.29471	0.94933
1612.24090	0.95003
1610.18709	0.95070
1608.13328	0.95135
1606.07947	0.95186
1604.02566	0.95212
1601.97185	0.95228
1599.91804	0.95260
1597.86423	0.95288
1595.81042	0.95294
1593.75661	0.95305
1591.70280	0.95336
1589.64899	0.95362
1587.59518	0.95370
1585.54137	0.95368
1583.48756	0.95361
1581.43375	0.95352
1579.37994	0.95346
1577.32613	0.95318
1575.27232	0.95252
1573.21851	0.95239
1571.16470	0.95239
1569.11089	0.95164
1567.05708	0.95078
1565.00327	0.95029
1562.94946	0.94996
1560.89565	0.94943
1558.84184	0.94779
1556.78803	0.94623
1554.73422	0.94517
1552.68041	0.94368
1550.62660	0.94211
1548.57279	0.94065
1546.51898	0.93917
1544.46517	0.93736
1542.41136	0.93528
1540.35755	0.93246
1538.30374	0.92976
1536.24993	0.92840
1534.19612	0.92662
1532.14231	0.92411
1530.08850	0.92243
1528.03469	0.92112
1525.98088	0.91947
1523.92707	0.91808
1521.87326	0.91642
1519.81945	0.91437
1517.76564	0.91261
1515.71183	0.91098
1513.65802	0.90990
1511.60421	0.90923
1509.55040	0.90859
1507.49659	0.90673
1505.44278	0.90388
1503.38897	0.90284
1501.33516	0.90222
1499.28135	0.90082
1497.22754	0.89875
1495.17373	0.89704
1493.11992	0.89620
1491.06611	0.89519
1489.01230	0.89332
1486.95849	0.89143
1484.90468	0.88993
1482.85087	0.88807
1480.79706	0.88443
1478.74325	0.87522
1476.68944	0.84937
1474.63563	0.79737
1472.58182	0.74344
1470.52801	0.73354
1468.47420	0.75049
1466.42039	0.76378
1464.36658	0.76701
1462.31277	0.77481
1460.25896	0.79707
1458.20515	0.82717
1456.15134	0.85109
1454.09753	0.86341
1452.04372	0.87228
1449.98991	0.87987
1447.93610	0.88592
1445.88229	0.89067
1443.82848	0.89450
1441.77467	0.89772
1439.72086	0.90036
1437.66705	0.90284
1435.61324	0.90546
1433.55943	0.90795
1431.50562	0.91053
1429.45181	0.91338
1427.39800	0.91631
1425.34419	0.91907
1423.29038	0.92150
1421.23657	0.92356
1419.18276	0.92568
1417.12895	0.92779
1415.07514	0.92960
1413.02133	0.93144
1410.96752	0.93361
1408.91371	0.93603
1406.85990	0.93832
1404.80609	0.94045
1402.75228	0.94239
1400.69847	0.94410
1398.64466	0.94560
1396.59085	0.94690
1394.53704	0.94816
1392.48323	0.94940
1390.42942	0.95031
1388.37561	0.95083
1386.32180	0.95102
1384.26799	0.95098
1382.21418	0.95066
1380.16037	0.94991
1378.10656	0.94922
1376.05275	0.94915
1373.99894	0.94936
1371.94513	0.94916
1369.89132	0.94872
1367.83751	0.94881
1365.78370	0.94982
1363.72989	0.95144
1361.67608	0.95313
1359.62227	0.95427
1357.56846	0.95496
1355.51465	0.95543
1353.46084	0.95570
1351.40703	0.95611
1349.35322	0.95689
1347.29941	0.95780
1345.24560	0.95845
1343.19179	0.95885
1341.13798	0.95927
1339.08417	0.95984
1337.03036	0.96039
1334.97655	0.96080
1332.92274	0.96126
1330.86893	0.96162
1328.81512	0.96165
1326.76130	0.96161
1324.70749	0.96156
1322.65368	0.96139
1320.59987	0.96115
1318.54606	0.96089
1316.49225	0.96064
1314.43844	0.96027
1312.38463	0.95984
1310.33082	0.95940
1308.27701	0.95898
1306.22320	0.95878
1304.16939	0.95874
1302.11558	0.95877
1300.06177	0.95887
1298.00796	0.95898
1295.95415	0.95913
1293.90034	0.95935
1291.84653	0.95950
1289.79272	0.95954
1287.73891	0.95959
1285.68510	0.95970
1283.63129	0.95972
1281.57748	0.95944
1279.52367	0.95898
1277.46986	0.95846
1275.41605	0.95807
1273.36224	0.95791
1271.30843	0.95770
1269.25462	0.95720
1267.20081	0.95660
1265.14700	0.95595
1263.09319	0.95527
1261.03938	0.95469
1258.98557	0.95434
1256.93176	0.95423
1254.87795	0.95416
1252.82414	0.95413
1250.77033	0.95409
1248.71652	0.95385
1246.66271	0.95350
1244.60890	0.95318
1242.55509	0.95290
1240.50128	0.95251
1238.44747	0.95204
1236.39366	0.95173
1234.33985	0.95161
1232.28604	0.95151
1230.23223	0.95135
1228.17842	0.95104
1226.12461	0.95052
1224.07080	0.94995
1222.01699	0.94951
1219.96318	0.94924
1217.90937	0.94894
1215.85556	0.94826
1213.80175	0.94736
1211.74794	0.94670
1209.69413	0.94606
1207.64032	0.94524
1205.58651	0.94445
1203.53270	0.94375
1201.47889	0.94307
1199.42508	0.94238
1197.37127	0.94169
1195.31746	0.94093
1193.26365	0.94000
1191.20984	0.93908
1189.15603	0.93821
1187.10222	0.93703
1185.04841	0.93545
1182.99460	0.93387
1180.94079	0.93231
1178.88698	0.93056
1176.83317	0.92887
1174.77936	0.92742
1172.72555	0.92583
1170.67174	0.92403
1168.61793	0.92232
1166.56412	0.92086
1164.51031	0.91955
1162.45650	0.91837
1160.40269	0.91733
1158.34888	0.91622
1156.29507	0.91480
1154.24126	0.91320
1152.18745	0.91160
1150.13364	0.91003
1148.07983	0.90832
1146.02602	0.90660
1143.97221	0.90490
1141.91840	0.90307
1139.86459	0.90115
1137.81078	0.89910
1135.75697	0.89666
1133.70316	0.89383
1131.64935	0.89099
1129.59554	0.88818
1127.54173	0.88526
1125.48792	0.88220
1123.43411	0.87898
1121.38030	0.87578
1119.32649	0.87283
1117.27268	0.87004
1115.21887	0.86724
1113.16506	0.86464
1111.11125	0.86234
1109.05744	0.85992
1107.00363	0.85727
1104.94982	0.85476
1102.89601	0.85240
1100.84220	0.85001
1098.78839	0.84767
1096.73458	0.84544
1094.68077	0.84330
1092.62696	0.84135
1090.57315	0.83962
1088.51934	0.83792
1086.46553	0.83621
1084.41172	0.83450
1082.35791	0.83297
1080.30410	0.83202
1078.25029	0.83143
1076.19648	0.83052
1074.14267	0.82912
1072.08886	0.82769
1070.03505	0.82645
1067.98124	0.82512
1065.92743	0.82353
1063.87362	0.82165
1061.81981	0.81931
1059.76600	0.81673
1057.71219	0.81423
1055.65838	0.81142
1053.60457	0.80783
1051.55076	0.80381
1049.49695	0.80015
1047.44314	0.79686
1045.38933	0.79374
1043.33552	0.79103
1041.28171	0.78891
1039.22790	0.78718
1037.17409	0.78591
1035.12028	0.78534
1033.06647	0.78554
1031.01265	0.78655
1028.95884	0.78850
1026.90503	0.79118
1024.85122	0.79413
1022.79741	0.79679
1020.74360	0.79876
1018.68979	0.79997
1016.63598	0.80070
1014.58217	0.80166
1012.52836	0.80323
1010.47455	0.80535
1008.42074	0.80820
1006.36693	0.81219
1004.31312	0.81721
1002.25931	0.82280
1000.20550	0.82864
998.15169	0.83454
996.09788	0.84048
994.04407	0.84647
991.99026	0.85243
989.93645	0.85826
987.88264	0.86389
985.82883	0.86925
983.77502	0.87431
981.72121	0.87903
979.66740	0.88350
977.61359	0.88796
975.55978	0.89224
973.50597	0.89596
971.45216	0.89923
969.39835	0.90241
967.34454	0.90524
965.29073	0.90760
963.23692	0.90986
961.18311	0.91198
959.12930	0.91387
957.07549	0.91549
955.02168	0.91678
952.96787	0.91800
950.91406	0.91901
948.86025	0.91945
946.80644	0.91978
944.75263	0.92022
942.69882	0.92030
940.64501	0.92013
938.59120	0.92005
936.53739	0.91988
934.48358	0.91974
932.42977	0.91972
930.37596	0.91958
928.32215	0.91910
926.26834	0.91829
924.21453	0.91720
922.16072	0.91565
920.10691	0.91364
918.05310	0.91163
915.99929	0.90999
913.94548	0.90879
911.89167	0.90816
909.83786	0.90849
907.78405	0.91044
905.73024	0.91402
903.67643	0.91812
901.62262	0.92176
899.56881	0.92488
897.51500	0.92778
895.46119	0.93034
893.40738	0.93239
891.35357	0.93405
889.29976	0.93504
887.24595	0.93509
885.19214	0.93424
883.13833	0.93251
881.08452	0.92989
879.03071	0.92695
876.97690	0.92517
874.92309	0.92549
872.86928	0.92778
870.81547	0.93108
868.76166	0.93329
866.70785	0.93263
864.65404	0.92981
862.60023	0.92683
860.54642	0.92446
858.49261	0.92286
856.43880	0.92323
854.38499	0.92728
852.33118	0.93412
850.27737	0.93990
848.22356	0.94243
846.16975	0.94268
844.11594	0.94225
842.06213	0.94242
840.00832	0.94316
837.95451	0.94361
835.90070	0.94407
833.84689	0.94441
831.79308	0.94390
829.73927	0.94298
827.68546	0.94227
825.63165	0.94180
823.57784	0.94129
821.52403	0.94067
819.47022	0.94002
817.41641	0.93943
815.36260	0.93877
813.30879	0.93754
811.25498	0.93604
809.20117	0.93498
807.14736	0.93430
805.09355	0.93345
803.03974	0.93198
800.98593	0.93040
798.93212	0.92987
796.87831	0.93048
794.82450	0.93143
792.77069	0.93199
790.71688	0.93185
788.66307	0.93118
786.60926	0.93044
784.55545	0.92992
782.50164	0.92958
780.44783	0.92964
778.39402	0.93011
776.34021	0.93065
774.28640	0.93116
772.23259	0.93136
770.17878	0.93067
768.12497	0.92929
766.07116	0.92841
764.01735	0.92847
761.96354	0.92824
759.90973	0.92687
757.85592	0.92518
755.80211	0.92411
753.74830	0.92364
751.69449	0.92332
749.64068	0.92281
747.58687	0.92210
745.53306	0.92148
743.47925	0.92092
741.42544	0.91991
739.37163	0.91809
737.31781	0.91429
735.26400	0.90360
733.21019	0.88013
731.15638	0.85337
729.10257	0.84393
727.04876	0.84864
724.99495	0.84513
722.94114	0.82094
720.88733	0.77799
718.83352	0.73801
716.77971	0.72999
714.72590	0.75929
712.67209	0.80510
710.61828	0.84248
708.56447	0.86420
706.51066	0.87559
704.45685	0.88120
702.40304	0.88295
700.34923	0.88298
698.29542	0.88361
696.24161	0.88489
694.18780	0.88593
692.13399	0.88665
690.08018	0.88668
688.02637	0.88657
685.97256	0.88730
683.91875	0.88845
681.86494	0.88966
679.81113	0.89043
677.75732	0.89000
675.70351	0.88900
673.64970	0.88845
671.59589	0.88843
669.54208	0.88865
667.48827	0.88915
665.43446	0.88961
663.38065	0.88944
661.32684	0.88884
659.27303	0.88830
657.21922	0.88828
655.16541	0.88873
653.11160	0.88892
651.05779	0.88911
649.00398	0.88937
646.95017	0.88917
644.89636	0.88918
642.84255	0.88926
640.78874	0.88815
638.73493	0.88625
636.68112	0.88525
634.62731	0.88513
632.57350	0.88459
630.51969	0.88344
628.46588	0.88240
626.41207	0.88160
624.35826	0.88065
622.30445	0.87980
620.25064	0.87882
618.19683	0.87748
616.14302	0.87678
614.08921	0.87649
612.03540	0.87563
609.98159	0.87435
607.92778	0.87304
605.87397	0.87201
603.82016	0.87082
601.76635	0.86931
599.71254	0.86820
597.65873	0.86722
595.60492	0.86644
593.55111	0.86639
591.49730	0.86622
589.44349	0.86503
587.38968	0.86337
585.33587	0.86196
583.28206	0.86052
581.22825	0.85873
579.17444	0.85716
577.12063	0.85579
575.06682	0.85407
573.01301	0.85247
570.95920	0.85156
568.90539	0.85100
566.85158	0.85015
564.79777	0.84878
562.74396	0.84732
560.69015	0.84567
558.63634	0.84373
556.58253	0.84191
554.52872	0.83979
552.47491	0.83761
550.42110	0.83648
548.36729	0.83544
546.31348	0.83396
544.25967	0.83198
542.20586	0.82892
540.15205	0.82655
538.09824	0.82604
536.04443	0.82649
533.99062	0.82760
531.93681	0.82855
529.88300	0.82935
527.82919	0.83223
525.77538	0.83629
523.72157	0.83851
521.66776	0.84002
519.61395	0.84221
517.56014	0.84436
515.50633	0.84751
513.45252	0.85154
511.39871	0.85339
509.34490	0.85279
507.29109	0.85285
505.23728	0.85469
503.18347	0.85701
501.12966	0.85875
499.07585	0.85917
497.02204	0.85886
494.96823	0.85866
492.91442	0.85739
490.86061	0.85390
488.80680	0.84943
486.75299	0.84623
484.69918	0.84280
482.64537	0.83587
480.59156	0.82743
478.53775	0.82038
476.48394	0.81364
474.43013	0.80640
472.37632	0.79943
470.32251	0.79438
468.26870	0.79313
466.21489	0.79551
464.16108	0.80005
462.10727	0.80590
460.05346	0.81291
457.99965	0.82037
455.94584	0.82568
453.89203	0.82781
451.83822	0.82911
449.78441	0.83174
447.73060	0.83444
445.67679	0.83569
443.62298	0.83633
441.56916	0.83684
439.51535	0.83816
437.46154	0.84047
435.40773	0.84089
433.35392	0.83909
431.30011	0.83831
429.24630	0.83882
427.19249	0.83976
425.13868	0.84106
423.08487	0.84181
421.03106	0.84336
418.97725	0.84727
416.92344	0.84976
414.86963	0.85053
412.81582	0.85270
410.76201	0.85712
408.70820	0.86316
406.65439	0.86925
404.60058	0.87420
402.54677	0.87542
400.49296	0.87311
398.43915	0.87359
