3996.70104	0.96787
3994.64724	0.96850
3992.59344	0.96854
3990.53964	0.96855
3988.48583	0.96859
3986.43203	0.96877
3984.37823	0.96914
3982.32442	0.96925
3980.27062	0.96908
3978.21682	0.96855
3976.16301	0.96806
3974.10921	0.96807
3972.05541	0.96829
3970.00160	0.96837
3967.94780	0.96841
3965.89400	0.96859
3963.84019	0.96849
3961.78639	0.96803
3959.73259	0.96808
3957.67878	0.96878
3955.62498	0.96921
3953.57118	0.96901
3951.51737	0.96847
3949.46357	0.96797
3947.40977	0.96795
3945.35596	0.96841
3943.30216	0.96866
3941.24836	0.96839
3939.19455	0.96832
3937.14075	0.96841
3935.08695	0.96826
3933.03315	0.96824
3930.97934	0.96871
3928.92554	0.96908
3926.87174	0.96874
3924.81793	0.96842
3922.76413	0.96857
3920.71033	0.96836
3918.65652	0.96783
3916.60272	0.96786
3914.54892	0.96826
3912.49511	0.96831
3910.44131	0.96818
3908.38751	0.96817
3906.33370	0.96829
3904.27990	0.96859
3902.22610	0.96897
3900.17229	0.96921
3898.11849	0.96912
3896.06469	0.96878
3894.01088	0.96876
3891.95708	0.96909
3889.90328	0.96910
3887.84947	0.96873
3885.79567	0.96797
3883.74187	0.96748
3881.68807	0.96821
3879.63426	0.96935
3877.58046	0.96973
3875.52666	0.96955
3873.47285	0.96924
3871.41905	0.96940
3869.36525	0.96997
3867.31144	0.96981
3865.25764	0.96876
3863.20384	0.96807
3861.15003	0.96884
3859.09623	0.96986
3857.04243	0.97002
3854.98862	0.96980
3852.93482	0.96969
3850.88102	0.96937
3848.82721	0.96937
3846.77341	0.96968
3844.71961	0.96965
3842.66580	0.96973
3840.61200	0.97039
3838.55820	0.97084
3836.50439	0.97066
3834.45059	0.97030
3832.39679	0.97016
3830.34298	0.97021
3828.28918	0.97000
3826.23538	0.96922
3824.18158	0.96860
3822.12777	0.96894
3820.07397	0.97001
3818.02017	0.97065
3815.96636	0.97081
3813.91256	0.97067
3811.85876	0.97025
3809.80495	0.96971
3807.75115	0.96923
3805.69735	0.96923
3803.64354	0.96951
3801.58974	0.96945
3799.53594	0.96920
3797.48213	0.96928
3795.42833	0.96980
3793.37453	0.97039
3791.32072	0.97065
3789.26692	0.97045
3787.21312	0.97009
3785.15931	0.97008
3783.10551	0.96999
3781.05171	0.96981
3778.99790	0.97048
3776.94410	0.97128
3774.89030	0.97110
3772.83650	0.97050
3770.78269	0.97016
3768.72889	0.97021
3766.67509	0.97044
3764.62128	0.97069
3762.56748	0.97059
3760.51368	0.97019
3758.45987	0.97035
3756.40607	0.97066
3754.35227	0.97003
3752.29846	0.96916
3750.24466	0.96898
3748.19086	0.96908
3746.13705	0.96878
3744.08325	0.96871
3742.02945	0.96962
3739.97564	0.97039
3737.92184	0.97056
3735.86804	0.97034
3733.81423	0.97009
3731.76043	0.96964
3729.70663	0.96921
3727.65282	0.96896
3725.59902	0.96851
3723.54522	0.96801
3721.49141	0.96747
3719.43761	0.96602
3717.38381	0.96393
3715.33001	0.96205
3713.27620	0.95998
3711.22240	0.95626
3709.16860	0.95133
3707.11479	0.94691
3705.06099	0.94280
3703.00719	0.93770
3700.95338	0.93105
3698.89958	0.92534
3696.84578	0.92254
3694.79197	0.92255
3692.73817	0.92428
3690.68437	0.92745
3688.63056	0.93235
3686.57676	0.93653
3684.52296	0.93915
3682.46915	0.94066
3680.41535	0.94123
3678.36155	0.94157
3676.30774	0.94161
3674.25394	0.94154
3672.20014	0.94185
3670.14633	0.94109
3668.09253	0.93906
3666.03873	0.93758
3663.98492	0.93670
3661.93112	0.93617
3659.87732	0.93558
3657.82352	0.93407
3655.76971	0.93170
3653.71591	0.93004
3651.66211	0.92928
3649.60830	0.92874
3647.55450	0.92844
3645.50070	0.92824
3643.44689	0.92800
3641.39309	0.92760
3639.33929	0.92677
3637.28548	0.92560
3635.23168	0.92408
3633.17788	0.92232
3631.12407	0.92097
3629.07027	0.91892
3627.01647	0.91571
3624.96266	0.91363
3622.90886	0.91246
3620.85506	0.91132
3618.80125	0.91045
3616.74745	0.91123
3614.69365	0.91270
3612.63984	0.91346
3610.58604	0.91387
3608.53224	0.91458
3606.47844	0.91487
3604.42463	0.91455
3602.37083	0.91460
3600.31703	0.91492
3598.26322	0.91469
3596.20942	0.91387
3594.15562	0.91310
3592.10181	0.91281
3590.04801	0.91272
3587.99421	0.91233
3585.94040	0.91164
3583.88660	0.91129
3581.83280	0.91098
3579.77899	0.91021
3577.72519	0.90901
3575.67139	0.90785
3573.61758	0.90692
3571.56378	0.90612
3569.50998	0.90533
3567.45617	0.90419
3565.40237	0.90267
3563.34857	0.90114
3561.29476	0.90009
3559.24096	0.90016
3557.18716	0.90048
3555.13335	0.89968
3553.07955	0.89784
3551.02575	0.89637
3548.97195	0.89598
3546.91814	0.89594
3544.86434	0.89534
3542.81054	0.89379
3540.75673	0.89187
3538.70293	0.89041
3536.64913	0.88962
3534.59532	0.88902
3532.54152	0.88821
3530.48772	0.88750
3528.43391	0.88706
3526.38011	0.88638
3524.32631	0.88523
3522.27250	0.88374
3520.21870	0.88208
3518.16490	0.88027
3516.11109	0.87859
3514.05729	0.87790
3512.00349	0.87803
3509.94968	0.87748
3507.89588	0.87616
3505.84208	0.87499
3503.78827	0.87386
3501.73447	0.87268
3499.68067	0.87143
3497.62687	0.87019
3495.57306	0.86942
3493.51926	0.86870
3491.46546	0.86764
3489.41165	0.86684
3487.35785	0.86608
3485.30405	0.86493
3483.25024	0.86377
3481.19644	0.86272
3479.14264	0.86184
3477.08883	0.86122
3475.03503	0.86056
3472.98123	0.85953
3470.92742	0.85837
3468.87362	0.85733
3466.81982	0.85612
3464.76601	0.85493
3462.71221	0.85401
3460.65841	0.85278
3458.60460	0.85120
3456.55080	0.84994
3454.49700	0.84898
3452.44319	0.84793
3450.38939	0.84690
3448.33559	0.84592
3446.28178	0.84479
3444.22798	0.84366
3442.17418	0.84260
3440.12038	0.84145
3438.06657	0.84033
3436.01277	0.83949
3433.95897	0.83863
3431.90516	0.83755
3429.85136	0.83649
3427.79756	0.83537
3425.74375	0.83405
3423.68995	0.83277
3421.63615	0.83151
3419.58234	0.82996
3417.52854	0.82858
3415.47474	0.82783
3413.42093	0.82743
3411.36713	0.82696
3409.31333	0.82625
3407.25952	0.82530
3405.20572	0.82410
3403.15192	0.82283
3401.09811	0.82186
3399.04431	0.82137
3396.99051	0.82096
3394.93670	0.82022
3392.88290	0.81952
3390.82910	0.81895
3388.77529	0.81807
3386.72149	0.81718
3384.66769	0.81681
3382.61389	0.81667
3380.56008	0.81647
3378.50628	0.81604
3376.45248	0.81547
3374.39867	0.81508
3372.34487	0.81477
3370.29107	0.81419
3368.23726	0.81355
3366.18346	0.81310
3364.12966	0.81271
3362.07585	0.81248
3360.02205	0.81195
3357.96825	0.81115
3355.91444	0.81110
3353.86064	0.81168
3351.80684	0.81195
3349.75303	0.81205
3347.69923	0.81232
3345.64543	0.81227
3343.59162	0.81151
3341.53782	0.81057
3339.48402	0.81037
3337.43021	0.81091
3335.37641	0.81122
3333.32261	0.81105
3331.26881	0.81112
3329.21500	0.81126
3327.16120	0.81110
3325.10740	0.81109
3323.05359	0.81140
3320.99979	0.81174
3318.94599	0.81166
3316.89218	0.81136
3314.83838	0.81142
3312.78458	0.81157
3310.73077	0.81168
3308.67697	0.81185
3306.62317	0.81185
3304.56936	0.81177
3302.51556	0.81172
3300.46176	0.81194
3298.40795	0.81254
3296.35415	0.81279
3294.30035	0.81248
3292.24654	0.81246
3290.19274	0.81301
3288.13894	0.81354
3286.08513	0.81354
3284.03133	0.81333
3281.97753	0.81350
3279.92372	0.81386
3277.86992	0.81402
3275.81612	0.81407
3273.76232	0.81414
3271.70851	0.81428
3269.65471	0.81477
3267.60091	0.81546
3265.54710	0.81589
3263.49330	0.81620
3261.43950	0.81673
3259.38569	0.81738
3257.33189	0.81783
3255.27809	0.81804
3253.22428	0.81819
3251.17048	0.81852
3249.11668	0.81918
3247.06287	0.81971
3245.00907	0.81997
3242.95527	0.82071
3240.90146	0.82174
3238.84766	0.82247
3236.79386	0.82318
3234.74005	0.82373
3232.68625	0.82403
3230.63245	0.82436
3228.57864	0.82466
3226.52484	0.82542
3224.47104	0.82684
3222.41724	0.82799
3220.36343	0.82855
3218.30963	0.82909
3216.25583	0.82973
3214.20202	0.83031
3212.14822	0.83095
3210.09442	0.83169
3208.04061	0.83275
3205.98681	0.83396
3203.93301	0.83488
3201.87920	0.83567
3199.82540	0.83650
3197.77160	0.83723
3195.71779	0.83817
3193.66399	0.83946
3191.61019	0.84079
3189.55638	0.84198
3187.50258	0.84288
3185.44878	0.84357
3183.39497	0.84435
3181.34117	0.84519
3179.28737	0.84625
3177.23356	0.84755
3175.17976	0.84882
3173.12596	0.85020
3171.07215	0.85154
3169.01835	0.85241
3166.96455	0.85338
3164.91075	0.85494
3162.85694	0.85666
3160.80314	0.85781
3158.74934	0.85839
3156.69553	0.85947
3154.64173	0.86126
3152.58793	0.86267
3150.53412	0.86348
3148.48032	0.86451
3146.42652	0.86588
3144.37271	0.86693
3142.31891	0.86765
3140.26511	0.86870
3138.21130	0.87008
3136.15750	0.87116
3134.10370	0.87190
3132.04989	0.87266
3129.99609	0.87324
3127.94229	0.87392
3125.88848	0.87502
3123.83468	0.87612
3121.78088	0.87720
3119.72707	0.87860
3117.67327	0.87995
3115.61947	0.88081
3113.56566	0.88136
3111.51186	0.88208
3109.45806	0.88310
3107.40426	0.88405
3105.35045	0.88488
3103.29665	0.88593
3101.24285	0.88715
3099.18904	0.88811
3097.13524	0.88879
3095.08144	0.88951
3093.02763	0.89029
3090.97383	0.89096
3088.92003	0.89158
3086.86622	0.89228
3084.81242	0.89308
3082.75862	0.89391
3080.70481	0.89464
3078.65101	0.89551
3076.59721	0.89661
3074.54340	0.89733
3072.48960	0.89768
3070.43580	0.89832
3068.38199	0.89951
3066.32819	0.90084
3064.27439	0.90172
3062.22058	0.90230
3060.16678	0.90299
3058.11298	0.90372
3056.05918	0.90439
3054.00537	0.90493
3051.95157	0.90559
3049.89777	0.90666
3047.84396	0.90781
3045.79016	0.90857
3043.73636	0.90886
3041.68255	0.90911
3039.62875	0.90985
3037.57495	0.91115
3035.52114	0.91238
3033.46734	0.91313
3031.41354	0.91382
3029.35973	0.91475
3027.30593	0.91556
3025.25213	0.91595
3023.19832	0.91627
3021.14452	0.91678
3019.09072	0.91725
3017.03691	0.91781
3014.98311	0.91865
3012.92931	0.91939
3010.87550	0.91986
3008.82170	0.92035
3006.76790	0.92081
3004.71409	0.92089
3002.66029	0.92076
3000.60649	0.92097
2998.55269	0.92153
2996.49888	0.92171
2994.44508	0.92144
2992.39128	0.92147
2990.33747	0.92173
2988.28367	0.92161
2986.22987	0.92136
2984.17606	0.92163
2982.12226	0.92197
2980.06846	0.92152
2978.01465	0.92073
2975.96085	0.92020
2973.90705	0.91953
2971.85324	0.91864
2969.79944	0.91774
2967.74564	0.91657
2965.69183	0.91501
2963.63803	0.91326
2961.58423	0.91166
2959.53042	0.91038
2957.47662	0.90915
2955.42282	0.90777
2953.36901	0.90675
2951.31521	0.90642
2949.26141	0.90589
2947.20761	0.90452
2945.15380	0.90222
2943.10000	0.89889
2941.04620	0.89479
2938.99239	0.88992
2936.93859	0.88383
2934.88479	0.87645
2932.83098	0.86815
2930.77718	0.85889
2928.72338	0.84806
2926.66957	0.83495
2924.61577	0.81930
2922.56197	0.80167
2920.50816	0.78336
2918.45436	0.76668
2916.40056	0.75532
2914.34675	0.75327
2912.29295	0.76158
2910.23915	0.77637
2908.18534	0.79222
2906.13154	0.80608
2904.07774	0.81723
2902.02393	0.82592
2899.97013	0.83275
2897.91633	0.83873
2895.86252	0.84446
2893.80872	0.84989
2891.75492	0.85524
2889.70112	0.86070
2887.64731	0.86620
2885.59351	0.87200
2883.53971	0.87784
2881.48590	0.88315
2879.43210	0.88811
2877.37830	0.89258
2875.32449	0.89617
2873.27069	0.89907
2871.21689	0.90174
2869.16308	0.90374
2867.10928	0.90420
2865.05548	0.90328
2863.00167	0.90066
2860.94787	0.89522
2858.89407	0.88627
2856.84026	0.87303
2854.78646	0.85398
2852.73266	0.82895
2850.67885	0.80279
2848.62505	0.78566
2846.57125	0.78571
2844.51744	0.80131
2842.46364	0.82384
2840.40984	0.84575
2838.35603	0.86362
2836.30223	0.87727
2834.24843	0.88780
2832.19463	0.89584
2830.14082	0.90214
2828.08702	0.90746
2826.03322	0.91181
2823.97941	0.91524
2821.92561	0.91812
2819.87181	0.92076
2817.81800	0.92301
2815.76420	0.92461
2813.71040	0.92593
2811.65659	0.92748
2809.60279	0.92915
2807.54899	0.93039
2805.49518	0.93118
2803.44138	0.93197
2801.38758	0.93313
2799.33377	0.93463
2797.27997	0.93588
2795.22617	0.93655
2793.17236	0.93710
2791.11856	0.93782
2789.06476	0.93860
2787.01095	0.93931
2784.95715	0.93994
2782.90335	0.94050
2780.84955	0.94115
2778.79574	0.94192
2776.74194	0.94252
2774.68814	0.94294
2772.63433	0.94318
2770.58053	0.94343
2768.52673	0.94385
2766.47292	0.94408
2764.41912	0.94432
2762.36532	0.94480
2760.31151	0.94511
2758.25771	0.94503
2756.20391	0.94511
2754.15010	0.94562
2752.09630	0.94614
2750.04250	0.94638
2747.98869	0.94635
2745.93489	0.94653
2743.88109	0.94718
2741.82728	0.94750
2739.77348	0.94712
2737.71968	0.94690
2735.66587	0.94733
2733.61207	0.94786
2731.55827	0.94801
2729.50446	0.94812
2727.45066	0.94842
2725.39686	0.94880
2723.34306	0.94915
2721.28925	0.94956
2719.23545	0.95001
2717.18165	0.95032
2715.12784	0.95041
2713.07404	0.95015
2711.02024	0.94999
2708.96643	0.95025
2706.91263	0.95044
2704.85883	0.95053
2702.80502	0.95076
2700.75122	0.95121
2698.69742	0.95182
2696.64361	0.95221
2694.58981	0.95201
2692.53601	0.95159
2690.48220	0.95178
2688.42840	0.95240
2686.37460	0.95259
2684.32079	0.95243
2682.26699	0.95250
2680.21319	0.95257
2678.15938	0.95230
2676.10558	0.95210
2674.05178	0.95232
2671.99797	0.95250
2669.94417	0.95235
2667.89037	0.95237
2665.83657	0.95254
2663.78276	0.95248
2661.72896	0.95233
2659.67516	0.95238
2657.62135	0.95282
2655.56755	0.95327
2653.51375	0.95331
2651.45994	0.95327
2649.40614	0.95338
2647.35234	0.95349
2645.29853	0.95357
2643.24473	0.95372
2641.19093	0.95397
2639.13712	0.95421
2637.08332	0.95424
2635.02952	0.95435
2632.97571	0.95490
2630.92191	0.95518
2628.86811	0.95484
2626.81430	0.95471
2624.76050	0.95507
2622.70670	0.95552
2620.65289	0.95583
2618.59909	0.95598
2616.54529	0.95607
2614.49149	0.95620
2612.43768	0.95643
2610.38388	0.95671
2608.33008	0.95727
2606.27627	0.95799
2604.22247	0.95815
2602.16867	0.95797
2600.11486	0.95788
2598.06106	0.95749
2596.00726	0.95707
2593.95345	0.95701
2591.89965	0.95707
2589.84585	0.95735
2587.79204	0.95757
2585.73824	0.95764
2583.68444	0.95819
2581.63063	0.95864
2579.57683	0.95840
2577.52303	0.95853
2575.46922	0.95899
2573.41542	0.95880
2571.36162	0.95835
2569.30781	0.95813
2567.25401	0.95841
2565.20021	0.95957
2563.14640	0.96044
2561.09260	0.96015
2559.03880	0.95988
2556.98500	0.96005
2554.93119	0.96004
2552.87739	0.95969
2550.82359	0.95945
2548.76978	0.95967
2546.71598	0.96003
2544.66218	0.96016
2542.60837	0.96013
2540.55457	0.96012
2538.50077	0.96005
2536.44696	0.96014
2534.39316	0.96064
2532.33936	0.96104
2530.28555	0.96086
2528.23175	0.96065
2526.17795	0.96093
2524.12414	0.96135
2522.07034	0.96151
2520.01654	0.96137
2517.96273	0.96114
2515.90893	0.96077
2513.85513	0.96049
2511.80132	0.96074
2509.74752	0.96139
2507.69372	0.96185
2505.63992	0.96167
2503.58611	0.96114
2501.53231	0.96083
2499.47851	0.96087
2497.42470	0.96095
2495.37090	0.96069
2493.31710	0.96029
2491.26329	0.96046
2489.20949	0.96085
2487.15569	0.96081
2485.10188	0.96070
2483.04808	0.96057
2480.99428	0.96042
2478.94047	0.96069
2476.88667	0.96145
2474.83287	0.96227
2472.77906	0.96249
2470.72526	0.96201
2468.67146	0.96138
2466.61765	0.96103
2464.56385	0.96093
2462.51005	0.96106
2460.45624	0.96132
2458.40244	0.96156
2456.34864	0.96198
2454.29483	0.96217
2452.24103	0.96177
2450.18723	0.96156
2448.13343	0.96150
2446.07962	0.96140
2444.02582	0.96177
2441.97202	0.96223
2439.91821	0.96212
2437.86441	0.96156
2435.81061	0.96118
2433.75680	0.96111
2431.70300	0.96127
2429.64920	0.96174
2427.59539	0.96208
2425.54159	0.96214
2423.48779	0.96229
2421.43398	0.96199
2419.38018	0.96146
2417.32638	0.96172
2415.27257	0.96225
2413.21877	0.96203
2411.16497	0.96126
2409.11116	0.96108
2407.05736	0.96181
2405.00356	0.96239
2402.94975	0.96208
2400.89595	0.96137
2398.84215	0.96090
2396.78834	0.96119
2394.73454	0.96224
2392.68074	0.96286
2390.62694	0.96240
2388.57313	0.96188
2386.51933	0.96196
2384.46553	0.96181
2382.41172	0.96104
2380.35792	0.96015
2378.30412	0.95970
2376.25031	0.95998
2374.19651	0.96044
2372.14271	0.95998
2370.08890	0.95877
2368.03510	0.95860
2365.98130	0.95867
2363.92749	0.95701
2361.87369	0.95519
2359.81989	0.95508
2357.76608	0.95559
2355.71228	0.95605
2353.65848	0.95774
2351.60467	0.95967
2349.55087	0.96023
2347.49707	0.96009
2345.44326	0.96032
2343.38946	0.96052
2341.33566	0.95991
2339.28186	0.95921
2337.22805	0.95876
2335.17425	0.95897
2333.12045	0.95974
2331.06664	0.95948
2329.01284	0.95854
2326.95904	0.95829
2324.90523	0.95824
2322.85143	0.95848
2320.79763	0.95941
2318.74382	0.96012
2316.69002	0.96014
2314.63622	0.95945
2312.58241	0.95861
2310.52861	0.95863
2308.47481	0.95948
2306.42100	0.96036
2304.36720	0.96037
2302.31340	0.95969
2300.25959	0.95923
2298.20579	0.95912
2296.15199	0.95927
2294.09818	0.95936
2292.04438	0.95905
2289.99058	0.95877
2287.93677	0.95875
2285.88297	0.95885
2283.82917	0.95919
2281.77537	0.95957
2279.72156	0.95946
2277.66776	0.95892
2275.61396	0.95883
2273.56015	0.95959
2271.50635	0.96072
2269.45255	0.96125
2267.39874	0.96080
2265.34494	0.96050
2263.29114	0.96048
2261.23733	0.96043
2259.18353	0.96095
2257.12973	0.96114
2255.07592	0.96045
2253.02212	0.95999
2250.96832	0.96023
2248.91451	0.96071
2246.86071	0.96076
2244.80691	0.96008
2242.75310	0.95927
2240.69930	0.95886
2238.64550	0.95899
2236.59169	0.95981
2234.53789	0.96092
2232.48409	0.96115
2230.43029	0.96011
2228.37648	0.95955
2226.32268	0.96093
2224.26888	0.96265
2222.21507	0.96258
2220.16127	0.96188
2218.10747	0.96255
2216.05366	0.96308
2213.99986	0.96175
2211.94606	0.96056
2209.89225	0.96093
2207.83845	0.96190
2205.78465	0.96255
2203.73084	0.96172
2201.67704	0.95992
2199.62324	0.95860
2197.56943	0.95755
2195.51563	0.95725
2193.46183	0.95838
2191.40802	0.95955
2189.35422	0.95948
2187.30042	0.95924
2185.24661	0.95931
2183.19281	0.95874
2181.13901	0.95929
2179.08520	0.96198
2177.03140	0.96453
2174.97760	0.96608
2172.92380	0.96547
2170.86999	0.96198
2168.81619	0.95864
2166.76239	0.95817
2164.70858	0.95901
2162.65478	0.95803
2160.60098	0.95687
2158.54717	0.95912
2156.49337	0.96246
2154.43957	0.96369
2152.38576	0.96335
2150.33196	0.96168
2148.27816	0.96017
2146.22435	0.96103
2144.17055	0.96224
2142.11675	0.96236
2140.06294	0.96258
2138.00914	0.96241
2135.95534	0.96203
2133.90153	0.96253
2131.84773	0.96358
2129.79393	0.96372
2127.74012	0.96253
2125.68632	0.96162
2123.63252	0.96147
2121.57871	0.96141
2119.52491	0.96178
2117.47111	0.96249
2115.41731	0.96257
2113.36350	0.96178
2111.30970	0.96132
2109.25590	0.96163
2107.20209	0.96164
2105.14829	0.96165
2103.09449	0.96243
2101.04068	0.96294
2098.98688	0.96304
2096.93308	0.96373
2094.87927	0.96351
2092.82547	0.96215
2090.77167	0.96221
2088.71786	0.96348
2086.66406	0.96439
2084.61026	0.96474
2082.55645	0.96469
2080.50265	0.96435
2078.44885	0.96404
2076.39504	0.96350
2074.34124	0.96218
2072.28744	0.96087
2070.23363	0.96046
2068.17983	0.96079
2066.12603	0.96145
2064.07223	0.96205
2062.01842	0.96237
2059.96462	0.96206
2057.91082	0.96115
2055.85701	0.96087
2053.80321	0.96141
2051.74941	0.96111
2049.69560	0.96022
2047.64180	0.96098
2045.58800	0.96170
2043.53419	0.96050
2041.48039	0.95975
2039.42659	0.96067
2037.37278	0.96248
2035.31898	0.96330
2033.26518	0.96214
2031.21137	0.96122
2029.15757	0.96268
2027.10377	0.96483
2025.04996	0.96441
2022.99616	0.96282
2020.94236	0.96192
2018.88855	0.95928
2016.83475	0.95571
2014.78095	0.95596
2012.72714	0.95882
2010.67334	0.96147
2008.61954	0.96397
2006.56574	0.96540
2004.51193	0.96556
2002.45813	0.96429
2000.40433	0.96251
1998.35052	0.96308
1996.29672	0.96554
1994.24292	0.96569
1992.18911	0.96229
1990.13531	0.96035
1988.08151	0.96308
1986.02770	0.96676
1983.97390	0.96759
1981.92010	0.96616
1979.86629	0.96422
1977.81249	0.96340
1975.75869	0.96464
1973.70488	0.96673
1971.65108	0.96738
1969.59728	0.96584
1967.54347	0.96424
1965.48967	0.96445
1963.43587	0.96481
1961.38206	0.96452
1959.32826	0.96521
1957.27446	0.96649
1955.22066	0.96725
1953.16685	0.96684
1951.11305	0.96569
1949.05925	0.96575
1947.00544	0.96656
1944.95164	0.96626
1942.89784	0.96513
1940.84403	0.96515
1938.79023	0.96668
1936.73643	0.96765
1934.68262	0.96732
1932.62882	0.96661
1930.57502	0.96588
1928.52121	0.96590
1926.46741	0.96689
1924.41361	0.96779
1922.35980	0.96738
1920.30600	0.96552
1918.25220	0.96371
1916.19839	0.96314
1914.14459	0.96420
1912.09079	0.96596
1910.03698	0.96673
1907.98318	0.96660
1905.92938	0.96687
1903.87557	0.96718
1901.82177	0.96681
1899.76797	0.96651
1897.71417	0.96655
1895.66036	0.96634
1893.60656	0.96614
1891.55276	0.96614
1889.49895	0.96625
1887.44515	0.96683
1885.39135	0.96737
1883.33754	0.96690
1881.28374	0.96598
1879.22994	0.96597
1877.17613	0.96629
1875.12233	0.96588
1873.06853	0.96548
1871.01472	0.96582
1868.96092	0.96678
1866.90712	0.96729
1864.85331	0.96688
1862.79951	0.96652
1860.74571	0.96656
1858.69190	0.96659
1856.63810	0.96648
1854.58430	0.96674
1852.53049	0.96718
1850.47669	0.96738
1848.42289	0.96791
1846.36908	0.96880
1844.31528	0.96903
1842.26148	0.96834
1840.20768	0.96752
1838.15387	0.96708
1836.10007	0.96704
1834.04627	0.96677
1831.99246	0.96594
1829.93866	0.96517
1827.88486	0.96529
1825.83105	0.96576
1823.77725	0.96605
1821.72345	0.96619
1819.66964	0.96641
1817.61584	0.96687
1815.56204	0.96703
1813.50823	0.96676
1811.45443	0.96663
1809.40063	0.96690
1807.34682	0.96717
1805.29302	0.96702
1803.23922	0.96656
1801.18541	0.96600
1799.13161	0.96580
1797.07781	0.96601
1795.02400	0.96629
1792.97020	0.96646
1790.91640	0.96647
1788.86260	0.96665
1786.80879	0.96664
1784.75499	0.96593
1782.70119	0.96527
1780.64738	0.96550
1778.59358	0.96604
1776.53978	0.96601
1774.48597	0.96509
1772.43217	0.96364
1770.37837	0.96289
1768.32456	0.96296
1766.27076	0.96305
1764.21696	0.96291
1762.16315	0.96248
1760.10935	0.96177
1758.05555	0.96124
1756.00174	0.96085
1753.94794	0.96034
1751.89414	0.95954
1749.84033	0.95837
1747.78653	0.95695
1745.73273	0.95523
1743.67892	0.95330
1741.62512	0.95140
1739.57132	0.94962
1737.51751	0.94827
1735.46371	0.94758
1733.40991	0.94729
1731.35611	0.94697
1729.30230	0.94656
1727.24850	0.94603
1725.19470	0.94536
1723.14089	0.94460
1721.08709	0.94384
1719.03329	0.94279
1716.97948	0.94117
1714.92568	0.93986
1712.87188	0.93891
1710.81807	0.93761
1708.76427	0.93612
1706.71047	0.93441
1704.65666	0.93240
1702.60286	0.93048
1700.54906	0.92783
1698.49525	0.92405
1696.44145	0.92015
1694.38765	0.91660
1692.33384	0.91379
1690.28004	0.91034
1688.22624	0.90632
1686.17243	0.90260
1684.11863	0.89733
1682.06483	0.89245
1680.01103	0.88966
1677.95722	0.88671
1675.90342	0.88231
1673.84962	0.87745
1671.79581	0.87404
1669.74201	0.87039
1667.68821	0.86631
1665.63440	0.86319
1663.58060	0.85962
1661.52680	0.85555
1659.47299	0.85257
1657.41919	0.85055
1655.36539	0.84883
1653.31158	0.84592
1651.25778	0.84364
1649.20398	0.84313
1647.15017	0.84203
1645.09637	0.84060
1643.04257	0.83992
1640.98876	0.83944
1638.93496	0.83888
1636.88116	0.83786
1634.82735	0.83694
1632.77355	0.83741
1630.71975	0.83852
1628.66594	0.84012
1626.61214	0.84223
1624.55834	0.84443
1622.50454	0.84692
1620.45073	0.84980
1618.39693	0.85322
1616.34313	0.85743
1614.28932	0.86102
1612.23552	0.86401
1610.18172	0.86736
1608.12791	0.87084
1606.07411	0.87371
1604.02031	0.87611
1601.96650	0.87855
1599.91270	0.88110
1597.85890	0.88367
1595.80509	0.88603
1593.75129	0.88809
1591.69749	0.88997
1589.64368	0.89182
1587.58988	0.89356
1585.53608	0.89485
1583.48227	0.89570
1581.42847	0.89650
1579.37467	0.89734
1577.32086	0.89790
1575.26706	0.89823
1573.21326	0.89862
1571.15945	0.89894
1569.10565	0.89925
1567.05185	0.89981
1564.99805	0.90043
1562.94424	0.90103
1560.89044	0.90153
1558.83664	0.90082
1556.78283	0.89933
1554.72903	0.89888
1552.67523	0.89849
1550.62142	0.89782
1548.56762	0.89728
1546.51382	0.89711
1544.46001	0.89702
1542.40621	0.89714
1540.35241	0.89783
1538.29860	0.89916
1536.24480	0.90060
1534.19100	0.90218
1532.13719	0.90425
1530.08339	0.90656
1528.02959	0.90888
1525.97578	0.91084
1523.92198	0.91212
1521.86818	0.91325
1519.81437	0.91455
1517.76057	0.91600
1515.70677	0.91804
1513.65297	0.92033
1511.59916	0.92250
1509.54536	0.92474
1507.49156	0.92736
1505.43775	0.92927
1503.38395	0.93005
1501.33015	0.93064
1499.27634	0.93120
1497.22254	0.93189
1495.16874	0.93266
1493.11493	0.93333
1491.06113	0.93371
1489.00733	0.93366
1486.95352	0.93326
1484.89972	0.93273
1482.84592	0.93187
1480.79211	0.92983
1478.73831	0.92516
1476.68451	0.91437
1474.63070	0.89388
1472.57690	0.87234
1470.52310	0.86741
1468.46929	0.87144
1466.41549	0.87277
1464.36169	0.86774
1462.30788	0.86379
1460.25408	0.86845
1458.20028	0.87994
1456.14648	0.89060
1454.09267	0.89500
1452.03887	0.89738
1449.98507	0.89917
1447.93126	0.90060
1445.87746	0.90178
1443.82366	0.90241
1441.76985	0.90263
1439.71605	0.90268
1437.66225	0.90254
1435.60844	0.90269
1433.55464	0.90360
1431.50084	0.90450
1429.44703	0.90498
1427.39323	0.90539
1425.33943	0.90571
1423.28562	0.90576
1421.23182	0.90588
1419.17802	0.90620
1417.12421	0.90644
1415.07041	0.90642
1413.01661	0.90638
1410.96280	0.90666
1408.90900	0.90732
1406.85520	0.90815
1404.80139	0.90877
1402.74759	0.90904
1400.69379	0.90938
1398.63999	0.91013
1396.58618	0.91071
1394.53238	0.91067
1392.47858	0.91061
1390.42477	0.91067
1388.37097	0.91051
1386.31717	0.91022
1384.26336	0.91015
1382.20956	0.91008
1380.15576	0.90957
1378.10195	0.90891
1376.04815	0.90856
1373.99435	0.90858
1371.94054	0.90890
1369.88674	0.90944
1367.83294	0.91028
1365.77913	0.91136
1363.72533	0.91253
1361.67153	0.91354
1359.61772	0.91411
1357.56392	0.91453
1355.51012	0.91510
1353.45631	0.91568
1351.40251	0.91611
1349.34871	0.91656
1347.29491	0.91718
1345.24110	0.91775
1343.18730	0.91811
1341.13350	0.91840
1339.07969	0.91860
1337.02589	0.91852
1334.97209	0.91870
1332.91828	0.91945
1330.86448	0.92004
1328.81068	0.92005
1326.75687	0.91961
1324.70307	0.91881
1322.64927	0.91802
1320.59546	0.91763
1318.54166	0.91759
1316.48786	0.91767
1314.43405	0.91772
1312.38025	0.91777
1310.32645	0.91815
1308.27264	0.91874
1306.21884	0.91899
1304.16504	0.91900
1302.11123	0.91932
1300.05743	0.91984
1298.00363	0.92004
1295.94982	0.91990
1293.89602	0.91966
1291.84222	0.91960
1289.78842	0.91971
1287.73461	0.91960
1285.68081	0.91914
1283.62701	0.91843
1281.57320	0.91777
1279.51940	0.91742
1277.46560	0.91695
1275.41179	0.91615
1273.35799	0.91551
1271.30419	0.91514
1269.25038	0.91457
1267.19658	0.91347
1265.14278	0.91220
1263.08897	0.91107
1261.03517	0.91012
1258.98137	0.90955
1256.92756	0.90932
1254.87376	0.90907
1252.81996	0.90862
1250.76615	0.90808
1248.71235	0.90741
1246.65855	0.90655
1244.60474	0.90581
1242.55094	0.90520
1240.49714	0.90443
1238.44334	0.90360
1236.38953	0.90287
1234.33573	0.90203
1232.28193	0.90106
1230.22812	0.90028
1228.17432	0.89969
1226.12052	0.89895
1224.06671	0.89804
1222.01291	0.89731
1219.95911	0.89684
1217.90530	0.89622
1215.85150	0.89477
1213.79770	0.89279
1211.74389	0.89121
1209.69009	0.88995
1207.63629	0.88834
1205.58248	0.88642
1203.52868	0.88451
1201.47488	0.88269
1199.42107	0.88089
1197.36727	0.87875
1195.31347	0.87604
1193.25966	0.87311
1191.20586	0.87038
1189.15206	0.86775
1187.09825	0.86462
1185.04445	0.86077
1182.99065	0.85669
1180.93685	0.85274
1178.88304	0.84868
1176.82924	0.84426
1174.77544	0.83954
1172.72163	0.83494
1170.66783	0.83068
1168.61403	0.82619
1166.56022	0.82111
1164.50642	0.81615
1162.45262	0.81205
1160.39881	0.80887
1158.34501	0.80609
1156.29121	0.80310
1154.23740	0.79976
1152.18360	0.79616
1150.12980	0.79246
1148.07599	0.78884
1146.02219	0.78519
1143.96839	0.78146
1141.91458	0.77784
1139.86078	0.77410
1137.80698	0.77006
1135.75317	0.76578
1133.69937	0.76115
1131.64557	0.75635
1129.59176	0.75161
1127.53796	0.74665
1125.48416	0.74106
1123.43036	0.73474
1121.37655	0.72793
1119.32275	0.72105
1117.26895	0.71418
1115.21514	0.70730
1113.16134	0.70103
1111.10754	0.69581
1109.05373	0.69111
1106.99993	0.68592
1104.94613	0.68026
1102.89232	0.67497
1100.83852	0.67018
1098.78472	0.66562
1096.73091	0.66131
1094.67711	0.65750
1092.62331	0.65413
1090.56950	0.65099
1088.51570	0.64815
1086.46190	0.64569
1084.40809	0.64336
1082.35429	0.64084
1080.30049	0.63830
1078.24668	0.63595
1076.19288	0.63344
1074.13908	0.63095
1072.08528	0.62861
1070.03147	0.62599
1067.97767	0.62268
1065.92387	0.61841
1063.87006	0.61336
1061.81626	0.60760
1059.76246	0.60150
1057.70865	0.59545
1055.65485	0.58893
1053.60105	0.58144
1051.54724	0.57317
1049.49344	0.56423
1047.43964	0.55482
1045.38583	0.54531
1043.33203	0.53571
1041.27823	0.52585
1039.22442	0.51623
1037.17062	0.50736
1035.11682	0.49890
1033.06301	0.49107
1031.00921	0.48487
1028.95541	0.48068
1026.90160	0.47852
1024.84780	0.47825
1022.79400	0.47923
1020.74019	0.48077
1018.68639	0.48190
1016.63259	0.48170
1014.57879	0.48029
1012.52498	0.47783
1010.47118	0.47415
1008.41738	0.46994
1006.36357	0.46635
1004.30977	0.46426
1002.25597	0.46430
1000.20216	0.46643
998.14836	0.47017
996.09456	0.47539
994.04075	0.48204
991.98695	0.48964
989.93315	0.49776
987.87934	0.50631
985.82554	0.51505
983.77174	0.52385
981.71793	0.53267
979.66413	0.54154
977.61033	0.55150
975.55652	0.56257
973.50272	0.57328
971.44892	0.58324
969.39511	0.59326
967.34131	0.60319
965.28751	0.61234
963.23371	0.62104
961.17990	0.62998
959.12610	0.63909
957.07230	0.64769
955.01849	0.65520
952.96469	0.66161
950.91089	0.66721
948.85708	0.67208
946.80328	0.67617
944.74948	0.67948
942.69567	0.68201
940.64187	0.68377
938.58807	0.68534
936.53426	0.68746
934.48046	0.68988
932.42666	0.69188
930.37285	0.69332
928.31905	0.69446
926.26525	0.69526
924.21144	0.69514
922.15764	0.69341
920.10384	0.68959
918.05003	0.68414
915.99623	0.67835
913.94243	0.67348
911.88862	0.67125
909.83482	0.67366
907.78102	0.68054
905.72722	0.69023
903.67341	0.70146
901.61961	0.71277
899.56581	0.72299
897.51200	0.73216
895.45820	0.74079
893.40440	0.74865
891.35059	0.75526
889.29679	0.76089
887.24299	0.76577
885.18918	0.77006
883.13538	0.77377
881.08158	0.77655
879.02777	0.77913
876.97397	0.78266
874.92017	0.78679
872.86636	0.79086
870.81256	0.79505
868.75876	0.79929
866.70495	0.80342
864.65115	0.80731
862.59735	0.81090
860.54354	0.81484
858.48974	0.81878
856.43594	0.82160
854.38213	0.82361
852.32833	0.82562
850.27453	0.82729
848.22073	0.82817
846.16692	0.82840
844.11312	0.82829
842.05932	0.82824
840.00551	0.82828
837.95171	0.82770
835.89791	0.82646
833.84410	0.82544
831.79030	0.82477
829.73650	0.82387
827.68269	0.82270
825.62889	0.82143
823.57509	0.82021
821.52128	0.81929
819.46748	0.81847
817.41368	0.81690
815.35987	0.81476
813.30607	0.81293
811.25227	0.81012
809.19846	0.80523
807.14466	0.79902
805.09086	0.79120
803.03705	0.78209
800.98325	0.77366
798.92945	0.76696
796.87565	0.76284
794.82184	0.76164
792.76804	0.76201
790.71424	0.76275
788.66043	0.76326
786.60663	0.76313
784.55283	0.76199
782.49902	0.75977
780.44522	0.75670
778.39142	0.75403
776.33761	0.75370
774.28381	0.75570
772.23001	0.75812
770.17620	0.75979
768.12240	0.76053
766.06860	0.76022
764.01479	0.75875
761.96099	0.75682
759.90719	0.75545
757.85338	0.75434
755.79958	0.75268
753.74578	0.75088
751.69197	0.74963
749.63817	0.74856
747.58437	0.74742
745.53056	0.74708
743.47676	0.74798
741.42296	0.74946
739.36916	0.75097
737.31535	0.75185
735.26155	0.74963
733.20775	0.74030
731.15394	0.72678
729.10014	0.72106
727.04634	0.72515
724.99253	0.72781
722.93873	0.72073
720.88493	0.70352
718.83112	0.68685
716.77732	0.68358
714.72352	0.69351
712.66971	0.70745
710.61591	0.71696
708.56211	0.71980
706.50830	0.71790
704.45450	0.71352
702.40070	0.70835
700.34689	0.70280
698.29309	0.69709
696.23929	0.69240
694.18548	0.68949
692.13168	0.68802
690.07788	0.68742
688.02408	0.68792
685.97027	0.68955
683.91647	0.69102
681.86267	0.69182
679.80886	0.69237
677.75506	0.69252
675.70126	0.69218
673.64745	0.69188
671.59365	0.69221
669.53985	0.69288
667.48604	0.69364
665.43224	0.69461
663.37844	0.69551
661.32463	0.69642
659.27083	0.69699
657.21703	0.69644
655.16322	0.69522
653.10942	0.69369
651.05562	0.69134
649.00181	0.68898
646.94801	0.68793
644.89421	0.68787
642.84040	0.68818
640.78660	0.68851
638.73280	0.68857
636.67899	0.68859
634.62519	0.68829
632.57139	0.68758
630.51759	0.68735
628.46378	0.68725
626.40998	0.68634
624.35618	0.68494
622.30237	0.68376
620.24857	0.68230
618.19477	0.68042
616.14096	0.67880
614.08716	0.67618
612.03336	0.67208
609.97955	0.66864
607.92575	0.66623
605.87195	0.66300
603.81814	0.65882
601.76434	0.65560
599.71054	0.65417
597.65673	0.65333
595.60293	0.65117
593.54913	0.64776
591.49532	0.64526
589.44152	0.64335
587.38772	0.64014
585.33391	0.63691
583.28011	0.63523
581.22631	0.63432
579.17250	0.63305
577.11870	0.63099
575.06490	0.62793
573.01110	0.62413
570.95729	0.62138
568.90349	0.62003
566.84969	0.61743
564.79588	0.61349
562.74208	0.61026
560.68828	0.60650
558.63447	0.60089
556.58067	0.59452
554.52687	0.58875
552.47306	0.58375
550.41926	0.57870
548.36546	0.57273
546.31165	0.56471
544.25785	0.55501
542.20405	0.54531
540.15024	0.53620
538.09644	0.52760
536.04264	0.51957
533.98883	0.51301
531.93503	0.50858
529.88123	0.50702
527.82742	0.50885
525.77362	0.51183
523.71982	0.51441
521.66602	0.51762
519.61221	0.52132
517.55841	0.52583
515.50461	0.53212
513.45080	0.53858
511.39700	0.54315
509.34320	0.54633
507.28939	0.54945
505.23559	0.55297
503.18179	0.55684
501.12798	0.56018
499.07418	0.56299
497.02038	0.56583
494.96657	0.56747
492.91277	0.56708
490.85897	0.56601
488.80516	0.56474
486.75136	0.56245
484.69756	0.55706
482.64375	0.54696
480.58995	0.53415
478.53615	0.51951
476.48234	0.50374
474.42854	0.48822
472.37474	0.47158
470.32093	0.45649
468.26713	0.44487
466.21333	0.43443
464.15953	0.42843
462.10572	0.42958
460.05192	0.43505
457.99812	0.44063
455.94431	0.44376
453.89051	0.44730
451.83671	0.45282
449.78290	0.45887
447.72910	0.46630
445.67530	0.47405
443.62149	0.47885
441.56769	0.48009
439.51389	0.47729
437.46008	0.47205
435.40628	0.46802
433.35248	0.46576
431.29867	0.46097
429.24487	0.45326
427.19107	0.45003
425.13726	0.45352
423.08346	0.45929
421.02966	0.46447
418.97585	0.46822
416.92205	0.46949
414.86825	0.47030
412.81445	0.47297
410.76064	0.47655
408.70684	0.48115
406.65304	0.48787
404.59923	0.49494
402.54543	0.49926
400.49163	0.49825
398.43782	0.49093
