3996.70104	0.96563
3994.64724	0.96511
3992.59344	0.96452
3990.53964	0.96436
3988.48583	0.96439
3986.43203	0.96431
3984.37823	0.96459
3982.32442	0.96518
3980.27062	0.96540
3978.21682	0.96529
3976.16301	0.96514
3974.10921	0.96492
3972.05541	0.96475
3970.00160	0.96470
3967.94780	0.96451
3965.89400	0.96413
3963.84019	0.96412
3961.78639	0.96452
3959.73259	0.96473
3957.67878	0.96503
3955.62498	0.96554
3953.57118	0.96546
3951.51737	0.96486
3949.46357	0.96463
3947.40977	0.96502
3945.35596	0.96531
3943.30216	0.96539
3941.24836	0.96549
3939.19455	0.96533
3937.14075	0.96525
3935.08695	0.96544
3933.03315	0.96537
3930.97934	0.96519
3928.92554	0.96533
3926.87174	0.96560
3924.81793	0.96589
3922.76413	0.96587
3920.71033	0.96537
3918.65652	0.96504
3916.60272	0.96517
3914.54892	0.96527
3912.49511	0.96507
3910.44131	0.96487
3908.38751	0.96516
3906.33370	0.96586
3904.27990	0.96635
3902.22610	0.96616
3900.17229	0.96567
3898.11849	0.96534
3896.06469	0.96512
3894.01088	0.96519
3891.95708	0.96538
3889.90328	0.96524
3887.84947	0.96505
3885.79567	0.96511
3883.74187	0.96549
3881.68807	0.96574
3879.63426	0.96518
3877.58046	0.96426
3875.52666	0.96374
3873.47285	0.96383
3871.41905	0.96483
3869.36525	0.96633
3867.31144	0.96679
3865.25764	0.96628
3863.20384	0.96553
3861.15003	0.96490
3859.09623	0.96501
3857.04243	0.96604
3854.98862	0.96756
3852.93482	0.96829
3850.88102	0.96753
3848.82721	0.96689
3846.77341	0.96639
3844.71961	0.96586
3842.66580	0.96549
3840.61200	0.96484
3838.55820	0.96415
3836.50439	0.96462
3834.45059	0.96535
3832.39679	0.96562
3830.34298	0.96589
3828.28918	0.96602
3826.23538	0.96606
3824.18158	0.96645
3822.12777	0.96730
3820.07397	0.96804
3818.02017	0.96764
3815.96636	0.96692
3813.91256	0.96699
3811.85876	0.96730
3809.80495	0.96740
3807.75115	0.96750
3805.69735	0.96770
3803.64354	0.96771
3801.58974	0.96731
3799.53594	0.96663
3797.48213	0.96638
3795.42833	0.96663
3793.37453	0.96683
3791.32072	0.96677
3789.26692	0.96665
3787.21312	0.96668
3785.15931	0.96665
3783.10551	0.96618
3781.05171	0.96572
3778.99790	0.96618
3776.94410	0.96717
3774.89030	0.96736
3772.83650	0.96687
3770.78269	0.96658
3768.72889	0.96650
3766.67509	0.96647
3764.62128	0.96682
3762.56748	0.96705
3760.51368	0.96710
3758.45987	0.96768
3756.40607	0.96843
3754.35227	0.96837
3752.29846	0.96780
3750.24466	0.96821
3748.19086	0.96924
3746.13705	0.96955
3744.08325	0.96840
3742.02945	0.96703
3739.97564	0.96679
3737.92184	0.96700
3735.86804	0.96722
3733.81423	0.96703
3731.76043	0.96663
3729.70663	0.96660
3727.65282	0.96674
3725.59902	0.96650
3723.54522	0.96568
3721.49141	0.96490
3719.43761	0.96450
3717.38381	0.96412
3715.33001	0.96338
3713.27620	0.96189
3711.22240	0.95858
3709.16860	0.95480
3707.11479	0.95212
3705.06099	0.94937
3703.00719	0.94602
3700.95338	0.94230
3698.89958	0.93916
3696.84578	0.93777
3694.79197	0.93847
3692.73817	0.94046
3690.68437	0.94339
3688.63056	0.94662
3686.57676	0.94811
3684.52296	0.94838
3682.46915	0.94813
3680.41535	0.94751
3678.36155	0.94671
3676.30774	0.94610
3674.25394	0.94667
3672.20014	0.94735
3670.14633	0.94718
3668.09253	0.94678
3666.03873	0.94682
3663.98492	0.94675
3661.93112	0.94575
3659.87732	0.94433
3657.82352	0.94337
3655.76971	0.94276
3653.71591	0.94254
3651.66211	0.94208
3649.60830	0.94025
3647.55450	0.93968
3645.50070	0.94067
3643.44689	0.94059
3641.39309	0.94036
3639.33929	0.94045
3637.28548	0.93962
3635.23168	0.93810
3633.17788	0.93704
3631.12407	0.93623
3629.07027	0.93466
3627.01647	0.93292
3624.96266	0.93176
3622.90886	0.93006
3620.85506	0.92765
3618.80125	0.92656
3616.74745	0.92824
3614.69365	0.93023
3612.63984	0.93113
3610.58604	0.93152
3608.53224	0.93215
3606.47844	0.93309
3604.42463	0.93352
3602.37083	0.93308
3600.31703	0.93250
3598.26322	0.93237
3596.20942	0.93235
3594.15562	0.93225
3592.10181	0.93214
3590.04801	0.93189
3587.99421	0.93129
3585.94040	0.93040
3583.88660	0.92987
3581.83280	0.92963
3579.77899	0.92933
3577.72519	0.92897
3575.67139	0.92860
3573.61758	0.92800
3571.56378	0.92713
3569.50998	0.92651
3567.45617	0.92655
3565.40237	0.92626
3563.34857	0.92515
3561.29476	0.92368
3559.24096	0.92228
3557.18716	0.92200
3555.13335	0.92242
3553.07955	0.92189
3551.02575	0.92079
3548.97195	0.92049
3546.91814	0.92039
3544.86434	0.91956
3542.81054	0.91853
3540.75673	0.91820
3538.70293	0.91822
3536.64913	0.91793
3534.59532	0.91751
3532.54152	0.91713
3530.48772	0.91660
3528.43391	0.91618
3526.38011	0.91644
3524.32631	0.91708
3522.27250	0.91765
3520.21870	0.91823
3518.16490	0.91828
3516.11109	0.91784
3514.05729	0.91776
3512.00349	0.91767
3509.94968	0.91697
3507.89588	0.91642
3505.84208	0.91650
3503.78827	0.91679
3501.73447	0.91688
3499.68067	0.91676
3497.62687	0.91654
3495.57306	0.91632
3493.51926	0.91624
3491.46546	0.91589
3489.41165	0.91528
3487.35785	0.91502
3485.30405	0.91481
3483.25024	0.91451
3481.19644	0.91435
3479.14264	0.91419
3477.08883	0.91453
3475.03503	0.91513
3472.98123	0.91485
3470.92742	0.91414
3468.87362	0.91359
3466.81982	0.91298
3464.76601	0.91244
3462.71221	0.91221
3460.65841	0.91246
3458.60460	0.91280
3456.55080	0.91241
3454.49700	0.91160
3452.44319	0.91114
3450.38939	0.91081
3448.33559	0.91028
3446.28178	0.90986
3444.22798	0.90958
3442.17418	0.90908
3440.12038	0.90826
3438.06657	0.90783
3436.01277	0.90801
3433.95897	0.90784
3431.90516	0.90701
3429.85136	0.90591
3427.79756	0.90484
3425.74375	0.90407
3423.68995	0.90376
3421.63615	0.90381
3419.58234	0.90360
3417.52854	0.90317
3415.47474	0.90250
3413.42093	0.90138
3411.36713	0.90048
3409.31333	0.89986
3407.25952	0.89939
3405.20572	0.89932
3403.15192	0.89940
3401.09811	0.89956
3399.04431	0.89987
3396.99051	0.89980
3394.93670	0.89936
3392.88290	0.89913
3390.82910	0.89913
3388.77529	0.89915
3386.72149	0.89943
3384.66769	0.89990
3382.61389	0.90035
3380.56008	0.90085
3378.50628	0.90130
3376.45248	0.90152
3374.39867	0.90154
3372.34487	0.90163
3370.29107	0.90187
3368.23726	0.90232
3366.18346	0.90321
3364.12966	0.90397
3362.07585	0.90390
3360.02205	0.90332
3357.96825	0.90278
3355.91444	0.90258
3353.86064	0.90296
3351.80684	0.90358
3349.75303	0.90374
3347.69923	0.90373
3345.64543	0.90398
3343.59162	0.90400
3341.53782	0.90380
3339.48402	0.90373
3337.43021	0.90381
3335.37641	0.90393
3333.32261	0.90399
3331.26881	0.90404
3329.21500	0.90422
3327.16120	0.90463
3325.10740	0.90515
3323.05359	0.90526
3320.99979	0.90489
3318.94599	0.90468
3316.89218	0.90492
3314.83838	0.90529
3312.78458	0.90546
3310.73077	0.90543
3308.67697	0.90542
3306.62317	0.90577
3304.56936	0.90639
3302.51556	0.90680
3300.46176	0.90693
3298.40795	0.90714
3296.35415	0.90746
3294.30035	0.90771
3292.24654	0.90799
3290.19274	0.90824
3288.13894	0.90826
3286.08513	0.90825
3284.03133	0.90839
3281.97753	0.90870
3279.92372	0.90896
3277.86992	0.90892
3275.81612	0.90874
3273.76232	0.90859
3271.70851	0.90906
3269.65471	0.91012
3267.60091	0.91067
3265.54710	0.91039
3263.49330	0.91001
3261.43950	0.91017
3259.38569	0.91061
3257.33189	0.91054
3255.27809	0.91034
3253.22428	0.91083
3251.17048	0.91172
3249.11668	0.91241
3247.06287	0.91298
3245.00907	0.91382
3242.95527	0.91452
3240.90146	0.91419
3238.84766	0.91360
3236.79386	0.91401
3234.74005	0.91522
3232.68625	0.91631
3230.63245	0.91678
3228.57864	0.91681
3226.52484	0.91689
3224.47104	0.91726
3222.41724	0.91775
3220.36343	0.91808
3218.30963	0.91831
3216.25583	0.91869
3214.20202	0.91918
3212.14822	0.91975
3210.09442	0.92046
3208.04061	0.92105
3205.98681	0.92116
3203.93301	0.92111
3201.87920	0.92168
3199.82540	0.92259
3197.77160	0.92305
3195.71779	0.92324
3193.66399	0.92344
3191.61019	0.92352
3189.55638	0.92358
3187.50258	0.92402
3185.44878	0.92477
3183.39497	0.92544
3181.34117	0.92586
3179.28737	0.92611
3177.23356	0.92651
3175.17976	0.92693
3173.12596	0.92726
3171.07215	0.92787
3169.01835	0.92851
3166.96455	0.92889
3164.91075	0.92918
3162.85694	0.92945
3160.80314	0.92979
3158.74934	0.93023
3156.69553	0.93060
3154.64173	0.93099
3152.58793	0.93171
3150.53412	0.93236
3148.48032	0.93272
3146.42652	0.93323
3144.37271	0.93393
3142.31891	0.93428
3140.26511	0.93432
3138.21130	0.93452
3136.15750	0.93498
3134.10370	0.93549
3132.04989	0.93569
3129.99609	0.93554
3127.94229	0.93554
3125.88848	0.93587
3123.83468	0.93636
3121.78088	0.93702
3119.72707	0.93775
3117.67327	0.93810
3115.61947	0.93817
3113.56566	0.93831
3111.51186	0.93840
3109.45806	0.93843
3107.40426	0.93862
3105.35045	0.93891
3103.29665	0.93917
3101.24285	0.93935
3099.18904	0.93937
3097.13524	0.93946
3095.08144	0.94012
3093.02763	0.94104
3090.97383	0.94130
3088.92003	0.94089
3086.86622	0.94040
3084.81242	0.94039
3082.75862	0.94109
3080.70481	0.94202
3078.65101	0.94243
3076.59721	0.94232
3074.54340	0.94203
3072.48960	0.94183
3070.43580	0.94196
3068.38199	0.94238
3066.32819	0.94308
3064.27439	0.94375
3062.22058	0.94386
3060.16678	0.94365
3058.11298	0.94368
3056.05918	0.94400
3054.00537	0.94417
3051.95157	0.94410
3049.89777	0.94442
3047.84396	0.94506
3045.79016	0.94527
3043.73636	0.94511
3041.68255	0.94536
3039.62875	0.94617
3037.57495	0.94683
3035.52114	0.94701
3033.46734	0.94721
3031.41354	0.94772
3029.35973	0.94774
3027.30593	0.94727
3025.25213	0.94736
3023.19832	0.94808
3021.14452	0.94874
3019.09072	0.94891
3017.03691	0.94860
3014.98311	0.94830
3012.92931	0.94836
3010.87550	0.94851
3008.82170	0.94854
3006.76790	0.94865
3004.71409	0.94875
3002.66029	0.94854
3000.60649	0.94843
2998.55269	0.94860
2996.49888	0.94853
2994.44508	0.94828
2992.39128	0.94806
2990.33747	0.94754
2988.28367	0.94689
2986.22987	0.94661
2984.17606	0.94649
2982.12226	0.94621
2980.06846	0.94577
2978.01465	0.94501
2975.96085	0.94387
2973.90705	0.94250
2971.85324	0.94110
2969.79944	0.93968
2967.74564	0.93815
2965.69183	0.93665
2963.63803	0.93497
2961.58423	0.93292
2959.53042	0.93095
2957.47662	0.92925
2955.42282	0.92783
2953.36901	0.92680
2951.31521	0.92570
2949.26141	0.92401
2947.20761	0.92152
2945.15380	0.91785
2943.10000	0.91248
2941.04620	0.90528
2938.99239	0.89653
2936.93859	0.88608
2934.88479	0.87328
2932.83098	0.85778
2930.77718	0.83956
2928.72338	0.81833
2926.66957	0.79324
2924.61577	0.76332
2922.56197	0.72829
2920.50816	0.68982
2918.45436	0.65294
2916.40056	0.62674
2914.34675	0.62031
2912.29295	0.63488
2910.23915	0.66192
2908.18534	0.69077
2906.13154	0.71605
2904.07774	0.73667
2902.02393	0.75269
2899.97013	0.76508
2897.91633	0.77535
2895.86252	0.78478
2893.80872	0.79403
2891.75492	0.80355
2889.70112	0.81345
2887.64731	0.82324
2885.59351	0.83294
2883.53971	0.84326
2881.48590	0.85368
2879.43210	0.86303
2877.37830	0.87150
2875.32449	0.87955
2873.27069	0.88644
2871.21689	0.89110
2869.16308	0.89340
2867.10928	0.89385
2865.05548	0.89232
2863.00167	0.88735
2860.94787	0.87745
2858.89407	0.86106
2856.84026	0.83547
2854.78646	0.79794
2852.73266	0.74831
2850.67885	0.69517
2848.62505	0.65829
2846.57125	0.65470
2844.51744	0.68224
2842.46364	0.72404
2840.40984	0.76525
2838.35603	0.79959
2836.30223	0.82602
2834.24843	0.84600
2832.19463	0.86150
2830.14082	0.87353
2828.08702	0.88294
2826.03322	0.89076
2823.97941	0.89716
2821.92561	0.90225
2819.87181	0.90662
2817.81800	0.91051
2815.76420	0.91387
2813.71040	0.91647
2811.65659	0.91851
2809.60279	0.92085
2807.54899	0.92332
2805.49518	0.92528
2803.44138	0.92683
2801.38758	0.92822
2799.33377	0.92952
2797.27997	0.93066
2795.22617	0.93177
2793.17236	0.93309
2791.11856	0.93438
2789.06476	0.93541
2787.01095	0.93606
2784.95715	0.93667
2782.90335	0.93761
2780.84955	0.93859
2778.79574	0.93936
2776.74194	0.94006
2774.68814	0.94079
2772.63433	0.94168
2770.58053	0.94264
2768.52673	0.94329
2766.47292	0.94365
2764.41912	0.94393
2762.36532	0.94411
2760.31151	0.94446
2758.25771	0.94481
2756.20391	0.94486
2754.15010	0.94511
2752.09630	0.94580
2750.04250	0.94624
2747.98869	0.94621
2745.93489	0.94625
2743.88109	0.94644
2741.82728	0.94668
2739.77348	0.94683
2737.71968	0.94683
2735.66587	0.94708
2733.61207	0.94743
2731.55827	0.94747
2729.50446	0.94754
2727.45066	0.94794
2725.39686	0.94831
2723.34306	0.94863
2721.28925	0.94906
2719.23545	0.94947
2717.18165	0.94988
2715.12784	0.95024
2713.07404	0.95037
2711.02024	0.95032
2708.96643	0.95013
2706.91263	0.95019
2704.85883	0.95066
2702.80502	0.95096
2700.75122	0.95095
2698.69742	0.95113
2696.64361	0.95161
2694.58981	0.95193
2692.53601	0.95192
2690.48220	0.95178
2688.42840	0.95167
2686.37460	0.95167
2684.32079	0.95184
2682.26699	0.95208
2680.21319	0.95217
2678.15938	0.95199
2676.10558	0.95179
2674.05178	0.95205
2671.99797	0.95224
2669.94417	0.95188
2667.89037	0.95173
2665.83657	0.95182
2663.78276	0.95162
2661.72896	0.95142
2659.67516	0.95180
2657.62135	0.95248
2655.56755	0.95280
2653.51375	0.95284
2651.45994	0.95306
2649.40614	0.95333
2647.35234	0.95352
2645.29853	0.95376
2643.24473	0.95388
2641.19093	0.95377
2639.13712	0.95359
2637.08332	0.95334
2635.02952	0.95317
2632.97571	0.95332
2630.92191	0.95352
2628.86811	0.95350
2626.81430	0.95360
2624.76050	0.95383
2622.70670	0.95381
2620.65289	0.95376
2618.59909	0.95408
2616.54529	0.95446
2614.49149	0.95478
2612.43768	0.95551
2610.38388	0.95632
2608.33008	0.95632
2606.27627	0.95605
2604.22247	0.95617
2602.16867	0.95619
2600.11486	0.95612
2598.06106	0.95651
2596.00726	0.95721
2593.95345	0.95757
2591.89965	0.95751
2589.84585	0.95771
2587.79204	0.95810
2585.73824	0.95788
2583.68444	0.95746
2581.63063	0.95772
2579.57683	0.95845
2577.52303	0.95883
2575.46922	0.95875
2573.41542	0.95920
2571.36162	0.96009
2569.30781	0.96057
2567.25401	0.96045
2565.20021	0.95990
2563.14640	0.95936
2561.09260	0.95916
2559.03880	0.95916
2556.98500	0.95920
2554.93119	0.95955
2552.87739	0.96018
2550.82359	0.96061
2548.76978	0.96070
2546.71598	0.96049
2544.66218	0.96052
2542.60837	0.96134
2540.55457	0.96207
2538.50077	0.96198
2536.44696	0.96152
2534.39316	0.96131
2532.33936	0.96162
2530.28555	0.96175
2528.23175	0.96151
2526.17795	0.96165
2524.12414	0.96165
2522.07034	0.96111
2520.01654	0.96085
2517.96273	0.96104
2515.90893	0.96094
2513.85513	0.96053
2511.80132	0.96048
2509.74752	0.96082
2507.69372	0.96104
2505.63992	0.96094
2503.58611	0.96128
2501.53231	0.96207
2499.47851	0.96196
2497.42470	0.96129
2495.37090	0.96132
2493.31710	0.96181
2491.26329	0.96230
2489.20949	0.96282
2487.15569	0.96303
2485.10188	0.96246
2483.04808	0.96180
2480.99428	0.96183
2478.94047	0.96214
2476.88667	0.96225
2474.83287	0.96261
2472.77906	0.96320
2470.72526	0.96319
2468.67146	0.96271
2466.61765	0.96250
2464.56385	0.96249
2462.51005	0.96242
2460.45624	0.96273
2458.40244	0.96314
2456.34864	0.96316
2454.29483	0.96324
2452.24103	0.96340
2450.18723	0.96349
2448.13343	0.96388
2446.07962	0.96393
2444.02582	0.96296
2441.97202	0.96215
2439.91821	0.96229
2437.86441	0.96292
2435.81061	0.96371
2433.75680	0.96420
2431.70300	0.96424
2429.64920	0.96364
2427.59539	0.96253
2425.54159	0.96202
2423.48779	0.96257
2421.43398	0.96314
2419.38018	0.96323
2417.32638	0.96339
2415.27257	0.96351
2413.21877	0.96355
2411.16497	0.96368
2409.11116	0.96350
2407.05736	0.96314
2405.00356	0.96281
2402.94975	0.96261
2400.89595	0.96275
2398.84215	0.96319
2396.78834	0.96384
2394.73454	0.96417
2392.68074	0.96372
2390.62694	0.96304
2388.57313	0.96253
2386.51933	0.96215
2384.46553	0.96236
2382.41172	0.96347
2380.35792	0.96452
2378.30412	0.96459
2376.25031	0.96418
2374.19651	0.96359
2372.14271	0.96262
2370.08890	0.96218
2368.03510	0.96268
2365.98130	0.96321
2363.92749	0.96356
2361.87369	0.96296
2359.81989	0.96166
2357.76608	0.96157
2355.71228	0.96232
2353.65848	0.96303
2351.60467	0.96313
2349.55087	0.96258
2347.49707	0.96247
2345.44326	0.96284
2343.38946	0.96257
2341.33566	0.96199
2339.28186	0.96159
2337.22805	0.96124
2335.17425	0.96134
2333.12045	0.96151
2331.06664	0.96137
2329.01284	0.96139
2326.95904	0.96107
2324.90523	0.96070
2322.85143	0.96119
2320.79763	0.96129
2318.74382	0.96093
2316.69002	0.96144
2314.63622	0.96256
2312.58241	0.96323
2310.52861	0.96303
2308.47481	0.96272
2306.42100	0.96276
2304.36720	0.96290
2302.31340	0.96282
2300.25959	0.96247
2298.20579	0.96264
2296.15199	0.96307
2294.09818	0.96282
2292.04438	0.96243
2289.99058	0.96258
2287.93677	0.96289
2285.88297	0.96255
2283.82917	0.96188
2281.77537	0.96199
2279.72156	0.96277
2277.66776	0.96334
2275.61396	0.96341
2273.56015	0.96352
2271.50635	0.96367
2269.45255	0.96354
2267.39874	0.96366
2265.34494	0.96434
2263.29114	0.96489
2261.23733	0.96475
2259.18353	0.96439
2257.12973	0.96462
2255.07592	0.96546
2253.02212	0.96537
2250.96832	0.96363
2248.91451	0.96290
2246.86071	0.96435
2244.80691	0.96551
2242.75310	0.96514
2240.69930	0.96413
2238.64550	0.96423
2236.59169	0.96588
2234.53789	0.96706
2232.48409	0.96653
2230.43029	0.96488
2228.37648	0.96392
2226.32268	0.96450
2224.26888	0.96444
2222.21507	0.96266
2220.16127	0.96136
2218.10747	0.96282
2216.05366	0.96622
2213.99986	0.96806
2211.94606	0.96642
2209.89225	0.96408
2207.83845	0.96402
2205.78465	0.96451
2203.73084	0.96428
2201.67704	0.96437
2199.62324	0.96494
2197.56943	0.96552
2195.51563	0.96634
2193.46183	0.96740
2191.40802	0.96809
2189.35422	0.96931
2187.30042	0.97008
2185.24661	0.96764
2183.19281	0.96405
2181.13901	0.96284
2179.08520	0.96343
2177.03140	0.96465
2174.97760	0.96635
2172.92380	0.96775
2170.86999	0.96796
2168.81619	0.96691
2166.76239	0.96537
2164.70858	0.96353
2162.65478	0.96273
2160.60098	0.96544
2158.54717	0.96938
2156.49337	0.96966
2154.43957	0.96769
2152.38576	0.96748
2150.33196	0.96943
2148.27816	0.97046
2146.22435	0.96973
2144.17055	0.96812
2142.11675	0.96570
2140.06294	0.96389
2138.00914	0.96421
2135.95534	0.96571
2133.90153	0.96633
2131.84773	0.96700
2129.79393	0.96813
2127.74012	0.96829
2125.68632	0.96747
2123.63252	0.96648
2121.57871	0.96615
2119.52491	0.96654
2117.47111	0.96694
2115.41731	0.96666
2113.36350	0.96606
2111.30970	0.96556
2109.25590	0.96483
2107.20209	0.96442
2105.14829	0.96495
2103.09449	0.96549
2101.04068	0.96513
2098.98688	0.96517
2096.93308	0.96638
2094.87927	0.96745
2092.82547	0.96781
2090.77167	0.96753
2088.71786	0.96664
2086.66406	0.96579
2084.61026	0.96535
2082.55645	0.96504
2080.50265	0.96470
2078.44885	0.96521
2076.39504	0.96659
2074.34124	0.96739
2072.28744	0.96796
2070.23363	0.96853
2068.17983	0.96873
2066.12603	0.96938
2064.07223	0.96971
2062.01842	0.96868
2059.96462	0.96737
2057.91082	0.96688
2055.85701	0.96800
2053.80321	0.96985
2051.74941	0.96978
2049.69560	0.96752
2047.64180	0.96514
2045.58800	0.96520
2043.53419	0.96725
2041.48039	0.96816
2039.42659	0.96872
2037.37278	0.96938
2035.31898	0.96881
2033.26518	0.96966
2031.21137	0.97131
2029.15757	0.96970
2027.10377	0.96712
2025.04996	0.96633
2022.99616	0.96610
2020.94236	0.96740
2018.88855	0.97057
2016.83475	0.97216
2014.78095	0.97091
2012.72714	0.96999
2010.67334	0.97049
2008.61954	0.96953
2006.56574	0.96755
2004.51193	0.96812
2002.45813	0.97150
2000.40433	0.97463
1998.35052	0.97553
1996.29672	0.97380
1994.24292	0.97029
1992.18911	0.96763
1990.13531	0.96624
1988.08151	0.96547
1986.02770	0.96696
1983.97390	0.97030
1981.92010	0.97159
1979.86629	0.96950
1977.81249	0.96712
1975.75869	0.96721
1973.70488	0.96794
1971.65108	0.96781
1969.59728	0.97005
1967.54347	0.97358
1965.48967	0.97243
1963.43587	0.96875
1961.38206	0.96861
1959.32826	0.97097
1957.27446	0.97265
1955.22066	0.97256
1953.16685	0.97041
1951.11305	0.96886
1949.05925	0.96888
1947.00544	0.96875
1944.95164	0.96907
1942.89784	0.96998
1940.84403	0.96958
1938.79023	0.96835
1936.73643	0.96801
1934.68262	0.96853
1932.62882	0.96777
1930.57502	0.96570
1928.52121	0.96486
1926.46741	0.96580
1924.41361	0.96763
1922.35980	0.96895
1920.30600	0.96910
1918.25220	0.96877
1916.19839	0.96810
1914.14459	0.96770
1912.09079	0.96798
1910.03698	0.96792
1907.98318	0.96724
1905.92938	0.96696
1903.87557	0.96708
1901.82177	0.96733
1899.76797	0.96791
1897.71417	0.96819
1895.66036	0.96787
1893.60656	0.96794
1891.55276	0.96833
1889.49895	0.96810
1887.44515	0.96761
1885.39135	0.96764
1883.33754	0.96802
1881.28374	0.96828
1879.22994	0.96804
1877.17613	0.96703
1875.12233	0.96604
1873.06853	0.96589
1871.01472	0.96595
1868.96092	0.96578
1866.90712	0.96574
1864.85331	0.96584
1862.79951	0.96655
1860.74571	0.96755
1858.69190	0.96794
1856.63810	0.96802
1854.58430	0.96768
1852.53049	0.96697
1850.47669	0.96694
1848.42289	0.96779
1846.36908	0.96859
1844.31528	0.96858
1842.26148	0.96808
1840.20768	0.96765
1838.15387	0.96724
1836.10007	0.96676
1834.04627	0.96656
1831.99246	0.96690
1829.93866	0.96742
1827.88486	0.96766
1825.83105	0.96752
1823.77725	0.96691
1821.72345	0.96606
1819.66964	0.96539
1817.61584	0.96508
1815.56204	0.96531
1813.50823	0.96573
1811.45443	0.96577
1809.40063	0.96562
1807.34682	0.96575
1805.29302	0.96602
1803.23922	0.96630
1801.18541	0.96660
1799.13161	0.96644
1797.07781	0.96577
1795.02400	0.96537
1792.97020	0.96560
1790.91640	0.96573
1788.86260	0.96533
1786.80879	0.96485
1784.75499	0.96450
1782.70119	0.96417
1780.64738	0.96408
1778.59358	0.96410
1776.53978	0.96368
1774.48597	0.96311
1772.43217	0.96267
1770.37837	0.96187
1768.32456	0.96114
1766.27076	0.96115
1764.21696	0.96116
1762.16315	0.96019
1760.10935	0.95848
1758.05555	0.95682
1756.00174	0.95459
1753.94794	0.95156
1751.89414	0.94805
1749.84033	0.94394
1747.78653	0.93920
1745.73273	0.93425
1743.67892	0.92941
1741.62512	0.92490
1739.57132	0.92094
1737.51751	0.91812
1735.46371	0.91609
1733.40991	0.91391
1731.35611	0.91211
1729.30230	0.91127
1727.24850	0.91133
1725.19470	0.91204
1723.14089	0.91326
1721.08709	0.91458
1719.03329	0.91628
1716.97948	0.91879
1714.92568	0.92078
1712.87188	0.92224
1710.81807	0.92376
1708.76427	0.92528
1706.71047	0.92674
1704.65666	0.92812
1702.60286	0.92906
1700.54906	0.92939
1698.49525	0.92938
1696.44145	0.92931
1694.38765	0.92871
1692.33384	0.92752
1690.28004	0.92607
1688.22624	0.92474
1686.17243	0.92375
1684.11863	0.92215
1682.06483	0.91973
1680.01103	0.91782
1677.95722	0.91639
1675.90342	0.91492
1673.84962	0.91314
1671.79581	0.91146
1669.74201	0.90960
1667.68821	0.90783
1665.63440	0.90669
1663.58060	0.90556
1661.52680	0.90402
1659.47299	0.90242
1657.41919	0.90121
1655.36539	0.90054
1653.31158	0.90015
1651.25778	0.89945
1649.20398	0.89879
1647.15017	0.89846
1645.09637	0.89837
1643.04257	0.89811
1640.98876	0.89779
1638.93496	0.89746
1636.88116	0.89706
1634.82735	0.89702
1632.77355	0.89718
1630.71975	0.89720
1628.66594	0.89739
1626.61214	0.89743
1624.55834	0.89722
1622.50454	0.89747
1620.45073	0.89826
1618.39693	0.89991
1616.34313	0.90304
1614.28932	0.90564
1612.23552	0.90730
1610.18172	0.90905
1608.12791	0.91055
1606.07411	0.91163
1604.02031	0.91239
1601.96650	0.91251
1599.91270	0.91246
1597.85890	0.91308
1595.80509	0.91442
1593.75129	0.91585
1591.69749	0.91686
1589.64368	0.91746
1587.58988	0.91774
1585.53608	0.91765
1583.48227	0.91737
1581.42847	0.91734
1579.37467	0.91754
1577.32086	0.91823
1575.26706	0.91986
1573.21326	0.92117
1571.15945	0.92195
1569.10565	0.92271
1567.05185	0.92323
1564.99805	0.92352
1562.94424	0.92363
1560.89044	0.92368
1558.83664	0.92455
1556.78283	0.92528
1554.72903	0.92491
1552.67523	0.92433
1550.62142	0.92394
1548.56762	0.92390
1546.51382	0.92395
1544.46001	0.92408
1542.40621	0.92461
1540.35241	0.92528
1538.29860	0.92607
1536.24480	0.92718
1534.19100	0.92884
1532.13719	0.93077
1530.08339	0.93194
1528.02959	0.93278
1525.97578	0.93365
1523.92198	0.93438
1521.86818	0.93548
1519.81437	0.93684
1517.76057	0.93749
1515.70677	0.93781
1513.65297	0.93833
1511.59916	0.93905
1509.54536	0.93984
1507.49156	0.94069
1505.43775	0.94151
1503.38395	0.94216
1501.33015	0.94292
1499.27634	0.94350
1497.22254	0.94339
1495.16874	0.94296
1493.11493	0.94275
1491.06113	0.94235
1489.00733	0.94168
1486.95352	0.94108
1484.89972	0.94038
1482.84592	0.93890
1480.79211	0.93557
1478.73831	0.92788
1476.68451	0.90770
1474.63070	0.86824
1472.57690	0.82998
1470.52310	0.82621
1468.46929	0.83671
1466.41549	0.83854
1464.36169	0.82623
1462.30788	0.81885
1460.25408	0.83102
1458.20028	0.85788
1456.14648	0.88237
1454.09267	0.89117
1452.03887	0.89563
1449.98507	0.89941
1447.93126	0.90263
1445.87746	0.90562
1443.82366	0.90797
1441.76985	0.90961
1439.71605	0.91083
1437.66225	0.91215
1435.60844	0.91370
1433.55464	0.91504
1431.50084	0.91655
1429.44703	0.91833
1427.39323	0.91962
1425.33943	0.92030
1423.28562	0.92080
1421.23182	0.92107
1419.17802	0.92130
1417.12421	0.92181
1415.07041	0.92227
1413.01661	0.92262
1410.96280	0.92297
1408.90900	0.92338
1406.85520	0.92410
1404.80139	0.92494
1402.74759	0.92533
1400.69379	0.92550
1398.63999	0.92577
1396.58618	0.92600
1394.53238	0.92605
1392.47858	0.92587
1390.42477	0.92549
1388.37097	0.92508
1386.31717	0.92473
1384.26336	0.92443
1382.20956	0.92397
1380.15576	0.92311
1378.10195	0.92228
1376.04815	0.92200
1373.99435	0.92203
1371.94054	0.92192
1369.88674	0.92148
1367.83294	0.92103
1365.77913	0.92142
1363.72533	0.92290
1361.67153	0.92466
1359.61772	0.92598
1357.56392	0.92699
1355.51012	0.92768
1353.45631	0.92804
1351.40251	0.92849
1349.34871	0.92916
1347.29491	0.92973
1345.24110	0.93016
1343.18730	0.93052
1341.13350	0.93080
1339.07969	0.93089
1337.02589	0.93079
1334.97209	0.93070
1332.91828	0.93049
1330.86448	0.92992
1328.81068	0.92921
1326.75687	0.92861
1324.70307	0.92788
1322.64927	0.92668
1320.59546	0.92544
1318.54166	0.92453
1316.48786	0.92361
1314.43405	0.92250
1312.38025	0.92127
1310.32645	0.91989
1308.27264	0.91845
1306.21884	0.91709
1304.16504	0.91559
1302.11123	0.91382
1300.05743	0.91207
1298.00363	0.91062
1295.94982	0.90936
1293.89602	0.90785
1291.84222	0.90611
1289.78842	0.90456
1287.73461	0.90323
1285.68081	0.90205
1283.62701	0.90112
1281.57320	0.90040
1279.51940	0.89953
1277.46560	0.89847
1275.41179	0.89756
1273.35799	0.89669
1271.30419	0.89582
1269.25038	0.89492
1267.19658	0.89378
1265.14278	0.89271
1263.08897	0.89201
1261.03517	0.89174
1258.98137	0.89217
1256.92756	0.89331
1254.87376	0.89482
1252.81996	0.89648
1250.76615	0.89813
1248.71235	0.89951
1246.65855	0.90077
1244.60474	0.90233
1242.55094	0.90392
1240.49714	0.90504
1238.44334	0.90561
1236.38953	0.90599
1234.33573	0.90670
1232.28193	0.90766
1230.22812	0.90831
1228.17432	0.90862
1226.12052	0.90901
1224.06671	0.90951
1222.01291	0.90978
1219.95911	0.90972
1217.90530	0.90960
1215.85150	0.90938
1213.79770	0.90886
1211.74389	0.90810
1209.69009	0.90723
1207.63629	0.90640
1205.58248	0.90548
1203.52868	0.90394
1201.47488	0.90194
1199.42107	0.90016
1197.36727	0.89875
1195.31347	0.89716
1193.25966	0.89508
1191.20586	0.89294
1189.15206	0.89068
1187.09825	0.88808
1185.04445	0.88495
1182.99065	0.88122
1180.93685	0.87717
1178.88304	0.87293
1176.82924	0.86853
1174.77544	0.86398
1172.72163	0.85936
1170.66783	0.85484
1168.61403	0.85053
1166.56022	0.84647
1164.50642	0.84276
1162.45262	0.83960
1160.39881	0.83696
1158.34501	0.83438
1156.29121	0.83139
1154.23740	0.82808
1152.18360	0.82469
1150.12980	0.82126
1148.07599	0.81783
1146.02219	0.81450
1143.96839	0.81163
1141.91458	0.80929
1139.86078	0.80672
1137.80698	0.80362
1135.75317	0.80038
1133.69937	0.79694
1131.64557	0.79297
1129.59176	0.78868
1127.53796	0.78397
1125.48416	0.77838
1123.43036	0.77186
1121.37655	0.76441
1119.32275	0.75669
1117.26895	0.74973
1115.21514	0.74401
1113.16134	0.73945
1111.10754	0.73555
1109.05373	0.73184
1106.99993	0.72814
1104.94613	0.72449
1102.89232	0.72131
1100.83852	0.71899
1098.78472	0.71732
1096.73091	0.71598
1094.67711	0.71503
1092.62331	0.71438
1090.56950	0.71387
1088.51570	0.71363
1086.46190	0.71342
1084.40809	0.71253
1082.35429	0.71066
1080.30049	0.70815
1078.24668	0.70538
1076.19288	0.70240
1074.13908	0.69933
1072.08528	0.69644
1070.03147	0.69335
1067.97767	0.68946
1065.92387	0.68515
1063.87006	0.68097
1061.81626	0.67631
1059.76246	0.67071
1057.70865	0.66443
1055.65485	0.65711
1053.60105	0.64837
1051.54724	0.63872
1049.49344	0.62850
1047.43964	0.61800
1045.38583	0.60766
1043.33203	0.59779
1041.27823	0.58854
1039.22442	0.58011
1037.17062	0.57285
1035.11682	0.56668
1033.06301	0.56176
1031.00921	0.55846
1028.95541	0.55663
1026.90160	0.55600
1024.84780	0.55595
1022.79400	0.55573
1020.74019	0.55527
1018.68639	0.55451
1016.63259	0.55332
1014.57879	0.55225
1012.52498	0.55172
1010.47118	0.55197
1008.41738	0.55351
1006.36357	0.55650
1004.30977	0.56134
1002.25597	0.56857
1000.20216	0.57766
998.14836	0.58781
996.09456	0.59892
994.04075	0.61073
991.98695	0.62274
989.93315	0.63480
987.87934	0.64679
985.82554	0.65846
983.77174	0.66962
981.71793	0.68051
979.66413	0.69165
977.61033	0.70256
975.55652	0.71248
973.50272	0.72174
971.44892	0.73109
969.39511	0.74018
967.34131	0.74798
965.28751	0.75480
963.23371	0.76142
961.17990	0.76780
959.12610	0.77378
957.07230	0.77925
955.01849	0.78378
952.96469	0.78760
950.91089	0.79132
948.85708	0.79482
946.80328	0.79765
944.74948	0.79977
942.69567	0.80155
940.64187	0.80327
938.58807	0.80501
936.53426	0.80674
934.48046	0.80823
932.42666	0.80959
930.37285	0.81089
928.31905	0.81176
926.26525	0.81183
924.21144	0.81130
922.15764	0.81025
920.10384	0.80818
918.05003	0.80540
915.99623	0.80285
913.94243	0.80113
911.88862	0.80122
909.83482	0.80420
907.78102	0.80992
905.72722	0.81717
903.67341	0.82442
901.61961	0.83113
899.56581	0.83766
897.51200	0.84364
895.45820	0.84852
893.40440	0.85217
891.35059	0.85462
889.29679	0.85663
887.24299	0.85868
885.18918	0.86065
883.13538	0.86269
881.08158	0.86460
879.02777	0.86591
876.97397	0.86718
874.92017	0.86900
872.86636	0.87108
870.81256	0.87279
868.75876	0.87415
866.70495	0.87578
864.65115	0.87747
862.59735	0.87937
860.54354	0.88179
858.48974	0.88375
856.43594	0.88503
854.38213	0.88636
852.32833	0.88786
850.27453	0.88917
848.22073	0.89027
846.16692	0.89087
844.11312	0.89065
842.05932	0.89020
840.00551	0.89040
837.95171	0.89089
835.89791	0.89068
833.84410	0.88983
831.79030	0.88879
829.73650	0.88743
827.68269	0.88589
825.62889	0.88455
823.57509	0.88321
821.52128	0.88179
819.46748	0.88077
817.41368	0.88035
815.35987	0.87960
813.30607	0.87792
811.25227	0.87586
809.19846	0.87346
807.14466	0.87044
805.09086	0.86715
803.03705	0.86391
800.98325	0.86075
798.92945	0.85836
796.87565	0.85761
794.82184	0.85829
792.76804	0.85911
790.71424	0.85932
788.66043	0.85945
786.60663	0.85982
784.55283	0.85965
782.49902	0.85896
780.44522	0.85872
778.39142	0.85864
776.33761	0.85860
774.28381	0.85892
772.23001	0.85895
770.17620	0.85855
768.12240	0.85822
766.06860	0.85779
764.01479	0.85677
761.96099	0.85534
759.90719	0.85343
757.85338	0.85083
755.79958	0.84827
753.74578	0.84591
751.69197	0.84326
749.63817	0.84095
747.58437	0.83979
745.53056	0.83968
743.47676	0.84022
741.42296	0.84130
739.36916	0.84276
737.31535	0.84248
735.26155	0.83415
733.20775	0.81017
731.15394	0.78067
729.10014	0.77231
727.04634	0.78521
724.99253	0.79140
722.93873	0.77273
720.88493	0.73225
718.83112	0.69971
716.77732	0.70400
714.72352	0.73556
712.66971	0.76848
710.61591	0.78909
708.56211	0.79847
706.50830	0.80182
704.45450	0.80169
702.40070	0.80011
700.34689	0.79849
698.29309	0.79680
696.23929	0.79522
694.18548	0.79430
692.13168	0.79407
690.07788	0.79458
688.02408	0.79615
685.97027	0.79804
683.91647	0.79894
681.86267	0.79885
679.80886	0.79807
677.75506	0.79661
675.70126	0.79470
673.64745	0.79160
671.59365	0.78763
669.53985	0.78544
667.48604	0.78934
665.43224	0.79640
663.37844	0.80185
661.32463	0.80539
659.27083	0.80711
657.21703	0.80855
655.16322	0.81001
653.10942	0.81011
651.05562	0.80946
649.00181	0.80920
646.94801	0.80871
644.89421	0.80810
642.84040	0.80759
640.78660	0.80752
638.73280	0.80807
636.67899	0.80842
634.62519	0.80821
632.57139	0.80796
630.51759	0.80820
628.46378	0.80862
626.40998	0.80875
624.35618	0.80805
622.30237	0.80559
620.24857	0.80193
618.19477	0.79914
616.14096	0.79782
614.08716	0.79608
612.03336	0.79298
609.97955	0.78949
607.92575	0.78598
605.87195	0.78298
603.81814	0.78127
601.76434	0.77986
599.71054	0.77746
597.65673	0.77490
595.60293	0.77313
593.54913	0.77154
591.49532	0.76983
589.44152	0.76826
587.38772	0.76669
585.33391	0.76520
583.28011	0.76417
581.22631	0.76276
579.17250	0.76093
577.11870	0.76000
575.06490	0.75930
573.01110	0.75723
570.95729	0.75421
568.90349	0.75117
566.84969	0.74703
564.79588	0.74211
562.74208	0.73844
560.68828	0.73533
558.63447	0.73057
556.58067	0.72448
554.52687	0.71961
552.47306	0.71597
550.41926	0.71083
548.36546	0.70334
546.31165	0.69592
544.25785	0.68964
542.20405	0.68282
540.15024	0.67457
538.09644	0.66670
536.04264	0.66135
533.98883	0.65848
531.93503	0.65766
529.88123	0.65953
527.82742	0.66409
525.77362	0.66882
523.71982	0.67232
521.66602	0.67520
519.61221	0.67900
517.55841	0.68509
515.50461	0.69135
513.45080	0.69584
511.39700	0.69930
509.34320	0.70317
507.28939	0.70618
505.23559	0.70747
503.18179	0.70920
501.12798	0.71152
499.07418	0.71299
497.02038	0.71341
494.96657	0.71359
492.91277	0.71253
490.85897	0.70806
488.80516	0.70150
486.75136	0.69498
484.69756	0.68597
482.64375	0.67350
480.58995	0.66147
478.53615	0.64943
476.48234	0.63354
474.42854	0.61459
472.37474	0.59666
470.32093	0.58396
468.26713	0.57706
466.21333	0.57423
464.15953	0.57743
462.10572	0.58766
460.05192	0.59895
457.99812	0.60674
455.94431	0.61144
453.89051	0.61276
451.83671	0.61253
449.78290	0.61766
447.72910	0.63035
445.67530	0.64291
443.62149	0.64745
441.56769	0.64517
439.51389	0.64095
437.46008	0.63777
435.40628	0.63744
433.35248	0.63925
431.29867	0.64079
429.24487	0.64045
427.19107	0.63879
425.13726	0.63938
423.08346	0.64393
421.02966	0.65027
418.97585	0.65962
416.92205	0.67005
414.86825	0.67783
412.81445	0.68643
410.76064	0.69493
408.70684	0.70178
406.65304	0.70901
404.59923	0.71327
402.54543	0.71459
400.49163	0.71737
398.43782	0.71466
