3996.70104	0.98066
3994.64724	0.98107
3992.59344	0.98139
3990.53964	0.98119
3988.48583	0.98110
3986.43203	0.98115
3984.37823	0.98062
3982.32442	0.98006
3980.27062	0.98024
3978.21682	0.98084
3976.16301	0.98161
3974.10921	0.98225
3972.05541	0.98215
3970.00160	0.98157
3967.94780	0.98142
3965.89400	0.98175
3963.84019	0.98177
3961.78639	0.98134
3959.73259	0.98079
3957.67878	0.98051
3955.62498	0.98073
3953.57118	0.98083
3951.51737	0.98088
3949.46357	0.98106
3947.40977	0.98077
3945.35596	0.98025
3943.30216	0.98025
3941.24836	0.98065
3939.19455	0.98099
3937.14075	0.98123
3935.08695	0.98123
3933.03315	0.98097
3930.97934	0.98074
3928.92554	0.98061
3926.87174	0.98056
3924.81793	0.98062
3922.76413	0.98092
3920.71033	0.98147
3918.65652	0.98187
3916.60272	0.98185
3914.54892	0.98180
3912.49511	0.98192
3910.44131	0.98195
3908.38751	0.98166
3906.33370	0.98110
3904.27990	0.98098
3902.22610	0.98149
3900.17229	0.98154
3898.11849	0.98121
3896.06469	0.98068
3894.01088	0.98036
3891.95708	0.98048
3889.90328	0.98033
3887.84947	0.98037
3885.79567	0.98121
3883.74187	0.98191
3881.68807	0.98240
3879.63426	0.98310
3877.58046	0.98273
3875.52666	0.98138
3873.47285	0.98056
3871.41905	0.98067
3869.36525	0.98081
3867.31144	0.98068
3865.25764	0.98070
3863.20384	0.98125
3861.15003	0.98203
3859.09623	0.98268
3857.04243	0.98282
3854.98862	0.98218
3852.93482	0.98169
3850.88102	0.98207
3848.82721	0.98205
3846.77341	0.98184
3844.71961	0.98188
3842.66580	0.98165
3840.61200	0.98092
3838.55820	0.98057
3836.50439	0.98081
3834.45059	0.98122
3832.39679	0.98161
3830.34298	0.98164
3828.28918	0.98162
3826.23538	0.98142
3824.18158	0.98086
3822.12777	0.98083
3820.07397	0.98128
3818.02017	0.98137
3815.96636	0.98181
3813.91256	0.98248
3811.85876	0.98275
3809.80495	0.98269
3807.75115	0.98215
3805.69735	0.98141
3803.64354	0.98107
3801.58974	0.98103
3799.53594	0.98080
3797.48213	0.98038
3795.42833	0.98033
3793.37453	0.98066
3791.32072	0.98117
3789.26692	0.98145
3787.21312	0.98151
3785.15931	0.98195
3783.10551	0.98213
3781.05171	0.98183
3778.99790	0.98201
3776.94410	0.98245
3774.89030	0.98247
3772.83650	0.98212
3770.78269	0.98167
3768.72889	0.98137
3766.67509	0.98124
3764.62128	0.98120
3762.56748	0.98133
3760.51368	0.98166
3758.45987	0.98189
3756.40607	0.98208
3754.35227	0.98258
3752.29846	0.98279
3750.24466	0.98241
3748.19086	0.98300
3746.13705	0.98397
3744.08325	0.98384
3742.02945	0.98280
3739.97564	0.98184
3737.92184	0.98108
3735.86804	0.98060
3733.81423	0.98002
3731.76043	0.97968
3729.70663	0.98040
3727.65282	0.98095
3725.59902	0.98057
3723.54522	0.98011
3721.49141	0.97926
3719.43761	0.97733
3717.38381	0.97495
3715.33001	0.97265
3713.27620	0.97044
3711.22240	0.96762
3709.16860	0.96421
3707.11479	0.96073
3705.06099	0.95625
3703.00719	0.95053
3700.95338	0.94539
3698.89958	0.94294
3696.84578	0.94275
3694.79197	0.94368
3692.73817	0.94538
3690.68437	0.94775
3688.63056	0.95011
3686.57676	0.95143
3684.52296	0.95226
3682.46915	0.95364
3680.41535	0.95521
3678.36155	0.95589
3676.30774	0.95520
3674.25394	0.95426
3672.20014	0.95420
3670.14633	0.95352
3668.09253	0.95203
3666.03873	0.95126
3663.98492	0.95057
3661.93112	0.94945
3659.87732	0.94858
3657.82352	0.94806
3655.76971	0.94679
3653.71591	0.94558
3651.66211	0.94533
3649.60830	0.94449
3647.55450	0.94289
3645.50070	0.94231
3643.44689	0.94240
3641.39309	0.94229
3639.33929	0.94161
3637.28548	0.94092
3635.23168	0.94004
3633.17788	0.93854
3631.12407	0.93715
3629.07027	0.93534
3627.01647	0.93256
3624.96266	0.93037
3622.90886	0.92886
3620.85506	0.92843
3618.80125	0.92969
3616.74745	0.93162
3614.69365	0.93300
3612.63984	0.93380
3610.58604	0.93420
3608.53224	0.93461
3606.47844	0.93481
3604.42463	0.93430
3602.37083	0.93330
3600.31703	0.93241
3598.26322	0.93242
3596.20942	0.93283
3594.15562	0.93280
3592.10181	0.93282
3590.04801	0.93287
3587.99421	0.93223
3585.94040	0.93124
3583.88660	0.93077
3581.83280	0.93054
3579.77899	0.93012
3577.72519	0.92962
3575.67139	0.92892
3573.61758	0.92759
3571.56378	0.92620
3569.50998	0.92530
3567.45617	0.92441
3565.40237	0.92355
3563.34857	0.92323
3561.29476	0.92261
3559.24096	0.92149
3557.18716	0.92060
3555.13335	0.91987
3553.07955	0.91877
3551.02575	0.91750
3548.97195	0.91683
3546.91814	0.91616
3544.86434	0.91487
3542.81054	0.91388
3540.75673	0.91341
3538.70293	0.91327
3536.64913	0.91341
3534.59532	0.91360
3532.54152	0.91366
3530.48772	0.91316
3528.43391	0.91211
3526.38011	0.91203
3524.32631	0.91301
3522.27250	0.91349
3520.21870	0.91337
3518.16490	0.91323
3516.11109	0.91312
3514.05729	0.91289
3512.00349	0.91253
3509.94968	0.91222
3507.89588	0.91180
3505.84208	0.91138
3503.78827	0.91126
3501.73447	0.91123
3499.68067	0.91108
3497.62687	0.91089
3495.57306	0.91093
3493.51926	0.91106
3491.46546	0.91041
3489.41165	0.90920
3487.35785	0.90825
3485.30405	0.90782
3483.25024	0.90791
3481.19644	0.90776
3479.14264	0.90706
3477.08883	0.90658
3475.03503	0.90648
3472.98123	0.90642
3470.92742	0.90622
3468.87362	0.90563
3466.81982	0.90479
3464.76601	0.90393
3462.71221	0.90316
3460.65841	0.90268
3458.60460	0.90230
3456.55080	0.90187
3454.49700	0.90128
3452.44319	0.90054
3450.38939	0.90025
3448.33559	0.90033
3446.28178	0.89993
3444.22798	0.89921
3442.17418	0.89869
3440.12038	0.89804
3438.06657	0.89691
3436.01277	0.89571
3433.95897	0.89490
3431.90516	0.89448
3429.85136	0.89443
3427.79756	0.89446
3425.74375	0.89372
3423.68995	0.89223
3421.63615	0.89111
3419.58234	0.89060
3417.52854	0.88982
3415.47474	0.88876
3413.42093	0.88804
3411.36713	0.88747
3409.31333	0.88678
3407.25952	0.88624
3405.20572	0.88607
3403.15192	0.88617
3401.09811	0.88595
3399.04431	0.88529
3396.99051	0.88472
3394.93670	0.88462
3392.88290	0.88499
3390.82910	0.88532
3388.77529	0.88554
3386.72149	0.88599
3384.66769	0.88632
3382.61389	0.88612
3380.56008	0.88603
3378.50628	0.88637
3376.45248	0.88662
3374.39867	0.88672
3372.34487	0.88708
3370.29107	0.88757
3368.23726	0.88785
3366.18346	0.88772
3364.12966	0.88735
3362.07585	0.88737
3360.02205	0.88776
3357.96825	0.88807
3355.91444	0.88823
3353.86064	0.88845
3351.80684	0.88891
3349.75303	0.88962
3347.69923	0.89032
3345.64543	0.89057
3343.59162	0.89042
3341.53782	0.89002
3339.48402	0.88965
3337.43021	0.88999
3335.37641	0.89074
3333.32261	0.89095
3331.26881	0.89049
3329.21500	0.89000
3327.16120	0.89004
3325.10740	0.89056
3323.05359	0.89099
3320.99979	0.89128
3318.94599	0.89155
3316.89218	0.89165
3314.83838	0.89170
3312.78458	0.89145
3310.73077	0.89108
3308.67697	0.89135
3306.62317	0.89219
3304.56936	0.89285
3302.51556	0.89277
3300.46176	0.89232
3298.40795	0.89216
3296.35415	0.89253
3294.30035	0.89319
3292.24654	0.89352
3290.19274	0.89322
3288.13894	0.89275
3286.08513	0.89275
3284.03133	0.89346
3281.97753	0.89450
3279.92372	0.89515
3277.86992	0.89525
3275.81612	0.89494
3273.76232	0.89454
3271.70851	0.89467
3269.65471	0.89523
3267.60091	0.89577
3265.54710	0.89604
3263.49330	0.89630
3261.43950	0.89702
3259.38569	0.89784
3257.33189	0.89807
3255.27809	0.89795
3253.22428	0.89836
3251.17048	0.89926
3249.11668	0.89978
3247.06287	0.89981
3245.00907	0.89986
3242.95527	0.90032
3240.90146	0.90110
3238.84766	0.90173
3236.79386	0.90240
3234.74005	0.90333
3232.68625	0.90393
3230.63245	0.90401
3228.57864	0.90401
3226.52484	0.90440
3224.47104	0.90526
3222.41724	0.90626
3220.36343	0.90702
3218.30963	0.90719
3216.25583	0.90721
3214.20202	0.90752
3212.14822	0.90787
3210.09442	0.90854
3208.04061	0.90949
3205.98681	0.91023
3203.93301	0.91091
3201.87920	0.91180
3199.82540	0.91264
3197.77160	0.91315
3195.71779	0.91354
3193.66399	0.91404
3191.61019	0.91455
3189.55638	0.91534
3187.50258	0.91634
3185.44878	0.91672
3183.39497	0.91695
3181.34117	0.91793
3179.28737	0.91886
3177.23356	0.91914
3175.17976	0.91952
3173.12596	0.92053
3171.07215	0.92132
3169.01835	0.92142
3166.96455	0.92177
3164.91075	0.92288
3162.85694	0.92408
3160.80314	0.92496
3158.74934	0.92556
3156.69553	0.92602
3154.64173	0.92655
3152.58793	0.92684
3150.53412	0.92709
3148.48032	0.92780
3146.42652	0.92878
3144.37271	0.92976
3142.31891	0.93061
3140.26511	0.93132
3138.21130	0.93173
3136.15750	0.93193
3134.10370	0.93235
3132.04989	0.93273
3129.99609	0.93310
3127.94229	0.93362
3125.88848	0.93404
3123.83468	0.93470
3121.78088	0.93561
3119.72707	0.93612
3117.67327	0.93637
3115.61947	0.93646
3113.56566	0.93632
3111.51186	0.93672
3109.45806	0.93786
3107.40426	0.93864
3105.35045	0.93863
3103.29665	0.93856
3101.24285	0.93904
3099.18904	0.93976
3097.13524	0.94011
3095.08144	0.94004
3093.02763	0.93993
3090.97383	0.94027
3088.92003	0.94066
3086.86622	0.94043
3084.81242	0.94004
3082.75862	0.93992
3080.70481	0.94010
3078.65101	0.94094
3076.59721	0.94205
3074.54340	0.94256
3072.48960	0.94280
3070.43580	0.94324
3068.38199	0.94348
3066.32819	0.94342
3064.27439	0.94363
3062.22058	0.94436
3060.16678	0.94502
3058.11298	0.94547
3056.05918	0.94594
3054.00537	0.94618
3051.95157	0.94625
3049.89777	0.94660
3047.84396	0.94708
3045.79016	0.94745
3043.73636	0.94769
3041.68255	0.94797
3039.62875	0.94852
3037.57495	0.94921
3035.52114	0.94936
3033.46734	0.94898
3031.41354	0.94901
3029.35973	0.94932
3027.30593	0.94947
3025.25213	0.94982
3023.19832	0.95031
3021.14452	0.95056
3019.09072	0.95073
3017.03691	0.95108
3014.98311	0.95131
3012.92931	0.95129
3010.87550	0.95133
3008.82170	0.95140
3006.76790	0.95125
3004.71409	0.95093
3002.66029	0.95082
3000.60649	0.95082
2998.55269	0.95063
2996.49888	0.95026
2994.44508	0.94990
2992.39128	0.94955
2990.33747	0.94894
2988.28367	0.94823
2986.22987	0.94772
2984.17606	0.94698
2982.12226	0.94585
2980.06846	0.94432
2978.01465	0.94247
2975.96085	0.94117
2973.90705	0.94039
2971.85324	0.93899
2969.79944	0.93675
2967.74564	0.93417
2965.69183	0.93150
2963.63803	0.92893
2961.58423	0.92617
2959.53042	0.92328
2957.47662	0.92082
2955.42282	0.91892
2953.36901	0.91753
2951.31521	0.91619
2949.26141	0.91439
2947.20761	0.91134
2945.15380	0.90643
2943.10000	0.89964
2941.04620	0.89094
2938.99239	0.88038
2936.93859	0.86770
2934.88479	0.85231
2932.83098	0.83443
2930.77718	0.81422
2928.72338	0.79083
2926.66957	0.76326
2924.61577	0.73123
2922.56197	0.69523
2920.50816	0.65719
2918.45436	0.62208
2916.40056	0.59830
2914.34675	0.59431
2912.29295	0.61120
2910.23915	0.64034
2908.18534	0.67110
2906.13154	0.69778
2904.07774	0.71911
2902.02393	0.73580
2899.97013	0.74934
2897.91633	0.76126
2895.86252	0.77249
2893.80872	0.78319
2891.75492	0.79390
2889.70112	0.80533
2887.64731	0.81697
2885.59351	0.82831
2883.53971	0.83960
2881.48590	0.85077
2879.43210	0.86144
2877.37830	0.87120
2875.32449	0.87967
2873.27069	0.88645
2871.21689	0.89094
2869.16308	0.89300
2867.10928	0.89267
2865.05548	0.88928
2863.00167	0.88197
2860.94787	0.86951
2858.89407	0.84950
2856.84026	0.81880
2854.78646	0.77527
2852.73266	0.72119
2850.67885	0.66807
2848.62505	0.63557
2846.57125	0.63771
2844.51744	0.67004
2842.46364	0.71610
2840.40984	0.76176
2838.35603	0.80031
2836.30223	0.83046
2834.24843	0.85355
2832.19463	0.87139
2830.14082	0.88534
2828.08702	0.89637
2826.03322	0.90540
2823.97941	0.91292
2821.92561	0.91873
2819.87181	0.92320
2817.81800	0.92708
2815.76420	0.93047
2813.71040	0.93335
2811.65659	0.93600
2809.60279	0.93860
2807.54899	0.94067
2805.49518	0.94197
2803.44138	0.94362
2801.38758	0.94607
2799.33377	0.94807
2797.27997	0.94918
2795.22617	0.95019
2793.17236	0.95143
2791.11856	0.95269
2789.06476	0.95373
2787.01095	0.95471
2784.95715	0.95575
2782.90335	0.95676
2780.84955	0.95772
2778.79574	0.95857
2776.74194	0.95918
2774.68814	0.95945
2772.63433	0.95964
2770.58053	0.96006
2768.52673	0.96063
2766.47292	0.96119
2764.41912	0.96166
2762.36532	0.96218
2760.31151	0.96265
2758.25771	0.96280
2756.20391	0.96293
2754.15010	0.96340
2752.09630	0.96400
2750.04250	0.96426
2747.98869	0.96434
2745.93489	0.96455
2743.88109	0.96475
2741.82728	0.96500
2739.77348	0.96519
2737.71968	0.96515
2735.66587	0.96532
2733.61207	0.96593
2731.55827	0.96636
2729.50446	0.96644
2727.45066	0.96653
2725.39686	0.96678
2723.34306	0.96714
2721.28925	0.96752
2719.23545	0.96781
2717.18165	0.96788
2715.12784	0.96786
2713.07404	0.96805
2711.02024	0.96839
2708.96643	0.96877
2706.91263	0.96909
2704.85883	0.96936
2702.80502	0.96948
2700.75122	0.96947
2698.69742	0.96942
2696.64361	0.96937
2694.58981	0.96964
2692.53601	0.97003
2690.48220	0.97022
2688.42840	0.97047
2686.37460	0.97069
2684.32079	0.97067
2682.26699	0.97075
2680.21319	0.97096
2678.15938	0.97090
2676.10558	0.97042
2674.05178	0.97002
2671.99797	0.97002
2669.94417	0.96994
2667.89037	0.96968
2665.83657	0.96964
2663.78276	0.96973
2661.72896	0.96968
2659.67516	0.96967
2657.62135	0.96998
2655.56755	0.97029
2653.51375	0.97014
2651.45994	0.96987
2649.40614	0.96993
2647.35234	0.97039
2645.29853	0.97094
2643.24473	0.97105
2641.19093	0.97062
2639.13712	0.97007
2637.08332	0.96982
2635.02952	0.96989
2632.97571	0.97030
2630.92191	0.97101
2628.86811	0.97171
2626.81430	0.97233
2624.76050	0.97271
2622.70670	0.97287
2620.65289	0.97337
2618.59909	0.97404
2616.54529	0.97425
2614.49149	0.97402
2612.43768	0.97382
2610.38388	0.97402
2608.33008	0.97426
2606.27627	0.97439
2604.22247	0.97474
2602.16867	0.97507
2600.11486	0.97509
2598.06106	0.97519
2596.00726	0.97583
2593.95345	0.97672
2591.89965	0.97702
2589.84585	0.97684
2587.79204	0.97722
2585.73824	0.97786
2583.68444	0.97772
2581.63063	0.97716
2579.57683	0.97707
2577.52303	0.97738
2575.46922	0.97798
2573.41542	0.97828
2571.36162	0.97759
2569.30781	0.97718
2567.25401	0.97797
2565.20021	0.97873
2563.14640	0.97868
2561.09260	0.97808
2559.03880	0.97745
2556.98500	0.97760
2554.93119	0.97850
2552.87739	0.97895
2550.82359	0.97879
2548.76978	0.97903
2546.71598	0.97957
2544.66218	0.97976
2542.60837	0.97984
2540.55457	0.98007
2538.50077	0.98024
2536.44696	0.98005
2534.39316	0.97957
2532.33936	0.97940
2530.28555	0.97966
2528.23175	0.97983
2526.17795	0.97974
2524.12414	0.97973
2522.07034	0.97994
2520.01654	0.98030
2517.96273	0.98037
2515.90893	0.98008
2513.85513	0.98009
2511.80132	0.98029
2509.74752	0.98007
2507.69372	0.97969
2505.63992	0.97965
2503.58611	0.97978
2501.53231	0.97978
2499.47851	0.97975
2497.42470	0.98022
2495.37090	0.98135
2493.31710	0.98205
2491.26329	0.98165
2489.20949	0.98123
2487.15569	0.98116
2485.10188	0.98084
2483.04808	0.98063
2480.99428	0.98094
2478.94047	0.98171
2476.88667	0.98248
2474.83287	0.98265
2472.77906	0.98279
2470.72526	0.98297
2468.67146	0.98217
2466.61765	0.98123
2464.56385	0.98135
2462.51005	0.98183
2460.45624	0.98195
2458.40244	0.98167
2456.34864	0.98129
2454.29483	0.98119
2452.24103	0.98110
2450.18723	0.98086
2448.13343	0.98089
2446.07962	0.98119
2444.02582	0.98141
2441.97202	0.98123
2439.91821	0.98084
2437.86441	0.98093
2435.81061	0.98147
2433.75680	0.98185
2431.70300	0.98185
2429.64920	0.98203
2427.59539	0.98285
2425.54159	0.98325
2423.48779	0.98228
2421.43398	0.98099
2419.38018	0.98073
2417.32638	0.98144
2415.27257	0.98204
2413.21877	0.98227
2411.16497	0.98279
2409.11116	0.98344
2407.05736	0.98333
2405.00356	0.98266
2402.94975	0.98231
2400.89595	0.98225
2398.84215	0.98234
2396.78834	0.98248
2394.73454	0.98245
2392.68074	0.98219
2390.62694	0.98195
2388.57313	0.98218
2386.51933	0.98232
2384.46553	0.98167
2382.41172	0.98112
2380.35792	0.98169
2378.30412	0.98236
2376.25031	0.98202
2374.19651	0.98152
2372.14271	0.98141
2370.08890	0.98107
2368.03510	0.98048
2365.98130	0.98067
2363.92749	0.98180
2361.87369	0.98247
2359.81989	0.98262
2357.76608	0.98240
2355.71228	0.98187
2353.65848	0.98215
2351.60467	0.98191
2349.55087	0.98054
2347.49707	0.97959
2345.44326	0.97922
2343.38946	0.97868
2341.33566	0.97790
2339.28186	0.97769
2337.22805	0.97895
2335.17425	0.98036
2333.12045	0.98057
2331.06664	0.98033
2329.01284	0.98004
2326.95904	0.97953
2324.90523	0.97903
2322.85143	0.97899
2320.79763	0.97951
2318.74382	0.98027
2316.69002	0.98094
2314.63622	0.98088
2312.58241	0.98041
2310.52861	0.98025
2308.47481	0.98042
2306.42100	0.98068
2304.36720	0.98070
2302.31340	0.98077
2300.25959	0.98125
2298.20579	0.98184
2296.15199	0.98179
2294.09818	0.98133
2292.04438	0.98135
2289.99058	0.98148
2287.93677	0.98103
2285.88297	0.97982
2283.82917	0.97872
2281.77537	0.97851
2279.72156	0.97871
2277.66776	0.97918
2275.61396	0.98011
2273.56015	0.98150
2271.50635	0.98266
2269.45255	0.98223
2267.39874	0.98149
2265.34494	0.98221
2263.29114	0.98290
2261.23733	0.98275
2259.18353	0.98267
2257.12973	0.98303
2255.07592	0.98371
2253.02212	0.98434
2250.96832	0.98451
2248.91451	0.98416
2246.86071	0.98389
2244.80691	0.98347
2242.75310	0.98218
2240.69930	0.98099
2238.64550	0.98137
2236.59169	0.98255
2234.53789	0.98288
2232.48409	0.98229
2230.43029	0.98103
2228.37648	0.98019
2226.32268	0.98139
2224.26888	0.98317
2222.21507	0.98390
2220.16127	0.98442
2218.10747	0.98505
2216.05366	0.98529
2213.99986	0.98460
2211.94606	0.98336
2209.89225	0.98309
2207.83845	0.98314
2205.78465	0.98252
2203.73084	0.98300
2201.67704	0.98449
2199.62324	0.98490
2197.56943	0.98524
2195.51563	0.98673
2193.46183	0.98736
2191.40802	0.98550
2189.35422	0.98295
2187.30042	0.98219
2185.24661	0.98221
2183.19281	0.98140
2181.13901	0.98203
2179.08520	0.98395
2177.03140	0.98344
2174.97760	0.98201
2172.92380	0.98350
2170.86999	0.98648
2168.81619	0.98758
2166.76239	0.98668
2164.70858	0.98570
2162.65478	0.98545
2160.60098	0.98672
2158.54717	0.98926
2156.49337	0.98980
2154.43957	0.98911
2152.38576	0.98952
2150.33196	0.98899
2148.27816	0.98822
2146.22435	0.98954
2144.17055	0.99056
2142.11675	0.98933
2140.06294	0.98753
2138.00914	0.98682
2135.95534	0.98629
2133.90153	0.98596
2131.84773	0.98663
2129.79393	0.98703
2127.74012	0.98625
2125.68632	0.98571
2123.63252	0.98634
2121.57871	0.98664
2119.52491	0.98584
2117.47111	0.98427
2115.41731	0.98294
2113.36350	0.98341
2111.30970	0.98479
2109.25590	0.98506
2107.20209	0.98476
2105.14829	0.98544
2103.09449	0.98613
2101.04068	0.98536
2098.98688	0.98421
2096.93308	0.98388
2094.87927	0.98378
2092.82547	0.98334
2090.77167	0.98301
2088.71786	0.98305
2086.66406	0.98313
2084.61026	0.98373
2082.55645	0.98519
2080.50265	0.98586
2078.44885	0.98485
2076.39504	0.98376
2074.34124	0.98350
2072.28744	0.98325
2070.23363	0.98290
2068.17983	0.98306
2066.12603	0.98361
2064.07223	0.98394
2062.01842	0.98399
2059.96462	0.98455
2057.91082	0.98504
2055.85701	0.98427
2053.80321	0.98328
2051.74941	0.98399
2049.69560	0.98648
2047.64180	0.98769
2045.58800	0.98719
2043.53419	0.98709
2041.48039	0.98554
2039.42659	0.98357
2037.37278	0.98341
2035.31898	0.98258
2033.26518	0.98136
2031.21137	0.98186
2029.15757	0.98351
2027.10377	0.98471
2025.04996	0.98481
2022.99616	0.98620
2020.94236	0.98834
2018.88855	0.98832
2016.83475	0.98864
2014.78095	0.99056
2012.72714	0.99076
2010.67334	0.98860
2008.61954	0.98695
2006.56574	0.98729
2004.51193	0.98690
2002.45813	0.98464
2000.40433	0.98354
1998.35052	0.98473
1996.29672	0.98563
1994.24292	0.98475
1992.18911	0.98420
1990.13531	0.98601
1988.08151	0.98857
1986.02770	0.98938
1983.97390	0.98817
1981.92010	0.98665
1979.86629	0.98590
1977.81249	0.98522
1975.75869	0.98486
1973.70488	0.98621
1971.65108	0.98795
1969.59728	0.98809
1967.54347	0.98729
1965.48967	0.98710
1963.43587	0.98782
1961.38206	0.98737
1959.32826	0.98594
1957.27446	0.98530
1955.22066	0.98410
1953.16685	0.98310
1951.11305	0.98468
1949.05925	0.98734
1947.00544	0.98724
1944.95164	0.98420
1942.89784	0.98245
1940.84403	0.98339
1938.79023	0.98340
1936.73643	0.98289
1934.68262	0.98479
1932.62882	0.98672
1930.57502	0.98610
1928.52121	0.98528
1926.46741	0.98530
1924.41361	0.98500
1922.35980	0.98513
1920.30600	0.98597
1918.25220	0.98617
1916.19839	0.98559
1914.14459	0.98551
1912.09079	0.98611
1910.03698	0.98577
1907.98318	0.98467
1905.92938	0.98464
1903.87557	0.98521
1901.82177	0.98479
1899.76797	0.98380
1897.71417	0.98352
1895.66036	0.98360
1893.60656	0.98370
1891.55276	0.98406
1889.49895	0.98458
1887.44515	0.98493
1885.39135	0.98476
1883.33754	0.98447
1881.28374	0.98464
1879.22994	0.98448
1877.17613	0.98354
1875.12233	0.98319
1873.06853	0.98351
1871.01472	0.98344
1868.96092	0.98343
1866.90712	0.98375
1864.85331	0.98352
1862.79951	0.98289
1860.74571	0.98258
1858.69190	0.98274
1856.63810	0.98310
1854.58430	0.98335
1852.53049	0.98369
1850.47669	0.98409
1848.42289	0.98404
1846.36908	0.98383
1844.31528	0.98375
1842.26148	0.98342
1840.20768	0.98297
1838.15387	0.98284
1836.10007	0.98299
1834.04627	0.98323
1831.99246	0.98349
1829.93866	0.98349
1827.88486	0.98302
1825.83105	0.98284
1823.77725	0.98331
1821.72345	0.98362
1819.66964	0.98374
1817.61584	0.98398
1815.56204	0.98356
1813.50823	0.98260
1811.45443	0.98208
1809.40063	0.98224
1807.34682	0.98263
1805.29302	0.98275
1803.23922	0.98255
1801.18541	0.98240
1799.13161	0.98239
1797.07781	0.98235
1795.02400	0.98238
1792.97020	0.98211
1790.91640	0.98143
1788.86260	0.98097
1786.80879	0.98046
1784.75499	0.97984
1782.70119	0.97955
1780.64738	0.97958
1778.59358	0.97943
1776.53978	0.97894
1774.48597	0.97855
1772.43217	0.97837
1770.37837	0.97784
1768.32456	0.97732
1766.27076	0.97714
1764.21696	0.97664
1762.16315	0.97553
1760.10935	0.97427
1758.05555	0.97330
1756.00174	0.97244
1753.94794	0.97111
1751.89414	0.96880
1749.84033	0.96578
1747.78653	0.96288
1745.73273	0.95988
1743.67892	0.95618
1741.62512	0.95205
1739.57132	0.94848
1737.51751	0.94649
1735.46371	0.94557
1733.40991	0.94438
1731.35611	0.94345
1729.30230	0.94325
1727.24850	0.94344
1725.19470	0.94387
1723.14089	0.94431
1721.08709	0.94443
1719.03329	0.94423
1716.97948	0.94429
1714.92568	0.94488
1712.87188	0.94532
1710.81807	0.94549
1708.76427	0.94567
1706.71047	0.94571
1704.65666	0.94541
1702.60286	0.94498
1700.54906	0.94358
1698.49525	0.94052
1696.44145	0.93720
1694.38765	0.93436
1692.33384	0.93234
1690.28004	0.92999
1688.22624	0.92740
1686.17243	0.92531
1684.11863	0.92189
1682.06483	0.91826
1680.01103	0.91636
1677.95722	0.91466
1675.90342	0.91195
1673.84962	0.90877
1671.79581	0.90639
1669.74201	0.90337
1667.68821	0.90016
1665.63440	0.89827
1663.58060	0.89619
1661.52680	0.89344
1659.47299	0.89157
1657.41919	0.89065
1655.36539	0.88975
1653.31158	0.88767
1651.25778	0.88618
1649.20398	0.88625
1647.15017	0.88597
1645.09637	0.88523
1643.04257	0.88503
1640.98876	0.88494
1638.93496	0.88484
1636.88116	0.88467
1634.82735	0.88397
1632.77355	0.88343
1630.71975	0.88342
1628.66594	0.88389
1626.61214	0.88471
1624.55834	0.88551
1622.50454	0.88643
1620.45073	0.88770
1618.39693	0.88951
1616.34313	0.89255
1614.28932	0.89599
1612.23552	0.89876
1610.18172	0.90134
1608.12791	0.90382
1606.07411	0.90589
1604.02031	0.90760
1601.96650	0.90907
1599.91270	0.91045
1597.85890	0.91203
1595.80509	0.91360
1593.75129	0.91483
1591.69749	0.91607
1589.64368	0.91762
1587.58988	0.91927
1585.53608	0.92091
1583.48227	0.92233
1581.42847	0.92342
1579.37467	0.92438
1577.32086	0.92529
1575.26706	0.92622
1573.21326	0.92709
1571.15945	0.92764
1569.10565	0.92780
1567.05185	0.92779
1564.99805	0.92787
1562.94424	0.92812
1560.89044	0.92819
1558.83664	0.92761
1556.78283	0.92778
1554.72903	0.92830
1552.67523	0.92831
1550.62142	0.92825
1548.56762	0.92839
1546.51382	0.92855
1544.46001	0.92836
1542.40621	0.92773
1540.35241	0.92761
1538.29860	0.92904
1536.24480	0.93042
1534.19100	0.93165
1532.13719	0.93349
1530.08339	0.93524
1528.02959	0.93642
1525.97578	0.93729
1523.92198	0.93800
1521.86818	0.93882
1519.81437	0.93988
1517.76057	0.94076
1515.70677	0.94193
1513.65297	0.94352
1511.59916	0.94511
1509.54536	0.94674
1507.49156	0.94859
1505.43775	0.94967
1503.38395	0.95002
1501.33015	0.95039
1499.27634	0.95050
1497.22254	0.95031
1495.16874	0.94997
1493.11493	0.94954
1491.06113	0.94877
1489.00733	0.94741
1486.95352	0.94605
1484.89972	0.94485
1482.84592	0.94266
1480.79211	0.93801
1478.73831	0.92839
1476.68451	0.90518
1474.63070	0.86128
1472.57690	0.81766
1470.52310	0.81036
1468.46929	0.82116
1466.41549	0.82624
1464.36169	0.82065
1462.30788	0.82035
1460.25408	0.83604
1458.20028	0.86189
1456.14648	0.88419
1454.09267	0.89430
1452.03887	0.90049
1449.98507	0.90539
1447.93126	0.90887
1445.87746	0.91129
1443.82366	0.91323
1441.76985	0.91498
1439.71605	0.91622
1437.66225	0.91698
1435.60844	0.91807
1433.55464	0.91972
1431.50084	0.92162
1429.44703	0.92352
1427.39323	0.92492
1425.33943	0.92596
1423.28562	0.92679
1421.23182	0.92709
1419.17802	0.92707
1417.12421	0.92742
1415.07041	0.92810
1413.01661	0.92852
1410.96280	0.92882
1408.90900	0.92929
1406.85520	0.92966
1404.80139	0.93001
1402.74759	0.93070
1400.69379	0.93140
1398.63999	0.93177
1396.58618	0.93180
1394.53238	0.93137
1392.47858	0.93104
1390.42477	0.93114
1388.37097	0.93120
1386.31717	0.93106
1384.26336	0.93107
1382.20956	0.93066
1380.15576	0.92924
1378.10195	0.92767
1376.04815	0.92698
1373.99435	0.92719
1371.94054	0.92762
1369.88674	0.92765
1367.83294	0.92760
1365.77913	0.92824
1363.72533	0.93003
1361.67153	0.93266
1359.61772	0.93475
1357.56392	0.93591
1355.51012	0.93662
1353.45631	0.93727
1351.40251	0.93811
1349.34871	0.93878
1347.29491	0.93911
1345.24110	0.93944
1343.18730	0.93985
1341.13350	0.94024
1339.07969	0.94070
1337.02589	0.94114
1334.97209	0.94157
1332.91828	0.94185
1330.86448	0.94155
1328.81068	0.94087
1326.75687	0.94013
1324.70307	0.93934
1322.64927	0.93867
1320.59546	0.93821
1318.54166	0.93767
1316.48786	0.93714
1314.43405	0.93680
1312.38025	0.93650
1310.32645	0.93616
1308.27264	0.93593
1306.21884	0.93580
1304.16504	0.93551
1302.11123	0.93510
1300.05743	0.93476
1298.00363	0.93438
1295.94982	0.93397
1293.89602	0.93347
1291.84222	0.93281
1289.78842	0.93207
1287.73461	0.93131
1285.68081	0.93033
1283.62701	0.92897
1281.57320	0.92751
1279.51940	0.92629
1277.46560	0.92516
1275.41179	0.92377
1273.35799	0.92229
1271.30419	0.92097
1269.25038	0.91943
1267.19658	0.91768
1265.14278	0.91630
1263.08897	0.91535
1261.03517	0.91460
1258.98137	0.91434
1256.92756	0.91461
1254.87376	0.91494
1252.81996	0.91513
1250.76615	0.91524
1248.71235	0.91512
1246.65855	0.91466
1244.60474	0.91417
1242.55094	0.91392
1240.49714	0.91357
1238.44334	0.91282
1236.38953	0.91186
1234.33573	0.91080
1232.28193	0.90967
1230.22812	0.90890
1228.17432	0.90876
1226.12052	0.90881
1224.06671	0.90855
1222.01291	0.90812
1219.95911	0.90768
1217.90530	0.90711
1215.85150	0.90652
1213.79770	0.90585
1211.74389	0.90477
1209.69009	0.90330
1207.63629	0.90176
1205.58248	0.90015
1203.52868	0.89828
1201.47488	0.89606
1199.42107	0.89353
1197.36727	0.89096
1195.31347	0.88860
1193.25966	0.88637
1191.20586	0.88395
1189.15206	0.88115
1187.09825	0.87807
1185.04445	0.87476
1182.99065	0.87097
1180.93685	0.86663
1178.88304	0.86199
1176.82924	0.85728
1174.77544	0.85255
1172.72163	0.84781
1170.66783	0.84323
1168.61403	0.83877
1166.56022	0.83457
1164.50642	0.83101
1162.45262	0.82784
1160.39881	0.82457
1158.34501	0.82136
1156.29121	0.81838
1154.23740	0.81549
1152.18360	0.81252
1150.12980	0.80943
1148.07599	0.80637
1146.02219	0.80309
1143.96839	0.79951
1141.91458	0.79629
1139.86078	0.79369
1137.80698	0.79132
1135.75317	0.78865
1133.69937	0.78555
1131.64557	0.78179
1129.59176	0.77698
1127.53796	0.77132
1125.48416	0.76516
1123.43036	0.75860
1121.37655	0.75152
1119.32275	0.74424
1117.26895	0.73779
1115.21514	0.73261
1113.16134	0.72821
1111.10754	0.72422
1109.05373	0.72029
1106.99993	0.71614
1104.94613	0.71204
1102.89232	0.70843
1100.83852	0.70525
1098.78472	0.70234
1096.73091	0.69970
1094.67711	0.69705
1092.62331	0.69424
1090.56950	0.69207
1088.51570	0.69085
1086.46190	0.68986
1084.40809	0.68874
1082.35429	0.68753
1080.30049	0.68625
1078.24668	0.68476
1076.19288	0.68267
1074.13908	0.67988
1072.08528	0.67648
1070.03147	0.67290
1067.97767	0.66905
1065.92387	0.66437
1063.87006	0.65896
1061.81626	0.65315
1059.76246	0.64725
1057.70865	0.64108
1055.65485	0.63401
1053.60105	0.62609
1051.54724	0.61779
1049.49344	0.60923
1047.43964	0.60062
1045.38583	0.59225
1043.33203	0.58409
1041.27823	0.57618
1039.22442	0.56876
1037.17062	0.56196
1035.11682	0.55616
1033.06301	0.55181
1031.00921	0.54903
1028.95541	0.54783
1026.90160	0.54785
1024.84780	0.54845
1022.79400	0.54921
1020.74019	0.54992
1018.68639	0.55035
1016.63259	0.55048
1014.57879	0.55053
1012.52498	0.55050
1010.47118	0.55059
1008.41738	0.55123
1006.36357	0.55276
1004.30977	0.55574
1002.25597	0.56060
1000.20216	0.56708
998.14836	0.57476
996.09456	0.58363
994.04075	0.59309
991.98695	0.60258
989.93315	0.61251
987.87934	0.62328
985.82554	0.63453
983.77174	0.64571
981.71793	0.65664
979.66413	0.66703
977.61033	0.67695
975.55652	0.68711
973.50272	0.69738
971.44892	0.70691
969.39511	0.71558
967.34131	0.72381
965.28751	0.73159
963.23371	0.73884
961.17990	0.74576
959.12610	0.75231
957.07230	0.75843
955.01849	0.76392
952.96469	0.76843
950.91089	0.77227
948.85708	0.77593
946.80328	0.77924
944.74948	0.78163
942.69567	0.78350
940.64187	0.78542
938.58807	0.78711
936.53426	0.78852
934.48046	0.78990
932.42666	0.79137
930.37285	0.79304
928.31905	0.79437
926.26525	0.79467
924.21144	0.79418
922.15764	0.79299
920.10384	0.79101
918.05003	0.78862
915.99623	0.78603
913.94243	0.78383
911.88862	0.78346
909.83482	0.78610
907.78102	0.79189
905.72722	0.79994
903.67341	0.80894
901.61961	0.81790
899.56581	0.82602
897.51200	0.83281
895.45820	0.83822
893.40440	0.84255
891.35059	0.84648
889.29679	0.84998
887.24299	0.85272
885.18918	0.85479
883.13538	0.85627
881.08158	0.85739
879.02777	0.85852
876.97397	0.85958
874.92017	0.86069
872.86636	0.86232
870.81256	0.86455
868.75876	0.86706
866.70495	0.86953
864.65115	0.87239
862.59735	0.87585
860.54354	0.87874
858.48974	0.88081
856.43594	0.88306
854.38213	0.88510
852.32833	0.88670
850.27453	0.88833
848.22073	0.88936
846.16692	0.88979
844.11312	0.89038
842.05932	0.89055
840.00551	0.88964
837.95171	0.88853
835.89791	0.88770
833.84410	0.88678
831.79030	0.88584
829.73650	0.88485
827.68269	0.88350
825.62889	0.88211
823.57509	0.88142
821.52128	0.88111
819.46748	0.87989
817.41368	0.87790
815.35987	0.87661
813.30607	0.87603
811.25227	0.87457
809.19846	0.87169
807.14466	0.86770
805.09086	0.86269
803.03705	0.85754
800.98325	0.85335
798.92945	0.85072
796.87565	0.84986
794.82184	0.85045
792.76804	0.85132
790.71424	0.85170
788.66043	0.85142
786.60663	0.85047
784.55283	0.84955
782.49902	0.84890
780.44522	0.84876
778.39142	0.84885
776.33761	0.84873
774.28381	0.84935
772.23001	0.85029
770.17620	0.85017
768.12240	0.84928
766.06860	0.84804
764.01479	0.84605
761.96099	0.84348
759.90719	0.84081
757.85338	0.83844
755.79958	0.83675
753.74578	0.83556
751.69197	0.83499
749.63817	0.83489
747.58437	0.83449
745.53056	0.83377
743.47676	0.83381
741.42296	0.83508
739.36916	0.83615
737.31535	0.83472
735.26155	0.82658
733.20775	0.80559
731.15394	0.78011
729.10014	0.77195
727.04634	0.77961
724.99253	0.78039
722.93873	0.76148
720.88493	0.72548
718.83112	0.69432
716.77732	0.69273
714.72352	0.71935
712.66971	0.75345
710.61591	0.77774
708.56211	0.78954
706.50830	0.79333
704.45450	0.79280
702.40070	0.79053
700.34689	0.78813
698.29309	0.78585
696.23929	0.78383
694.18548	0.78278
692.13168	0.78271
690.07788	0.78280
688.02408	0.78289
685.97027	0.78327
683.91647	0.78328
681.86267	0.78269
679.80886	0.78224
677.75506	0.78190
675.70126	0.78110
673.64745	0.78036
671.59365	0.78053
669.53985	0.78171
667.48604	0.78431
665.43224	0.78726
663.37844	0.78964
661.32463	0.79168
659.27083	0.79354
657.21703	0.79477
655.16322	0.79487
653.10942	0.79387
651.05562	0.79236
649.00181	0.79142
646.94801	0.79120
644.89421	0.79123
642.84040	0.79153
640.78660	0.79210
638.73280	0.79264
636.67899	0.79258
634.62519	0.79149
632.57139	0.78967
630.51759	0.78808
628.46378	0.78698
626.40998	0.78537
624.35618	0.78342
622.30237	0.78219
620.24857	0.78092
618.19477	0.77837
616.14096	0.77482
614.08716	0.77229
612.03336	0.77083
609.97955	0.76816
607.92575	0.76385
605.87195	0.75957
603.81814	0.75636
601.76434	0.75370
599.71054	0.75250
597.65673	0.75344
595.60293	0.75366
593.54913	0.75115
591.49532	0.74764
589.44152	0.74510
587.38772	0.74330
585.33391	0.74130
583.28011	0.73823
581.22631	0.73585
579.17250	0.73576
577.11870	0.73543
575.06490	0.73296
573.01110	0.73060
570.95729	0.73046
568.90349	0.72941
566.84969	0.72537
564.79588	0.72134
562.74208	0.71804
560.68828	0.71453
558.63447	0.71091
556.58067	0.70718
554.52687	0.70341
552.47306	0.69943
550.41926	0.69534
548.36546	0.69172
546.31165	0.68794
544.25785	0.68221
542.20405	0.67498
540.15024	0.66865
538.09644	0.66394
536.04264	0.66069
533.98883	0.65827
531.93503	0.65649
529.88123	0.65636
527.82742	0.65773
525.77362	0.66091
523.71982	0.66577
521.66602	0.66997
519.61221	0.67296
517.55841	0.67575
515.50461	0.67949
513.45080	0.68423
511.39700	0.68896
509.34320	0.69291
507.28939	0.69664
505.23559	0.69976
503.18179	0.70047
501.12798	0.69970
499.07418	0.69968
497.02038	0.70093
494.96657	0.70204
492.91277	0.70223
490.85897	0.70075
488.80516	0.69611
486.75136	0.68987
484.69756	0.68295
482.64375	0.67525
480.58995	0.66539
478.53615	0.65192
476.48234	0.63762
474.42854	0.62557
472.37474	0.61535
470.32093	0.60531
468.26713	0.59646
466.21333	0.59193
464.15953	0.59300
462.10572	0.59903
460.05192	0.60798
457.99812	0.61703
455.94431	0.62378
453.89051	0.62717
451.83671	0.62961
449.78290	0.63432
447.72910	0.64096
445.67530	0.64672
443.62149	0.65066
441.56769	0.65130
439.51389	0.64817
437.46008	0.64516
435.40628	0.64166
433.35248	0.63624
431.29867	0.63283
429.24487	0.63264
427.19107	0.63477
425.13726	0.64009
423.08346	0.64403
421.02966	0.64204
418.97585	0.64345
416.92205	0.65727
414.86825	0.67142
412.81445	0.68039
410.76064	0.68560
408.70684	0.69284
406.65304	0.70522
404.59923	0.71844
402.54543	0.72821
400.49163	0.73211
398.43782	0.72627
