3996.70104	0.98355
3994.64724	0.98376
3992.59344	0.98398
3990.53964	0.98422
3988.48583	0.98415
3986.43203	0.98389
3984.37823	0.98353
3982.32442	0.98256
3980.27062	0.98189
3978.21682	0.98266
3976.16301	0.98349
3974.10921	0.98306
3972.05541	0.98213
3970.00160	0.98162
3967.94780	0.98216
3965.89400	0.98349
3963.84019	0.98417
3961.78639	0.98362
3959.73259	0.98269
3957.67878	0.98220
3955.62498	0.98228
3953.57118	0.98264
3951.51737	0.98311
3949.46357	0.98333
3947.40977	0.98346
3945.35596	0.98382
3943.30216	0.98373
3941.24836	0.98324
3939.19455	0.98326
3937.14075	0.98352
3935.08695	0.98346
3933.03315	0.98357
3930.97934	0.98372
3928.92554	0.98316
3926.87174	0.98252
3924.81793	0.98255
3922.76413	0.98326
3920.71033	0.98383
3918.65652	0.98373
3916.60272	0.98349
3914.54892	0.98360
3912.49511	0.98376
3910.44131	0.98376
3908.38751	0.98358
3906.33370	0.98333
3904.27990	0.98311
3902.22610	0.98284
3900.17229	0.98274
3898.11849	0.98286
3896.06469	0.98302
3894.01088	0.98333
3891.95708	0.98390
3889.90328	0.98410
3887.84947	0.98341
3885.79567	0.98272
3883.74187	0.98313
3881.68807	0.98408
3879.63426	0.98427
3877.58046	0.98342
3875.52666	0.98286
3873.47285	0.98302
3871.41905	0.98303
3869.36525	0.98285
3867.31144	0.98293
3865.25764	0.98314
3863.20384	0.98347
3861.15003	0.98361
3859.09623	0.98338
3857.04243	0.98282
3854.98862	0.98191
3852.93482	0.98179
3850.88102	0.98278
3848.82721	0.98291
3846.77341	0.98248
3844.71961	0.98232
3842.66580	0.98254
3840.61200	0.98299
3838.55820	0.98326
3836.50439	0.98332
3834.45059	0.98364
3832.39679	0.98388
3830.34298	0.98380
3828.28918	0.98358
3826.23538	0.98320
3824.18158	0.98274
3822.12777	0.98275
3820.07397	0.98353
3818.02017	0.98383
3815.96636	0.98370
3813.91256	0.98419
3811.85876	0.98475
3809.80495	0.98456
3807.75115	0.98385
3805.69735	0.98322
3803.64354	0.98302
3801.58974	0.98326
3799.53594	0.98309
3797.48213	0.98303
3795.42833	0.98374
3793.37453	0.98407
3791.32072	0.98363
3789.26692	0.98347
3787.21312	0.98411
3785.15931	0.98454
3783.10551	0.98416
3781.05171	0.98387
3778.99790	0.98417
3776.94410	0.98425
3774.89030	0.98360
3772.83650	0.98295
3770.78269	0.98294
3768.72889	0.98345
3766.67509	0.98427
3764.62128	0.98502
3762.56748	0.98508
3760.51368	0.98479
3758.45987	0.98446
3756.40607	0.98421
3754.35227	0.98381
3752.29846	0.98281
3750.24466	0.98206
3748.19086	0.98266
3746.13705	0.98367
3744.08325	0.98456
3742.02945	0.98442
3739.97564	0.98396
3737.92184	0.98367
3735.86804	0.98300
3733.81423	0.98304
3731.76043	0.98377
3729.70663	0.98409
3727.65282	0.98419
3725.59902	0.98358
3723.54522	0.98260
3721.49141	0.98243
3719.43761	0.98246
3717.38381	0.98206
3715.33001	0.98172
3713.27620	0.98110
3711.22240	0.97945
3709.16860	0.97800
3707.11479	0.97740
3705.06099	0.97643
3703.00719	0.97479
3700.95338	0.97341
3698.89958	0.97309
3696.84578	0.97335
3694.79197	0.97345
3692.73817	0.97375
3690.68437	0.97483
3688.63056	0.97541
3686.57676	0.97522
3684.52296	0.97582
3682.46915	0.97645
3680.41535	0.97594
3678.36155	0.97478
3676.30774	0.97413
3674.25394	0.97430
3672.20014	0.97441
3670.14633	0.97415
3668.09253	0.97380
3666.03873	0.97349
3663.98492	0.97321
3661.93112	0.97321
3659.87732	0.97336
3657.82352	0.97315
3655.76971	0.97271
3653.71591	0.97261
3651.66211	0.97315
3649.60830	0.97414
3647.55450	0.97359
3645.50070	0.97197
3643.44689	0.97105
3641.39309	0.97092
3639.33929	0.97097
3637.28548	0.97001
3635.23168	0.96843
3633.17788	0.96775
3631.12407	0.96757
3629.07027	0.96707
3627.01647	0.96683
3624.96266	0.96704
3622.90886	0.96707
3620.85506	0.96680
3618.80125	0.96670
3616.74745	0.96674
3614.69365	0.96677
3612.63984	0.96686
3610.58604	0.96690
3608.53224	0.96696
3606.47844	0.96682
3604.42463	0.96658
3602.37083	0.96654
3600.31703	0.96618
3598.26322	0.96548
3596.20942	0.96532
3594.15562	0.96597
3592.10181	0.96667
3590.04801	0.96652
3587.99421	0.96561
3585.94040	0.96499
3583.88660	0.96473
3581.83280	0.96438
3579.77899	0.96445
3577.72519	0.96487
3575.67139	0.96529
3573.61758	0.96566
3571.56378	0.96526
3569.50998	0.96400
3567.45617	0.96290
3565.40237	0.96271
3563.34857	0.96237
3561.29476	0.96147
3559.24096	0.96058
3557.18716	0.96022
3555.13335	0.96018
3553.07955	0.95979
3551.02575	0.95968
3548.97195	0.96041
3546.91814	0.96081
3544.86434	0.96038
3542.81054	0.96001
3540.75673	0.96000
3538.70293	0.95991
3536.64913	0.95934
3534.59532	0.95848
3532.54152	0.95818
3530.48772	0.95841
3528.43391	0.95852
3526.38011	0.95831
3524.32631	0.95796
3522.27250	0.95755
3520.21870	0.95707
3518.16490	0.95673
3516.11109	0.95667
3514.05729	0.95680
3512.00349	0.95672
3509.94968	0.95641
3507.89588	0.95605
3505.84208	0.95535
3503.78827	0.95430
3501.73447	0.95350
3499.68067	0.95322
3497.62687	0.95328
3495.57306	0.95360
3493.51926	0.95369
3491.46546	0.95312
3489.41165	0.95249
3487.35785	0.95221
3485.30405	0.95225
3483.25024	0.95267
3481.19644	0.95267
3479.14264	0.95190
3477.08883	0.95143
3475.03503	0.95143
3472.98123	0.95142
3470.92742	0.95132
3468.87362	0.95078
3466.81982	0.94999
3464.76601	0.94955
3462.71221	0.94909
3460.65841	0.94857
3458.60460	0.94819
3456.55080	0.94773
3454.49700	0.94740
3452.44319	0.94718
3450.38939	0.94705
3448.33559	0.94709
3446.28178	0.94702
3444.22798	0.94676
3442.17418	0.94643
3440.12038	0.94628
3438.06657	0.94635
3436.01277	0.94615
3433.95897	0.94558
3431.90516	0.94488
3429.85136	0.94440
3427.79756	0.94445
3425.74375	0.94467
3423.68995	0.94456
3421.63615	0.94412
3419.58234	0.94367
3417.52854	0.94330
3415.47474	0.94307
3413.42093	0.94298
3411.36713	0.94265
3409.31333	0.94240
3407.25952	0.94295
3405.20572	0.94337
3403.15192	0.94263
3401.09811	0.94162
3399.04431	0.94114
3396.99051	0.94076
3394.93670	0.94034
3392.88290	0.94034
3390.82910	0.94098
3388.77529	0.94172
3386.72149	0.94193
3384.66769	0.94163
3382.61389	0.94099
3380.56008	0.94047
3378.50628	0.94066
3376.45248	0.94144
3374.39867	0.94208
3372.34487	0.94187
3370.29107	0.94090
3368.23726	0.94013
3366.18346	0.94020
3364.12966	0.94057
3362.07585	0.94048
3360.02205	0.94019
3357.96825	0.94003
3355.91444	0.93987
3353.86064	0.93979
3351.80684	0.94007
3349.75303	0.94072
3347.69923	0.94107
3345.64543	0.94071
3343.59162	0.94013
3341.53782	0.93973
3339.48402	0.93946
3337.43021	0.93925
3335.37641	0.93943
3333.32261	0.93994
3331.26881	0.93984
3329.21500	0.93939
3327.16120	0.93962
3325.10740	0.94019
3323.05359	0.93999
3320.99979	0.93929
3318.94599	0.93932
3316.89218	0.93974
3314.83838	0.93974
3312.78458	0.93960
3310.73077	0.93936
3308.67697	0.93919
3306.62317	0.93946
3304.56936	0.93957
3302.51556	0.93932
3300.46176	0.93918
3298.40795	0.93905
3296.35415	0.93882
3294.30035	0.93896
3292.24654	0.93946
3290.19274	0.93967
3288.13894	0.93970
3286.08513	0.94015
3284.03133	0.94072
3281.97753	0.94108
3279.92372	0.94128
3277.86992	0.94096
3275.81612	0.94028
3273.76232	0.93992
3271.70851	0.94002
3269.65471	0.94031
3267.60091	0.94079
3265.54710	0.94151
3263.49330	0.94205
3261.43950	0.94210
3259.38569	0.94198
3257.33189	0.94206
3255.27809	0.94223
3253.22428	0.94236
3251.17048	0.94246
3249.11668	0.94259
3247.06287	0.94312
3245.00907	0.94393
3242.95527	0.94421
3240.90146	0.94389
3238.84766	0.94390
3236.79386	0.94453
3234.74005	0.94533
3232.68625	0.94579
3230.63245	0.94559
3228.57864	0.94486
3226.52484	0.94425
3224.47104	0.94440
3222.41724	0.94495
3220.36343	0.94517
3218.30963	0.94551
3216.25583	0.94636
3214.20202	0.94704
3212.14822	0.94727
3210.09442	0.94744
3208.04061	0.94787
3205.98681	0.94830
3203.93301	0.94843
3201.87920	0.94852
3199.82540	0.94859
3197.77160	0.94872
3195.71779	0.94903
3193.66399	0.94934
3191.61019	0.94953
3189.55638	0.94975
3187.50258	0.95010
3185.44878	0.95050
3183.39497	0.95072
3181.34117	0.95070
3179.28737	0.95083
3177.23356	0.95098
3175.17976	0.95113
3173.12596	0.95146
3171.07215	0.95157
3169.01835	0.95174
3166.96455	0.95212
3164.91075	0.95227
3162.85694	0.95261
3160.80314	0.95321
3158.74934	0.95354
3156.69553	0.95361
3154.64173	0.95360
3152.58793	0.95373
3150.53412	0.95392
3148.48032	0.95411
3146.42652	0.95462
3144.37271	0.95520
3142.31891	0.95562
3140.26511	0.95588
3138.21130	0.95587
3136.15750	0.95609
3134.10370	0.95658
3132.04989	0.95666
3129.99609	0.95630
3127.94229	0.95614
3125.88848	0.95650
3123.83468	0.95695
3121.78088	0.95716
3119.72707	0.95749
3117.67327	0.95818
3115.61947	0.95866
3113.56566	0.95876
3111.51186	0.95901
3109.45806	0.95904
3107.40426	0.95877
3105.35045	0.95894
3103.29665	0.95955
3101.24285	0.96033
3099.18904	0.96063
3097.13524	0.96034
3095.08144	0.96031
3093.02763	0.96057
3090.97383	0.96059
3088.92003	0.96051
3086.86622	0.96045
3084.81242	0.96025
3082.75862	0.96053
3080.70481	0.96137
3078.65101	0.96184
3076.59721	0.96185
3074.54340	0.96203
3072.48960	0.96234
3070.43580	0.96237
3068.38199	0.96232
3066.32819	0.96229
3064.27439	0.96207
3062.22058	0.96176
3060.16678	0.96193
3058.11298	0.96297
3056.05918	0.96404
3054.00537	0.96418
3051.95157	0.96385
3049.89777	0.96370
3047.84396	0.96366
3045.79016	0.96381
3043.73636	0.96408
3041.68255	0.96430
3039.62875	0.96457
3037.57495	0.96470
3035.52114	0.96479
3033.46734	0.96499
3031.41354	0.96510
3029.35973	0.96527
3027.30593	0.96558
3025.25213	0.96565
3023.19832	0.96535
3021.14452	0.96506
3019.09072	0.96526
3017.03691	0.96603
3014.98311	0.96668
3012.92931	0.96675
3010.87550	0.96669
3008.82170	0.96671
3006.76790	0.96655
3004.71409	0.96644
3002.66029	0.96661
3000.60649	0.96677
2998.55269	0.96667
2996.49888	0.96643
2994.44508	0.96624
2992.39128	0.96624
2990.33747	0.96641
2988.28367	0.96648
2986.22987	0.96641
2984.17606	0.96617
2982.12226	0.96561
2980.06846	0.96532
2978.01465	0.96560
2975.96085	0.96549
2973.90705	0.96458
2971.85324	0.96354
2969.79944	0.96256
2967.74564	0.96149
2965.69183	0.96051
2963.63803	0.95959
2961.58423	0.95842
2959.53042	0.95709
2957.47662	0.95570
2955.42282	0.95433
2953.36901	0.95300
2951.31521	0.95143
2949.26141	0.94944
2947.20761	0.94715
2945.15380	0.94505
2943.10000	0.94351
2941.04620	0.94184
2938.99239	0.93926
2936.93859	0.93629
2934.88479	0.93369
2932.83098	0.93135
2930.77718	0.92921
2928.72338	0.92752
2926.66957	0.92644
2924.61577	0.92598
2922.56197	0.92589
2920.50816	0.92611
2918.45436	0.92702
2916.40056	0.92880
2914.34675	0.93108
2912.29295	0.93328
2910.23915	0.93503
2908.18534	0.93662
2906.13154	0.93815
2904.07774	0.93938
2902.02393	0.94077
2899.97013	0.94269
2897.91633	0.94443
2895.86252	0.94578
2893.80872	0.94735
2891.75492	0.94900
2889.70112	0.95024
2887.64731	0.95125
2885.59351	0.95247
2883.53971	0.95379
2881.48590	0.95454
2879.43210	0.95469
2877.37830	0.95475
2875.32449	0.95455
2873.27069	0.95378
2871.21689	0.95277
2869.16308	0.95171
2867.10928	0.95045
2865.05548	0.94889
2863.00167	0.94692
2860.94787	0.94457
2858.89407	0.94222
2856.84026	0.94016
2854.78646	0.93860
2852.73266	0.93792
2850.67885	0.93829
2848.62505	0.93998
2846.57125	0.94309
2844.51744	0.94683
2842.46364	0.95005
2840.40984	0.95236
2838.35603	0.95454
2836.30223	0.95702
2834.24843	0.95900
2832.19463	0.96010
2830.14082	0.96091
2828.08702	0.96173
2826.03322	0.96227
2823.97941	0.96273
2821.92561	0.96347
2819.87181	0.96400
2817.81800	0.96416
2815.76420	0.96452
2813.71040	0.96515
2811.65659	0.96582
2809.60279	0.96600
2807.54899	0.96587
2805.49518	0.96608
2803.44138	0.96637
2801.38758	0.96648
2799.33377	0.96686
2797.27997	0.96765
2795.22617	0.96811
2793.17236	0.96777
2791.11856	0.96723
2789.06476	0.96745
2787.01095	0.96816
2784.95715	0.96867
2782.90335	0.96903
2780.84955	0.96915
2778.79574	0.96911
2776.74194	0.96933
2774.68814	0.96951
2772.63433	0.96942
2770.58053	0.96957
2768.52673	0.97007
2766.47292	0.97012
2764.41912	0.96974
2762.36532	0.96970
2760.31151	0.96975
2758.25771	0.96967
2756.20391	0.96987
2754.15010	0.97031
2752.09630	0.97072
2750.04250	0.97101
2747.98869	0.97107
2745.93489	0.97092
2743.88109	0.97079
2741.82728	0.97070
2739.77348	0.97061
2737.71968	0.97057
2735.66587	0.97063
2733.61207	0.97078
2731.55827	0.97099
2729.50446	0.97128
2727.45066	0.97143
2725.39686	0.97133
2723.34306	0.97126
2721.28925	0.97119
2719.23545	0.97111
2717.18165	0.97118
2715.12784	0.97117
2713.07404	0.97106
2711.02024	0.97112
2708.96643	0.97131
2706.91263	0.97138
2704.85883	0.97129
2702.80502	0.97123
2700.75122	0.97137
2698.69742	0.97180
2696.64361	0.97222
2694.58981	0.97218
2692.53601	0.97166
2690.48220	0.97133
2688.42840	0.97147
2686.37460	0.97169
2684.32079	0.97173
2682.26699	0.97168
2680.21319	0.97173
2678.15938	0.97195
2676.10558	0.97213
2674.05178	0.97217
2671.99797	0.97213
2669.94417	0.97190
2667.89037	0.97161
2665.83657	0.97154
2663.78276	0.97169
2661.72896	0.97188
2659.67516	0.97214
2657.62135	0.97259
2655.56755	0.97300
2653.51375	0.97296
2651.45994	0.97266
2649.40614	0.97221
2647.35234	0.97174
2645.29853	0.97170
2643.24473	0.97194
2641.19093	0.97212
2639.13712	0.97196
2637.08332	0.97153
2635.02952	0.97158
2632.97571	0.97203
2630.92191	0.97227
2628.86811	0.97241
2626.81430	0.97254
2624.76050	0.97249
2622.70670	0.97239
2620.65289	0.97241
2618.59909	0.97250
2616.54529	0.97282
2614.49149	0.97331
2612.43768	0.97347
2610.38388	0.97331
2608.33008	0.97324
2606.27627	0.97332
2604.22247	0.97365
2602.16867	0.97397
2600.11486	0.97384
2598.06106	0.97335
2596.00726	0.97300
2593.95345	0.97313
2591.89965	0.97335
2589.84585	0.97371
2587.79204	0.97413
2585.73824	0.97426
2583.68444	0.97459
2581.63063	0.97487
2579.57683	0.97462
2577.52303	0.97444
2575.46922	0.97454
2573.41542	0.97476
2571.36162	0.97507
2569.30781	0.97505
2567.25401	0.97447
2565.20021	0.97401
2563.14640	0.97436
2561.09260	0.97515
2559.03880	0.97565
2556.98500	0.97559
2554.93119	0.97549
2552.87739	0.97565
2550.82359	0.97559
2548.76978	0.97520
2546.71598	0.97458
2544.66218	0.97438
2542.60837	0.97505
2540.55457	0.97571
2538.50077	0.97584
2536.44696	0.97573
2534.39316	0.97525
2532.33936	0.97489
2530.28555	0.97537
2528.23175	0.97619
2526.17795	0.97664
2524.12414	0.97635
2522.07034	0.97570
2520.01654	0.97548
2517.96273	0.97557
2515.90893	0.97563
2513.85513	0.97587
2511.80132	0.97604
2509.74752	0.97572
2507.69372	0.97570
2505.63992	0.97607
2503.58611	0.97596
2501.53231	0.97561
2499.47851	0.97528
2497.42470	0.97496
2495.37090	0.97497
2493.31710	0.97512
2491.26329	0.97495
2489.20949	0.97474
2487.15569	0.97516
2485.10188	0.97597
2483.04808	0.97628
2480.99428	0.97605
2478.94047	0.97588
2476.88667	0.97597
2474.83287	0.97584
2472.77906	0.97546
2470.72526	0.97556
2468.67146	0.97619
2466.61765	0.97660
2464.56385	0.97636
2462.51005	0.97592
2460.45624	0.97566
2458.40244	0.97556
2456.34864	0.97586
2454.29483	0.97631
2452.24103	0.97626
2450.18723	0.97584
2448.13343	0.97565
2446.07962	0.97585
2444.02582	0.97610
2441.97202	0.97623
2439.91821	0.97653
2437.86441	0.97676
2435.81061	0.97671
2433.75680	0.97645
2431.70300	0.97623
2429.64920	0.97627
2427.59539	0.97622
2425.54159	0.97610
2423.48779	0.97600
2421.43398	0.97591
2419.38018	0.97590
2417.32638	0.97564
2415.27257	0.97548
2413.21877	0.97590
2411.16497	0.97628
2409.11116	0.97611
2407.05736	0.97613
2405.00356	0.97637
2402.94975	0.97614
2400.89595	0.97591
2398.84215	0.97616
2396.78834	0.97651
2394.73454	0.97645
2392.68074	0.97640
2390.62694	0.97674
2388.57313	0.97701
2386.51933	0.97700
2384.46553	0.97687
2382.41172	0.97665
2380.35792	0.97647
2378.30412	0.97646
2376.25031	0.97634
2374.19651	0.97596
2372.14271	0.97499
2370.08890	0.97384
2368.03510	0.97432
2365.98130	0.97525
2363.92749	0.97438
2361.87369	0.97355
2359.81989	0.97384
2357.76608	0.97414
2355.71228	0.97438
2353.65848	0.97487
2351.60467	0.97528
2349.55087	0.97510
2347.49707	0.97460
2345.44326	0.97452
2343.38946	0.97517
2341.33566	0.97566
2339.28186	0.97553
2337.22805	0.97581
2335.17425	0.97610
2333.12045	0.97553
2331.06664	0.97537
2329.01284	0.97578
2326.95904	0.97521
2324.90523	0.97369
2322.85143	0.97265
2320.79763	0.97277
2318.74382	0.97333
2316.69002	0.97406
2314.63622	0.97487
2312.58241	0.97516
2310.52861	0.97503
2308.47481	0.97484
2306.42100	0.97455
2304.36720	0.97422
2302.31340	0.97439
2300.25959	0.97499
2298.20579	0.97503
2296.15199	0.97482
2294.09818	0.97513
2292.04438	0.97520
2289.99058	0.97505
2287.93677	0.97530
2285.88297	0.97538
2283.82917	0.97543
2281.77537	0.97554
2279.72156	0.97506
2277.66776	0.97457
2275.61396	0.97489
2273.56015	0.97541
2271.50635	0.97536
2269.45255	0.97544
2267.39874	0.97615
2265.34494	0.97670
2263.29114	0.97660
2261.23733	0.97647
2259.18353	0.97673
2257.12973	0.97672
2255.07592	0.97626
2253.02212	0.97542
2250.96832	0.97443
2248.91451	0.97446
2246.86071	0.97553
2244.80691	0.97634
2242.75310	0.97661
2240.69930	0.97670
2238.64550	0.97696
2236.59169	0.97737
2234.53789	0.97719
2232.48409	0.97702
2230.43029	0.97717
2228.37648	0.97653
2226.32268	0.97615
2224.26888	0.97756
2222.21507	0.97864
2220.16127	0.97684
2218.10747	0.97363
2216.05366	0.97186
2213.99986	0.97206
2211.94606	0.97349
2209.89225	0.97555
2207.83845	0.97740
2205.78465	0.97807
2203.73084	0.97721
2201.67704	0.97631
2199.62324	0.97615
2197.56943	0.97542
2195.51563	0.97468
2193.46183	0.97525
2191.40802	0.97637
2189.35422	0.97672
2187.30042	0.97537
2185.24661	0.97357
2183.19281	0.97339
2181.13901	0.97423
2179.08520	0.97564
2177.03140	0.97738
2174.97760	0.97826
2172.92380	0.97893
2170.86999	0.97953
2168.81619	0.97803
2166.76239	0.97485
2164.70858	0.97400
2162.65478	0.97518
2160.60098	0.97501
2158.54717	0.97530
2156.49337	0.97698
2154.43957	0.97877
2152.38576	0.98038
2150.33196	0.98161
2148.27816	0.98190
2146.22435	0.98019
2144.17055	0.97834
2142.11675	0.97918
2140.06294	0.98140
2138.00914	0.98159
2135.95534	0.98050
2133.90153	0.98018
2131.84773	0.97973
2129.79393	0.97878
2127.74012	0.97815
2125.68632	0.97875
2123.63252	0.97954
2121.57871	0.97843
2119.52491	0.97666
2117.47111	0.97629
2115.41731	0.97661
2113.36350	0.97677
2111.30970	0.97718
2109.25590	0.97803
2107.20209	0.97845
2105.14829	0.97795
2103.09449	0.97776
2101.04068	0.97845
2098.98688	0.97854
2096.93308	0.97779
2094.87927	0.97768
2092.82547	0.97799
2090.77167	0.97766
2088.71786	0.97711
2086.66406	0.97666
2084.61026	0.97633
2082.55645	0.97645
2080.50265	0.97682
2078.44885	0.97685
2076.39504	0.97599
2074.34124	0.97546
2072.28744	0.97703
2070.23363	0.97899
2068.17983	0.97954
2066.12603	0.97900
2064.07223	0.97837
2062.01842	0.97897
2059.96462	0.97958
2057.91082	0.97911
2055.85701	0.97875
2053.80321	0.97783
2051.74941	0.97559
2049.69560	0.97543
2047.64180	0.97795
2045.58800	0.97905
2043.53419	0.97910
2041.48039	0.97923
2039.42659	0.97885
2037.37278	0.97852
2035.31898	0.97727
2033.26518	0.97553
2031.21137	0.97622
2029.15757	0.97789
2027.10377	0.97812
2025.04996	0.97745
2022.99616	0.97716
2020.94236	0.97928
2018.88855	0.98140
2016.83475	0.98044
2014.78095	0.97872
2012.72714	0.97859
2010.67334	0.97958
2008.61954	0.97959
2006.56574	0.97766
2004.51193	0.97608
2002.45813	0.97653
2000.40433	0.97723
1998.35052	0.97704
1996.29672	0.97612
1994.24292	0.97510
1992.18911	0.97584
1990.13531	0.97787
1988.08151	0.97923
1986.02770	0.97977
1983.97390	0.97892
1981.92010	0.97706
1979.86629	0.97590
1977.81249	0.97555
1975.75869	0.97650
1973.70488	0.97827
1971.65108	0.97947
1969.59728	0.98086
1967.54347	0.98210
1965.48967	0.98188
1963.43587	0.98110
1961.38206	0.98147
1959.32826	0.98184
1957.27446	0.98133
1955.22066	0.98113
1953.16685	0.98077
1951.11305	0.98011
1949.05925	0.98014
1947.00544	0.98089
1944.95164	0.98157
1942.89784	0.98107
1940.84403	0.97958
1938.79023	0.97838
1936.73643	0.97850
1934.68262	0.97966
1932.62882	0.98010
1930.57502	0.97989
1928.52121	0.97971
1926.46741	0.97908
1924.41361	0.97850
1922.35980	0.97874
1920.30600	0.97965
1918.25220	0.98074
1916.19839	0.98116
1914.14459	0.98011
1912.09079	0.97865
1910.03698	0.97801
1907.98318	0.97772
1905.92938	0.97755
1903.87557	0.97767
1901.82177	0.97762
1899.76797	0.97763
1897.71417	0.97805
1895.66036	0.97836
1893.60656	0.97861
1891.55276	0.97876
1889.49895	0.97848
1887.44515	0.97829
1885.39135	0.97841
1883.33754	0.97859
1881.28374	0.97875
1879.22994	0.97884
1877.17613	0.97858
1875.12233	0.97842
1873.06853	0.97896
1871.01472	0.97943
1868.96092	0.97935
1866.90712	0.97933
1864.85331	0.97954
1862.79951	0.97976
1860.74571	0.97990
1858.69190	0.97997
1856.63810	0.97984
1854.58430	0.97931
1852.53049	0.97877
1850.47669	0.97882
1848.42289	0.97916
1846.36908	0.97901
1844.31528	0.97876
1842.26148	0.97934
1840.20768	0.97982
1838.15387	0.97971
1836.10007	0.97960
1834.04627	0.97967
1831.99246	0.97961
1829.93866	0.97891
1827.88486	0.97818
1825.83105	0.97839
1823.77725	0.97892
1821.72345	0.97934
1819.66964	0.97993
1817.61584	0.98027
1815.56204	0.98000
1813.50823	0.97974
1811.45443	0.97986
1809.40063	0.98002
1807.34682	0.97992
1805.29302	0.97971
1803.23922	0.97969
1801.18541	0.97958
1799.13161	0.97948
1797.07781	0.97959
1795.02400	0.97922
1792.97020	0.97867
1790.91640	0.97881
1788.86260	0.97922
1786.80879	0.97939
1784.75499	0.97919
1782.70119	0.97912
1780.64738	0.97949
1778.59358	0.97972
1776.53978	0.97950
1774.48597	0.97894
1772.43217	0.97847
1770.37837	0.97834
1768.32456	0.97819
1766.27076	0.97804
1764.21696	0.97810
1762.16315	0.97842
1760.10935	0.97834
1758.05555	0.97734
1756.00174	0.97627
1753.94794	0.97591
1751.89414	0.97533
1749.84033	0.97364
1747.78653	0.97138
1745.73273	0.96846
1743.67892	0.96439
1741.62512	0.95945
1739.57132	0.95343
1737.51751	0.94772
1735.46371	0.94282
1733.40991	0.93681
1731.35611	0.93215
1729.30230	0.92985
1727.24850	0.92897
1725.19470	0.92956
1723.14089	0.93141
1721.08709	0.93340
1719.03329	0.93496
1716.97948	0.93664
1714.92568	0.93803
1712.87188	0.93845
1710.81807	0.93845
1708.76427	0.93840
1706.71047	0.93838
1704.65666	0.93857
1702.60286	0.93884
1700.54906	0.93927
1698.49525	0.93994
1696.44145	0.94074
1694.38765	0.94136
1692.33384	0.94126
1690.28004	0.94089
1688.22624	0.94076
1686.17243	0.94080
1684.11863	0.94058
1682.06483	0.94018
1680.01103	0.94004
1677.95722	0.93992
1675.90342	0.93935
1673.84962	0.93840
1671.79581	0.93723
1669.74201	0.93573
1667.68821	0.93472
1665.63440	0.93441
1663.58060	0.93393
1661.52680	0.93296
1659.47299	0.93214
1657.41919	0.93152
1655.36539	0.93066
1653.31158	0.92912
1651.25778	0.92818
1649.20398	0.92808
1647.15017	0.92760
1645.09637	0.92658
1643.04257	0.92566
1640.98876	0.92460
1638.93496	0.92312
1636.88116	0.92139
1634.82735	0.92004
1632.77355	0.91941
1630.71975	0.91882
1628.66594	0.91810
1626.61214	0.91776
1624.55834	0.91814
1622.50454	0.91896
1620.45073	0.91971
1618.39693	0.92022
1616.34313	0.92057
1614.28932	0.92097
1612.23552	0.92121
1610.18172	0.92093
1608.12791	0.92008
1606.07411	0.91933
1604.02031	0.91943
1601.96650	0.92068
1599.91270	0.92258
1597.85890	0.92439
1595.80509	0.92613
1593.75129	0.92791
1591.69749	0.92934
1589.64368	0.93037
1587.58988	0.93118
1585.53608	0.93186
1583.48227	0.93288
1581.42847	0.93416
1579.37467	0.93534
1577.32086	0.93695
1575.26706	0.93893
1573.21326	0.93992
1571.15945	0.94021
1569.10565	0.94013
1567.05185	0.93986
1564.99805	0.93981
1562.94424	0.94003
1560.89044	0.94027
1558.83664	0.94015
1556.78283	0.93941
1554.72903	0.93880
1552.67523	0.93851
1550.62142	0.93826
1548.56762	0.93788
1546.51382	0.93781
1544.46001	0.93807
1542.40621	0.93828
1540.35241	0.93888
1538.29860	0.93969
1536.24480	0.94015
1534.19100	0.94096
1532.13719	0.94225
1530.08339	0.94331
1528.02959	0.94412
1525.97578	0.94454
1523.92198	0.94417
1521.86818	0.94280
1519.81437	0.94077
1517.76057	0.93895
1515.70677	0.93730
1513.65297	0.93667
1511.59916	0.93785
1509.54536	0.94056
1507.49156	0.94475
1505.43775	0.94873
1503.38395	0.95048
1501.33015	0.95166
1499.27634	0.95278
1497.22254	0.95369
1495.16874	0.95447
1493.11493	0.95522
1491.06113	0.95613
1489.00733	0.95716
1486.95352	0.95771
1484.89972	0.95778
1482.84592	0.95759
1480.79211	0.95718
1478.73831	0.95649
1476.68451	0.95536
1474.63070	0.95358
1472.57690	0.95046
1470.52310	0.94642
1468.46929	0.94294
1466.41549	0.93985
1464.36169	0.93731
1462.30788	0.93599
1460.25408	0.93541
1458.20028	0.93481
1456.14648	0.93422
1454.09267	0.93419
1452.03887	0.93458
1449.98507	0.93505
1447.93126	0.93514
1445.87746	0.93481
1443.82366	0.93439
1441.76985	0.93404
1439.71605	0.93387
1437.66225	0.93394
1435.60844	0.93429
1433.55464	0.93483
1431.50084	0.93567
1429.44703	0.93680
1427.39323	0.93755
1425.33943	0.93783
1423.28562	0.93793
1421.23182	0.93808
1419.17802	0.93851
1417.12421	0.93878
1415.07041	0.93856
1413.01661	0.93857
1410.96280	0.93920
1408.90900	0.94009
1406.85520	0.94101
1404.80139	0.94198
1402.74759	0.94264
1400.69379	0.94296
1398.63999	0.94313
1396.58618	0.94304
1394.53238	0.94270
1392.47858	0.94244
1390.42477	0.94242
1388.37097	0.94225
1386.31717	0.94174
1384.26336	0.94118
1382.20956	0.94060
1380.15576	0.94006
1378.10195	0.93956
1376.04815	0.93897
1373.99435	0.93833
1371.94054	0.93808
1369.88674	0.93822
1367.83294	0.93820
1365.77913	0.93806
1363.72533	0.93799
1361.67153	0.93787
1359.61772	0.93791
1357.56392	0.93812
1355.51012	0.93836
1353.45631	0.93856
1351.40251	0.93839
1349.34871	0.93795
1347.29491	0.93765
1345.24110	0.93770
1343.18730	0.93797
1341.13350	0.93802
1339.07969	0.93776
1337.02589	0.93782
1334.97209	0.93826
1332.91828	0.93869
1330.86448	0.93895
1328.81068	0.93917
1326.75687	0.93937
1324.70307	0.93933
1322.64927	0.93926
1320.59546	0.93935
1318.54166	0.93931
1316.48786	0.93906
1314.43405	0.93889
1312.38025	0.93882
1310.32645	0.93886
1308.27264	0.93909
1306.21884	0.93923
1304.16504	0.93916
1302.11123	0.93905
1300.05743	0.93884
1298.00363	0.93853
1295.94982	0.93810
1293.89602	0.93737
1291.84222	0.93662
1289.78842	0.93589
1287.73461	0.93494
1285.68081	0.93408
1283.62701	0.93345
1281.57320	0.93257
1279.51940	0.93123
1277.46560	0.92995
1275.41179	0.92910
1273.35799	0.92845
1271.30419	0.92786
1269.25038	0.92737
1267.19658	0.92679
1265.14278	0.92599
1263.08897	0.92516
1261.03517	0.92442
1258.98137	0.92365
1256.92756	0.92268
1254.87376	0.92170
1252.81996	0.92093
1250.76615	0.92039
1248.71235	0.91996
1246.65855	0.91953
1244.60474	0.91920
1242.55094	0.91890
1240.49714	0.91859
1238.44334	0.91825
1236.38953	0.91776
1234.33573	0.91734
1232.28193	0.91722
1230.22812	0.91695
1228.17432	0.91643
1226.12052	0.91633
1224.06671	0.91651
1222.01291	0.91665
1219.95911	0.91673
1217.90530	0.91663
1215.85150	0.91659
1213.79770	0.91671
1211.74389	0.91653
1209.69009	0.91607
1207.63629	0.91538
1205.58248	0.91443
1203.52868	0.91366
1201.47488	0.91308
1199.42107	0.91236
1197.36727	0.91163
1195.31347	0.91093
1193.25966	0.90989
1191.20586	0.90862
1189.15206	0.90734
1187.09825	0.90590
1185.04445	0.90436
1182.99065	0.90288
1180.93685	0.90117
1178.88304	0.89900
1176.82924	0.89662
1174.77544	0.89395
1172.72163	0.89055
1170.66783	0.88661
1168.61403	0.88300
1166.56022	0.88040
1164.50642	0.87890
1162.45262	0.87850
1160.39881	0.87904
1158.34501	0.88000
1156.29121	0.88095
1154.23740	0.88181
1152.18360	0.88286
1150.12980	0.88405
1148.07599	0.88504
1146.02219	0.88594
1143.96839	0.88683
1141.91458	0.88742
1139.86078	0.88775
1137.80698	0.88801
1135.75317	0.88827
1133.69937	0.88859
1131.64557	0.88854
1129.59176	0.88786
1127.53796	0.88674
1125.48416	0.88536
1123.43036	0.88358
1121.37655	0.88130
1119.32275	0.87863
1117.26895	0.87575
1115.21514	0.87277
1113.16134	0.86969
1111.10754	0.86684
1109.05373	0.86445
1106.99993	0.86188
1104.94613	0.85866
1102.89232	0.85558
1100.83852	0.85386
1098.78472	0.85343
1096.73091	0.85329
1094.67711	0.85321
1092.62331	0.85323
1090.56950	0.85327
1088.51570	0.85325
1086.46190	0.85296
1084.40809	0.85250
1082.35429	0.85219
1080.30049	0.85201
1078.24668	0.85142
1076.19288	0.85025
1074.13908	0.84886
1072.08528	0.84736
1070.03147	0.84576
1067.97767	0.84413
1065.92387	0.84264
1063.87006	0.84138
1061.81626	0.83982
1059.76246	0.83754
1057.70865	0.83485
1055.65485	0.83222
1053.60105	0.82962
1051.54724	0.82682
1049.49344	0.82374
1047.43964	0.82052
1045.38583	0.81734
1043.33203	0.81429
1041.27823	0.81153
1039.22442	0.80903
1037.17062	0.80683
1035.11682	0.80495
1033.06301	0.80316
1031.00921	0.80140
1028.95541	0.79991
1026.90160	0.79909
1024.84780	0.79850
1022.79400	0.79786
1020.74019	0.79768
1018.68639	0.79779
1016.63259	0.79739
1014.57879	0.79660
1012.52498	0.79601
1010.47118	0.79537
1008.41738	0.79448
1006.36357	0.79405
1004.30977	0.79430
1002.25597	0.79479
1000.20216	0.79543
998.14836	0.79654
996.09456	0.79846
994.04075	0.80078
991.98695	0.80283
989.93315	0.80471
987.87934	0.80669
985.82554	0.80881
983.77174	0.81102
981.71793	0.81337
979.66413	0.81577
977.61033	0.81826
975.55652	0.82133
973.50272	0.82493
971.44892	0.82842
969.39511	0.83145
967.34131	0.83411
965.28751	0.83652
963.23371	0.83877
961.17990	0.84122
959.12610	0.84385
957.07230	0.84618
955.01849	0.84829
952.96469	0.85074
950.91089	0.85342
948.85708	0.85557
946.80328	0.85714
944.74948	0.85873
942.69567	0.86043
940.64187	0.86204
938.58807	0.86350
936.53426	0.86475
934.48046	0.86592
932.42666	0.86717
930.37285	0.86839
928.31905	0.86955
926.26525	0.87050
924.21144	0.87086
922.15764	0.87051
920.10384	0.86972
918.05003	0.86892
915.99623	0.86825
913.94243	0.86770
911.88862	0.86735
909.83482	0.86764
907.78102	0.86904
905.72722	0.87121
903.67341	0.87359
901.61961	0.87613
899.56581	0.87872
897.51200	0.88103
895.45820	0.88299
893.40440	0.88470
891.35059	0.88662
889.29679	0.88865
887.24299	0.89032
885.18918	0.89183
883.13538	0.89281
881.08158	0.89280
879.02777	0.89299
876.97397	0.89423
874.92017	0.89577
872.86636	0.89730
870.81256	0.89911
868.75876	0.90083
866.70495	0.90180
864.65115	0.90230
862.59735	0.90313
860.54354	0.90444
858.48974	0.90584
856.43594	0.90683
854.38213	0.90755
852.32833	0.90821
850.27453	0.90836
848.22073	0.90823
846.16692	0.90835
844.11312	0.90809
842.05932	0.90671
840.00551	0.90412
837.95171	0.90109
835.89791	0.89866
833.84410	0.89700
831.79030	0.89674
829.73650	0.89828
827.68269	0.90064
825.62889	0.90251
823.57509	0.90301
821.52128	0.90294
819.46748	0.90343
817.41368	0.90381
815.35987	0.90395
813.30607	0.90451
811.25227	0.90477
809.19846	0.90427
807.14466	0.90380
805.09086	0.90384
803.03705	0.90403
800.98325	0.90367
798.92945	0.90311
796.87565	0.90308
794.82184	0.90294
792.76804	0.90222
790.71424	0.90188
788.66043	0.90203
786.60663	0.90198
784.55283	0.90243
782.49902	0.90376
780.44522	0.90433
778.39142	0.90341
776.33761	0.90258
774.28381	0.90240
772.23001	0.90219
770.17620	0.90234
768.12240	0.90250
766.06860	0.90191
764.01479	0.90117
761.96099	0.90091
759.90719	0.90072
757.85338	0.90003
755.79958	0.89909
753.74578	0.89886
751.69197	0.89918
749.63817	0.89883
747.58437	0.89809
745.53056	0.89757
743.47676	0.89699
741.42296	0.89698
739.36916	0.89783
737.31535	0.89868
735.26155	0.89874
733.20775	0.89763
731.15394	0.89609
729.10014	0.89511
727.04634	0.89404
724.99253	0.89194
722.93873	0.88988
720.88493	0.88935
718.83112	0.89043
716.77732	0.89242
714.72352	0.89416
712.66971	0.89477
710.61591	0.89428
708.56211	0.89304
706.50830	0.89134
704.45450	0.88966
702.40070	0.88831
700.34689	0.88724
698.29309	0.88628
696.23929	0.88537
694.18548	0.88436
692.13168	0.88321
690.07788	0.88269
688.02408	0.88317
685.97027	0.88377
683.91647	0.88398
681.86267	0.88417
679.80886	0.88412
677.75506	0.88351
675.70126	0.88345
673.64745	0.88408
671.59365	0.88340
669.53985	0.88118
667.48604	0.88076
665.43224	0.88251
663.37844	0.88300
661.32463	0.88263
659.27083	0.88256
657.21703	0.88262
655.16322	0.88275
653.10942	0.88276
651.05562	0.88238
649.00181	0.88228
646.94801	0.88197
644.89421	0.88018
642.84040	0.87820
640.78660	0.87808
638.73280	0.87948
636.67899	0.88039
634.62519	0.87970
632.57139	0.87831
630.51759	0.87707
628.46378	0.87637
626.40998	0.87718
624.35618	0.87884
622.30237	0.87880
620.24857	0.87716
618.19477	0.87500
616.14096	0.87295
614.08716	0.87245
612.03336	0.87268
609.97955	0.87245
607.92575	0.87218
605.87195	0.87141
603.81814	0.87011
601.76434	0.86843
599.71054	0.86631
597.65673	0.86535
595.60293	0.86637
593.54913	0.86722
591.49532	0.86602
589.44152	0.86390
587.38772	0.86253
585.33391	0.86243
583.28011	0.86300
581.22631	0.86301
579.17250	0.86229
577.11870	0.86041
575.06490	0.85818
573.01110	0.85764
570.95729	0.85671
568.90349	0.85439
566.84969	0.85327
564.79588	0.85248
562.74208	0.85068
560.68828	0.84909
558.63447	0.84687
556.58067	0.84387
554.52687	0.84227
552.47306	0.84140
550.41926	0.83970
548.36546	0.83701
546.31165	0.83318
544.25785	0.82941
542.20405	0.82652
540.15024	0.82372
538.09644	0.82036
536.04264	0.81742
533.98883	0.81606
531.93503	0.81567
529.88123	0.81516
527.82742	0.81486
525.77362	0.81519
523.71982	0.81467
521.66602	0.81416
519.61221	0.81558
517.55841	0.81656
515.50461	0.81635
513.45080	0.81762
511.39700	0.82014
509.34320	0.82276
507.28939	0.82523
505.23559	0.82689
503.18179	0.82773
501.12798	0.82874
499.07418	0.82972
497.02038	0.82949
494.96657	0.82775
492.91277	0.82599
490.85897	0.82526
488.80516	0.82345
486.75136	0.82004
484.69756	0.81752
482.64375	0.81629
480.58995	0.81409
478.53615	0.80988
476.48234	0.80446
474.42854	0.79960
472.37474	0.79638
470.32093	0.79357
468.26713	0.78984
466.21333	0.78579
464.15953	0.78486
462.10572	0.78763
460.05192	0.78895
457.99812	0.78849
455.94431	0.78966
453.89051	0.79020
451.83671	0.78891
449.78290	0.78879
447.72910	0.79274
445.67530	0.79919
443.62149	0.80256
441.56769	0.80082
439.51389	0.79909
437.46008	0.80073
435.40628	0.80132
433.35248	0.79800
431.29867	0.79463
429.24487	0.79196
427.19107	0.78961
425.13726	0.79048
423.08346	0.79387
421.02966	0.79640
418.97585	0.79552
416.92205	0.79182
414.86825	0.79150
412.81445	0.79442
410.76064	0.79751
408.70684	0.80061
406.65304	0.80454
404.59923	0.80719
402.54543	0.80714
400.49163	0.80200
398.43782	0.79265
