3996.70104	0.96972
3994.64724	0.97039
3992.59344	0.97044
3990.53964	0.97009
3988.48583	0.96987
3986.43203	0.96985
3984.37823	0.96982
3982.32442	0.96954
3980.27062	0.96948
3978.21682	0.96974
3976.16301	0.96979
3974.10921	0.96968
3972.05541	0.96941
3970.00160	0.96906
3967.94780	0.96902
3965.89400	0.96920
3963.84019	0.96924
3961.78639	0.96887
3959.73259	0.96865
3957.67878	0.96924
3955.62498	0.96995
3953.57118	0.97001
3951.51737	0.96957
3949.46357	0.96913
3947.40977	0.96931
3945.35596	0.96985
3943.30216	0.97016
3941.24836	0.97025
3939.19455	0.96993
3937.14075	0.96922
3935.08695	0.96886
3933.03315	0.96884
3930.97934	0.96850
3928.92554	0.96829
3926.87174	0.96886
3924.81793	0.96968
3922.76413	0.96997
3920.71033	0.96969
3918.65652	0.96938
3916.60272	0.96965
3914.54892	0.97018
3912.49511	0.97006
3910.44131	0.96932
3908.38751	0.96882
3906.33370	0.96909
3904.27990	0.97004
3902.22610	0.97056
3900.17229	0.97036
3898.11849	0.97024
3896.06469	0.97008
3894.01088	0.96970
3891.95708	0.96924
3889.90328	0.96880
3887.84947	0.96862
3885.79567	0.96912
3883.74187	0.96978
3881.68807	0.97001
3879.63426	0.97027
3877.58046	0.97031
3875.52666	0.97012
3873.47285	0.97016
3871.41905	0.97029
3869.36525	0.97020
3867.31144	0.97038
3865.25764	0.97095
3863.20384	0.97115
3861.15003	0.97076
3859.09623	0.97015
3857.04243	0.96973
3854.98862	0.96985
3852.93482	0.97051
3850.88102	0.97089
3848.82721	0.97033
3846.77341	0.96951
3844.71961	0.96949
3842.66580	0.97006
3840.61200	0.96993
3838.55820	0.96897
3836.50439	0.96907
3834.45059	0.97018
3832.39679	0.97068
3830.34298	0.97055
3828.28918	0.97013
3826.23538	0.96945
3824.18158	0.96888
3822.12777	0.96867
3820.07397	0.96863
3818.02017	0.96887
3815.96636	0.96980
3813.91256	0.97096
3811.85876	0.97156
3809.80495	0.97150
3807.75115	0.97095
3805.69735	0.97036
3803.64354	0.96982
3801.58974	0.96946
3799.53594	0.97001
3797.48213	0.97088
3795.42833	0.97111
3793.37453	0.97084
3791.32072	0.97068
3789.26692	0.97089
3787.21312	0.97141
3785.15931	0.97177
3783.10551	0.97135
3781.05171	0.97079
3778.99790	0.97108
3776.94410	0.97139
3774.89030	0.97105
3772.83650	0.97039
3770.78269	0.97002
3768.72889	0.97057
3766.67509	0.97126
3764.62128	0.97156
3762.56748	0.97181
3760.51368	0.97199
3758.45987	0.97180
3756.40607	0.97138
3754.35227	0.97139
3752.29846	0.97176
3750.24466	0.97185
3748.19086	0.97163
3746.13705	0.97136
3744.08325	0.97139
3742.02945	0.97214
3739.97564	0.97281
3737.92184	0.97246
3735.86804	0.97112
3733.81423	0.97053
3731.76043	0.97095
3729.70663	0.97127
3727.65282	0.97130
3725.59902	0.97146
3723.54522	0.97171
3721.49141	0.97193
3719.43761	0.97181
3717.38381	0.97099
3715.33001	0.97032
3713.27620	0.97014
3711.22240	0.97006
3709.16860	0.96962
3707.11479	0.96873
3705.06099	0.96757
3703.00719	0.96618
3700.95338	0.96472
3698.89958	0.96400
3696.84578	0.96453
3694.79197	0.96542
3692.73817	0.96528
3690.68437	0.96481
3688.63056	0.96602
3686.57676	0.96730
3684.52296	0.96709
3682.46915	0.96630
3680.41535	0.96554
3678.36155	0.96491
3676.30774	0.96471
3674.25394	0.96553
3672.20014	0.96638
3670.14633	0.96671
3668.09253	0.96668
3666.03873	0.96620
3663.98492	0.96523
3661.93112	0.96402
3659.87732	0.96317
3657.82352	0.96329
3655.76971	0.96394
3653.71591	0.96379
3651.66211	0.96327
3649.60830	0.96289
3647.55450	0.96220
3645.50070	0.96199
3643.44689	0.96214
3641.39309	0.96177
3639.33929	0.96137
3637.28548	0.96147
3635.23168	0.96117
3633.17788	0.96014
3631.12407	0.95907
3629.07027	0.95858
3627.01647	0.95845
3624.96266	0.95801
3622.90886	0.95752
3620.85506	0.95720
3618.80125	0.95717
3616.74745	0.95731
3614.69365	0.95776
3612.63984	0.95823
3610.58604	0.95832
3608.53224	0.95853
3606.47844	0.95828
3604.42463	0.95769
3602.37083	0.95766
3600.31703	0.95768
3598.26322	0.95743
3596.20942	0.95735
3594.15562	0.95725
3592.10181	0.95705
3590.04801	0.95695
3587.99421	0.95719
3585.94040	0.95773
3583.88660	0.95805
3581.83280	0.95785
3579.77899	0.95729
3577.72519	0.95665
3575.67139	0.95602
3573.61758	0.95576
3571.56378	0.95571
3569.50998	0.95562
3567.45617	0.95574
3565.40237	0.95597
3563.34857	0.95632
3561.29476	0.95681
3559.24096	0.95643
3557.18716	0.95501
3555.13335	0.95399
3553.07955	0.95423
3551.02575	0.95487
3548.97195	0.95481
3546.91814	0.95451
3544.86434	0.95428
3542.81054	0.95376
3540.75673	0.95340
3538.70293	0.95342
3536.64913	0.95340
3534.59532	0.95323
3532.54152	0.95345
3530.48772	0.95406
3528.43391	0.95427
3526.38011	0.95370
3524.32631	0.95339
3522.27250	0.95381
3520.21870	0.95398
3518.16490	0.95386
3516.11109	0.95393
3514.05729	0.95389
3512.00349	0.95325
3509.94968	0.95235
3507.89588	0.95148
3505.84208	0.95064
3503.78827	0.95083
3501.73447	0.95199
3499.68067	0.95247
3497.62687	0.95217
3495.57306	0.95206
3493.51926	0.95192
3491.46546	0.95128
3489.41165	0.95100
3487.35785	0.95108
3485.30405	0.95058
3483.25024	0.95017
3481.19644	0.95031
3479.14264	0.95042
3477.08883	0.95038
3475.03503	0.95026
3472.98123	0.95014
3470.92742	0.95009
3468.87362	0.95013
3466.81982	0.95037
3464.76601	0.95011
3462.71221	0.94931
3460.65841	0.94912
3458.60460	0.94906
3456.55080	0.94823
3454.49700	0.94750
3452.44319	0.94775
3450.38939	0.94821
3448.33559	0.94800
3446.28178	0.94749
3444.22798	0.94732
3442.17418	0.94776
3440.12038	0.94819
3438.06657	0.94793
3436.01277	0.94729
3433.95897	0.94651
3431.90516	0.94583
3429.85136	0.94577
3427.79756	0.94608
3425.74375	0.94592
3423.68995	0.94565
3421.63615	0.94588
3419.58234	0.94606
3417.52854	0.94577
3415.47474	0.94536
3413.42093	0.94522
3411.36713	0.94539
3409.31333	0.94575
3407.25952	0.94599
3405.20572	0.94597
3403.15192	0.94578
3401.09811	0.94553
3399.04431	0.94542
3396.99051	0.94545
3394.93670	0.94542
3392.88290	0.94511
3390.82910	0.94465
3388.77529	0.94440
3386.72149	0.94433
3384.66769	0.94427
3382.61389	0.94403
3380.56008	0.94379
3378.50628	0.94378
3376.45248	0.94375
3374.39867	0.94379
3372.34487	0.94412
3370.29107	0.94457
3368.23726	0.94500
3366.18346	0.94513
3364.12966	0.94487
3362.07585	0.94460
3360.02205	0.94456
3357.96825	0.94472
3355.91444	0.94485
3353.86064	0.94474
3351.80684	0.94452
3349.75303	0.94457
3347.69923	0.94496
3345.64543	0.94523
3343.59162	0.94530
3341.53782	0.94525
3339.48402	0.94491
3337.43021	0.94453
3335.37641	0.94447
3333.32261	0.94440
3331.26881	0.94418
3329.21500	0.94453
3327.16120	0.94518
3325.10740	0.94522
3323.05359	0.94485
3320.99979	0.94454
3318.94599	0.94436
3316.89218	0.94423
3314.83838	0.94410
3312.78458	0.94426
3310.73077	0.94464
3308.67697	0.94478
3306.62317	0.94462
3304.56936	0.94441
3302.51556	0.94459
3300.46176	0.94520
3298.40795	0.94535
3296.35415	0.94504
3294.30035	0.94503
3292.24654	0.94520
3290.19274	0.94496
3288.13894	0.94447
3286.08513	0.94449
3284.03133	0.94512
3281.97753	0.94566
3279.92372	0.94526
3277.86992	0.94444
3275.81612	0.94445
3273.76232	0.94518
3271.70851	0.94578
3269.65471	0.94612
3267.60091	0.94638
3265.54710	0.94628
3263.49330	0.94596
3261.43950	0.94596
3259.38569	0.94646
3257.33189	0.94673
3255.27809	0.94622
3253.22428	0.94576
3251.17048	0.94609
3249.11668	0.94671
3247.06287	0.94707
3245.00907	0.94720
3242.95527	0.94713
3240.90146	0.94700
3238.84766	0.94706
3236.79386	0.94721
3234.74005	0.94739
3232.68625	0.94758
3230.63245	0.94768
3228.57864	0.94777
3226.52484	0.94788
3224.47104	0.94818
3222.41724	0.94881
3220.36343	0.94896
3218.30963	0.94856
3216.25583	0.94862
3214.20202	0.94899
3212.14822	0.94901
3210.09442	0.94880
3208.04061	0.94882
3205.98681	0.94916
3203.93301	0.94935
3201.87920	0.94916
3199.82540	0.94896
3197.77160	0.94887
3195.71779	0.94912
3193.66399	0.95007
3191.61019	0.95117
3189.55638	0.95152
3187.50258	0.95134
3185.44878	0.95138
3183.39497	0.95169
3181.34117	0.95200
3179.28737	0.95220
3177.23356	0.95233
3175.17976	0.95225
3173.12596	0.95213
3171.07215	0.95220
3169.01835	0.95236
3166.96455	0.95253
3164.91075	0.95267
3162.85694	0.95282
3160.80314	0.95313
3158.74934	0.95357
3156.69553	0.95370
3154.64173	0.95360
3152.58793	0.95391
3150.53412	0.95435
3148.48032	0.95464
3146.42652	0.95492
3144.37271	0.95489
3142.31891	0.95490
3140.26511	0.95535
3138.21130	0.95548
3136.15750	0.95530
3134.10370	0.95540
3132.04989	0.95564
3129.99609	0.95582
3127.94229	0.95588
3125.88848	0.95580
3123.83468	0.95583
3121.78088	0.95627
3119.72707	0.95667
3117.67327	0.95659
3115.61947	0.95665
3113.56566	0.95691
3111.51186	0.95661
3109.45806	0.95603
3107.40426	0.95582
3105.35045	0.95581
3103.29665	0.95588
3101.24285	0.95600
3099.18904	0.95615
3097.13524	0.95644
3095.08144	0.95673
3093.02763	0.95675
3090.97383	0.95633
3088.92003	0.95527
3086.86622	0.95399
3084.81242	0.95312
3082.75862	0.95238
3080.70481	0.95193
3078.65101	0.95264
3076.59721	0.95411
3074.54340	0.95501
3072.48960	0.95510
3070.43580	0.95491
3068.38199	0.95431
3066.32819	0.95341
3064.27439	0.95253
3062.22058	0.95161
3060.16678	0.95082
3058.11298	0.95048
3056.05918	0.95107
3054.00537	0.95256
3051.95157	0.95403
3049.89777	0.95483
3047.84396	0.95532
3045.79016	0.95580
3043.73636	0.95615
3041.68255	0.95615
3039.62875	0.95575
3037.57495	0.95501
3035.52114	0.95404
3033.46734	0.95267
3031.41354	0.95036
3029.35973	0.94716
3027.30593	0.94385
3025.25213	0.94177
3023.19832	0.94222
3021.14452	0.94495
3019.09072	0.94835
3017.03691	0.95133
3014.98311	0.95354
3012.92931	0.95498
3010.87550	0.95609
3008.82170	0.95710
3006.76790	0.95776
3004.71409	0.95785
3002.66029	0.95757
3000.60649	0.95732
2998.55269	0.95758
2996.49888	0.95835
2994.44508	0.95916
2992.39128	0.95969
2990.33747	0.95959
2988.28367	0.95922
2986.22987	0.95953
2984.17606	0.96021
2982.12226	0.96031
2980.06846	0.95992
2978.01465	0.95965
2975.96085	0.95963
2973.90705	0.95955
2971.85324	0.95930
2969.79944	0.95906
2967.74564	0.95883
2965.69183	0.95829
2963.63803	0.95768
2961.58423	0.95762
2959.53042	0.95754
2957.47662	0.95686
2955.42282	0.95614
2953.36901	0.95576
2951.31521	0.95536
2949.26141	0.95450
2947.20761	0.95354
2945.15380	0.95289
2943.10000	0.95221
2941.04620	0.95096
2938.99239	0.94916
2936.93859	0.94731
2934.88479	0.94559
2932.83098	0.94348
2930.77718	0.94110
2928.72338	0.93922
2926.66957	0.93778
2924.61577	0.93654
2922.56197	0.93558
2920.50816	0.93495
2918.45436	0.93480
2916.40056	0.93543
2914.34675	0.93662
2912.29295	0.93802
2910.23915	0.93956
2908.18534	0.94098
2906.13154	0.94236
2904.07774	0.94391
2902.02393	0.94538
2899.97013	0.94660
2897.91633	0.94778
2895.86252	0.94917
2893.80872	0.95046
2891.75492	0.95143
2889.70112	0.95221
2887.64731	0.95279
2885.59351	0.95303
2883.53971	0.95324
2881.48590	0.95378
2879.43210	0.95438
2877.37830	0.95488
2875.32449	0.95515
2873.27069	0.95516
2871.21689	0.95523
2869.16308	0.95542
2867.10928	0.95539
2865.05548	0.95515
2863.00167	0.95489
2860.94787	0.95454
2858.89407	0.95424
2856.84026	0.95399
2854.78646	0.95337
2852.73266	0.95237
2850.67885	0.95154
2848.62505	0.95124
2846.57125	0.95147
2844.51744	0.95240
2842.46364	0.95397
2840.40984	0.95556
2838.35603	0.95676
2836.30223	0.95786
2834.24843	0.95899
2832.19463	0.95971
2830.14082	0.96009
2828.08702	0.96062
2826.03322	0.96135
2823.97941	0.96201
2821.92561	0.96236
2819.87181	0.96248
2817.81800	0.96265
2815.76420	0.96294
2813.71040	0.96323
2811.65659	0.96323
2809.60279	0.96307
2807.54899	0.96325
2805.49518	0.96359
2803.44138	0.96366
2801.38758	0.96372
2799.33377	0.96377
2797.27997	0.96370
2795.22617	0.96372
2793.17236	0.96382
2791.11856	0.96390
2789.06476	0.96412
2787.01095	0.96452
2784.95715	0.96487
2782.90335	0.96510
2780.84955	0.96526
2778.79574	0.96533
2776.74194	0.96520
2774.68814	0.96473
2772.63433	0.96429
2770.58053	0.96438
2768.52673	0.96480
2766.47292	0.96490
2764.41912	0.96473
2762.36532	0.96494
2760.31151	0.96544
2758.25771	0.96562
2756.20391	0.96556
2754.15010	0.96556
2752.09630	0.96547
2750.04250	0.96524
2747.98869	0.96510
2745.93489	0.96510
2743.88109	0.96520
2741.82728	0.96548
2739.77348	0.96578
2737.71968	0.96589
2735.66587	0.96612
2733.61207	0.96656
2731.55827	0.96672
2729.50446	0.96653
2727.45066	0.96627
2725.39686	0.96597
2723.34306	0.96576
2721.28925	0.96581
2719.23545	0.96579
2717.18165	0.96560
2715.12784	0.96571
2713.07404	0.96598
2711.02024	0.96627
2708.96643	0.96670
2706.91263	0.96689
2704.85883	0.96678
2702.80502	0.96662
2700.75122	0.96616
2698.69742	0.96578
2696.64361	0.96603
2694.58981	0.96638
2692.53601	0.96645
2690.48220	0.96661
2688.42840	0.96690
2686.37460	0.96712
2684.32079	0.96730
2682.26699	0.96731
2680.21319	0.96682
2678.15938	0.96627
2676.10558	0.96629
2674.05178	0.96656
2671.99797	0.96690
2669.94417	0.96721
2667.89037	0.96708
2665.83657	0.96690
2663.78276	0.96709
2661.72896	0.96717
2659.67516	0.96697
2657.62135	0.96671
2655.56755	0.96638
2653.51375	0.96629
2651.45994	0.96660
2649.40614	0.96693
2647.35234	0.96725
2645.29853	0.96738
2643.24473	0.96706
2641.19093	0.96668
2639.13712	0.96686
2637.08332	0.96732
2635.02952	0.96732
2632.97571	0.96716
2630.92191	0.96744
2628.86811	0.96796
2626.81430	0.96815
2624.76050	0.96779
2622.70670	0.96744
2620.65289	0.96770
2618.59909	0.96812
2616.54529	0.96816
2614.49149	0.96798
2612.43768	0.96754
2610.38388	0.96720
2608.33008	0.96763
2606.27627	0.96838
2604.22247	0.96873
2602.16867	0.96868
2600.11486	0.96826
2598.06106	0.96782
2596.00726	0.96772
2593.95345	0.96769
2591.89965	0.96799
2589.84585	0.96880
2587.79204	0.96919
2585.73824	0.96873
2583.68444	0.96813
2581.63063	0.96818
2579.57683	0.96859
2577.52303	0.96858
2575.46922	0.96808
2573.41542	0.96790
2571.36162	0.96848
2569.30781	0.96908
2567.25401	0.96943
2565.20021	0.96988
2563.14640	0.96986
2561.09260	0.96895
2559.03880	0.96819
2556.98500	0.96814
2554.93119	0.96852
2552.87739	0.96899
2550.82359	0.96909
2548.76978	0.96912
2546.71598	0.96971
2544.66218	0.97013
2542.60837	0.96931
2540.55457	0.96838
2538.50077	0.96875
2536.44696	0.96978
2534.39316	0.97014
2532.33936	0.96956
2530.28555	0.96903
2528.23175	0.96895
2526.17795	0.96892
2524.12414	0.96909
2522.07034	0.96951
2520.01654	0.96978
2517.96273	0.97003
2515.90893	0.97025
2513.85513	0.97014
2511.80132	0.97000
2509.74752	0.97013
2507.69372	0.97029
2505.63992	0.97025
2503.58611	0.96998
2501.53231	0.96968
2499.47851	0.96960
2497.42470	0.96972
2495.37090	0.97008
2493.31710	0.97053
2491.26329	0.97103
2489.20949	0.97123
2487.15569	0.97105
2485.10188	0.97100
2483.04808	0.97040
2480.99428	0.96936
2478.94047	0.96892
2476.88667	0.96880
2474.83287	0.96909
2472.77906	0.96984
2470.72526	0.97023
2468.67146	0.97018
2466.61765	0.97022
2464.56385	0.97027
2462.51005	0.97011
2460.45624	0.97003
2458.40244	0.97021
2456.34864	0.97035
2454.29483	0.97024
2452.24103	0.97015
2450.18723	0.97034
2448.13343	0.97062
2446.07962	0.97098
2444.02582	0.97145
2441.97202	0.97148
2439.91821	0.97067
2437.86441	0.96991
2435.81061	0.96988
2433.75680	0.97009
2431.70300	0.97053
2429.64920	0.97133
2427.59539	0.97170
2425.54159	0.97125
2423.48779	0.97047
2421.43398	0.96983
2419.38018	0.96995
2417.32638	0.97078
2415.27257	0.97132
2413.21877	0.97103
2411.16497	0.97044
2409.11116	0.97049
2407.05736	0.97120
2405.00356	0.97179
2402.94975	0.97169
2400.89595	0.97112
2398.84215	0.97103
2396.78834	0.97157
2394.73454	0.97176
2392.68074	0.97142
2390.62694	0.97102
2388.57313	0.97065
2386.51933	0.97065
2384.46553	0.97084
2382.41172	0.97064
2380.35792	0.97046
2378.30412	0.97071
2376.25031	0.97075
2374.19651	0.97025
2372.14271	0.97037
2370.08890	0.97121
2368.03510	0.97141
2365.98130	0.97114
2363.92749	0.97153
2361.87369	0.97214
2359.81989	0.97154
2357.76608	0.97091
2355.71228	0.97183
2353.65848	0.97269
2351.60467	0.97174
2349.55087	0.96987
2347.49707	0.96874
2345.44326	0.96899
2343.38946	0.97002
2341.33566	0.97030
2339.28186	0.96970
2337.22805	0.96939
2335.17425	0.96934
2333.12045	0.96956
2331.06664	0.96997
2329.01284	0.97010
2326.95904	0.96988
2324.90523	0.96903
2322.85143	0.96849
2320.79763	0.96911
2318.74382	0.97001
2316.69002	0.97053
2314.63622	0.97059
2312.58241	0.96991
2310.52861	0.96911
2308.47481	0.96952
2306.42100	0.97031
2304.36720	0.97033
2302.31340	0.97016
2300.25959	0.97001
2298.20579	0.97012
2296.15199	0.97062
2294.09818	0.97086
2292.04438	0.97080
2289.99058	0.97060
2287.93677	0.97005
2285.88297	0.96964
2283.82917	0.96999
2281.77537	0.97093
2279.72156	0.97202
2277.66776	0.97269
2275.61396	0.97188
2273.56015	0.97023
2271.50635	0.97031
2269.45255	0.97116
2267.39874	0.97113
2265.34494	0.97159
2263.29114	0.97251
2261.23733	0.97245
2259.18353	0.97132
2257.12973	0.97014
2255.07592	0.97009
2253.02212	0.97098
2250.96832	0.97079
2248.91451	0.96892
2246.86071	0.96853
2244.80691	0.97161
2242.75310	0.97494
2240.69930	0.97576
2238.64550	0.97492
2236.59169	0.97369
2234.53789	0.97298
2232.48409	0.97307
2230.43029	0.97335
2228.37648	0.97353
2226.32268	0.97311
2224.26888	0.97204
2222.21507	0.97199
2220.16127	0.97267
2218.10747	0.97231
2216.05366	0.97165
2213.99986	0.97217
2211.94606	0.97386
2209.89225	0.97553
2207.83845	0.97537
2205.78465	0.97350
2203.73084	0.97255
2201.67704	0.97296
2199.62324	0.97285
2197.56943	0.97175
2195.51563	0.97091
2193.46183	0.97109
2191.40802	0.97209
2189.35422	0.97397
2187.30042	0.97529
2185.24661	0.97428
2183.19281	0.97307
2181.13901	0.97344
2179.08520	0.97382
2177.03140	0.97435
2174.97760	0.97540
2172.92380	0.97632
2170.86999	0.97615
2168.81619	0.97416
2166.76239	0.97292
2164.70858	0.97366
2162.65478	0.97272
2160.60098	0.97113
2158.54717	0.97429
2156.49337	0.97813
2154.43957	0.97830
2152.38576	0.97839
2150.33196	0.97928
2148.27816	0.97917
2146.22435	0.97712
2144.17055	0.97407
2142.11675	0.97448
2140.06294	0.97777
2138.00914	0.97830
2135.95534	0.97697
2133.90153	0.97703
2131.84773	0.97687
2129.79393	0.97525
2127.74012	0.97432
2125.68632	0.97485
2123.63252	0.97542
2121.57871	0.97553
2119.52491	0.97517
2117.47111	0.97519
2115.41731	0.97589
2113.36350	0.97530
2111.30970	0.97348
2109.25590	0.97266
2107.20209	0.97275
2105.14829	0.97326
2103.09449	0.97388
2101.04068	0.97403
2098.98688	0.97455
2096.93308	0.97509
2094.87927	0.97463
2092.82547	0.97397
2090.77167	0.97398
2088.71786	0.97397
2086.66406	0.97348
2084.61026	0.97311
2082.55645	0.97253
2080.50265	0.97241
2078.44885	0.97394
2076.39504	0.97488
2074.34124	0.97420
2072.28744	0.97362
2070.23363	0.97328
2068.17983	0.97409
2066.12603	0.97662
2064.07223	0.97796
2062.01842	0.97683
2059.96462	0.97531
2057.91082	0.97402
2055.85701	0.97378
2053.80321	0.97482
2051.74941	0.97557
2049.69560	0.97717
2047.64180	0.97918
2045.58800	0.97864
2043.53419	0.97698
2041.48039	0.97687
2039.42659	0.97738
2037.37278	0.97756
2035.31898	0.97819
2033.26518	0.97838
2031.21137	0.97788
2029.15757	0.97697
2027.10377	0.97498
2025.04996	0.97429
2022.99616	0.97581
2020.94236	0.97584
2018.88855	0.97506
2016.83475	0.97631
2014.78095	0.97771
2012.72714	0.97886
2010.67334	0.97985
2008.61954	0.98007
2006.56574	0.98116
2004.51193	0.98221
2002.45813	0.98053
2000.40433	0.97827
1998.35052	0.97884
1996.29672	0.97950
1994.24292	0.97770
1992.18911	0.97611
1990.13531	0.97519
1988.08151	0.97453
1986.02770	0.97568
1983.97390	0.97718
1981.92010	0.97745
1979.86629	0.97739
1977.81249	0.97708
1975.75869	0.97569
1973.70488	0.97372
1971.65108	0.97285
1969.59728	0.97356
1967.54347	0.97543
1965.48967	0.97767
1963.43587	0.97877
1961.38206	0.97862
1959.32826	0.97686
1957.27446	0.97376
1955.22066	0.97255
1953.16685	0.97343
1951.11305	0.97471
1949.05925	0.97675
1947.00544	0.97722
1944.95164	0.97524
1942.89784	0.97476
1940.84403	0.97557
1938.79023	0.97512
1936.73643	0.97447
1934.68262	0.97453
1932.62882	0.97529
1930.57502	0.97585
1928.52121	0.97542
1926.46741	0.97504
1924.41361	0.97550
1922.35980	0.97593
1920.30600	0.97579
1918.25220	0.97550
1916.19839	0.97530
1914.14459	0.97576
1912.09079	0.97678
1910.03698	0.97707
1907.98318	0.97607
1905.92938	0.97542
1903.87557	0.97576
1901.82177	0.97602
1899.76797	0.97602
1897.71417	0.97535
1895.66036	0.97402
1893.60656	0.97371
1891.55276	0.97434
1889.49895	0.97422
1887.44515	0.97347
1885.39135	0.97359
1883.33754	0.97450
1881.28374	0.97507
1879.22994	0.97506
1877.17613	0.97438
1875.12233	0.97331
1873.06853	0.97293
1871.01472	0.97329
1868.96092	0.97336
1866.90712	0.97300
1864.85331	0.97306
1862.79951	0.97339
1860.74571	0.97369
1858.69190	0.97380
1856.63810	0.97347
1854.58430	0.97298
1852.53049	0.97266
1850.47669	0.97275
1848.42289	0.97357
1846.36908	0.97461
1844.31528	0.97498
1842.26148	0.97462
1840.20768	0.97440
1838.15387	0.97469
1836.10007	0.97465
1834.04627	0.97387
1831.99246	0.97311
1829.93866	0.97319
1827.88486	0.97416
1825.83105	0.97488
1823.77725	0.97464
1821.72345	0.97384
1819.66964	0.97328
1817.61584	0.97333
1815.56204	0.97361
1813.50823	0.97355
1811.45443	0.97311
1809.40063	0.97267
1807.34682	0.97258
1805.29302	0.97257
1803.23922	0.97235
1801.18541	0.97215
1799.13161	0.97240
1797.07781	0.97309
1795.02400	0.97363
1792.97020	0.97368
1790.91640	0.97364
1788.86260	0.97352
1786.80879	0.97309
1784.75499	0.97297
1782.70119	0.97339
1780.64738	0.97356
1778.59358	0.97340
1776.53978	0.97314
1774.48597	0.97297
1772.43217	0.97326
1770.37837	0.97364
1768.32456	0.97356
1766.27076	0.97343
1764.21696	0.97347
1762.16315	0.97345
1760.10935	0.97344
1758.05555	0.97338
1756.00174	0.97285
1753.94794	0.97242
1751.89414	0.97257
1749.84033	0.97249
1747.78653	0.97176
1745.73273	0.97102
1743.67892	0.97050
1741.62512	0.97018
1739.57132	0.96972
1737.51751	0.96882
1735.46371	0.96809
1733.40991	0.96809
1731.35611	0.96808
1729.30230	0.96783
1727.24850	0.96755
1725.19470	0.96723
1723.14089	0.96733
1721.08709	0.96753
1719.03329	0.96736
1716.97948	0.96780
1714.92568	0.96845
1712.87188	0.96821
1710.81807	0.96783
1708.76427	0.96763
1706.71047	0.96754
1704.65666	0.96751
1702.60286	0.96709
1700.54906	0.96576
1698.49525	0.96421
1696.44145	0.96344
1694.38765	0.96269
1692.33384	0.96199
1690.28004	0.96156
1688.22624	0.96090
1686.17243	0.95976
1684.11863	0.95839
1682.06483	0.95708
1680.01103	0.95605
1677.95722	0.95485
1675.90342	0.95341
1673.84962	0.95241
1671.79581	0.95127
1669.74201	0.94951
1667.68821	0.94852
1665.63440	0.94828
1663.58060	0.94772
1661.52680	0.94666
1659.47299	0.94546
1657.41919	0.94413
1655.36539	0.94292
1653.31158	0.94281
1651.25778	0.94306
1649.20398	0.94252
1647.15017	0.94239
1645.09637	0.94275
1643.04257	0.94285
1640.98876	0.94299
1638.93496	0.94306
1636.88116	0.94313
1634.82735	0.94375
1632.77355	0.94403
1630.71975	0.94401
1628.66594	0.94449
1626.61214	0.94526
1624.55834	0.94586
1622.50454	0.94642
1620.45073	0.94662
1618.39693	0.94686
1616.34313	0.94821
1614.28932	0.94947
1612.23552	0.94954
1610.18172	0.94883
1608.12791	0.94708
1606.07411	0.94433
1604.02031	0.94118
1601.96650	0.93865
1599.91270	0.93871
1597.85890	0.94175
1595.80509	0.94554
1593.75129	0.94823
1591.69749	0.94993
1589.64368	0.95101
1587.58988	0.95111
1585.53608	0.95033
1583.48227	0.94980
1581.42847	0.95034
1579.37467	0.95149
1577.32086	0.95291
1575.26706	0.95442
1573.21326	0.95518
1571.15945	0.95545
1569.10565	0.95548
1567.05185	0.95518
1564.99805	0.95502
1562.94424	0.95512
1560.89044	0.95540
1558.83664	0.95556
1556.78283	0.95447
1554.72903	0.95351
1552.67523	0.95303
1550.62142	0.95266
1548.56762	0.95246
1546.51382	0.95251
1544.46001	0.95270
1542.40621	0.95293
1540.35241	0.95309
1538.29860	0.95295
1536.24480	0.95280
1534.19100	0.95333
1532.13719	0.95448
1530.08339	0.95524
1528.02959	0.95555
1525.97578	0.95556
1523.92198	0.95554
1521.86818	0.95578
1519.81437	0.95613
1517.76057	0.95659
1515.70677	0.95707
1513.65297	0.95722
1511.59916	0.95738
1509.54536	0.95767
1507.49156	0.95812
1505.43775	0.95846
1503.38395	0.95772
1501.33015	0.95601
1499.27634	0.95214
1497.22254	0.94220
1495.16874	0.92752
1493.11493	0.91849
1491.06113	0.92037
1489.00733	0.93166
1486.95352	0.94171
1484.89972	0.94683
1482.84592	0.94977
1480.79211	0.95158
1478.73831	0.95225
1476.68451	0.95213
1474.63070	0.95192
1472.57690	0.95217
1470.52310	0.95207
1468.46929	0.95135
1466.41549	0.95068
1464.36169	0.95010
1462.30788	0.94918
1460.25408	0.94746
1458.20028	0.94202
1456.14648	0.92845
1454.09267	0.91557
1452.03887	0.90974
1449.98507	0.91111
1447.93126	0.91694
1445.87746	0.92252
1443.82366	0.92660
1441.76985	0.93023
1439.71605	0.93333
1437.66225	0.93623
1435.60844	0.93913
1433.55464	0.94085
1431.50084	0.94207
1429.44703	0.94363
1427.39323	0.94483
1425.33943	0.94547
1423.28562	0.94574
1421.23182	0.94575
1419.17802	0.94616
1417.12421	0.94698
1415.07041	0.94761
1413.01661	0.94826
1410.96280	0.94895
1408.90900	0.94952
1406.85520	0.95009
1404.80139	0.95080
1402.74759	0.95135
1400.69379	0.95188
1398.63999	0.95272
1396.58618	0.95352
1394.53238	0.95390
1392.47858	0.95370
1390.42477	0.95304
1388.37097	0.95250
1386.31717	0.95235
1384.26336	0.95226
1382.20956	0.95198
1380.15576	0.95156
1378.10195	0.95106
1376.04815	0.95072
1373.99435	0.95095
1371.94054	0.95152
1369.88674	0.95206
1367.83294	0.95246
1365.77913	0.95264
1363.72533	0.95285
1361.67153	0.95333
1359.61772	0.95383
1357.56392	0.95427
1355.51012	0.95476
1353.45631	0.95523
1351.40251	0.95542
1349.34871	0.95513
1347.29491	0.95493
1345.24110	0.95537
1343.18730	0.95593
1341.13350	0.95625
1339.07969	0.95652
1337.02589	0.95685
1334.97209	0.95713
1332.91828	0.95691
1330.86448	0.95629
1328.81068	0.95610
1326.75687	0.95634
1324.70307	0.95642
1322.64927	0.95629
1320.59546	0.95627
1318.54166	0.95632
1316.48786	0.95626
1314.43405	0.95600
1312.38025	0.95584
1310.32645	0.95614
1308.27264	0.95664
1306.21884	0.95705
1304.16504	0.95747
1302.11123	0.95783
1300.05743	0.95773
1298.00363	0.95757
1295.94982	0.95783
1293.89602	0.95796
1291.84222	0.95768
1289.78842	0.95758
1287.73461	0.95770
1285.68081	0.95754
1283.62701	0.95699
1281.57320	0.95633
1279.51940	0.95611
1277.46560	0.95615
1275.41179	0.95583
1273.35799	0.95554
1271.30419	0.95546
1269.25038	0.95519
1267.19658	0.95507
1265.14278	0.95522
1263.08897	0.95512
1261.03517	0.95516
1258.98137	0.95578
1256.92756	0.95598
1254.87376	0.95549
1252.81996	0.95503
1250.76615	0.95464
1248.71235	0.95419
1246.65855	0.95374
1244.60474	0.95332
1242.55094	0.95304
1240.49714	0.95292
1238.44334	0.95278
1236.38953	0.95270
1234.33573	0.95268
1232.28193	0.95236
1230.22812	0.95176
1228.17432	0.95113
1226.12052	0.95066
1224.06671	0.95052
1222.01291	0.95020
1219.95911	0.94912
1217.90530	0.94771
1215.85150	0.94660
1213.79770	0.94549
1211.74389	0.94399
1209.69009	0.94241
1207.63629	0.94100
1205.58248	0.93994
1203.52868	0.93896
1201.47488	0.93722
1199.42107	0.93482
1197.36727	0.93266
1195.31347	0.93075
1193.25966	0.92874
1191.20586	0.92662
1189.15206	0.92423
1187.09825	0.92149
1185.04445	0.91861
1182.99065	0.91581
1180.93685	0.91332
1178.88304	0.91141
1176.82924	0.90987
1174.77544	0.90850
1172.72163	0.90703
1170.66783	0.90493
1168.61403	0.90244
1166.56022	0.90010
1164.50642	0.89804
1162.45262	0.89631
1160.39881	0.89481
1158.34501	0.89307
1156.29121	0.89106
1154.23740	0.88943
1152.18360	0.88830
1150.12980	0.88718
1148.07599	0.88596
1146.02219	0.88493
1143.96839	0.88416
1141.91458	0.88319
1139.86078	0.88168
1137.80698	0.88010
1135.75317	0.87889
1133.69937	0.87739
1131.64557	0.87532
1129.59176	0.87319
1127.53796	0.87080
1125.48416	0.86809
1123.43036	0.86550
1121.37655	0.86273
1119.32275	0.85925
1117.26895	0.85553
1115.21514	0.85196
1113.16134	0.84835
1111.10754	0.84467
1109.05373	0.84108
1106.99993	0.83805
1104.94613	0.83567
1102.89232	0.83314
1100.83852	0.83036
1098.78472	0.82834
1096.73091	0.82678
1094.67711	0.82474
1092.62331	0.82290
1090.56950	0.82164
1088.51570	0.82030
1086.46190	0.81877
1084.40809	0.81710
1082.35429	0.81530
1080.30049	0.81351
1078.24668	0.81176
1076.19288	0.81000
1074.13908	0.80807
1072.08528	0.80581
1070.03147	0.80315
1067.97767	0.80032
1065.92387	0.79760
1063.87006	0.79519
1061.81626	0.79294
1059.76246	0.79030
1057.70865	0.78731
1055.65485	0.78434
1053.60105	0.78081
1051.54724	0.77648
1049.49344	0.77193
1047.43964	0.76703
1045.38583	0.76160
1043.33203	0.75596
1041.27823	0.74990
1039.22442	0.74329
1037.17062	0.73679
1035.11682	0.73032
1033.06301	0.72347
1031.00921	0.71736
1028.95541	0.71286
1026.90160	0.70981
1024.84780	0.70817
1022.79400	0.70750
1020.74019	0.70724
1018.68639	0.70720
1016.63259	0.70685
1014.57879	0.70566
1012.52498	0.70412
1010.47118	0.70276
1008.41738	0.70176
1006.36357	0.70125
1004.30977	0.70113
1002.25597	0.70169
1000.20216	0.70335
998.14836	0.70610
996.09456	0.70937
994.04075	0.71260
991.98695	0.71607
989.93315	0.72001
987.87934	0.72396
985.82554	0.72799
983.77174	0.73274
981.71793	0.73826
979.66413	0.74425
977.61033	0.75072
975.55652	0.75772
973.50272	0.76505
971.44892	0.77221
969.39511	0.77881
967.34131	0.78515
965.28751	0.79162
963.23371	0.79811
961.17990	0.80427
959.12610	0.80973
957.07230	0.81444
955.01849	0.81864
952.96469	0.82278
950.91089	0.82682
948.85708	0.82993
946.80328	0.83202
944.74948	0.83421
942.69567	0.83723
940.64187	0.84036
938.58807	0.84310
936.53426	0.84565
934.48046	0.84788
932.42666	0.84999
930.37285	0.85229
928.31905	0.85432
926.26525	0.85549
924.21144	0.85602
922.15764	0.85630
920.10384	0.85631
918.05003	0.85594
915.99623	0.85542
913.94243	0.85476
911.88862	0.85364
909.83482	0.85291
907.78102	0.85373
905.72722	0.85624
903.67341	0.86031
901.61961	0.86556
899.56581	0.87123
897.51200	0.87641
895.45820	0.88062
893.40440	0.88422
891.35059	0.88770
889.29679	0.89079
887.24299	0.89311
885.18918	0.89461
883.13538	0.89513
881.08158	0.89525
879.02777	0.89601
876.97397	0.89697
874.92017	0.89762
872.86636	0.89915
870.81256	0.90227
868.75876	0.90535
866.70495	0.90722
864.65115	0.90893
862.59735	0.91117
860.54354	0.91320
858.48974	0.91445
856.43594	0.91545
854.38213	0.91677
852.32833	0.91788
850.27453	0.91822
848.22073	0.91791
846.16692	0.91698
844.11312	0.91568
842.05932	0.91502
840.00551	0.91514
837.95171	0.91531
835.89791	0.91575
833.84410	0.91629
831.79030	0.91577
829.73650	0.91477
827.68269	0.91444
825.62889	0.91456
823.57509	0.91529
821.52128	0.91621
819.46748	0.91623
817.41368	0.91602
815.35987	0.91623
813.30607	0.91599
811.25227	0.91467
809.19846	0.91202
807.14466	0.90743
805.09086	0.90211
803.03705	0.89793
800.98325	0.89484
798.92945	0.89346
796.87565	0.89414
794.82184	0.89523
792.76804	0.89595
790.71424	0.89636
788.66043	0.89543
786.60663	0.89362
784.55283	0.89213
782.49902	0.89010
780.44522	0.88752
778.39142	0.88490
776.33761	0.88195
774.28381	0.87883
772.23001	0.87551
770.17620	0.87114
768.12240	0.86501
766.06860	0.85755
764.01479	0.85026
761.96099	0.84361
759.90719	0.83734
757.85338	0.83199
755.79958	0.82834
753.74578	0.82727
751.69197	0.82802
749.63817	0.82859
747.58437	0.82949
745.53056	0.83304
743.47676	0.83982
741.42296	0.84802
739.36916	0.85570
737.31535	0.86224
735.26155	0.86834
733.20775	0.87427
731.15394	0.87947
729.10014	0.88339
727.04634	0.88540
724.99253	0.88655
722.93873	0.88850
720.88493	0.89092
718.83112	0.89306
716.77732	0.89429
714.72352	0.89341
712.66971	0.89033
710.61591	0.88460
708.56211	0.87234
706.50830	0.85018
704.45450	0.81823
702.40070	0.77771
700.34689	0.73233
698.29309	0.69213
696.23929	0.67503
694.18548	0.69421
692.13168	0.73645
690.07788	0.77476
688.02408	0.79898
685.97027	0.81467
683.91647	0.82580
681.86267	0.83327
679.80886	0.83872
677.75506	0.84245
675.70126	0.84403
673.64745	0.84482
671.59365	0.84589
669.53985	0.84709
667.48604	0.84905
665.43224	0.85070
663.37844	0.85209
661.32463	0.85432
659.27083	0.85518
657.21703	0.85332
655.16322	0.85110
653.10942	0.84926
651.05562	0.84731
649.00181	0.84663
646.94801	0.84797
644.89421	0.84994
642.84040	0.85119
640.78660	0.85163
638.73280	0.85175
636.67899	0.85237
634.62519	0.85352
632.57139	0.85420
630.51759	0.85479
628.46378	0.85576
626.40998	0.85565
624.35618	0.85381
622.30237	0.85124
620.24857	0.84923
618.19477	0.84820
616.14096	0.84652
614.08716	0.84424
612.03336	0.84329
609.97955	0.84247
607.92575	0.84021
605.87195	0.83719
603.81814	0.83380
601.76434	0.83049
599.71054	0.82903
597.65673	0.82916
595.60293	0.82790
593.54913	0.82495
591.49532	0.82242
589.44152	0.82092
587.38772	0.82012
585.33391	0.81922
583.28011	0.81714
581.22631	0.81409
579.17250	0.81141
577.11870	0.80967
575.06490	0.80761
573.01110	0.80467
570.95729	0.80181
568.90349	0.79977
566.84969	0.79745
564.79588	0.79341
562.74208	0.78853
560.68828	0.78266
558.63447	0.77560
556.58067	0.77052
554.52687	0.76898
552.47306	0.76631
550.41926	0.75911
548.36546	0.74938
546.31165	0.73947
544.25785	0.73017
542.20405	0.72127
540.15024	0.71300
538.09644	0.70652
536.04264	0.70338
533.98883	0.70257
531.93503	0.70264
529.88123	0.70544
527.82742	0.71123
525.77362	0.71795
523.71982	0.72391
521.66602	0.72881
519.61221	0.73313
517.55841	0.73679
515.50461	0.73981
513.45080	0.74280
511.39700	0.74620
509.34320	0.75016
507.28939	0.75365
505.23559	0.75579
503.18179	0.75668
501.12798	0.75638
499.07418	0.75629
497.02038	0.75581
494.96657	0.75366
492.91277	0.75040
490.85897	0.74670
488.80516	0.74126
486.75136	0.73120
484.69756	0.71841
482.64375	0.70725
480.58995	0.69778
478.53615	0.68771
476.48234	0.67627
474.42854	0.66553
472.37474	0.65721
470.32093	0.65162
468.26713	0.64859
466.21333	0.64786
464.15953	0.64952
462.10572	0.65390
460.05192	0.65945
457.99812	0.66474
455.94431	0.67027
453.89051	0.67664
451.83671	0.68426
449.78290	0.68986
447.72910	0.69203
445.67530	0.69219
443.62149	0.69043
441.56769	0.69162
439.51389	0.69606
437.46008	0.69436
435.40628	0.68749
433.35248	0.68537
431.29867	0.68674
429.24487	0.68685
427.19107	0.68654
425.13726	0.68712
423.08346	0.68931
421.02966	0.69283
418.97585	0.69716
416.92205	0.69951
414.86825	0.69989
412.81445	0.70237
410.76064	0.70726
408.70684	0.71234
406.65304	0.71735
404.59923	0.72183
402.54543	0.72470
400.49163	0.72404
398.43782	0.72054
