3996.70104	0.95379
3994.64724	0.95372
3992.59344	0.95382
3990.53964	0.95386
3988.48583	0.95373
3986.43203	0.95378
3984.37823	0.95418
3982.32442	0.95465
3980.27062	0.95480
3978.21682	0.95460
3976.16301	0.95404
3974.10921	0.95336
3972.05541	0.95328
3970.00160	0.95357
3967.94780	0.95344
3965.89400	0.95333
3963.84019	0.95395
3961.78639	0.95464
3959.73259	0.95435
3957.67878	0.95355
3955.62498	0.95343
3953.57118	0.95413
3951.51737	0.95457
3949.46357	0.95432
3947.40977	0.95386
3945.35596	0.95354
3943.30216	0.95347
3941.24836	0.95364
3939.19455	0.95385
3937.14075	0.95364
3935.08695	0.95326
3933.03315	0.95360
3930.97934	0.95407
3928.92554	0.95385
3926.87174	0.95362
3924.81793	0.95366
3922.76413	0.95409
3920.71033	0.95479
3918.65652	0.95483
3916.60272	0.95413
3914.54892	0.95387
3912.49511	0.95433
3910.44131	0.95483
3908.38751	0.95487
3906.33370	0.95454
3904.27990	0.95429
3902.22610	0.95433
3900.17229	0.95447
3898.11849	0.95455
3896.06469	0.95477
3894.01088	0.95509
3891.95708	0.95511
3889.90328	0.95482
3887.84947	0.95459
3885.79567	0.95484
3883.74187	0.95564
3881.68807	0.95603
3879.63426	0.95579
3877.58046	0.95559
3875.52666	0.95553
3873.47285	0.95558
3871.41905	0.95581
3869.36525	0.95584
3867.31144	0.95511
3865.25764	0.95365
3863.20384	0.95263
3861.15003	0.95310
3859.09623	0.95384
3857.04243	0.95403
3854.98862	0.95399
3852.93482	0.95397
3850.88102	0.95398
3848.82721	0.95380
3846.77341	0.95356
3844.71961	0.95372
3842.66580	0.95439
3840.61200	0.95492
3838.55820	0.95436
3836.50439	0.95354
3834.45059	0.95362
3832.39679	0.95369
3830.34298	0.95374
3828.28918	0.95424
3826.23538	0.95465
3824.18158	0.95473
3822.12777	0.95449
3820.07397	0.95402
3818.02017	0.95434
3815.96636	0.95501
3813.91256	0.95492
3811.85876	0.95451
3809.80495	0.95458
3807.75115	0.95515
3805.69735	0.95529
3803.64354	0.95476
3801.58974	0.95402
3799.53594	0.95375
3797.48213	0.95411
3795.42833	0.95478
3793.37453	0.95532
3791.32072	0.95525
3789.26692	0.95482
3787.21312	0.95444
3785.15931	0.95425
3783.10551	0.95453
3781.05171	0.95514
3778.99790	0.95564
3776.94410	0.95568
3774.89030	0.95516
3772.83650	0.95464
3770.78269	0.95487
3768.72889	0.95549
3766.67509	0.95552
3764.62128	0.95508
3762.56748	0.95519
3760.51368	0.95573
3758.45987	0.95579
3756.40607	0.95562
3754.35227	0.95536
3752.29846	0.95490
3750.24466	0.95535
3748.19086	0.95682
3746.13705	0.95806
3744.08325	0.95851
3742.02945	0.95809
3739.97564	0.95766
3737.92184	0.95709
3735.86804	0.95625
3733.81423	0.95546
3731.76043	0.95478
3729.70663	0.95484
3727.65282	0.95566
3725.59902	0.95610
3723.54522	0.95577
3721.49141	0.95568
3719.43761	0.95563
3717.38381	0.95518
3715.33001	0.95464
3713.27620	0.95386
3711.22240	0.95272
3709.16860	0.95148
3707.11479	0.95009
3705.06099	0.94874
3703.00719	0.94742
3700.95338	0.94569
3698.89958	0.94413
3696.84578	0.94346
3694.79197	0.94352
3692.73817	0.94383
3690.68437	0.94407
3688.63056	0.94467
3686.57676	0.94569
3684.52296	0.94599
3682.46915	0.94566
3680.41535	0.94561
3678.36155	0.94584
3676.30774	0.94518
3674.25394	0.94365
3672.20014	0.94281
3670.14633	0.94237
3668.09253	0.94232
3666.03873	0.94265
3663.98492	0.94285
3661.93112	0.94280
3659.87732	0.94227
3657.82352	0.94151
3655.76971	0.94085
3653.71591	0.94017
3651.66211	0.93971
3649.60830	0.93922
3647.55450	0.93845
3645.50070	0.93817
3643.44689	0.93783
3641.39309	0.93681
3639.33929	0.93556
3637.28548	0.93475
3635.23168	0.93422
3633.17788	0.93356
3631.12407	0.93301
3629.07027	0.93250
3627.01647	0.93183
3624.96266	0.93117
3622.90886	0.93073
3620.85506	0.93087
3618.80125	0.93099
3616.74745	0.93055
3614.69365	0.93060
3612.63984	0.93128
3610.58604	0.93159
3608.53224	0.93199
3606.47844	0.93288
3604.42463	0.93352
3602.37083	0.93386
3600.31703	0.93377
3598.26322	0.93341
3596.20942	0.93334
3594.15562	0.93357
3592.10181	0.93392
3590.04801	0.93414
3587.99421	0.93375
3585.94040	0.93311
3583.88660	0.93302
3581.83280	0.93281
3579.77899	0.93199
3577.72519	0.93142
3575.67139	0.93167
3573.61758	0.93233
3571.56378	0.93274
3569.50998	0.93267
3567.45617	0.93244
3565.40237	0.93211
3563.34857	0.93136
3561.29476	0.93006
3559.24096	0.92901
3557.18716	0.92920
3555.13335	0.92994
3553.07955	0.93017
3551.02575	0.92974
3548.97195	0.92905
3546.91814	0.92882
3544.86434	0.92927
3542.81054	0.92950
3540.75673	0.92934
3538.70293	0.92932
3536.64913	0.92933
3534.59532	0.92929
3532.54152	0.92936
3530.48772	0.92934
3528.43391	0.92924
3526.38011	0.92918
3524.32631	0.92889
3522.27250	0.92859
3520.21870	0.92885
3518.16490	0.92922
3516.11109	0.92912
3514.05729	0.92902
3512.00349	0.92920
3509.94968	0.92899
3507.89588	0.92837
3505.84208	0.92815
3503.78827	0.92819
3501.73447	0.92807
3499.68067	0.92783
3497.62687	0.92751
3495.57306	0.92751
3493.51926	0.92809
3491.46546	0.92842
3489.41165	0.92799
3487.35785	0.92731
3485.30405	0.92695
3483.25024	0.92706
3481.19644	0.92725
3479.14264	0.92738
3477.08883	0.92760
3475.03503	0.92746
3472.98123	0.92680
3470.92742	0.92614
3468.87362	0.92591
3466.81982	0.92604
3464.76601	0.92598
3462.71221	0.92574
3460.65841	0.92548
3458.60460	0.92509
3456.55080	0.92486
3454.49700	0.92502
3452.44319	0.92522
3450.38939	0.92501
3448.33559	0.92436
3446.28178	0.92408
3444.22798	0.92458
3442.17418	0.92487
3440.12038	0.92460
3438.06657	0.92412
3436.01277	0.92382
3433.95897	0.92420
3431.90516	0.92473
3429.85136	0.92477
3427.79756	0.92438
3425.74375	0.92375
3423.68995	0.92314
3421.63615	0.92283
3419.58234	0.92296
3417.52854	0.92327
3415.47474	0.92312
3413.42093	0.92247
3411.36713	0.92202
3409.31333	0.92207
3407.25952	0.92221
3405.20572	0.92222
3403.15192	0.92240
3401.09811	0.92275
3399.04431	0.92270
3396.99051	0.92243
3394.93670	0.92246
3392.88290	0.92212
3390.82910	0.92159
3388.77529	0.92200
3386.72149	0.92260
3384.66769	0.92236
3382.61389	0.92219
3380.56008	0.92279
3378.50628	0.92340
3376.45248	0.92349
3374.39867	0.92320
3372.34487	0.92287
3370.29107	0.92261
3368.23726	0.92253
3366.18346	0.92281
3364.12966	0.92312
3362.07585	0.92314
3360.02205	0.92291
3357.96825	0.92285
3355.91444	0.92333
3353.86064	0.92405
3351.80684	0.92428
3349.75303	0.92404
3347.69923	0.92399
3345.64543	0.92427
3343.59162	0.92456
3341.53782	0.92474
3339.48402	0.92494
3337.43021	0.92508
3335.37641	0.92503
3333.32261	0.92491
3331.26881	0.92480
3329.21500	0.92489
3327.16120	0.92523
3325.10740	0.92550
3323.05359	0.92573
3320.99979	0.92614
3318.94599	0.92633
3316.89218	0.92618
3314.83838	0.92605
3312.78458	0.92580
3310.73077	0.92549
3308.67697	0.92545
3306.62317	0.92565
3304.56936	0.92593
3302.51556	0.92601
3300.46176	0.92613
3298.40795	0.92667
3296.35415	0.92702
3294.30035	0.92683
3292.24654	0.92668
3290.19274	0.92679
3288.13894	0.92697
3286.08513	0.92691
3284.03133	0.92672
3281.97753	0.92699
3279.92372	0.92766
3277.86992	0.92827
3275.81612	0.92895
3273.76232	0.92948
3271.70851	0.92932
3269.65471	0.92878
3267.60091	0.92830
3265.54710	0.92785
3263.49330	0.92762
3261.43950	0.92792
3259.38569	0.92793
3257.33189	0.92740
3255.27809	0.92748
3253.22428	0.92818
3251.17048	0.92893
3249.11668	0.92963
3247.06287	0.92995
3245.00907	0.92983
3242.95527	0.92950
3240.90146	0.92924
3238.84766	0.92957
3236.79386	0.93028
3234.74005	0.93070
3232.68625	0.93083
3230.63245	0.93087
3228.57864	0.93116
3226.52484	0.93179
3224.47104	0.93206
3222.41724	0.93166
3220.36343	0.93152
3218.30963	0.93208
3216.25583	0.93261
3214.20202	0.93287
3212.14822	0.93314
3210.09442	0.93328
3208.04061	0.93314
3205.98681	0.93327
3203.93301	0.93391
3201.87920	0.93424
3199.82540	0.93398
3197.77160	0.93383
3195.71779	0.93402
3193.66399	0.93415
3191.61019	0.93405
3189.55638	0.93409
3187.50258	0.93427
3185.44878	0.93457
3183.39497	0.93519
3181.34117	0.93576
3179.28737	0.93581
3177.23356	0.93549
3175.17976	0.93534
3173.12596	0.93547
3171.07215	0.93566
3169.01835	0.93563
3166.96455	0.93558
3164.91075	0.93600
3162.85694	0.93649
3160.80314	0.93659
3158.74934	0.93672
3156.69553	0.93724
3154.64173	0.93788
3152.58793	0.93831
3150.53412	0.93834
3148.48032	0.93822
3146.42652	0.93821
3144.37271	0.93832
3142.31891	0.93857
3140.26511	0.93901
3138.21130	0.93947
3136.15750	0.93954
3134.10370	0.93943
3132.04989	0.93975
3129.99609	0.94030
3127.94229	0.94053
3125.88848	0.94035
3123.83468	0.94012
3121.78088	0.94007
3119.72707	0.94010
3117.67327	0.94016
3115.61947	0.94023
3113.56566	0.94041
3111.51186	0.94054
3109.45806	0.94006
3107.40426	0.93940
3105.35045	0.93923
3103.29665	0.93931
3101.24285	0.93957
3099.18904	0.93997
3097.13524	0.93995
3095.08144	0.93937
3093.02763	0.93856
3090.97383	0.93764
3088.92003	0.93642
3086.86622	0.93453
3084.81242	0.93245
3082.75862	0.93130
3080.70481	0.93159
3078.65101	0.93278
3076.59721	0.93388
3074.54340	0.93451
3072.48960	0.93499
3070.43580	0.93502
3068.38199	0.93424
3066.32819	0.93292
3064.27439	0.93107
3062.22058	0.92901
3060.16678	0.92760
3058.11298	0.92740
3056.05918	0.92874
3054.00537	0.93120
3051.95157	0.93359
3049.89777	0.93528
3047.84396	0.93649
3045.79016	0.93725
3043.73636	0.93730
3041.68255	0.93671
3039.62875	0.93571
3037.57495	0.93414
3035.52114	0.93169
3033.46734	0.92828
3031.41354	0.92376
3029.35973	0.91841
3027.30593	0.91339
3025.25213	0.91064
3023.19832	0.91192
3021.14452	0.91660
3019.09072	0.92248
3017.03691	0.92777
3014.98311	0.93185
3012.92931	0.93491
3010.87550	0.93694
3008.82170	0.93804
3006.76790	0.93832
3004.71409	0.93771
3002.66029	0.93686
3000.60649	0.93686
2998.55269	0.93798
2996.49888	0.93968
2994.44508	0.94138
2992.39128	0.94243
2990.33747	0.94268
2988.28367	0.94303
2986.22987	0.94371
2984.17606	0.94412
2982.12226	0.94430
2980.06846	0.94436
2978.01465	0.94421
2975.96085	0.94419
2973.90705	0.94468
2971.85324	0.94526
2969.79944	0.94533
2967.74564	0.94505
2965.69183	0.94463
2963.63803	0.94401
2961.58423	0.94352
2959.53042	0.94338
2957.47662	0.94334
2955.42282	0.94290
2953.36901	0.94200
2951.31521	0.94103
2949.26141	0.94001
2947.20761	0.93877
2945.15380	0.93734
2943.10000	0.93549
2941.04620	0.93281
2938.99239	0.93000
2936.93859	0.92788
2934.88479	0.92585
2932.83098	0.92352
2930.77718	0.92080
2928.72338	0.91738
2926.66957	0.91413
2924.61577	0.91220
2922.56197	0.91097
2920.50816	0.90964
2918.45436	0.90875
2916.40056	0.90886
2914.34675	0.90993
2912.29295	0.91169
2910.23915	0.91394
2908.18534	0.91623
2906.13154	0.91814
2904.07774	0.91980
2902.02393	0.92163
2899.97013	0.92374
2897.91633	0.92600
2895.86252	0.92807
2893.80872	0.92954
2891.75492	0.93067
2889.70112	0.93177
2887.64731	0.93256
2885.59351	0.93322
2883.53971	0.93427
2881.48590	0.93569
2879.43210	0.93666
2877.37830	0.93679
2875.32449	0.93684
2873.27069	0.93726
2871.21689	0.93776
2869.16308	0.93818
2867.10928	0.93854
2865.05548	0.93851
2863.00167	0.93833
2860.94787	0.93843
2858.89407	0.93807
2856.84026	0.93686
2854.78646	0.93560
2852.73266	0.93445
2850.67885	0.93312
2848.62505	0.93209
2846.57125	0.93195
2844.51744	0.93277
2842.46364	0.93426
2840.40984	0.93611
2838.35603	0.93795
2836.30223	0.93962
2834.24843	0.94118
2832.19463	0.94238
2830.14082	0.94311
2828.08702	0.94359
2826.03322	0.94411
2823.97941	0.94471
2821.92561	0.94523
2819.87181	0.94552
2817.81800	0.94560
2815.76420	0.94574
2813.71040	0.94604
2811.65659	0.94612
2809.60279	0.94608
2807.54899	0.94636
2805.49518	0.94659
2803.44138	0.94652
2801.38758	0.94676
2799.33377	0.94753
2797.27997	0.94812
2795.22617	0.94810
2793.17236	0.94770
2791.11856	0.94741
2789.06476	0.94743
2787.01095	0.94749
2784.95715	0.94755
2782.90335	0.94798
2780.84955	0.94855
2778.79574	0.94874
2776.74194	0.94865
2774.68814	0.94854
2772.63433	0.94858
2770.58053	0.94873
2768.52673	0.94879
2766.47292	0.94885
2764.41912	0.94897
2762.36532	0.94923
2760.31151	0.94949
2758.25771	0.94949
2756.20391	0.94955
2754.15010	0.94988
2752.09630	0.94991
2750.04250	0.94943
2747.98869	0.94924
2745.93489	0.94972
2743.88109	0.95024
2741.82728	0.95026
2739.77348	0.94991
2737.71968	0.94944
2735.66587	0.94913
2733.61207	0.94925
2731.55827	0.94950
2729.50446	0.94964
2727.45066	0.94979
2725.39686	0.94986
2723.34306	0.95002
2721.28925	0.95048
2719.23545	0.95079
2717.18165	0.95065
2715.12784	0.95026
2713.07404	0.95001
2711.02024	0.94994
2708.96643	0.94990
2706.91263	0.95012
2704.85883	0.95059
2702.80502	0.95091
2700.75122	0.95098
2698.69742	0.95094
2696.64361	0.95102
2694.58981	0.95106
2692.53601	0.95080
2690.48220	0.95055
2688.42840	0.95049
2686.37460	0.95055
2684.32079	0.95067
2682.26699	0.95081
2680.21319	0.95097
2678.15938	0.95121
2676.10558	0.95142
2674.05178	0.95125
2671.99797	0.95099
2669.94417	0.95134
2667.89037	0.95192
2665.83657	0.95207
2663.78276	0.95193
2661.72896	0.95174
2659.67516	0.95153
2657.62135	0.95134
2655.56755	0.95128
2653.51375	0.95127
2651.45994	0.95102
2649.40614	0.95083
2647.35234	0.95116
2645.29853	0.95154
2643.24473	0.95157
2641.19093	0.95157
2639.13712	0.95161
2637.08332	0.95145
2635.02952	0.95131
2632.97571	0.95145
2630.92191	0.95167
2628.86811	0.95176
2626.81430	0.95167
2624.76050	0.95149
2622.70670	0.95138
2620.65289	0.95143
2618.59909	0.95165
2616.54529	0.95201
2614.49149	0.95254
2612.43768	0.95291
2610.38388	0.95263
2608.33008	0.95200
2606.27627	0.95176
2604.22247	0.95207
2602.16867	0.95252
2600.11486	0.95273
2598.06106	0.95261
2596.00726	0.95247
2593.95345	0.95308
2591.89965	0.95422
2589.84585	0.95473
2587.79204	0.95448
2585.73824	0.95415
2583.68444	0.95392
2581.63063	0.95355
2579.57683	0.95348
2577.52303	0.95399
2575.46922	0.95424
2573.41542	0.95411
2571.36162	0.95406
2569.30781	0.95382
2567.25401	0.95385
2565.20021	0.95446
2563.14640	0.95468
2561.09260	0.95441
2559.03880	0.95426
2556.98500	0.95435
2554.93119	0.95464
2552.87739	0.95447
2550.82359	0.95374
2548.76978	0.95345
2546.71598	0.95386
2544.66218	0.95401
2542.60837	0.95365
2540.55457	0.95342
2538.50077	0.95365
2536.44696	0.95407
2534.39316	0.95428
2532.33936	0.95420
2530.28555	0.95383
2528.23175	0.95346
2526.17795	0.95364
2524.12414	0.95426
2522.07034	0.95471
2520.01654	0.95475
2517.96273	0.95494
2515.90893	0.95558
2513.85513	0.95589
2511.80132	0.95563
2509.74752	0.95546
2507.69372	0.95545
2505.63992	0.95537
2503.58611	0.95498
2501.53231	0.95449
2499.47851	0.95472
2497.42470	0.95544
2495.37090	0.95547
2493.31710	0.95534
2491.26329	0.95594
2489.20949	0.95650
2487.15569	0.95619
2485.10188	0.95535
2483.04808	0.95504
2480.99428	0.95541
2478.94047	0.95562
2476.88667	0.95570
2474.83287	0.95626
2472.77906	0.95681
2470.72526	0.95667
2468.67146	0.95611
2466.61765	0.95547
2464.56385	0.95530
2462.51005	0.95592
2460.45624	0.95652
2458.40244	0.95625
2456.34864	0.95545
2454.29483	0.95487
2452.24103	0.95465
2450.18723	0.95485
2448.13343	0.95511
2446.07962	0.95510
2444.02582	0.95512
2441.97202	0.95530
2439.91821	0.95551
2437.86441	0.95537
2435.81061	0.95530
2433.75680	0.95594
2431.70300	0.95655
2429.64920	0.95648
2427.59539	0.95621
2425.54159	0.95626
2423.48779	0.95650
2421.43398	0.95657
2419.38018	0.95655
2417.32638	0.95663
2415.27257	0.95690
2413.21877	0.95726
2411.16497	0.95745
2409.11116	0.95739
2407.05736	0.95714
2405.00356	0.95669
2402.94975	0.95653
2400.89595	0.95664
2398.84215	0.95629
2396.78834	0.95589
2394.73454	0.95626
2392.68074	0.95683
2390.62694	0.95678
2388.57313	0.95641
2386.51933	0.95612
2384.46553	0.95588
2382.41172	0.95582
2380.35792	0.95579
2378.30412	0.95532
2376.25031	0.95485
2374.19651	0.95501
2372.14271	0.95573
2370.08890	0.95656
2368.03510	0.95654
2365.98130	0.95579
2363.92749	0.95557
2361.87369	0.95592
2359.81989	0.95612
2357.76608	0.95624
2355.71228	0.95603
2353.65848	0.95566
2351.60467	0.95585
2349.55087	0.95595
2347.49707	0.95576
2345.44326	0.95579
2343.38946	0.95593
2341.33566	0.95603
2339.28186	0.95627
2337.22805	0.95640
2335.17425	0.95610
2333.12045	0.95580
2331.06664	0.95588
2329.01284	0.95602
2326.95904	0.95577
2324.90523	0.95489
2322.85143	0.95414
2320.79763	0.95415
2318.74382	0.95431
2316.69002	0.95431
2314.63622	0.95422
2312.58241	0.95428
2310.52861	0.95451
2308.47481	0.95441
2306.42100	0.95468
2304.36720	0.95572
2302.31340	0.95592
2300.25959	0.95513
2298.20579	0.95521
2296.15199	0.95622
2294.09818	0.95669
2292.04438	0.95630
2289.99058	0.95579
2287.93677	0.95560
2285.88297	0.95552
2283.82917	0.95574
2281.77537	0.95650
2279.72156	0.95676
2277.66776	0.95625
2275.61396	0.95621
2273.56015	0.95697
2271.50635	0.95776
2269.45255	0.95781
2267.39874	0.95704
2265.34494	0.95629
2263.29114	0.95584
2261.23733	0.95562
2259.18353	0.95605
2257.12973	0.95669
2255.07592	0.95672
2253.02212	0.95677
2250.96832	0.95792
2248.91451	0.95925
2246.86071	0.95926
2244.80691	0.95872
2242.75310	0.95882
2240.69930	0.95884
2238.64550	0.95793
2236.59169	0.95721
2234.53789	0.95751
2232.48409	0.95788
2230.43029	0.95862
2228.37648	0.96065
2226.32268	0.96224
2224.26888	0.96141
2222.21507	0.95989
2220.16127	0.95974
2218.10747	0.95999
2216.05366	0.95952
2213.99986	0.95863
2211.94606	0.95846
2209.89225	0.95956
2207.83845	0.96064
2205.78465	0.96053
2203.73084	0.95967
2201.67704	0.95924
2199.62324	0.95977
2197.56943	0.96050
2195.51563	0.96066
2193.46183	0.96057
2191.40802	0.96018
2189.35422	0.96027
2187.30042	0.96154
2185.24661	0.96126
2183.19281	0.95881
2181.13901	0.95741
2179.08520	0.95708
2177.03140	0.95612
2174.97760	0.95592
2172.92380	0.95726
2170.86999	0.95848
2168.81619	0.96002
2166.76239	0.96287
2164.70858	0.96455
2162.65478	0.96338
2160.60098	0.96218
2158.54717	0.96288
2156.49337	0.96440
2154.43957	0.96650
2152.38576	0.96763
2150.33196	0.96671
2148.27816	0.96561
2146.22435	0.96462
2144.17055	0.96381
2142.11675	0.96370
2140.06294	0.96359
2138.00914	0.96370
2135.95534	0.96409
2133.90153	0.96430
2131.84773	0.96411
2129.79393	0.96338
2127.74012	0.96264
2125.68632	0.96210
2123.63252	0.96137
2121.57871	0.96117
2119.52491	0.96200
2117.47111	0.96259
2115.41731	0.96201
2113.36350	0.96134
2111.30970	0.96160
2109.25590	0.96168
2107.20209	0.96045
2105.14829	0.95894
2103.09449	0.95815
2101.04068	0.95856
2098.98688	0.96012
2096.93308	0.96084
2094.87927	0.96058
2092.82547	0.96070
2090.77167	0.96023
2088.71786	0.95995
2086.66406	0.96094
2084.61026	0.96129
2082.55645	0.96126
2080.50265	0.96233
2078.44885	0.96284
2076.39504	0.96157
2074.34124	0.96055
2072.28744	0.96095
2070.23363	0.96159
2068.17983	0.96210
2066.12603	0.96272
2064.07223	0.96229
2062.01842	0.96087
2059.96462	0.96051
2057.91082	0.96126
2055.85701	0.96159
2053.80321	0.96161
2051.74941	0.96153
2049.69560	0.96148
2047.64180	0.96299
2045.58800	0.96471
2043.53419	0.96322
2041.48039	0.95976
2039.42659	0.95712
2037.37278	0.95618
2035.31898	0.95736
2033.26518	0.95941
2031.21137	0.96151
2029.15757	0.96369
2027.10377	0.96540
2025.04996	0.96611
2022.99616	0.96592
2020.94236	0.96648
2018.88855	0.96621
2016.83475	0.96418
2014.78095	0.96349
2012.72714	0.96358
2010.67334	0.96407
2008.61954	0.96533
2006.56574	0.96506
2004.51193	0.96379
2002.45813	0.96279
2000.40433	0.96122
1998.35052	0.95956
1996.29672	0.96010
1994.24292	0.96264
1992.18911	0.96323
1990.13531	0.96269
1988.08151	0.96374
1986.02770	0.96404
1983.97390	0.96325
1981.92010	0.96346
1979.86629	0.96482
1977.81249	0.96526
1975.75869	0.96369
1973.70488	0.96320
1971.65108	0.96497
1969.59728	0.96526
1967.54347	0.96346
1965.48967	0.96189
1963.43587	0.96028
1961.38206	0.96054
1959.32826	0.96329
1957.27446	0.96477
1955.22066	0.96461
1953.16685	0.96437
1951.11305	0.96291
1949.05925	0.95962
1947.00544	0.95650
1944.95164	0.95536
1942.89784	0.95628
1940.84403	0.95755
1938.79023	0.95798
1936.73643	0.95790
1934.68262	0.95788
1932.62882	0.95882
1930.57502	0.96058
1928.52121	0.96214
1926.46741	0.96272
1924.41361	0.96177
1922.35980	0.96053
1920.30600	0.96027
1918.25220	0.96012
1916.19839	0.95962
1914.14459	0.95947
1912.09079	0.95983
1910.03698	0.95997
1907.98318	0.95995
1905.92938	0.96052
1903.87557	0.96093
1901.82177	0.96102
1899.76797	0.96133
1897.71417	0.96094
1895.66036	0.95976
1893.60656	0.95905
1891.55276	0.95880
1889.49895	0.95892
1887.44515	0.95946
1885.39135	0.95938
1883.33754	0.95899
1881.28374	0.95911
1879.22994	0.95921
1877.17613	0.95886
1875.12233	0.95829
1873.06853	0.95796
1871.01472	0.95809
1868.96092	0.95822
1866.90712	0.95818
1864.85331	0.95781
1862.79951	0.95710
1860.74571	0.95698
1858.69190	0.95773
1856.63810	0.95856
1854.58430	0.95913
1852.53049	0.95985
1850.47669	0.96053
1848.42289	0.96093
1846.36908	0.96142
1844.31528	0.96138
1842.26148	0.96084
1840.20768	0.96092
1838.15387	0.96133
1836.10007	0.96174
1834.04627	0.96185
1831.99246	0.96169
1829.93866	0.96155
1827.88486	0.96092
1825.83105	0.96022
1823.77725	0.96007
1821.72345	0.95979
1819.66964	0.95914
1817.61584	0.95904
1815.56204	0.95970
1813.50823	0.95992
1811.45443	0.95916
1809.40063	0.95820
1807.34682	0.95763
1805.29302	0.95729
1803.23922	0.95701
1801.18541	0.95674
1799.13161	0.95661
1797.07781	0.95705
1795.02400	0.95786
1792.97020	0.95821
1790.91640	0.95809
1788.86260	0.95820
1786.80879	0.95875
1784.75499	0.95962
1782.70119	0.96019
1780.64738	0.96028
1778.59358	0.96039
1776.53978	0.96060
1774.48597	0.96034
1772.43217	0.95977
1770.37837	0.95964
1768.32456	0.95956
1766.27076	0.95962
1764.21696	0.96014
1762.16315	0.96055
1760.10935	0.96038
1758.05555	0.96020
1756.00174	0.96016
1753.94794	0.95987
1751.89414	0.95949
1749.84033	0.95951
1747.78653	0.95951
1745.73273	0.95900
1743.67892	0.95859
1741.62512	0.95844
1739.57132	0.95820
1737.51751	0.95797
1735.46371	0.95759
1733.40991	0.95726
1731.35611	0.95770
1729.30230	0.95785
1727.24850	0.95743
1725.19470	0.95733
1723.14089	0.95785
1721.08709	0.95840
1719.03329	0.95880
1716.97948	0.95943
1714.92568	0.95993
1712.87188	0.95973
1710.81807	0.95920
1708.76427	0.95890
1706.71047	0.95855
1704.65666	0.95785
1702.60286	0.95712
1700.54906	0.95601
1698.49525	0.95446
1696.44145	0.95314
1694.38765	0.95212
1692.33384	0.95148
1690.28004	0.95102
1688.22624	0.95047
1686.17243	0.94942
1684.11863	0.94740
1682.06483	0.94578
1680.01103	0.94503
1677.95722	0.94415
1675.90342	0.94300
1673.84962	0.94189
1671.79581	0.94079
1669.74201	0.93946
1667.68821	0.93859
1665.63440	0.93826
1663.58060	0.93782
1661.52680	0.93735
1659.47299	0.93721
1657.41919	0.93714
1655.36539	0.93694
1653.31158	0.93633
1651.25778	0.93544
1649.20398	0.93506
1647.15017	0.93496
1645.09637	0.93509
1643.04257	0.93508
1640.98876	0.93477
1638.93496	0.93455
1636.88116	0.93459
1634.82735	0.93459
1632.77355	0.93454
1630.71975	0.93450
1628.66594	0.93425
1626.61214	0.93397
1624.55834	0.93391
1622.50454	0.93401
1620.45073	0.93421
1618.39693	0.93435
1616.34313	0.93433
1614.28932	0.93408
1612.23552	0.93335
1610.18172	0.93163
1608.12791	0.92802
1606.07411	0.92220
1604.02031	0.91520
1601.96650	0.90958
1599.91270	0.90877
1597.85890	0.91291
1595.80509	0.91898
1593.75129	0.92421
1591.69749	0.92757
1589.64368	0.92927
1587.58988	0.92951
1585.53608	0.92866
1583.48227	0.92810
1581.42847	0.92916
1579.37467	0.93149
1577.32086	0.93397
1575.26706	0.93597
1573.21326	0.93741
1571.15945	0.93850
1569.10565	0.93901
1567.05185	0.93921
1564.99805	0.93977
1562.94424	0.94031
1560.89044	0.94044
1558.83664	0.94073
1556.78283	0.94152
1554.72903	0.94159
1552.67523	0.94102
1550.62142	0.94051
1548.56762	0.94010
1546.51382	0.93947
1544.46001	0.93903
1542.40621	0.93908
1540.35241	0.93962
1538.29860	0.94074
1536.24480	0.94154
1534.19100	0.94208
1532.13719	0.94279
1530.08339	0.94339
1528.02959	0.94361
1525.97578	0.94360
1523.92198	0.94362
1521.86818	0.94375
1519.81437	0.94406
1517.76057	0.94410
1515.70677	0.94372
1513.65297	0.94340
1511.59916	0.94315
1509.54536	0.94278
1507.49156	0.94252
1505.43775	0.94208
1503.38395	0.94079
1501.33015	0.93814
1499.27634	0.93105
1497.22254	0.91200
1495.16874	0.88394
1493.11493	0.86685
1491.06113	0.87035
1489.00733	0.89142
1486.95352	0.91027
1484.89972	0.91985
1482.84592	0.92527
1480.79211	0.92862
1478.73831	0.93037
1476.68451	0.93125
1474.63070	0.93202
1472.57690	0.93274
1470.52310	0.93324
1468.46929	0.93360
1466.41549	0.93373
1464.36169	0.93343
1462.30788	0.93259
1460.25408	0.93039
1458.20028	0.92101
1456.14648	0.89578
1454.09267	0.87220
1452.03887	0.86190
1449.98507	0.86463
1447.93126	0.87586
1445.87746	0.88725
1443.82366	0.89584
1441.76985	0.90286
1439.71605	0.90852
1437.66225	0.91366
1435.60844	0.91891
1433.55464	0.92282
1431.50084	0.92567
1429.44703	0.92806
1427.39323	0.92981
1425.33943	0.93111
1423.28562	0.93214
1421.23182	0.93282
1419.17802	0.93348
1417.12421	0.93451
1415.07041	0.93559
1413.01661	0.93656
1410.96280	0.93753
1408.90900	0.93858
1406.85520	0.93968
1404.80139	0.94056
1402.74759	0.94115
1400.69379	0.94193
1398.63999	0.94258
1396.58618	0.94255
1394.53238	0.94244
1392.47858	0.94248
1390.42477	0.94223
1388.37097	0.94166
1386.31717	0.94076
1384.26336	0.93969
1382.20956	0.93886
1380.15576	0.93812
1378.10195	0.93731
1376.04815	0.93660
1373.99435	0.93593
1371.94054	0.93560
1369.88674	0.93588
1367.83294	0.93637
1365.77913	0.93680
1363.72533	0.93706
1361.67153	0.93733
1359.61772	0.93789
1357.56392	0.93842
1355.51012	0.93872
1353.45631	0.93902
1351.40251	0.93938
1349.34871	0.93967
1347.29491	0.94023
1345.24110	0.94120
1343.18730	0.94209
1341.13350	0.94265
1339.07969	0.94323
1337.02589	0.94387
1334.97209	0.94413
1332.91828	0.94398
1330.86448	0.94350
1328.81068	0.94297
1326.75687	0.94292
1324.70307	0.94334
1322.64927	0.94362
1320.59546	0.94385
1318.54166	0.94425
1316.48786	0.94439
1314.43405	0.94423
1312.38025	0.94427
1310.32645	0.94458
1308.27264	0.94477
1306.21884	0.94505
1304.16504	0.94573
1302.11123	0.94645
1300.05743	0.94678
1298.00363	0.94688
1295.94982	0.94708
1293.89602	0.94735
1291.84222	0.94757
1289.78842	0.94750
1287.73461	0.94713
1285.68081	0.94682
1283.62701	0.94665
1281.57320	0.94639
1279.51940	0.94614
1277.46560	0.94596
1275.41179	0.94569
1273.35799	0.94555
1271.30419	0.94563
1269.25038	0.94574
1267.19658	0.94573
1265.14278	0.94550
1263.08897	0.94533
1261.03517	0.94555
1258.98137	0.94595
1256.92756	0.94619
1254.87376	0.94615
1252.81996	0.94577
1250.76615	0.94524
1248.71235	0.94469
1246.65855	0.94408
1244.60474	0.94377
1242.55094	0.94382
1240.49714	0.94378
1238.44334	0.94358
1236.38953	0.94343
1234.33573	0.94329
1232.28193	0.94296
1230.22812	0.94239
1228.17432	0.94177
1226.12052	0.94115
1224.06671	0.94041
1222.01291	0.93950
1219.95911	0.93851
1217.90530	0.93742
1215.85150	0.93617
1213.79770	0.93481
1211.74389	0.93334
1209.69009	0.93159
1207.63629	0.92938
1205.58248	0.92700
1203.52868	0.92481
1201.47488	0.92267
1199.42107	0.92036
1197.36727	0.91801
1195.31347	0.91590
1193.25966	0.91373
1191.20586	0.91086
1189.15206	0.90759
1187.09825	0.90426
1185.04445	0.90052
1182.99065	0.89651
1180.93685	0.89308
1178.88304	0.89099
1176.82924	0.88976
1174.77544	0.88829
1172.72163	0.88650
1170.66783	0.88453
1168.61403	0.88208
1166.56022	0.87909
1164.50642	0.87606
1162.45262	0.87363
1160.39881	0.87165
1158.34501	0.86957
1156.29121	0.86705
1154.23740	0.86439
1152.18360	0.86246
1150.12980	0.86162
1148.07599	0.86146
1146.02219	0.86112
1143.96839	0.85994
1141.91458	0.85825
1139.86078	0.85665
1137.80698	0.85497
1135.75317	0.85280
1133.69937	0.85024
1131.64557	0.84744
1129.59176	0.84447
1127.53796	0.84136
1125.48416	0.83780
1123.43036	0.83371
1121.37655	0.82895
1119.32275	0.82331
1117.26895	0.81711
1115.21514	0.81077
1113.16134	0.80467
1111.10754	0.79928
1109.05373	0.79482
1106.99993	0.79089
1104.94613	0.78735
1102.89232	0.78443
1100.83852	0.78178
1098.78472	0.77891
1096.73091	0.77591
1094.67711	0.77296
1092.62331	0.77005
1090.56950	0.76771
1088.51570	0.76597
1086.46190	0.76389
1084.40809	0.76138
1082.35429	0.75890
1080.30049	0.75643
1078.24668	0.75401
1076.19288	0.75128
1074.13908	0.74797
1072.08528	0.74423
1070.03147	0.73994
1067.97767	0.73535
1065.92387	0.73119
1063.87006	0.72795
1061.81626	0.72524
1059.76246	0.72232
1057.70865	0.71852
1055.65485	0.71327
1053.60105	0.70701
1051.54724	0.70082
1049.49344	0.69459
1047.43964	0.68744
1045.38583	0.67911
1043.33203	0.66991
1041.27823	0.66041
1039.22442	0.65093
1037.17062	0.64136
1035.11682	0.63152
1033.06301	0.62134
1031.00921	0.61140
1028.95541	0.60269
1026.90160	0.59650
1024.84780	0.59378
1022.79400	0.59300
1020.74019	0.59192
1018.68639	0.59036
1016.63259	0.58892
1014.57879	0.58743
1012.52498	0.58541
1010.47118	0.58311
1008.41738	0.58115
1006.36357	0.57951
1004.30977	0.57863
1002.25597	0.57956
1000.20216	0.58229
998.14836	0.58610
996.09456	0.59059
994.04075	0.59545
991.98695	0.60045
989.93315	0.60555
987.87934	0.61113
985.82554	0.61756
983.77174	0.62483
981.71793	0.63282
979.66413	0.64174
977.61033	0.65171
975.55652	0.66253
973.50272	0.67404
971.44892	0.68550
969.39511	0.69586
967.34131	0.70521
965.28751	0.71419
963.23371	0.72291
961.17990	0.73144
959.12610	0.73965
957.07230	0.74716
955.01849	0.75393
952.96469	0.75974
950.91089	0.76443
948.85708	0.76825
946.80328	0.77164
944.74948	0.77513
942.69567	0.77869
940.64187	0.78214
938.58807	0.78560
936.53426	0.78896
934.48046	0.79251
932.42666	0.79638
930.37285	0.79956
928.31905	0.80162
926.26525	0.80314
924.21144	0.80420
922.15764	0.80475
920.10384	0.80464
918.05003	0.80342
915.99623	0.80136
913.94243	0.79910
911.88862	0.79764
909.83482	0.79748
907.78102	0.79844
905.72722	0.80160
903.67341	0.80808
901.61961	0.81707
899.56581	0.82656
897.51200	0.83484
895.45820	0.84188
893.40440	0.84818
891.35059	0.85351
889.29679	0.85765
887.24299	0.86095
885.18918	0.86391
883.13538	0.86621
881.08158	0.86709
879.02777	0.86742
876.97397	0.86885
874.92017	0.87169
872.86636	0.87543
870.81256	0.87919
868.75876	0.88223
866.70495	0.88454
864.65115	0.88641
862.59735	0.88794
860.54354	0.88883
858.48974	0.88961
856.43594	0.89140
854.38213	0.89347
852.32833	0.89470
850.27453	0.89520
848.22073	0.89533
846.16692	0.89525
844.11312	0.89464
842.05932	0.89339
840.00551	0.89235
837.95171	0.89183
835.89791	0.89134
833.84410	0.89116
831.79030	0.89130
829.73650	0.89123
827.68269	0.89174
825.62889	0.89325
823.57509	0.89481
821.52128	0.89640
819.46748	0.89762
817.41368	0.89773
815.35987	0.89754
813.30607	0.89737
811.25227	0.89607
809.19846	0.89301
807.14466	0.88894
805.09086	0.88465
803.03705	0.88043
800.98325	0.87675
798.92945	0.87452
796.87565	0.87418
794.82184	0.87481
792.76804	0.87518
790.71424	0.87514
788.66043	0.87503
786.60663	0.87422
784.55283	0.87182
782.49902	0.86808
780.44522	0.86389
778.39142	0.85992
776.33761	0.85583
774.28381	0.85058
772.23001	0.84376
770.17620	0.83462
768.12240	0.82308
766.06860	0.81056
764.01479	0.79792
761.96099	0.78544
759.90719	0.77347
757.85338	0.76354
755.79958	0.75764
753.74578	0.75595
751.69197	0.75729
749.63817	0.75980
747.58437	0.76334
745.53056	0.77082
743.47676	0.78396
741.42296	0.79991
739.36916	0.81504
737.31535	0.82819
735.26155	0.83962
733.20775	0.84987
731.15394	0.85873
729.10014	0.86529
727.04634	0.86921
724.99253	0.87151
722.93873	0.87386
720.88493	0.87623
718.83112	0.87791
716.77732	0.87868
714.72352	0.87716
712.66971	0.87192
710.61591	0.86116
708.56211	0.84048
706.50830	0.80484
704.45450	0.75190
702.40070	0.68431
700.34689	0.60924
698.29309	0.54013
696.23929	0.50431
694.18548	0.52801
692.13168	0.59855
690.07788	0.67298
688.02408	0.72497
685.97027	0.75601
683.91647	0.77518
681.86267	0.78771
679.80886	0.79581
677.75506	0.80163
675.70126	0.80721
673.64745	0.81210
671.59365	0.81477
669.53985	0.81556
667.48604	0.81684
665.43224	0.81965
663.37844	0.82210
661.32463	0.82362
659.27083	0.82450
657.21703	0.82461
655.16322	0.82323
653.10942	0.82107
651.05562	0.81995
649.00181	0.82081
646.94801	0.82294
644.89421	0.82525
642.84040	0.82749
640.78660	0.82924
638.73280	0.83015
636.67899	0.83073
634.62519	0.83187
632.57139	0.83365
630.51759	0.83402
628.46378	0.83210
626.40998	0.83020
624.35618	0.82915
622.30237	0.82798
620.24857	0.82643
618.19477	0.82454
616.14096	0.82258
614.08716	0.82056
612.03336	0.81824
609.97955	0.81624
607.92575	0.81513
605.87195	0.81419
603.81814	0.81211
601.76434	0.80788
599.71054	0.80274
597.65673	0.79922
595.60293	0.79728
593.54913	0.79506
591.49532	0.79241
589.44152	0.79052
587.38772	0.78908
585.33391	0.78767
583.28011	0.78632
581.22631	0.78420
579.17250	0.78053
577.11870	0.77573
575.06490	0.77124
573.01110	0.76818
570.95729	0.76503
568.90349	0.75952
566.84969	0.75243
564.79588	0.74511
562.74208	0.73775
560.68828	0.73104
558.63447	0.72522
556.58067	0.71873
554.52687	0.71093
552.47306	0.70191
550.41926	0.69194
548.36546	0.68270
546.31165	0.67261
544.25785	0.65967
542.20405	0.64612
540.15024	0.63320
538.09644	0.62222
536.04264	0.61585
533.98883	0.61472
531.93503	0.61722
529.88123	0.62114
527.82742	0.62652
525.77362	0.63360
523.71982	0.64057
521.66602	0.64790
519.61221	0.65580
517.55841	0.66296
515.50461	0.66936
513.45080	0.67519
511.39700	0.68085
509.34320	0.68615
507.28939	0.69122
505.23559	0.69622
503.18179	0.70002
501.12798	0.70200
499.07418	0.70228
497.02038	0.70129
494.96657	0.69901
492.91277	0.69539
490.85897	0.69009
488.80516	0.68188
486.75136	0.67039
484.69756	0.65605
482.64375	0.63932
480.58995	0.62199
478.53615	0.60520
476.48234	0.58915
474.42854	0.57581
472.37474	0.56561
470.32093	0.55902
468.26713	0.55652
466.21333	0.55581
464.15953	0.55797
462.10572	0.56470
460.05192	0.57533
457.99812	0.58838
455.94431	0.59781
453.89051	0.60319
451.83671	0.61040
449.78290	0.62047
447.72910	0.62997
445.67530	0.63459
443.62149	0.63369
441.56769	0.63131
439.51389	0.62984
437.46008	0.62699
435.40628	0.62396
433.35248	0.62272
431.29867	0.61996
429.24487	0.61891
427.19107	0.62433
425.13726	0.63054
423.08346	0.63272
421.02966	0.63288
418.97585	0.63156
416.92205	0.63611
414.86825	0.64796
412.81445	0.65801
410.76064	0.66424
408.70684	0.66936
406.65304	0.67440
404.59923	0.67966
402.54543	0.68223
400.49163	0.68037
398.43782	0.67895
