3996.70104	0.94444
3994.64724	0.94464
3992.59344	0.94473
3990.53964	0.94471
3988.48583	0.94516
3986.43203	0.94557
3984.37823	0.94589
3982.32442	0.94642
3980.27062	0.94676
3978.21682	0.94636
3976.16301	0.94584
3974.10921	0.94609
3972.05541	0.94647
3970.00160	0.94623
3967.94780	0.94611
3965.89400	0.94623
3963.84019	0.94588
3961.78639	0.94547
3959.73259	0.94550
3957.67878	0.94558
3955.62498	0.94544
3953.57118	0.94532
3951.51737	0.94502
3949.46357	0.94427
3947.40977	0.94383
3945.35596	0.94448
3943.30216	0.94563
3941.24836	0.94608
3939.19455	0.94611
3937.14075	0.94634
3935.08695	0.94626
3933.03315	0.94570
3930.97934	0.94546
3928.92554	0.94565
3926.87174	0.94575
3924.81793	0.94568
3922.76413	0.94528
3920.71033	0.94509
3918.65652	0.94538
3916.60272	0.94535
3914.54892	0.94502
3912.49511	0.94490
3910.44131	0.94468
3908.38751	0.94439
3906.33370	0.94428
3904.27990	0.94456
3902.22610	0.94489
3900.17229	0.94464
3898.11849	0.94462
3896.06469	0.94499
3894.01088	0.94506
3891.95708	0.94487
3889.90328	0.94508
3887.84947	0.94575
3885.79567	0.94619
3883.74187	0.94595
3881.68807	0.94590
3879.63426	0.94664
3877.58046	0.94735
3875.52666	0.94772
3873.47285	0.94781
3871.41905	0.94709
3869.36525	0.94591
3867.31144	0.94520
3865.25764	0.94471
3863.20384	0.94474
3861.15003	0.94565
3859.09623	0.94654
3857.04243	0.94688
3854.98862	0.94607
3852.93482	0.94436
3850.88102	0.94468
3848.82721	0.94590
3846.77341	0.94651
3844.71961	0.94649
3842.66580	0.94603
3840.61200	0.94549
3838.55820	0.94624
3836.50439	0.94787
3834.45059	0.94807
3832.39679	0.94767
3830.34298	0.94756
3828.28918	0.94720
3826.23538	0.94664
3824.18158	0.94623
3822.12777	0.94579
3820.07397	0.94574
3818.02017	0.94583
3815.96636	0.94542
3813.91256	0.94577
3811.85876	0.94651
3809.80495	0.94660
3807.75115	0.94649
3805.69735	0.94633
3803.64354	0.94604
3801.58974	0.94599
3799.53594	0.94600
3797.48213	0.94575
3795.42833	0.94553
3793.37453	0.94560
3791.32072	0.94603
3789.26692	0.94657
3787.21312	0.94671
3785.15931	0.94672
3783.10551	0.94707
3781.05171	0.94757
3778.99790	0.94801
3776.94410	0.94801
3774.89030	0.94751
3772.83650	0.94698
3770.78269	0.94665
3768.72889	0.94676
3766.67509	0.94701
3764.62128	0.94684
3762.56748	0.94688
3760.51368	0.94675
3758.45987	0.94566
3756.40607	0.94517
3754.35227	0.94522
3752.29846	0.94444
3750.24466	0.94424
3748.19086	0.94565
3746.13705	0.94686
3744.08325	0.94741
3742.02945	0.94712
3739.97564	0.94630
3737.92184	0.94513
3735.86804	0.94406
3733.81423	0.94420
3731.76043	0.94529
3729.70663	0.94635
3727.65282	0.94689
3725.59902	0.94672
3723.54522	0.94624
3721.49141	0.94589
3719.43761	0.94524
3717.38381	0.94458
3715.33001	0.94422
3713.27620	0.94281
3711.22240	0.94010
3709.16860	0.93853
3707.11479	0.93769
3705.06099	0.93607
3703.00719	0.93405
3700.95338	0.93245
3698.89958	0.93153
3696.84578	0.93138
3694.79197	0.93205
3692.73817	0.93280
3690.68437	0.93262
3688.63056	0.93263
3686.57676	0.93409
3684.52296	0.93544
3682.46915	0.93560
3680.41535	0.93488
3678.36155	0.93451
3676.30774	0.93401
3674.25394	0.93308
3672.20014	0.93299
3670.14633	0.93235
3668.09253	0.93158
3666.03873	0.93186
3663.98492	0.93209
3661.93112	0.93186
3659.87732	0.93100
3657.82352	0.92935
3655.76971	0.92781
3653.71591	0.92730
3651.66211	0.92718
3649.60830	0.92669
3647.55450	0.92530
3645.50070	0.92444
3643.44689	0.92491
3641.39309	0.92567
3639.33929	0.92606
3637.28548	0.92601
3635.23168	0.92539
3633.17788	0.92419
3631.12407	0.92275
3629.07027	0.92137
3627.01647	0.92023
3624.96266	0.91939
3622.90886	0.91857
3620.85506	0.91789
3618.80125	0.91809
3616.74745	0.91914
3614.69365	0.92029
3612.63984	0.92110
3610.58604	0.92092
3608.53224	0.91998
3606.47844	0.91967
3604.42463	0.92026
3602.37083	0.92071
3600.31703	0.92072
3598.26322	0.92080
3596.20942	0.92133
3594.15562	0.92134
3592.10181	0.92102
3590.04801	0.92153
3587.99421	0.92190
3585.94040	0.92140
3583.88660	0.92072
3581.83280	0.92038
3579.77899	0.92081
3577.72519	0.92089
3575.67139	0.92019
3573.61758	0.92005
3571.56378	0.92045
3569.50998	0.92079
3567.45617	0.92067
3565.40237	0.91908
3563.34857	0.91766
3561.29476	0.91797
3559.24096	0.91872
3557.18716	0.91865
3555.13335	0.91841
3553.07955	0.91852
3551.02575	0.91865
3548.97195	0.91834
3546.91814	0.91739
3544.86434	0.91668
3542.81054	0.91679
3540.75673	0.91697
3538.70293	0.91719
3536.64913	0.91753
3534.59532	0.91720
3532.54152	0.91667
3530.48772	0.91683
3528.43391	0.91690
3526.38011	0.91671
3524.32631	0.91667
3522.27250	0.91653
3520.21870	0.91632
3518.16490	0.91603
3516.11109	0.91617
3514.05729	0.91676
3512.00349	0.91677
3509.94968	0.91638
3507.89588	0.91633
3505.84208	0.91619
3503.78827	0.91601
3501.73447	0.91618
3499.68067	0.91604
3497.62687	0.91551
3495.57306	0.91512
3493.51926	0.91477
3491.46546	0.91442
3489.41165	0.91436
3487.35785	0.91484
3485.30405	0.91515
3483.25024	0.91468
3481.19644	0.91399
3479.14264	0.91335
3477.08883	0.91296
3475.03503	0.91291
3472.98123	0.91294
3470.92742	0.91320
3468.87362	0.91316
3466.81982	0.91215
3464.76601	0.91088
3462.71221	0.91023
3460.65841	0.91040
3458.60460	0.91084
3456.55080	0.91094
3454.49700	0.91112
3452.44319	0.91158
3450.38939	0.91142
3448.33559	0.91065
3446.28178	0.91050
3444.22798	0.91032
3442.17418	0.90942
3440.12038	0.90920
3438.06657	0.90955
3436.01277	0.90934
3433.95897	0.90883
3431.90516	0.90855
3429.85136	0.90875
3427.79756	0.90914
3425.74375	0.90929
3423.68995	0.90917
3421.63615	0.90881
3419.58234	0.90861
3417.52854	0.90871
3415.47474	0.90814
3413.42093	0.90730
3411.36713	0.90714
3409.31333	0.90709
3407.25952	0.90690
3405.20572	0.90662
3403.15192	0.90622
3401.09811	0.90618
3399.04431	0.90648
3396.99051	0.90657
3394.93670	0.90652
3392.88290	0.90640
3390.82910	0.90607
3388.77529	0.90596
3386.72149	0.90618
3384.66769	0.90629
3382.61389	0.90625
3380.56008	0.90629
3378.50628	0.90631
3376.45248	0.90611
3374.39867	0.90608
3372.34487	0.90634
3370.29107	0.90650
3368.23726	0.90645
3366.18346	0.90636
3364.12966	0.90640
3362.07585	0.90675
3360.02205	0.90687
3357.96825	0.90620
3355.91444	0.90602
3353.86064	0.90688
3351.80684	0.90739
3349.75303	0.90743
3347.69923	0.90751
3345.64543	0.90762
3343.59162	0.90783
3341.53782	0.90799
3339.48402	0.90799
3337.43021	0.90804
3335.37641	0.90807
3333.32261	0.90787
3331.26881	0.90787
3329.21500	0.90834
3327.16120	0.90900
3325.10740	0.90933
3323.05359	0.90897
3320.99979	0.90875
3318.94599	0.90941
3316.89218	0.90981
3314.83838	0.90940
3312.78458	0.90938
3310.73077	0.90962
3308.67697	0.90960
3306.62317	0.91001
3304.56936	0.91065
3302.51556	0.91079
3300.46176	0.91065
3298.40795	0.91068
3296.35415	0.91106
3294.30035	0.91160
3292.24654	0.91148
3290.19274	0.91096
3288.13894	0.91099
3286.08513	0.91144
3284.03133	0.91186
3281.97753	0.91191
3279.92372	0.91184
3277.86992	0.91210
3275.81612	0.91273
3273.76232	0.91348
3271.70851	0.91378
3269.65471	0.91361
3267.60091	0.91365
3265.54710	0.91408
3263.49330	0.91422
3261.43950	0.91389
3259.38569	0.91360
3257.33189	0.91363
3255.27809	0.91421
3253.22428	0.91509
3251.17048	0.91556
3249.11668	0.91559
3247.06287	0.91555
3245.00907	0.91567
3242.95527	0.91610
3240.90146	0.91645
3238.84766	0.91622
3236.79386	0.91592
3234.74005	0.91611
3232.68625	0.91624
3230.63245	0.91609
3228.57864	0.91621
3226.52484	0.91669
3224.47104	0.91721
3222.41724	0.91746
3220.36343	0.91750
3218.30963	0.91769
3216.25583	0.91809
3214.20202	0.91845
3212.14822	0.91857
3210.09442	0.91858
3208.04061	0.91875
3205.98681	0.91932
3203.93301	0.92000
3201.87920	0.92040
3199.82540	0.92041
3197.77160	0.92014
3195.71779	0.91997
3193.66399	0.92014
3191.61019	0.92074
3189.55638	0.92162
3187.50258	0.92207
3185.44878	0.92180
3183.39497	0.92142
3181.34117	0.92162
3179.28737	0.92227
3177.23356	0.92293
3175.17976	0.92349
3173.12596	0.92389
3171.07215	0.92395
3169.01835	0.92396
3166.96455	0.92403
3164.91075	0.92395
3162.85694	0.92408
3160.80314	0.92451
3158.74934	0.92506
3156.69553	0.92573
3154.64173	0.92637
3152.58793	0.92685
3150.53412	0.92696
3148.48032	0.92654
3146.42652	0.92622
3144.37271	0.92667
3142.31891	0.92706
3140.26511	0.92683
3138.21130	0.92684
3136.15750	0.92773
3134.10370	0.92861
3132.04989	0.92849
3129.99609	0.92826
3127.94229	0.92889
3125.88848	0.92964
3123.83468	0.92971
3121.78088	0.92945
3119.72707	0.92925
3117.67327	0.92946
3115.61947	0.93006
3113.56566	0.92997
3111.51186	0.92907
3109.45806	0.92847
3107.40426	0.92823
3105.35045	0.92775
3103.29665	0.92739
3101.24285	0.92769
3099.18904	0.92847
3097.13524	0.92920
3095.08144	0.92971
3093.02763	0.92957
3090.97383	0.92806
3088.92003	0.92563
3086.86622	0.92340
3084.81242	0.92172
3082.75862	0.92082
3080.70481	0.92109
3078.65101	0.92231
3076.59721	0.92380
3074.54340	0.92501
3072.48960	0.92552
3070.43580	0.92508
3068.38199	0.92361
3066.32819	0.92148
3064.27439	0.91915
3062.22058	0.91713
3060.16678	0.91629
3058.11298	0.91699
3056.05918	0.91886
3054.00537	0.92126
3051.95157	0.92313
3049.89777	0.92430
3047.84396	0.92517
3045.79016	0.92549
3043.73636	0.92549
3041.68255	0.92586
3039.62875	0.92590
3037.57495	0.92440
3035.52114	0.92161
3033.46734	0.91793
3031.41354	0.91258
3029.35973	0.90603
3027.30593	0.90057
3025.25213	0.89811
3023.19832	0.89935
3021.14452	0.90371
3019.09072	0.90970
3017.03691	0.91572
3014.98311	0.92043
3012.92931	0.92345
3010.87550	0.92548
3008.82170	0.92671
3006.76790	0.92666
3004.71409	0.92583
3002.66029	0.92532
3000.60649	0.92566
2998.55269	0.92691
2996.49888	0.92870
2994.44508	0.93051
2992.39128	0.93197
2990.33747	0.93305
2988.28367	0.93383
2986.22987	0.93426
2984.17606	0.93414
2982.12226	0.93369
2980.06846	0.93347
2978.01465	0.93360
2975.96085	0.93385
2973.90705	0.93411
2971.85324	0.93454
2969.79944	0.93490
2967.74564	0.93477
2965.69183	0.93401
2963.63803	0.93291
2961.58423	0.93218
2959.53042	0.93186
2957.47662	0.93127
2955.42282	0.93014
2953.36901	0.92922
2951.31521	0.92855
2949.26141	0.92711
2947.20761	0.92510
2945.15380	0.92364
2943.10000	0.92268
2941.04620	0.92097
2938.99239	0.91810
2936.93859	0.91490
2934.88479	0.91155
2932.83098	0.90779
2930.77718	0.90409
2928.72338	0.90065
2926.66957	0.89696
2924.61577	0.89347
2922.56197	0.89117
2920.50816	0.88953
2918.45436	0.88832
2916.40056	0.88831
2914.34675	0.88949
2912.29295	0.89170
2910.23915	0.89455
2908.18534	0.89703
2906.13154	0.89906
2904.07774	0.90152
2902.02393	0.90428
2899.97013	0.90664
2897.91633	0.90870
2895.86252	0.91099
2893.80872	0.91350
2891.75492	0.91548
2889.70112	0.91652
2887.64731	0.91735
2885.59351	0.91844
2883.53971	0.91929
2881.48590	0.92008
2879.43210	0.92133
2877.37830	0.92272
2875.32449	0.92394
2873.27069	0.92463
2871.21689	0.92474
2869.16308	0.92493
2867.10928	0.92512
2865.05548	0.92467
2863.00167	0.92378
2860.94787	0.92294
2858.89407	0.92195
2856.84026	0.92046
2854.78646	0.91841
2852.73266	0.91622
2850.67885	0.91464
2848.62505	0.91406
2846.57125	0.91444
2844.51744	0.91591
2842.46364	0.91818
2840.40984	0.92052
2838.35603	0.92285
2836.30223	0.92515
2834.24843	0.92688
2832.19463	0.92819
2830.14082	0.92962
2828.08702	0.93111
2826.03322	0.93219
2823.97941	0.93272
2821.92561	0.93314
2819.87181	0.93369
2817.81800	0.93394
2815.76420	0.93376
2813.71040	0.93366
2811.65659	0.93385
2809.60279	0.93421
2807.54899	0.93445
2805.49518	0.93453
2803.44138	0.93463
2801.38758	0.93460
2799.33377	0.93466
2797.27997	0.93525
2795.22617	0.93585
2793.17236	0.93619
2791.11856	0.93646
2789.06476	0.93641
2787.01095	0.93613
2784.95715	0.93619
2782.90335	0.93670
2780.84955	0.93722
2778.79574	0.93723
2776.74194	0.93679
2774.68814	0.93650
2772.63433	0.93691
2770.58053	0.93767
2768.52673	0.93786
2766.47292	0.93769
2764.41912	0.93779
2762.36532	0.93791
2760.31151	0.93800
2758.25771	0.93822
2756.20391	0.93841
2754.15010	0.93858
2752.09630	0.93870
2750.04250	0.93869
2747.98869	0.93858
2745.93489	0.93856
2743.88109	0.93874
2741.82728	0.93887
2739.77348	0.93897
2737.71968	0.93943
2735.66587	0.93977
2733.61207	0.93933
2731.55827	0.93878
2729.50446	0.93882
2727.45066	0.93910
2725.39686	0.93924
2723.34306	0.93926
2721.28925	0.93906
2719.23545	0.93885
2717.18165	0.93911
2715.12784	0.93914
2713.07404	0.93852
2711.02024	0.93801
2708.96643	0.93789
2706.91263	0.93811
2704.85883	0.93855
2702.80502	0.93898
2700.75122	0.93939
2698.69742	0.93971
2696.64361	0.93990
2694.58981	0.94003
2692.53601	0.93999
2690.48220	0.93970
2688.42840	0.93935
2686.37460	0.93941
2684.32079	0.93975
2682.26699	0.93967
2680.21319	0.93938
2678.15938	0.93966
2676.10558	0.94024
2674.05178	0.94036
2671.99797	0.94038
2669.94417	0.94049
2667.89037	0.94017
2665.83657	0.93969
2663.78276	0.93952
2661.72896	0.93941
2659.67516	0.93929
2657.62135	0.93934
2655.56755	0.93925
2653.51375	0.93890
2651.45994	0.93892
2649.40614	0.93953
2647.35234	0.94008
2645.29853	0.94000
2643.24473	0.93969
2641.19093	0.93979
2639.13712	0.94004
2637.08332	0.93995
2635.02952	0.93995
2632.97571	0.94029
2630.92191	0.94027
2628.86811	0.93975
2626.81430	0.93954
2624.76050	0.93976
2622.70670	0.93979
2620.65289	0.93980
2618.59909	0.94032
2616.54529	0.94094
2614.49149	0.94113
2612.43768	0.94104
2610.38388	0.94093
2608.33008	0.94071
2606.27627	0.94063
2604.22247	0.94076
2602.16867	0.94062
2600.11486	0.94046
2598.06106	0.94072
2596.00726	0.94090
2593.95345	0.94090
2591.89965	0.94110
2589.84585	0.94131
2587.79204	0.94131
2585.73824	0.94131
2583.68444	0.94172
2581.63063	0.94205
2579.57683	0.94159
2577.52303	0.94113
2575.46922	0.94125
2573.41542	0.94158
2571.36162	0.94193
2569.30781	0.94238
2567.25401	0.94299
2565.20021	0.94339
2563.14640	0.94330
2561.09260	0.94290
2559.03880	0.94257
2556.98500	0.94248
2554.93119	0.94217
2552.87739	0.94132
2550.82359	0.94086
2548.76978	0.94150
2546.71598	0.94243
2544.66218	0.94250
2542.60837	0.94196
2540.55457	0.94147
2538.50077	0.94157
2536.44696	0.94226
2534.39316	0.94262
2532.33936	0.94235
2530.28555	0.94174
2528.23175	0.94101
2526.17795	0.94094
2524.12414	0.94187
2522.07034	0.94260
2520.01654	0.94243
2517.96273	0.94203
2515.90893	0.94169
2513.85513	0.94182
2511.80132	0.94281
2509.74752	0.94331
2507.69372	0.94297
2505.63992	0.94290
2503.58611	0.94299
2501.53231	0.94283
2499.47851	0.94268
2497.42470	0.94289
2495.37090	0.94320
2493.31710	0.94348
2491.26329	0.94348
2489.20949	0.94254
2487.15569	0.94168
2485.10188	0.94215
2483.04808	0.94294
2480.99428	0.94281
2478.94047	0.94211
2476.88667	0.94181
2474.83287	0.94254
2472.77906	0.94371
2470.72526	0.94443
2468.67146	0.94430
2466.61765	0.94388
2464.56385	0.94430
2462.51005	0.94484
2460.45624	0.94405
2458.40244	0.94224
2456.34864	0.94081
2454.29483	0.94061
2452.24103	0.94144
2450.18723	0.94246
2448.13343	0.94336
2446.07962	0.94408
2444.02582	0.94421
2441.97202	0.94397
2439.91821	0.94381
2437.86441	0.94390
2435.81061	0.94400
2433.75680	0.94371
2431.70300	0.94326
2429.64920	0.94296
2427.59539	0.94269
2425.54159	0.94238
2423.48779	0.94228
2421.43398	0.94256
2419.38018	0.94296
2417.32638	0.94337
2415.27257	0.94384
2413.21877	0.94398
2411.16497	0.94378
2409.11116	0.94398
2407.05736	0.94448
2405.00356	0.94434
2402.94975	0.94405
2400.89595	0.94396
2398.84215	0.94326
2396.78834	0.94269
2394.73454	0.94326
2392.68074	0.94398
2390.62694	0.94396
2388.57313	0.94380
2386.51933	0.94401
2384.46553	0.94429
2382.41172	0.94396
2380.35792	0.94348
2378.30412	0.94390
2376.25031	0.94427
2374.19651	0.94324
2372.14271	0.94178
2370.08890	0.94157
2368.03510	0.94278
2365.98130	0.94457
2363.92749	0.94566
2361.87369	0.94503
2359.81989	0.94291
2357.76608	0.94075
2355.71228	0.93981
2353.65848	0.94006
2351.60467	0.94108
2349.55087	0.94199
2347.49707	0.94220
2345.44326	0.94190
2343.38946	0.94150
2341.33566	0.94129
2339.28186	0.94138
2337.22805	0.94149
2335.17425	0.94090
2333.12045	0.93979
2331.06664	0.93964
2329.01284	0.94053
2326.95904	0.94065
2324.90523	0.93963
2322.85143	0.93955
2320.79763	0.94127
2318.74382	0.94242
2316.69002	0.94193
2314.63622	0.94107
2312.58241	0.94101
2310.52861	0.94200
2308.47481	0.94268
2306.42100	0.94241
2304.36720	0.94207
2302.31340	0.94174
2300.25959	0.94152
2298.20579	0.94183
2296.15199	0.94217
2294.09818	0.94221
2292.04438	0.94232
2289.99058	0.94255
2287.93677	0.94250
2285.88297	0.94231
2283.82917	0.94253
2281.77537	0.94302
2279.72156	0.94353
2277.66776	0.94409
2275.61396	0.94416
2273.56015	0.94320
2271.50635	0.94265
2269.45255	0.94381
2267.39874	0.94445
2265.34494	0.94318
2263.29114	0.94215
2261.23733	0.94190
2259.18353	0.94143
2257.12973	0.94104
2255.07592	0.94075
2253.02212	0.93999
2250.96832	0.93937
2248.91451	0.94029
2246.86071	0.94226
2244.80691	0.94305
2242.75310	0.94261
2240.69930	0.94225
2238.64550	0.94175
2236.59169	0.94070
2234.53789	0.93965
2232.48409	0.93942
2230.43029	0.94036
2228.37648	0.94219
2226.32268	0.94339
2224.26888	0.94308
2222.21507	0.94258
2220.16127	0.94287
2218.10747	0.94414
2216.05366	0.94596
2213.99986	0.94672
2211.94606	0.94502
2209.89225	0.94233
2207.83845	0.94106
2205.78465	0.94200
2203.73084	0.94426
2201.67704	0.94477
2199.62324	0.94313
2197.56943	0.94150
2195.51563	0.94050
2193.46183	0.94075
2191.40802	0.94243
2189.35422	0.94422
2187.30042	0.94557
2185.24661	0.94533
2183.19281	0.94239
2181.13901	0.94138
2179.08520	0.94404
2177.03140	0.94537
2174.97760	0.94479
2172.92380	0.94414
2170.86999	0.94213
2168.81619	0.93889
2166.76239	0.93677
2164.70858	0.93648
2162.65478	0.93740
2160.60098	0.93990
2158.54717	0.94497
2156.49337	0.94905
2154.43957	0.94705
2152.38576	0.94219
2150.33196	0.94148
2148.27816	0.94413
2146.22435	0.94379
2144.17055	0.94134
2142.11675	0.94280
2140.06294	0.94664
2138.00914	0.94759
2135.95534	0.94640
2133.90153	0.94639
2131.84773	0.94717
2129.79393	0.94651
2127.74012	0.94516
2125.68632	0.94424
2123.63252	0.94355
2121.57871	0.94345
2119.52491	0.94424
2117.47111	0.94608
2115.41731	0.94730
2113.36350	0.94647
2111.30970	0.94546
2109.25590	0.94508
2107.20209	0.94417
2105.14829	0.94358
2103.09449	0.94455
2101.04068	0.94543
2098.98688	0.94492
2096.93308	0.94460
2094.87927	0.94519
2092.82547	0.94489
2090.77167	0.94398
2088.71786	0.94439
2086.66406	0.94515
2084.61026	0.94514
2082.55645	0.94509
2080.50265	0.94531
2078.44885	0.94552
2076.39504	0.94515
2074.34124	0.94477
2072.28744	0.94480
2070.23363	0.94369
2068.17983	0.94272
2066.12603	0.94422
2064.07223	0.94551
2062.01842	0.94439
2059.96462	0.94296
2057.91082	0.94248
2055.85701	0.94283
2053.80321	0.94360
2051.74941	0.94308
2049.69560	0.94224
2047.64180	0.94361
2045.58800	0.94592
2043.53419	0.94717
2041.48039	0.94572
2039.42659	0.94229
2037.37278	0.93984
2035.31898	0.93961
2033.26518	0.94239
2031.21137	0.94616
2029.15757	0.94604
2027.10377	0.94215
2025.04996	0.93930
2022.99616	0.93886
2020.94236	0.94013
2018.88855	0.94343
2016.83475	0.94688
2014.78095	0.94863
2012.72714	0.94894
2010.67334	0.94761
2008.61954	0.94548
2006.56574	0.94500
2004.51193	0.94610
2002.45813	0.94623
2000.40433	0.94526
1998.35052	0.94567
1996.29672	0.94787
1994.24292	0.94898
1992.18911	0.94847
1990.13531	0.94810
1988.08151	0.94660
1986.02770	0.94419
1983.97390	0.94322
1981.92010	0.94248
1979.86629	0.93993
1977.81249	0.93813
1975.75869	0.94069
1973.70488	0.94514
1971.65108	0.94833
1969.59728	0.94865
1967.54347	0.94448
1965.48967	0.94101
1963.43587	0.94214
1961.38206	0.94324
1959.32826	0.94201
1957.27446	0.94126
1955.22066	0.94284
1953.16685	0.94512
1951.11305	0.94625
1949.05925	0.94598
1947.00544	0.94451
1944.95164	0.94293
1942.89784	0.94166
1940.84403	0.94158
1938.79023	0.94380
1936.73643	0.94512
1934.68262	0.94370
1932.62882	0.94324
1930.57502	0.94500
1928.52121	0.94693
1926.46741	0.94803
1924.41361	0.94806
1922.35980	0.94734
1920.30600	0.94663
1918.25220	0.94644
1916.19839	0.94641
1914.14459	0.94571
1912.09079	0.94462
1910.03698	0.94462
1907.98318	0.94573
1905.92938	0.94635
1903.87557	0.94604
1901.82177	0.94571
1899.76797	0.94581
1897.71417	0.94528
1895.66036	0.94479
1893.60656	0.94569
1891.55276	0.94625
1889.49895	0.94540
1887.44515	0.94431
1885.39135	0.94394
1883.33754	0.94422
1881.28374	0.94408
1879.22994	0.94315
1877.17613	0.94292
1875.12233	0.94359
1873.06853	0.94367
1871.01472	0.94319
1868.96092	0.94301
1866.90712	0.94325
1864.85331	0.94316
1862.79951	0.94242
1860.74571	0.94202
1858.69190	0.94291
1856.63810	0.94447
1854.58430	0.94541
1852.53049	0.94573
1850.47669	0.94591
1848.42289	0.94585
1846.36908	0.94590
1844.31528	0.94661
1842.26148	0.94735
1840.20768	0.94742
1838.15387	0.94709
1836.10007	0.94667
1834.04627	0.94643
1831.99246	0.94649
1829.93866	0.94626
1827.88486	0.94545
1825.83105	0.94498
1823.77725	0.94513
1821.72345	0.94509
1819.66964	0.94458
1817.61584	0.94425
1815.56204	0.94448
1813.50823	0.94478
1811.45443	0.94458
1809.40063	0.94389
1807.34682	0.94308
1805.29302	0.94260
1803.23922	0.94273
1801.18541	0.94319
1799.13161	0.94344
1797.07781	0.94360
1795.02400	0.94397
1792.97020	0.94414
1790.91640	0.94438
1788.86260	0.94517
1786.80879	0.94551
1784.75499	0.94508
1782.70119	0.94500
1780.64738	0.94554
1778.59358	0.94589
1776.53978	0.94571
1774.48597	0.94522
1772.43217	0.94497
1770.37837	0.94550
1768.32456	0.94650
1766.27076	0.94690
1764.21696	0.94641
1762.16315	0.94581
1760.10935	0.94564
1758.05555	0.94558
1756.00174	0.94518
1753.94794	0.94436
1751.89414	0.94311
1749.84033	0.94165
1747.78653	0.94056
1745.73273	0.94015
1743.67892	0.94039
1741.62512	0.94080
1739.57132	0.94123
1737.51751	0.94165
1735.46371	0.94159
1733.40991	0.94127
1731.35611	0.94170
1729.30230	0.94205
1727.24850	0.94166
1725.19470	0.94112
1723.14089	0.94096
1721.08709	0.94132
1719.03329	0.94188
1716.97948	0.94197
1714.92568	0.94215
1712.87188	0.94277
1710.81807	0.94315
1708.76427	0.94303
1706.71047	0.94248
1704.65666	0.94188
1702.60286	0.94116
1700.54906	0.93967
1698.49525	0.93865
1696.44145	0.93890
1694.38765	0.93865
1692.33384	0.93779
1690.28004	0.93705
1688.22624	0.93652
1686.17243	0.93582
1684.11863	0.93439
1682.06483	0.93296
1680.01103	0.93217
1677.95722	0.93157
1675.90342	0.93070
1673.84962	0.92951
1671.79581	0.92848
1669.74201	0.92776
1667.68821	0.92747
1665.63440	0.92760
1663.58060	0.92775
1661.52680	0.92734
1659.47299	0.92640
1657.41919	0.92565
1655.36539	0.92529
1653.31158	0.92456
1651.25778	0.92392
1649.20398	0.92400
1647.15017	0.92387
1645.09637	0.92358
1643.04257	0.92361
1640.98876	0.92379
1638.93496	0.92370
1636.88116	0.92359
1634.82735	0.92403
1632.77355	0.92445
1630.71975	0.92450
1628.66594	0.92457
1626.61214	0.92478
1624.55834	0.92482
1622.50454	0.92475
1620.45073	0.92483
1618.39693	0.92502
1616.34313	0.92525
1614.28932	0.92534
1612.23552	0.92480
1610.18172	0.92327
1608.12791	0.91993
1606.07411	0.91412
1604.02031	0.90664
1601.96650	0.90041
1599.91270	0.89945
1597.85890	0.90392
1595.80509	0.91047
1593.75129	0.91621
1591.69749	0.92016
1589.64368	0.92242
1587.58988	0.92285
1585.53608	0.92147
1583.48227	0.92001
1581.42847	0.92101
1579.37467	0.92401
1577.32086	0.92712
1575.26706	0.92947
1573.21326	0.93058
1571.15945	0.93095
1569.10565	0.93124
1567.05185	0.93174
1564.99805	0.93223
1562.94424	0.93274
1560.89044	0.93321
1558.83664	0.93329
1556.78283	0.93315
1554.72903	0.93319
1552.67523	0.93327
1550.62142	0.93336
1548.56762	0.93328
1546.51382	0.93311
1544.46001	0.93307
1542.40621	0.93309
1540.35241	0.93283
1538.29860	0.93275
1536.24480	0.93264
1534.19100	0.93235
1532.13719	0.93297
1530.08339	0.93391
1528.02959	0.93398
1525.97578	0.93364
1523.92198	0.93377
1521.86818	0.93412
1519.81437	0.93441
1517.76057	0.93469
1515.70677	0.93489
1513.65297	0.93475
1511.59916	0.93419
1509.54536	0.93353
1507.49156	0.93262
1505.43775	0.93174
1503.38395	0.93114
1501.33015	0.92932
1499.27634	0.92275
1497.22254	0.90318
1495.16874	0.87280
1493.11493	0.85268
1491.06113	0.85377
1489.00733	0.87393
1486.95352	0.89338
1484.89972	0.90392
1482.84592	0.90983
1480.79211	0.91332
1478.73831	0.91553
1476.68451	0.91691
1474.63070	0.91754
1472.57690	0.91794
1470.52310	0.91826
1468.46929	0.91838
1466.41549	0.91827
1464.36169	0.91779
1462.30788	0.91706
1460.25408	0.91520
1458.20028	0.90578
1456.14648	0.87956
1454.09267	0.85458
1452.03887	0.84267
1449.98507	0.84375
1447.93126	0.85363
1445.87746	0.86447
1443.82366	0.87328
1441.76985	0.88063
1439.71605	0.88636
1437.66225	0.89153
1435.60844	0.89701
1433.55464	0.90141
1431.50084	0.90507
1429.44703	0.90827
1427.39323	0.91040
1425.33943	0.91193
1423.28562	0.91330
1421.23182	0.91444
1419.17802	0.91576
1417.12421	0.91698
1415.07041	0.91782
1413.01661	0.91895
1410.96280	0.92042
1408.90900	0.92178
1406.85520	0.92297
1404.80139	0.92423
1402.74759	0.92520
1400.69379	0.92568
1398.63999	0.92619
1396.58618	0.92674
1394.53238	0.92700
1392.47858	0.92711
1390.42477	0.92712
1388.37097	0.92704
1386.31717	0.92645
1384.26336	0.92516
1382.20956	0.92379
1380.15576	0.92253
1378.10195	0.92132
1376.04815	0.92045
1373.99435	0.92023
1371.94054	0.92048
1369.88674	0.92086
1367.83294	0.92123
1365.77913	0.92148
1363.72533	0.92172
1361.67153	0.92240
1359.61772	0.92339
1357.56392	0.92431
1355.51012	0.92515
1353.45631	0.92581
1351.40251	0.92616
1349.34871	0.92641
1347.29491	0.92681
1345.24110	0.92746
1343.18730	0.92820
1341.13350	0.92883
1339.07969	0.92935
1337.02589	0.92938
1334.97209	0.92870
1332.91828	0.92787
1330.86448	0.92746
1328.81068	0.92751
1326.75687	0.92773
1324.70307	0.92803
1322.64927	0.92809
1320.59546	0.92774
1318.54166	0.92737
1316.48786	0.92720
1314.43405	0.92718
1312.38025	0.92740
1310.32645	0.92786
1308.27264	0.92843
1306.21884	0.92915
1304.16504	0.92976
1302.11123	0.92993
1300.05743	0.93002
1298.00363	0.93049
1295.94982	0.93109
1293.89602	0.93148
1291.84222	0.93149
1289.78842	0.93131
1287.73461	0.93127
1285.68081	0.93116
1283.62701	0.93077
1281.57320	0.93014
1279.51940	0.92959
1277.46560	0.92957
1275.41179	0.92969
1273.35799	0.92928
1271.30419	0.92871
1269.25038	0.92860
1267.19658	0.92913
1265.14278	0.92995
1263.08897	0.93044
1261.03517	0.93076
1258.98137	0.93098
1256.92756	0.93069
1254.87376	0.93010
1252.81996	0.92969
1250.76615	0.92939
1248.71235	0.92897
1246.65855	0.92878
1244.60474	0.92886
1242.55094	0.92870
1240.49714	0.92845
1238.44334	0.92830
1236.38953	0.92793
1234.33573	0.92755
1232.28193	0.92739
1230.22812	0.92722
1228.17432	0.92673
1226.12052	0.92578
1224.06671	0.92470
1222.01291	0.92375
1219.95911	0.92255
1217.90530	0.92084
1215.85150	0.91907
1213.79770	0.91765
1211.74389	0.91632
1209.69009	0.91460
1207.63629	0.91243
1205.58248	0.90997
1203.52868	0.90732
1201.47488	0.90460
1199.42107	0.90194
1197.36727	0.89933
1195.31347	0.89689
1193.25966	0.89468
1191.20586	0.89216
1189.15206	0.88915
1187.09825	0.88568
1185.04445	0.88156
1182.99065	0.87711
1180.93685	0.87314
1178.88304	0.87046
1176.82924	0.86885
1174.77544	0.86732
1172.72163	0.86561
1170.66783	0.86367
1168.61403	0.86127
1166.56022	0.85878
1164.50642	0.85651
1162.45262	0.85429
1160.39881	0.85197
1158.34501	0.84920
1156.29121	0.84621
1154.23740	0.84398
1152.18360	0.84272
1150.12980	0.84189
1148.07599	0.84130
1146.02219	0.84065
1143.96839	0.83961
1141.91458	0.83860
1139.86078	0.83782
1137.80698	0.83655
1135.75317	0.83438
1133.69937	0.83209
1131.64557	0.82986
1129.59176	0.82693
1127.53796	0.82340
1125.48416	0.81978
1123.43036	0.81545
1121.37655	0.81004
1119.32275	0.80384
1117.26895	0.79722
1115.21514	0.79084
1113.16134	0.78488
1111.10754	0.77898
1109.05373	0.77399
1106.99993	0.77048
1104.94613	0.76750
1102.89232	0.76455
1100.83852	0.76180
1098.78472	0.75935
1096.73091	0.75739
1094.67711	0.75587
1092.62331	0.75477
1090.56950	0.75369
1088.51570	0.75170
1086.46190	0.74895
1084.40809	0.74641
1082.35429	0.74435
1080.30049	0.74259
1078.24668	0.74080
1076.19288	0.73879
1074.13908	0.73616
1072.08528	0.73223
1070.03147	0.72757
1067.97767	0.72351
1065.92387	0.72025
1063.87006	0.71736
1061.81626	0.71461
1059.76246	0.71153
1057.70865	0.70760
1055.65485	0.70281
1053.60105	0.69758
1051.54724	0.69182
1049.49344	0.68546
1047.43964	0.67839
1045.38583	0.67040
1043.33203	0.66191
1041.27823	0.65334
1039.22442	0.64477
1037.17062	0.63601
1035.11682	0.62655
1033.06301	0.61635
1031.00921	0.60623
1028.95541	0.59783
1026.90160	0.59275
1024.84780	0.59138
1022.79400	0.59210
1020.74019	0.59306
1018.68639	0.59358
1016.63259	0.59325
1014.57879	0.59224
1012.52498	0.59122
1010.47118	0.58978
1008.41738	0.58761
1006.36357	0.58581
1004.30977	0.58508
1002.25597	0.58582
1000.20216	0.58912
998.14836	0.59457
996.09456	0.60008
994.04075	0.60534
991.98695	0.61136
989.93315	0.61798
987.87934	0.62449
985.82554	0.63125
983.77174	0.63888
981.71793	0.64723
979.66413	0.65618
977.61033	0.66587
975.55652	0.67615
973.50272	0.68668
971.44892	0.69706
969.39511	0.70660
967.34131	0.71501
965.28751	0.72290
963.23371	0.73060
961.17990	0.73809
959.12610	0.74572
957.07230	0.75329
955.01849	0.76004
952.96469	0.76580
950.91089	0.77044
948.85708	0.77360
946.80328	0.77602
944.74948	0.77873
942.69567	0.78139
940.64187	0.78342
938.58807	0.78532
936.53426	0.78789
934.48046	0.79107
932.42666	0.79428
930.37285	0.79743
928.31905	0.80034
926.26525	0.80235
924.21144	0.80319
922.15764	0.80304
920.10384	0.80188
918.05003	0.79977
915.99623	0.79696
913.94243	0.79373
911.88862	0.79064
909.83482	0.78916
907.78102	0.79043
905.72722	0.79451
903.67341	0.80151
901.61961	0.81069
899.56581	0.82010
897.51200	0.82850
895.45820	0.83591
893.40440	0.84201
891.35059	0.84639
889.29679	0.85014
887.24299	0.85377
885.18918	0.85668
883.13538	0.85897
881.08158	0.86013
879.02777	0.86007
876.97397	0.85997
874.92017	0.86037
872.86636	0.86218
870.81256	0.86633
868.75876	0.87161
866.70495	0.87633
864.65115	0.87973
862.59735	0.88147
860.54354	0.88241
858.48974	0.88387
856.43594	0.88578
854.38213	0.88744
852.32833	0.88856
850.27453	0.88886
848.22073	0.88810
846.16692	0.88669
844.11312	0.88526
842.05932	0.88395
840.00551	0.88309
837.95171	0.88303
835.89791	0.88393
833.84410	0.88535
831.79030	0.88627
829.73650	0.88690
827.68269	0.88763
825.62889	0.88837
823.57509	0.88914
821.52128	0.88951
819.46748	0.89006
817.41368	0.89134
815.35987	0.89233
813.30607	0.89223
811.25227	0.89037
809.19846	0.88657
807.14466	0.88209
805.09086	0.87781
803.03705	0.87396
800.98325	0.87051
798.92945	0.86739
796.87565	0.86548
794.82184	0.86565
792.76804	0.86656
790.71424	0.86639
788.66043	0.86586
786.60663	0.86523
784.55283	0.86304
782.49902	0.85913
780.44522	0.85465
778.39142	0.85044
776.33761	0.84631
774.28381	0.84100
772.23001	0.83328
770.17620	0.82322
768.12240	0.81146
766.06860	0.79866
764.01479	0.78614
761.96099	0.77395
759.90719	0.76149
757.85338	0.75085
755.79958	0.74433
753.74578	0.74190
751.69197	0.74174
749.63817	0.74202
747.58437	0.74442
745.53056	0.75251
743.47676	0.76655
741.42296	0.78344
739.36916	0.79996
737.31535	0.81415
735.26155	0.82606
733.20775	0.83689
731.15394	0.84633
729.10014	0.85277
727.04634	0.85694
724.99253	0.86115
722.93873	0.86561
720.88493	0.86880
718.83112	0.87024
716.77732	0.87112
714.72352	0.87093
712.66971	0.86726
710.61591	0.85672
708.56211	0.83479
706.50830	0.79836
704.45450	0.74589
702.40070	0.67827
700.34689	0.60149
698.29309	0.52809
696.23929	0.48226
694.18548	0.49109
692.13168	0.55026
690.07788	0.62193
688.02408	0.67709
685.97027	0.71306
683.91647	0.73675
681.86267	0.75326
679.80886	0.76502
677.75506	0.77391
675.70126	0.78105
673.64745	0.78603
671.59365	0.78884
669.53985	0.79122
667.48604	0.79559
665.43224	0.79949
663.37844	0.80115
661.32463	0.80225
659.27083	0.80369
657.21703	0.80422
655.16322	0.80335
653.10942	0.80264
651.05562	0.80229
649.00181	0.80248
646.94801	0.80425
644.89421	0.80742
642.84040	0.81056
640.78660	0.81238
638.73280	0.81366
636.67899	0.81441
634.62519	0.81385
632.57139	0.81360
630.51759	0.81394
628.46378	0.81314
626.40998	0.81194
624.35618	0.81107
622.30237	0.80948
620.24857	0.80808
618.19477	0.80736
616.14096	0.80545
614.08716	0.80233
612.03336	0.80045
609.97955	0.79992
607.92575	0.79784
605.87195	0.79353
603.81814	0.78940
601.76434	0.78681
599.71054	0.78526
597.65673	0.78472
595.60293	0.78435
593.54913	0.78207
591.49532	0.77808
589.44152	0.77505
587.38772	0.77347
585.33391	0.77245
583.28011	0.77159
581.22631	0.76954
579.17250	0.76750
577.11870	0.76571
575.06490	0.76103
573.01110	0.75423
570.95729	0.74834
568.90349	0.74325
566.84969	0.73731
564.79588	0.73002
562.74208	0.72176
560.68828	0.71383
558.63447	0.70743
556.58067	0.70197
554.52687	0.69536
552.47306	0.68706
550.41926	0.67751
548.36546	0.66667
546.31165	0.65526
544.25785	0.64328
542.20405	0.63006
540.15024	0.61589
538.09644	0.60376
536.04264	0.59814
533.98883	0.59813
531.93503	0.60001
529.88123	0.60403
527.82742	0.61056
525.77362	0.61887
523.71982	0.62796
521.66602	0.63663
519.61221	0.64506
517.55841	0.65353
515.50461	0.66265
513.45080	0.67142
511.39700	0.67825
509.34320	0.68308
507.28939	0.68629
505.23559	0.68859
503.18179	0.69141
501.12798	0.69550
499.07418	0.69787
497.02038	0.69640
494.96657	0.69339
492.91277	0.69061
490.85897	0.68567
488.80516	0.67658
486.75136	0.66456
484.69756	0.65114
482.64375	0.63773
480.58995	0.62536
478.53615	0.61319
476.48234	0.59980
474.42854	0.58653
472.37474	0.57446
470.32093	0.56521
468.26713	0.56098
466.21333	0.56029
464.15953	0.56397
462.10572	0.57176
460.05192	0.57948
457.99812	0.58926
455.94431	0.60167
453.89051	0.61194
451.83671	0.62008
449.78290	0.62622
447.72910	0.62990
445.67530	0.63068
443.62149	0.63078
441.56769	0.63356
439.51389	0.63630
437.46008	0.63384
435.40628	0.62610
433.35248	0.61647
431.29867	0.61064
429.24487	0.61408
427.19107	0.62262
425.13726	0.62848
423.08346	0.62846
421.02966	0.62371
418.97585	0.62618
416.92205	0.63912
414.86825	0.64414
412.81445	0.64698
410.76064	0.65692
408.70684	0.66614
406.65304	0.67147
404.59923	0.67831
402.54543	0.68662
400.49163	0.69194
398.43782	0.69104
