3996.70104	0.99875
3994.64724	0.99851
3992.59344	0.99874
3990.53964	0.99898
3988.48583	0.99874
3986.43203	0.99822
3984.37823	0.99812
3982.32442	0.99818
3980.27062	0.99798
3978.21682	0.99807
3976.16301	0.99834
3974.10921	0.99800
3972.05541	0.99747
3970.00160	0.99769
3967.94780	0.99806
3965.89400	0.99773
3963.84019	0.99750
3961.78639	0.99769
3959.73259	0.99768
3957.67878	0.99756
3955.62498	0.99743
3953.57118	0.99752
3951.51737	0.99777
3949.46357	0.99792
3947.40977	0.99817
3945.35596	0.99830
3943.30216	0.99813
3941.24836	0.99795
3939.19455	0.99764
3937.14075	0.99700
3935.08695	0.99669
3933.03315	0.99697
3930.97934	0.99703
3928.92554	0.99680
3926.87174	0.99707
3924.81793	0.99772
3922.76413	0.99815
3920.71033	0.99826
3918.65652	0.99839
3916.60272	0.99856
3914.54892	0.99826
3912.49511	0.99788
3910.44131	0.99807
3908.38751	0.99849
3906.33370	0.99887
3904.27990	0.99936
3902.22610	0.99967
3900.17229	0.99924
3898.11849	0.99828
3896.06469	0.99756
3894.01088	0.99740
3891.95708	0.99753
3889.90328	0.99771
3887.84947	0.99771
3885.79567	0.99715
3883.74187	0.99649
3881.68807	0.99663
3879.63426	0.99745
3877.58046	0.99794
3875.52666	0.99797
3873.47285	0.99788
3871.41905	0.99746
3869.36525	0.99723
3867.31144	0.99767
3865.25764	0.99782
3863.20384	0.99745
3861.15003	0.99732
3859.09623	0.99763
3857.04243	0.99801
3854.98862	0.99822
3852.93482	0.99843
3850.88102	0.99850
3848.82721	0.99820
3846.77341	0.99786
3844.71961	0.99786
3842.66580	0.99838
3840.61200	0.99892
3838.55820	0.99908
3836.50439	0.99860
3834.45059	0.99776
3832.39679	0.99732
3830.34298	0.99718
3828.28918	0.99769
3826.23538	0.99892
3824.18158	0.99962
3822.12777	0.99937
3820.07397	0.99841
3818.02017	0.99745
3815.96636	0.99720
3813.91256	0.99774
3811.85876	0.99839
3809.80495	0.99878
3807.75115	0.99872
3805.69735	0.99872
3803.64354	0.99912
3801.58974	0.99887
3799.53594	0.99809
3797.48213	0.99789
3795.42833	0.99804
3793.37453	0.99819
3791.32072	0.99803
3789.26692	0.99733
3787.21312	0.99686
3785.15931	0.99700
3783.10551	0.99736
3781.05171	0.99779
3778.99790	0.99822
3776.94410	0.99858
3774.89030	0.99877
3772.83650	0.99855
3770.78269	0.99826
3768.72889	0.99842
3766.67509	0.99863
3764.62128	0.99863
3762.56748	0.99834
3760.51368	0.99786
3758.45987	0.99774
3756.40607	0.99783
3754.35227	0.99735
3752.29846	0.99632
3750.24466	0.99646
3748.19086	0.99806
3746.13705	0.99848
3744.08325	0.99780
3742.02945	0.99771
3739.97564	0.99769
3737.92184	0.99753
3735.86804	0.99757
3733.81423	0.99770
3731.76043	0.99816
3729.70663	0.99860
3727.65282	0.99851
3725.59902	0.99805
3723.54522	0.99746
3721.49141	0.99709
3719.43761	0.99726
3717.38381	0.99739
3715.33001	0.99716
3713.27620	0.99658
3711.22240	0.99572
3709.16860	0.99538
3707.11479	0.99538
3705.06099	0.99492
3703.00719	0.99438
3700.95338	0.99405
3698.89958	0.99304
3696.84578	0.99173
3694.79197	0.99144
3692.73817	0.99217
3690.68437	0.99291
3688.63056	0.99330
3686.57676	0.99326
3684.52296	0.99294
3682.46915	0.99305
3680.41535	0.99367
3678.36155	0.99423
3676.30774	0.99440
3674.25394	0.99411
3672.20014	0.99350
3670.14633	0.99281
3668.09253	0.99276
3666.03873	0.99319
3663.98492	0.99344
3661.93112	0.99347
3659.87732	0.99320
3657.82352	0.99261
3655.76971	0.99224
3653.71591	0.99219
3651.66211	0.99240
3649.60830	0.99319
3647.55450	0.99341
3645.50070	0.99247
3643.44689	0.99151
3641.39309	0.99098
3639.33929	0.99080
3637.28548	0.99091
3635.23168	0.99108
3633.17788	0.99060
3631.12407	0.98944
3629.07027	0.98844
3627.01647	0.98798
3624.96266	0.98776
3622.90886	0.98755
3620.85506	0.98761
3618.80125	0.98870
3616.74745	0.98991
3614.69365	0.99042
3612.63984	0.99066
3610.58604	0.99047
3608.53224	0.98961
3606.47844	0.98878
3604.42463	0.98866
3602.37083	0.98914
3600.31703	0.98979
3598.26322	0.98976
3596.20942	0.98916
3594.15562	0.98887
3592.10181	0.98921
3590.04801	0.98953
3587.99421	0.98883
3585.94040	0.98789
3583.88660	0.98808
3581.83280	0.98846
3579.77899	0.98842
3577.72519	0.98813
3575.67139	0.98774
3573.61758	0.98756
3571.56378	0.98770
3569.50998	0.98812
3567.45617	0.98861
3565.40237	0.98831
3563.34857	0.98760
3561.29476	0.98744
3559.24096	0.98798
3557.18716	0.98854
3555.13335	0.98818
3553.07955	0.98718
3551.02575	0.98694
3548.97195	0.98751
3546.91814	0.98781
3544.86434	0.98740
3542.81054	0.98660
3540.75673	0.98599
3538.70293	0.98562
3536.64913	0.98494
3534.59532	0.98441
3532.54152	0.98495
3530.48772	0.98576
3528.43391	0.98580
3526.38011	0.98551
3524.32631	0.98555
3522.27250	0.98594
3520.21870	0.98616
3518.16490	0.98589
3516.11109	0.98573
3514.05729	0.98580
3512.00349	0.98548
3509.94968	0.98524
3507.89588	0.98566
3505.84208	0.98604
3503.78827	0.98578
3501.73447	0.98515
3499.68067	0.98480
3497.62687	0.98495
3495.57306	0.98516
3493.51926	0.98469
3491.46546	0.98381
3489.41165	0.98350
3487.35785	0.98400
3485.30405	0.98439
3483.25024	0.98418
3481.19644	0.98411
3479.14264	0.98429
3477.08883	0.98411
3475.03503	0.98375
3472.98123	0.98354
3470.92742	0.98331
3468.87362	0.98322
3466.81982	0.98342
3464.76601	0.98341
3462.71221	0.98311
3460.65841	0.98304
3458.60460	0.98327
3456.55080	0.98309
3454.49700	0.98259
3452.44319	0.98254
3450.38939	0.98266
3448.33559	0.98253
3446.28178	0.98211
3444.22798	0.98170
3442.17418	0.98170
3440.12038	0.98177
3438.06657	0.98169
3436.01277	0.98158
3433.95897	0.98153
3431.90516	0.98133
3429.85136	0.98079
3427.79756	0.98041
3425.74375	0.98017
3423.68995	0.97971
3421.63615	0.97956
3419.58234	0.97990
3417.52854	0.98029
3415.47474	0.98057
3413.42093	0.98055
3411.36713	0.98031
3409.31333	0.98020
3407.25952	0.98004
3405.20572	0.97958
3403.15192	0.97920
3401.09811	0.97941
3399.04431	0.97984
3396.99051	0.98001
3394.93670	0.97999
3392.88290	0.97979
3390.82910	0.97961
3388.77529	0.97951
3386.72149	0.97957
3384.66769	0.98019
3382.61389	0.98059
3380.56008	0.98006
3378.50628	0.97932
3376.45248	0.97913
3374.39867	0.97935
3372.34487	0.97939
3370.29107	0.97929
3368.23726	0.97923
3366.18346	0.97916
3364.12966	0.97888
3362.07585	0.97861
3360.02205	0.97893
3357.96825	0.97953
3355.91444	0.97981
3353.86064	0.97961
3351.80684	0.97935
3349.75303	0.97950
3347.69923	0.97980
3345.64543	0.97986
3343.59162	0.97961
3341.53782	0.97918
3339.48402	0.97868
3337.43021	0.97813
3335.37641	0.97786
3333.32261	0.97781
3331.26881	0.97768
3329.21500	0.97766
3327.16120	0.97778
3325.10740	0.97767
3323.05359	0.97740
3320.99979	0.97751
3318.94599	0.97799
3316.89218	0.97816
3314.83838	0.97764
3312.78458	0.97696
3310.73077	0.97670
3308.67697	0.97671
3306.62317	0.97689
3304.56936	0.97704
3302.51556	0.97707
3300.46176	0.97709
3298.40795	0.97691
3296.35415	0.97662
3294.30035	0.97653
3292.24654	0.97647
3290.19274	0.97626
3288.13894	0.97639
3286.08513	0.97686
3284.03133	0.97693
3281.97753	0.97645
3279.92372	0.97593
3277.86992	0.97587
3275.81612	0.97612
3273.76232	0.97624
3271.70851	0.97632
3269.65471	0.97635
3267.60091	0.97637
3265.54710	0.97646
3263.49330	0.97656
3261.43950	0.97670
3259.38569	0.97663
3257.33189	0.97626
3255.27809	0.97592
3253.22428	0.97569
3251.17048	0.97555
3249.11668	0.97562
3247.06287	0.97598
3245.00907	0.97650
3242.95527	0.97703
3240.90146	0.97727
3238.84766	0.97711
3236.79386	0.97689
3234.74005	0.97693
3232.68625	0.97708
3230.63245	0.97705
3228.57864	0.97712
3226.52484	0.97745
3224.47104	0.97758
3222.41724	0.97751
3220.36343	0.97784
3218.30963	0.97834
3216.25583	0.97855
3214.20202	0.97842
3212.14822	0.97827
3210.09442	0.97857
3208.04061	0.97902
3205.98681	0.97908
3203.93301	0.97907
3201.87920	0.97928
3199.82540	0.97928
3197.77160	0.97911
3195.71779	0.97915
3193.66399	0.97906
3191.61019	0.97885
3189.55638	0.97918
3187.50258	0.97965
3185.44878	0.97966
3183.39497	0.97939
3181.34117	0.97953
3179.28737	0.98010
3177.23356	0.98010
3175.17976	0.97980
3173.12596	0.98005
3171.07215	0.98020
3169.01835	0.98003
3166.96455	0.98037
3164.91075	0.98096
3162.85694	0.98115
3160.80314	0.98154
3158.74934	0.98219
3156.69553	0.98238
3154.64173	0.98212
3152.58793	0.98157
3150.53412	0.98129
3148.48032	0.98176
3146.42652	0.98219
3144.37271	0.98223
3142.31891	0.98248
3140.26511	0.98300
3138.21130	0.98366
3136.15750	0.98432
3134.10370	0.98433
3132.04989	0.98358
3129.99609	0.98292
3127.94229	0.98294
3125.88848	0.98352
3123.83468	0.98391
3121.78088	0.98381
3119.72707	0.98374
3117.67327	0.98386
3115.61947	0.98380
3113.56566	0.98361
3111.51186	0.98375
3109.45806	0.98430
3107.40426	0.98501
3105.35045	0.98546
3103.29665	0.98547
3101.24285	0.98522
3099.18904	0.98501
3097.13524	0.98494
3095.08144	0.98488
3093.02763	0.98477
3090.97383	0.98462
3088.92003	0.98430
3086.86622	0.98385
3084.81242	0.98358
3082.75862	0.98382
3080.70481	0.98467
3078.65101	0.98531
3076.59721	0.98515
3074.54340	0.98502
3072.48960	0.98525
3070.43580	0.98533
3068.38199	0.98512
3066.32819	0.98480
3064.27439	0.98468
3062.22058	0.98503
3060.16678	0.98558
3058.11298	0.98580
3056.05918	0.98570
3054.00537	0.98576
3051.95157	0.98600
3049.89777	0.98598
3047.84396	0.98600
3045.79016	0.98632
3043.73636	0.98644
3041.68255	0.98633
3039.62875	0.98630
3037.57495	0.98634
3035.52114	0.98652
3033.46734	0.98680
3031.41354	0.98710
3029.35973	0.98741
3027.30593	0.98740
3025.25213	0.98697
3023.19832	0.98695
3021.14452	0.98759
3019.09072	0.98793
3017.03691	0.98786
3014.98311	0.98798
3012.92931	0.98803
3010.87550	0.98784
3008.82170	0.98767
3006.76790	0.98770
3004.71409	0.98811
3002.66029	0.98863
3000.60649	0.98892
2998.55269	0.98918
2996.49888	0.98928
2994.44508	0.98900
2992.39128	0.98872
2990.33747	0.98860
2988.28367	0.98823
2986.22987	0.98763
2984.17606	0.98755
2982.12226	0.98805
2980.06846	0.98852
2978.01465	0.98866
2975.96085	0.98858
2973.90705	0.98842
2971.85324	0.98817
2969.79944	0.98779
2967.74564	0.98736
2965.69183	0.98711
2963.63803	0.98721
2961.58423	0.98745
2959.53042	0.98765
2957.47662	0.98777
2955.42282	0.98781
2953.36901	0.98791
2951.31521	0.98794
2949.26141	0.98777
2947.20761	0.98771
2945.15380	0.98783
2943.10000	0.98789
2941.04620	0.98778
2938.99239	0.98758
2936.93859	0.98765
2934.88479	0.98798
2932.83098	0.98816
2930.77718	0.98811
2928.72338	0.98796
2926.66957	0.98786
2924.61577	0.98792
2922.56197	0.98822
2920.50816	0.98832
2918.45436	0.98778
2916.40056	0.98731
2914.34675	0.98763
2912.29295	0.98834
2910.23915	0.98875
2908.18534	0.98899
2906.13154	0.98934
2904.07774	0.98961
2902.02393	0.98972
2899.97013	0.98974
2897.91633	0.98977
2895.86252	0.98992
2893.80872	0.99026
2891.75492	0.99062
2889.70112	0.99070
2887.64731	0.99033
2885.59351	0.98983
2883.53971	0.98974
2881.48590	0.98981
2879.43210	0.98969
2877.37830	0.98985
2875.32449	0.99020
2873.27069	0.99020
2871.21689	0.99011
2869.16308	0.99038
2867.10928	0.99074
2865.05548	0.99083
2863.00167	0.99096
2860.94787	0.99127
2858.89407	0.99144
2856.84026	0.99144
2854.78646	0.99147
2852.73266	0.99151
2850.67885	0.99143
2848.62505	0.99131
2846.57125	0.99134
2844.51744	0.99157
2842.46364	0.99181
2840.40984	0.99197
2838.35603	0.99228
2836.30223	0.99266
2834.24843	0.99262
2832.19463	0.99243
2830.14082	0.99265
2828.08702	0.99279
2826.03322	0.99249
2823.97941	0.99233
2821.92561	0.99232
2819.87181	0.99237
2817.81800	0.99273
2815.76420	0.99311
2813.71040	0.99316
2811.65659	0.99311
2809.60279	0.99318
2807.54899	0.99324
2805.49518	0.99329
2803.44138	0.99314
2801.38758	0.99299
2799.33377	0.99332
2797.27997	0.99370
2795.22617	0.99378
2793.17236	0.99379
2791.11856	0.99372
2789.06476	0.99361
2787.01095	0.99356
2784.95715	0.99356
2782.90335	0.99374
2780.84955	0.99412
2778.79574	0.99437
2776.74194	0.99430
2774.68814	0.99405
2772.63433	0.99393
2770.58053	0.99400
2768.52673	0.99412
2766.47292	0.99419
2764.41912	0.99438
2762.36532	0.99482
2760.31151	0.99508
2758.25771	0.99478
2756.20391	0.99441
2754.15010	0.99448
2752.09630	0.99489
2750.04250	0.99506
2747.98869	0.99467
2745.93489	0.99442
2743.88109	0.99460
2741.82728	0.99451
2739.77348	0.99415
2737.71968	0.99414
2735.66587	0.99438
2733.61207	0.99445
2731.55827	0.99452
2729.50446	0.99475
2727.45066	0.99492
2725.39686	0.99484
2723.34306	0.99458
2721.28925	0.99448
2719.23545	0.99475
2717.18165	0.99500
2715.12784	0.99479
2713.07404	0.99437
2711.02024	0.99426
2708.96643	0.99448
2706.91263	0.99473
2704.85883	0.99478
2702.80502	0.99486
2700.75122	0.99505
2698.69742	0.99510
2696.64361	0.99515
2694.58981	0.99543
2692.53601	0.99549
2690.48220	0.99508
2688.42840	0.99486
2686.37460	0.99504
2684.32079	0.99512
2682.26699	0.99508
2680.21319	0.99505
2678.15938	0.99497
2676.10558	0.99511
2674.05178	0.99563
2671.99797	0.99596
2669.94417	0.99589
2667.89037	0.99567
2665.83657	0.99539
2663.78276	0.99533
2661.72896	0.99533
2659.67516	0.99503
2657.62135	0.99487
2655.56755	0.99500
2653.51375	0.99496
2651.45994	0.99490
2649.40614	0.99518
2647.35234	0.99545
2645.29853	0.99536
2643.24473	0.99516
2641.19093	0.99496
2639.13712	0.99482
2637.08332	0.99487
2635.02952	0.99494
2632.97571	0.99490
2630.92191	0.99476
2628.86811	0.99487
2626.81430	0.99541
2624.76050	0.99581
2622.70670	0.99586
2620.65289	0.99595
2618.59909	0.99600
2616.54529	0.99592
2614.49149	0.99560
2612.43768	0.99500
2610.38388	0.99483
2608.33008	0.99538
2606.27627	0.99586
2604.22247	0.99569
2602.16867	0.99530
2600.11486	0.99548
2598.06106	0.99631
2596.00726	0.99693
2593.95345	0.99679
2591.89965	0.99631
2589.84585	0.99595
2587.79204	0.99594
2585.73824	0.99608
2583.68444	0.99605
2581.63063	0.99596
2579.57683	0.99577
2577.52303	0.99584
2575.46922	0.99652
2573.41542	0.99701
2571.36162	0.99696
2569.30781	0.99682
2567.25401	0.99663
2565.20021	0.99619
2563.14640	0.99574
2561.09260	0.99581
2559.03880	0.99649
2556.98500	0.99711
2554.93119	0.99711
2552.87739	0.99676
2550.82359	0.99638
2548.76978	0.99621
2546.71598	0.99650
2544.66218	0.99647
2542.60837	0.99623
2540.55457	0.99658
2538.50077	0.99656
2536.44696	0.99599
2534.39316	0.99619
2532.33936	0.99693
2530.28555	0.99708
2528.23175	0.99667
2526.17795	0.99623
2524.12414	0.99592
2522.07034	0.99586
2520.01654	0.99591
2517.96273	0.99611
2515.90893	0.99655
2513.85513	0.99644
2511.80132	0.99567
2509.74752	0.99559
2507.69372	0.99642
2505.63992	0.99741
2503.58611	0.99816
2501.53231	0.99846
2499.47851	0.99821
2497.42470	0.99773
2495.37090	0.99724
2493.31710	0.99673
2491.26329	0.99661
2489.20949	0.99665
2487.15569	0.99650
2485.10188	0.99655
2483.04808	0.99707
2480.99428	0.99777
2478.94047	0.99806
2476.88667	0.99750
2474.83287	0.99670
2472.77906	0.99649
2470.72526	0.99670
2468.67146	0.99673
2466.61765	0.99647
2464.56385	0.99665
2462.51005	0.99728
2460.45624	0.99731
2458.40244	0.99701
2456.34864	0.99726
2454.29483	0.99759
2452.24103	0.99770
2450.18723	0.99796
2448.13343	0.99803
2446.07962	0.99759
2444.02582	0.99696
2441.97202	0.99683
2439.91821	0.99734
2437.86441	0.99761
2435.81061	0.99764
2433.75680	0.99796
2431.70300	0.99827
2429.64920	0.99788
2427.59539	0.99706
2425.54159	0.99729
2423.48779	0.99825
2421.43398	0.99841
2419.38018	0.99823
2417.32638	0.99830
2415.27257	0.99823
2413.21877	0.99799
2411.16497	0.99794
2409.11116	0.99784
2407.05736	0.99728
2405.00356	0.99703
2402.94975	0.99736
2400.89595	0.99734
2398.84215	0.99711
2396.78834	0.99720
2394.73454	0.99727
2392.68074	0.99746
2390.62694	0.99774
2388.57313	0.99753
2386.51933	0.99724
2384.46553	0.99714
2382.41172	0.99709
2380.35792	0.99748
2378.30412	0.99798
2376.25031	0.99784
2374.19651	0.99720
2372.14271	0.99675
2370.08890	0.99661
2368.03510	0.99677
2365.98130	0.99681
2363.92749	0.99591
2361.87369	0.99504
2359.81989	0.99457
2357.76608	0.99423
2355.71228	0.99517
2353.65848	0.99614
2351.60467	0.99574
2349.55087	0.99556
2347.49707	0.99633
2345.44326	0.99692
2343.38946	0.99698
2341.33566	0.99751
2339.28186	0.99766
2337.22805	0.99700
2335.17425	0.99670
2333.12045	0.99650
2331.06664	0.99571
2329.01284	0.99475
2326.95904	0.99400
2324.90523	0.99360
2322.85143	0.99397
2320.79763	0.99480
2318.74382	0.99527
2316.69002	0.99584
2314.63622	0.99666
2312.58241	0.99685
2310.52861	0.99620
2308.47481	0.99547
2306.42100	0.99527
2304.36720	0.99545
2302.31340	0.99537
2300.25959	0.99483
2298.20579	0.99470
2296.15199	0.99529
2294.09818	0.99586
2292.04438	0.99620
2289.99058	0.99645
2287.93677	0.99669
2285.88297	0.99683
2283.82917	0.99668
2281.77537	0.99661
2279.72156	0.99723
2277.66776	0.99786
2275.61396	0.99734
2273.56015	0.99652
2271.50635	0.99660
2269.45255	0.99692
2267.39874	0.99666
2265.34494	0.99664
2263.29114	0.99777
2261.23733	0.99849
2259.18353	0.99778
2257.12973	0.99709
2255.07592	0.99696
2253.02212	0.99620
2250.96832	0.99493
2248.91451	0.99478
2246.86071	0.99547
2244.80691	0.99637
2242.75310	0.99760
2240.69930	0.99869
2238.64550	0.99908
2236.59169	0.99809
2234.53789	0.99681
2232.48409	0.99753
2230.43029	0.99961
2228.37648	1.00058
2226.32268	0.99987
2224.26888	0.99916
2222.21507	0.99928
2220.16127	0.99875
2218.10747	0.99731
2216.05366	0.99637
2213.99986	0.99694
2211.94606	0.99840
2209.89225	0.99836
2207.83845	0.99689
2205.78465	0.99626
2203.73084	0.99708
2201.67704	0.99852
2199.62324	0.99975
2197.56943	1.00026
2195.51563	0.99908
2193.46183	0.99609
2191.40802	0.99459
2189.35422	0.99664
2187.30042	0.99876
2185.24661	0.99771
2183.19281	0.99567
2181.13901	0.99521
2179.08520	0.99598
2177.03140	0.99812
2174.97760	1.00116
2172.92380	1.00274
2170.86999	1.00139
2168.81619	0.99947
2166.76239	0.99892
2164.70858	0.99816
2162.65478	0.99750
2160.60098	0.99859
2158.54717	1.00229
2156.49337	1.00474
2154.43957	1.00283
2152.38576	1.00074
2150.33196	1.00084
2148.27816	1.00107
2146.22435	1.00041
2144.17055	0.99994
2142.11675	1.00055
2140.06294	1.00201
2138.00914	1.00246
2135.95534	1.00109
2133.90153	0.99961
2131.84773	0.99911
2129.79393	0.99896
2127.74012	0.99888
2125.68632	0.99915
2123.63252	0.99932
2121.57871	0.99849
2119.52491	0.99720
2117.47111	0.99704
2115.41731	0.99800
2113.36350	0.99886
2111.30970	0.99904
2109.25590	0.99869
2107.20209	0.99791
2105.14829	0.99731
2103.09449	0.99731
2101.04068	0.99748
2098.98688	0.99769
2096.93308	0.99756
2094.87927	0.99762
2092.82547	0.99881
2090.77167	0.99974
2088.71786	0.99991
2086.66406	1.00005
2084.61026	1.00010
2082.55645	1.00008
2080.50265	0.99932
2078.44885	0.99840
2076.39504	0.99878
2074.34124	0.99850
2072.28744	0.99672
2070.23363	0.99591
2068.17983	0.99618
2066.12603	0.99682
2064.07223	0.99846
2062.01842	1.00015
2059.96462	1.00044
2057.91082	0.99903
2055.85701	0.99714
2053.80321	0.99616
2051.74941	0.99582
2049.69560	0.99592
2047.64180	0.99649
2045.58800	0.99724
2043.53419	0.99794
2041.48039	0.99731
2039.42659	0.99476
2037.37278	0.99367
2035.31898	0.99612
2033.26518	0.99909
2031.21137	0.99964
2029.15757	0.99765
2027.10377	0.99628
2025.04996	0.99900
2022.99616	1.00280
2020.94236	1.00256
2018.88855	0.99982
2016.83475	0.99812
2014.78095	0.99780
2012.72714	0.99782
2010.67334	0.99807
2008.61954	1.00032
2006.56574	1.00262
2004.51193	1.00137
2002.45813	0.99961
2000.40433	1.00003
1998.35052	1.00015
1996.29672	0.99857
1994.24292	0.99790
1992.18911	0.99945
1990.13531	0.99976
1988.08151	0.99726
1986.02770	0.99402
1983.97390	0.99235
1981.92010	0.99397
1979.86629	0.99749
1977.81249	0.99888
1975.75869	0.99766
1973.70488	0.99717
1971.65108	0.99694
1969.59728	0.99610
1967.54347	0.99680
1965.48967	0.99884
1963.43587	1.00102
1961.38206	1.00341
1959.32826	1.00436
1957.27446	1.00303
1955.22066	1.00089
1953.16685	0.99948
1951.11305	0.99958
1949.05925	1.00046
1947.00544	1.00105
1944.95164	1.00089
1942.89784	1.00018
1940.84403	0.99962
1938.79023	0.99972
1936.73643	1.00005
1934.68262	0.99971
1932.62882	0.99887
1930.57502	0.99908
1928.52121	1.00043
1926.46741	1.00079
1924.41361	0.99987
1922.35980	0.99941
1920.30600	0.99980
1918.25220	1.00004
1916.19839	0.99973
1914.14459	0.99950
1912.09079	0.99972
1910.03698	0.99982
1907.98318	0.99941
1905.92938	0.99892
1903.87557	0.99869
1901.82177	0.99825
1899.76797	0.99772
1897.71417	0.99807
1895.66036	0.99871
1893.60656	0.99849
1891.55276	0.99808
1889.49895	0.99867
1887.44515	0.99986
1885.39135	0.99989
1883.33754	0.99893
1881.28374	0.99857
1879.22994	0.99900
1877.17613	0.99913
1875.12233	0.99855
1873.06853	0.99798
1871.01472	0.99781
1868.96092	0.99776
1866.90712	0.99789
1864.85331	0.99792
1862.79951	0.99757
1860.74571	0.99758
1858.69190	0.99816
1856.63810	0.99854
1854.58430	0.99801
1852.53049	0.99737
1850.47669	0.99790
1848.42289	0.99865
1846.36908	0.99829
1844.31528	0.99733
1842.26148	0.99695
1840.20768	0.99750
1838.15387	0.99867
1836.10007	0.99961
1834.04627	0.99978
1831.99246	0.99933
1829.93866	0.99858
1827.88486	0.99813
1825.83105	0.99776
1823.77725	0.99735
1821.72345	0.99769
1819.66964	0.99835
1817.61584	0.99848
1815.56204	0.99851
1813.50823	0.99877
1811.45443	0.99899
1809.40063	0.99905
1807.34682	0.99892
1805.29302	0.99859
1803.23922	0.99824
1801.18541	0.99817
1799.13161	0.99844
1797.07781	0.99856
1795.02400	0.99827
1792.97020	0.99807
1790.91640	0.99812
1788.86260	0.99804
1786.80879	0.99785
1784.75499	0.99766
1782.70119	0.99748
1780.64738	0.99739
1778.59358	0.99745
1776.53978	0.99767
1774.48597	0.99791
1772.43217	0.99778
1770.37837	0.99747
1768.32456	0.99752
1766.27076	0.99750
1764.21696	0.99727
1762.16315	0.99701
1760.10935	0.99676
1758.05555	0.99684
1756.00174	0.99715
1753.94794	0.99731
1751.89414	0.99732
1749.84033	0.99733
1747.78653	0.99733
1745.73273	0.99703
1743.67892	0.99663
1741.62512	0.99654
1739.57132	0.99642
1737.51751	0.99619
1735.46371	0.99619
1733.40991	0.99631
1731.35611	0.99617
1729.30230	0.99600
1727.24850	0.99599
1725.19470	0.99577
1723.14089	0.99534
1721.08709	0.99517
1719.03329	0.99521
1716.97948	0.99484
1714.92568	0.99399
1712.87188	0.99357
1710.81807	0.99346
1708.76427	0.99313
1706.71047	0.99255
1704.65666	0.99180
1702.60286	0.99078
1700.54906	0.98924
1698.49525	0.98769
1696.44145	0.98682
1694.38765	0.98576
1692.33384	0.98431
1690.28004	0.98282
1688.22624	0.98167
1686.17243	0.98097
1684.11863	0.97972
1682.06483	0.97793
1680.01103	0.97648
1677.95722	0.97519
1675.90342	0.97427
1673.84962	0.97350
1671.79581	0.97248
1669.74201	0.97141
1667.68821	0.97035
1665.63440	0.96923
1663.58060	0.96811
1661.52680	0.96717
1659.47299	0.96640
1657.41919	0.96559
1655.36539	0.96474
1653.31158	0.96404
1651.25778	0.96315
1649.20398	0.96197
1647.15017	0.96105
1645.09637	0.96052
1643.04257	0.95993
1640.98876	0.95939
1638.93496	0.95895
1636.88116	0.95879
1634.82735	0.95880
1632.77355	0.95813
1630.71975	0.95714
1628.66594	0.95647
1626.61214	0.95625
1624.55834	0.95623
1622.50454	0.95648
1620.45073	0.95674
1618.39693	0.95719
1616.34313	0.95871
1614.28932	0.96035
1612.23552	0.96136
1610.18172	0.96272
1608.12791	0.96477
1606.07411	0.96679
1604.02031	0.96819
1601.96650	0.96916
1599.91270	0.97009
1597.85890	0.97094
1595.80509	0.97165
1593.75129	0.97264
1591.69749	0.97386
1589.64368	0.97476
1587.58988	0.97520
1585.53608	0.97543
1583.48227	0.97550
1581.42847	0.97523
1579.37467	0.97491
1577.32086	0.97491
1575.26706	0.97475
1573.21326	0.97413
1571.15945	0.97353
1569.10565	0.97295
1567.05185	0.97229
1564.99805	0.97152
1562.94424	0.97066
1560.89044	0.96969
1558.83664	0.96817
1556.78283	0.96724
1554.72903	0.96705
1552.67523	0.96650
1550.62142	0.96530
1548.56762	0.96384
1546.51382	0.96266
1544.46001	0.96182
1542.40621	0.96125
1540.35241	0.96171
1538.29860	0.96262
1536.24480	0.96255
1534.19100	0.96222
1532.13719	0.96183
1530.08339	0.96129
1528.02959	0.96092
1525.97578	0.96077
1523.92198	0.96058
1521.86818	0.96016
1519.81437	0.95963
1517.76057	0.95923
1515.70677	0.95882
1513.65297	0.95853
1511.59916	0.95840
1509.54536	0.95826
1507.49156	0.95859
1505.43775	0.95948
1503.38395	0.96001
1501.33015	0.96076
1499.27634	0.96201
1497.22254	0.96397
1495.16874	0.96618
1493.11493	0.96758
1491.06113	0.96888
1489.00733	0.97084
1486.95352	0.97223
1484.89972	0.97286
1482.84592	0.97361
1480.79211	0.97449
1478.73831	0.97520
1476.68451	0.97569
1474.63070	0.97583
1472.57690	0.97554
1470.52310	0.97503
1468.46929	0.97457
1466.41549	0.97428
1464.36169	0.97404
1462.30788	0.97351
1460.25408	0.97268
1458.20028	0.97185
1456.14648	0.97156
1454.09267	0.97138
1452.03887	0.97097
1449.98507	0.97067
1447.93126	0.97049
1445.87746	0.97020
1443.82366	0.96992
1441.76985	0.96989
1439.71605	0.97008
1437.66225	0.97036
1435.60844	0.97081
1433.55464	0.97134
1431.50084	0.97195
1429.44703	0.97252
1427.39323	0.97274
1425.33943	0.97295
1423.28562	0.97346
1421.23182	0.97384
1419.17802	0.97406
1417.12421	0.97438
1415.07041	0.97468
1413.01661	0.97485
1410.96280	0.97495
1408.90900	0.97524
1406.85520	0.97568
1404.80139	0.97582
1402.74759	0.97564
1400.69379	0.97560
1398.63999	0.97583
1396.58618	0.97630
1394.53238	0.97674
1392.47858	0.97677
1390.42477	0.97624
1388.37097	0.97541
1386.31717	0.97469
1384.26336	0.97407
1382.20956	0.97346
1380.15576	0.97291
1378.10195	0.97219
1376.04815	0.97136
1373.99435	0.97107
1371.94054	0.97160
1369.88674	0.97243
1367.83294	0.97309
1365.77913	0.97360
1363.72533	0.97454
1361.67153	0.97582
1359.61772	0.97655
1357.56392	0.97685
1355.51012	0.97728
1353.45631	0.97775
1351.40251	0.97806
1349.34871	0.97825
1347.29491	0.97828
1345.24110	0.97817
1343.18730	0.97826
1341.13350	0.97861
1339.07969	0.97889
1337.02589	0.97882
1334.97209	0.97842
1332.91828	0.97794
1330.86448	0.97766
1328.81068	0.97773
1326.75687	0.97803
1324.70307	0.97828
1322.64927	0.97797
1320.59546	0.97724
1318.54166	0.97688
1316.48786	0.97685
1314.43405	0.97672
1312.38025	0.97656
1310.32645	0.97635
1308.27264	0.97602
1306.21884	0.97574
1304.16504	0.97557
1302.11123	0.97563
1300.05743	0.97584
1298.00363	0.97584
1295.94982	0.97581
1293.89602	0.97585
1291.84222	0.97552
1289.78842	0.97495
1287.73461	0.97455
1285.68081	0.97419
1283.62701	0.97380
1281.57320	0.97366
1279.51940	0.97378
1277.46560	0.97351
1275.41179	0.97274
1273.35799	0.97202
1271.30419	0.97148
1269.25038	0.97088
1267.19658	0.97027
1265.14278	0.96984
1263.08897	0.96956
1261.03517	0.96917
1258.98137	0.96869
1256.92756	0.96857
1254.87376	0.96888
1252.81996	0.96901
1250.76615	0.96873
1248.71235	0.96844
1246.65855	0.96832
1244.60474	0.96837
1242.55094	0.96856
1240.49714	0.96860
1238.44334	0.96852
1236.38953	0.96851
1234.33573	0.96852
1232.28193	0.96857
1230.22812	0.96868
1228.17432	0.96876
1226.12052	0.96903
1224.06671	0.96968
1222.01291	0.97034
1219.95911	0.97058
1217.90530	0.97077
1215.85150	0.97135
1213.79770	0.97197
1211.74389	0.97226
1209.69009	0.97228
1207.63629	0.97223
1205.58248	0.97220
1203.52868	0.97226
1201.47488	0.97263
1199.42107	0.97323
1197.36727	0.97345
1195.31347	0.97338
1193.25966	0.97366
1191.20586	0.97395
1189.15206	0.97376
1187.09825	0.97335
1185.04445	0.97299
1182.99065	0.97281
1180.93685	0.97263
1178.88304	0.97213
1176.82924	0.97159
1174.77544	0.97126
1172.72163	0.97101
1170.66783	0.97053
1168.61403	0.96962
1166.56022	0.96865
1164.50642	0.96778
1162.45262	0.96688
1160.39881	0.96618
1158.34501	0.96570
1156.29121	0.96538
1154.23740	0.96527
1152.18360	0.96520
1150.12980	0.96511
1148.07599	0.96503
1146.02219	0.96514
1143.96839	0.96535
1141.91458	0.96550
1139.86078	0.96570
1137.80698	0.96555
1135.75317	0.96491
1133.69937	0.96422
1131.64557	0.96350
1129.59176	0.96234
1127.53796	0.96082
1125.48416	0.95945
1123.43036	0.95815
1121.37655	0.95669
1119.32275	0.95551
1117.26895	0.95450
1115.21514	0.95332
1113.16134	0.95235
1111.10754	0.95171
1109.05373	0.95114
1106.99993	0.95078
1104.94613	0.95057
1102.89232	0.95004
1100.83852	0.94946
1098.78472	0.94945
1096.73091	0.94980
1094.67711	0.94978
1092.62331	0.94934
1090.56950	0.94884
1088.51570	0.94823
1086.46190	0.94765
1084.40809	0.94723
1082.35429	0.94650
1080.30049	0.94504
1078.24668	0.94368
1076.19288	0.94318
1074.13908	0.94275
1072.08528	0.94186
1070.03147	0.94112
1067.97767	0.94067
1065.92387	0.94000
1063.87006	0.93926
1061.81626	0.93863
1059.76246	0.93786
1057.70865	0.93682
1055.65485	0.93549
1053.60105	0.93412
1051.54724	0.93284
1049.49344	0.93147
1047.43964	0.93004
1045.38583	0.92865
1043.33203	0.92742
1041.27823	0.92620
1039.22442	0.92460
1037.17062	0.92288
1035.11682	0.92128
1033.06301	0.91982
1031.00921	0.91884
1028.95541	0.91820
1026.90160	0.91764
1024.84780	0.91748
1022.79400	0.91756
1020.74019	0.91744
1018.68639	0.91721
1016.63259	0.91688
1014.57879	0.91642
1012.52498	0.91638
1010.47118	0.91671
1008.41738	0.91641
1006.36357	0.91573
1004.30977	0.91580
1002.25597	0.91651
1000.20216	0.91745
998.14836	0.91856
996.09456	0.91978
994.04075	0.92124
991.98695	0.92271
989.93315	0.92379
987.87934	0.92509
985.82554	0.92682
983.77174	0.92859
981.71793	0.93057
979.66413	0.93269
977.61033	0.93471
975.55652	0.93650
973.50272	0.93807
971.44892	0.93945
969.39511	0.94069
967.34131	0.94205
965.28751	0.94349
963.23371	0.94474
961.17990	0.94549
959.12610	0.94581
957.07230	0.94604
955.01849	0.94616
952.96469	0.94634
950.91089	0.94679
948.85708	0.94740
946.80328	0.94817
944.74948	0.94890
942.69567	0.94930
940.64187	0.94956
938.58807	0.94990
936.53426	0.95035
934.48046	0.95091
932.42666	0.95146
930.37285	0.95184
928.31905	0.95235
926.26525	0.95305
924.21144	0.95340
922.15764	0.95350
920.10384	0.95361
918.05003	0.95349
915.99623	0.95307
913.94243	0.95251
911.88862	0.95215
909.83482	0.95227
907.78102	0.95276
905.72722	0.95366
903.67341	0.95483
901.61961	0.95554
899.56581	0.95581
897.51200	0.95616
895.45820	0.95661
893.40440	0.95723
891.35059	0.95823
889.29679	0.95902
887.24299	0.95908
885.18918	0.95921
883.13538	0.95968
881.08158	0.96003
879.02777	0.96039
876.97397	0.96124
874.92017	0.96220
872.86636	0.96248
870.81256	0.96229
868.75876	0.96240
866.70495	0.96311
864.65115	0.96383
862.59735	0.96375
860.54354	0.96327
858.48974	0.96323
856.43594	0.96351
854.38213	0.96374
852.32833	0.96428
850.27453	0.96489
848.22073	0.96467
846.16692	0.96396
844.11312	0.96357
842.05932	0.96341
840.00551	0.96323
837.95171	0.96293
835.89791	0.96230
833.84410	0.96117
831.79030	0.96039
829.73650	0.96055
827.68269	0.96096
825.62889	0.96109
823.57509	0.96054
821.52128	0.95957
819.46748	0.95921
817.41368	0.95926
815.35987	0.95894
813.30607	0.95865
811.25227	0.95910
809.19846	0.95978
807.14466	0.95946
805.09086	0.95828
803.03705	0.95750
800.98325	0.95711
798.92945	0.95643
796.87565	0.95585
794.82184	0.95582
792.76804	0.95574
790.71424	0.95564
788.66043	0.95602
786.60663	0.95617
784.55283	0.95590
782.49902	0.95589
780.44522	0.95564
778.39142	0.95475
776.33761	0.95414
774.28381	0.95375
772.23001	0.95286
770.17620	0.95201
768.12240	0.95147
766.06860	0.95106
764.01479	0.95118
761.96099	0.95124
759.90719	0.95039
757.85338	0.94951
755.79958	0.94940
753.74578	0.94948
751.69197	0.94926
749.63817	0.94923
747.58437	0.94949
745.53056	0.94912
743.47676	0.94817
741.42296	0.94745
739.36916	0.94717
737.31535	0.94733
735.26155	0.94766
733.20775	0.94778
731.15394	0.94778
729.10014	0.94763
727.04634	0.94735
724.99253	0.94741
722.93873	0.94740
720.88493	0.94646
718.83112	0.94498
716.77732	0.94377
714.72352	0.94317
712.66971	0.94317
710.61591	0.94301
708.56211	0.94221
706.50830	0.94097
704.45450	0.93921
702.40070	0.93734
700.34689	0.93644
698.29309	0.93601
696.23929	0.93516
694.18548	0.93457
692.13168	0.93474
690.07788	0.93482
688.02408	0.93414
685.97027	0.93319
683.91647	0.93244
681.86267	0.93212
679.80886	0.93187
677.75506	0.93073
675.70126	0.92912
673.64745	0.92822
671.59365	0.92774
669.53985	0.92668
667.48604	0.92626
665.43224	0.92760
663.37844	0.92857
661.32463	0.92846
659.27083	0.92807
657.21703	0.92790
655.16322	0.92799
653.10942	0.92810
651.05562	0.92730
649.00181	0.92603
646.94801	0.92527
644.89421	0.92510
642.84040	0.92466
640.78660	0.92340
638.73280	0.92229
636.67899	0.92183
634.62519	0.92221
632.57139	0.92311
630.51759	0.92307
628.46378	0.92153
626.40998	0.91927
624.35618	0.91803
622.30237	0.91789
620.24857	0.91734
618.19477	0.91663
616.14096	0.91612
614.08716	0.91589
612.03336	0.91566
609.97955	0.91426
607.92575	0.91218
605.87195	0.91138
603.81814	0.91200
601.76434	0.91198
599.71054	0.91073
597.65673	0.90960
595.60293	0.90920
593.54913	0.90913
591.49532	0.90910
589.44152	0.90851
587.38772	0.90683
585.33391	0.90539
583.28011	0.90503
581.22631	0.90431
579.17250	0.90241
577.11870	0.90017
575.06490	0.89839
573.01110	0.89786
570.95729	0.89767
568.90349	0.89591
566.84969	0.89440
564.79588	0.89485
562.74208	0.89449
560.68828	0.89335
558.63447	0.89423
556.58067	0.89481
554.52687	0.89324
552.47306	0.89184
550.41926	0.89076
548.36546	0.88938
546.31165	0.88736
544.25785	0.88468
542.20405	0.88304
540.15024	0.88188
538.09644	0.88024
536.04264	0.87946
533.98883	0.87963
531.93503	0.87968
529.88123	0.87880
527.82742	0.87736
525.77362	0.87737
523.71982	0.87745
521.66602	0.87482
519.61221	0.87226
517.55841	0.87330
515.50461	0.87641
513.45080	0.87862
511.39700	0.88032
509.34320	0.88163
507.28939	0.88049
505.23559	0.87903
503.18179	0.87980
501.12798	0.88000
499.07418	0.87898
497.02038	0.87918
494.96657	0.88001
492.91277	0.87949
490.85897	0.87773
488.80516	0.87579
486.75136	0.87431
484.69756	0.87339
482.64375	0.87245
480.58995	0.87163
478.53615	0.87006
476.48234	0.86603
474.42854	0.86086
472.37474	0.85712
470.32093	0.85566
468.26713	0.85425
466.21333	0.85222
464.15953	0.85127
462.10572	0.85126
460.05192	0.85100
457.99812	0.85061
455.94431	0.85203
453.89051	0.85360
451.83671	0.85346
449.78290	0.85339
447.72910	0.85437
445.67530	0.85431
443.62149	0.85006
441.56769	0.84436
439.51389	0.84294
437.46008	0.84564
435.40628	0.84815
433.35248	0.84567
431.29867	0.83995
429.24487	0.83670
427.19107	0.83719
425.13726	0.83817
423.08346	0.83740
421.02966	0.83670
418.97585	0.83942
416.92205	0.84347
414.86825	0.84504
412.81445	0.84740
410.76064	0.85111
408.70684	0.85162
406.65304	0.84951
404.59923	0.84917
402.54543	0.85050
400.49163	0.85198
398.43782	0.85280
