3996.71440	0.98394
3994.66059	0.98437
3992.60678	0.98451
3990.55297	0.98415
3988.49916	0.98409
3986.44535	0.98447
3984.39154	0.98464
3982.33773	0.98468
3980.28391	0.98487
3978.23010	0.98490
3976.17629	0.98463
3974.12248	0.98420
3972.06867	0.98379
3970.01486	0.98383
3967.96105	0.98417
3965.90724	0.98432
3963.85343	0.98443
3961.79962	0.98455
3959.74581	0.98450
3957.69200	0.98448
3955.63819	0.98449
3953.58438	0.98447
3951.53057	0.98469
3949.47676	0.98499
3947.42295	0.98492
3945.36914	0.98464
3943.31533	0.98440
3941.26152	0.98433
3939.20771	0.98444
3937.15390	0.98465
3935.10009	0.98507
3933.04628	0.98535
3930.99247	0.98537
3928.93866	0.98536
3926.88485	0.98518
3924.83104	0.98479
3922.77723	0.98444
3920.72342	0.98447
3918.66961	0.98481
3916.61580	0.98502
3914.56199	0.98515
3912.50818	0.98539
3910.45437	0.98553
3908.40056	0.98554
3906.34675	0.98542
3904.29294	0.98521
3902.23913	0.98523
3900.18532	0.98536
3898.13151	0.98517
3896.07770	0.98494
3894.02389	0.98485
3891.97008	0.98481
3889.91627	0.98501
3887.86246	0.98544
3885.80865	0.98539
3883.75484	0.98499
3881.70103	0.98504
3879.64722	0.98522
3877.59341	0.98514
3875.53960	0.98496
3873.48579	0.98503
3871.43198	0.98521
3869.37817	0.98493
3867.32436	0.98466
3865.27055	0.98472
3863.21674	0.98487
3861.16293	0.98504
3859.10912	0.98532
3857.05531	0.98568
3855.00150	0.98586
3852.94769	0.98558
3850.89388	0.98539
3848.84007	0.98554
3846.78626	0.98558
3844.73245	0.98535
3842.67864	0.98536
3840.62483	0.98556
3838.57102	0.98527
3836.51721	0.98507
3834.46340	0.98531
3832.40959	0.98527
3830.35578	0.98508
3828.30197	0.98517
3826.24816	0.98524
3824.19435	0.98520
3822.14054	0.98521
3820.08673	0.98523
3818.03292	0.98551
3815.97911	0.98584
3813.92530	0.98574
3811.87149	0.98561
3809.81768	0.98571
3807.76387	0.98591
3805.71006	0.98605
3803.65625	0.98564
3801.60244	0.98482
3799.54863	0.98461
3797.49482	0.98470
3795.44101	0.98463
3793.38720	0.98474
3791.33339	0.98500
3789.27958	0.98520
3787.22577	0.98532
3785.17196	0.98542
3783.11815	0.98555
3781.06434	0.98558
3779.01053	0.98549
3776.95672	0.98541
3774.90291	0.98533
3772.84910	0.98532
3770.79529	0.98549
3768.74148	0.98561
3766.68767	0.98568
3764.63386	0.98590
3762.58005	0.98613
3760.52624	0.98620
3758.47243	0.98617
3756.41862	0.98632
3754.36481	0.98647
3752.31100	0.98645
3750.25719	0.98639
3748.20338	0.98645
3746.14957	0.98666
3744.09576	0.98670
3742.04195	0.98641
3739.98814	0.98631
3737.93433	0.98623
3735.88052	0.98571
3733.82671	0.98519
3731.77290	0.98524
3729.71909	0.98571
3727.66528	0.98617
3725.61147	0.98624
3723.55766	0.98608
3721.50385	0.98606
3719.45004	0.98614
3717.39623	0.98608
3715.34242	0.98590
3713.28861	0.98578
3711.23480	0.98599
3709.18099	0.98631
3707.12718	0.98624
3705.07337	0.98605
3703.01956	0.98610
3700.96575	0.98616
3698.91194	0.98607
3696.85813	0.98623
3694.80432	0.98651
3692.75051	0.98667
3690.69670	0.98659
3688.64289	0.98613
3686.58907	0.98599
3684.53526	0.98624
3682.48145	0.98634
3680.42764	0.98621
3678.37383	0.98595
3676.32002	0.98574
3674.26621	0.98570
3672.21240	0.98592
3670.15859	0.98654
3668.10478	0.98711
3666.05097	0.98702
3663.99716	0.98653
3661.94335	0.98601
3659.88954	0.98578
3657.83573	0.98574
3655.78192	0.98568
3653.72811	0.98591
3651.67430	0.98633
3649.62049	0.98608
3647.56668	0.98526
3645.51287	0.98508
3643.45906	0.98551
3641.40525	0.98582
3639.35144	0.98551
3637.29763	0.98486
3635.24382	0.98440
3633.19001	0.98435
3631.13620	0.98465
3629.08239	0.98482
3627.02858	0.98434
3624.97477	0.98393
3622.92096	0.98389
3620.86715	0.98382
3618.81334	0.98344
3616.75953	0.98317
3614.70572	0.98312
3612.65191	0.98281
3610.59810	0.98262
3608.54429	0.98299
3606.49048	0.98348
3604.43667	0.98368
3602.38286	0.98347
3600.32905	0.98301
3598.27524	0.98258
3596.22143	0.98214
3594.16762	0.98174
3592.11381	0.98145
3590.06000	0.98140
3588.00619	0.98180
3585.95238	0.98221
3583.89857	0.98213
3581.84476	0.98200
3579.79095	0.98191
3577.73714	0.98169
3575.68333	0.98162
3573.62952	0.98167
3571.57571	0.98151
3569.52190	0.98103
3567.46809	0.98046
3565.41428	0.98033
3563.36047	0.98041
3561.30666	0.98025
3559.25285	0.97995
3557.19904	0.97981
3555.14523	0.97985
3553.09142	0.97986
3551.03761	0.97972
3548.98380	0.97949
3546.92999	0.97922
3544.87618	0.97892
3542.82237	0.97859
3540.76856	0.97837
3538.71475	0.97838
3536.66094	0.97854
3534.60713	0.97888
3532.55332	0.97907
3530.49951	0.97897
3528.44570	0.97880
3526.39189	0.97869
3524.33808	0.97859
3522.28427	0.97841
3520.23046	0.97800
3518.17665	0.97757
3516.12284	0.97746
3514.06903	0.97753
3512.01522	0.97750
3509.96141	0.97752
3507.90760	0.97771
3505.85379	0.97774
3503.79998	0.97743
3501.74617	0.97704
3499.69236	0.97677
3497.63855	0.97657
3495.58474	0.97646
3493.53093	0.97638
3491.47712	0.97627
3489.42331	0.97608
3487.36950	0.97591
3485.31569	0.97600
3483.26188	0.97622
3481.20807	0.97645
3479.15426	0.97655
3477.10045	0.97631
3475.04664	0.97592
3472.99283	0.97563
3470.93902	0.97552
3468.88521	0.97553
3466.83140	0.97547
3464.77759	0.97539
3462.72378	0.97545
3460.66997	0.97527
3458.61616	0.97477
3456.56235	0.97464
3454.50854	0.97498
3452.45473	0.97510
3450.40092	0.97484
3448.34711	0.97459
3446.29330	0.97461
3444.23949	0.97479
3442.18568	0.97485
3440.13187	0.97468
3438.07806	0.97452
3436.02425	0.97449
3433.97044	0.97458
3431.91663	0.97472
3429.86282	0.97473
3427.80901	0.97483
3425.75520	0.97495
3423.70139	0.97489
3421.64758	0.97490
3419.59377	0.97493
3417.53996	0.97461
3415.48615	0.97408
3413.43234	0.97379
3411.37853	0.97378
3409.32472	0.97379
3407.27091	0.97371
3405.21710	0.97368
3403.16329	0.97394
3401.10948	0.97428
3399.05567	0.97414
3397.00186	0.97369
3394.94805	0.97362
3392.89424	0.97406
3390.84042	0.97453
3388.78661	0.97458
3386.73280	0.97435
3384.67899	0.97415
3382.62518	0.97406
3380.57137	0.97394
3378.51756	0.97391
3376.46375	0.97415
3374.40994	0.97439
3372.35613	0.97458
3370.30232	0.97476
3368.24851	0.97469
3366.19470	0.97451
3364.14089	0.97432
3362.08708	0.97409
3360.03327	0.97409
3357.97946	0.97432
3355.92565	0.97436
3353.87184	0.97412
3351.81803	0.97416
3349.76422	0.97459
3347.71041	0.97488
3345.65660	0.97495
3343.60279	0.97497
3341.54898	0.97498
3339.49517	0.97503
3337.44136	0.97485
3335.38755	0.97460
3333.33374	0.97464
3331.27993	0.97476
3329.22612	0.97499
3327.17231	0.97535
3325.11850	0.97547
3323.06469	0.97534
3321.01088	0.97510
3318.95707	0.97499
3316.90326	0.97522
3314.84945	0.97555
3312.79564	0.97567
3310.74183	0.97562
3308.68802	0.97567
3306.63421	0.97590
3304.58040	0.97601
3302.52659	0.97592
3300.47278	0.97593
3298.41897	0.97599
3296.36516	0.97603
3294.31135	0.97609
3292.25754	0.97616
3290.20373	0.97631
3288.14992	0.97638
3286.09611	0.97634
3284.04230	0.97631
3281.98849	0.97622
3279.93468	0.97610
3277.88087	0.97598
3275.82706	0.97588
3273.77325	0.97619
3271.71944	0.97679
3269.66563	0.97691
3267.61182	0.97659
3265.55801	0.97645
3263.50420	0.97665
3261.45039	0.97686
3259.39658	0.97682
3257.34277	0.97673
3255.28896	0.97675
3253.23515	0.97661
3251.18134	0.97635
3249.12753	0.97638
3247.07372	0.97679
3245.01991	0.97714
3242.96610	0.97705
3240.91229	0.97685
3238.85848	0.97689
3236.80467	0.97710
3234.75086	0.97735
3232.69705	0.97743
3230.64324	0.97741
3228.58943	0.97753
3226.53562	0.97759
3224.48181	0.97741
3222.42800	0.97706
3220.37419	0.97675
3218.32038	0.97655
3216.26657	0.97644
3214.21276	0.97661
3212.15895	0.97696
3210.10514	0.97702
3208.05133	0.97664
3205.99752	0.97647
3203.94371	0.97683
3201.88990	0.97705
3199.83609	0.97686
3197.78228	0.97667
3195.72847	0.97656
3193.67466	0.97657
3191.62085	0.97686
3189.56704	0.97721
3187.51323	0.97730
3185.45942	0.97735
3183.40561	0.97769
3181.35180	0.97809
3179.29799	0.97831
3177.24418	0.97832
3175.19037	0.97812
3173.13656	0.97776
3171.08275	0.97761
3169.02894	0.97793
3166.97513	0.97820
3164.92132	0.97826
3162.86751	0.97840
3160.81370	0.97854
3158.75989	0.97864
3156.70608	0.97871
3154.65227	0.97866
3152.59846	0.97857
3150.54465	0.97851
3148.49084	0.97841
3146.43703	0.97823
3144.38322	0.97817
3142.32941	0.97845
3140.27560	0.97868
3138.22179	0.97860
3136.16798	0.97862
3134.11417	0.97884
3132.06036	0.97907
3130.00655	0.97919
3127.95274	0.97924
3125.89893	0.97935
3123.84512	0.97961
3121.79131	0.97985
3119.73750	0.97993
3117.68369	0.97994
3115.62988	0.97988
3113.57607	0.97980
3111.52226	0.97998
3109.46845	0.98030
3107.41464	0.98046
3105.36083	0.98035
3103.30702	0.98016
3101.25321	0.98015
3099.19940	0.98014
3097.14559	0.98009
3095.09177	0.98020
3093.03796	0.98027
3090.98415	0.98032
3088.93034	0.98049
3086.87653	0.98048
3084.82272	0.98018
3082.76891	0.98000
3080.71510	0.98015
3078.66129	0.98041
3076.60748	0.98030
3074.55367	0.98011
3072.49986	0.98043
3070.44605	0.98070
3068.39224	0.98051
3066.33843	0.98028
3064.28462	0.98023
3062.23081	0.98028
3060.17700	0.98045
3058.12319	0.98064
3056.06938	0.98061
3054.01557	0.98054
3051.96176	0.98058
3049.90795	0.98052
3047.85414	0.98046
3045.80033	0.98038
3043.74652	0.98023
3041.69271	0.98026
3039.63890	0.98049
3037.58509	0.98060
3035.53128	0.98042
3033.47747	0.98004
3031.42366	0.97969
3029.36985	0.97948
3027.31604	0.97931
3025.26223	0.97921
3023.20842	0.97925
3021.15461	0.97919
3019.10080	0.97883
3017.04699	0.97850
3014.99318	0.97836
3012.93937	0.97809
3010.88556	0.97774
3008.83175	0.97737
3006.77794	0.97684
3004.72413	0.97622
3002.67032	0.97549
3000.61651	0.97459
2998.56270	0.97357
2996.50889	0.97225
2994.45508	0.97064
2992.40127	0.96887
2990.34746	0.96684
2988.29365	0.96428
2986.23984	0.96092
2984.18603	0.95678
2982.13222	0.95208
2980.07841	0.94631
2978.02460	0.93858
2975.97079	0.92835
2973.91698	0.91524
2971.86317	0.89900
2969.80936	0.87924
2967.75555	0.85563
2965.70174	0.82925
2963.64793	0.80317
2961.59412	0.78093
2959.54031	0.76406
2957.48650	0.75054
2955.43269	0.73649
2953.37888	0.72016
2951.32507	0.70477
2949.27126	0.69847
2947.21745	0.70900
2945.16364	0.73620
2943.10983	0.77030
2941.05602	0.79847
2939.00221	0.81336
2936.94840	0.81442
2934.89459	0.80378
2932.84078	0.78419
2930.78697	0.75886
2928.73316	0.73132
2926.67935	0.70488
2924.62554	0.68123
2922.57173	0.65990
2920.51792	0.64067
2918.46411	0.62662
2916.41030	0.62338
2914.35649	0.63347
2912.30268	0.65276
2910.24887	0.67420
2908.19506	0.69390
2906.14125	0.71205
2904.08744	0.72999
2902.03363	0.74835
2899.97982	0.76665
2897.92601	0.78369
2895.87220	0.79811
2893.81839	0.80890
2891.76458	0.81584
2889.71077	0.81924
2887.65696	0.81939
2885.60315	0.81670
2883.54934	0.81127
2881.49553	0.80299
2879.44172	0.79297
2877.38791	0.78480
2875.33410	0.78206
2873.28029	0.78305
2871.22648	0.78241
2869.17267	0.77887
2867.11886	0.77799
2865.06505	0.78783
2863.01124	0.81131
2860.95743	0.84159
2858.90362	0.86780
2856.84981	0.88441
2854.79600	0.89224
2852.74219	0.89367
2850.68838	0.89036
2848.63457	0.88330
2846.58076	0.87210
2844.52695	0.85566
2842.47314	0.83445
2840.41933	0.81208
2838.36552	0.79572
2836.31171	0.79411
2834.25790	0.81140
2832.20409	0.84184
2830.15028	0.87361
2828.09647	0.89835
2826.04266	0.91513
2823.98885	0.92646
2821.93504	0.93425
2819.88123	0.93967
2817.82742	0.94363
2815.77361	0.94680
2813.71980	0.94938
2811.66599	0.95140
2809.61218	0.95322
2807.55837	0.95535
2805.50456	0.95788
2803.45075	0.96036
2801.39693	0.96231
2799.34312	0.96375
2797.28931	0.96475
2795.23550	0.96556
2793.18169	0.96649
2791.12788	0.96760
2789.07407	0.96888
2787.02026	0.97006
2784.96645	0.97109
2782.91264	0.97220
2780.85883	0.97314
2778.80502	0.97369
2776.75121	0.97408
2774.69740	0.97452
2772.64359	0.97493
2770.58978	0.97514
2768.53597	0.97533
2766.48216	0.97581
2764.42835	0.97620
2762.37454	0.97631
2760.32073	0.97643
2758.26692	0.97667
2756.21311	0.97698
2754.15930	0.97723
2752.10549	0.97734
2750.05168	0.97744
2747.99787	0.97745
2745.94406	0.97728
2743.89025	0.97701
2741.83644	0.97661
2739.78263	0.97602
2737.72882	0.97535
2735.67501	0.97480
2733.62120	0.97443
2731.56739	0.97402
2729.51358	0.97334
2727.45977	0.97232
2725.40596	0.97115
2723.35215	0.97049
2721.29834	0.97079
2719.24453	0.97186
2717.19072	0.97308
2715.13691	0.97414
2713.08310	0.97516
2711.02929	0.97606
2708.97548	0.97672
2706.92167	0.97712
2704.86786	0.97730
2702.81405	0.97760
2700.76024	0.97820
2698.70643	0.97876
2696.65262	0.97894
2694.59881	0.97898
2692.54500	0.97907
2690.49119	0.97907
2688.43738	0.97902
2686.38357	0.97901
2684.32976	0.97894
2682.27595	0.97886
2680.22214	0.97880
2678.16833	0.97888
2676.11452	0.97908
2674.06071	0.97918
2672.00690	0.97916
2669.95309	0.97919
2667.89928	0.97934
2665.84547	0.97939
2663.79166	0.97922
2661.73785	0.97896
2659.68404	0.97878
2657.63023	0.97892
2655.57642	0.97917
2653.52261	0.97927
2651.46880	0.97940
2649.41499	0.97977
2647.36118	0.98020
2645.30737	0.98045
2643.25356	0.98065
2641.19975	0.98085
2639.14594	0.98093
2637.09213	0.98104
2635.03832	0.98114
2632.98451	0.98106
2630.93070	0.98096
2628.87689	0.98104
2626.82308	0.98103
2624.76927	0.98070
2622.71546	0.98047
2620.66165	0.98078
2618.60784	0.98136
2616.55403	0.98148
2614.50022	0.98130
2612.44641	0.98132
2610.39260	0.98132
2608.33879	0.98120
2606.28498	0.98138
2604.23117	0.98197
2602.17736	0.98247
2600.12355	0.98254
2598.06974	0.98243
2596.01593	0.98230
2593.96212	0.98213
2591.90831	0.98215
2589.85450	0.98220
2587.80069	0.98178
2585.74688	0.98112
2583.69307	0.98069
2581.63926	0.98074
2579.58545	0.98125
2577.53164	0.98193
2575.47783	0.98240
2573.42402	0.98251
2571.37021	0.98244
2569.31640	0.98262
2567.26259	0.98314
2565.20878	0.98358
2563.15497	0.98346
2561.10116	0.98308
2559.04735	0.98325
2556.99354	0.98397
2554.93973	0.98449
2552.88592	0.98433
2550.83211	0.98407
2548.77830	0.98432
2546.72449	0.98453
2544.67068	0.98456
2542.61687	0.98474
2540.56306	0.98479
2538.50925	0.98479
2536.45544	0.98505
2534.40163	0.98516
2532.34782	0.98489
2530.29401	0.98474
2528.24020	0.98483
2526.18639	0.98501
2524.13258	0.98543
2522.07877	0.98609
2520.02496	0.98657
2517.97115	0.98656
2515.91734	0.98623
2513.86353	0.98604
2511.80972	0.98624
2509.75591	0.98668
2507.70210	0.98702
2505.64828	0.98700
2503.59447	0.98678
2501.54066	0.98678
2499.48685	0.98696
2497.43304	0.98697
2495.37923	0.98679
2493.32542	0.98666
2491.27161	0.98658
2489.21780	0.98647
2487.16399	0.98655
2485.11018	0.98681
2483.05637	0.98692
2481.00256	0.98677
2478.94875	0.98683
2476.89494	0.98721
2474.84113	0.98740
2472.78732	0.98696
2470.73351	0.98644
2468.67970	0.98655
2466.62589	0.98694
2464.57208	0.98721
2462.51827	0.98749
2460.46446	0.98769
2458.41065	0.98761
2456.35684	0.98738
2454.30303	0.98725
2452.24922	0.98737
2450.19541	0.98730
2448.14160	0.98676
2446.08779	0.98638
2444.03398	0.98653
2441.98017	0.98670
2439.92636	0.98664
2437.87255	0.98648
2435.81874	0.98617
2433.76493	0.98608
2431.71112	0.98644
2429.65731	0.98672
2427.60350	0.98667
2425.54969	0.98654
2423.49588	0.98664
2421.44207	0.98701
2419.38826	0.98725
2417.33445	0.98717
2415.28064	0.98707
2413.22683	0.98701
2411.17302	0.98682
2409.11921	0.98652
2407.06540	0.98640
2405.01159	0.98685
2402.95778	0.98740
2400.90397	0.98769
2398.85016	0.98792
2396.79635	0.98778
2394.74254	0.98735
2392.68873	0.98709
2390.63492	0.98691
2388.58111	0.98686
2386.52730	0.98727
2384.47349	0.98771
2382.41968	0.98778
2380.36587	0.98779
2378.31206	0.98792
2376.25825	0.98776
2374.20444	0.98700
2372.15063	0.98628
2370.09682	0.98663
2368.04301	0.98756
2365.98920	0.98759
2363.93539	0.98701
2361.88158	0.98674
2359.82777	0.98700
2357.77396	0.98762
2355.72015	0.98804
2353.66634	0.98833
2351.61253	0.98817
2349.55872	0.98766
2347.50491	0.98760
2345.45110	0.98821
2343.39729	0.98889
2341.34348	0.98858
2339.28967	0.98766
2337.23586	0.98773
2335.18205	0.98855
2333.12824	0.98861
2331.07443	0.98774
2329.02062	0.98680
2326.96681	0.98604
2324.91300	0.98552
2322.85919	0.98572
2320.80538	0.98629
2318.75157	0.98681
2316.69776	0.98735
2314.64395	0.98768
2312.59014	0.98788
2310.53633	0.98812
2308.48252	0.98821
2306.42871	0.98808
2304.37490	0.98790
2302.32109	0.98783
2300.26728	0.98791
2298.21347	0.98775
2296.15966	0.98721
2294.10585	0.98701
2292.05204	0.98753
2289.99823	0.98823
2287.94442	0.98828
2285.89061	0.98797
2283.83680	0.98822
2281.78299	0.98862
2279.72918	0.98849
2277.67537	0.98815
2275.62156	0.98786
2273.56775	0.98758
2271.51394	0.98791
2269.46013	0.98900
2267.40632	0.99014
2265.35251	0.99063
2263.29870	0.99003
2261.24489	0.98891
2259.19108	0.98809
2257.13727	0.98765
2255.08346	0.98775
2253.02965	0.98852
2250.97584	0.98919
2248.92203	0.98877
2246.86822	0.98744
2244.81441	0.98678
2242.76060	0.98758
2240.70679	0.98845
2238.65298	0.98886
2236.59917	0.98914
2234.54536	0.98881
2232.49155	0.98811
2230.43774	0.98754
2228.38393	0.98742
2226.33012	0.98790
2224.27631	0.98872
2222.22250	0.98919
2220.16869	0.98855
2218.11488	0.98790
2216.06107	0.98844
2214.00726	0.98866
2211.95344	0.98774
2209.89963	0.98733
2207.84582	0.98831
2205.79201	0.98937
2203.73820	0.98911
2201.68439	0.98857
2199.63058	0.98905
2197.57677	0.98996
2195.52296	0.99063
2193.46915	0.99062
2191.41534	0.98993
2189.36153	0.98914
2187.30772	0.98818
2185.25391	0.98782
2183.20010	0.98913
2181.14629	0.99038
2179.09248	0.99054
2177.03867	0.99092
2174.98486	0.99110
2172.93105	0.99005
2170.87724	0.98820
2168.82343	0.98678
2166.76962	0.98717
2164.71581	0.98773
2162.66200	0.98699
2160.60819	0.98764
2158.55438	0.99096
2156.50057	0.99415
2154.44676	0.99498
2152.39295	0.99424
2150.33914	0.99383
2148.28533	0.99446
2146.23152	0.99467
2144.17771	0.99315
2142.12390	0.99144
2140.07009	0.99105
2138.01628	0.99173
2135.96247	0.99278
2133.90866	0.99306
2131.85485	0.99256
2129.80104	0.99246
2127.74723	0.99244
2125.69342	0.99168
2123.63961	0.99097
2121.58580	0.99070
2119.53199	0.99052
2117.47818	0.99078
2115.42437	0.99117
2113.37056	0.99082
2111.31675	0.99034
2109.26294	0.99035
2107.20913	0.99013
2105.15532	0.98978
2103.10151	0.99009
2101.04770	0.99069
2098.99389	0.99133
2096.94008	0.99200
2094.88627	0.99242
2092.83246	0.99266
2090.77865	0.99248
2088.72484	0.99152
2086.67103	0.99048
2084.61722	0.99001
2082.56341	0.98975
2080.50960	0.98960
2078.45579	0.98973
2076.40198	0.98988
2074.34817	0.99041
2072.29436	0.99169
2070.24055	0.99227
2068.18674	0.99103
2066.13293	0.99000
2064.07912	0.99074
2062.02531	0.99201
2059.97150	0.99271
2057.91769	0.99274
2055.86388	0.99233
2053.81007	0.99215
2051.75626	0.99237
2049.70245	0.99267
2047.64864	0.99221
2045.59483	0.99141
2043.54102	0.99223
2041.48721	0.99384
2039.43340	0.99358
2037.37959	0.99178
2035.32578	0.99084
2033.27197	0.99098
2031.21816	0.99179
2029.16435	0.99323
2027.11054	0.99365
2025.05673	0.99338
2023.00292	0.99345
2020.94911	0.99221
2018.89530	0.98997
2016.84149	0.99010
2014.78768	0.99256
2012.73387	0.99410
2010.68006	0.99422
2008.62625	0.99396
2006.57244	0.99383
2004.51863	0.99352
2002.46482	0.99366
2000.41101	0.99453
1998.35720	0.99350
1996.30339	0.99098
1994.24958	0.99004
1992.19577	0.99118
1990.14196	0.99319
1988.08815	0.99417
1986.03434	0.99381
1983.98053	0.99331
1981.92672	0.99258
1979.87291	0.99143
1977.81910	0.99051
1975.76529	0.99049
1973.71148	0.99163
1971.65767	0.99304
1969.60386	0.99296
1967.55005	0.99159
1965.49624	0.99154
1963.44243	0.99267
1961.38862	0.99303
1959.33481	0.99303
1957.28100	0.99308
1955.22719	0.99292
1953.17338	0.99292
1951.11957	0.99287
1949.06576	0.99266
1947.01195	0.99252
1944.95814	0.99244
1942.90433	0.99287
1940.85052	0.99362
1938.79671	0.99360
1936.74290	0.99276
1934.68909	0.99224
1932.63528	0.99233
1930.58147	0.99243
1928.52766	0.99265
1926.47385	0.99261
1924.42004	0.99180
1922.36623	0.99130
1920.31242	0.99174
1918.25861	0.99206
1916.20479	0.99174
1914.15098	0.99143
1912.09717	0.99173
1910.04336	0.99200
1907.98955	0.99170
1905.93574	0.99145
1903.88193	0.99151
1901.82812	0.99161
1899.77431	0.99167
1897.72050	0.99167
1895.66669	0.99171
1893.61288	0.99172
1891.55907	0.99124
1889.50526	0.99046
1887.45145	0.99026
1885.39764	0.99058
1883.34383	0.99091
1881.29002	0.99111
1879.23621	0.99095
1877.18240	0.99070
1875.12859	0.99086
1873.07478	0.99133
1871.02097	0.99193
1868.96716	0.99205
1866.91335	0.99141
1864.85954	0.99106
1862.80573	0.99118
1860.75192	0.99117
1858.69811	0.99098
1856.64430	0.99085
1854.59049	0.99072
1852.53668	0.99074
1850.48287	0.99105
1848.42906	0.99132
1846.37525	0.99143
1844.32144	0.99141
1842.26763	0.99111
1840.21382	0.99082
1838.16001	0.99079
1836.10620	0.99065
1834.05239	0.99035
1831.99858	0.99030
1829.94477	0.99029
1827.89096	0.99014
1825.83715	0.99022
1823.78334	0.99043
1821.72953	0.99031
1819.67572	0.99009
1817.62191	0.99027
1815.56810	0.99069
1813.51429	0.99079
1811.46048	0.99056
1809.40667	0.99024
1807.35286	0.98993
1805.29905	0.98957
1803.24524	0.98938
1801.19143	0.98970
1799.13762	0.99010
1797.08381	0.98997
1795.03000	0.98957
1792.97619	0.98891
1790.92238	0.98812
1788.86857	0.98784
1786.81476	0.98794
1784.76095	0.98788
1782.70714	0.98755
1780.65333	0.98729
1778.59952	0.98703
1776.54571	0.98663
1774.49190	0.98633
1772.43809	0.98601
1770.38428	0.98567
1768.33047	0.98539
1766.27666	0.98513
1764.22285	0.98507
1762.16904	0.98507
1760.11523	0.98476
1758.06142	0.98432
1756.00761	0.98393
1753.95380	0.98350
1751.89999	0.98295
1749.84618	0.98219
1747.79237	0.98162
1745.73856	0.98138
1743.68475	0.98113
1741.63094	0.98079
1739.57713	0.98045
1737.52332	0.98021
1735.46951	0.98018
1733.41570	0.98011
1731.36189	0.97964
1729.30808	0.97906
1727.25427	0.97854
1725.20046	0.97791
1723.14665	0.97722
1721.09284	0.97678
1719.03903	0.97644
1716.98522	0.97577
1714.93141	0.97528
1712.87760	0.97527
1710.82379	0.97545
1708.76998	0.97565
1706.71617	0.97570
1704.66236	0.97574
1702.60855	0.97596
1700.55474	0.97629
1698.50093	0.97681
1696.44712	0.97754
1694.39331	0.97807
1692.33950	0.97822
1690.28569	0.97818
1688.23188	0.97816
1686.17807	0.97833
1684.12426	0.97881
1682.07045	0.97925
1680.01664	0.97931
1677.96283	0.97928
1675.90902	0.97931
1673.85521	0.97947
1671.80140	0.97973
1669.74759	0.97984
1667.69378	0.97979
1665.63997	0.97987
1663.58616	0.97987
1661.53235	0.97963
1659.47854	0.97949
1657.42473	0.97958
1655.37092	0.97973
1653.31711	0.97944
1651.26330	0.97884
1649.20949	0.97871
1647.15568	0.97888
1645.10187	0.97914
1643.04806	0.97929
1640.99425	0.97938
1638.94044	0.97942
1636.88663	0.97929
1634.83282	0.97917
1632.77901	0.97931
1630.72520	0.97959
1628.67139	0.97993
1626.61758	0.98020
1624.56377	0.98035
1622.50996	0.98039
1620.45614	0.98049
1618.40233	0.98071
1616.34852	0.98079
1614.29471	0.98082
1612.24090	0.98090
1610.18709	0.98088
1608.13328	0.98081
1606.07947	0.98070
1604.02566	0.98052
1601.97185	0.98054
1599.91804	0.98080
1597.86423	0.98111
1595.81042	0.98164
1593.75661	0.98231
1591.70280	0.98253
1589.64899	0.98231
1587.59518	0.98216
1585.54137	0.98230
1583.48756	0.98252
1581.43375	0.98259
1579.37994	0.98262
1577.32613	0.98270
1575.27232	0.98306
1573.21851	0.98356
1571.16470	0.98382
1569.11089	0.98379
1567.05708	0.98360
1565.00327	0.98348
1562.94946	0.98348
1560.89565	0.98332
1558.84184	0.98280
1556.78803	0.98292
1554.73422	0.98347
1552.68041	0.98391
1550.62660	0.98414
1548.57279	0.98413
1546.51898	0.98413
1544.46517	0.98431
1542.41136	0.98468
1540.35755	0.98485
1538.30374	0.98458
1536.24993	0.98440
1534.19612	0.98444
1532.14231	0.98454
1530.08850	0.98462
1528.03469	0.98467
1525.98088	0.98464
1523.92707	0.98469
1521.87326	0.98459
1519.81945	0.98424
1517.76564	0.98401
1515.71183	0.98386
1513.65802	0.98364
1511.60421	0.98345
1509.55040	0.98327
1507.49659	0.98271
1505.44278	0.98202
1503.38897	0.98181
1501.33516	0.98155
1499.28135	0.98093
1497.22754	0.97971
1495.17373	0.97809
1493.11992	0.97705
1491.06611	0.97652
1489.01230	0.97578
1486.95849	0.97427
1484.90468	0.97209
1482.85087	0.96920
1480.79706	0.96540
1478.74325	0.96061
1476.68944	0.95402
1474.63563	0.94384
1472.58182	0.92635
1470.52801	0.90369
1468.47420	0.88144
1466.42039	0.85577
1464.36658	0.82615
1462.31277	0.80450
1460.25896	0.79356
1458.20515	0.78697
1456.15134	0.78297
1454.09753	0.78377
1452.04372	0.78974
1449.98991	0.80356
1447.93610	0.82835
1445.88229	0.85817
1443.82848	0.88264
1441.77467	0.89899
1439.72086	0.90682
1437.66705	0.90873
1435.61324	0.91242
1433.55943	0.92367
1431.50562	0.93857
1429.45181	0.95133
1427.39800	0.95841
1425.34419	0.96191
1423.29038	0.96416
1421.23657	0.96577
1419.18276	0.96698
1417.12895	0.96783
1415.07514	0.96830
1413.02133	0.96841
1410.96752	0.96837
1408.91371	0.96829
1406.85990	0.96826
1404.80609	0.96836
1402.75228	0.96844
1400.69847	0.96812
1398.64466	0.96740
1396.59085	0.96643
1394.53704	0.96477
1392.48323	0.96215
1390.42942	0.95842
1388.37561	0.95139
1386.32180	0.93667
1384.26799	0.90968
1382.21418	0.86286
1380.16037	0.79147
1378.10656	0.71499
1376.05275	0.67787
1373.99894	0.71144
1371.94513	0.78651
1369.89132	0.85167
1367.83751	0.89246
1365.78370	0.91090
1363.72989	0.91439
1361.67608	0.90962
1359.62227	0.90458
1357.56846	0.90677
1355.51465	0.91748
1353.46084	0.93141
1351.40703	0.94298
1349.35322	0.95106
1347.29941	0.95657
1345.24560	0.96036
1343.19179	0.96294
1341.13798	0.96465
1339.08417	0.96561
1337.03036	0.96576
1334.97655	0.96515
1332.92274	0.96386
1330.86893	0.96259
1328.81512	0.96265
1326.76130	0.96416
1324.70749	0.96622
1322.65368	0.96810
1320.59987	0.96952
1318.54606	0.97046
1316.49225	0.97122
1314.43844	0.97185
1312.38463	0.97193
1310.33082	0.97095
1308.27701	0.96834
1306.22320	0.96463
1304.16939	0.96217
1302.11558	0.96213
1300.06177	0.96273
1298.00796	0.96255
1295.95415	0.96240
1293.90034	0.96347
1291.84653	0.96559
1289.79272	0.96767
1287.73891	0.96900
1285.68510	0.96988
1283.63129	0.97064
1281.57748	0.97117
1279.52367	0.97145
1277.46986	0.97164
1275.41605	0.97174
1273.36224	0.97165
1271.30843	0.97146
1269.25462	0.97115
1267.20081	0.97070
1265.14700	0.97010
1263.09319	0.96908
1261.03938	0.96732
1258.98557	0.96482
1256.93176	0.96248
1254.87795	0.96194
1252.82414	0.96366
1250.77033	0.96611
1248.71652	0.96780
1246.66271	0.96870
1244.60890	0.96937
1242.55509	0.96993
1240.50128	0.97015
1238.44747	0.97019
1236.39366	0.97023
1234.33985	0.97013
1232.28604	0.96991
1230.23223	0.96964
1228.17842	0.96916
1226.12461	0.96825
1224.07080	0.96712
1222.01699	0.96601
1219.96318	0.96506
1217.90937	0.96486
1215.85556	0.96576
1213.80175	0.96717
1211.74794	0.96833
1209.69413	0.96905
1207.64032	0.96955
1205.58651	0.96986
1203.53270	0.97006
1201.47889	0.97019
1199.42508	0.97013
1197.37127	0.96993
1195.31746	0.96984
1193.26365	0.96998
1191.20984	0.97024
1189.15603	0.97029
1187.10222	0.97000
1185.04841	0.96951
1182.99460	0.96861
1180.94079	0.96735
1178.88698	0.96570
1176.83317	0.96243
1174.77936	0.95626
1172.72555	0.94713
1170.67174	0.93676
1168.61793	0.92912
1166.56412	0.92752
1164.51031	0.93109
1162.45650	0.93621
1160.40269	0.94037
1158.34888	0.94297
1156.29507	0.94437
1154.24126	0.94520
1152.18745	0.94655
1150.13364	0.94948
1148.07983	0.95367
1146.02602	0.95786
1143.97221	0.96143
1141.91840	0.96429
1139.86459	0.96642
1137.81078	0.96801
1135.75697	0.96939
1133.70316	0.97047
1131.64935	0.97096
1129.59554	0.97101
1127.54173	0.97100
1125.48792	0.97117
1123.43411	0.97133
1121.38030	0.97119
1119.32649	0.97078
1117.27268	0.97021
1115.21887	0.96952
1113.16506	0.96862
1111.11125	0.96757
1109.05744	0.96623
1107.00363	0.96402
1104.94982	0.96131
1102.89601	0.95965
1100.84220	0.96004
1098.78839	0.96217
1096.73458	0.96469
1094.68077	0.96655
1092.62696	0.96773
1090.57315	0.96849
1088.51934	0.96903
1086.46553	0.96948
1084.41172	0.96976
1082.35791	0.96979
1080.30410	0.96966
1078.25029	0.96973
1076.19648	0.96998
1074.14267	0.96999
1072.08886	0.96983
1070.03505	0.96981
1067.98124	0.96965
1065.92743	0.96926
1063.87362	0.96904
1061.81981	0.96907
1059.76600	0.96898
1057.71219	0.96859
1055.65838	0.96796
1053.60457	0.96726
1051.55076	0.96658
1049.49695	0.96567
1047.44314	0.96447
1045.38933	0.96349
1043.33552	0.96332
1041.28171	0.96395
1039.22790	0.96467
1037.17409	0.96491
1035.12028	0.96494
1033.06647	0.96529
1031.01265	0.96584
1028.95884	0.96634
1026.90503	0.96667
1024.85122	0.96676
1022.79741	0.96666
1020.74360	0.96643
1018.68979	0.96598
1016.63598	0.96523
1014.58217	0.96445
1012.52836	0.96398
1010.47455	0.96339
1008.42074	0.96192
1006.36693	0.95894
1004.31312	0.95355
1002.25931	0.94416
1000.20550	0.93153
998.15169	0.92295
996.09788	0.92603
994.04407	0.93796
991.99026	0.94959
989.93645	0.95670
987.88264	0.96038
985.82883	0.96165
983.77502	0.96030
981.72121	0.95577
979.66740	0.94653
977.61359	0.93174
975.55978	0.91514
973.50597	0.90594
971.45216	0.91154
969.39835	0.92790
967.34454	0.94401
965.29073	0.95443
963.23692	0.96044
961.18311	0.96415
959.12930	0.96659
957.07549	0.96828
955.02168	0.96948
952.96787	0.97018
950.91406	0.97045
948.86025	0.97040
946.80644	0.97004
944.75263	0.96923
942.69882	0.96825
940.64501	0.96799
938.59120	0.96893
936.53739	0.97060
934.48358	0.97240
932.42977	0.97383
930.37596	0.97460
928.32215	0.97484
926.26834	0.97485
924.21453	0.97500
922.16072	0.97529
920.10691	0.97538
918.05310	0.97513
915.99929	0.97470
913.94548	0.97432
911.89167	0.97391
909.83786	0.97304
907.78405	0.97128
905.73024	0.96778
903.67643	0.96178
901.62262	0.95476
899.56881	0.95061
897.51500	0.95226
895.46119	0.95837
893.40738	0.96470
891.35357	0.96887
889.29976	0.97115
887.24595	0.97225
885.19214	0.97278
883.13833	0.97331
881.08452	0.97371
879.03071	0.97364
876.97690	0.97356
874.92309	0.97389
872.86928	0.97413
870.81547	0.97393
868.76166	0.97348
866.70785	0.97303
864.65404	0.97263
862.60023	0.97219
860.54642	0.97157
858.49261	0.97074
856.43880	0.96994
854.38499	0.96932
852.33118	0.96841
850.27737	0.96645
848.22356	0.96271
846.16975	0.95464
844.11594	0.94018
842.06213	0.92758
840.00832	0.92991
837.95451	0.94401
835.90070	0.95595
833.84689	0.96165
831.79308	0.96460
829.73927	0.96645
827.68546	0.96751
825.63165	0.96828
823.57784	0.96833
821.52403	0.96740
819.47022	0.96601
817.41641	0.96351
815.36260	0.95873
813.30879	0.95184
811.25498	0.94483
809.20117	0.94061
807.14736	0.94137
805.09355	0.94694
803.03974	0.95387
800.98593	0.95877
798.93212	0.96175
796.87831	0.96366
794.82450	0.96467
792.77069	0.96548
790.71688	0.96618
788.66307	0.96661
786.60926	0.96720
784.55545	0.96788
782.50164	0.96829
780.44783	0.96827
778.39402	0.96789
776.34021	0.96741
774.28640	0.96688
772.23259	0.96651
770.17878	0.96590
768.12497	0.96480
766.07116	0.96367
764.01735	0.96280
761.96354	0.96225
759.90973	0.96158
757.85592	0.96040
755.80211	0.95934
753.74830	0.95889
751.69449	0.95864
749.64068	0.95795
747.58687	0.95656
745.53306	0.95502
743.47925	0.95397
741.42544	0.95321
739.37163	0.95239
737.31781	0.95143
735.26400	0.95031
733.21019	0.94909
731.15638	0.94792
729.10257	0.94701
727.04876	0.94615
724.99495	0.94511
722.94114	0.94390
720.88733	0.94242
718.83352	0.94131
716.77971	0.94082
714.72590	0.94019
712.67209	0.93919
710.61828	0.93756
708.56447	0.93552
706.51066	0.93376
704.45685	0.93193
702.40304	0.92949
700.34923	0.92700
698.29542	0.92587
696.24161	0.92695
694.18780	0.92903
692.13399	0.93060
690.08018	0.93129
688.02637	0.93119
685.97256	0.93091
683.91875	0.93087
681.86494	0.93082
679.81113	0.93058
677.75732	0.92961
675.70351	0.92844
673.64970	0.92883
671.59589	0.93026
669.54208	0.93087
667.48827	0.92980
665.43446	0.92887
663.38065	0.92921
661.32684	0.93027
659.27303	0.93131
657.21922	0.93214
655.16541	0.93256
653.11160	0.93240
651.05779	0.93210
649.00398	0.93225
646.95017	0.93297
644.89636	0.93388
642.84255	0.93433
640.78874	0.93400
638.73493	0.93353
636.68112	0.93346
634.62731	0.93409
632.57350	0.93525
630.51969	0.93544
628.46588	0.93507
626.41207	0.93561
624.35826	0.93632
622.30445	0.93649
620.25064	0.93651
618.19683	0.93691
616.14302	0.93797
614.08921	0.93882
612.03540	0.93859
609.98159	0.93841
607.92778	0.93957
605.87397	0.94075
603.82016	0.94007
601.76635	0.93881
599.71254	0.93913
597.65873	0.94019
595.60492	0.94087
593.55111	0.94159
591.49730	0.94249
589.44349	0.94289
587.38968	0.94226
585.33587	0.94146
583.28206	0.94169
581.22825	0.94249
579.17444	0.94277
577.12063	0.94274
575.06682	0.94295
573.01301	0.94318
570.95920	0.94339
568.90539	0.94346
566.85158	0.94276
564.79777	0.94151
562.74396	0.94087
560.69015	0.94124
558.63634	0.94259
556.58253	0.94435
554.52872	0.94505
552.47491	0.94439
550.42110	0.94321
548.36729	0.94269
546.31348	0.94350
544.25967	0.94443
542.20586	0.94451
540.15205	0.94456
538.09824	0.94491
536.04443	0.94525
533.99062	0.94523
531.93681	0.94493
529.88300	0.94537
527.82919	0.94596
525.77538	0.94628
523.72157	0.94767
521.66776	0.94995
519.61395	0.95183
517.56014	0.95228
515.50633	0.95198
513.45252	0.95270
511.39871	0.95370
509.34490	0.95379
507.29109	0.95322
505.23728	0.95192
503.18347	0.95125
501.12966	0.95318
499.07585	0.95646
497.02204	0.95805
494.96823	0.95707
492.91442	0.95586
490.86061	0.95631
488.80680	0.95776
486.75299	0.95873
484.69918	0.95838
482.64537	0.95769
480.59156	0.95760
478.53775	0.95716
476.48394	0.95709
474.43013	0.95850
472.37632	0.95911
470.32251	0.95743
468.26870	0.95403
466.21489	0.94896
464.16108	0.94381
462.10727	0.94087
460.05346	0.94070
457.99965	0.94229
455.94584	0.94458
453.89203	0.94668
451.83822	0.94813
449.78441	0.94846
447.73060	0.94851
445.67679	0.94928
443.62298	0.94957
441.56916	0.94994
439.51535	0.95047
437.46154	0.94761
435.40773	0.94288
433.35392	0.94104
431.30011	0.94165
429.24630	0.94254
427.19249	0.94375
425.13868	0.94669
423.08487	0.94872
421.03106	0.94811
418.97725	0.95006
416.92344	0.95350
414.86963	0.95422
412.81582	0.95428
410.76201	0.95477
408.70820	0.95563
406.65439	0.95529
404.60058	0.95330
402.54677	0.95186
400.49296	0.95139
398.43915	0.94866
