3996.70104	0.98730
3994.64724	0.98707
3992.59344	0.98690
3990.53964	0.98662
3988.48583	0.98611
3986.43203	0.98602
3984.37823	0.98654
3982.32442	0.98671
3980.27062	0.98620
3978.21682	0.98612
3976.16301	0.98667
3974.10921	0.98686
3972.05541	0.98680
3970.00160	0.98707
3967.94780	0.98742
3965.89400	0.98747
3963.84019	0.98720
3961.78639	0.98683
3959.73259	0.98660
3957.67878	0.98663
3955.62498	0.98698
3953.57118	0.98765
3951.51737	0.98818
3949.46357	0.98827
3947.40977	0.98811
3945.35596	0.98746
3943.30216	0.98653
3941.24836	0.98622
3939.19455	0.98643
3937.14075	0.98664
3935.08695	0.98688
3933.03315	0.98703
3930.97934	0.98726
3928.92554	0.98765
3926.87174	0.98774
3924.81793	0.98746
3922.76413	0.98686
3920.71033	0.98624
3918.65652	0.98610
3916.60272	0.98637
3914.54892	0.98656
3912.49511	0.98664
3910.44131	0.98690
3908.38751	0.98719
3906.33370	0.98708
3904.27990	0.98632
3902.22610	0.98562
3900.17229	0.98584
3898.11849	0.98627
3896.06469	0.98614
3894.01088	0.98587
3891.95708	0.98617
3889.90328	0.98651
3887.84947	0.98627
3885.79567	0.98605
3883.74187	0.98602
3881.68807	0.98583
3879.63426	0.98571
3877.58046	0.98600
3875.52666	0.98650
3873.47285	0.98703
3871.41905	0.98714
3869.36525	0.98644
3867.31144	0.98579
3865.25764	0.98568
3863.20384	0.98572
3861.15003	0.98559
3859.09623	0.98558
3857.04243	0.98568
3854.98862	0.98529
3852.93482	0.98564
3850.88102	0.98681
3848.82721	0.98687
3846.77341	0.98690
3844.71961	0.98720
3842.66580	0.98680
3840.61200	0.98596
3838.55820	0.98571
3836.50439	0.98636
3834.45059	0.98720
3832.39679	0.98749
3830.34298	0.98748
3828.28918	0.98744
3826.23538	0.98749
3824.18158	0.98778
3822.12777	0.98809
3820.07397	0.98790
3818.02017	0.98736
3815.96636	0.98772
3813.91256	0.98845
3811.85876	0.98835
3809.80495	0.98806
3807.75115	0.98790
3805.69735	0.98746
3803.64354	0.98653
3801.58974	0.98522
3799.53594	0.98466
3797.48213	0.98538
3795.42833	0.98656
3793.37453	0.98723
3791.32072	0.98725
3789.26692	0.98693
3787.21312	0.98674
3785.15931	0.98695
3783.10551	0.98725
3781.05171	0.98738
3778.99790	0.98734
3776.94410	0.98711
3774.89030	0.98675
3772.83650	0.98633
3770.78269	0.98619
3768.72889	0.98655
3766.67509	0.98677
3764.62128	0.98642
3762.56748	0.98604
3760.51368	0.98656
3758.45987	0.98808
3756.40607	0.98881
3754.35227	0.98806
3752.29846	0.98710
3750.24466	0.98735
3748.19086	0.98794
3746.13705	0.98740
3744.08325	0.98688
3742.02945	0.98734
3739.97564	0.98737
3737.92184	0.98725
3735.86804	0.98789
3733.81423	0.98815
3731.76043	0.98708
3729.70663	0.98633
3727.65282	0.98642
3725.59902	0.98682
3723.54522	0.98663
3721.49141	0.98583
3719.43761	0.98508
3717.38381	0.98416
3715.33001	0.98271
3713.27620	0.98045
3711.22240	0.97776
3709.16860	0.97522
3707.11479	0.97260
3705.06099	0.97046
3703.00719	0.96874
3700.95338	0.96668
3698.89958	0.96455
3696.84578	0.96344
3694.79197	0.96360
3692.73817	0.96442
3690.68437	0.96571
3688.63056	0.96760
3686.57676	0.96919
3684.52296	0.97063
3682.46915	0.97203
3680.41535	0.97224
3678.36155	0.97097
3676.30774	0.96935
3674.25394	0.96907
3672.20014	0.96970
3670.14633	0.97010
3668.09253	0.96983
3666.03873	0.96933
3663.98492	0.96926
3661.93112	0.96905
3659.87732	0.96781
3657.82352	0.96620
3655.76971	0.96544
3653.71591	0.96533
3651.66211	0.96473
3649.60830	0.96396
3647.55450	0.96430
3645.50070	0.96478
3643.44689	0.96490
3641.39309	0.96451
3639.33929	0.96368
3637.28548	0.96285
3635.23168	0.96230
3633.17788	0.96216
3631.12407	0.96128
3629.07027	0.95905
3627.01647	0.95764
3624.96266	0.95698
3622.90886	0.95583
3620.85506	0.95460
3618.80125	0.95425
3616.74745	0.95522
3614.69365	0.95695
3612.63984	0.95854
3610.58604	0.95886
3608.53224	0.95836
3606.47844	0.95803
3604.42463	0.95810
3602.37083	0.95849
3600.31703	0.95886
3598.26322	0.95853
3596.20942	0.95785
3594.15562	0.95815
3592.10181	0.95905
3590.04801	0.95909
3587.99421	0.95821
3585.94040	0.95765
3583.88660	0.95753
3581.83280	0.95720
3579.77899	0.95644
3577.72519	0.95530
3575.67139	0.95441
3573.61758	0.95415
3571.56378	0.95427
3569.50998	0.95408
3567.45617	0.95327
3565.40237	0.95277
3563.34857	0.95251
3561.29476	0.95211
3559.24096	0.95164
3557.18716	0.95073
3555.13335	0.95004
3553.07955	0.95021
3551.02575	0.94995
3548.97195	0.94900
3546.91814	0.94885
3544.86434	0.94937
3542.81054	0.94915
3540.75673	0.94854
3538.70293	0.94850
3536.64913	0.94876
3534.59532	0.94860
3532.54152	0.94818
3530.48772	0.94790
3528.43391	0.94798
3526.38011	0.94838
3524.32631	0.94887
3522.27250	0.94913
3520.21870	0.94911
3518.16490	0.94915
3516.11109	0.94940
3514.05729	0.94944
3512.00349	0.94926
3509.94968	0.94941
3507.89588	0.94975
3505.84208	0.94967
3503.78827	0.94935
3501.73447	0.94931
3499.68067	0.94934
3497.62687	0.94903
3495.57306	0.94885
3493.51926	0.94920
3491.46546	0.94946
3489.41165	0.94917
3487.35785	0.94884
3485.30405	0.94892
3483.25024	0.94929
3481.19644	0.94941
3479.14264	0.94920
3477.08883	0.94925
3475.03503	0.94916
3472.98123	0.94864
3470.92742	0.94848
3468.87362	0.94834
3466.81982	0.94787
3464.76601	0.94756
3462.71221	0.94751
3460.65841	0.94721
3458.60460	0.94668
3456.55080	0.94690
3454.49700	0.94734
3452.44319	0.94643
3450.38939	0.94509
3448.33559	0.94494
3446.28178	0.94521
3444.22798	0.94477
3442.17418	0.94428
3440.12038	0.94443
3438.06657	0.94452
3436.01277	0.94402
3433.95897	0.94348
3431.90516	0.94305
3429.85136	0.94260
3427.79756	0.94241
3425.74375	0.94254
3423.68995	0.94261
3421.63615	0.94239
3419.58234	0.94206
3417.52854	0.94171
3415.47474	0.94142
3413.42093	0.94126
3411.36713	0.94071
3409.31333	0.93947
3407.25952	0.93856
3405.20572	0.93855
3403.15192	0.93877
3401.09811	0.93877
3399.04431	0.93907
3396.99051	0.93965
3394.93670	0.93967
3392.88290	0.93933
3390.82910	0.93941
3388.77529	0.93977
3386.72149	0.94001
3384.66769	0.94013
3382.61389	0.94043
3380.56008	0.94103
3378.50628	0.94148
3376.45248	0.94153
3374.39867	0.94150
3372.34487	0.94164
3370.29107	0.94179
3368.23726	0.94175
3366.18346	0.94196
3364.12966	0.94275
3362.07585	0.94347
3360.02205	0.94378
3357.96825	0.94383
3355.91444	0.94361
3353.86064	0.94352
3351.80684	0.94401
3349.75303	0.94480
3347.69923	0.94542
3345.64543	0.94570
3343.59162	0.94568
3341.53782	0.94526
3339.48402	0.94490
3337.43021	0.94519
3335.37641	0.94575
3333.32261	0.94592
3331.26881	0.94604
3329.21500	0.94674
3327.16120	0.94741
3325.10740	0.94710
3323.05359	0.94639
3320.99979	0.94644
3318.94599	0.94696
3316.89218	0.94716
3314.83838	0.94740
3312.78458	0.94781
3310.73077	0.94795
3308.67697	0.94831
3306.62317	0.94891
3304.56936	0.94922
3302.51556	0.94953
3300.46176	0.94970
3298.40795	0.94941
3296.35415	0.94918
3294.30035	0.94915
3292.24654	0.94942
3290.19274	0.95000
3288.13894	0.95021
3286.08513	0.94996
3284.03133	0.94987
3281.97753	0.95015
3279.92372	0.95069
3277.86992	0.95117
3275.81612	0.95129
3273.76232	0.95114
3271.70851	0.95084
3269.65471	0.95073
3267.60091	0.95102
3265.54710	0.95113
3263.49330	0.95118
3261.43950	0.95166
3259.38569	0.95228
3257.33189	0.95272
3255.27809	0.95283
3253.22428	0.95292
3251.17048	0.95314
3249.11668	0.95328
3247.06287	0.95355
3245.00907	0.95363
3242.95527	0.95339
3240.90146	0.95396
3238.84766	0.95528
3236.79386	0.95583
3234.74005	0.95513
3232.68625	0.95454
3230.63245	0.95488
3228.57864	0.95549
3226.52484	0.95576
3224.47104	0.95590
3222.41724	0.95652
3220.36343	0.95733
3218.30963	0.95758
3216.25583	0.95742
3214.20202	0.95731
3212.14822	0.95742
3210.09442	0.95749
3208.04061	0.95749
3205.98681	0.95766
3203.93301	0.95812
3201.87920	0.95874
3199.82540	0.95911
3197.77160	0.95945
3195.71779	0.95988
3193.66399	0.96030
3191.61019	0.96085
3189.55638	0.96124
3187.50258	0.96110
3185.44878	0.96085
3183.39497	0.96114
3181.34117	0.96188
3179.28737	0.96265
3177.23356	0.96296
3175.17976	0.96295
3173.12596	0.96319
3171.07215	0.96330
3169.01835	0.96325
3166.96455	0.96362
3164.91075	0.96431
3162.85694	0.96483
3160.80314	0.96502
3158.74934	0.96523
3156.69553	0.96531
3154.64173	0.96525
3152.58793	0.96575
3150.53412	0.96655
3148.48032	0.96702
3146.42652	0.96717
3144.37271	0.96726
3142.31891	0.96730
3140.26511	0.96730
3138.21130	0.96723
3136.15750	0.96717
3134.10370	0.96753
3132.04989	0.96832
3129.99609	0.96879
3127.94229	0.96878
3125.88848	0.96857
3123.83468	0.96865
3121.78088	0.96951
3119.72707	0.97028
3117.67327	0.97010
3115.61947	0.96977
3113.56566	0.96995
3111.51186	0.97017
3109.45806	0.96996
3107.40426	0.96977
3105.35045	0.96995
3103.29665	0.97016
3101.24285	0.97020
3099.18904	0.97004
3097.13524	0.96984
3095.08144	0.96984
3093.02763	0.96998
3090.97383	0.97006
3088.92003	0.97004
3086.86622	0.96994
3084.81242	0.97007
3082.75862	0.97060
3080.70481	0.97091
3078.65101	0.97082
3076.59721	0.97078
3074.54340	0.97081
3072.48960	0.97101
3070.43580	0.97152
3068.38199	0.97202
3066.32819	0.97212
3064.27439	0.97200
3062.22058	0.97213
3060.16678	0.97245
3058.11298	0.97258
3056.05918	0.97229
3054.00537	0.97193
3051.95157	0.97192
3049.89777	0.97213
3047.84396	0.97226
3045.79016	0.97235
3043.73636	0.97245
3041.68255	0.97244
3039.62875	0.97232
3037.57495	0.97224
3035.52114	0.97245
3033.46734	0.97276
3031.41354	0.97266
3029.35973	0.97249
3027.30593	0.97256
3025.25213	0.97262
3023.19832	0.97259
3021.14452	0.97248
3019.09072	0.97249
3017.03691	0.97260
3014.98311	0.97252
3012.92931	0.97225
3010.87550	0.97204
3008.82170	0.97216
3006.76790	0.97244
3004.71409	0.97238
3002.66029	0.97220
3000.60649	0.97248
2998.55269	0.97297
2996.49888	0.97293
2994.44508	0.97247
2992.39128	0.97202
2990.33747	0.97156
2988.28367	0.97089
2986.22987	0.97029
2984.17606	0.96996
2982.12226	0.96908
2980.06846	0.96753
2978.01465	0.96634
2975.96085	0.96550
2973.90705	0.96413
2971.85324	0.96194
2969.79944	0.95947
2967.74564	0.95724
2965.69183	0.95486
2963.63803	0.95183
2961.58423	0.94850
2959.53042	0.94539
2957.47662	0.94268
2955.42282	0.94041
2953.36901	0.93867
2951.31521	0.93728
2949.26141	0.93521
2947.20761	0.93140
2945.15380	0.92584
2943.10000	0.91855
2941.04620	0.90905
2938.99239	0.89700
2936.93859	0.88267
2934.88479	0.86614
2932.83098	0.84662
2930.77718	0.82365
2928.72338	0.79687
2926.66957	0.76486
2924.61577	0.72640
2922.56197	0.68168
2920.50816	0.63279
2918.45436	0.58362
2916.40056	0.54126
2914.34675	0.51620
2912.29295	0.51522
2910.23915	0.53505
2908.18534	0.56559
2906.13154	0.59751
2904.07774	0.62596
2902.02393	0.64986
2899.97013	0.67000
2897.91633	0.68778
2895.86252	0.70394
2893.80872	0.71882
2891.75492	0.73361
2889.70112	0.74933
2887.64731	0.76580
2885.59351	0.78234
2883.53971	0.79873
2881.48590	0.81521
2879.43210	0.83184
2877.37830	0.84809
2875.32449	0.86260
2873.27069	0.87399
2871.21689	0.88208
2869.16308	0.88702
2867.10928	0.88839
2865.05548	0.88543
2863.00167	0.87717
2860.94787	0.86255
2858.89407	0.83963
2856.84026	0.80483
2854.78646	0.75431
2852.73266	0.68783
2850.67885	0.61464
2848.62505	0.55581
2846.57125	0.53314
2844.51744	0.55174
2842.46364	0.59829
2840.40984	0.65484
2838.35603	0.70886
2836.30223	0.75453
2834.24843	0.79101
2832.19463	0.81992
2830.14082	0.84296
2828.08702	0.86131
2826.03322	0.87600
2823.97941	0.88814
2821.92561	0.89821
2819.87181	0.90656
2817.81800	0.91368
2815.76420	0.91956
2813.71040	0.92441
2811.65659	0.92871
2809.60279	0.93276
2807.54899	0.93629
2805.49518	0.93917
2803.44138	0.94181
2801.38758	0.94426
2799.33377	0.94640
2797.27997	0.94856
2795.22617	0.95081
2793.17236	0.95289
2791.11856	0.95467
2789.06476	0.95601
2787.01095	0.95714
2784.95715	0.95857
2782.90335	0.96029
2780.84955	0.96195
2778.79574	0.96314
2776.74194	0.96381
2774.68814	0.96430
2772.63433	0.96477
2770.58053	0.96533
2768.52673	0.96612
2766.47292	0.96692
2764.41912	0.96757
2762.36532	0.96825
2760.31151	0.96891
2758.25771	0.96944
2756.20391	0.96995
2754.15010	0.97029
2752.09630	0.97035
2750.04250	0.97033
2747.98869	0.97044
2745.93489	0.97062
2743.88109	0.97083
2741.82728	0.97116
2739.77348	0.97142
2737.71968	0.97133
2735.66587	0.97121
2733.61207	0.97135
2731.55827	0.97146
2729.50446	0.97151
2727.45066	0.97174
2725.39686	0.97213
2723.34306	0.97274
2721.28925	0.97340
2719.23545	0.97377
2717.18165	0.97391
2715.12784	0.97414
2713.07404	0.97441
2711.02024	0.97455
2708.96643	0.97487
2706.91263	0.97530
2704.85883	0.97545
2702.80502	0.97547
2700.75122	0.97556
2698.69742	0.97573
2696.64361	0.97603
2694.58981	0.97617
2692.53601	0.97603
2690.48220	0.97589
2688.42840	0.97619
2686.37460	0.97696
2684.32079	0.97744
2682.26699	0.97719
2680.21319	0.97670
2678.15938	0.97647
2676.10558	0.97641
2674.05178	0.97621
2671.99797	0.97577
2669.94417	0.97527
2667.89037	0.97489
2665.83657	0.97466
2663.78276	0.97464
2661.72896	0.97470
2659.67516	0.97470
2657.62135	0.97469
2655.56755	0.97474
2653.51375	0.97486
2651.45994	0.97481
2649.40614	0.97474
2647.35234	0.97505
2645.29853	0.97528
2643.24473	0.97520
2641.19093	0.97504
2639.13712	0.97464
2637.08332	0.97432
2635.02952	0.97449
2632.97571	0.97491
2630.92191	0.97509
2628.86811	0.97509
2626.81430	0.97546
2624.76050	0.97603
2622.70670	0.97636
2620.65289	0.97666
2618.59909	0.97717
2616.54529	0.97766
2614.49149	0.97787
2612.43768	0.97795
2610.38388	0.97832
2608.33008	0.97892
2606.27627	0.97943
2604.22247	0.97969
2602.16867	0.97985
2600.11486	0.98010
2598.06106	0.98033
2596.00726	0.98063
2593.95345	0.98099
2591.89965	0.98096
2589.84585	0.98087
2587.79204	0.98122
2585.73824	0.98173
2583.68444	0.98227
2581.63063	0.98270
2579.57683	0.98275
2577.52303	0.98253
2575.46922	0.98207
2573.41542	0.98161
2571.36162	0.98186
2569.30781	0.98255
2567.25401	0.98282
2565.20021	0.98279
2563.14640	0.98275
2561.09260	0.98258
2559.03880	0.98228
2556.98500	0.98210
2554.93119	0.98261
2552.87739	0.98318
2550.82359	0.98281
2548.76978	0.98242
2546.71598	0.98280
2544.66218	0.98309
2542.60837	0.98281
2540.55457	0.98242
2538.50077	0.98247
2536.44696	0.98325
2534.39316	0.98439
2532.33936	0.98500
2530.28555	0.98490
2528.23175	0.98448
2526.17795	0.98410
2524.12414	0.98401
2522.07034	0.98391
2520.01654	0.98384
2517.96273	0.98420
2515.90893	0.98453
2513.85513	0.98421
2511.80132	0.98393
2509.74752	0.98448
2507.69372	0.98506
2505.63992	0.98505
2503.58611	0.98494
2501.53231	0.98479
2499.47851	0.98438
2497.42470	0.98413
2495.37090	0.98433
2493.31710	0.98478
2491.26329	0.98514
2489.20949	0.98497
2487.15569	0.98453
2485.10188	0.98434
2483.04808	0.98456
2480.99428	0.98485
2478.94047	0.98460
2476.88667	0.98402
2474.83287	0.98397
2472.77906	0.98435
2470.72526	0.98471
2468.67146	0.98524
2466.61765	0.98566
2464.56385	0.98556
2462.51005	0.98538
2460.45624	0.98526
2458.40244	0.98479
2456.34864	0.98456
2454.29483	0.98505
2452.24103	0.98555
2450.18723	0.98553
2448.13343	0.98524
2446.07962	0.98532
2444.02582	0.98586
2441.97202	0.98577
2439.91821	0.98490
2437.86441	0.98469
2435.81061	0.98518
2433.75680	0.98520
2431.70300	0.98504
2429.64920	0.98539
2427.59539	0.98602
2425.54159	0.98643
2423.48779	0.98623
2421.43398	0.98571
2419.38018	0.98574
2417.32638	0.98630
2415.27257	0.98653
2413.21877	0.98649
2411.16497	0.98650
2409.11116	0.98623
2407.05736	0.98572
2405.00356	0.98533
2402.94975	0.98487
2400.89595	0.98416
2398.84215	0.98407
2396.78834	0.98499
2394.73454	0.98598
2392.68074	0.98644
2390.62694	0.98623
2388.57313	0.98570
2386.51933	0.98546
2384.46553	0.98548
2382.41172	0.98571
2380.35792	0.98585
2378.30412	0.98542
2376.25031	0.98494
2374.19651	0.98481
2372.14271	0.98459
2370.08890	0.98438
2368.03510	0.98447
2365.98130	0.98477
2363.92749	0.98558
2361.87369	0.98532
2359.81989	0.98327
2357.76608	0.98289
2355.71228	0.98399
2353.65848	0.98392
2351.60467	0.98286
2349.55087	0.98200
2347.49707	0.98239
2345.44326	0.98363
2343.38946	0.98412
2341.33566	0.98371
2339.28186	0.98258
2337.22805	0.98108
2335.17425	0.98096
2333.12045	0.98226
2331.06664	0.98286
2329.01284	0.98248
2326.95904	0.98222
2324.90523	0.98224
2322.85143	0.98253
2320.79763	0.98285
2318.74382	0.98306
2316.69002	0.98308
2314.63622	0.98293
2312.58241	0.98319
2310.52861	0.98386
2308.47481	0.98456
2306.42100	0.98548
2304.36720	0.98599
2302.31340	0.98534
2300.25959	0.98431
2298.20579	0.98372
2296.15199	0.98363
2294.09818	0.98346
2292.04438	0.98331
2289.99058	0.98349
2287.93677	0.98347
2285.88297	0.98305
2283.82917	0.98222
2281.77537	0.98164
2279.72156	0.98245
2277.66776	0.98393
2275.61396	0.98481
2273.56015	0.98518
2271.50635	0.98568
2269.45255	0.98597
2267.39874	0.98512
2265.34494	0.98401
2263.29114	0.98387
2261.23733	0.98483
2259.18353	0.98665
2257.12973	0.98756
2255.07592	0.98624
2253.02212	0.98405
2250.96832	0.98299
2248.91451	0.98351
2246.86071	0.98466
2244.80691	0.98564
2242.75310	0.98569
2240.69930	0.98483
2238.64550	0.98452
2236.59169	0.98498
2234.53789	0.98583
2232.48409	0.98674
2230.43029	0.98647
2228.37648	0.98560
2226.32268	0.98502
2224.26888	0.98486
2222.21507	0.98564
2220.16127	0.98671
2218.10747	0.98666
2216.05366	0.98615
2213.99986	0.98697
2211.94606	0.98793
2209.89225	0.98695
2207.83845	0.98497
2205.78465	0.98440
2203.73084	0.98545
2201.67704	0.98622
2199.62324	0.98600
2197.56943	0.98659
2195.51563	0.98922
2193.46183	0.99135
2191.40802	0.99131
2189.35422	0.99027
2187.30042	0.98824
2185.24661	0.98600
2183.19281	0.98586
2181.13901	0.98693
2179.08520	0.98742
2177.03140	0.98829
2174.97760	0.98929
2172.92380	0.98871
2170.86999	0.98675
2168.81619	0.98483
2166.76239	0.98265
2164.70858	0.98041
2162.65478	0.98089
2160.60098	0.98480
2158.54717	0.99008
2156.49337	0.99345
2154.43957	0.99264
2152.38576	0.98990
2150.33196	0.98859
2148.27816	0.98916
2146.22435	0.98958
2144.17055	0.98926
2142.11675	0.98926
2140.06294	0.98980
2138.00914	0.99081
2135.95534	0.99164
2133.90153	0.99216
2131.84773	0.99229
2129.79393	0.99123
2127.74012	0.98958
2125.68632	0.98854
2123.63252	0.98871
2121.57871	0.98892
2119.52491	0.98765
2117.47111	0.98593
2115.41731	0.98507
2113.36350	0.98485
2111.30970	0.98539
2109.25590	0.98574
2107.20209	0.98479
2105.14829	0.98422
2103.09449	0.98483
2101.04068	0.98562
2098.98688	0.98646
2096.93308	0.98677
2094.87927	0.98637
2092.82547	0.98691
2090.77167	0.98758
2088.71786	0.98660
2086.66406	0.98576
2084.61026	0.98624
2082.55645	0.98632
2080.50265	0.98557
2078.44885	0.98557
2076.39504	0.98560
2074.34124	0.98437
2072.28744	0.98378
2070.23363	0.98473
2068.17983	0.98598
2066.12603	0.98674
2064.07223	0.98699
2062.01842	0.98709
2059.96462	0.98730
2057.91082	0.98803
2055.85701	0.98868
2053.80321	0.98782
2051.74941	0.98593
2049.69560	0.98432
2047.64180	0.98413
2045.58800	0.98603
2043.53419	0.98747
2041.48039	0.98694
2039.42659	0.98667
2037.37278	0.98780
2035.31898	0.98928
2033.26518	0.99015
2031.21137	0.99010
2029.15757	0.98907
2027.10377	0.98861
2025.04996	0.98965
2022.99616	0.99022
2020.94236	0.98932
2018.88855	0.98872
2016.83475	0.99014
2014.78095	0.99219
2012.72714	0.99161
2010.67334	0.98879
2008.61954	0.98699
2006.56574	0.98647
2004.51193	0.98563
2002.45813	0.98618
2000.40433	0.98804
1998.35052	0.98855
1996.29672	0.98903
1994.24292	0.98940
1992.18911	0.98757
1990.13531	0.98600
1988.08151	0.98676
1986.02770	0.98779
1983.97390	0.98709
1981.92010	0.98599
1979.86629	0.98640
1977.81249	0.98795
1975.75869	0.98889
1973.70488	0.98909
1971.65108	0.99005
1969.59728	0.99079
1967.54347	0.98995
1965.48967	0.98929
1963.43587	0.98965
1961.38206	0.98909
1959.32826	0.98766
1957.27446	0.98622
1955.22066	0.98509
1953.16685	0.98528
1951.11305	0.98683
1949.05925	0.98888
1947.00544	0.98981
1944.95164	0.98978
1942.89784	0.99016
1940.84403	0.98923
1938.79023	0.98669
1936.73643	0.98496
1934.68262	0.98436
1932.62882	0.98417
1930.57502	0.98530
1928.52121	0.98692
1926.46741	0.98729
1924.41361	0.98681
1922.35980	0.98628
1920.30600	0.98613
1918.25220	0.98635
1916.19839	0.98617
1914.14459	0.98502
1912.09079	0.98425
1910.03698	0.98509
1907.98318	0.98595
1905.92938	0.98544
1903.87557	0.98443
1901.82177	0.98349
1899.76797	0.98270
1897.71417	0.98287
1895.66036	0.98392
1893.60656	0.98482
1891.55276	0.98529
1889.49895	0.98538
1887.44515	0.98535
1885.39135	0.98567
1883.33754	0.98605
1881.28374	0.98592
1879.22994	0.98530
1877.17613	0.98473
1875.12233	0.98483
1873.06853	0.98523
1871.01472	0.98521
1868.96092	0.98527
1866.90712	0.98583
1864.85331	0.98609
1862.79951	0.98583
1860.74571	0.98562
1858.69190	0.98573
1856.63810	0.98577
1854.58430	0.98568
1852.53049	0.98572
1850.47669	0.98594
1848.42289	0.98609
1846.36908	0.98586
1844.31528	0.98553
1842.26148	0.98545
1840.20768	0.98536
1838.15387	0.98549
1836.10007	0.98589
1834.04627	0.98599
1831.99246	0.98567
1829.93866	0.98513
1827.88486	0.98478
1825.83105	0.98475
1823.77725	0.98476
1821.72345	0.98495
1819.66964	0.98539
1817.61584	0.98569
1815.56204	0.98556
1813.50823	0.98517
1811.45443	0.98491
1809.40063	0.98507
1807.34682	0.98514
1805.29302	0.98473
1803.23922	0.98454
1801.18541	0.98490
1799.13161	0.98535
1797.07781	0.98546
1795.02400	0.98523
1792.97020	0.98507
1790.91640	0.98508
1788.86260	0.98475
1786.80879	0.98401
1784.75499	0.98349
1782.70119	0.98364
1780.64738	0.98403
1778.59358	0.98399
1776.53978	0.98347
1774.48597	0.98289
1772.43217	0.98252
1770.37837	0.98264
1768.32456	0.98298
1766.27076	0.98271
1764.21696	0.98194
1762.16315	0.98152
1760.10935	0.98164
1758.05555	0.98126
1756.00174	0.98031
1753.94794	0.97979
1751.89414	0.97960
1749.84033	0.97892
1747.78653	0.97769
1745.73273	0.97648
1743.67892	0.97578
1741.62512	0.97568
1739.57132	0.97571
1737.51751	0.97525
1735.46371	0.97408
1733.40991	0.97314
1731.35611	0.97351
1729.30230	0.97382
1727.24850	0.97369
1725.19470	0.97351
1723.14089	0.97327
1721.08709	0.97295
1719.03329	0.97294
1716.97948	0.97334
1714.92568	0.97306
1712.87188	0.97252
1710.81807	0.97238
1708.76427	0.97211
1706.71047	0.97133
1704.65666	0.97068
1702.60286	0.97037
1700.54906	0.96986
1698.49525	0.96888
1696.44145	0.96729
1694.38765	0.96582
1692.33384	0.96526
1690.28004	0.96480
1688.22624	0.96392
1686.17243	0.96284
1684.11863	0.96146
1682.06483	0.96050
1680.01103	0.96017
1677.95722	0.95982
1675.90342	0.95926
1673.84962	0.95845
1671.79581	0.95752
1669.74201	0.95665
1667.68821	0.95604
1665.63440	0.95541
1663.58060	0.95437
1661.52680	0.95346
1659.47299	0.95311
1657.41919	0.95259
1655.36539	0.95170
1653.31158	0.95078
1651.25778	0.95036
1649.20398	0.95007
1647.15017	0.94982
1645.09637	0.94994
1643.04257	0.94989
1640.98876	0.94940
1638.93496	0.94878
1636.88116	0.94822
1634.82735	0.94754
1632.77355	0.94684
1630.71975	0.94647
1628.66594	0.94643
1626.61214	0.94623
1624.55834	0.94564
1622.50454	0.94532
1620.45073	0.94569
1618.39693	0.94654
1616.34313	0.94809
1614.28932	0.94976
1612.23552	0.95106
1610.18172	0.95222
1608.12791	0.95314
1606.07411	0.95393
1604.02031	0.95470
1601.96650	0.95501
1599.91270	0.95470
1597.85890	0.95431
1595.80509	0.95418
1593.75129	0.95368
1591.69749	0.95233
1589.64368	0.95065
1587.58988	0.94865
1585.53608	0.94558
1583.48227	0.94117
1581.42847	0.93582
1579.37467	0.93054
1577.32086	0.92621
1575.26706	0.92455
1573.21326	0.92612
1571.15945	0.92952
1569.10565	0.93497
1567.05185	0.93988
1564.99805	0.94312
1562.94424	0.94541
1560.89044	0.94684
1558.83664	0.94878
1556.78283	0.95066
1554.72903	0.95074
1552.67523	0.94956
1550.62142	0.94711
1548.56762	0.94358
1546.51382	0.93965
1544.46001	0.93469
1542.40621	0.92866
1540.35241	0.92337
1538.29860	0.92262
1536.24480	0.92538
1534.19100	0.93094
1532.13719	0.93864
1530.08339	0.94464
1528.02959	0.94952
1525.97578	0.95395
1523.92198	0.95671
1521.86818	0.95785
1519.81437	0.95878
1517.76057	0.96016
1515.70677	0.96157
1513.65297	0.96252
1511.59916	0.96305
1509.54536	0.96363
1507.49156	0.96491
1505.43775	0.96594
1503.38395	0.96575
1501.33015	0.96521
1499.27634	0.96432
1497.22254	0.96356
1495.16874	0.96312
1493.11493	0.96272
1491.06113	0.96176
1489.00733	0.95910
1486.95352	0.95511
1484.89972	0.95088
1482.84592	0.94534
1480.79211	0.93648
1478.73831	0.92083
1476.68451	0.88632
1474.63070	0.82145
1472.57690	0.75384
1470.52310	0.74244
1468.46929	0.76322
1466.41549	0.77661
1464.36169	0.77122
1462.30788	0.77024
1460.25408	0.79355
1458.20028	0.83707
1456.14648	0.87890
1454.09267	0.89663
1452.03887	0.90582
1449.98507	0.91328
1447.93126	0.91929
1445.87746	0.92341
1443.82366	0.92579
1441.76985	0.92745
1439.71605	0.92833
1437.66225	0.92829
1435.60844	0.92836
1433.55464	0.92954
1431.50084	0.93176
1429.44703	0.93443
1427.39323	0.93655
1425.33943	0.93779
1423.28562	0.93842
1421.23182	0.93868
1419.17802	0.93899
1417.12421	0.93986
1415.07041	0.94136
1413.01661	0.94319
1410.96280	0.94522
1408.90900	0.94743
1406.85520	0.94973
1404.80139	0.95214
1402.74759	0.95408
1400.69379	0.95523
1398.63999	0.95580
1396.58618	0.95613
1394.53238	0.95655
1392.47858	0.95698
1390.42477	0.95720
1388.37097	0.95736
1386.31717	0.95745
1384.26336	0.95673
1382.20956	0.95471
1380.15576	0.95167
1378.10195	0.94910
1376.04815	0.94857
1373.99435	0.95018
1371.94054	0.95212
1369.88674	0.95312
1367.83294	0.95353
1365.77913	0.95400
1363.72533	0.95514
1361.67153	0.95658
1359.61772	0.95727
1357.56392	0.95750
1355.51012	0.95779
1353.45631	0.95810
1351.40251	0.95865
1349.34871	0.95929
1347.29491	0.95966
1345.24110	0.96008
1343.18730	0.96083
1341.13350	0.96153
1339.07969	0.96176
1337.02589	0.96175
1334.97209	0.96198
1332.91828	0.96238
1330.86448	0.96256
1328.81068	0.96255
1326.75687	0.96239
1324.70307	0.96192
1322.64927	0.96118
1320.59546	0.96045
1318.54166	0.96012
1316.48786	0.96040
1314.43405	0.96086
1312.38025	0.96093
1310.32645	0.96060
1308.27264	0.96022
1306.21884	0.95978
1304.16504	0.95922
1302.11123	0.95885
1300.05743	0.95893
1298.00363	0.95948
1295.94982	0.96009
1293.89602	0.96018
1291.84222	0.95975
1289.78842	0.95945
1287.73461	0.95962
1285.68081	0.95993
1283.62701	0.96001
1281.57320	0.96000
1279.51940	0.95989
1277.46560	0.95957
1275.41179	0.95935
1273.35799	0.95933
1271.30419	0.95937
1269.25038	0.95918
1267.19658	0.95875
1265.14278	0.95826
1263.08897	0.95771
1261.03517	0.95715
1258.98137	0.95676
1256.92756	0.95662
1254.87376	0.95665
1252.81996	0.95651
1250.76615	0.95598
1248.71235	0.95542
1246.65855	0.95493
1244.60474	0.95437
1242.55094	0.95391
1240.49714	0.95366
1238.44334	0.95341
1236.38953	0.95299
1234.33573	0.95254
1232.28193	0.95226
1230.22812	0.95204
1228.17432	0.95170
1226.12052	0.95137
1224.06671	0.95140
1222.01291	0.95134
1219.95911	0.95062
1217.90530	0.94955
1215.85150	0.94871
1213.79770	0.94811
1211.74389	0.94755
1209.69009	0.94695
1207.63629	0.94603
1205.58248	0.94494
1203.52868	0.94419
1201.47488	0.94343
1199.42107	0.94223
1197.36727	0.94103
1195.31347	0.93975
1193.25966	0.93781
1191.20586	0.93549
1189.15206	0.93354
1187.09825	0.93190
1185.04445	0.92991
1182.99065	0.92743
1180.93685	0.92465
1178.88304	0.92158
1176.82924	0.91852
1174.77544	0.91578
1172.72163	0.91294
1170.66783	0.91003
1168.61403	0.90731
1166.56022	0.90424
1164.50642	0.90099
1162.45262	0.89839
1160.39881	0.89646
1158.34501	0.89480
1156.29121	0.89339
1154.23740	0.89214
1152.18360	0.89073
1150.12980	0.88897
1148.07599	0.88686
1146.02219	0.88458
1143.96839	0.88251
1141.91458	0.88091
1139.86078	0.87970
1137.80698	0.87859
1135.75317	0.87728
1133.69937	0.87541
1131.64557	0.87276
1129.59176	0.86965
1127.53796	0.86610
1125.48416	0.86180
1123.43036	0.85691
1121.37655	0.85181
1119.32275	0.84650
1117.26895	0.84102
1115.21514	0.83585
1113.16134	0.83144
1111.10754	0.82794
1109.05373	0.82528
1106.99993	0.82330
1104.94613	0.82152
1102.89232	0.81985
1100.83852	0.81866
1098.78472	0.81759
1096.73091	0.81649
1094.67711	0.81597
1092.62331	0.81602
1090.56950	0.81614
1088.51570	0.81613
1086.46190	0.81575
1084.40809	0.81471
1082.35429	0.81345
1080.30049	0.81252
1078.24668	0.81179
1076.19288	0.81100
1074.13908	0.80985
1072.08528	0.80822
1070.03147	0.80644
1067.97767	0.80448
1065.92387	0.80177
1063.87006	0.79830
1061.81626	0.79471
1059.76246	0.79081
1057.70865	0.78650
1055.65485	0.78231
1053.60105	0.77811
1051.54724	0.77337
1049.49344	0.76823
1047.43964	0.76356
1045.38583	0.75912
1043.33203	0.75427
1041.27823	0.74956
1039.22442	0.74548
1037.17062	0.74216
1035.11682	0.73960
1033.06301	0.73781
1031.00921	0.73715
1028.95541	0.73765
1026.90160	0.73922
1024.84780	0.74154
1022.79400	0.74390
1020.74019	0.74580
1018.68639	0.74713
1016.63259	0.74797
1014.57879	0.74834
1012.52498	0.74860
1010.47118	0.74927
1008.41738	0.75048
1006.36357	0.75238
1004.30977	0.75523
1002.25597	0.75913
1000.20216	0.76444
998.14836	0.77086
996.09456	0.77757
994.04075	0.78473
991.98695	0.79270
989.93315	0.80056
987.87934	0.80775
985.82554	0.81472
983.77174	0.82143
981.71793	0.82804
979.66413	0.83477
977.61033	0.84098
975.55652	0.84649
973.50272	0.85176
971.44892	0.85700
969.39511	0.86193
967.34131	0.86614
965.28751	0.86970
963.23371	0.87321
961.17990	0.87679
959.12610	0.88004
957.07230	0.88269
955.01849	0.88498
952.96469	0.88735
950.91089	0.88947
948.85708	0.89124
946.80328	0.89301
944.74948	0.89412
942.69567	0.89472
940.64187	0.89561
938.58807	0.89623
936.53426	0.89635
934.48046	0.89679
932.42666	0.89785
930.37285	0.89882
928.31905	0.89891
926.26525	0.89849
924.21144	0.89820
922.15764	0.89803
920.10384	0.89754
918.05003	0.89615
915.99623	0.89392
913.94243	0.89182
911.88862	0.89136
909.83482	0.89340
907.78102	0.89706
905.72722	0.90094
903.67341	0.90460
901.61961	0.90840
899.56581	0.91240
897.51200	0.91593
895.45820	0.91841
893.40440	0.91997
891.35059	0.92133
889.29679	0.92285
887.24299	0.92425
885.18918	0.92508
883.13538	0.92511
881.08158	0.92482
879.02777	0.92462
876.97397	0.92455
874.92017	0.92524
872.86636	0.92735
870.81256	0.93005
868.75876	0.93186
866.70495	0.93308
864.65115	0.93464
862.59735	0.93628
860.54354	0.93768
858.48974	0.93853
856.43594	0.93892
854.38213	0.93956
852.32833	0.94008
850.27453	0.94030
848.22073	0.94048
846.16692	0.94036
844.11312	0.94044
842.05932	0.94073
840.00551	0.94077
837.95171	0.94084
835.89791	0.94045
833.84410	0.93919
831.79030	0.93818
829.73650	0.93827
827.68269	0.93806
825.62889	0.93680
823.57509	0.93591
821.52128	0.93607
819.46748	0.93674
817.41368	0.93660
815.35987	0.93519
813.30607	0.93425
811.25227	0.93415
809.19846	0.93339
807.14466	0.93149
805.09086	0.92925
803.03705	0.92749
800.98325	0.92618
798.92945	0.92495
796.87565	0.92404
794.82184	0.92361
792.76804	0.92329
790.71424	0.92327
788.66043	0.92330
786.60663	0.92267
784.55283	0.92156
782.49902	0.92049
780.44522	0.92018
778.39142	0.92039
776.33761	0.92045
774.28381	0.92085
772.23001	0.92162
770.17620	0.92183
768.12240	0.92085
766.06860	0.91921
764.01479	0.91755
761.96099	0.91587
759.90719	0.91445
757.85338	0.91371
755.79958	0.91304
753.74578	0.91158
751.69197	0.91000
749.63817	0.90956
747.58437	0.90980
745.53056	0.90924
743.47676	0.90836
741.42296	0.90781
739.36916	0.90581
737.31535	0.90025
735.26155	0.88614
733.20775	0.85512
731.15394	0.81737
729.10014	0.80287
727.04634	0.81336
724.99253	0.81679
722.93873	0.78968
720.88493	0.73422
718.83112	0.68329
716.77732	0.67568
714.72352	0.71440
712.66971	0.77105
710.61591	0.81583
708.56211	0.84044
706.50830	0.85213
704.45450	0.85811
702.40070	0.86167
700.34689	0.86356
698.29309	0.86418
696.23929	0.86429
694.18548	0.86441
692.13168	0.86497
690.07788	0.86570
688.02408	0.86643
685.97027	0.86727
683.91647	0.86784
681.86267	0.86866
679.80886	0.86984
677.75506	0.87000
675.70126	0.86918
673.64745	0.86828
671.59365	0.86748
669.53985	0.86745
667.48604	0.86993
665.43224	0.87338
663.37844	0.87558
661.32463	0.87671
659.27083	0.87784
657.21703	0.87934
655.16322	0.87980
653.10942	0.87922
651.05562	0.87960
649.00181	0.88067
646.94801	0.88041
644.89421	0.87973
642.84040	0.87948
640.78660	0.87918
638.73280	0.87904
636.67899	0.87903
634.62519	0.87947
632.57139	0.87990
630.51759	0.87991
628.46378	0.88057
626.40998	0.88135
624.35618	0.88085
622.30237	0.87961
620.24857	0.87864
618.19477	0.87774
616.14096	0.87626
614.08716	0.87431
612.03336	0.87272
609.97955	0.87145
607.92575	0.86937
605.87195	0.86667
603.81814	0.86518
601.76434	0.86557
599.71054	0.86544
597.65673	0.86372
595.60293	0.86297
593.54913	0.86361
591.49532	0.86329
589.44152	0.86158
587.38772	0.85984
585.33391	0.85866
583.28011	0.85824
581.22631	0.85846
579.17250	0.85825
577.11870	0.85688
575.06490	0.85576
573.01110	0.85603
570.95729	0.85543
568.90349	0.85219
566.84969	0.84882
564.79588	0.84748
562.74208	0.84613
560.68828	0.84358
558.63447	0.84076
556.58067	0.83771
554.52687	0.83523
552.47306	0.83367
550.41926	0.83149
548.36546	0.82880
546.31165	0.82668
544.25785	0.82366
542.20405	0.81925
540.15024	0.81542
538.09644	0.81267
536.04264	0.81049
533.98883	0.80939
531.93503	0.80920
529.88123	0.80913
527.82742	0.80990
525.77362	0.81178
523.71982	0.81334
521.66602	0.81409
519.61221	0.81525
517.55841	0.81796
515.50461	0.82249
513.45080	0.82771
511.39700	0.83061
509.34320	0.83009
507.28939	0.82940
505.23559	0.83195
503.18179	0.83631
501.12798	0.83862
499.07418	0.83849
497.02038	0.83708
494.96657	0.83474
492.91277	0.83230
490.85897	0.83058
488.80516	0.82970
486.75136	0.82815
484.69756	0.82443
482.64375	0.81821
480.58995	0.81003
478.53615	0.80168
476.48234	0.79457
474.42854	0.78759
472.37474	0.77925
470.32093	0.77031
468.26713	0.76396
466.21333	0.76348
464.15953	0.76827
462.10572	0.77474
460.05192	0.77977
457.99812	0.78334
455.94431	0.78828
453.89051	0.79617
451.83671	0.80489
449.78290	0.80954
447.72910	0.80996
445.67530	0.80839
443.62149	0.80538
441.56769	0.80349
439.51389	0.80430
437.46008	0.80453
435.40628	0.80365
433.35248	0.80201
431.29867	0.79975
429.24487	0.80230
427.19107	0.80878
425.13726	0.81145
423.08346	0.81049
421.02966	0.80911
418.97585	0.80967
416.92205	0.81829
414.86825	0.82724
412.81445	0.83167
410.76064	0.83424
408.70684	0.83800
406.65304	0.84387
404.59923	0.84888
402.54543	0.85023
400.49163	0.84827
398.43782	0.84719
