3996.70104	0.93380
3994.64724	0.93387
3992.59344	0.93388
3990.53964	0.93408
3988.48583	0.93427
3986.43203	0.93408
3984.37823	0.93404
3982.32442	0.93419
3980.27062	0.93402
3978.21682	0.93368
3976.16301	0.93362
3974.10921	0.93392
3972.05541	0.93408
3970.00160	0.93415
3967.94780	0.93433
3965.89400	0.93453
3963.84019	0.93487
3961.78639	0.93479
3959.73259	0.93431
3957.67878	0.93420
3955.62498	0.93438
3953.57118	0.93466
3951.51737	0.93497
3949.46357	0.93543
3947.40977	0.93568
3945.35596	0.93546
3943.30216	0.93528
3941.24836	0.93470
3939.19455	0.93409
3937.14075	0.93445
3935.08695	0.93515
3933.03315	0.93529
3930.97934	0.93506
3928.92554	0.93521
3926.87174	0.93554
3924.81793	0.93557
3922.76413	0.93539
3920.71033	0.93501
3918.65652	0.93452
3916.60272	0.93431
3914.54892	0.93449
3912.49511	0.93492
3910.44131	0.93558
3908.38751	0.93615
3906.33370	0.93606
3904.27990	0.93559
3902.22610	0.93547
3900.17229	0.93533
3898.11849	0.93540
3896.06469	0.93561
3894.01088	0.93550
3891.95708	0.93530
3889.90328	0.93508
3887.84947	0.93479
3885.79567	0.93470
3883.74187	0.93513
3881.68807	0.93582
3879.63426	0.93633
3877.58046	0.93649
3875.52666	0.93642
3873.47285	0.93630
3871.41905	0.93594
3869.36525	0.93505
3867.31144	0.93420
3865.25764	0.93390
3863.20384	0.93423
3861.15003	0.93444
3859.09623	0.93425
3857.04243	0.93445
3854.98862	0.93518
3852.93482	0.93575
3850.88102	0.93572
3848.82721	0.93555
3846.77341	0.93549
3844.71961	0.93559
3842.66580	0.93570
3840.61200	0.93582
3838.55820	0.93607
3836.50439	0.93592
3834.45059	0.93535
3832.39679	0.93553
3830.34298	0.93635
3828.28918	0.93683
3826.23538	0.93671
3824.18158	0.93591
3822.12777	0.93542
3820.07397	0.93606
3818.02017	0.93642
3815.96636	0.93607
3813.91256	0.93572
3811.85876	0.93573
3809.80495	0.93561
3807.75115	0.93526
3805.69735	0.93597
3803.64354	0.93698
3801.58974	0.93670
3799.53594	0.93637
3797.48213	0.93686
3795.42833	0.93707
3793.37453	0.93657
3791.32072	0.93632
3789.26692	0.93666
3787.21312	0.93695
3785.15931	0.93704
3783.10551	0.93684
3781.05171	0.93675
3778.99790	0.93687
3776.94410	0.93686
3774.89030	0.93692
3772.83650	0.93707
3770.78269	0.93789
3768.72889	0.93873
3766.67509	0.93835
3764.62128	0.93765
3762.56748	0.93728
3760.51368	0.93731
3758.45987	0.93723
3756.40607	0.93685
3754.35227	0.93680
3752.29846	0.93666
3750.24466	0.93649
3748.19086	0.93693
3746.13705	0.93758
3744.08325	0.93828
3742.02945	0.93835
3739.97564	0.93852
3737.92184	0.93889
3735.86804	0.93859
3733.81423	0.93848
3731.76043	0.93885
3729.70663	0.93856
3727.65282	0.93797
3725.59902	0.93809
3723.54522	0.93872
3721.49141	0.93852
3719.43761	0.93770
3717.38381	0.93673
3715.33001	0.93574
3713.27620	0.93494
3711.22240	0.93435
3709.16860	0.93438
3707.11479	0.93392
3705.06099	0.93243
3703.00719	0.93022
3700.95338	0.92759
3698.89958	0.92633
3696.84578	0.92622
3694.79197	0.92617
3692.73817	0.92680
3690.68437	0.92782
3688.63056	0.92826
3686.57676	0.92857
3684.52296	0.92897
3682.46915	0.92883
3680.41535	0.92805
3678.36155	0.92788
3676.30774	0.92795
3674.25394	0.92691
3672.20014	0.92643
3670.14633	0.92631
3668.09253	0.92640
3666.03873	0.92628
3663.98492	0.92552
3661.93112	0.92509
3659.87732	0.92493
3657.82352	0.92439
3655.76971	0.92380
3653.71591	0.92404
3651.66211	0.92477
3649.60830	0.92406
3647.55450	0.92197
3645.50070	0.92072
3643.44689	0.91997
3641.39309	0.91956
3639.33929	0.91907
3637.28548	0.91844
3635.23168	0.91806
3633.17788	0.91806
3631.12407	0.91827
3629.07027	0.91783
3627.01647	0.91626
3624.96266	0.91487
3622.90886	0.91393
3620.85506	0.91327
3618.80125	0.91306
3616.74745	0.91340
3614.69365	0.91392
3612.63984	0.91453
3610.58604	0.91488
3608.53224	0.91527
3606.47844	0.91633
3604.42463	0.91630
3602.37083	0.91508
3600.31703	0.91483
3598.26322	0.91551
3596.20942	0.91606
3594.15562	0.91650
3592.10181	0.91673
3590.04801	0.91641
3587.99421	0.91530
3585.94040	0.91438
3583.88660	0.91409
3581.83280	0.91387
3579.77899	0.91387
3577.72519	0.91389
3575.67139	0.91364
3573.61758	0.91321
3571.56378	0.91294
3569.50998	0.91292
3567.45617	0.91294
3565.40237	0.91296
3563.34857	0.91244
3561.29476	0.91172
3559.24096	0.91148
3557.18716	0.91131
3555.13335	0.91099
3553.07955	0.91052
3551.02575	0.91013
3548.97195	0.91026
3546.91814	0.91040
3544.86434	0.91044
3542.81054	0.91061
3540.75673	0.91048
3538.70293	0.90993
3536.64913	0.90951
3534.59532	0.90985
3532.54152	0.91050
3530.48772	0.91110
3528.43391	0.91138
3526.38011	0.91100
3524.32631	0.91049
3522.27250	0.91000
3520.21870	0.90961
3518.16490	0.90960
3516.11109	0.90977
3514.05729	0.90990
3512.00349	0.90998
3509.94968	0.91008
3507.89588	0.90976
3505.84208	0.90924
3503.78827	0.90938
3501.73447	0.90968
3499.68067	0.90944
3497.62687	0.90879
3495.57306	0.90809
3493.51926	0.90789
3491.46546	0.90817
3489.41165	0.90860
3487.35785	0.90854
3485.30405	0.90798
3483.25024	0.90750
3481.19644	0.90736
3479.14264	0.90775
3477.08883	0.90784
3475.03503	0.90749
3472.98123	0.90749
3470.92742	0.90733
3468.87362	0.90673
3466.81982	0.90634
3464.76601	0.90648
3462.71221	0.90675
3460.65841	0.90672
3458.60460	0.90646
3456.55080	0.90594
3454.49700	0.90548
3452.44319	0.90554
3450.38939	0.90592
3448.33559	0.90601
3446.28178	0.90498
3444.22798	0.90389
3442.17418	0.90411
3440.12038	0.90455
3438.06657	0.90437
3436.01277	0.90398
3433.95897	0.90378
3431.90516	0.90381
3429.85136	0.90371
3427.79756	0.90368
3425.74375	0.90381
3423.68995	0.90385
3421.63615	0.90368
3419.58234	0.90331
3417.52854	0.90317
3415.47474	0.90331
3413.42093	0.90354
3411.36713	0.90357
3409.31333	0.90292
3407.25952	0.90228
3405.20572	0.90231
3403.15192	0.90260
3401.09811	0.90282
3399.04431	0.90274
3396.99051	0.90265
3394.93670	0.90293
3392.88290	0.90344
3390.82910	0.90367
3388.77529	0.90348
3386.72149	0.90339
3384.66769	0.90319
3382.61389	0.90289
3380.56008	0.90280
3378.50628	0.90278
3376.45248	0.90302
3374.39867	0.90315
3372.34487	0.90322
3370.29107	0.90348
3368.23726	0.90361
3366.18346	0.90377
3364.12966	0.90362
3362.07585	0.90309
3360.02205	0.90284
3357.96825	0.90303
3355.91444	0.90350
3353.86064	0.90395
3351.80684	0.90437
3349.75303	0.90465
3347.69923	0.90464
3345.64543	0.90457
3343.59162	0.90455
3341.53782	0.90490
3339.48402	0.90515
3337.43021	0.90487
3335.37641	0.90494
3333.32261	0.90516
3331.26881	0.90492
3329.21500	0.90472
3327.16120	0.90511
3325.10740	0.90569
3323.05359	0.90547
3320.99979	0.90490
3318.94599	0.90493
3316.89218	0.90520
3314.83838	0.90535
3312.78458	0.90559
3310.73077	0.90602
3308.67697	0.90647
3306.62317	0.90680
3304.56936	0.90665
3302.51556	0.90647
3300.46176	0.90710
3298.40795	0.90761
3296.35415	0.90724
3294.30035	0.90693
3292.24654	0.90707
3290.19274	0.90748
3288.13894	0.90782
3286.08513	0.90790
3284.03133	0.90768
3281.97753	0.90716
3279.92372	0.90689
3277.86992	0.90692
3275.81612	0.90729
3273.76232	0.90810
3271.70851	0.90863
3269.65471	0.90876
3267.60091	0.90877
3265.54710	0.90892
3263.49330	0.90907
3261.43950	0.90898
3259.38569	0.90914
3257.33189	0.90952
3255.27809	0.90973
3253.22428	0.90981
3251.17048	0.90972
3249.11668	0.90963
3247.06287	0.90971
3245.00907	0.91014
3242.95527	0.91069
3240.90146	0.91089
3238.84766	0.91108
3236.79386	0.91136
3234.74005	0.91166
3232.68625	0.91183
3230.63245	0.91157
3228.57864	0.91133
3226.52484	0.91088
3224.47104	0.91016
3222.41724	0.91023
3220.36343	0.91106
3218.30963	0.91176
3216.25583	0.91212
3214.20202	0.91257
3212.14822	0.91287
3210.09442	0.91267
3208.04061	0.91252
3205.98681	0.91265
3203.93301	0.91308
3201.87920	0.91339
3199.82540	0.91336
3197.77160	0.91338
3195.71779	0.91321
3193.66399	0.91329
3191.61019	0.91396
3189.55638	0.91421
3187.50258	0.91406
3185.44878	0.91431
3183.39497	0.91491
3181.34117	0.91522
3179.28737	0.91536
3177.23356	0.91561
3175.17976	0.91523
3173.12596	0.91482
3171.07215	0.91510
3169.01835	0.91540
3166.96455	0.91561
3164.91075	0.91568
3162.85694	0.91582
3160.80314	0.91643
3158.74934	0.91720
3156.69553	0.91776
3154.64173	0.91801
3152.58793	0.91831
3150.53412	0.91878
3148.48032	0.91900
3146.42652	0.91889
3144.37271	0.91853
3142.31891	0.91858
3140.26511	0.91898
3138.21130	0.91927
3136.15750	0.91961
3134.10370	0.91971
3132.04989	0.91955
3129.99609	0.91949
3127.94229	0.91977
3125.88848	0.92022
3123.83468	0.92016
3121.78088	0.92006
3119.72707	0.92030
3117.67327	0.92047
3115.61947	0.92053
3113.56566	0.92038
3111.51186	0.92039
3109.45806	0.92042
3107.40426	0.91981
3105.35045	0.91910
3103.29665	0.91887
3101.24285	0.91914
3099.18904	0.91958
3097.13524	0.91980
3095.08144	0.91978
3093.02763	0.91939
3090.97383	0.91861
3088.92003	0.91732
3086.86622	0.91545
3084.81242	0.91363
3082.75862	0.91251
3080.70481	0.91249
3078.65101	0.91337
3076.59721	0.91443
3074.54340	0.91533
3072.48960	0.91587
3070.43580	0.91579
3068.38199	0.91487
3066.32819	0.91323
3064.27439	0.91096
3062.22058	0.90824
3060.16678	0.90651
3058.11298	0.90662
3056.05918	0.90816
3054.00537	0.91060
3051.95157	0.91302
3049.89777	0.91485
3047.84396	0.91608
3045.79016	0.91687
3043.73636	0.91730
3041.68255	0.91733
3039.62875	0.91699
3037.57495	0.91570
3035.52114	0.91323
3033.46734	0.90966
3031.41354	0.90442
3029.35973	0.89805
3027.30593	0.89222
3025.25213	0.88897
3023.19832	0.88978
3021.14452	0.89427
3019.09072	0.90054
3017.03691	0.90640
3014.98311	0.91084
3012.92931	0.91379
3010.87550	0.91559
3008.82170	0.91705
3006.76790	0.91781
3004.71409	0.91732
3002.66029	0.91626
3000.60649	0.91613
2998.55269	0.91745
2996.49888	0.91895
2994.44508	0.92016
2992.39128	0.92135
2990.33747	0.92228
2988.28367	0.92301
2986.22987	0.92332
2984.17606	0.92364
2982.12226	0.92414
2980.06846	0.92424
2978.01465	0.92419
2975.96085	0.92412
2973.90705	0.92419
2971.85324	0.92416
2969.79944	0.92352
2967.74564	0.92268
2965.69183	0.92190
2963.63803	0.92129
2961.58423	0.92072
2959.53042	0.92017
2957.47662	0.91968
2955.42282	0.91903
2953.36901	0.91862
2951.31521	0.91826
2949.26141	0.91734
2947.20761	0.91590
2945.15380	0.91373
2943.10000	0.91094
2941.04620	0.90786
2938.99239	0.90453
2936.93859	0.90088
2934.88479	0.89692
2932.83098	0.89299
2930.77718	0.88867
2928.72338	0.88411
2926.66957	0.88039
2924.61577	0.87736
2922.56197	0.87510
2920.50816	0.87396
2918.45436	0.87380
2916.40056	0.87486
2914.34675	0.87699
2912.29295	0.87981
2910.23915	0.88295
2908.18534	0.88636
2906.13154	0.88995
2904.07774	0.89283
2902.02393	0.89528
2899.97013	0.89791
2897.91633	0.90029
2895.86252	0.90219
2893.80872	0.90395
2891.75492	0.90600
2889.70112	0.90786
2887.64731	0.90915
2885.59351	0.91008
2883.53971	0.91085
2881.48590	0.91174
2879.43210	0.91252
2877.37830	0.91304
2875.32449	0.91355
2873.27069	0.91415
2871.21689	0.91487
2869.16308	0.91538
2867.10928	0.91547
2865.05548	0.91507
2863.00167	0.91418
2860.94787	0.91307
2858.89407	0.91149
2856.84026	0.90956
2854.78646	0.90769
2852.73266	0.90578
2850.67885	0.90422
2848.62505	0.90386
2846.57125	0.90500
2844.51744	0.90717
2842.46364	0.90979
2840.40984	0.91255
2838.35603	0.91517
2836.30223	0.91756
2834.24843	0.91949
2832.19463	0.92102
2830.14082	0.92255
2828.08702	0.92367
2826.03322	0.92442
2823.97941	0.92499
2821.92561	0.92516
2819.87181	0.92527
2817.81800	0.92520
2815.76420	0.92508
2813.71040	0.92530
2811.65659	0.92565
2809.60279	0.92598
2807.54899	0.92632
2805.49518	0.92670
2803.44138	0.92691
2801.38758	0.92714
2799.33377	0.92772
2797.27997	0.92801
2795.22617	0.92794
2793.17236	0.92796
2791.11856	0.92817
2789.06476	0.92851
2787.01095	0.92857
2784.95715	0.92838
2782.90335	0.92825
2780.84955	0.92846
2778.79574	0.92912
2776.74194	0.92962
2774.68814	0.92966
2772.63433	0.92952
2770.58053	0.92956
2768.52673	0.93001
2766.47292	0.93037
2764.41912	0.93049
2762.36532	0.93056
2760.31151	0.93050
2758.25771	0.93051
2756.20391	0.93048
2754.15010	0.93043
2752.09630	0.93031
2750.04250	0.93010
2747.98869	0.93032
2745.93489	0.93094
2743.88109	0.93149
2741.82728	0.93163
2739.77348	0.93142
2737.71968	0.93125
2735.66587	0.93118
2733.61207	0.93124
2731.55827	0.93120
2729.50446	0.93118
2727.45066	0.93138
2725.39686	0.93152
2723.34306	0.93184
2721.28925	0.93220
2719.23545	0.93247
2717.18165	0.93288
2715.12784	0.93301
2713.07404	0.93284
2711.02024	0.93253
2708.96643	0.93219
2706.91263	0.93219
2704.85883	0.93242
2702.80502	0.93266
2700.75122	0.93253
2698.69742	0.93209
2696.64361	0.93203
2694.58981	0.93234
2692.53601	0.93288
2690.48220	0.93330
2688.42840	0.93330
2686.37460	0.93310
2684.32079	0.93274
2682.26699	0.93244
2680.21319	0.93232
2678.15938	0.93254
2676.10558	0.93300
2674.05178	0.93326
2671.99797	0.93347
2669.94417	0.93363
2667.89037	0.93367
2665.83657	0.93371
2663.78276	0.93361
2661.72896	0.93352
2659.67516	0.93334
2657.62135	0.93318
2655.56755	0.93329
2653.51375	0.93346
2651.45994	0.93369
2649.40614	0.93396
2647.35234	0.93426
2645.29853	0.93438
2643.24473	0.93418
2641.19093	0.93414
2639.13712	0.93389
2637.08332	0.93358
2635.02952	0.93361
2632.97571	0.93354
2630.92191	0.93382
2628.86811	0.93437
2626.81430	0.93448
2624.76050	0.93446
2622.70670	0.93473
2620.65289	0.93536
2618.59909	0.93563
2616.54529	0.93538
2614.49149	0.93514
2612.43768	0.93515
2610.38388	0.93555
2608.33008	0.93582
2606.27627	0.93583
2604.22247	0.93569
2602.16867	0.93533
2600.11486	0.93538
2598.06106	0.93581
2596.00726	0.93637
2593.95345	0.93670
2591.89965	0.93661
2589.84585	0.93680
2587.79204	0.93693
2585.73824	0.93659
2583.68444	0.93603
2581.63063	0.93590
2579.57683	0.93641
2577.52303	0.93670
2575.46922	0.93703
2573.41542	0.93750
2571.36162	0.93751
2569.30781	0.93744
2567.25401	0.93712
2565.20021	0.93669
2563.14640	0.93658
2561.09260	0.93662
2559.03880	0.93667
2556.98500	0.93639
2554.93119	0.93613
2552.87739	0.93631
2550.82359	0.93691
2548.76978	0.93770
2546.71598	0.93768
2544.66218	0.93740
2542.60837	0.93788
2540.55457	0.93873
2538.50077	0.93942
2536.44696	0.93928
2534.39316	0.93885
2532.33936	0.93831
2530.28555	0.93751
2528.23175	0.93717
2526.17795	0.93697
2524.12414	0.93696
2522.07034	0.93765
2520.01654	0.93860
2517.96273	0.93916
2515.90893	0.93855
2513.85513	0.93755
2511.80132	0.93739
2509.74752	0.93782
2507.69372	0.93794
2505.63992	0.93762
2503.58611	0.93829
2501.53231	0.93923
2499.47851	0.93907
2497.42470	0.93903
2495.37090	0.93916
2493.31710	0.93860
2491.26329	0.93775
2489.20949	0.93743
2487.15569	0.93766
2485.10188	0.93808
2483.04808	0.93862
2480.99428	0.93876
2478.94047	0.93877
2476.88667	0.93923
2474.83287	0.93981
2472.77906	0.94051
2470.72526	0.94087
2468.67146	0.94060
2466.61765	0.94009
2464.56385	0.93938
2462.51005	0.93881
2460.45624	0.93838
2458.40244	0.93859
2456.34864	0.93937
2454.29483	0.93942
2452.24103	0.93941
2450.18723	0.93985
2448.13343	0.94051
2446.07962	0.94093
2444.02582	0.94062
2441.97202	0.94024
2439.91821	0.93967
2437.86441	0.93941
2435.81061	0.93970
2433.75680	0.93980
2431.70300	0.94009
2429.64920	0.94026
2427.59539	0.94033
2425.54159	0.94049
2423.48779	0.94040
2421.43398	0.94043
2419.38018	0.94017
2417.32638	0.93979
2415.27257	0.94007
2413.21877	0.94051
2411.16497	0.94084
2409.11116	0.94075
2407.05736	0.94024
2405.00356	0.93989
2402.94975	0.93980
2400.89595	0.94012
2398.84215	0.94068
2396.78834	0.94095
2394.73454	0.94067
2392.68074	0.94024
2390.62694	0.94054
2388.57313	0.94106
2386.51933	0.94106
2384.46553	0.94093
2382.41172	0.94108
2380.35792	0.94124
2378.30412	0.94079
2376.25031	0.94010
2374.19651	0.93971
2372.14271	0.93972
2370.08890	0.93989
2368.03510	0.93917
2365.98130	0.93874
2363.92749	0.93885
2361.87369	0.93868
2359.81989	0.93934
2357.76608	0.93946
2355.71228	0.93876
2353.65848	0.93912
2351.60467	0.94031
2349.55087	0.94094
2347.49707	0.94055
2345.44326	0.93998
2343.38946	0.93951
2341.33566	0.93939
2339.28186	0.93996
2337.22805	0.93972
2335.17425	0.93890
2333.12045	0.93862
2331.06664	0.93913
2329.01284	0.93977
2326.95904	0.93933
2324.90523	0.93858
2322.85143	0.93821
2320.79763	0.93847
2318.74382	0.93918
2316.69002	0.93925
2314.63622	0.93889
2312.58241	0.93865
2310.52861	0.93907
2308.47481	0.94021
2306.42100	0.94083
2304.36720	0.94091
2302.31340	0.94087
2300.25959	0.94060
2298.20579	0.94017
2296.15199	0.93982
2294.09818	0.93999
2292.04438	0.93997
2289.99058	0.93996
2287.93677	0.94043
2285.88297	0.94049
2283.82917	0.94048
2281.77537	0.94029
2279.72156	0.94031
2277.66776	0.94106
2275.61396	0.94126
2273.56015	0.94142
2271.50635	0.94229
2269.45255	0.94312
2267.39874	0.94268
2265.34494	0.94092
2263.29114	0.94011
2261.23733	0.94054
2259.18353	0.94141
2257.12973	0.94193
2255.07592	0.94118
2253.02212	0.94065
2250.96832	0.94107
2248.91451	0.94236
2246.86071	0.94368
2244.80691	0.94382
2242.75310	0.94432
2240.69930	0.94456
2238.64550	0.94372
2236.59169	0.94288
2234.53789	0.94199
2232.48409	0.94174
2230.43029	0.94203
2228.37648	0.94273
2226.32268	0.94362
2224.26888	0.94355
2222.21507	0.94301
2220.16127	0.94262
2218.10747	0.94393
2216.05366	0.94630
2213.99986	0.94727
2211.94606	0.94736
2209.89225	0.94659
2207.83845	0.94567
2205.78465	0.94489
2203.73084	0.94376
2201.67704	0.94472
2199.62324	0.94818
2197.56943	0.95084
2195.51563	0.94903
2193.46183	0.94471
2191.40802	0.94280
2189.35422	0.94205
2187.30042	0.94311
2185.24661	0.94711
2183.19281	0.95032
2181.13901	0.95073
2179.08520	0.94807
2177.03140	0.94572
2174.97760	0.94571
2172.92380	0.94655
2170.86999	0.94601
2168.81619	0.94283
2166.76239	0.94119
2164.70858	0.94251
2162.65478	0.94584
2160.60098	0.95091
2158.54717	0.95250
2156.49337	0.94881
2154.43957	0.94460
2152.38576	0.94436
2150.33196	0.94618
2148.27816	0.94622
2146.22435	0.94644
2144.17055	0.94638
2142.11675	0.94568
2140.06294	0.94636
2138.00914	0.94751
2135.95534	0.94952
2133.90153	0.95112
2131.84773	0.95088
2129.79393	0.95003
2127.74012	0.94858
2125.68632	0.94784
2123.63252	0.94771
2121.57871	0.94710
2119.52491	0.94577
2117.47111	0.94399
2115.41731	0.94378
2113.36350	0.94430
2111.30970	0.94469
2109.25590	0.94566
2107.20209	0.94625
2105.14829	0.94641
2103.09449	0.94624
2101.04068	0.94686
2098.98688	0.94818
2096.93308	0.94808
2094.87927	0.94727
2092.82547	0.94607
2090.77167	0.94542
2088.71786	0.94645
2086.66406	0.94710
2084.61026	0.94762
2082.55645	0.94853
2080.50265	0.94790
2078.44885	0.94591
2076.39504	0.94551
2074.34124	0.94782
2072.28744	0.94925
2070.23363	0.94838
2068.17983	0.94643
2066.12603	0.94438
2064.07223	0.94452
2062.01842	0.94583
2059.96462	0.94677
2057.91082	0.94780
2055.85701	0.94896
2053.80321	0.95000
2051.74941	0.94961
2049.69560	0.94852
2047.64180	0.94770
2045.58800	0.94753
2043.53419	0.94913
2041.48039	0.95008
2039.42659	0.94895
2037.37278	0.94647
2035.31898	0.94515
2033.26518	0.94735
2031.21137	0.94835
2029.15757	0.94779
2027.10377	0.94722
2025.04996	0.94599
2022.99616	0.94699
2020.94236	0.94896
2018.88855	0.95116
2016.83475	0.95335
2014.78095	0.95222
2012.72714	0.94992
2010.67334	0.94926
2008.61954	0.95048
2006.56574	0.95108
2004.51193	0.95020
2002.45813	0.95107
2000.40433	0.95247
1998.35052	0.95270
1996.29672	0.95110
1994.24292	0.94913
1992.18911	0.94946
1990.13531	0.94991
1988.08151	0.95084
1986.02770	0.95270
1983.97390	0.95402
1981.92010	0.95498
1979.86629	0.95387
1977.81249	0.95202
1975.75869	0.95115
1973.70488	0.95126
1971.65108	0.95258
1969.59728	0.95151
1967.54347	0.94849
1965.48967	0.94663
1963.43587	0.94707
1961.38206	0.94939
1959.32826	0.95013
1957.27446	0.94860
1955.22066	0.94654
1953.16685	0.94679
1951.11305	0.94801
1949.05925	0.94618
1947.00544	0.94454
1944.95164	0.94538
1942.89784	0.94747
1940.84403	0.94879
1938.79023	0.94788
1936.73643	0.94750
1934.68262	0.94835
1932.62882	0.94917
1930.57502	0.94920
1928.52121	0.94824
1926.46741	0.94861
1924.41361	0.94983
1922.35980	0.94989
1920.30600	0.94947
1918.25220	0.94898
1916.19839	0.94909
1914.14459	0.94932
1912.09079	0.94919
1910.03698	0.94845
1907.98318	0.94647
1905.92938	0.94516
1903.87557	0.94515
1901.82177	0.94612
1899.76797	0.94807
1897.71417	0.94956
1895.66036	0.94981
1893.60656	0.94880
1891.55276	0.94759
1889.49895	0.94665
1887.44515	0.94551
1885.39135	0.94520
1883.33754	0.94584
1881.28374	0.94605
1879.22994	0.94546
1877.17613	0.94502
1875.12233	0.94521
1873.06853	0.94512
1871.01472	0.94469
1868.96092	0.94405
1866.90712	0.94335
1864.85331	0.94356
1862.79951	0.94418
1860.74571	0.94481
1858.69190	0.94565
1856.63810	0.94677
1854.58430	0.94811
1852.53049	0.94878
1850.47669	0.94851
1848.42289	0.94775
1846.36908	0.94716
1844.31528	0.94753
1842.26148	0.94809
1840.20768	0.94861
1838.15387	0.94893
1836.10007	0.94842
1834.04627	0.94803
1831.99246	0.94840
1829.93866	0.94932
1827.88486	0.94933
1825.83105	0.94801
1823.77725	0.94718
1821.72345	0.94706
1819.66964	0.94688
1817.61584	0.94658
1815.56204	0.94645
1813.50823	0.94637
1811.45443	0.94568
1809.40063	0.94479
1807.34682	0.94412
1805.29302	0.94381
1803.23922	0.94417
1801.18541	0.94437
1799.13161	0.94414
1797.07781	0.94414
1795.02400	0.94479
1792.97020	0.94593
1790.91640	0.94633
1788.86260	0.94623
1786.80879	0.94630
1784.75499	0.94629
1782.70119	0.94605
1780.64738	0.94558
1778.59358	0.94552
1776.53978	0.94564
1774.48597	0.94556
1772.43217	0.94578
1770.37837	0.94581
1768.32456	0.94556
1766.27076	0.94536
1764.21696	0.94536
1762.16315	0.94552
1760.10935	0.94549
1758.05555	0.94569
1756.00174	0.94548
1753.94794	0.94465
1751.89414	0.94395
1749.84033	0.94317
1747.78653	0.94276
1745.73273	0.94247
1743.67892	0.94183
1741.62512	0.94146
1739.57132	0.94137
1737.51751	0.94152
1735.46371	0.94203
1733.40991	0.94243
1731.35611	0.94220
1729.30230	0.94166
1727.24850	0.94111
1725.19470	0.94043
1723.14089	0.93997
1721.08709	0.94010
1719.03329	0.94053
1716.97948	0.94130
1714.92568	0.94148
1712.87188	0.94139
1710.81807	0.94160
1708.76427	0.94151
1706.71047	0.94121
1704.65666	0.94083
1702.60286	0.94049
1700.54906	0.94030
1698.49525	0.93981
1696.44145	0.93892
1694.38765	0.93766
1692.33384	0.93678
1690.28004	0.93609
1688.22624	0.93514
1686.17243	0.93420
1684.11863	0.93241
1682.06483	0.93072
1680.01103	0.93018
1677.95722	0.92955
1675.90342	0.92856
1673.84962	0.92725
1671.79581	0.92615
1669.74201	0.92469
1667.68821	0.92291
1665.63440	0.92213
1663.58060	0.92152
1661.52680	0.92074
1659.47299	0.92023
1657.41919	0.91978
1655.36539	0.91931
1653.31158	0.91782
1651.25778	0.91631
1649.20398	0.91612
1647.15017	0.91585
1645.09637	0.91545
1643.04257	0.91499
1640.98876	0.91448
1638.93496	0.91394
1636.88116	0.91295
1634.82735	0.91148
1632.77355	0.91078
1630.71975	0.91068
1628.66594	0.91022
1626.61214	0.90937
1624.55834	0.90850
1622.50454	0.90725
1620.45073	0.90636
1618.39693	0.90580
1616.34313	0.90449
1614.28932	0.90287
1612.23552	0.90142
1610.18172	0.89933
1608.12791	0.89498
1606.07411	0.88807
1604.02031	0.88000
1601.96650	0.87304
1599.91270	0.87084
1597.85890	0.87392
1595.80509	0.87938
1593.75129	0.88433
1591.69749	0.88766
1589.64368	0.88975
1587.58988	0.89047
1585.53608	0.88976
1583.48227	0.88917
1581.42847	0.89043
1579.37467	0.89335
1577.32086	0.89687
1575.26706	0.90061
1573.21326	0.90304
1571.15945	0.90434
1569.10565	0.90571
1567.05185	0.90698
1564.99805	0.90810
1562.94424	0.90935
1560.89044	0.91059
1558.83664	0.91201
1556.78283	0.91222
1554.72903	0.91225
1552.67523	0.91302
1550.62142	0.91367
1548.56762	0.91375
1546.51382	0.91368
1544.46001	0.91399
1542.40621	0.91442
1540.35241	0.91443
1538.29860	0.91521
1536.24480	0.91610
1534.19100	0.91712
1532.13719	0.91858
1530.08339	0.91950
1528.02959	0.92020
1525.97578	0.92098
1523.92198	0.92147
1521.86818	0.92141
1519.81437	0.92140
1517.76057	0.92199
1515.70677	0.92221
1513.65297	0.92214
1511.59916	0.92227
1509.54536	0.92252
1507.49156	0.92298
1505.43775	0.92247
1503.38395	0.92108
1501.33015	0.91860
1499.27634	0.91172
1497.22254	0.89164
1495.16874	0.86032
1493.11493	0.84066
1491.06113	0.84322
1489.00733	0.86624
1486.95352	0.88733
1484.89972	0.89753
1482.84592	0.90330
1480.79211	0.90713
1478.73831	0.90916
1476.68451	0.91067
1474.63070	0.91242
1472.57690	0.91325
1470.52310	0.91247
1468.46929	0.91161
1466.41549	0.91151
1464.36169	0.91154
1462.30788	0.91101
1460.25408	0.90935
1458.20028	0.90013
1456.14648	0.87158
1454.09267	0.84455
1452.03887	0.83257
1449.98507	0.83499
1447.93126	0.84709
1445.87746	0.85965
1443.82366	0.86866
1441.76985	0.87581
1439.71605	0.88167
1437.66225	0.88732
1435.60844	0.89341
1433.55464	0.89753
1431.50084	0.90054
1429.44703	0.90338
1427.39323	0.90561
1425.33943	0.90743
1423.28562	0.90882
1421.23182	0.90999
1419.17802	0.91114
1417.12421	0.91188
1415.07041	0.91264
1413.01661	0.91390
1410.96280	0.91549
1408.90900	0.91673
1406.85520	0.91764
1404.80139	0.91874
1402.74759	0.91957
1400.69379	0.92033
1398.63999	0.92109
1396.58618	0.92137
1394.53238	0.92126
1392.47858	0.92092
1390.42477	0.92061
1388.37097	0.92005
1386.31717	0.91898
1384.26336	0.91793
1382.20956	0.91696
1380.15576	0.91596
1378.10195	0.91474
1376.04815	0.91342
1373.99435	0.91237
1371.94054	0.91159
1369.88674	0.91129
1367.83294	0.91131
1365.77913	0.91169
1363.72533	0.91281
1361.67153	0.91412
1359.61772	0.91498
1357.56392	0.91570
1355.51012	0.91659
1353.45631	0.91746
1351.40251	0.91807
1349.34871	0.91882
1347.29491	0.91988
1345.24110	0.92132
1343.18730	0.92299
1341.13350	0.92452
1339.07969	0.92592
1337.02589	0.92676
1334.97209	0.92730
1332.91828	0.92795
1330.86448	0.92817
1328.81068	0.92819
1326.75687	0.92842
1324.70307	0.92897
1322.64927	0.92971
1320.59546	0.93017
1318.54166	0.93041
1316.48786	0.93059
1314.43405	0.93104
1312.38025	0.93139
1310.32645	0.93123
1308.27264	0.93144
1306.21884	0.93213
1304.16504	0.93287
1302.11123	0.93342
1300.05743	0.93382
1298.00363	0.93430
1295.94982	0.93446
1293.89602	0.93458
1291.84222	0.93499
1289.78842	0.93514
1287.73461	0.93490
1285.68081	0.93455
1283.62701	0.93436
1281.57320	0.93427
1279.51940	0.93411
1277.46560	0.93393
1275.41179	0.93356
1273.35799	0.93323
1271.30419	0.93318
1269.25038	0.93340
1267.19658	0.93386
1265.14278	0.93409
1263.08897	0.93418
1261.03517	0.93444
1258.98137	0.93455
1256.92756	0.93439
1254.87376	0.93403
1252.81996	0.93382
1250.76615	0.93366
1248.71235	0.93332
1246.65855	0.93310
1244.60474	0.93297
1242.55094	0.93286
1240.49714	0.93246
1238.44334	0.93198
1236.38953	0.93176
1234.33573	0.93128
1232.28193	0.93060
1230.22812	0.92986
1228.17432	0.92921
1226.12052	0.92873
1224.06671	0.92804
1222.01291	0.92737
1219.95911	0.92640
1217.90530	0.92483
1215.85150	0.92309
1213.79770	0.92106
1211.74389	0.91894
1209.69009	0.91681
1207.63629	0.91449
1205.58248	0.91188
1203.52868	0.90870
1201.47488	0.90546
1199.42107	0.90225
1197.36727	0.89902
1195.31347	0.89594
1193.25966	0.89277
1191.20586	0.88969
1189.15206	0.88637
1187.09825	0.88255
1185.04445	0.87833
1182.99065	0.87351
1180.93685	0.86911
1178.88304	0.86591
1176.82924	0.86369
1174.77544	0.86170
1172.72163	0.85919
1170.66783	0.85637
1168.61403	0.85339
1166.56022	0.85050
1164.50642	0.84780
1162.45262	0.84514
1160.39881	0.84303
1158.34501	0.84066
1156.29121	0.83738
1154.23740	0.83438
1152.18360	0.83282
1150.12980	0.83239
1148.07599	0.83175
1146.02219	0.83101
1143.96839	0.83036
1141.91458	0.82910
1139.86078	0.82747
1137.80698	0.82553
1135.75317	0.82320
1133.69937	0.82068
1131.64557	0.81787
1129.59176	0.81500
1127.53796	0.81206
1125.48416	0.80858
1123.43036	0.80386
1121.37655	0.79810
1119.32275	0.79209
1117.26895	0.78561
1115.21514	0.77893
1113.16134	0.77240
1111.10754	0.76614
1109.05373	0.76068
1106.99993	0.75590
1104.94613	0.75173
1102.89232	0.74802
1100.83852	0.74443
1098.78472	0.74093
1096.73091	0.73742
1094.67711	0.73463
1092.62331	0.73275
1090.56950	0.73098
1088.51570	0.72924
1086.46190	0.72750
1084.40809	0.72566
1082.35429	0.72340
1080.30049	0.72059
1078.24668	0.71779
1076.19288	0.71503
1074.13908	0.71218
1072.08528	0.70846
1070.03147	0.70403
1067.97767	0.69989
1065.92387	0.69574
1063.87006	0.69157
1061.81626	0.68725
1059.76246	0.68264
1057.70865	0.67834
1055.65485	0.67382
1053.60105	0.66840
1051.54724	0.66168
1049.49344	0.65400
1047.43964	0.64646
1045.38583	0.63859
1043.33203	0.62932
1041.27823	0.61887
1039.22442	0.60837
1037.17062	0.59812
1035.11682	0.58710
1033.06301	0.57526
1031.00921	0.56375
1028.95541	0.55426
1026.90160	0.54799
1024.84780	0.54461
1022.79400	0.54286
1020.74019	0.54125
1018.68639	0.53924
1016.63259	0.53713
1014.57879	0.53485
1012.52498	0.53233
1010.47118	0.52945
1008.41738	0.52683
1006.36357	0.52513
1004.30977	0.52409
1002.25597	0.52429
1000.20216	0.52616
998.14836	0.52930
996.09456	0.53345
994.04075	0.53836
991.98695	0.54379
989.93315	0.54944
987.87934	0.55571
985.82554	0.56275
983.77174	0.57020
981.71793	0.57854
979.66413	0.58817
977.61033	0.59920
975.55652	0.61126
973.50272	0.62356
971.44892	0.63598
969.39511	0.64781
967.34131	0.65845
965.28751	0.66836
963.23371	0.67814
961.17990	0.68826
959.12610	0.69811
957.07230	0.70711
955.01849	0.71510
952.96469	0.72188
950.91089	0.72765
948.85708	0.73241
946.80328	0.73664
944.74948	0.74090
942.69567	0.74516
940.64187	0.74963
938.58807	0.75408
936.53426	0.75859
934.48046	0.76307
932.42666	0.76704
930.37285	0.77070
928.31905	0.77370
926.26525	0.77612
924.21144	0.77797
922.15764	0.77878
920.10384	0.77894
918.05003	0.77787
915.99623	0.77564
913.94243	0.77321
911.88862	0.77091
909.83482	0.77001
907.78102	0.77157
905.72722	0.77571
903.67341	0.78255
901.61961	0.79186
899.56581	0.80241
897.51200	0.81222
895.45820	0.82050
893.40440	0.82696
891.35059	0.83209
889.29679	0.83689
887.24299	0.84054
885.18918	0.84343
883.13538	0.84598
881.08158	0.84734
879.02777	0.84811
876.97397	0.84929
874.92017	0.85189
872.86636	0.85546
870.81256	0.85931
868.75876	0.86329
866.70495	0.86575
864.65115	0.86676
862.59735	0.86775
860.54354	0.86906
858.48974	0.87045
856.43594	0.87194
854.38213	0.87453
852.32833	0.87727
850.27453	0.87854
848.22073	0.87846
846.16692	0.87731
844.11312	0.87640
842.05932	0.87593
840.00551	0.87541
837.95171	0.87526
835.89791	0.87492
833.84410	0.87448
831.79030	0.87413
829.73650	0.87424
827.68269	0.87469
825.62889	0.87506
823.57509	0.87642
821.52128	0.87757
819.46748	0.87760
817.41368	0.87741
815.35987	0.87706
813.30607	0.87687
811.25227	0.87514
809.19846	0.87106
807.14466	0.86612
805.09086	0.86030
803.03705	0.85369
800.98325	0.84754
798.92945	0.84425
796.87565	0.84418
794.82184	0.84492
792.76804	0.84552
790.71424	0.84535
788.66043	0.84469
786.60663	0.84345
784.55283	0.84044
782.49902	0.83691
780.44522	0.83318
778.39142	0.82893
776.33761	0.82462
774.28381	0.81964
772.23001	0.81287
770.17620	0.80272
768.12240	0.79027
766.06860	0.77704
764.01479	0.76310
761.96099	0.74956
759.90719	0.73599
757.85338	0.72375
755.79958	0.71663
753.74578	0.71512
751.69197	0.71704
749.63817	0.71972
747.58437	0.72367
745.53056	0.73188
743.47676	0.74544
741.42296	0.76287
739.36916	0.78042
737.31535	0.79653
735.26155	0.81125
733.20775	0.82341
731.15394	0.83263
729.10014	0.83852
727.04634	0.84256
724.99253	0.84568
722.93873	0.84798
720.88493	0.85096
718.83112	0.85386
716.77732	0.85585
714.72352	0.85548
712.66971	0.85083
710.61591	0.83943
708.56211	0.81503
706.50830	0.77363
704.45450	0.71442
702.40070	0.63956
700.34689	0.55632
698.29309	0.47788
696.23929	0.43223
694.18548	0.45025
692.13168	0.52453
690.07788	0.60964
688.02408	0.67177
685.97027	0.71038
683.91647	0.73445
681.86267	0.74801
679.80886	0.75553
677.75506	0.76090
675.70126	0.76605
673.64745	0.77018
671.59365	0.77296
669.53985	0.77644
667.48604	0.78043
665.43224	0.78315
663.37844	0.78455
661.32463	0.78524
659.27083	0.78592
657.21703	0.78556
655.16322	0.78473
653.10942	0.78334
651.05562	0.78131
649.00181	0.78074
646.94801	0.78119
644.89421	0.78293
642.84040	0.78627
640.78660	0.78962
638.73280	0.79238
636.67899	0.79429
634.62519	0.79538
632.57139	0.79565
630.51759	0.79591
628.46378	0.79573
626.40998	0.79429
624.35618	0.79238
622.30237	0.78867
620.24857	0.78450
618.19477	0.78249
616.14096	0.78112
614.08716	0.77991
612.03336	0.77812
609.97955	0.77531
607.92575	0.77281
605.87195	0.76986
603.81814	0.76539
601.76434	0.75932
599.71054	0.75541
597.65673	0.75469
595.60293	0.75308
593.54913	0.75050
591.49532	0.74709
589.44152	0.74441
587.38772	0.74343
585.33391	0.74143
583.28011	0.73956
581.22631	0.73847
579.17250	0.73720
577.11870	0.73480
575.06490	0.73051
573.01110	0.72626
570.95729	0.72135
568.90349	0.71559
566.84969	0.70917
564.79588	0.70148
562.74208	0.69414
560.68828	0.68579
558.63447	0.67670
556.58067	0.66840
554.52687	0.66030
552.47306	0.65276
550.41926	0.64416
548.36546	0.63397
546.31165	0.62148
544.25785	0.60629
542.20405	0.59123
540.15024	0.57557
538.09644	0.56173
536.04264	0.55398
533.98883	0.55202
531.93503	0.55428
529.88123	0.55756
527.82742	0.56284
525.77362	0.57035
523.71982	0.57585
521.66602	0.58112
519.61221	0.58806
517.55841	0.59567
515.50461	0.60178
513.45080	0.60709
511.39700	0.61382
509.34320	0.62014
507.28939	0.62606
505.23559	0.63156
503.18179	0.63544
501.12798	0.63697
499.07418	0.63559
497.02038	0.63497
494.96657	0.63428
492.91277	0.62956
490.85897	0.62113
488.80516	0.60996
486.75136	0.59822
484.69756	0.58348
482.64375	0.56433
480.58995	0.54622
478.53615	0.52931
476.48234	0.51385
474.42854	0.49911
472.37474	0.48339
470.32093	0.47219
468.26713	0.46703
466.21333	0.46463
464.15953	0.46316
462.10572	0.46533
460.05192	0.47210
457.99812	0.47957
455.94431	0.48901
453.89051	0.49978
451.83671	0.51012
449.78290	0.51953
447.72910	0.52479
445.67530	0.52758
443.62149	0.53022
441.56769	0.53093
439.51389	0.52833
437.46008	0.52362
435.40628	0.52061
433.35248	0.51605
431.29867	0.51034
429.24487	0.50939
427.19107	0.50885
425.13726	0.50690
423.08346	0.50764
421.02966	0.51534
418.97585	0.52856
416.92205	0.53572
414.86825	0.54171
412.81445	0.54756
410.76064	0.55284
408.70684	0.56140
406.65304	0.57061
404.59923	0.58006
402.54543	0.58343
400.49163	0.57804
398.43782	0.57258
