3996.71440	0.99291
3994.66059	0.99277
3992.60678	0.99272
3990.55297	0.99266
3988.49916	0.99251
3986.44535	0.99245
3984.39154	0.99233
3982.33773	0.99196
3980.28391	0.99197
3978.23010	0.99250
3976.17629	0.99276
3974.12248	0.99278
3972.06867	0.99287
3970.01486	0.99287
3967.96105	0.99277
3965.90724	0.99270
3963.85343	0.99276
3961.79962	0.99286
3959.74581	0.99298
3957.69200	0.99305
3955.63819	0.99307
3953.58438	0.99316
3951.53057	0.99305
3949.47676	0.99275
3947.42295	0.99264
3945.36914	0.99270
3943.31533	0.99281
3941.26152	0.99270
3939.20771	0.99241
3937.15390	0.99234
3935.10009	0.99240
3933.04628	0.99226
3930.99247	0.99215
3928.93866	0.99231
3926.88485	0.99241
3924.83104	0.99233
3922.77723	0.99244
3920.72342	0.99267
3918.66961	0.99258
3916.61580	0.99238
3914.56199	0.99248
3912.50818	0.99272
3910.45437	0.99277
3908.40056	0.99249
3906.34675	0.99192
3904.29294	0.99141
3902.23913	0.99155
3900.18532	0.99214
3898.13151	0.99244
3896.07770	0.99237
3894.02389	0.99234
3891.97008	0.99267
3889.91627	0.99274
3887.86246	0.99225
3885.80865	0.99186
3883.75484	0.99173
3881.70103	0.99176
3879.64722	0.99223
3877.59341	0.99260
3875.53960	0.99232
3873.48579	0.99190
3871.43198	0.99187
3869.37817	0.99190
3867.32436	0.99181
3865.27055	0.99198
3863.21674	0.99238
3861.16293	0.99237
3859.10912	0.99198
3857.05531	0.99159
3855.00150	0.99156
3852.94769	0.99235
3850.89388	0.99287
3848.84007	0.99275
3846.78626	0.99268
3844.73245	0.99297
3842.67864	0.99339
3840.62483	0.99348
3838.57102	0.99312
3836.51721	0.99263
3834.46340	0.99241
3832.40959	0.99244
3830.35578	0.99240
3828.30197	0.99230
3826.24816	0.99254
3824.19435	0.99291
3822.14054	0.99294
3820.08673	0.99286
3818.03292	0.99285
3815.97911	0.99270
3813.92530	0.99238
3811.87149	0.99232
3809.81768	0.99260
3807.76387	0.99276
3805.71006	0.99263
3803.65625	0.99244
3801.60244	0.99253
3799.54863	0.99293
3797.49482	0.99320
3795.44101	0.99329
3793.38720	0.99327
3791.33339	0.99335
3789.27958	0.99340
3787.22577	0.99320
3785.17196	0.99314
3783.11815	0.99322
3781.06434	0.99330
3779.01053	0.99350
3776.95672	0.99361
3774.90291	0.99332
3772.84910	0.99275
3770.79529	0.99244
3768.74148	0.99245
3766.68767	0.99234
3764.63386	0.99239
3762.58005	0.99271
3760.52624	0.99293
3758.47243	0.99278
3756.41862	0.99250
3754.36481	0.99261
3752.31100	0.99335
3750.25719	0.99451
3748.20338	0.99500
3746.14957	0.99468
3744.09576	0.99400
3742.04195	0.99326
3739.98814	0.99275
3737.93433	0.99264
3735.88052	0.99287
3733.82671	0.99329
3731.77290	0.99374
3729.71909	0.99377
3727.66528	0.99348
3725.61147	0.99331
3723.55766	0.99331
3721.50385	0.99362
3719.45004	0.99421
3717.39623	0.99431
3715.34242	0.99375
3713.28861	0.99352
3711.23480	0.99397
3709.18099	0.99401
3707.12718	0.99341
3705.07337	0.99298
3703.01956	0.99317
3700.96575	0.99357
3698.91194	0.99347
3696.85813	0.99319
3694.80432	0.99292
3692.75051	0.99243
3690.69670	0.99193
3688.64289	0.99214
3686.58907	0.99293
3684.53526	0.99334
3682.48145	0.99321
3680.42764	0.99289
3678.37383	0.99264
3676.32002	0.99263
3674.26621	0.99285
3672.21240	0.99297
3670.15859	0.99303
3668.10478	0.99309
3666.05097	0.99292
3663.99716	0.99259
3661.94335	0.99253
3659.88954	0.99307
3657.83573	0.99364
3655.78192	0.99349
3653.72811	0.99289
3651.67430	0.99224
3649.62049	0.99175
3647.56668	0.99203
3645.51287	0.99241
3643.45906	0.99253
3641.40525	0.99294
3639.35144	0.99349
3637.29763	0.99362
3635.24382	0.99328
3633.19001	0.99294
3631.13620	0.99296
3629.08239	0.99344
3627.02858	0.99367
3624.97477	0.99326
3622.92096	0.99283
3620.86715	0.99230
3618.81334	0.99180
3616.75953	0.99205
3614.70572	0.99239
3612.65191	0.99203
3610.59810	0.99140
3608.54429	0.99108
3606.49048	0.99116
3604.43667	0.99132
3602.38286	0.99141
3600.32905	0.99160
3598.27524	0.99200
3596.22143	0.99245
3594.16762	0.99287
3592.11381	0.99318
3590.06000	0.99322
3588.00619	0.99303
3585.95238	0.99279
3583.89857	0.99246
3581.84476	0.99213
3579.79095	0.99220
3577.73714	0.99253
3575.68333	0.99267
3573.62952	0.99276
3571.57571	0.99287
3569.52190	0.99286
3567.46809	0.99291
3565.41428	0.99300
3563.36047	0.99285
3561.30666	0.99270
3559.25285	0.99282
3557.19904	0.99286
3555.14523	0.99250
3553.09142	0.99225
3551.03761	0.99231
3548.98380	0.99215
3546.92999	0.99217
3544.87618	0.99255
3542.82237	0.99250
3540.76856	0.99202
3538.71475	0.99162
3536.66094	0.99178
3534.60713	0.99228
3532.55332	0.99235
3530.49951	0.99194
3528.44570	0.99151
3526.39189	0.99132
3524.33808	0.99138
3522.28427	0.99156
3520.23046	0.99171
3518.17665	0.99187
3516.12284	0.99197
3514.06903	0.99171
3512.01522	0.99136
3509.96141	0.99134
3507.90760	0.99144
3505.85379	0.99148
3503.79998	0.99172
3501.74617	0.99202
3499.69236	0.99209
3497.63855	0.99191
3495.58474	0.99150
3493.53093	0.99107
3491.47712	0.99093
3489.42331	0.99117
3487.36950	0.99149
3485.31569	0.99144
3483.26188	0.99130
3481.20807	0.99158
3479.15426	0.99190
3477.10045	0.99183
3475.04664	0.99153
3472.99283	0.99113
3470.93902	0.99087
3468.88521	0.99099
3466.83140	0.99111
3464.77759	0.99099
3462.72378	0.99089
3460.66997	0.99106
3458.61616	0.99126
3456.56235	0.99109
3454.50854	0.99086
3452.45473	0.99106
3450.40092	0.99137
3448.34711	0.99128
3446.29330	0.99090
3444.23949	0.99063
3442.18568	0.99066
3440.13187	0.99080
3438.07806	0.99093
3436.02425	0.99114
3433.97044	0.99104
3431.91663	0.99053
3429.86282	0.99013
3427.80901	0.99008
3425.75520	0.99026
3423.70139	0.99051
3421.64758	0.99079
3419.59377	0.99091
3417.53996	0.99065
3415.48615	0.99027
3413.43234	0.99001
3411.37853	0.98992
3409.32472	0.99011
3407.27091	0.99046
3405.21710	0.99072
3403.16329	0.99083
3401.10948	0.99078
3399.05567	0.99061
3397.00186	0.99039
3394.94805	0.99028
3392.89424	0.99035
3390.84042	0.99037
3388.78661	0.99031
3386.73280	0.99041
3384.67899	0.99056
3382.62518	0.99049
3380.57137	0.99044
3378.51756	0.99056
3376.46375	0.99057
3374.40994	0.99043
3372.35613	0.99041
3370.30232	0.99052
3368.24851	0.99059
3366.19470	0.99054
3364.14089	0.99052
3362.08708	0.99066
3360.03327	0.99071
3357.97946	0.99053
3355.92565	0.99029
3353.87184	0.99013
3351.81803	0.99018
3349.76422	0.99048
3347.71041	0.99081
3345.65660	0.99082
3343.60279	0.99061
3341.54898	0.99062
3339.49517	0.99087
3337.44136	0.99103
3335.38755	0.99091
3333.33374	0.99057
3331.27993	0.99016
3329.22612	0.98997
3327.17231	0.99026
3325.11850	0.99088
3323.06469	0.99129
3321.01088	0.99134
3318.95707	0.99113
3316.90326	0.99068
3314.84945	0.99051
3312.79564	0.99078
3310.74183	0.99108
3308.68802	0.99112
3306.63421	0.99094
3304.58040	0.99081
3302.52659	0.99085
3300.47278	0.99081
3298.41897	0.99049
3296.36516	0.99040
3294.31135	0.99073
3292.25754	0.99091
3290.20373	0.99067
3288.14992	0.99029
3286.09611	0.99020
3284.04230	0.99066
3281.98849	0.99109
3279.93468	0.99091
3277.88087	0.99049
3275.82706	0.99034
3273.77325	0.99064
3271.71944	0.99103
3269.66563	0.99117
3267.61182	0.99121
3265.55801	0.99119
3263.50420	0.99097
3261.45039	0.99069
3259.39658	0.99079
3257.34277	0.99111
3255.28896	0.99099
3253.23515	0.99077
3251.18134	0.99099
3249.12753	0.99134
3247.07372	0.99151
3245.01991	0.99149
3242.96610	0.99120
3240.91229	0.99068
3238.85848	0.99041
3236.80467	0.99050
3234.75086	0.99062
3232.69705	0.99082
3230.64324	0.99114
3228.58943	0.99118
3226.53562	0.99095
3224.48181	0.99098
3222.42800	0.99112
3220.37419	0.99092
3218.32038	0.99058
3216.26657	0.99054
3214.21276	0.99069
3212.15895	0.99060
3210.10514	0.99038
3208.05133	0.99040
3205.99752	0.99057
3203.94371	0.99068
3201.88990	0.99057
3199.83609	0.99028
3197.78228	0.99005
3195.72847	0.99023
3193.67466	0.99056
3191.62085	0.99049
3189.56704	0.99016
3187.51323	0.98998
3185.45942	0.98995
3183.40561	0.98998
3181.35180	0.99014
3179.29799	0.99040
3177.24418	0.99046
3175.19037	0.99016
3173.13656	0.98992
3171.08275	0.99010
3169.02894	0.99045
3166.97513	0.99060
3164.92132	0.99045
3162.86751	0.99025
3160.81370	0.99022
3158.75989	0.99017
3156.70608	0.99002
3154.65227	0.98978
3152.59846	0.98942
3150.54465	0.98926
3148.49084	0.98953
3146.43703	0.98982
3144.38322	0.98992
3142.32941	0.98993
3140.27560	0.98986
3138.22179	0.98974
3136.16798	0.98977
3134.11417	0.98997
3132.06036	0.99001
3130.00655	0.98997
3127.95274	0.99012
3125.89893	0.99031
3123.84512	0.99027
3121.79131	0.98991
3119.73750	0.98951
3117.68369	0.98953
3115.62988	0.98965
3113.57607	0.98946
3111.52226	0.98924
3109.46845	0.98901
3107.41464	0.98888
3105.36083	0.98903
3103.30702	0.98896
3101.25321	0.98839
3099.19940	0.98796
3097.14559	0.98801
3095.09177	0.98809
3093.03796	0.98777
3090.98415	0.98725
3088.93034	0.98692
3086.87653	0.98665
3084.82272	0.98644
3082.76891	0.98652
3080.71510	0.98665
3078.66129	0.98661
3076.60748	0.98660
3074.55367	0.98677
3072.49986	0.98694
3070.44605	0.98695
3068.39224	0.98683
3066.33843	0.98671
3064.28462	0.98659
3062.23081	0.98651
3060.17700	0.98634
3058.12319	0.98594
3056.06938	0.98555
3054.01557	0.98525
3051.96176	0.98494
3049.90795	0.98476
3047.85414	0.98469
3045.80033	0.98448
3043.74652	0.98416
3041.69271	0.98402
3039.63890	0.98405
3037.58509	0.98392
3035.53128	0.98372
3033.47747	0.98364
3031.42366	0.98338
3029.36985	0.98294
3027.31604	0.98272
3025.26223	0.98271
3023.20842	0.98276
3021.15461	0.98270
3019.10080	0.98240
3017.04699	0.98200
3014.99318	0.98183
3012.93937	0.98191
3010.88556	0.98185
3008.83175	0.98157
3006.77794	0.98123
3004.72413	0.98096
3002.67032	0.98083
3000.61651	0.98063
2998.56270	0.98025
2996.50889	0.97970
2994.45508	0.97883
2992.40127	0.97789
2990.34746	0.97716
2988.29365	0.97638
2986.23984	0.97542
2984.18603	0.97440
2982.13222	0.97294
2980.07841	0.97085
2978.02460	0.96866
2975.97079	0.96646
2973.91698	0.96385
2971.86317	0.96071
2969.80936	0.95718
2967.75555	0.95353
2965.70174	0.95000
2963.64793	0.94665
2961.59412	0.94349
2959.54031	0.94064
2957.48650	0.93814
2955.43269	0.93578
2953.37888	0.93298
2951.32507	0.92916
2949.27126	0.92388
2947.21745	0.91663
2945.16364	0.90685
2943.10983	0.89407
2941.05602	0.87832
2939.00221	0.85994
2936.94840	0.83892
2934.89459	0.81499
2932.84078	0.78795
2930.78697	0.75737
2928.73316	0.72239
2926.67935	0.68175
2924.62554	0.63412
2922.57173	0.57928
2920.51792	0.52036
2918.46411	0.46546
2916.41030	0.42642
2914.35649	0.41349
2912.30268	0.42849
2910.24887	0.46330
2908.19506	0.50574
2906.14125	0.54656
2904.08744	0.58136
2902.03363	0.60950
2899.97982	0.63258
2897.92601	0.65272
2895.87220	0.67140
2893.81839	0.68942
2891.76458	0.70747
2889.71077	0.72602
2887.65696	0.74497
2885.60315	0.76382
2883.54934	0.78218
2881.49553	0.80004
2879.44172	0.81735
2877.38791	0.83325
2875.33410	0.84644
2873.28029	0.85618
2871.22648	0.86228
2869.17267	0.86458
2867.11886	0.86259
2865.06505	0.85541
2863.01124	0.84179
2860.95743	0.82023
2858.90362	0.78831
2856.84981	0.74234
2854.79600	0.67826
2852.74219	0.59529
2850.68838	0.50693
2848.63457	0.44662
2846.58076	0.44425
2844.52695	0.49713
2842.47314	0.57697
2840.41933	0.65686
2838.36552	0.72362
2836.31171	0.77500
2834.25790	0.81329
2832.20409	0.84168
2830.15028	0.86313
2828.09647	0.87975
2826.04266	0.89314
2823.98885	0.90407
2821.93504	0.91279
2819.88123	0.91987
2817.82742	0.92584
2815.77361	0.93089
2813.71980	0.93521
2811.66599	0.93905
2809.61218	0.94247
2807.55837	0.94548
2805.50456	0.94809
2803.45075	0.95042
2801.39693	0.95249
2799.34312	0.95443
2797.28931	0.95648
2795.23550	0.95852
2793.18169	0.96025
2791.12788	0.96180
2789.07407	0.96342
2787.02026	0.96502
2784.96645	0.96641
2782.91264	0.96757
2780.85883	0.96854
2778.80502	0.96947
2776.75121	0.97038
2774.69740	0.97112
2772.64359	0.97180
2770.58978	0.97260
2768.53597	0.97335
2766.48216	0.97396
2764.42835	0.97439
2762.37454	0.97462
2760.32073	0.97491
2758.26692	0.97522
2756.21311	0.97546
2754.15930	0.97572
2752.10549	0.97595
2750.05168	0.97622
2747.99787	0.97645
2745.94406	0.97652
2743.89025	0.97653
2741.83644	0.97654
2739.78263	0.97665
2737.72882	0.97677
2735.67501	0.97677
2733.62120	0.97681
2731.56739	0.97717
2729.51358	0.97771
2727.45977	0.97809
2725.40596	0.97826
2723.35215	0.97841
2721.29834	0.97844
2719.24453	0.97850
2717.19072	0.97883
2715.13691	0.97927
2713.08310	0.97955
2711.02929	0.97950
2708.97548	0.97936
2706.92167	0.97963
2704.86786	0.98016
2702.81405	0.98039
2700.76024	0.98036
2698.70643	0.98037
2696.65262	0.98039
2694.59881	0.98033
2692.54500	0.98020
2690.49119	0.98013
2688.43738	0.98027
2686.38357	0.98053
2684.32976	0.98079
2682.27595	0.98090
2680.22214	0.98070
2678.16833	0.98044
2676.11452	0.98023
2674.06071	0.98001
2672.00690	0.97980
2669.95309	0.97964
2667.89928	0.97942
2665.84547	0.97912
2663.79166	0.97876
2661.73785	0.97852
2659.68404	0.97857
2657.63023	0.97864
2655.57642	0.97861
2653.52261	0.97868
2651.46880	0.97878
2649.41499	0.97887
2647.36118	0.97900
2645.30737	0.97918
2643.25356	0.97943
2641.19975	0.97941
2639.14594	0.97904
2637.09213	0.97879
2635.03832	0.97887
2632.98451	0.97906
2630.93070	0.97926
2628.87689	0.97950
2626.82308	0.97981
2624.76927	0.98027
2622.71546	0.98078
2620.66165	0.98113
2618.60784	0.98152
2616.55403	0.98212
2614.50022	0.98262
2612.44641	0.98280
2610.39260	0.98294
2608.33879	0.98342
2606.28498	0.98395
2604.23117	0.98400
2602.17736	0.98374
2600.12355	0.98370
2598.06974	0.98399
2596.01593	0.98436
2593.96212	0.98479
2591.90831	0.98535
2589.85450	0.98570
2587.80069	0.98555
2585.74688	0.98539
2583.69307	0.98546
2581.63926	0.98551
2579.58545	0.98576
2577.53164	0.98626
2575.47783	0.98672
2573.42402	0.98704
2571.37021	0.98723
2569.31640	0.98732
2567.26259	0.98735
2565.20878	0.98721
2563.15497	0.98695
2561.10116	0.98687
2559.04735	0.98713
2556.99354	0.98758
2554.93973	0.98804
2552.88592	0.98836
2550.83211	0.98852
2548.77830	0.98860
2546.72449	0.98878
2544.67068	0.98901
2542.61687	0.98898
2540.56306	0.98877
2538.50925	0.98851
2536.45544	0.98839
2534.40163	0.98885
2532.34782	0.98929
2530.29401	0.98910
2528.24020	0.98882
2526.18639	0.98895
2524.13258	0.98924
2522.07877	0.98932
2520.02496	0.98929
2517.97115	0.98934
2515.91734	0.98955
2513.86353	0.98985
2511.80972	0.99012
2509.75591	0.99028
2507.70210	0.99011
2505.64828	0.98981
2503.59447	0.98999
2501.54066	0.99020
2499.48685	0.99020
2497.43304	0.99053
2495.37923	0.99082
2493.32542	0.99082
2491.27161	0.99085
2489.21780	0.99099
2487.16399	0.99140
2485.11018	0.99184
2483.05637	0.99183
2481.00256	0.99144
2478.94875	0.99114
2476.89494	0.99109
2474.84113	0.99092
2472.78732	0.99079
2470.73351	0.99119
2468.67970	0.99174
2466.62589	0.99176
2464.57208	0.99119
2462.51827	0.99066
2460.46446	0.99080
2458.41065	0.99131
2456.35684	0.99150
2454.30303	0.99149
2452.24922	0.99152
2450.19541	0.99143
2448.14160	0.99135
2446.08779	0.99143
2444.03398	0.99155
2441.98017	0.99175
2439.92636	0.99187
2437.87255	0.99155
2435.81874	0.99108
2433.76493	0.99081
2431.71112	0.99087
2429.65731	0.99151
2427.60350	0.99208
2425.54969	0.99191
2423.49588	0.99169
2421.44207	0.99193
2419.38826	0.99189
2417.33445	0.99120
2415.28064	0.99079
2413.22683	0.99127
2411.17302	0.99206
2409.11921	0.99234
2407.06540	0.99223
2405.01159	0.99221
2402.95778	0.99212
2400.90397	0.99197
2398.85016	0.99193
2396.79635	0.99194
2394.74254	0.99190
2392.68873	0.99186
2390.63492	0.99208
2388.58111	0.99238
2386.52730	0.99235
2384.47349	0.99217
2382.41968	0.99207
2380.36587	0.99189
2378.31206	0.99179
2376.25825	0.99165
2374.20444	0.99134
2372.15063	0.99151
2370.09682	0.99219
2368.04301	0.99227
2365.98920	0.99165
2363.93539	0.99179
2361.88158	0.99244
2359.82777	0.99266
2357.77396	0.99288
2355.72015	0.99242
2353.66634	0.99109
2351.61253	0.99048
2349.55872	0.99047
2347.50491	0.98991
2345.45110	0.98909
2343.39729	0.98894
2341.34348	0.98920
2339.28967	0.98941
2337.23586	0.98967
2335.18205	0.98974
2333.12824	0.98954
2331.07443	0.98929
2329.02062	0.98892
2326.96681	0.98840
2324.91300	0.98789
2322.85919	0.98771
2320.80538	0.98826
2318.75157	0.98910
2316.69776	0.98966
2314.64395	0.99005
2312.59014	0.99040
2310.53633	0.99026
2308.48252	0.98994
2306.42871	0.99021
2304.37490	0.99073
2302.32109	0.99085
2300.26728	0.99074
2298.21347	0.99094
2296.15966	0.99129
2294.10585	0.99100
2292.05204	0.99017
2289.99823	0.98997
2287.94442	0.99048
2285.89061	0.99060
2283.83680	0.98997
2281.78299	0.98946
2279.72918	0.98985
2277.67537	0.99050
2275.62156	0.99087
2273.56775	0.99125
2271.51394	0.99156
2269.46013	0.99184
2267.40632	0.99245
2265.35251	0.99281
2263.29870	0.99243
2261.24489	0.99204
2259.19108	0.99207
2257.13727	0.99203
2255.08346	0.99192
2253.02965	0.99227
2250.97584	0.99267
2248.92203	0.99265
2246.86822	0.99235
2244.81441	0.99193
2242.76060	0.99235
2240.70679	0.99355
2238.65298	0.99368
2236.59917	0.99232
2234.54536	0.99114
2232.49155	0.99097
2230.43774	0.99178
2228.38393	0.99291
2226.33012	0.99300
2224.27631	0.99258
2222.22250	0.99244
2220.16869	0.99200
2218.11488	0.99184
2216.06107	0.99281
2214.00726	0.99355
2211.95344	0.99287
2209.89963	0.99241
2207.84582	0.99298
2205.79201	0.99376
2203.73820	0.99444
2201.68439	0.99478
2199.63058	0.99466
2197.57677	0.99389
2195.52296	0.99268
2193.46915	0.99178
2191.41534	0.99129
2189.36153	0.99177
2187.30772	0.99301
2185.25391	0.99359
2183.20010	0.99358
2181.14629	0.99303
2179.09248	0.99248
2177.03867	0.99308
2174.98486	0.99424
2172.93105	0.99523
2170.87724	0.99614
2168.82343	0.99590
2166.76962	0.99428
2164.71581	0.99319
2162.66200	0.99257
2160.60819	0.99304
2158.55438	0.99604
2156.50057	0.99803
2154.44676	0.99821
2152.39295	0.99835
2150.33914	0.99814
2148.28533	0.99773
2146.23152	0.99706
2144.17771	0.99565
2142.12390	0.99424
2140.07009	0.99379
2138.01628	0.99403
2135.96247	0.99443
2133.90866	0.99535
2131.85485	0.99635
2129.80104	0.99619
2127.74723	0.99501
2125.69342	0.99405
2123.63961	0.99406
2121.58580	0.99451
2119.53199	0.99452
2117.47818	0.99411
2115.42437	0.99345
2113.37056	0.99276
2111.31675	0.99227
2109.26294	0.99210
2107.20913	0.99238
2105.15532	0.99289
2103.10151	0.99320
2101.04770	0.99378
2098.99389	0.99473
2096.94008	0.99486
2094.88627	0.99448
2092.83246	0.99442
2090.77865	0.99455
2088.72484	0.99474
2086.67103	0.99413
2084.61722	0.99308
2082.56341	0.99288
2080.50960	0.99301
2078.45579	0.99282
2076.40198	0.99279
2074.34817	0.99279
2072.29436	0.99273
2070.24055	0.99286
2068.18674	0.99265
2066.13293	0.99251
2064.07912	0.99326
2062.02531	0.99394
2059.97150	0.99389
2057.91769	0.99378
2055.86388	0.99384
2053.81007	0.99358
2051.75626	0.99313
2049.70245	0.99336
2047.64864	0.99377
2045.59483	0.99326
2043.54102	0.99311
2041.48721	0.99408
2039.43340	0.99440
2037.37959	0.99291
2035.32578	0.99131
2033.27197	0.99149
2031.21816	0.99268
2029.16435	0.99379
2027.11054	0.99451
2025.05673	0.99502
2023.00292	0.99486
2020.94911	0.99370
2018.89530	0.99343
2016.84149	0.99429
2014.78768	0.99532
2012.73387	0.99656
2010.68006	0.99669
2008.62625	0.99514
2006.57244	0.99489
2004.51863	0.99656
2002.46482	0.99714
2000.41101	0.99650
1998.35720	0.99591
1996.30339	0.99546
1994.24958	0.99527
1992.19577	0.99465
1990.14196	0.99352
1988.08815	0.99279
1986.03434	0.99172
1983.98053	0.99099
1981.92672	0.99221
1979.87291	0.99425
1977.81910	0.99534
1975.76529	0.99541
1973.71148	0.99507
1971.65767	0.99474
1969.60386	0.99514
1967.55005	0.99607
1965.49624	0.99638
1963.44243	0.99548
1961.38862	0.99451
1959.33481	0.99459
1957.28100	0.99478
1955.22719	0.99464
1953.17338	0.99467
1951.11957	0.99388
1949.06576	0.99221
1947.01195	0.99209
1944.95814	0.99347
1942.90433	0.99364
1940.85052	0.99246
1938.79671	0.99209
1936.74290	0.99267
1934.68909	0.99346
1932.63528	0.99442
1930.58147	0.99527
1928.52766	0.99534
1926.47385	0.99450
1924.42004	0.99356
1922.36623	0.99330
1920.31242	0.99360
1918.25861	0.99378
1916.20479	0.99372
1914.15098	0.99390
1912.09717	0.99407
1910.04336	0.99365
1907.98955	0.99282
1905.93574	0.99212
1903.88193	0.99178
1901.82812	0.99167
1899.77431	0.99176
1897.72050	0.99228
1895.66669	0.99275
1893.61288	0.99279
1891.55907	0.99311
1889.50526	0.99377
1887.45145	0.99388
1885.39764	0.99367
1883.34383	0.99364
1881.29002	0.99360
1879.23621	0.99348
1877.18240	0.99318
1875.12859	0.99276
1873.07478	0.99256
1871.02097	0.99243
1868.96716	0.99222
1866.91335	0.99226
1864.85954	0.99247
1862.80573	0.99258
1860.75192	0.99259
1858.69811	0.99241
1856.64430	0.99223
1854.59049	0.99246
1852.53668	0.99274
1850.48287	0.99280
1848.42906	0.99285
1846.37525	0.99296
1844.32144	0.99306
1842.26763	0.99312
1840.21382	0.99302
1838.16001	0.99280
1836.10620	0.99250
1834.05239	0.99227
1831.99858	0.99212
1829.94477	0.99183
1827.89096	0.99160
1825.83715	0.99170
1823.78334	0.99177
1821.72953	0.99166
1819.67572	0.99178
1817.62191	0.99208
1815.56810	0.99199
1813.51429	0.99133
1811.46048	0.99055
1809.40667	0.99019
1807.35286	0.99026
1805.29905	0.99043
1803.24524	0.99043
1801.19143	0.99001
1799.13762	0.98922
1797.08381	0.98855
1795.03000	0.98806
1792.97619	0.98729
1790.92238	0.98629
1788.86857	0.98548
1786.81476	0.98468
1784.76095	0.98373
1782.70714	0.98297
1780.65333	0.98269
1778.59952	0.98272
1776.54571	0.98268
1774.49190	0.98247
1772.43809	0.98224
1770.38428	0.98205
1768.33047	0.98183
1766.27666	0.98170
1764.22285	0.98169
1762.16904	0.98145
1760.11523	0.98084
1758.06142	0.98018
1756.00761	0.97953
1753.95380	0.97869
1751.89999	0.97738
1749.84618	0.97540
1747.79237	0.97334
1745.73856	0.97149
1743.68475	0.96936
1741.63094	0.96675
1739.57713	0.96420
1737.52332	0.96267
1735.46951	0.96174
1733.41570	0.96073
1731.36189	0.95951
1729.30808	0.95720
1727.25427	0.95282
1725.20046	0.94623
1723.14665	0.93852
1721.09284	0.93220
1719.03903	0.92707
1716.98522	0.92130
1714.93141	0.91710
1712.87760	0.91636
1710.82379	0.91875
1708.76998	0.92356
1706.71617	0.93026
1704.66236	0.93766
1702.60855	0.94372
1700.55474	0.94971
1698.50093	0.95541
1696.44712	0.96038
1694.39331	0.96560
1692.33950	0.96929
1690.28569	0.97206
1688.23188	0.97444
1686.17807	0.97625
1684.12426	0.97826
1682.07045	0.97994
1680.01664	0.98081
1677.96283	0.98161
1675.90902	0.98260
1673.85521	0.98359
1671.80140	0.98418
1669.74759	0.98446
1667.69378	0.98460
1665.63997	0.98473
1663.58616	0.98515
1661.53235	0.98568
1659.47854	0.98590
1657.42473	0.98590
1655.37092	0.98587
1653.31711	0.98579
1651.26330	0.98567
1649.20949	0.98566
1647.15568	0.98589
1645.10187	0.98621
1643.04806	0.98626
1640.99425	0.98621
1638.94044	0.98607
1636.88663	0.98592
1634.83282	0.98597
1632.77901	0.98598
1630.72520	0.98588
1628.67139	0.98592
1626.61758	0.98600
1624.56377	0.98601
1622.50996	0.98593
1620.45614	0.98584
1618.40233	0.98587
1616.34852	0.98603
1614.29471	0.98626
1612.24090	0.98643
1610.18709	0.98642
1608.13328	0.98630
1606.07947	0.98623
1604.02566	0.98622
1601.97185	0.98628
1599.91804	0.98635
1597.86423	0.98644
1595.81042	0.98666
1593.75661	0.98688
1591.70280	0.98707
1589.64899	0.98718
1587.59518	0.98711
1585.54137	0.98689
1583.48756	0.98685
1581.43375	0.98705
1579.37994	0.98726
1577.32613	0.98731
1575.27232	0.98726
1573.21851	0.98730
1571.16470	0.98745
1569.11089	0.98775
1567.05708	0.98787
1565.00327	0.98774
1562.94946	0.98766
1560.89565	0.98764
1558.84184	0.98768
1556.78803	0.98800
1554.73422	0.98831
1552.68041	0.98838
1550.62660	0.98828
1548.57279	0.98805
1546.51898	0.98777
1544.46517	0.98751
1542.41136	0.98720
1540.35755	0.98705
1538.30374	0.98728
1536.24993	0.98729
1534.19612	0.98728
1532.14231	0.98754
1530.08850	0.98769
1528.03469	0.98758
1525.98088	0.98720
1523.92707	0.98691
1521.87326	0.98700
1519.81945	0.98716
1517.76564	0.98700
1515.71183	0.98668
1513.65802	0.98638
1511.60421	0.98603
1509.55040	0.98561
1507.49659	0.98525
1505.44278	0.98500
1503.38897	0.98455
1501.33516	0.98398
1499.28135	0.98331
1497.22754	0.98249
1495.17373	0.98174
1493.11992	0.98118
1491.06611	0.98031
1489.01230	0.97885
1486.95849	0.97697
1484.90468	0.97462
1482.85087	0.97094
1480.79706	0.96420
1478.74325	0.94935
1476.68944	0.91140
1474.63563	0.84005
1472.58182	0.77517
1470.52801	0.77227
1468.47420	0.79487
1466.42039	0.79970
1464.36658	0.78279
1462.31277	0.78001
1460.25896	0.80923
1458.20515	0.85408
1456.15134	0.89067
1454.09753	0.90881
1452.04372	0.92045
1449.98991	0.92976
1447.93610	0.93623
1445.88229	0.94016
1443.82848	0.94274
1441.77467	0.94508
1439.72086	0.94736
1437.66705	0.94975
1435.61324	0.95238
1433.55943	0.95499
1431.50562	0.95784
1429.45181	0.96078
1427.39800	0.96309
1425.34419	0.96465
1423.29038	0.96573
1421.23657	0.96615
1419.18276	0.96593
1417.12895	0.96526
1415.07514	0.96434
1413.02133	0.96333
1410.96752	0.96284
1408.91371	0.96338
1406.85990	0.96471
1404.80609	0.96644
1402.75228	0.96815
1400.69847	0.96965
1398.64466	0.97111
1396.59085	0.97229
1394.53704	0.97294
1392.48323	0.97316
1390.42942	0.97296
1388.37561	0.97227
1386.32180	0.97084
1384.26799	0.96820
1382.21418	0.96410
1380.16037	0.95970
1378.10656	0.95731
1376.05275	0.95744
1373.99894	0.95820
1371.94513	0.95814
1369.89132	0.95779
1367.83751	0.95798
1365.78370	0.95886
1363.72989	0.96014
1361.67608	0.96138
1359.62227	0.96216
1357.56846	0.96259
1355.51465	0.96294
1353.46084	0.96335
1351.40703	0.96392
1349.35322	0.96460
1347.29941	0.96531
1345.24560	0.96629
1343.19179	0.96756
1341.13798	0.96880
1339.08417	0.97002
1337.03036	0.97103
1334.97655	0.97157
1332.92274	0.97179
1330.86893	0.97177
1328.81512	0.97147
1326.76130	0.97093
1324.70749	0.97034
1322.65368	0.96989
1320.59987	0.96946
1318.54606	0.96879
1316.49225	0.96801
1314.43844	0.96715
1312.38463	0.96622
1310.33082	0.96547
1308.27701	0.96487
1306.22320	0.96417
1304.16939	0.96350
1302.11558	0.96314
1300.06177	0.96296
1298.00796	0.96268
1295.95415	0.96244
1293.90034	0.96260
1291.84653	0.96303
1289.79272	0.96331
1287.73891	0.96338
1285.68510	0.96352
1283.63129	0.96385
1281.57748	0.96413
1279.52367	0.96428
1277.46986	0.96435
1275.41605	0.96438
1273.36224	0.96450
1271.30843	0.96471
1269.25462	0.96492
1267.20081	0.96512
1265.14700	0.96543
1263.09319	0.96578
1261.03938	0.96595
1258.98557	0.96594
1256.93176	0.96582
1254.87795	0.96549
1252.82414	0.96512
1250.77033	0.96492
1248.71652	0.96485
1246.66271	0.96482
1244.60890	0.96480
1242.55509	0.96469
1240.50128	0.96449
1238.44747	0.96423
1236.39366	0.96401
1234.33985	0.96395
1232.28604	0.96410
1230.23223	0.96423
1228.17842	0.96422
1226.12461	0.96427
1224.07080	0.96427
1222.01699	0.96407
1219.96318	0.96388
1217.90937	0.96372
1215.85556	0.96341
1213.80175	0.96307
1211.74794	0.96290
1209.69413	0.96292
1207.64032	0.96293
1205.58651	0.96292
1203.53270	0.96293
1201.47889	0.96267
1199.42508	0.96234
1197.37127	0.96220
1195.31746	0.96201
1193.26365	0.96165
1191.20984	0.96137
1189.15603	0.96118
1187.10222	0.96095
1185.04841	0.96073
1182.99460	0.96056
1180.94079	0.96027
1178.88698	0.95989
1176.83317	0.95952
1174.77936	0.95909
1172.72555	0.95881
1170.67174	0.95902
1168.61793	0.95941
1166.56412	0.95953
1164.51031	0.95968
1162.45650	0.96020
1160.40269	0.96083
1158.34888	0.96140
1156.29507	0.96205
1154.24126	0.96282
1152.18745	0.96369
1150.13364	0.96436
1148.07983	0.96467
1146.02602	0.96491
1143.97221	0.96537
1141.91840	0.96595
1139.86459	0.96640
1137.81078	0.96659
1135.75697	0.96640
1133.70316	0.96615
1131.64935	0.96625
1129.59554	0.96644
1127.54173	0.96658
1125.48792	0.96685
1123.43411	0.96717
1121.38030	0.96719
1119.32649	0.96679
1117.27268	0.96633
1115.21887	0.96609
1113.16506	0.96599
1111.11125	0.96592
1109.05744	0.96586
1107.00363	0.96591
1104.94982	0.96610
1102.89601	0.96636
1100.84220	0.96665
1098.78839	0.96683
1096.73458	0.96682
1094.68077	0.96700
1092.62696	0.96743
1090.57315	0.96777
1088.51934	0.96779
1086.46553	0.96752
1084.41172	0.96712
1082.35791	0.96697
1080.30410	0.96725
1078.25029	0.96738
1076.19648	0.96724
1074.14267	0.96730
1072.08886	0.96762
1070.03505	0.96788
1067.98124	0.96786
1065.92743	0.96773
1063.87362	0.96761
1061.81981	0.96742
1059.76600	0.96743
1057.71219	0.96775
1055.65838	0.96794
1053.60457	0.96804
1051.55076	0.96816
1049.49695	0.96821
1047.44314	0.96841
1045.38933	0.96873
1043.33552	0.96893
1041.28171	0.96899
1039.22790	0.96906
1037.17409	0.96926
1035.12028	0.96960
1033.06647	0.96982
1031.01265	0.96964
1028.95884	0.96939
1026.90503	0.96951
1024.85122	0.96966
1022.79741	0.96959
1020.74360	0.96962
1018.68979	0.96981
1016.63598	0.97005
1014.58217	0.97030
1012.52836	0.97025
1010.47455	0.96990
1008.42074	0.96982
1006.36693	0.97028
1004.31312	0.97085
1002.25931	0.97103
1000.20550	0.97076
998.15169	0.97040
996.09788	0.97031
994.04407	0.97066
991.99026	0.97109
989.93645	0.97109
987.88264	0.97076
985.82883	0.97050
983.77502	0.97032
981.72121	0.97016
979.66740	0.96987
977.61359	0.96952
975.55978	0.96938
973.50597	0.96935
971.45216	0.96910
969.39835	0.96861
967.34454	0.96799
965.29073	0.96731
963.23692	0.96679
961.18311	0.96655
959.12930	0.96642
957.07549	0.96632
955.02168	0.96625
952.96787	0.96621
950.91406	0.96614
948.86025	0.96613
946.80644	0.96632
944.75263	0.96649
942.69882	0.96638
940.64501	0.96623
938.59120	0.96629
936.53739	0.96649
934.48358	0.96680
932.42977	0.96713
930.37596	0.96747
928.32215	0.96784
926.26834	0.96820
924.21453	0.96848
922.16072	0.96876
920.10691	0.96908
918.05310	0.96939
915.99929	0.96961
913.94548	0.96961
911.89167	0.96948
909.83786	0.96963
907.78405	0.97017
905.73024	0.97065
903.67643	0.97091
901.62262	0.97112
899.56881	0.97127
897.51500	0.97159
895.46119	0.97219
893.40738	0.97279
891.35357	0.97303
889.29976	0.97302
887.24595	0.97319
885.19214	0.97321
883.13833	0.97301
881.08452	0.97335
879.03071	0.97394
876.97690	0.97385
874.92309	0.97343
872.86928	0.97346
870.81547	0.97398
868.76166	0.97439
866.70785	0.97429
864.65404	0.97431
862.60023	0.97476
860.54642	0.97500
858.49261	0.97485
856.43880	0.97472
854.38499	0.97475
852.33118	0.97473
850.27737	0.97472
848.22356	0.97491
846.16975	0.97530
844.11594	0.97563
842.06213	0.97594
840.00832	0.97638
837.95451	0.97643
835.90070	0.97591
833.84689	0.97534
831.79308	0.97496
829.73927	0.97489
827.68546	0.97495
825.63165	0.97476
823.57784	0.97470
821.52403	0.97502
819.47022	0.97516
817.41641	0.97498
815.36260	0.97489
813.30879	0.97479
811.25498	0.97431
809.20117	0.97416
807.14736	0.97471
805.09355	0.97514
803.03974	0.97521
800.98593	0.97488
798.93212	0.97412
796.87831	0.97338
794.82450	0.97298
792.77069	0.97286
790.71688	0.97285
788.66307	0.97291
786.60926	0.97279
784.55545	0.97229
782.50164	0.97150
780.44783	0.97081
778.39402	0.97056
776.34021	0.97044
774.28640	0.97007
772.23259	0.96962
770.17878	0.96949
768.12497	0.96990
766.07116	0.97059
764.01735	0.97097
761.96354	0.97078
759.90973	0.97046
757.85592	0.97035
755.80211	0.97024
753.74830	0.97018
751.69449	0.97002
749.64068	0.96923
747.58687	0.96807
745.53306	0.96670
743.47925	0.96470
741.42544	0.96190
739.37163	0.95787
737.31781	0.94988
735.26400	0.92957
733.21019	0.88674
731.15638	0.83705
729.10257	0.82024
727.04876	0.83695
724.99495	0.84550
722.94114	0.81897
720.88733	0.76534
718.83352	0.72811
716.77971	0.74470
714.72590	0.80190
712.67209	0.86210
710.61828	0.90225
708.56447	0.92397
706.51066	0.93649
704.45685	0.94455
702.40304	0.94960
700.34923	0.95269
698.29542	0.95510
696.24161	0.95733
694.18780	0.95914
692.13399	0.96025
690.08018	0.96085
688.02637	0.96110
685.97256	0.96122
683.91875	0.96164
681.86494	0.96222
679.81113	0.96246
677.75732	0.96253
675.70351	0.96286
673.64970	0.96280
671.59589	0.96214
669.54208	0.96170
667.48827	0.96225
665.43446	0.96310
663.38065	0.96333
661.32684	0.96322
659.27303	0.96344
657.21922	0.96399
655.16541	0.96457
653.11160	0.96481
651.05779	0.96421
649.00398	0.96336
646.95017	0.96286
644.89636	0.96284
642.84255	0.96341
640.78874	0.96398
638.73493	0.96418
636.68112	0.96418
634.62731	0.96433
632.57350	0.96482
630.51969	0.96548
628.46588	0.96592
626.41207	0.96569
624.35826	0.96498
622.30445	0.96403
620.25064	0.96307
618.19683	0.96303
616.14302	0.96415
614.08921	0.96529
612.03540	0.96573
609.98159	0.96616
607.92778	0.96666
605.87397	0.96606
603.82016	0.96474
601.76635	0.96405
599.71254	0.96392
597.65873	0.96451
595.60492	0.96585
593.55111	0.96650
591.49730	0.96587
589.44349	0.96546
587.38968	0.96631
585.33587	0.96664
583.28206	0.96551
581.22825	0.96463
579.17444	0.96445
577.12063	0.96442
575.06682	0.96454
573.01301	0.96451
570.95920	0.96433
568.90539	0.96495
566.85158	0.96637
564.79777	0.96693
562.74396	0.96639
560.69015	0.96557
558.63634	0.96463
556.58253	0.96357
554.52872	0.96246
552.47491	0.96221
550.42110	0.96280
548.36729	0.96274
546.31348	0.96258
544.25967	0.96329
542.20586	0.96391
540.15205	0.96412
538.09824	0.96433
536.04443	0.96474
533.99062	0.96482
531.93681	0.96407
529.88300	0.96326
527.82919	0.96303
525.77538	0.96357
523.72157	0.96511
521.66776	0.96690
519.61395	0.96759
517.56014	0.96683
515.50633	0.96579
513.45252	0.96539
511.39871	0.96516
509.34490	0.96493
507.29109	0.96491
505.23728	0.96476
503.18347	0.96499
501.12966	0.96565
499.07585	0.96590
497.02204	0.96677
494.96823	0.96822
492.91442	0.96717
490.86061	0.96415
488.80680	0.96300
486.75299	0.96333
484.69918	0.96306
482.64537	0.96308
480.59156	0.96406
478.53775	0.96543
476.48394	0.96697
474.43013	0.96699
472.37632	0.96544
470.32251	0.96498
468.26870	0.96536
466.21489	0.96522
464.16108	0.96484
462.10727	0.96494
460.05346	0.96558
457.99965	0.96617
455.94584	0.96684
453.89203	0.96754
451.83822	0.96725
449.78441	0.96623
447.73060	0.96505
445.67679	0.96393
443.62298	0.96411
441.56916	0.96585
439.51535	0.96761
437.46154	0.96691
435.40773	0.96352
433.35392	0.96205
431.30011	0.96433
429.24630	0.96597
427.19249	0.96601
425.13868	0.96754
423.08487	0.96877
421.03106	0.96597
418.97725	0.96169
416.92344	0.96158
414.86963	0.96345
412.81582	0.96411
410.76201	0.96302
408.70820	0.96222
406.65439	0.96367
404.60058	0.96650
402.54677	0.96857
400.49296	0.97042
398.43915	0.97327
