3996.70104	0.98893
3994.64724	0.98963
3992.59344	0.98946
3990.53964	0.98872
3988.48583	0.98829
3986.43203	0.98826
3984.37823	0.98843
3982.32442	0.98878
3980.27062	0.98934
3978.21682	0.98966
3976.16301	0.98936
3974.10921	0.98900
3972.05541	0.98922
3970.00160	0.98963
3967.94780	0.98974
3965.89400	0.98942
3963.84019	0.98889
3961.78639	0.98891
3959.73259	0.98939
3957.67878	0.98949
3955.62498	0.98931
3953.57118	0.98912
3951.51737	0.98898
3949.46357	0.98892
3947.40977	0.98894
3945.35596	0.98914
3943.30216	0.98922
3941.24836	0.98885
3939.19455	0.98843
3937.14075	0.98835
3935.08695	0.98845
3933.03315	0.98865
3930.97934	0.98907
3928.92554	0.98951
3926.87174	0.98961
3924.81793	0.98945
3922.76413	0.98923
3920.71033	0.98884
3918.65652	0.98883
3916.60272	0.98944
3914.54892	0.98991
3912.49511	0.99010
3910.44131	0.98981
3908.38751	0.98922
3906.33370	0.98922
3904.27990	0.98972
3902.22610	0.99024
3900.17229	0.99050
3898.11849	0.98994
3896.06469	0.98910
3894.01088	0.98846
3891.95708	0.98805
3889.90328	0.98791
3887.84947	0.98774
3885.79567	0.98782
3883.74187	0.98849
3881.68807	0.98914
3879.63426	0.98939
3877.58046	0.98937
3875.52666	0.98918
3873.47285	0.98893
3871.41905	0.98895
3869.36525	0.98934
3867.31144	0.98965
3865.25764	0.98941
3863.20384	0.98882
3861.15003	0.98891
3859.09623	0.98966
3857.04243	0.99002
3854.98862	0.98974
3852.93482	0.99011
3850.88102	0.99075
3848.82721	0.99024
3846.77341	0.98931
3844.71961	0.98897
3842.66580	0.98950
3840.61200	0.99007
3838.55820	0.98984
3836.50439	0.98960
3834.45059	0.99002
3832.39679	0.99006
3830.34298	0.98945
3828.28918	0.98927
3826.23538	0.98946
3824.18158	0.98919
3822.12777	0.98896
3820.07397	0.98913
3818.02017	0.98932
3815.96636	0.98965
3813.91256	0.98975
3811.85876	0.98939
3809.80495	0.98896
3807.75115	0.98890
3805.69735	0.98947
3803.64354	0.99029
3801.58974	0.99108
3799.53594	0.99105
3797.48213	0.99040
3795.42833	0.99014
3793.37453	0.98992
3791.32072	0.98920
3789.26692	0.98859
3787.21312	0.98855
3785.15931	0.98879
3783.10551	0.98898
3781.05171	0.98926
3778.99790	0.98951
3776.94410	0.98939
3774.89030	0.98938
3772.83650	0.98957
3770.78269	0.98955
3768.72889	0.98931
3766.67509	0.98920
3764.62128	0.98924
3762.56748	0.98956
3760.51368	0.99040
3758.45987	0.99093
3756.40607	0.99043
3754.35227	0.98999
3752.29846	0.99006
3750.24466	0.99000
3748.19086	0.98972
3746.13705	0.98929
3744.08325	0.98864
3742.02945	0.98869
3739.97564	0.98969
3737.92184	0.99049
3735.86804	0.99024
3733.81423	0.99037
3731.76043	0.99083
3729.70663	0.99057
3727.65282	0.99038
3725.59902	0.99015
3723.54522	0.98929
3721.49141	0.98869
3719.43761	0.98866
3717.38381	0.98857
3715.33001	0.98872
3713.27620	0.98959
3711.22240	0.99009
3709.16860	0.98888
3707.11479	0.98746
3705.06099	0.98699
3703.00719	0.98724
3700.95338	0.98737
3698.89958	0.98713
3696.84578	0.98654
3694.79197	0.98574
3692.73817	0.98567
3690.68437	0.98632
3688.63056	0.98719
3686.57676	0.98792
3684.52296	0.98790
3682.46915	0.98739
3680.41535	0.98700
3678.36155	0.98727
3676.30774	0.98793
3674.25394	0.98777
3672.20014	0.98750
3670.14633	0.98716
3668.09253	0.98566
3666.03873	0.98418
3663.98492	0.98367
3661.93112	0.98385
3659.87732	0.98390
3657.82352	0.98343
3655.76971	0.98251
3653.71591	0.98182
3651.66211	0.98205
3649.60830	0.98332
3647.55450	0.98390
3645.50070	0.98290
3643.44689	0.98208
3641.39309	0.98192
3639.33929	0.98139
3637.28548	0.98026
3635.23168	0.97951
3633.17788	0.97939
3631.12407	0.97925
3629.07027	0.97833
3627.01647	0.97701
3624.96266	0.97652
3622.90886	0.97641
3620.85506	0.97606
3618.80125	0.97553
3616.74745	0.97533
3614.69365	0.97555
3612.63984	0.97600
3610.58604	0.97643
3608.53224	0.97635
3606.47844	0.97548
3604.42463	0.97449
3602.37083	0.97403
3600.31703	0.97389
3598.26322	0.97334
3596.20942	0.97273
3594.15562	0.97250
3592.10181	0.97225
3590.04801	0.97186
3587.99421	0.97125
3585.94040	0.97070
3583.88660	0.97046
3581.83280	0.96989
3579.77899	0.96912
3577.72519	0.96895
3575.67139	0.96893
3573.61758	0.96849
3571.56378	0.96820
3569.50998	0.96823
3567.45617	0.96799
3565.40237	0.96732
3563.34857	0.96702
3561.29476	0.96678
3559.24096	0.96601
3557.18716	0.96528
3555.13335	0.96500
3553.07955	0.96479
3551.02575	0.96476
3548.97195	0.96520
3546.91814	0.96525
3544.86434	0.96447
3542.81054	0.96381
3540.75673	0.96354
3538.70293	0.96315
3536.64913	0.96270
3534.59532	0.96255
3532.54152	0.96257
3530.48772	0.96244
3528.43391	0.96203
3526.38011	0.96160
3524.32631	0.96133
3522.27250	0.96093
3520.21870	0.96046
3518.16490	0.96009
3516.11109	0.95963
3514.05729	0.95917
3512.00349	0.95901
3509.94968	0.95900
3507.89588	0.95864
3505.84208	0.95774
3503.78827	0.95694
3501.73447	0.95686
3499.68067	0.95720
3497.62687	0.95711
3495.57306	0.95651
3493.51926	0.95601
3491.46546	0.95567
3489.41165	0.95534
3487.35785	0.95500
3485.30405	0.95485
3483.25024	0.95468
3481.19644	0.95416
3479.14264	0.95361
3477.08883	0.95310
3475.03503	0.95274
3472.98123	0.95257
3470.92742	0.95220
3468.87362	0.95161
3466.81982	0.95101
3464.76601	0.95056
3462.71221	0.95013
3460.65841	0.94966
3458.60460	0.94961
3456.55080	0.94986
3454.49700	0.94999
3452.44319	0.94975
3450.38939	0.94921
3448.33559	0.94913
3446.28178	0.94941
3444.22798	0.94931
3442.17418	0.94881
3440.12038	0.94843
3438.06657	0.94836
3436.01277	0.94812
3433.95897	0.94754
3431.90516	0.94684
3429.85136	0.94650
3427.79756	0.94646
3425.74375	0.94609
3423.68995	0.94572
3421.63615	0.94547
3419.58234	0.94464
3417.52854	0.94392
3415.47474	0.94405
3413.42093	0.94435
3411.36713	0.94427
3409.31333	0.94407
3407.25952	0.94389
3405.20572	0.94368
3403.15192	0.94344
3401.09811	0.94305
3399.04431	0.94269
3396.99051	0.94227
3394.93670	0.94179
3392.88290	0.94184
3390.82910	0.94216
3388.77529	0.94215
3386.72149	0.94219
3384.66769	0.94234
3382.61389	0.94198
3380.56008	0.94123
3378.50628	0.94087
3376.45248	0.94085
3374.39867	0.94069
3372.34487	0.94065
3370.29107	0.94089
3368.23726	0.94102
3366.18346	0.94092
3364.12966	0.94061
3362.07585	0.93999
3360.02205	0.93960
3357.96825	0.93991
3355.91444	0.94044
3353.86064	0.94063
3351.80684	0.94038
3349.75303	0.94001
3347.69923	0.93986
3345.64543	0.93990
3343.59162	0.93994
3341.53782	0.93996
3339.48402	0.93980
3337.43021	0.93944
3335.37641	0.93917
3333.32261	0.93894
3331.26881	0.93870
3329.21500	0.93882
3327.16120	0.93943
3325.10740	0.93982
3323.05359	0.93965
3320.99979	0.93943
3318.94599	0.93928
3316.89218	0.93931
3314.83838	0.93959
3312.78458	0.93950
3310.73077	0.93908
3308.67697	0.93910
3306.62317	0.93946
3304.56936	0.93941
3302.51556	0.93887
3300.46176	0.93874
3298.40795	0.93920
3296.35415	0.93916
3294.30035	0.93852
3292.24654	0.93835
3290.19274	0.93855
3288.13894	0.93860
3286.08513	0.93883
3284.03133	0.93908
3281.97753	0.93893
3279.92372	0.93856
3277.86992	0.93845
3275.81612	0.93853
3273.76232	0.93879
3271.70851	0.93920
3269.65471	0.93931
3267.60091	0.93930
3265.54710	0.93944
3263.49330	0.93951
3261.43950	0.93957
3259.38569	0.93960
3257.33189	0.93969
3255.27809	0.93990
3253.22428	0.93999
3251.17048	0.94013
3249.11668	0.94036
3247.06287	0.94046
3245.00907	0.94059
3242.95527	0.94093
3240.90146	0.94113
3238.84766	0.94111
3236.79386	0.94118
3234.74005	0.94130
3232.68625	0.94133
3230.63245	0.94156
3228.57864	0.94212
3226.52484	0.94247
3224.47104	0.94228
3222.41724	0.94215
3220.36343	0.94250
3218.30963	0.94311
3216.25583	0.94338
3214.20202	0.94305
3212.14822	0.94285
3210.09442	0.94316
3208.04061	0.94370
3205.98681	0.94440
3203.93301	0.94513
3201.87920	0.94548
3199.82540	0.94533
3197.77160	0.94531
3195.71779	0.94577
3193.66399	0.94597
3191.61019	0.94594
3189.55638	0.94613
3187.50258	0.94630
3185.44878	0.94635
3183.39497	0.94650
3181.34117	0.94678
3179.28737	0.94727
3177.23356	0.94814
3175.17976	0.94886
3173.12596	0.94884
3171.07215	0.94892
3169.01835	0.94951
3166.96455	0.94984
3164.91075	0.94996
3162.85694	0.95014
3160.80314	0.95048
3158.74934	0.95110
3156.69553	0.95154
3154.64173	0.95160
3152.58793	0.95158
3150.53412	0.95194
3148.48032	0.95280
3146.42652	0.95359
3144.37271	0.95424
3142.31891	0.95482
3140.26511	0.95494
3138.21130	0.95465
3136.15750	0.95470
3134.10370	0.95549
3132.04989	0.95651
3129.99609	0.95703
3127.94229	0.95702
3125.88848	0.95679
3123.83468	0.95662
3121.78088	0.95678
3119.72707	0.95721
3117.67327	0.95765
3115.61947	0.95792
3113.56566	0.95813
3111.51186	0.95855
3109.45806	0.95920
3107.40426	0.95987
3105.35045	0.96040
3103.29665	0.96072
3101.24285	0.96075
3099.18904	0.96052
3097.13524	0.96047
3095.08144	0.96078
3093.02763	0.96124
3090.97383	0.96179
3088.92003	0.96238
3086.86622	0.96289
3084.81242	0.96306
3082.75862	0.96298
3080.70481	0.96337
3078.65101	0.96406
3076.59721	0.96437
3074.54340	0.96447
3072.48960	0.96446
3070.43580	0.96435
3068.38199	0.96466
3066.32819	0.96537
3064.27439	0.96600
3062.22058	0.96659
3060.16678	0.96694
3058.11298	0.96681
3056.05918	0.96676
3054.00537	0.96707
3051.95157	0.96727
3049.89777	0.96728
3047.84396	0.96759
3045.79016	0.96815
3043.73636	0.96856
3041.68255	0.96868
3039.62875	0.96843
3037.57495	0.96811
3035.52114	0.96835
3033.46734	0.96924
3031.41354	0.97019
3029.35973	0.97062
3027.30593	0.97075
3025.25213	0.97090
3023.19832	0.97081
3021.14452	0.97052
3019.09072	0.97032
3017.03691	0.97027
3014.98311	0.97066
3012.92931	0.97156
3010.87550	0.97199
3008.82170	0.97160
3006.76790	0.97129
3004.71409	0.97131
3002.66029	0.97119
3000.60649	0.97092
2998.55269	0.97088
2996.49888	0.97123
2994.44508	0.97169
2992.39128	0.97204
2990.33747	0.97218
2988.28367	0.97194
2986.22987	0.97174
2984.17606	0.97180
2982.12226	0.97191
2980.06846	0.97204
2978.01465	0.97196
2975.96085	0.97167
2973.90705	0.97165
2971.85324	0.97167
2969.79944	0.97118
2967.74564	0.97054
2965.69183	0.97036
2963.63803	0.97024
2961.58423	0.96998
2959.53042	0.96987
2957.47662	0.96961
2955.42282	0.96928
2953.36901	0.96923
2951.31521	0.96913
2949.26141	0.96890
2947.20761	0.96874
2945.15380	0.96859
2943.10000	0.96827
2941.04620	0.96782
2938.99239	0.96741
2936.93859	0.96712
2934.88479	0.96689
2932.83098	0.96673
2930.77718	0.96647
2928.72338	0.96602
2926.66957	0.96587
2924.61577	0.96607
2922.56197	0.96622
2920.50816	0.96633
2918.45436	0.96641
2916.40056	0.96657
2914.34675	0.96677
2912.29295	0.96680
2910.23915	0.96705
2908.18534	0.96770
2906.13154	0.96819
2904.07774	0.96837
2902.02393	0.96874
2899.97013	0.96915
2897.91633	0.96919
2895.86252	0.96916
2893.80872	0.96942
2891.75492	0.96972
2889.70112	0.96966
2887.64731	0.96960
2885.59351	0.96988
2883.53971	0.97019
2881.48590	0.97038
2879.43210	0.97051
2877.37830	0.97064
2875.32449	0.97070
2873.27069	0.97063
2871.21689	0.97046
2869.16308	0.97035
2867.10928	0.97053
2865.05548	0.97089
2863.00167	0.97109
2860.94787	0.97125
2858.89407	0.97159
2856.84026	0.97188
2854.78646	0.97200
2852.73266	0.97198
2850.67885	0.97203
2848.62505	0.97268
2846.57125	0.97358
2844.51744	0.97393
2842.46364	0.97418
2840.40984	0.97481
2838.35603	0.97533
2836.30223	0.97557
2834.24843	0.97580
2832.19463	0.97589
2830.14082	0.97577
2828.08702	0.97585
2826.03322	0.97618
2823.97941	0.97632
2821.92561	0.97625
2819.87181	0.97639
2817.81800	0.97678
2815.76420	0.97716
2813.71040	0.97743
2811.65659	0.97776
2809.60279	0.97787
2807.54899	0.97753
2805.49518	0.97730
2803.44138	0.97749
2801.38758	0.97778
2799.33377	0.97805
2797.27997	0.97823
2795.22617	0.97824
2793.17236	0.97814
2791.11856	0.97810
2789.06476	0.97832
2787.01095	0.97867
2784.95715	0.97886
2782.90335	0.97897
2780.84955	0.97913
2778.79574	0.97922
2776.74194	0.97922
2774.68814	0.97908
2772.63433	0.97887
2770.58053	0.97904
2768.52673	0.97937
2766.47292	0.97935
2764.41912	0.97915
2762.36532	0.97919
2760.31151	0.97950
2758.25771	0.97957
2756.20391	0.97933
2754.15010	0.97924
2752.09630	0.97924
2750.04250	0.97933
2747.98869	0.97987
2745.93489	0.98028
2743.88109	0.98006
2741.82728	0.97974
2739.77348	0.97971
2737.71968	0.97985
2735.66587	0.97992
2733.61207	0.98004
2731.55827	0.98045
2729.50446	0.98071
2727.45066	0.98047
2725.39686	0.98013
2723.34306	0.98020
2721.28925	0.98064
2719.23545	0.98084
2717.18165	0.98048
2715.12784	0.98011
2713.07404	0.98019
2711.02024	0.98047
2708.96643	0.98060
2706.91263	0.98051
2704.85883	0.98048
2702.80502	0.98061
2700.75122	0.98079
2698.69742	0.98086
2696.64361	0.98069
2694.58981	0.98052
2692.53601	0.98055
2690.48220	0.98070
2688.42840	0.98085
2686.37460	0.98099
2684.32079	0.98119
2682.26699	0.98139
2680.21319	0.98143
2678.15938	0.98126
2676.10558	0.98117
2674.05178	0.98138
2671.99797	0.98158
2669.94417	0.98150
2667.89037	0.98134
2665.83657	0.98131
2663.78276	0.98128
2661.72896	0.98124
2659.67516	0.98119
2657.62135	0.98100
2655.56755	0.98096
2653.51375	0.98117
2651.45994	0.98113
2649.40614	0.98105
2647.35234	0.98136
2645.29853	0.98182
2643.24473	0.98205
2641.19093	0.98172
2639.13712	0.98120
2637.08332	0.98122
2635.02952	0.98170
2632.97571	0.98193
2630.92191	0.98189
2628.86811	0.98212
2626.81430	0.98258
2624.76050	0.98271
2622.70670	0.98255
2620.65289	0.98258
2618.59909	0.98273
2616.54529	0.98281
2614.49149	0.98296
2612.43768	0.98305
2610.38388	0.98296
2608.33008	0.98297
2606.27627	0.98316
2604.22247	0.98337
2602.16867	0.98308
2600.11486	0.98241
2598.06106	0.98222
2596.00726	0.98251
2593.95345	0.98277
2591.89965	0.98297
2589.84585	0.98319
2587.79204	0.98355
2585.73824	0.98387
2583.68444	0.98345
2581.63063	0.98273
2579.57683	0.98286
2577.52303	0.98343
2575.46922	0.98364
2573.41542	0.98370
2571.36162	0.98377
2569.30781	0.98348
2567.25401	0.98283
2565.20021	0.98239
2563.14640	0.98286
2561.09260	0.98386
2559.03880	0.98408
2556.98500	0.98367
2554.93119	0.98373
2552.87739	0.98398
2550.82359	0.98365
2548.76978	0.98310
2546.71598	0.98291
2544.66218	0.98294
2542.60837	0.98290
2540.55457	0.98327
2538.50077	0.98396
2536.44696	0.98415
2534.39316	0.98396
2532.33936	0.98374
2530.28555	0.98357
2528.23175	0.98372
2526.17795	0.98421
2524.12414	0.98445
2522.07034	0.98429
2520.01654	0.98430
2517.96273	0.98469
2515.90893	0.98480
2513.85513	0.98433
2511.80132	0.98402
2509.74752	0.98411
2507.69372	0.98417
2505.63992	0.98403
2503.58611	0.98407
2501.53231	0.98456
2499.47851	0.98481
2497.42470	0.98470
2495.37090	0.98482
2493.31710	0.98473
2491.26329	0.98390
2489.20949	0.98344
2487.15569	0.98405
2485.10188	0.98475
2483.04808	0.98476
2480.99428	0.98428
2478.94047	0.98383
2476.88667	0.98373
2474.83287	0.98385
2472.77906	0.98394
2470.72526	0.98400
2468.67146	0.98440
2466.61765	0.98525
2464.56385	0.98588
2462.51005	0.98566
2460.45624	0.98475
2458.40244	0.98416
2456.34864	0.98440
2454.29483	0.98488
2452.24103	0.98504
2450.18723	0.98462
2448.13343	0.98420
2446.07962	0.98449
2444.02582	0.98526
2441.97202	0.98589
2439.91821	0.98552
2437.86441	0.98431
2435.81061	0.98377
2433.75680	0.98408
2431.70300	0.98439
2429.64920	0.98458
2427.59539	0.98454
2425.54159	0.98429
2423.48779	0.98443
2421.43398	0.98473
2419.38018	0.98471
2417.32638	0.98483
2415.27257	0.98517
2413.21877	0.98515
2411.16497	0.98469
2409.11116	0.98436
2407.05736	0.98443
2405.00356	0.98465
2402.94975	0.98486
2400.89595	0.98503
2398.84215	0.98507
2396.78834	0.98528
2394.73454	0.98571
2392.68074	0.98569
2390.62694	0.98549
2388.57313	0.98599
2386.51933	0.98662
2384.46553	0.98635
2382.41172	0.98577
2380.35792	0.98569
2378.30412	0.98577
2376.25031	0.98582
2374.19651	0.98610
2372.14271	0.98669
2370.08890	0.98716
2368.03510	0.98662
2365.98130	0.98506
2363.92749	0.98426
2361.87369	0.98503
2359.81989	0.98566
2357.76608	0.98475
2355.71228	0.98349
2353.65848	0.98354
2351.60467	0.98388
2349.55087	0.98366
2347.49707	0.98358
2345.44326	0.98396
2343.38946	0.98488
2341.33566	0.98618
2339.28186	0.98656
2337.22805	0.98543
2335.17425	0.98430
2333.12045	0.98446
2331.06664	0.98507
2329.01284	0.98500
2326.95904	0.98419
2324.90523	0.98263
2322.85143	0.98184
2320.79763	0.98293
2318.74382	0.98396
2316.69002	0.98439
2314.63622	0.98529
2312.58241	0.98613
2310.52861	0.98591
2308.47481	0.98535
2306.42100	0.98528
2304.36720	0.98492
2302.31340	0.98415
2300.25959	0.98354
2298.20579	0.98324
2296.15199	0.98320
2294.09818	0.98336
2292.04438	0.98333
2289.99058	0.98260
2287.93677	0.98203
2285.88297	0.98254
2283.82917	0.98346
2281.77537	0.98378
2279.72156	0.98345
2277.66776	0.98335
2275.61396	0.98368
2273.56015	0.98413
2271.50635	0.98419
2269.45255	0.98339
2267.39874	0.98291
2265.34494	0.98386
2263.29114	0.98523
2261.23733	0.98600
2259.18353	0.98632
2257.12973	0.98634
2255.07592	0.98534
2253.02212	0.98308
2250.96832	0.98172
2248.91451	0.98283
2246.86071	0.98464
2244.80691	0.98506
2242.75310	0.98486
2240.69930	0.98564
2238.64550	0.98575
2236.59169	0.98408
2234.53789	0.98348
2232.48409	0.98451
2230.43029	0.98507
2228.37648	0.98519
2226.32268	0.98495
2224.26888	0.98397
2222.21507	0.98376
2220.16127	0.98543
2218.10747	0.98699
2216.05366	0.98650
2213.99986	0.98501
2211.94606	0.98454
2209.89225	0.98503
2207.83845	0.98518
2205.78465	0.98518
2203.73084	0.98518
2201.67704	0.98517
2199.62324	0.98578
2197.56943	0.98740
2195.51563	0.98905
2193.46183	0.98841
2191.40802	0.98662
2189.35422	0.98655
2187.30042	0.98649
2185.24661	0.98467
2183.19281	0.98418
2181.13901	0.98542
2179.08520	0.98475
2177.03140	0.98211
2174.97760	0.98070
2172.92380	0.98260
2170.86999	0.98566
2168.81619	0.98707
2166.76239	0.98655
2164.70858	0.98514
2162.65478	0.98413
2160.60098	0.98407
2158.54717	0.98610
2156.49337	0.98872
2154.43957	0.98960
2152.38576	0.99010
2150.33196	0.98995
2148.27816	0.98802
2146.22435	0.98668
2144.17055	0.98766
2142.11675	0.98845
2140.06294	0.98736
2138.00914	0.98595
2135.95534	0.98586
2133.90153	0.98756
2131.84773	0.98867
2129.79393	0.98690
2127.74012	0.98505
2125.68632	0.98484
2123.63252	0.98429
2121.57871	0.98330
2119.52491	0.98313
2117.47111	0.98369
2115.41731	0.98456
2113.36350	0.98562
2111.30970	0.98635
2109.25590	0.98631
2107.20209	0.98550
2105.14829	0.98463
2103.09449	0.98400
2101.04068	0.98315
2098.98688	0.98309
2096.93308	0.98451
2094.87927	0.98585
2092.82547	0.98577
2090.77167	0.98432
2088.71786	0.98306
2086.66406	0.98322
2084.61026	0.98386
2082.55645	0.98402
2080.50265	0.98438
2078.44885	0.98588
2076.39504	0.98749
2074.34124	0.98703
2072.28744	0.98503
2070.23363	0.98392
2068.17983	0.98377
2066.12603	0.98437
2064.07223	0.98600
2062.01842	0.98677
2059.96462	0.98572
2057.91082	0.98460
2055.85701	0.98458
2053.80321	0.98482
2051.74941	0.98359
2049.69560	0.98163
2047.64180	0.98173
2045.58800	0.98339
2043.53419	0.98443
2041.48039	0.98443
2039.42659	0.98424
2037.37278	0.98441
2035.31898	0.98474
2033.26518	0.98528
2031.21137	0.98600
2029.15757	0.98701
2027.10377	0.98826
2025.04996	0.98875
2022.99616	0.98634
2020.94236	0.98269
2018.88855	0.98291
2016.83475	0.98663
2014.78095	0.98822
2012.72714	0.98674
2010.67334	0.98678
2008.61954	0.98873
2006.56574	0.98853
2004.51193	0.98619
2002.45813	0.98542
2000.40433	0.98602
1998.35052	0.98552
1996.29672	0.98501
1994.24292	0.98617
1992.18911	0.98801
1990.13531	0.98816
1988.08151	0.98636
1986.02770	0.98485
1983.97390	0.98496
1981.92010	0.98609
1979.86629	0.98663
1977.81249	0.98644
1975.75869	0.98689
1973.70488	0.98745
1971.65108	0.98755
1969.59728	0.98711
1967.54347	0.98511
1965.48967	0.98404
1963.43587	0.98628
1961.38206	0.98879
1959.32826	0.98890
1957.27446	0.98684
1955.22066	0.98548
1953.16685	0.98751
1951.11305	0.99047
1949.05925	0.99039
1947.00544	0.98811
1944.95164	0.98683
1942.89784	0.98720
1940.84403	0.98806
1938.79023	0.98838
1936.73643	0.98742
1934.68262	0.98626
1932.62882	0.98626
1930.57502	0.98633
1928.52121	0.98564
1926.46741	0.98550
1924.41361	0.98606
1922.35980	0.98690
1920.30600	0.98826
1918.25220	0.98874
1916.19839	0.98769
1914.14459	0.98709
1912.09079	0.98729
1910.03698	0.98718
1907.98318	0.98692
1905.92938	0.98738
1903.87557	0.98772
1901.82177	0.98714
1899.76797	0.98698
1897.71417	0.98745
1895.66036	0.98718
1893.60656	0.98656
1891.55276	0.98650
1889.49895	0.98647
1887.44515	0.98652
1885.39135	0.98705
1883.33754	0.98710
1881.28374	0.98642
1879.22994	0.98601
1877.17613	0.98589
1875.12233	0.98603
1873.06853	0.98689
1871.01472	0.98744
1868.96092	0.98665
1866.90712	0.98593
1864.85331	0.98638
1862.79951	0.98667
1860.74571	0.98640
1858.69190	0.98668
1856.63810	0.98713
1854.58430	0.98665
1852.53049	0.98600
1850.47669	0.98602
1848.42289	0.98662
1846.36908	0.98768
1844.31528	0.98824
1842.26148	0.98732
1840.20768	0.98636
1838.15387	0.98646
1836.10007	0.98691
1834.04627	0.98678
1831.99246	0.98652
1829.93866	0.98698
1827.88486	0.98757
1825.83105	0.98735
1823.77725	0.98685
1821.72345	0.98668
1819.66964	0.98691
1817.61584	0.98735
1815.56204	0.98749
1813.50823	0.98705
1811.45443	0.98615
1809.40063	0.98558
1807.34682	0.98589
1805.29302	0.98631
1803.23922	0.98625
1801.18541	0.98576
1799.13161	0.98546
1797.07781	0.98582
1795.02400	0.98635
1792.97020	0.98647
1790.91640	0.98627
1788.86260	0.98588
1786.80879	0.98519
1784.75499	0.98489
1782.70119	0.98518
1780.64738	0.98531
1778.59358	0.98519
1776.53978	0.98539
1774.48597	0.98594
1772.43217	0.98596
1770.37837	0.98517
1768.32456	0.98474
1766.27076	0.98495
1764.21696	0.98495
1762.16315	0.98433
1760.10935	0.98394
1758.05555	0.98411
1756.00174	0.98385
1753.94794	0.98306
1751.89414	0.98251
1749.84033	0.98230
1747.78653	0.98154
1745.73273	0.98018
1743.67892	0.97893
1741.62512	0.97799
1739.57132	0.97726
1737.51751	0.97668
1735.46371	0.97669
1733.40991	0.97705
1731.35611	0.97630
1729.30230	0.97515
1727.24850	0.97468
1725.19470	0.97465
1723.14089	0.97460
1721.08709	0.97465
1719.03329	0.97482
1716.97948	0.97501
1714.92568	0.97511
1712.87188	0.97514
1710.81807	0.97513
1708.76427	0.97521
1706.71047	0.97511
1704.65666	0.97448
1702.60286	0.97413
1700.54906	0.97402
1698.49525	0.97303
1696.44145	0.97192
1694.38765	0.97118
1692.33384	0.97040
1690.28004	0.96972
1688.22624	0.96940
1686.17243	0.96906
1684.11863	0.96783
1682.06483	0.96617
1680.01103	0.96506
1677.95722	0.96416
1675.90342	0.96297
1673.84962	0.96150
1671.79581	0.96059
1669.74201	0.95971
1667.68821	0.95839
1665.63440	0.95737
1663.58060	0.95633
1661.52680	0.95485
1659.47299	0.95343
1657.41919	0.95267
1655.36539	0.95261
1653.31158	0.95160
1651.25778	0.94949
1649.20398	0.94878
1647.15017	0.94827
1645.09637	0.94712
1643.04257	0.94595
1640.98876	0.94505
1638.93496	0.94447
1636.88116	0.94374
1634.82735	0.94248
1632.77355	0.94166
1630.71975	0.94144
1628.66594	0.94170
1626.61214	0.94229
1624.55834	0.94261
1622.50454	0.94248
1620.45073	0.94263
1618.39693	0.94347
1616.34313	0.94449
1614.28932	0.94503
1612.23552	0.94545
1610.18172	0.94590
1608.12791	0.94639
1606.07411	0.94701
1604.02031	0.94764
1601.96650	0.94827
1599.91270	0.94900
1597.85890	0.94977
1595.80509	0.95049
1593.75129	0.95132
1591.69749	0.95249
1589.64368	0.95384
1587.58988	0.95508
1585.53608	0.95640
1583.48227	0.95786
1581.42847	0.95900
1579.37467	0.95973
1577.32086	0.96041
1575.26706	0.96094
1573.21326	0.96126
1571.15945	0.96176
1569.10565	0.96227
1567.05185	0.96269
1564.99805	0.96324
1562.94424	0.96398
1560.89044	0.96480
1558.83664	0.96497
1556.78283	0.96441
1554.72903	0.96444
1552.67523	0.96475
1550.62142	0.96483
1548.56762	0.96468
1546.51382	0.96464
1544.46001	0.96470
1542.40621	0.96490
1540.35241	0.96560
1538.29860	0.96648
1536.24480	0.96695
1534.19100	0.96719
1532.13719	0.96712
1530.08339	0.96692
1528.02959	0.96694
1525.97578	0.96720
1523.92198	0.96711
1521.86818	0.96627
1519.81437	0.96563
1517.76057	0.96586
1515.70677	0.96609
1513.65297	0.96626
1511.59916	0.96679
1509.54536	0.96751
1507.49156	0.96808
1505.43775	0.96800
1503.38395	0.96783
1501.33015	0.96828
1499.27634	0.96912
1497.22254	0.96978
1495.16874	0.97006
1493.11493	0.97020
1491.06113	0.97050
1489.00733	0.97059
1486.95352	0.97004
1484.89972	0.96951
1482.84592	0.96909
1480.79211	0.96843
1478.73831	0.96764
1476.68451	0.96680
1474.63070	0.96583
1472.57690	0.96426
1470.52310	0.96236
1468.46929	0.96125
1466.41549	0.96055
1464.36169	0.95978
1462.30788	0.95929
1460.25408	0.95905
1458.20028	0.95869
1456.14648	0.95803
1454.09267	0.95750
1452.03887	0.95725
1449.98507	0.95712
1447.93126	0.95698
1445.87746	0.95663
1443.82366	0.95585
1441.76985	0.95482
1439.71605	0.95418
1437.66225	0.95390
1435.60844	0.95316
1433.55464	0.95229
1431.50084	0.95162
1429.44703	0.95080
1427.39323	0.95017
1425.33943	0.94977
1423.28562	0.94926
1421.23182	0.94911
1419.17802	0.94932
1417.12421	0.94911
1415.07041	0.94894
1413.01661	0.94921
1410.96280	0.94956
1408.90900	0.94975
1406.85520	0.95012
1404.80139	0.95089
1402.74759	0.95142
1400.69379	0.95159
1398.63999	0.95214
1396.58618	0.95305
1394.53238	0.95330
1392.47858	0.95281
1390.42477	0.95253
1388.37097	0.95248
1386.31717	0.95218
1384.26336	0.95165
1382.20956	0.95102
1380.15576	0.95050
1378.10195	0.95039
1376.04815	0.95055
1373.99435	0.95062
1371.94054	0.95052
1369.88674	0.95052
1367.83294	0.95078
1365.77913	0.95115
1363.72533	0.95132
1361.67153	0.95121
1359.61772	0.95121
1357.56392	0.95163
1355.51012	0.95236
1353.45631	0.95314
1351.40251	0.95370
1349.34871	0.95399
1347.29491	0.95420
1345.24110	0.95437
1343.18730	0.95430
1341.13350	0.95413
1339.07969	0.95420
1337.02589	0.95441
1334.97209	0.95451
1332.91828	0.95424
1330.86448	0.95373
1328.81068	0.95352
1326.75687	0.95367
1324.70307	0.95382
1322.64927	0.95374
1320.59546	0.95342
1318.54166	0.95313
1316.48786	0.95317
1314.43405	0.95337
1312.38025	0.95353
1310.32645	0.95384
1308.27264	0.95437
1306.21884	0.95487
1304.16504	0.95493
1302.11123	0.95494
1300.05743	0.95546
1298.00363	0.95623
1295.94982	0.95672
1293.89602	0.95670
1291.84222	0.95625
1289.78842	0.95568
1287.73461	0.95513
1285.68081	0.95465
1283.62701	0.95440
1281.57320	0.95427
1279.51940	0.95382
1277.46560	0.95309
1275.41179	0.95254
1273.35799	0.95228
1271.30419	0.95180
1269.25038	0.95086
1267.19658	0.94999
1265.14278	0.94930
1263.08897	0.94858
1261.03517	0.94808
1258.98137	0.94772
1256.92756	0.94710
1254.87376	0.94616
1252.81996	0.94539
1250.76615	0.94529
1248.71235	0.94546
1246.65855	0.94550
1244.60474	0.94553
1242.55094	0.94541
1240.49714	0.94530
1238.44334	0.94560
1236.38953	0.94625
1234.33573	0.94690
1232.28193	0.94727
1230.22812	0.94736
1228.17432	0.94726
1226.12052	0.94719
1224.06671	0.94721
1222.01291	0.94699
1219.95911	0.94635
1217.90530	0.94569
1215.85150	0.94515
1213.79770	0.94445
1211.74389	0.94366
1209.69009	0.94307
1207.63629	0.94247
1205.58248	0.94156
1203.52868	0.94075
1201.47488	0.94001
1199.42107	0.93869
1197.36727	0.93693
1195.31347	0.93534
1193.25966	0.93404
1191.20586	0.93260
1189.15206	0.93062
1187.09825	0.92820
1185.04445	0.92585
1182.99065	0.92381
1180.93685	0.92185
1178.88304	0.91995
1176.82924	0.91812
1174.77544	0.91599
1172.72163	0.91377
1170.66783	0.91152
1168.61403	0.90904
1166.56022	0.90664
1164.50642	0.90451
1162.45262	0.90253
1160.39881	0.90068
1158.34501	0.89913
1156.29121	0.89780
1154.23740	0.89659
1152.18360	0.89566
1150.12980	0.89479
1148.07599	0.89360
1146.02219	0.89232
1143.96839	0.89137
1141.91458	0.89082
1139.86078	0.89026
1137.80698	0.88930
1135.75317	0.88809
1133.69937	0.88699
1131.64557	0.88564
1129.59176	0.88384
1127.53796	0.88227
1125.48416	0.88109
1123.43036	0.87978
1121.37655	0.87802
1119.32275	0.87593
1117.26895	0.87387
1115.21514	0.87187
1113.16134	0.86984
1111.10754	0.86761
1109.05373	0.86514
1106.99993	0.86275
1104.94613	0.86052
1102.89232	0.85844
1100.83852	0.85683
1098.78472	0.85555
1096.73091	0.85427
1094.67711	0.85293
1092.62331	0.85146
1090.56950	0.84986
1088.51570	0.84835
1086.46190	0.84712
1084.40809	0.84599
1082.35429	0.84493
1080.30049	0.84409
1078.24668	0.84331
1076.19288	0.84236
1074.13908	0.84119
1072.08528	0.83991
1070.03147	0.83879
1067.97767	0.83801
1065.92387	0.83714
1063.87006	0.83618
1061.81626	0.83549
1059.76246	0.83454
1057.70865	0.83289
1055.65485	0.83092
1053.60105	0.82871
1051.54724	0.82571
1049.49344	0.82192
1047.43964	0.81766
1045.38583	0.81278
1043.33203	0.80758
1041.27823	0.80278
1039.22442	0.79847
1037.17062	0.79446
1035.11682	0.79092
1033.06301	0.78825
1031.00921	0.78647
1028.95541	0.78527
1026.90160	0.78437
1024.84780	0.78368
1022.79400	0.78324
1020.74019	0.78305
1018.68639	0.78289
1016.63259	0.78242
1014.57879	0.78172
1012.52498	0.78089
1010.47118	0.77971
1008.41738	0.77864
1006.36357	0.77810
1004.30977	0.77758
1002.25597	0.77711
1000.20216	0.77708
998.14836	0.77728
996.09456	0.77769
994.04075	0.77841
991.98695	0.77915
989.93315	0.77973
987.87934	0.78045
985.82554	0.78118
983.77174	0.78184
981.71793	0.78320
979.66413	0.78566
977.61033	0.78842
975.55652	0.79109
973.50272	0.79417
971.44892	0.79764
969.39511	0.80107
967.34131	0.80428
965.28751	0.80727
963.23371	0.81043
961.17990	0.81375
959.12610	0.81662
957.07230	0.81904
955.01849	0.82174
952.96469	0.82517
950.91089	0.82901
948.85708	0.83278
946.80328	0.83661
944.74948	0.84077
942.69567	0.84525
940.64187	0.84986
938.58807	0.85423
936.53426	0.85832
934.48046	0.86202
932.42666	0.86508
930.37285	0.86799
928.31905	0.87110
926.26525	0.87408
924.21144	0.87648
922.15764	0.87839
920.10384	0.88029
918.05003	0.88201
915.99623	0.88308
913.94243	0.88371
911.88862	0.88416
909.83482	0.88410
907.78102	0.88401
905.72722	0.88425
903.67341	0.88419
901.61961	0.88408
899.56581	0.88448
897.51200	0.88532
895.45820	0.88655
893.40440	0.88834
891.35059	0.89072
889.29679	0.89323
887.24299	0.89545
885.18918	0.89731
883.13538	0.89911
881.08158	0.90084
879.02777	0.90207
876.97397	0.90288
874.92017	0.90386
872.86636	0.90514
870.81256	0.90630
868.75876	0.90744
866.70495	0.90863
864.65115	0.90921
862.59735	0.90932
860.54354	0.90966
858.48974	0.90994
856.43594	0.91035
854.38213	0.91137
852.32833	0.91228
850.27453	0.91217
848.22073	0.91160
846.16692	0.91150
844.11312	0.91204
842.05932	0.91272
840.00551	0.91274
837.95171	0.91213
835.89791	0.91141
833.84410	0.91081
831.79030	0.91037
829.73650	0.91009
827.68269	0.90981
825.62889	0.90920
823.57509	0.90864
821.52128	0.90871
819.46748	0.90863
817.41368	0.90803
815.35987	0.90747
813.30607	0.90689
811.25227	0.90622
809.19846	0.90530
807.14466	0.90366
805.09086	0.90192
803.03705	0.90076
800.98325	0.89964
798.92945	0.89884
796.87565	0.89878
794.82184	0.89899
792.76804	0.89939
790.71424	0.89951
788.66043	0.89889
786.60663	0.89840
784.55283	0.89886
782.49902	0.89924
780.44522	0.89878
778.39142	0.89787
776.33761	0.89687
774.28381	0.89651
772.23001	0.89682
770.17620	0.89699
768.12240	0.89677
766.06860	0.89593
764.01479	0.89478
761.96099	0.89419
759.90719	0.89420
757.85338	0.89360
755.79958	0.89196
753.74578	0.89104
751.69197	0.89137
749.63817	0.89147
747.58437	0.89103
745.53056	0.89033
743.47676	0.88924
741.42296	0.88818
739.36916	0.88726
737.31535	0.88668
735.26155	0.88696
733.20775	0.88764
731.15394	0.88761
729.10014	0.88611
727.04634	0.88371
724.99253	0.88252
722.93873	0.88268
720.88493	0.88200
718.83112	0.88114
716.77732	0.88137
714.72352	0.88129
712.66971	0.88086
710.61591	0.88078
708.56211	0.87978
706.50830	0.87748
704.45450	0.87571
702.40070	0.87516
700.34689	0.87472
698.29309	0.87374
696.23929	0.87234
694.18548	0.87155
692.13168	0.87141
690.07788	0.87087
688.02408	0.87015
685.97027	0.86923
683.91647	0.86797
681.86267	0.86759
679.80886	0.86726
677.75506	0.86529
675.70126	0.86290
673.64745	0.86086
671.59365	0.85845
669.53985	0.85543
667.48604	0.85317
665.43224	0.85316
663.37844	0.85251
661.32463	0.84992
659.27083	0.84739
657.21703	0.84588
655.16322	0.84444
653.10942	0.84337
651.05562	0.84300
649.00181	0.84209
646.94801	0.84082
644.89421	0.84104
642.84040	0.84151
640.78660	0.84041
638.73280	0.83910
636.67899	0.83779
634.62519	0.83617
632.57139	0.83600
630.51759	0.83715
628.46378	0.83719
626.40998	0.83578
624.35618	0.83483
622.30237	0.83451
620.24857	0.83337
618.19477	0.83158
616.14096	0.82985
614.08716	0.82760
612.03336	0.82470
609.97955	0.82238
607.92575	0.82068
605.87195	0.81832
603.81814	0.81581
601.76434	0.81375
599.71054	0.81171
597.65673	0.81061
595.60293	0.81100
593.54913	0.81167
591.49532	0.81185
589.44152	0.81149
587.38772	0.81074
585.33391	0.80992
583.28011	0.80921
581.22631	0.80824
579.17250	0.80703
577.11870	0.80627
575.06490	0.80532
573.01110	0.80374
570.95729	0.80255
568.90349	0.80145
566.84969	0.79973
564.79588	0.79843
562.74208	0.79743
560.68828	0.79494
558.63447	0.79171
556.58067	0.78942
554.52687	0.78821
552.47306	0.78685
550.41926	0.78422
548.36546	0.78222
546.31165	0.78142
544.25785	0.77966
542.20405	0.77805
540.15024	0.77751
538.09644	0.77482
536.04264	0.76993
533.98883	0.76715
531.93503	0.76646
529.88123	0.76532
527.82742	0.76409
525.77362	0.76351
523.71982	0.76316
521.66602	0.76305
519.61221	0.76281
517.55841	0.76251
515.50461	0.76300
513.45080	0.76400
511.39700	0.76557
509.34320	0.76714
507.28939	0.76705
505.23559	0.76596
503.18179	0.76558
501.12798	0.76549
499.07418	0.76503
497.02038	0.76562
494.96657	0.76659
492.91277	0.76550
490.85897	0.76315
488.80516	0.76094
486.75136	0.75934
484.69756	0.75729
482.64375	0.75245
480.58995	0.74638
478.53615	0.74173
476.48234	0.73839
474.42854	0.73494
472.37474	0.73176
470.32093	0.73002
468.26713	0.72831
466.21333	0.72793
464.15953	0.72923
462.10572	0.73054
460.05192	0.73301
457.99812	0.73416
455.94431	0.73254
453.89051	0.73188
451.83671	0.73194
449.78290	0.73280
447.72910	0.73519
445.67530	0.73699
443.62149	0.73692
441.56769	0.73641
439.51389	0.73712
437.46008	0.73827
435.40628	0.73538
433.35248	0.72873
431.29867	0.72462
429.24487	0.72331
427.19107	0.72347
425.13726	0.72363
423.08346	0.71947
421.02966	0.71438
418.97585	0.71602
416.92205	0.72135
414.86825	0.72564
412.81445	0.73056
410.76064	0.73176
408.70684	0.72696
406.65304	0.72230
404.59923	0.72092
402.54543	0.71961
400.49163	0.71769
398.43782	0.71990
