3996.70104	0.98682
3994.64724	0.98720
3992.59344	0.98721
3990.53964	0.98687
3988.48583	0.98661
3986.43203	0.98684
3984.37823	0.98713
3982.32442	0.98712
3980.27062	0.98697
3978.21682	0.98686
3976.16301	0.98673
3974.10921	0.98676
3972.05541	0.98704
3970.00160	0.98678
3967.94780	0.98601
3965.89400	0.98574
3963.84019	0.98592
3961.78639	0.98633
3959.73259	0.98706
3957.67878	0.98745
3955.62498	0.98742
3953.57118	0.98774
3951.51737	0.98797
3949.46357	0.98743
3947.40977	0.98668
3945.35596	0.98627
3943.30216	0.98638
3941.24836	0.98656
3939.19455	0.98641
3937.14075	0.98646
3935.08695	0.98666
3933.03315	0.98675
3930.97934	0.98698
3928.92554	0.98716
3926.87174	0.98719
3924.81793	0.98730
3922.76413	0.98749
3920.71033	0.98749
3918.65652	0.98730
3916.60272	0.98710
3914.54892	0.98684
3912.49511	0.98650
3910.44131	0.98624
3908.38751	0.98630
3906.33370	0.98671
3904.27990	0.98702
3902.22610	0.98678
3900.17229	0.98635
3898.11849	0.98616
3896.06469	0.98625
3894.01088	0.98641
3891.95708	0.98626
3889.90328	0.98621
3887.84947	0.98659
3885.79567	0.98687
3883.74187	0.98707
3881.68807	0.98721
3879.63426	0.98706
3877.58046	0.98696
3875.52666	0.98730
3873.47285	0.98765
3871.41905	0.98730
3869.36525	0.98695
3867.31144	0.98743
3865.25764	0.98794
3863.20384	0.98753
3861.15003	0.98659
3859.09623	0.98554
3857.04243	0.98511
3854.98862	0.98633
3852.93482	0.98772
3850.88102	0.98755
3848.82721	0.98730
3846.77341	0.98712
3844.71961	0.98698
3842.66580	0.98696
3840.61200	0.98672
3838.55820	0.98638
3836.50439	0.98646
3834.45059	0.98645
3832.39679	0.98627
3830.34298	0.98638
3828.28918	0.98674
3826.23538	0.98698
3824.18158	0.98678
3822.12777	0.98652
3820.07397	0.98688
3818.02017	0.98777
3815.96636	0.98868
3813.91256	0.98848
3811.85876	0.98764
3809.80495	0.98727
3807.75115	0.98720
3805.69735	0.98700
3803.64354	0.98686
3801.58974	0.98689
3799.53594	0.98691
3797.48213	0.98711
3795.42833	0.98748
3793.37453	0.98768
3791.32072	0.98752
3789.26692	0.98682
3787.21312	0.98588
3785.15931	0.98558
3783.10551	0.98643
3781.05171	0.98776
3778.99790	0.98844
3776.94410	0.98781
3774.89030	0.98682
3772.83650	0.98649
3770.78269	0.98684
3768.72889	0.98738
3766.67509	0.98762
3764.62128	0.98731
3762.56748	0.98670
3760.51368	0.98627
3758.45987	0.98636
3756.40607	0.98678
3754.35227	0.98692
3752.29846	0.98712
3750.24466	0.98814
3748.19086	0.98928
3746.13705	0.98953
3744.08325	0.98866
3742.02945	0.98815
3739.97564	0.98848
3737.92184	0.98836
3735.86804	0.98787
3733.81423	0.98857
3731.76043	0.98876
3729.70663	0.98810
3727.65282	0.98808
3725.59902	0.98839
3723.54522	0.98881
3721.49141	0.98904
3719.43761	0.98833
3717.38381	0.98758
3715.33001	0.98720
3713.27620	0.98675
3711.22240	0.98640
3709.16860	0.98596
3707.11479	0.98580
3705.06099	0.98603
3703.00719	0.98608
3700.95338	0.98606
3698.89958	0.98580
3696.84578	0.98518
3694.79197	0.98480
3692.73817	0.98486
3690.68437	0.98507
3688.63056	0.98540
3686.57676	0.98600
3684.52296	0.98650
3682.46915	0.98655
3680.41535	0.98635
3678.36155	0.98613
3676.30774	0.98595
3674.25394	0.98618
3672.20014	0.98613
3670.14633	0.98570
3668.09253	0.98578
3666.03873	0.98577
3663.98492	0.98544
3661.93112	0.98557
3659.87732	0.98572
3657.82352	0.98561
3655.76971	0.98616
3653.71591	0.98653
3651.66211	0.98555
3649.60830	0.98438
3647.55450	0.98475
3645.50070	0.98467
3643.44689	0.98414
3641.39309	0.98437
3639.33929	0.98485
3637.28548	0.98466
3635.23168	0.98430
3633.17788	0.98449
3631.12407	0.98496
3629.07027	0.98571
3627.01647	0.98618
3624.96266	0.98554
3622.90886	0.98457
3620.85506	0.98401
3618.80125	0.98381
3616.74745	0.98369
3614.69365	0.98380
3612.63984	0.98399
3610.58604	0.98374
3608.53224	0.98330
3606.47844	0.98334
3604.42463	0.98351
3602.37083	0.98354
3600.31703	0.98361
3598.26322	0.98343
3596.20942	0.98320
3594.15562	0.98365
3592.10181	0.98396
3590.04801	0.98340
3587.99421	0.98284
3585.94040	0.98255
3583.88660	0.98213
3581.83280	0.98237
3579.77899	0.98335
3577.72519	0.98382
3575.67139	0.98349
3573.61758	0.98311
3571.56378	0.98316
3569.50998	0.98335
3567.45617	0.98323
3565.40237	0.98309
3563.34857	0.98312
3561.29476	0.98313
3559.24096	0.98317
3557.18716	0.98299
3555.13335	0.98271
3553.07955	0.98273
3551.02575	0.98310
3548.97195	0.98324
3546.91814	0.98288
3544.86434	0.98288
3542.81054	0.98316
3540.75673	0.98292
3538.70293	0.98237
3536.64913	0.98220
3534.59532	0.98224
3532.54152	0.98205
3530.48772	0.98199
3528.43391	0.98175
3526.38011	0.98105
3524.32631	0.98092
3522.27250	0.98143
3520.21870	0.98157
3518.16490	0.98130
3516.11109	0.98102
3514.05729	0.98093
3512.00349	0.98141
3509.94968	0.98217
3507.89588	0.98250
3505.84208	0.98257
3503.78827	0.98239
3501.73447	0.98140
3499.68067	0.98036
3497.62687	0.98008
3495.57306	0.98005
3493.51926	0.98025
3491.46546	0.98081
3489.41165	0.98121
3487.35785	0.98111
3485.30405	0.98106
3483.25024	0.98138
3481.19644	0.98160
3479.14264	0.98145
3477.08883	0.98110
3475.03503	0.98097
3472.98123	0.98116
3470.92742	0.98092
3468.87362	0.98021
3466.81982	0.98006
3464.76601	0.98030
3462.71221	0.98003
3460.65841	0.97956
3458.60460	0.97999
3456.55080	0.98085
3454.49700	0.98066
3452.44319	0.97985
3450.38939	0.97946
3448.33559	0.97918
3446.28178	0.97864
3444.22798	0.97838
3442.17418	0.97865
3440.12038	0.97874
3438.06657	0.97854
3436.01277	0.97857
3433.95897	0.97886
3431.90516	0.97913
3429.85136	0.97900
3427.79756	0.97860
3425.74375	0.97817
3423.68995	0.97807
3421.63615	0.97867
3419.58234	0.97929
3417.52854	0.97908
3415.47474	0.97857
3413.42093	0.97834
3411.36713	0.97811
3409.31333	0.97789
3407.25952	0.97806
3405.20572	0.97878
3403.15192	0.97946
3401.09811	0.97913
3399.04431	0.97846
3396.99051	0.97836
3394.93670	0.97853
3392.88290	0.97847
3390.82910	0.97802
3388.77529	0.97758
3386.72149	0.97744
3384.66769	0.97747
3382.61389	0.97765
3380.56008	0.97786
3378.50628	0.97803
3376.45248	0.97805
3374.39867	0.97762
3372.34487	0.97718
3370.29107	0.97741
3368.23726	0.97795
3366.18346	0.97820
3364.12966	0.97804
3362.07585	0.97756
3360.02205	0.97746
3357.96825	0.97795
3355.91444	0.97825
3353.86064	0.97836
3351.80684	0.97845
3349.75303	0.97815
3347.69923	0.97757
3345.64543	0.97714
3343.59162	0.97717
3341.53782	0.97754
3339.48402	0.97781
3337.43021	0.97780
3335.37641	0.97767
3333.32261	0.97782
3331.26881	0.97829
3329.21500	0.97858
3327.16120	0.97854
3325.10740	0.97850
3323.05359	0.97860
3320.99979	0.97888
3318.94599	0.97906
3316.89218	0.97900
3314.83838	0.97899
3312.78458	0.97898
3310.73077	0.97870
3308.67697	0.97853
3306.62317	0.97894
3304.56936	0.97941
3302.51556	0.97922
3300.46176	0.97891
3298.40795	0.97892
3296.35415	0.97863
3294.30035	0.97826
3292.24654	0.97862
3290.19274	0.97912
3288.13894	0.97908
3286.08513	0.97902
3284.03133	0.97916
3281.97753	0.97930
3279.92372	0.97960
3277.86992	0.97980
3275.81612	0.97951
3273.76232	0.97907
3271.70851	0.97879
3269.65471	0.97878
3267.60091	0.97933
3265.54710	0.97960
3263.49330	0.97909
3261.43950	0.97900
3259.38569	0.97930
3257.33189	0.97907
3255.27809	0.97907
3253.22428	0.97953
3251.17048	0.97963
3249.11668	0.97941
3247.06287	0.97940
3245.00907	0.97927
3242.95527	0.97896
3240.90146	0.97890
3238.84766	0.97888
3236.79386	0.97882
3234.74005	0.97868
3232.68625	0.97863
3230.63245	0.97918
3228.57864	0.97977
3226.52484	0.97987
3224.47104	0.97964
3222.41724	0.97935
3220.36343	0.97943
3218.30963	0.97965
3216.25583	0.97949
3214.20202	0.97922
3212.14822	0.97923
3210.09442	0.97959
3208.04061	0.97958
3205.98681	0.97905
3203.93301	0.97896
3201.87920	0.97936
3199.82540	0.97979
3197.77160	0.97995
3195.71779	0.97989
3193.66399	0.97999
3191.61019	0.98033
3189.55638	0.98070
3187.50258	0.98084
3185.44878	0.98080
3183.39497	0.98088
3181.34117	0.98106
3179.28737	0.98105
3177.23356	0.98091
3175.17976	0.98108
3173.12596	0.98146
3171.07215	0.98145
3169.01835	0.98120
3166.96455	0.98106
3164.91075	0.98091
3162.85694	0.98095
3160.80314	0.98113
3158.74934	0.98103
3156.69553	0.98109
3154.64173	0.98188
3152.58793	0.98259
3150.53412	0.98241
3148.48032	0.98193
3146.42652	0.98161
3144.37271	0.98120
3142.31891	0.98078
3140.26511	0.98062
3138.21130	0.98096
3136.15750	0.98165
3134.10370	0.98220
3132.04989	0.98235
3129.99609	0.98223
3127.94229	0.98201
3125.88848	0.98196
3123.83468	0.98218
3121.78088	0.98248
3119.72707	0.98261
3117.67327	0.98249
3115.61947	0.98231
3113.56566	0.98193
3111.51186	0.98159
3109.45806	0.98173
3107.40426	0.98165
3105.35045	0.98110
3103.29665	0.98101
3101.24285	0.98145
3099.18904	0.98161
3097.13524	0.98131
3095.08144	0.98099
3093.02763	0.98097
3090.97383	0.98110
3088.92003	0.98088
3086.86622	0.98023
3084.81242	0.97976
3082.75862	0.97961
3080.70481	0.97967
3078.65101	0.98004
3076.59721	0.98039
3074.54340	0.98042
3072.48960	0.98031
3070.43580	0.97998
3068.38199	0.97971
3066.32819	0.98026
3064.27439	0.98103
3062.22058	0.98082
3060.16678	0.98008
3058.11298	0.98000
3056.05918	0.98035
3054.00537	0.98018
3051.95157	0.97990
3049.89777	0.97992
3047.84396	0.97991
3045.79016	0.97984
3043.73636	0.97973
3041.68255	0.97932
3039.62875	0.97875
3037.57495	0.97867
3035.52114	0.97923
3033.46734	0.97954
3031.41354	0.97912
3029.35973	0.97870
3027.30593	0.97863
3025.25213	0.97875
3023.19832	0.97909
3021.14452	0.97937
3019.09072	0.97901
3017.03691	0.97831
3014.98311	0.97820
3012.92931	0.97871
3010.87550	0.97905
3008.82170	0.97883
3006.76790	0.97831
3004.71409	0.97793
3002.66029	0.97798
3000.60649	0.97814
2998.55269	0.97794
2996.49888	0.97790
2994.44508	0.97808
2992.39128	0.97796
2990.33747	0.97762
2988.28367	0.97698
2986.22987	0.97622
2984.17606	0.97593
2982.12226	0.97598
2980.06846	0.97587
2978.01465	0.97544
2975.96085	0.97460
2973.90705	0.97354
2971.85324	0.97264
2969.79944	0.97190
2967.74564	0.97106
2965.69183	0.96998
2963.63803	0.96853
2961.58423	0.96674
2959.53042	0.96496
2957.47662	0.96332
2955.42282	0.96115
2953.36901	0.95799
2951.31521	0.95438
2949.26141	0.95032
2947.20761	0.94493
2945.15380	0.93775
2943.10000	0.92868
2941.04620	0.91750
2938.99239	0.90425
2936.93859	0.88903
2934.88479	0.87127
2932.83098	0.85010
2930.77718	0.82516
2928.72338	0.79631
2926.66957	0.76257
2924.61577	0.72229
2922.56197	0.67594
2920.50816	0.62795
2918.45436	0.58458
2916.40056	0.55294
2914.34675	0.53981
2912.29295	0.54623
2910.23915	0.56565
2908.18534	0.59041
2906.13154	0.61622
2904.07774	0.64033
2902.02393	0.66134
2899.97013	0.67985
2897.91633	0.69676
2895.86252	0.71232
2893.80872	0.72707
2891.75492	0.74202
2889.70112	0.75751
2887.64731	0.77331
2885.59351	0.78911
2883.53971	0.80481
2881.48590	0.82098
2879.43210	0.83784
2877.37830	0.85453
2875.32449	0.86969
2873.27069	0.88216
2871.21689	0.89104
2869.16308	0.89567
2867.10928	0.89587
2865.05548	0.89159
2863.00167	0.88201
2860.94787	0.86530
2858.89407	0.83895
2856.84026	0.79910
2854.78646	0.74237
2852.73266	0.67147
2850.67885	0.60172
2848.62505	0.55895
2846.57125	0.55985
2844.51744	0.59796
2842.46364	0.65392
2840.40984	0.71080
2838.35603	0.75943
2836.30223	0.79764
2834.24843	0.82684
2832.19463	0.84900
2830.14082	0.86621
2828.08702	0.88008
2826.03322	0.89129
2823.97941	0.90046
2821.92561	0.90815
2819.87181	0.91467
2817.81800	0.92025
2815.76420	0.92487
2813.71040	0.92866
2811.65659	0.93197
2809.60279	0.93494
2807.54899	0.93760
2805.49518	0.94015
2803.44138	0.94268
2801.38758	0.94508
2799.33377	0.94716
2797.27997	0.94877
2795.22617	0.95016
2793.17236	0.95159
2791.11856	0.95314
2789.06476	0.95488
2787.01095	0.95652
2784.95715	0.95782
2782.90335	0.95901
2780.84955	0.96017
2778.79574	0.96121
2776.74194	0.96205
2774.68814	0.96285
2772.63433	0.96386
2770.58053	0.96490
2768.52673	0.96561
2766.47292	0.96606
2764.41912	0.96661
2762.36532	0.96716
2760.31151	0.96725
2758.25771	0.96704
2756.20391	0.96712
2754.15010	0.96774
2752.09630	0.96850
2750.04250	0.96899
2747.98869	0.96938
2745.93489	0.96979
2743.88109	0.96988
2741.82728	0.96962
2739.77348	0.96936
2737.71968	0.96939
2735.66587	0.96982
2733.61207	0.97030
2731.55827	0.97047
2729.50446	0.97068
2727.45066	0.97118
2725.39686	0.97160
2723.34306	0.97200
2721.28925	0.97257
2719.23545	0.97272
2717.18165	0.97234
2715.12784	0.97211
2713.07404	0.97248
2711.02024	0.97310
2708.96643	0.97326
2706.91263	0.97301
2704.85883	0.97301
2702.80502	0.97345
2700.75122	0.97387
2698.69742	0.97386
2696.64361	0.97374
2694.58981	0.97410
2692.53601	0.97468
2690.48220	0.97487
2688.42840	0.97463
2686.37460	0.97447
2684.32079	0.97450
2682.26699	0.97440
2680.21319	0.97426
2678.15938	0.97431
2676.10558	0.97433
2674.05178	0.97417
2671.99797	0.97382
2669.94417	0.97331
2667.89037	0.97304
2665.83657	0.97301
2663.78276	0.97285
2661.72896	0.97279
2659.67516	0.97295
2657.62135	0.97310
2655.56755	0.97336
2653.51375	0.97361
2651.45994	0.97357
2649.40614	0.97361
2647.35234	0.97383
2645.29853	0.97384
2643.24473	0.97354
2641.19093	0.97304
2639.13712	0.97257
2637.08332	0.97237
2635.02952	0.97235
2632.97571	0.97259
2630.92191	0.97320
2628.86811	0.97386
2626.81430	0.97438
2624.76050	0.97467
2622.70670	0.97464
2620.65289	0.97457
2618.59909	0.97481
2616.54529	0.97517
2614.49149	0.97548
2612.43768	0.97611
2610.38388	0.97717
2608.33008	0.97779
2606.27627	0.97745
2604.22247	0.97723
2602.16867	0.97764
2600.11486	0.97806
2598.06106	0.97846
2596.00726	0.97898
2593.95345	0.97917
2591.89965	0.97901
2589.84585	0.97912
2587.79204	0.97951
2585.73824	0.97958
2583.68444	0.97947
2581.63063	0.98003
2579.57683	0.98106
2577.52303	0.98166
2575.46922	0.98170
2573.41542	0.98131
2571.36162	0.98094
2569.30781	0.98105
2567.25401	0.98159
2565.20021	0.98208
2563.14640	0.98229
2561.09260	0.98243
2559.03880	0.98243
2556.98500	0.98227
2554.93119	0.98187
2552.87739	0.98152
2550.82359	0.98159
2548.76978	0.98176
2546.71598	0.98207
2544.66218	0.98248
2542.60837	0.98244
2540.55457	0.98231
2538.50077	0.98256
2536.44696	0.98252
2534.39316	0.98210
2532.33936	0.98202
2530.28555	0.98230
2528.23175	0.98209
2526.17795	0.98141
2524.12414	0.98160
2522.07034	0.98273
2520.01654	0.98333
2517.96273	0.98321
2515.90893	0.98364
2513.85513	0.98431
2511.80132	0.98364
2509.74752	0.98244
2507.69372	0.98246
2505.63992	0.98295
2503.58611	0.98290
2501.53231	0.98312
2499.47851	0.98387
2497.42470	0.98420
2495.37090	0.98395
2493.31710	0.98365
2491.26329	0.98356
2489.20949	0.98357
2487.15569	0.98356
2485.10188	0.98356
2483.04808	0.98338
2480.99428	0.98336
2478.94047	0.98404
2476.88667	0.98484
2474.83287	0.98517
2472.77906	0.98530
2470.72526	0.98528
2468.67146	0.98471
2466.61765	0.98409
2464.56385	0.98455
2462.51005	0.98544
2460.45624	0.98545
2458.40244	0.98476
2456.34864	0.98414
2454.29483	0.98393
2452.24103	0.98414
2450.18723	0.98449
2448.13343	0.98464
2446.07962	0.98475
2444.02582	0.98502
2441.97202	0.98507
2439.91821	0.98489
2437.86441	0.98500
2435.81061	0.98514
2433.75680	0.98511
2431.70300	0.98520
2429.64920	0.98508
2427.59539	0.98487
2425.54159	0.98484
2423.48779	0.98460
2421.43398	0.98436
2419.38018	0.98449
2417.32638	0.98462
2415.27257	0.98470
2413.21877	0.98471
2411.16497	0.98422
2409.11116	0.98359
2407.05736	0.98348
2405.00356	0.98372
2402.94975	0.98384
2400.89595	0.98423
2398.84215	0.98491
2396.78834	0.98527
2394.73454	0.98526
2392.68074	0.98510
2390.62694	0.98501
2388.57313	0.98498
2386.51933	0.98498
2384.46553	0.98510
2382.41172	0.98528
2380.35792	0.98531
2378.30412	0.98517
2376.25031	0.98515
2374.19651	0.98560
2372.14271	0.98618
2370.08890	0.98569
2368.03510	0.98411
2365.98130	0.98317
2363.92749	0.98333
2361.87369	0.98352
2359.81989	0.98334
2357.76608	0.98307
2355.71228	0.98280
2353.65848	0.98239
2351.60467	0.98227
2349.55087	0.98251
2347.49707	0.98290
2345.44326	0.98326
2343.38946	0.98281
2341.33566	0.98152
2339.28186	0.98091
2337.22805	0.98112
2335.17425	0.98141
2333.12045	0.98197
2331.06664	0.98223
2329.01284	0.98190
2326.95904	0.98128
2324.90523	0.98010
2322.85143	0.97924
2320.79763	0.98024
2318.74382	0.98228
2316.69002	0.98332
2314.63622	0.98294
2312.58241	0.98228
2310.52861	0.98241
2308.47481	0.98292
2306.42100	0.98309
2304.36720	0.98299
2302.31340	0.98296
2300.25959	0.98299
2298.20579	0.98278
2296.15199	0.98244
2294.09818	0.98209
2292.04438	0.98143
2289.99058	0.98057
2287.93677	0.98058
2285.88297	0.98178
2283.82917	0.98286
2281.77537	0.98325
2279.72156	0.98334
2277.66776	0.98309
2275.61396	0.98285
2273.56015	0.98343
2271.50635	0.98445
2269.45255	0.98503
2267.39874	0.98552
2265.34494	0.98561
2263.29114	0.98457
2261.23733	0.98417
2259.18353	0.98494
2257.12973	0.98477
2255.07592	0.98405
2253.02212	0.98452
2250.96832	0.98488
2248.91451	0.98459
2246.86071	0.98544
2244.80691	0.98603
2242.75310	0.98482
2240.69930	0.98389
2238.64550	0.98438
2236.59169	0.98495
2234.53789	0.98478
2232.48409	0.98497
2230.43029	0.98605
2228.37648	0.98700
2226.32268	0.98684
2224.26888	0.98533
2222.21507	0.98411
2220.16127	0.98456
2218.10747	0.98515
2216.05366	0.98517
2213.99986	0.98573
2211.94606	0.98740
2209.89225	0.98897
2207.83845	0.98875
2205.78465	0.98777
2203.73084	0.98753
2201.67704	0.98752
2199.62324	0.98719
2197.56943	0.98655
2195.51563	0.98607
2193.46183	0.98563
2191.40802	0.98443
2189.35422	0.98359
2187.30042	0.98395
2185.24661	0.98527
2183.19281	0.98728
2181.13901	0.98848
2179.08520	0.98878
2177.03140	0.98832
2174.97760	0.98698
2172.92380	0.98595
2170.86999	0.98509
2168.81619	0.98404
2166.76239	0.98436
2164.70858	0.98599
2162.65478	0.98503
2160.60098	0.98329
2158.54717	0.98797
2156.49337	0.99411
2154.43957	0.99315
2152.38576	0.98991
2150.33196	0.98983
2148.27816	0.98976
2146.22435	0.98773
2144.17055	0.98717
2142.11675	0.98904
2140.06294	0.99050
2138.00914	0.99000
2135.95534	0.98898
2133.90153	0.98877
2131.84773	0.98815
2129.79393	0.98774
2127.74012	0.98889
2125.68632	0.98901
2123.63252	0.98719
2121.57871	0.98624
2119.52491	0.98685
2117.47111	0.98727
2115.41731	0.98660
2113.36350	0.98579
2111.30970	0.98600
2109.25590	0.98647
2107.20209	0.98599
2105.14829	0.98513
2103.09449	0.98478
2101.04068	0.98539
2098.98688	0.98704
2096.93308	0.98865
2094.87927	0.98891
2092.82547	0.98782
2090.77167	0.98641
2088.71786	0.98534
2086.66406	0.98483
2084.61026	0.98534
2082.55645	0.98692
2080.50265	0.98838
2078.44885	0.98821
2076.39504	0.98710
2074.34124	0.98665
2072.28744	0.98638
2070.23363	0.98585
2068.17983	0.98565
2066.12603	0.98577
2064.07223	0.98694
2062.01842	0.98862
2059.96462	0.98827
2057.91082	0.98644
2055.85701	0.98520
2053.80321	0.98429
2051.74941	0.98337
2049.69560	0.98331
2047.64180	0.98464
2045.58800	0.98603
2043.53419	0.98611
2041.48039	0.98527
2039.42659	0.98425
2037.37278	0.98332
2035.31898	0.98413
2033.26518	0.98750
2031.21137	0.98952
2029.15757	0.98822
2027.10377	0.98718
2025.04996	0.98824
2022.99616	0.98890
2020.94236	0.98740
2018.88855	0.98513
2016.83475	0.98357
2014.78095	0.98279
2012.72714	0.98347
2010.67334	0.98493
2008.61954	0.98656
2006.56574	0.98908
2004.51193	0.99051
2002.45813	0.98994
2000.40433	0.98888
1998.35052	0.98772
1996.29672	0.98656
1994.24292	0.98587
1992.18911	0.98595
1990.13531	0.98631
1988.08151	0.98588
1986.02770	0.98461
1983.97390	0.98329
1981.92010	0.98275
1979.86629	0.98351
1977.81249	0.98461
1975.75869	0.98587
1973.70488	0.98711
1971.65108	0.98658
1969.59728	0.98496
1967.54347	0.98462
1965.48967	0.98639
1963.43587	0.98776
1961.38206	0.98775
1959.32826	0.98803
1957.27446	0.98859
1955.22066	0.98846
1953.16685	0.98782
1951.11305	0.98784
1949.05925	0.98808
1947.00544	0.98686
1944.95164	0.98484
1942.89784	0.98433
1940.84403	0.98505
1938.79023	0.98571
1936.73643	0.98647
1934.68262	0.98688
1932.62882	0.98656
1930.57502	0.98632
1928.52121	0.98672
1926.46741	0.98713
1924.41361	0.98709
1922.35980	0.98652
1920.30600	0.98625
1918.25220	0.98689
1916.19839	0.98724
1914.14459	0.98693
1912.09079	0.98674
1910.03698	0.98687
1907.98318	0.98684
1905.92938	0.98630
1903.87557	0.98557
1901.82177	0.98518
1899.76797	0.98512
1897.71417	0.98550
1895.66036	0.98637
1893.60656	0.98669
1891.55276	0.98578
1889.49895	0.98494
1887.44515	0.98524
1885.39135	0.98544
1883.33754	0.98523
1881.28374	0.98577
1879.22994	0.98690
1877.17613	0.98746
1875.12233	0.98743
1873.06853	0.98749
1871.01472	0.98722
1868.96092	0.98620
1866.90712	0.98536
1864.85331	0.98512
1862.79951	0.98505
1860.74571	0.98497
1858.69190	0.98493
1856.63810	0.98503
1854.58430	0.98546
1852.53049	0.98632
1850.47669	0.98720
1848.42289	0.98704
1846.36908	0.98600
1844.31528	0.98558
1842.26148	0.98562
1840.20768	0.98498
1838.15387	0.98434
1836.10007	0.98469
1834.04627	0.98516
1831.99246	0.98484
1829.93866	0.98440
1827.88486	0.98456
1825.83105	0.98512
1823.77725	0.98524
1821.72345	0.98486
1819.66964	0.98498
1817.61584	0.98528
1815.56204	0.98526
1813.50823	0.98533
1811.45443	0.98519
1809.40063	0.98481
1807.34682	0.98467
1805.29302	0.98459
1803.23922	0.98442
1801.18541	0.98420
1799.13161	0.98403
1797.07781	0.98389
1795.02400	0.98357
1792.97020	0.98328
1790.91640	0.98342
1788.86260	0.98360
1786.80879	0.98364
1784.75499	0.98351
1782.70119	0.98330
1780.64738	0.98342
1778.59358	0.98360
1776.53978	0.98370
1774.48597	0.98382
1772.43217	0.98332
1770.37837	0.98243
1768.32456	0.98211
1766.27076	0.98193
1764.21696	0.98189
1762.16315	0.98242
1760.10935	0.98290
1758.05555	0.98261
1756.00174	0.98192
1753.94794	0.98125
1751.89414	0.98097
1749.84033	0.98108
1747.78653	0.98062
1745.73273	0.97974
1743.67892	0.97922
1741.62512	0.97874
1739.57132	0.97783
1737.51751	0.97698
1735.46371	0.97683
1733.40991	0.97716
1731.35611	0.97697
1729.30230	0.97603
1727.24850	0.97466
1725.19470	0.97326
1723.14089	0.97180
1721.08709	0.97034
1719.03329	0.96937
1716.97948	0.96887
1714.92568	0.96812
1712.87188	0.96813
1710.81807	0.96928
1708.76427	0.97056
1706.71047	0.97169
1704.65666	0.97295
1702.60286	0.97388
1700.54906	0.97430
1698.49525	0.97453
1696.44145	0.97481
1694.38765	0.97503
1692.33384	0.97529
1690.28004	0.97554
1688.22624	0.97522
1686.17243	0.97426
1684.11863	0.97362
1682.06483	0.97416
1680.01103	0.97484
1677.95722	0.97520
1675.90342	0.97518
1673.84962	0.97471
1671.79581	0.97417
1669.74201	0.97345
1667.68821	0.97267
1665.63440	0.97239
1663.58060	0.97231
1661.52680	0.97223
1659.47299	0.97210
1657.41919	0.97178
1655.36539	0.97140
1653.31158	0.97119
1651.25778	0.97135
1649.20398	0.97150
1647.15017	0.97113
1645.09637	0.97056
1643.04257	0.97045
1640.98876	0.97038
1638.93496	0.96999
1636.88116	0.96937
1634.82735	0.96932
1632.77355	0.96939
1630.71975	0.96900
1628.66594	0.96857
1626.61214	0.96830
1624.55834	0.96793
1622.50454	0.96757
1620.45073	0.96738
1618.39693	0.96710
1616.34313	0.96676
1614.28932	0.96648
1612.23552	0.96616
1610.18172	0.96592
1608.12791	0.96593
1606.07411	0.96597
1604.02031	0.96582
1601.96650	0.96561
1599.91270	0.96542
1597.85890	0.96546
1595.80509	0.96569
1593.75129	0.96593
1591.69749	0.96628
1589.64368	0.96656
1587.58988	0.96654
1585.53608	0.96670
1583.48227	0.96742
1581.42847	0.96847
1579.37467	0.96955
1577.32086	0.97053
1575.26706	0.97136
1573.21326	0.97211
1571.15945	0.97300
1569.10565	0.97408
1567.05185	0.97465
1564.99805	0.97457
1562.94424	0.97418
1560.89044	0.97389
1558.83664	0.97472
1556.78283	0.97601
1554.72903	0.97631
1552.67523	0.97600
1550.62142	0.97555
1548.56762	0.97549
1546.51382	0.97582
1544.46001	0.97621
1542.40621	0.97651
1540.35241	0.97678
1538.29860	0.97692
1536.24480	0.97702
1534.19100	0.97713
1532.13719	0.97692
1530.08339	0.97645
1528.02959	0.97616
1525.97578	0.97612
1523.92198	0.97623
1521.86818	0.97626
1519.81437	0.97613
1517.76057	0.97598
1515.70677	0.97596
1513.65297	0.97595
1511.59916	0.97569
1509.54536	0.97539
1507.49156	0.97540
1505.43775	0.97544
1503.38395	0.97493
1501.33015	0.97429
1499.27634	0.97356
1497.22254	0.97275
1495.16874	0.97202
1493.11493	0.97127
1491.06113	0.97031
1489.00733	0.96905
1486.95352	0.96743
1484.89972	0.96532
1482.84592	0.96195
1480.79211	0.95522
1478.73831	0.93925
1476.68451	0.89916
1474.63070	0.82609
1472.57690	0.75835
1470.52310	0.75724
1468.46929	0.79196
1466.41549	0.81804
1464.36169	0.82317
1462.30788	0.82820
1460.25408	0.85287
1458.20028	0.89148
1456.14648	0.92319
1454.09267	0.93580
1452.03887	0.94208
1449.98507	0.94657
1447.93126	0.94955
1445.87746	0.95161
1443.82366	0.95302
1441.76985	0.95401
1439.71605	0.95492
1437.66225	0.95613
1435.60844	0.95757
1433.55464	0.95873
1431.50084	0.95995
1429.44703	0.96144
1427.39323	0.96262
1425.33943	0.96325
1423.28562	0.96383
1421.23182	0.96439
1419.17802	0.96481
1417.12421	0.96510
1415.07041	0.96514
1413.01661	0.96505
1410.96280	0.96510
1408.90900	0.96551
1406.85520	0.96627
1404.80139	0.96732
1402.74759	0.96801
1400.69379	0.96810
1398.63999	0.96813
1396.58618	0.96852
1394.53238	0.96909
1392.47858	0.96957
1390.42477	0.96974
1388.37097	0.96977
1386.31717	0.96981
1384.26336	0.96979
1382.20956	0.96984
1380.15576	0.96958
1378.10195	0.96865
1376.04815	0.96747
1373.99435	0.96624
1371.94054	0.96497
1369.88674	0.96404
1367.83294	0.96377
1365.77913	0.96420
1363.72533	0.96506
1361.67153	0.96614
1359.61772	0.96683
1357.56392	0.96700
1355.51012	0.96723
1353.45631	0.96768
1351.40251	0.96811
1349.34871	0.96837
1347.29491	0.96858
1345.24110	0.96882
1343.18730	0.96918
1341.13350	0.96969
1339.07969	0.97029
1337.02589	0.97090
1334.97209	0.97131
1332.91828	0.97150
1330.86448	0.97155
1328.81068	0.97131
1326.75687	0.97066
1324.70307	0.97005
1322.64927	0.96982
1320.59546	0.96963
1318.54166	0.96929
1316.48786	0.96888
1314.43405	0.96835
1312.38025	0.96798
1310.32645	0.96801
1308.27264	0.96809
1306.21884	0.96812
1304.16504	0.96813
1302.11123	0.96792
1300.05743	0.96774
1298.00363	0.96781
1295.94982	0.96788
1293.89602	0.96793
1291.84222	0.96798
1289.78842	0.96776
1287.73461	0.96737
1285.68081	0.96712
1283.62701	0.96689
1281.57320	0.96680
1279.51940	0.96706
1277.46560	0.96730
1275.41179	0.96734
1273.35799	0.96745
1271.30419	0.96761
1269.25038	0.96756
1267.19658	0.96730
1265.14278	0.96701
1263.08897	0.96683
1261.03517	0.96689
1258.98137	0.96713
1256.92756	0.96738
1254.87376	0.96757
1252.81996	0.96763
1250.76615	0.96740
1248.71235	0.96694
1246.65855	0.96672
1244.60474	0.96667
1242.55094	0.96659
1240.49714	0.96667
1238.44334	0.96670
1236.38953	0.96642
1234.33573	0.96594
1232.28193	0.96543
1230.22812	0.96512
1228.17432	0.96512
1226.12052	0.96510
1224.06671	0.96470
1222.01291	0.96397
1219.95911	0.96313
1217.90530	0.96241
1215.85150	0.96184
1213.79770	0.96120
1211.74389	0.96049
1209.69009	0.95983
1207.63629	0.95910
1205.58248	0.95821
1203.52868	0.95726
1201.47488	0.95636
1199.42107	0.95540
1197.36727	0.95419
1195.31347	0.95285
1193.25966	0.95170
1191.20586	0.95056
1189.15206	0.94919
1187.09825	0.94792
1185.04445	0.94666
1182.99065	0.94530
1180.93685	0.94397
1178.88304	0.94224
1176.82924	0.94008
1174.77544	0.93851
1172.72163	0.93749
1170.66783	0.93607
1168.61403	0.93452
1166.56022	0.93357
1164.50642	0.93315
1162.45262	0.93302
1160.39881	0.93300
1158.34501	0.93278
1156.29121	0.93245
1154.23740	0.93206
1152.18360	0.93142
1150.12980	0.93069
1148.07599	0.92991
1146.02219	0.92904
1143.96839	0.92819
1141.91458	0.92742
1139.86078	0.92670
1137.80698	0.92588
1135.75317	0.92515
1133.69937	0.92466
1131.64557	0.92406
1129.59176	0.92289
1127.53796	0.92134
1125.48416	0.92005
1123.43036	0.91932
1121.37655	0.91879
1119.32275	0.91823
1117.26895	0.91773
1115.21514	0.91752
1113.16134	0.91743
1111.10754	0.91693
1109.05373	0.91612
1106.99993	0.91532
1104.94613	0.91442
1102.89232	0.91338
1100.83852	0.91293
1098.78472	0.91298
1096.73091	0.91255
1094.67711	0.91179
1092.62331	0.91147
1090.56950	0.91175
1088.51570	0.91225
1086.46190	0.91282
1084.40809	0.91363
1082.35429	0.91448
1080.30049	0.91513
1078.24668	0.91571
1076.19288	0.91656
1074.13908	0.91782
1072.08528	0.91909
1070.03147	0.91983
1067.97767	0.91987
1065.92387	0.91952
1063.87006	0.91914
1061.81626	0.91892
1059.76246	0.91875
1057.70865	0.91824
1055.65485	0.91758
1053.60105	0.91721
1051.54724	0.91708
1049.49344	0.91682
1047.43964	0.91649
1045.38583	0.91639
1043.33203	0.91612
1041.27823	0.91533
1039.22442	0.91487
1037.17062	0.91514
1035.11682	0.91542
1033.06301	0.91550
1031.00921	0.91593
1028.95541	0.91669
1026.90160	0.91745
1024.84780	0.91810
1022.79400	0.91855
1020.74019	0.91917
1018.68639	0.92003
1016.63259	0.92035
1014.57879	0.92026
1012.52498	0.92067
1010.47118	0.92128
1008.41738	0.92142
1006.36357	0.92160
1004.30977	0.92235
1002.25597	0.92340
1000.20216	0.92425
998.14836	0.92511
996.09456	0.92623
994.04075	0.92737
991.98695	0.92864
989.93315	0.93001
987.87934	0.93132
985.82554	0.93275
983.77174	0.93439
981.71793	0.93639
979.66413	0.93865
977.61033	0.94067
975.55652	0.94205
973.50272	0.94302
971.44892	0.94405
969.39511	0.94536
967.34131	0.94683
965.28751	0.94826
963.23371	0.94944
961.17990	0.95043
959.12610	0.95174
957.07230	0.95303
955.01849	0.95352
952.96469	0.95371
950.91089	0.95434
948.85708	0.95513
946.80328	0.95589
944.74948	0.95681
942.69567	0.95792
940.64187	0.95880
938.58807	0.95897
936.53426	0.95905
934.48046	0.95973
932.42666	0.96042
930.37285	0.96091
928.31905	0.96139
926.26525	0.96175
924.21144	0.96239
922.15764	0.96297
920.10384	0.96320
918.05003	0.96346
915.99623	0.96338
913.94243	0.96277
911.88862	0.96195
909.83482	0.96141
907.78102	0.96167
905.72722	0.96266
903.67341	0.96409
901.61961	0.96539
899.56581	0.96635
897.51200	0.96733
895.45820	0.96809
893.40440	0.96812
891.35059	0.96788
889.29679	0.96830
887.24299	0.96916
885.18918	0.96928
883.13538	0.96876
881.08158	0.96837
879.02777	0.96792
876.97397	0.96734
874.92017	0.96712
872.86636	0.96741
870.81256	0.96776
868.75876	0.96816
866.70495	0.96855
864.65115	0.96872
862.59735	0.96928
860.54354	0.97012
858.48974	0.97066
856.43594	0.97097
854.38213	0.97112
852.32833	0.97124
850.27453	0.97122
848.22073	0.97083
846.16692	0.97054
844.11312	0.97067
842.05932	0.97102
840.00551	0.97105
837.95171	0.97088
835.89791	0.97158
833.84410	0.97252
831.79030	0.97202
829.73650	0.97079
827.68269	0.97026
825.62889	0.97028
823.57509	0.97032
821.52128	0.96998
819.46748	0.96943
817.41368	0.96917
815.35987	0.96908
813.30607	0.96888
811.25227	0.96800
809.19846	0.96632
807.14466	0.96431
805.09086	0.96202
803.03705	0.95969
800.98325	0.95830
798.92945	0.95812
796.87565	0.95818
794.82184	0.95832
792.76804	0.95918
790.71424	0.95999
788.66043	0.95973
786.60663	0.95906
784.55283	0.95819
782.49902	0.95725
780.44522	0.95742
778.39142	0.95809
776.33761	0.95823
774.28381	0.95871
772.23001	0.95998
770.17620	0.96107
768.12240	0.96132
766.06860	0.96133
764.01479	0.96147
761.96099	0.96159
759.90719	0.96163
757.85338	0.96147
755.79958	0.96134
753.74578	0.96135
751.69197	0.96075
749.63817	0.95938
747.58437	0.95845
745.53056	0.95843
743.47676	0.95825
741.42296	0.95674
739.36916	0.95395
737.31535	0.94840
735.26155	0.93175
733.20775	0.89752
731.15394	0.86472
729.10014	0.86075
727.04634	0.87484
724.99253	0.87579
722.93873	0.84962
720.88493	0.79812
718.83112	0.74353
716.77732	0.72241
714.72352	0.75220
712.66971	0.81291
710.61591	0.86731
708.56211	0.90003
706.50830	0.91786
704.45450	0.92878
702.40070	0.93607
700.34689	0.94080
698.29309	0.94376
696.23929	0.94578
694.18548	0.94760
692.13168	0.94939
690.07788	0.95046
688.02408	0.95063
685.97027	0.95134
683.91647	0.95300
681.86267	0.95377
679.80886	0.95352
677.75506	0.95425
675.70126	0.95596
673.64745	0.95692
671.59365	0.95634
669.53985	0.95519
667.48604	0.95610
665.43224	0.95745
663.37844	0.95680
661.32463	0.95564
659.27083	0.95530
657.21703	0.95504
655.16322	0.95410
653.10942	0.95311
651.05562	0.95246
649.00181	0.95209
646.94801	0.95203
644.89421	0.95241
642.84040	0.95314
640.78660	0.95413
638.73280	0.95565
636.67899	0.95677
634.62519	0.95711
632.57139	0.95752
630.51759	0.95760
628.46378	0.95685
626.40998	0.95559
624.35618	0.95479
622.30237	0.95527
620.24857	0.95533
618.19477	0.95335
616.14096	0.95065
614.08716	0.94961
612.03336	0.95040
609.97955	0.95037
607.92575	0.94865
605.87195	0.94681
603.81814	0.94538
601.76434	0.94413
599.71054	0.94309
597.65673	0.94291
595.60293	0.94389
593.54913	0.94524
591.49532	0.94511
589.44152	0.94330
587.38772	0.94292
585.33391	0.94472
583.28011	0.94602
581.22631	0.94561
579.17250	0.94457
577.11870	0.94460
575.06490	0.94509
573.01110	0.94435
570.95729	0.94509
568.90349	0.94883
566.84969	0.95179
564.79588	0.95157
562.74208	0.94957
560.68828	0.94764
558.63447	0.94625
556.58067	0.94544
554.52687	0.94543
552.47306	0.94646
550.41926	0.94741
548.36546	0.94696
546.31165	0.94592
544.25785	0.94517
542.20405	0.94508
540.15024	0.94545
538.09644	0.94528
536.04264	0.94547
533.98883	0.94734
531.93503	0.94739
529.88123	0.94424
527.82742	0.94230
525.77362	0.94334
523.71982	0.94495
521.66602	0.94431
519.61221	0.94249
517.55841	0.94259
515.50461	0.94408
513.45080	0.94529
511.39700	0.94587
509.34320	0.94585
507.28939	0.94531
505.23559	0.94305
503.18179	0.94031
501.12798	0.94082
499.07418	0.94360
497.02038	0.94508
494.96657	0.94513
492.91277	0.94629
490.85897	0.94725
488.80516	0.94547
486.75136	0.94272
484.69756	0.94030
482.64375	0.93854
480.58995	0.93574
478.53615	0.93240
476.48234	0.93090
474.42854	0.92788
472.37474	0.92237
470.32093	0.92039
468.26713	0.92170
466.21333	0.92184
464.15953	0.92287
462.10572	0.92668
460.05192	0.92876
457.99812	0.92790
455.94431	0.92913
453.89051	0.93262
451.83671	0.93533
449.78290	0.93645
447.72910	0.93725
445.67530	0.93789
443.62149	0.93644
441.56769	0.93371
439.51389	0.93222
437.46008	0.93213
435.40628	0.93245
433.35248	0.93282
431.29867	0.93221
429.24487	0.93235
427.19107	0.93531
425.13726	0.93699
423.08346	0.93738
421.02966	0.94081
418.97585	0.94663
416.92205	0.94601
414.86825	0.93887
412.81445	0.93569
410.76064	0.94110
408.70684	0.94961
406.65304	0.95293
404.59923	0.94816
402.54543	0.94138
400.49163	0.94065
398.43782	0.94001
