3996.70104	0.95764
3994.64724	0.95710
3992.59344	0.95689
3990.53964	0.95732
3988.48583	0.95735
3986.43203	0.95695
3984.37823	0.95664
3982.32442	0.95619
3980.27062	0.95586
3978.21682	0.95592
3976.16301	0.95605
3974.10921	0.95616
3972.05541	0.95612
3970.00160	0.95629
3967.94780	0.95688
3965.89400	0.95719
3963.84019	0.95705
3961.78639	0.95672
3959.73259	0.95645
3957.67878	0.95679
3955.62498	0.95737
3953.57118	0.95729
3951.51737	0.95687
3949.46357	0.95698
3947.40977	0.95747
3945.35596	0.95771
3943.30216	0.95738
3941.24836	0.95651
3939.19455	0.95587
3937.14075	0.95611
3935.08695	0.95684
3933.03315	0.95714
3930.97934	0.95697
3928.92554	0.95703
3926.87174	0.95714
3924.81793	0.95698
3922.76413	0.95657
3920.71033	0.95634
3918.65652	0.95653
3916.60272	0.95672
3914.54892	0.95705
3912.49511	0.95754
3910.44131	0.95751
3908.38751	0.95716
3906.33370	0.95716
3904.27990	0.95768
3902.22610	0.95839
3900.17229	0.95860
3898.11849	0.95792
3896.06469	0.95707
3894.01088	0.95654
3891.95708	0.95616
3889.90328	0.95624
3887.84947	0.95692
3885.79567	0.95741
3883.74187	0.95723
3881.68807	0.95708
3879.63426	0.95735
3877.58046	0.95730
3875.52666	0.95696
3873.47285	0.95714
3871.41905	0.95755
3869.36525	0.95739
3867.31144	0.95699
3865.25764	0.95673
3863.20384	0.95681
3861.15003	0.95740
3859.09623	0.95800
3857.04243	0.95805
3854.98862	0.95735
3852.93482	0.95632
3850.88102	0.95628
3848.82721	0.95688
3846.77341	0.95746
3844.71961	0.95769
3842.66580	0.95770
3840.61200	0.95767
3838.55820	0.95735
3836.50439	0.95725
3834.45059	0.95768
3832.39679	0.95788
3830.34298	0.95742
3828.28918	0.95673
3826.23538	0.95659
3824.18158	0.95716
3822.12777	0.95771
3820.07397	0.95777
3818.02017	0.95784
3815.96636	0.95809
3813.91256	0.95802
3811.85876	0.95790
3809.80495	0.95812
3807.75115	0.95822
3805.69735	0.95766
3803.64354	0.95710
3801.58974	0.95773
3799.53594	0.95873
3797.48213	0.95858
3795.42833	0.95818
3793.37453	0.95845
3791.32072	0.95885
3789.26692	0.95897
3787.21312	0.95918
3785.15931	0.95956
3783.10551	0.95963
3781.05171	0.95942
3778.99790	0.95920
3776.94410	0.95858
3774.89030	0.95775
3772.83650	0.95732
3770.78269	0.95739
3768.72889	0.95755
3766.67509	0.95766
3764.62128	0.95807
3762.56748	0.95832
3760.51368	0.95839
3758.45987	0.95882
3756.40607	0.95927
3754.35227	0.95901
3752.29846	0.95817
3750.24466	0.95810
3748.19086	0.95897
3746.13705	0.95971
3744.08325	0.96031
3742.02945	0.96003
3739.97564	0.95908
3737.92184	0.95823
3735.86804	0.95786
3733.81423	0.95889
3731.76043	0.96054
3729.70663	0.96106
3727.65282	0.96060
3725.59902	0.95971
3723.54522	0.95898
3721.49141	0.95872
3719.43761	0.95882
3717.38381	0.95909
3715.33001	0.95888
3713.27620	0.95789
3711.22240	0.95668
3709.16860	0.95555
3707.11479	0.95459
3705.06099	0.95400
3703.00719	0.95370
3700.95338	0.95324
3698.89958	0.95235
3696.84578	0.95182
3694.79197	0.95199
3692.73817	0.95241
3690.68437	0.95311
3688.63056	0.95434
3686.57676	0.95505
3684.52296	0.95516
3682.46915	0.95509
3680.41535	0.95488
3678.36155	0.95491
3676.30774	0.95467
3674.25394	0.95440
3672.20014	0.95551
3670.14633	0.95683
3668.09253	0.95685
3666.03873	0.95631
3663.98492	0.95588
3661.93112	0.95507
3659.87732	0.95378
3657.82352	0.95267
3655.76971	0.95241
3653.71591	0.95260
3651.66211	0.95256
3649.60830	0.95266
3647.55450	0.95266
3645.50070	0.95214
3643.44689	0.95205
3641.39309	0.95188
3639.33929	0.95079
3637.28548	0.94990
3635.23168	0.95009
3633.17788	0.95066
3631.12407	0.95091
3629.07027	0.95094
3627.01647	0.95058
3624.96266	0.94957
3622.90886	0.94864
3620.85506	0.94813
3618.80125	0.94811
3616.74745	0.94842
3614.69365	0.94856
3612.63984	0.94881
3610.58604	0.94898
3608.53224	0.94868
3606.47844	0.94855
3604.42463	0.94896
3602.37083	0.94903
3600.31703	0.94818
3598.26322	0.94719
3596.20942	0.94697
3594.15562	0.94768
3592.10181	0.94837
3590.04801	0.94840
3587.99421	0.94831
3585.94040	0.94831
3583.88660	0.94804
3581.83280	0.94740
3579.77899	0.94695
3577.72519	0.94728
3575.67139	0.94767
3573.61758	0.94754
3571.56378	0.94714
3569.50998	0.94680
3567.45617	0.94669
3565.40237	0.94623
3563.34857	0.94560
3561.29476	0.94533
3559.24096	0.94526
3557.18716	0.94523
3555.13335	0.94521
3553.07955	0.94526
3551.02575	0.94534
3548.97195	0.94519
3546.91814	0.94521
3544.86434	0.94558
3542.81054	0.94554
3540.75673	0.94506
3538.70293	0.94422
3536.64913	0.94315
3534.59532	0.94252
3532.54152	0.94240
3530.48772	0.94246
3528.43391	0.94289
3526.38011	0.94330
3524.32631	0.94316
3522.27250	0.94288
3520.21870	0.94272
3518.16490	0.94264
3516.11109	0.94256
3514.05729	0.94217
3512.00349	0.94182
3509.94968	0.94187
3507.89588	0.94183
3505.84208	0.94142
3503.78827	0.94053
3501.73447	0.93949
3499.68067	0.93919
3497.62687	0.93959
3495.57306	0.93965
3493.51926	0.93935
3491.46546	0.93955
3489.41165	0.93978
3487.35785	0.93962
3485.30405	0.93932
3483.25024	0.93892
3481.19644	0.93865
3479.14264	0.93835
3477.08883	0.93755
3475.03503	0.93678
3472.98123	0.93676
3470.92742	0.93698
3468.87362	0.93682
3466.81982	0.93659
3464.76601	0.93635
3462.71221	0.93584
3460.65841	0.93588
3458.60460	0.93651
3456.55080	0.93669
3454.49700	0.93634
3452.44319	0.93591
3450.38939	0.93531
3448.33559	0.93486
3446.28178	0.93500
3444.22798	0.93471
3442.17418	0.93375
3440.12038	0.93337
3438.06657	0.93389
3436.01277	0.93455
3433.95897	0.93472
3431.90516	0.93436
3429.85136	0.93401
3427.79756	0.93418
3425.74375	0.93424
3423.68995	0.93365
3421.63615	0.93314
3419.58234	0.93317
3417.52854	0.93315
3415.47474	0.93321
3413.42093	0.93366
3411.36713	0.93398
3409.31333	0.93393
3407.25952	0.93368
3405.20572	0.93339
3403.15192	0.93317
3401.09811	0.93307
3399.04431	0.93292
3396.99051	0.93276
3394.93670	0.93270
3392.88290	0.93247
3390.82910	0.93206
3388.77529	0.93200
3386.72149	0.93248
3384.66769	0.93288
3382.61389	0.93281
3380.56008	0.93246
3378.50628	0.93193
3376.45248	0.93159
3374.39867	0.93158
3372.34487	0.93132
3370.29107	0.93103
3368.23726	0.93154
3366.18346	0.93195
3364.12966	0.93157
3362.07585	0.93120
3360.02205	0.93121
3357.96825	0.93141
3355.91444	0.93150
3353.86064	0.93131
3351.80684	0.93105
3349.75303	0.93091
3347.69923	0.93103
3345.64543	0.93128
3343.59162	0.93121
3341.53782	0.93091
3339.48402	0.93066
3337.43021	0.93046
3335.37641	0.93046
3333.32261	0.93086
3331.26881	0.93158
3329.21500	0.93195
3327.16120	0.93175
3325.10740	0.93169
3323.05359	0.93191
3320.99979	0.93169
3318.94599	0.93119
3316.89218	0.93100
3314.83838	0.93101
3312.78458	0.93112
3310.73077	0.93134
3308.67697	0.93135
3306.62317	0.93112
3304.56936	0.93109
3302.51556	0.93119
3300.46176	0.93105
3298.40795	0.93107
3296.35415	0.93154
3294.30035	0.93200
3292.24654	0.93222
3290.19274	0.93231
3288.13894	0.93223
3286.08513	0.93193
3284.03133	0.93168
3281.97753	0.93171
3279.92372	0.93187
3277.86992	0.93194
3275.81612	0.93194
3273.76232	0.93194
3271.70851	0.93196
3269.65471	0.93212
3267.60091	0.93233
3265.54710	0.93246
3263.49330	0.93263
3261.43950	0.93277
3259.38569	0.93279
3257.33189	0.93277
3255.27809	0.93283
3253.22428	0.93342
3251.17048	0.93409
3249.11668	0.93388
3247.06287	0.93339
3245.00907	0.93354
3242.95527	0.93398
3240.90146	0.93409
3238.84766	0.93423
3236.79386	0.93484
3234.74005	0.93533
3232.68625	0.93535
3230.63245	0.93537
3228.57864	0.93555
3226.52484	0.93567
3224.47104	0.93564
3222.41724	0.93559
3220.36343	0.93551
3218.30963	0.93541
3216.25583	0.93548
3214.20202	0.93583
3212.14822	0.93620
3210.09442	0.93635
3208.04061	0.93655
3205.98681	0.93690
3203.93301	0.93708
3201.87920	0.93690
3199.82540	0.93679
3197.77160	0.93711
3195.71779	0.93744
3193.66399	0.93765
3191.61019	0.93791
3189.55638	0.93809
3187.50258	0.93823
3185.44878	0.93842
3183.39497	0.93859
3181.34117	0.93870
3179.28737	0.93880
3177.23356	0.93887
3175.17976	0.93907
3173.12596	0.93938
3171.07215	0.93969
3169.01835	0.94010
3166.96455	0.94056
3164.91075	0.94071
3162.85694	0.94049
3160.80314	0.94026
3158.74934	0.94010
3156.69553	0.94010
3154.64173	0.94057
3152.58793	0.94152
3150.53412	0.94245
3148.48032	0.94288
3146.42652	0.94267
3144.37271	0.94190
3142.31891	0.94137
3140.26511	0.94151
3138.21130	0.94183
3136.15750	0.94202
3134.10370	0.94224
3132.04989	0.94253
3129.99609	0.94281
3127.94229	0.94322
3125.88848	0.94370
3123.83468	0.94382
3121.78088	0.94343
3119.72707	0.94332
3117.67327	0.94384
3115.61947	0.94432
3113.56566	0.94454
3111.51186	0.94458
3109.45806	0.94428
3107.40426	0.94402
3105.35045	0.94418
3103.29665	0.94442
3101.24285	0.94441
3099.18904	0.94435
3097.13524	0.94433
3095.08144	0.94419
3093.02763	0.94402
3090.97383	0.94413
3088.92003	0.94410
3086.86622	0.94362
3084.81242	0.94345
3082.75862	0.94392
3080.70481	0.94449
3078.65101	0.94491
3076.59721	0.94538
3074.54340	0.94558
3072.48960	0.94519
3070.43580	0.94465
3068.38199	0.94426
3066.32819	0.94413
3064.27439	0.94463
3062.22058	0.94523
3060.16678	0.94530
3058.11298	0.94538
3056.05918	0.94569
3054.00537	0.94573
3051.95157	0.94571
3049.89777	0.94614
3047.84396	0.94651
3045.79016	0.94619
3043.73636	0.94580
3041.68255	0.94580
3039.62875	0.94591
3037.57495	0.94606
3035.52114	0.94614
3033.46734	0.94603
3031.41354	0.94619
3029.35973	0.94668
3027.30593	0.94707
3025.25213	0.94726
3023.19832	0.94741
3021.14452	0.94769
3019.09072	0.94823
3017.03691	0.94886
3014.98311	0.94894
3012.92931	0.94817
3010.87550	0.94726
3008.82170	0.94700
3006.76790	0.94741
3004.71409	0.94773
3002.66029	0.94766
3000.60649	0.94766
2998.55269	0.94781
2996.49888	0.94779
2994.44508	0.94742
2992.39128	0.94696
2990.33747	0.94681
2988.28367	0.94688
2986.22987	0.94687
2984.17606	0.94667
2982.12226	0.94610
2980.06846	0.94516
2978.01465	0.94438
2975.96085	0.94352
2973.90705	0.94206
2971.85324	0.94076
2969.79944	0.94001
2967.74564	0.93896
2965.69183	0.93721
2963.63803	0.93529
2961.58423	0.93355
2959.53042	0.93171
2957.47662	0.92964
2955.42282	0.92769
2953.36901	0.92597
2951.31521	0.92411
2949.26141	0.92172
2947.20761	0.91812
2945.15380	0.91238
2943.10000	0.90415
2941.04620	0.89379
2938.99239	0.88118
2936.93859	0.86604
2934.88479	0.84843
2932.83098	0.82782
2930.77718	0.80338
2928.72338	0.77452
2926.66957	0.74020
2924.61577	0.69894
2922.56197	0.65067
2920.50816	0.59761
2918.45436	0.54521
2916.40056	0.50425
2914.34675	0.48757
2912.29295	0.49983
2910.23915	0.53227
2908.18534	0.57078
2906.13154	0.60568
2904.07774	0.63384
2902.02393	0.65593
2899.97013	0.67350
2897.91633	0.68809
2895.86252	0.70130
2893.80872	0.71413
2891.75492	0.72712
2889.70112	0.74072
2887.64731	0.75503
2885.59351	0.76960
2883.53971	0.78400
2881.48590	0.79849
2879.43210	0.81363
2877.37830	0.82851
2875.32449	0.84113
2873.27069	0.85128
2871.21689	0.85946
2869.16308	0.86490
2867.10928	0.86672
2865.05548	0.86433
2863.00167	0.85700
2860.94787	0.84331
2858.89407	0.82048
2856.84026	0.78485
2854.78646	0.73248
2852.73266	0.66291
2850.67885	0.58786
2848.62505	0.53336
2846.57125	0.52256
2844.51744	0.55451
2842.46364	0.60874
2840.40984	0.66556
2838.35603	0.71446
2836.30223	0.75269
2834.24843	0.78207
2832.19463	0.80474
2830.14082	0.82219
2828.08702	0.83599
2826.03322	0.84742
2823.97941	0.85713
2821.92561	0.86511
2819.87181	0.87138
2817.81800	0.87665
2815.76420	0.88141
2813.71040	0.88553
2811.65659	0.88912
2809.60279	0.89244
2807.54899	0.89553
2805.49518	0.89852
2803.44138	0.90113
2801.38758	0.90320
2799.33377	0.90504
2797.27997	0.90679
2795.22617	0.90838
2793.17236	0.90987
2791.11856	0.91158
2789.06476	0.91350
2787.01095	0.91543
2784.95715	0.91732
2782.90335	0.91887
2780.84955	0.92005
2778.79574	0.92097
2776.74194	0.92192
2774.68814	0.92297
2772.63433	0.92387
2770.58053	0.92469
2768.52673	0.92547
2766.47292	0.92597
2764.41912	0.92629
2762.36532	0.92672
2760.31151	0.92748
2758.25771	0.92826
2756.20391	0.92866
2754.15010	0.92890
2752.09630	0.92933
2750.04250	0.92975
2747.98869	0.93006
2745.93489	0.93028
2743.88109	0.93029
2741.82728	0.93038
2739.77348	0.93078
2737.71968	0.93121
2735.66587	0.93149
2733.61207	0.93184
2731.55827	0.93247
2729.50446	0.93319
2727.45066	0.93362
2725.39686	0.93370
2723.34306	0.93377
2721.28925	0.93400
2719.23545	0.93426
2717.18165	0.93447
2715.12784	0.93470
2713.07404	0.93503
2711.02024	0.93537
2708.96643	0.93555
2706.91263	0.93556
2704.85883	0.93582
2702.80502	0.93644
2700.75122	0.93699
2698.69742	0.93742
2696.64361	0.93775
2694.58981	0.93777
2692.53601	0.93765
2690.48220	0.93770
2688.42840	0.93794
2686.37460	0.93814
2684.32079	0.93821
2682.26699	0.93827
2680.21319	0.93831
2678.15938	0.93820
2676.10558	0.93792
2674.05178	0.93769
2671.99797	0.93752
2669.94417	0.93728
2667.89037	0.93731
2665.83657	0.93759
2663.78276	0.93734
2661.72896	0.93654
2659.67516	0.93632
2657.62135	0.93683
2655.56755	0.93703
2653.51375	0.93686
2651.45994	0.93690
2649.40614	0.93712
2647.35234	0.93724
2645.29853	0.93717
2643.24473	0.93709
2641.19093	0.93702
2639.13712	0.93707
2637.08332	0.93753
2635.02952	0.93815
2632.97571	0.93854
2630.92191	0.93852
2628.86811	0.93831
2626.81430	0.93851
2624.76050	0.93920
2622.70670	0.93983
2620.65289	0.94007
2618.59909	0.94038
2616.54529	0.94110
2614.49149	0.94185
2612.43768	0.94231
2610.38388	0.94237
2608.33008	0.94236
2606.27627	0.94263
2604.22247	0.94275
2602.16867	0.94234
2600.11486	0.94210
2598.06106	0.94266
2596.00726	0.94365
2593.95345	0.94448
2591.89965	0.94479
2589.84585	0.94464
2587.79204	0.94451
2585.73824	0.94465
2583.68444	0.94486
2581.63063	0.94481
2579.57683	0.94469
2577.52303	0.94507
2575.46922	0.94564
2573.41542	0.94596
2571.36162	0.94636
2569.30781	0.94663
2567.25401	0.94634
2565.20021	0.94587
2563.14640	0.94574
2561.09260	0.94580
2559.03880	0.94591
2556.98500	0.94653
2554.93119	0.94748
2552.87739	0.94817
2550.82359	0.94823
2548.76978	0.94759
2546.71598	0.94682
2544.66218	0.94664
2542.60837	0.94697
2540.55457	0.94747
2538.50077	0.94793
2536.44696	0.94804
2534.39316	0.94794
2532.33936	0.94830
2530.28555	0.94900
2528.23175	0.94953
2526.17795	0.94982
2524.12414	0.94945
2522.07034	0.94839
2520.01654	0.94764
2517.96273	0.94779
2515.90893	0.94838
2513.85513	0.94850
2511.80132	0.94816
2509.74752	0.94804
2507.69372	0.94849
2505.63992	0.94903
2503.58611	0.94876
2501.53231	0.94827
2499.47851	0.94859
2497.42470	0.94927
2495.37090	0.94967
2493.31710	0.94985
2491.26329	0.95002
2489.20949	0.95009
2487.15569	0.94995
2485.10188	0.95018
2483.04808	0.95065
2480.99428	0.95051
2478.94047	0.95001
2476.88667	0.94963
2474.83287	0.94940
2472.77906	0.94948
2470.72526	0.94984
2468.67146	0.95027
2466.61765	0.95059
2464.56385	0.95058
2462.51005	0.95045
2460.45624	0.95025
2458.40244	0.94998
2456.34864	0.95004
2454.29483	0.95035
2452.24103	0.95077
2450.18723	0.95117
2448.13343	0.95127
2446.07962	0.95150
2444.02582	0.95166
2441.97202	0.95130
2439.91821	0.95121
2437.86441	0.95136
2435.81061	0.95112
2433.75680	0.95065
2431.70300	0.95031
2429.64920	0.95057
2427.59539	0.95116
2425.54159	0.95160
2423.48779	0.95176
2421.43398	0.95140
2419.38018	0.95103
2417.32638	0.95080
2415.27257	0.95012
2413.21877	0.94966
2411.16497	0.95007
2409.11116	0.95073
2407.05736	0.95148
2405.00356	0.95222
2402.94975	0.95223
2400.89595	0.95149
2398.84215	0.95102
2396.78834	0.95122
2394.73454	0.95142
2392.68074	0.95134
2390.62694	0.95140
2388.57313	0.95175
2386.51933	0.95196
2384.46553	0.95175
2382.41172	0.95155
2380.35792	0.95163
2378.30412	0.95170
2376.25031	0.95154
2374.19651	0.95124
2372.14271	0.95125
2370.08890	0.95161
2368.03510	0.95184
2365.98130	0.95210
2363.92749	0.95186
2361.87369	0.95101
2359.81989	0.95131
2357.76608	0.95215
2355.71228	0.95200
2353.65848	0.95123
2351.60467	0.95075
2349.55087	0.95086
2347.49707	0.95091
2345.44326	0.95059
2343.38946	0.95045
2341.33566	0.95088
2339.28186	0.95102
2337.22805	0.95026
2335.17425	0.94953
2333.12045	0.94999
2331.06664	0.95122
2329.01284	0.95193
2326.95904	0.95125
2324.90523	0.94983
2322.85143	0.94929
2320.79763	0.94982
2318.74382	0.95035
2316.69002	0.95032
2314.63622	0.95015
2312.58241	0.95007
2310.52861	0.94998
2308.47481	0.95003
2306.42100	0.94993
2304.36720	0.94980
2302.31340	0.95000
2300.25959	0.95047
2298.20579	0.95100
2296.15199	0.95128
2294.09818	0.95116
2292.04438	0.95091
2289.99058	0.95100
2287.93677	0.95123
2285.88297	0.95057
2283.82917	0.94955
2281.77537	0.94984
2279.72156	0.95161
2277.66776	0.95334
2275.61396	0.95319
2273.56015	0.95205
2271.50635	0.95172
2269.45255	0.95167
2267.39874	0.95138
2265.34494	0.95107
2263.29114	0.95119
2261.23733	0.95158
2259.18353	0.95137
2257.12973	0.95095
2255.07592	0.95095
2253.02212	0.95145
2250.96832	0.95287
2248.91451	0.95429
2246.86071	0.95496
2244.80691	0.95557
2242.75310	0.95542
2240.69930	0.95453
2238.64550	0.95322
2236.59169	0.95144
2234.53789	0.95063
2232.48409	0.95085
2230.43029	0.95111
2228.37648	0.95145
2226.32268	0.95246
2224.26888	0.95368
2222.21507	0.95332
2220.16127	0.95177
2218.10747	0.95114
2216.05366	0.95176
2213.99986	0.95333
2211.94606	0.95538
2209.89225	0.95616
2207.83845	0.95520
2205.78465	0.95357
2203.73084	0.95260
2201.67704	0.95323
2199.62324	0.95370
2197.56943	0.95240
2195.51563	0.95084
2193.46183	0.95097
2191.40802	0.95240
2189.35422	0.95388
2187.30042	0.95485
2185.24661	0.95466
2183.19281	0.95451
2181.13901	0.95459
2179.08520	0.95332
2177.03140	0.95300
2174.97760	0.95434
2172.92380	0.95416
2170.86999	0.95326
2168.81619	0.95435
2166.76239	0.95604
2164.70858	0.95472
2162.65478	0.95021
2160.60098	0.94797
2158.54717	0.95089
2156.49337	0.95566
2154.43957	0.95823
2152.38576	0.95678
2150.33196	0.95366
2148.27816	0.95163
2146.22435	0.95090
2144.17055	0.95205
2142.11675	0.95449
2140.06294	0.95466
2138.00914	0.95314
2135.95534	0.95423
2133.90153	0.95639
2131.84773	0.95623
2129.79393	0.95566
2127.74012	0.95663
2125.68632	0.95748
2123.63252	0.95738
2121.57871	0.95732
2119.52491	0.95697
2117.47111	0.95585
2115.41731	0.95475
2113.36350	0.95423
2111.30970	0.95427
2109.25590	0.95450
2107.20209	0.95476
2105.14829	0.95519
2103.09449	0.95520
2101.04068	0.95467
2098.98688	0.95423
2096.93308	0.95336
2094.87927	0.95222
2092.82547	0.95295
2090.77167	0.95515
2088.71786	0.95666
2086.66406	0.95731
2084.61026	0.95695
2082.55645	0.95578
2080.50265	0.95528
2078.44885	0.95521
2076.39504	0.95485
2074.34124	0.95507
2072.28744	0.95591
2070.23363	0.95551
2068.17983	0.95371
2066.12603	0.95308
2064.07223	0.95355
2062.01842	0.95368
2059.96462	0.95419
2057.91082	0.95504
2055.85701	0.95576
2053.80321	0.95607
2051.74941	0.95587
2049.69560	0.95527
2047.64180	0.95333
2045.58800	0.95071
2043.53419	0.94956
2041.48039	0.95031
2039.42659	0.95171
2037.37278	0.95137
2035.31898	0.95016
2033.26518	0.95286
2031.21137	0.95662
2029.15757	0.95497
2027.10377	0.95160
2025.04996	0.95202
2022.99616	0.95444
2020.94236	0.95612
2018.88855	0.95671
2016.83475	0.95617
2014.78095	0.95652
2012.72714	0.95685
2010.67334	0.95310
2008.61954	0.94993
2006.56574	0.95274
2004.51193	0.95720
2002.45813	0.95873
2000.40433	0.95707
1998.35052	0.95516
1996.29672	0.95568
1994.24292	0.95706
1992.18911	0.95708
1990.13531	0.95617
1988.08151	0.95486
1986.02770	0.95428
1983.97390	0.95510
1981.92010	0.95496
1979.86629	0.95518
1977.81249	0.95791
1975.75869	0.95902
1973.70488	0.95708
1971.65108	0.95634
1969.59728	0.95800
1967.54347	0.95925
1965.48967	0.95893
1963.43587	0.95824
1961.38206	0.95793
1959.32826	0.95789
1957.27446	0.95767
1955.22066	0.95694
1953.16685	0.95596
1951.11305	0.95534
1949.05925	0.95531
1947.00544	0.95559
1944.95164	0.95531
1942.89784	0.95481
1940.84403	0.95494
1938.79023	0.95508
1936.73643	0.95508
1934.68262	0.95546
1932.62882	0.95614
1930.57502	0.95619
1928.52121	0.95512
1926.46741	0.95454
1924.41361	0.95530
1922.35980	0.95597
1920.30600	0.95604
1918.25220	0.95573
1916.19839	0.95545
1914.14459	0.95584
1912.09079	0.95573
1910.03698	0.95492
1907.98318	0.95493
1905.92938	0.95547
1903.87557	0.95552
1901.82177	0.95523
1899.76797	0.95501
1897.71417	0.95487
1895.66036	0.95491
1893.60656	0.95520
1891.55276	0.95550
1889.49895	0.95573
1887.44515	0.95597
1885.39135	0.95612
1883.33754	0.95593
1881.28374	0.95547
1879.22994	0.95511
1877.17613	0.95493
1875.12233	0.95488
1873.06853	0.95510
1871.01472	0.95560
1868.96092	0.95591
1866.90712	0.95546
1864.85331	0.95459
1862.79951	0.95402
1860.74571	0.95429
1858.69190	0.95510
1856.63810	0.95572
1854.58430	0.95586
1852.53049	0.95560
1850.47669	0.95541
1848.42289	0.95535
1846.36908	0.95495
1844.31528	0.95410
1842.26148	0.95325
1840.20768	0.95348
1838.15387	0.95436
1836.10007	0.95458
1834.04627	0.95469
1831.99246	0.95520
1829.93866	0.95550
1827.88486	0.95539
1825.83105	0.95471
1823.77725	0.95392
1821.72345	0.95382
1819.66964	0.95391
1817.61584	0.95392
1815.56204	0.95408
1813.50823	0.95412
1811.45443	0.95372
1809.40063	0.95331
1807.34682	0.95313
1805.29302	0.95297
1803.23922	0.95292
1801.18541	0.95279
1799.13161	0.95250
1797.07781	0.95229
1795.02400	0.95210
1792.97020	0.95211
1790.91640	0.95237
1788.86260	0.95226
1786.80879	0.95175
1784.75499	0.95140
1782.70119	0.95148
1780.64738	0.95159
1778.59358	0.95145
1776.53978	0.95124
1774.48597	0.95117
1772.43217	0.95126
1770.37837	0.95111
1768.32456	0.95074
1766.27076	0.95061
1764.21696	0.95060
1762.16315	0.95030
1760.10935	0.94988
1758.05555	0.94951
1756.00174	0.94879
1753.94794	0.94784
1751.89414	0.94687
1749.84033	0.94589
1747.78653	0.94472
1745.73273	0.94308
1743.67892	0.94128
1741.62512	0.93970
1739.57132	0.93834
1737.51751	0.93744
1735.46371	0.93721
1733.40991	0.93735
1731.35611	0.93745
1729.30230	0.93740
1727.24850	0.93696
1725.19470	0.93640
1723.14089	0.93615
1721.08709	0.93577
1719.03329	0.93476
1716.97948	0.93414
1714.92568	0.93473
1712.87188	0.93540
1710.81807	0.93576
1708.76427	0.93573
1706.71047	0.93512
1704.65666	0.93438
1702.60286	0.93401
1700.54906	0.93364
1698.49525	0.93303
1696.44145	0.93234
1694.38765	0.93146
1692.33384	0.93061
1690.28004	0.92936
1688.22624	0.92760
1686.17243	0.92605
1684.11863	0.92424
1682.06483	0.92234
1680.01103	0.92100
1677.95722	0.91975
1675.90342	0.91830
1673.84962	0.91666
1671.79581	0.91505
1669.74201	0.91344
1667.68821	0.91210
1665.63440	0.91104
1663.58060	0.90991
1661.52680	0.90864
1659.47299	0.90741
1657.41919	0.90628
1655.36539	0.90535
1653.31158	0.90426
1651.25778	0.90334
1649.20398	0.90327
1647.15017	0.90312
1645.09637	0.90235
1643.04257	0.90167
1640.98876	0.90096
1638.93496	0.90012
1636.88116	0.89930
1634.82735	0.89814
1632.77355	0.89703
1630.71975	0.89635
1628.66594	0.89575
1626.61214	0.89505
1624.55834	0.89437
1622.50454	0.89392
1620.45073	0.89372
1618.39693	0.89373
1616.34313	0.89419
1614.28932	0.89461
1612.23552	0.89435
1610.18172	0.89363
1608.12791	0.89303
1606.07411	0.89253
1604.02031	0.89182
1601.96650	0.89101
1599.91270	0.89017
1597.85890	0.88935
1595.80509	0.88893
1593.75129	0.88935
1591.69749	0.89057
1589.64368	0.89194
1587.58988	0.89316
1585.53608	0.89431
1583.48227	0.89534
1581.42847	0.89609
1579.37467	0.89665
1577.32086	0.89756
1575.26706	0.89936
1573.21326	0.90123
1571.15945	0.90306
1569.10565	0.90515
1567.05185	0.90673
1564.99805	0.90776
1562.94424	0.90845
1560.89044	0.90910
1558.83664	0.91069
1556.78283	0.91228
1554.72903	0.91295
1552.67523	0.91333
1550.62142	0.91374
1548.56762	0.91438
1546.51382	0.91528
1544.46001	0.91623
1542.40621	0.91701
1540.35241	0.91794
1538.29860	0.91890
1536.24480	0.91972
1534.19100	0.92110
1532.13719	0.92273
1530.08339	0.92386
1528.02959	0.92510
1525.97578	0.92645
1523.92198	0.92739
1521.86818	0.92806
1519.81437	0.92845
1517.76057	0.92849
1515.70677	0.92882
1513.65297	0.92962
1511.59916	0.93047
1509.54536	0.93103
1507.49156	0.93119
1505.43775	0.93164
1503.38395	0.93205
1501.33015	0.93195
1499.27634	0.93154
1497.22254	0.93110
1495.16874	0.93057
1493.11493	0.93008
1491.06113	0.92963
1489.00733	0.92917
1486.95352	0.92835
1484.89972	0.92679
1482.84592	0.92425
1480.79211	0.91966
1478.73831	0.90863
1476.68451	0.87755
1474.63070	0.81647
1472.57690	0.75954
1470.52310	0.75740
1468.46929	0.77900
1466.41549	0.78791
1464.36169	0.77378
1462.30788	0.76226
1460.25408	0.77953
1458.20028	0.81978
1456.14648	0.85583
1454.09267	0.86995
1452.03887	0.87741
1449.98507	0.88329
1447.93126	0.88734
1445.87746	0.89008
1443.82366	0.89221
1441.76985	0.89374
1439.71605	0.89473
1437.66225	0.89569
1435.60844	0.89654
1433.55464	0.89711
1431.50084	0.89810
1429.44703	0.89973
1427.39323	0.90141
1425.33943	0.90257
1423.28562	0.90307
1421.23182	0.90282
1419.17802	0.90211
1417.12421	0.90141
1415.07041	0.90081
1413.01661	0.90034
1410.96280	0.90048
1408.90900	0.90140
1406.85520	0.90274
1404.80139	0.90416
1402.74759	0.90530
1400.69379	0.90632
1398.63999	0.90750
1396.58618	0.90846
1394.53238	0.90895
1392.47858	0.90903
1390.42477	0.90893
1388.37097	0.90952
1386.31717	0.91059
1384.26336	0.91089
1382.20956	0.91072
1380.15576	0.91069
1378.10195	0.91063
1376.04815	0.91051
1373.99435	0.91045
1371.94054	0.91019
1369.88674	0.90981
1367.83294	0.90957
1365.77913	0.90969
1363.72533	0.91055
1361.67153	0.91208
1359.61772	0.91346
1357.56392	0.91444
1355.51012	0.91526
1353.45631	0.91609
1351.40251	0.91699
1349.34871	0.91797
1347.29491	0.91897
1345.24110	0.91971
1343.18730	0.92034
1341.13350	0.92117
1339.07969	0.92202
1337.02589	0.92248
1334.97209	0.92270
1332.91828	0.92280
1330.86448	0.92262
1328.81068	0.92216
1326.75687	0.92143
1324.70307	0.92058
1322.64927	0.91982
1320.59546	0.91919
1318.54166	0.91876
1316.48786	0.91856
1314.43405	0.91851
1312.38025	0.91852
1310.32645	0.91845
1308.27264	0.91841
1306.21884	0.91856
1304.16504	0.91864
1302.11123	0.91880
1300.05743	0.91911
1298.00363	0.91919
1295.94982	0.91904
1293.89602	0.91900
1291.84222	0.91914
1289.78842	0.91924
1287.73461	0.91905
1285.68081	0.91856
1283.62701	0.91785
1281.57320	0.91702
1279.51940	0.91636
1277.46560	0.91572
1275.41179	0.91463
1273.35799	0.91326
1271.30419	0.91235
1269.25038	0.91220
1267.19658	0.91226
1265.14278	0.91201
1263.08897	0.91173
1261.03517	0.91198
1258.98137	0.91259
1256.92756	0.91298
1254.87376	0.91291
1252.81996	0.91270
1250.76615	0.91271
1248.71235	0.91278
1246.65855	0.91269
1244.60474	0.91249
1242.55094	0.91227
1240.49714	0.91230
1238.44334	0.91250
1236.38953	0.91228
1234.33573	0.91170
1232.28193	0.91127
1230.22812	0.91084
1228.17432	0.91027
1226.12052	0.90981
1224.06671	0.90935
1222.01291	0.90853
1219.95911	0.90746
1217.90530	0.90635
1215.85150	0.90529
1213.79770	0.90419
1211.74389	0.90285
1209.69009	0.90150
1207.63629	0.90037
1205.58248	0.89909
1203.52868	0.89733
1201.47488	0.89522
1199.42107	0.89284
1197.36727	0.89051
1195.31347	0.88835
1193.25966	0.88597
1191.20586	0.88335
1189.15206	0.88092
1187.09825	0.87863
1185.04445	0.87621
1182.99065	0.87354
1180.93685	0.87051
1178.88304	0.86717
1176.82924	0.86373
1174.77544	0.86055
1172.72163	0.85776
1170.66783	0.85508
1168.61403	0.85245
1166.56022	0.85006
1164.50642	0.84821
1162.45262	0.84707
1160.39881	0.84636
1158.34501	0.84552
1156.29121	0.84412
1154.23740	0.84216
1152.18360	0.84025
1150.12980	0.83872
1148.07599	0.83701
1146.02219	0.83497
1143.96839	0.83318
1141.91458	0.83160
1139.86078	0.82989
1137.80698	0.82792
1135.75317	0.82546
1133.69937	0.82285
1131.64557	0.82020
1129.59176	0.81704
1127.53796	0.81371
1125.48416	0.81105
1123.43036	0.80860
1121.37655	0.80543
1119.32275	0.80181
1117.26895	0.79855
1115.21514	0.79612
1113.16134	0.79425
1111.10754	0.79192
1109.05373	0.78865
1106.99993	0.78512
1104.94613	0.78211
1102.89232	0.77961
1100.83852	0.77725
1098.78472	0.77523
1096.73091	0.77386
1094.67711	0.77294
1092.62331	0.77261
1090.56950	0.77281
1088.51570	0.77330
1086.46190	0.77419
1084.40809	0.77520
1082.35429	0.77604
1080.30049	0.77718
1078.24668	0.77894
1076.19288	0.78067
1074.13908	0.78171
1072.08528	0.78227
1070.03147	0.78279
1067.97767	0.78299
1065.92387	0.78235
1063.87006	0.78085
1061.81626	0.77870
1059.76246	0.77589
1057.70865	0.77289
1055.65485	0.77008
1053.60105	0.76683
1051.54724	0.76273
1049.49344	0.75818
1047.43964	0.75376
1045.38583	0.75006
1043.33203	0.74696
1041.27823	0.74433
1039.22442	0.74235
1037.17062	0.74069
1035.11682	0.73947
1033.06301	0.73922
1031.00921	0.73987
1028.95541	0.74132
1026.90160	0.74335
1024.84780	0.74523
1022.79400	0.74639
1020.74019	0.74683
1018.68639	0.74733
1016.63259	0.74865
1014.57879	0.75025
1012.52498	0.75131
1010.47118	0.75226
1008.41738	0.75393
1006.36357	0.75624
1004.30977	0.75910
1002.25597	0.76298
1000.20216	0.76735
998.14836	0.77158
996.09456	0.77605
994.04075	0.78080
991.98695	0.78551
989.93315	0.79033
987.87934	0.79569
985.82554	0.80140
983.77174	0.80696
981.71793	0.81249
979.66413	0.81788
977.61033	0.82259
975.55652	0.82679
973.50272	0.83075
971.44892	0.83460
969.39511	0.83877
967.34131	0.84296
965.28751	0.84670
963.23371	0.85023
961.17990	0.85337
959.12610	0.85617
957.07230	0.85928
955.01849	0.86242
952.96469	0.86495
950.91089	0.86708
948.85708	0.86901
946.80328	0.87052
944.74948	0.87191
942.69567	0.87359
940.64187	0.87516
938.58807	0.87615
936.53426	0.87691
934.48046	0.87806
932.42666	0.87916
930.37285	0.87999
928.31905	0.88122
926.26525	0.88252
924.21144	0.88344
922.15764	0.88425
920.10384	0.88490
918.05003	0.88532
915.99623	0.88538
913.94243	0.88483
911.88862	0.88423
909.83482	0.88435
907.78102	0.88572
905.72722	0.88867
903.67341	0.89239
901.61961	0.89565
899.56581	0.89850
897.51200	0.90126
895.45820	0.90325
893.40440	0.90446
891.35059	0.90565
889.29679	0.90672
887.24299	0.90741
885.18918	0.90790
883.13538	0.90859
881.08158	0.90910
879.02777	0.90860
876.97397	0.90759
874.92017	0.90705
872.86636	0.90728
870.81256	0.90817
868.75876	0.90905
866.70495	0.90965
864.65115	0.91051
862.59735	0.91156
860.54354	0.91232
858.48974	0.91304
856.43594	0.91462
854.38213	0.91685
852.32833	0.91828
850.27453	0.91863
848.22073	0.91892
846.16692	0.91989
844.11312	0.92115
842.05932	0.92169
840.00551	0.92140
837.95171	0.92071
835.89791	0.91986
833.84410	0.91926
831.79030	0.91925
829.73650	0.91968
827.68269	0.92032
825.62889	0.92057
823.57509	0.91972
821.52128	0.91806
819.46748	0.91652
817.41368	0.91569
815.35987	0.91486
813.30607	0.91325
811.25227	0.91139
809.19846	0.90890
807.14466	0.90443
805.09086	0.89835
803.03705	0.89263
800.98325	0.88858
798.92945	0.88657
796.87565	0.88624
794.82184	0.88650
792.76804	0.88678
790.71424	0.88690
788.66043	0.88695
786.60663	0.88687
784.55283	0.88612
782.49902	0.88470
780.44522	0.88335
778.39142	0.88311
776.33761	0.88414
774.28381	0.88557
772.23001	0.88690
770.17620	0.88812
768.12240	0.88923
766.06860	0.89008
764.01479	0.89063
761.96099	0.89090
759.90719	0.89101
757.85338	0.89145
755.79958	0.89247
753.74578	0.89296
751.69197	0.89251
749.63817	0.89219
747.58437	0.89204
745.53056	0.89162
743.47676	0.89126
741.42296	0.89111
739.36916	0.89042
737.31535	0.88664
735.26155	0.87076
733.20775	0.83188
731.15394	0.78820
729.10014	0.77864
727.04634	0.79829
724.99253	0.80669
722.93873	0.78009
720.88493	0.72216
718.83112	0.67501
716.77732	0.68133
714.72352	0.73037
712.66971	0.78498
710.61591	0.82300
708.56211	0.84386
706.50830	0.85437
704.45450	0.85899
702.40070	0.86061
700.34689	0.86151
698.29309	0.86256
696.23929	0.86407
694.18548	0.86633
692.13168	0.86897
690.07788	0.87166
688.02408	0.87441
685.97027	0.87618
683.91647	0.87639
681.86267	0.87662
679.80886	0.87781
677.75506	0.88010
675.70126	0.88269
673.64745	0.88369
671.59365	0.88310
669.53985	0.88255
667.48604	0.88277
665.43224	0.88291
663.37844	0.88270
661.32463	0.88226
659.27083	0.88151
657.21703	0.87973
655.16322	0.87691
653.10942	0.87430
651.05562	0.87252
649.00181	0.87180
646.94801	0.87233
644.89421	0.87376
642.84040	0.87537
640.78660	0.87680
638.73280	0.87798
636.67899	0.87860
634.62519	0.87915
632.57139	0.87975
630.51759	0.87917
628.46378	0.87738
626.40998	0.87554
624.35618	0.87429
622.30237	0.87327
620.24857	0.87135
618.19477	0.86876
616.14096	0.86683
614.08716	0.86516
612.03336	0.86312
609.97955	0.86110
607.92575	0.85863
605.87195	0.85544
603.81814	0.85239
601.76434	0.84970
599.71054	0.84730
597.65673	0.84643
595.60293	0.84732
593.54913	0.84730
591.49532	0.84541
589.44152	0.84439
587.38772	0.84544
585.33391	0.84645
583.28011	0.84597
581.22631	0.84519
579.17250	0.84542
577.11870	0.84648
575.06490	0.84795
573.01110	0.84951
570.95729	0.85014
568.90349	0.84951
566.84969	0.84919
564.79588	0.84970
562.74208	0.84999
560.68828	0.84956
558.63447	0.84839
556.58067	0.84712
554.52687	0.84601
552.47306	0.84450
550.41926	0.84264
548.36546	0.83985
546.31165	0.83526
544.25785	0.82977
542.20405	0.82542
540.15024	0.82250
538.09644	0.81951
536.04264	0.81783
533.98883	0.81929
531.93503	0.82101
529.88123	0.82142
527.82742	0.82283
525.77362	0.82559
523.71982	0.82748
521.66602	0.82755
519.61221	0.82792
517.55841	0.83020
515.50461	0.83112
513.45080	0.82961
511.39700	0.82893
509.34320	0.83067
507.28939	0.83426
505.23559	0.83789
503.18179	0.84012
501.12798	0.84111
499.07418	0.84025
497.02038	0.83778
494.96657	0.83568
492.91277	0.83338
490.85897	0.83094
488.80516	0.82949
486.75136	0.82480
484.69756	0.81653
482.64375	0.80996
480.58995	0.80365
478.53615	0.79483
476.48234	0.78555
474.42854	0.77833
472.37474	0.77250
470.32093	0.76703
468.26713	0.76364
466.21333	0.76219
464.15953	0.76194
462.10572	0.76369
460.05192	0.76715
457.99812	0.77316
455.94431	0.78171
453.89051	0.78918
451.83671	0.79317
449.78290	0.79447
447.72910	0.79721
445.67530	0.80098
443.62149	0.80217
441.56769	0.80324
439.51389	0.80535
437.46008	0.80334
435.40628	0.79842
433.35248	0.79751
431.29867	0.79797
429.24487	0.79283
427.19107	0.78661
425.13726	0.78775
423.08346	0.79298
421.02966	0.79725
418.97585	0.80470
416.92205	0.81156
414.86825	0.81315
412.81445	0.81656
410.76064	0.82513
408.70684	0.83354
406.65304	0.83563
404.59923	0.83245
402.54543	0.82926
400.49163	0.82670
398.43782	0.82238
