3996.70104	0.98502
3994.64724	0.98508
3992.59344	0.98547
3990.53964	0.98569
3988.48583	0.98566
3986.43203	0.98574
3984.37823	0.98609
3982.32442	0.98653
3980.27062	0.98676
3978.21682	0.98641
3976.16301	0.98561
3974.10921	0.98520
3972.05541	0.98535
3970.00160	0.98559
3967.94780	0.98575
3965.89400	0.98597
3963.84019	0.98622
3961.78639	0.98626
3959.73259	0.98606
3957.67878	0.98568
3955.62498	0.98498
3953.57118	0.98452
3951.51737	0.98493
3949.46357	0.98541
3947.40977	0.98530
3945.35596	0.98528
3943.30216	0.98563
3941.24836	0.98602
3939.19455	0.98643
3937.14075	0.98679
3935.08695	0.98681
3933.03315	0.98641
3930.97934	0.98575
3928.92554	0.98540
3926.87174	0.98548
3924.81793	0.98549
3922.76413	0.98528
3920.71033	0.98506
3918.65652	0.98503
3916.60272	0.98562
3914.54892	0.98619
3912.49511	0.98609
3910.44131	0.98589
3908.38751	0.98594
3906.33370	0.98608
3904.27990	0.98612
3902.22610	0.98551
3900.17229	0.98472
3898.11849	0.98511
3896.06469	0.98558
3894.01088	0.98533
3891.95708	0.98524
3889.90328	0.98530
3887.84947	0.98504
3885.79567	0.98528
3883.74187	0.98578
3881.68807	0.98548
3879.63426	0.98559
3877.58046	0.98637
3875.52666	0.98647
3873.47285	0.98616
3871.41905	0.98608
3869.36525	0.98556
3867.31144	0.98443
3865.25764	0.98411
3863.20384	0.98487
3861.15003	0.98519
3859.09623	0.98469
3857.04243	0.98403
3854.98862	0.98412
3852.93482	0.98507
3850.88102	0.98499
3848.82721	0.98486
3846.77341	0.98571
3844.71961	0.98668
3842.66580	0.98663
3840.61200	0.98580
3838.55820	0.98533
3836.50439	0.98581
3834.45059	0.98643
3832.39679	0.98640
3830.34298	0.98593
3828.28918	0.98562
3826.23538	0.98558
3824.18158	0.98567
3822.12777	0.98597
3820.07397	0.98619
3818.02017	0.98570
3815.96636	0.98550
3813.91256	0.98614
3811.85876	0.98616
3809.80495	0.98564
3807.75115	0.98586
3805.69735	0.98666
3803.64354	0.98656
3801.58974	0.98557
3799.53594	0.98528
3797.48213	0.98562
3795.42833	0.98540
3793.37453	0.98485
3791.32072	0.98463
3789.26692	0.98468
3787.21312	0.98500
3785.15931	0.98569
3783.10551	0.98608
3781.05171	0.98597
3778.99790	0.98591
3776.94410	0.98615
3774.89030	0.98628
3772.83650	0.98598
3770.78269	0.98564
3768.72889	0.98555
3766.67509	0.98573
3764.62128	0.98612
3762.56748	0.98628
3760.51368	0.98629
3758.45987	0.98635
3756.40607	0.98622
3754.35227	0.98579
3752.29846	0.98506
3750.24466	0.98459
3748.19086	0.98500
3746.13705	0.98566
3744.08325	0.98586
3742.02945	0.98596
3739.97564	0.98644
3737.92184	0.98656
3735.86804	0.98672
3733.81423	0.98800
3731.76043	0.98803
3729.70663	0.98627
3727.65282	0.98455
3725.59902	0.98386
3723.54522	0.98438
3721.49141	0.98517
3719.43761	0.98572
3717.38381	0.98633
3715.33001	0.98679
3713.27620	0.98642
3711.22240	0.98454
3709.16860	0.98222
3707.11479	0.98128
3705.06099	0.98119
3703.00719	0.98077
3700.95338	0.98016
3698.89958	0.97993
3696.84578	0.98001
3694.79197	0.98049
3692.73817	0.98104
3690.68437	0.98146
3688.63056	0.98207
3686.57676	0.98217
3684.52296	0.98137
3682.46915	0.98086
3680.41535	0.98129
3678.36155	0.98177
3676.30774	0.98151
3674.25394	0.98129
3672.20014	0.98161
3670.14633	0.98112
3668.09253	0.97992
3666.03873	0.97913
3663.98492	0.97834
3661.93112	0.97740
3659.87732	0.97675
3657.82352	0.97676
3655.76971	0.97715
3653.71591	0.97694
3651.66211	0.97598
3649.60830	0.97513
3647.55450	0.97511
3645.50070	0.97510
3643.44689	0.97530
3641.39309	0.97586
3639.33929	0.97617
3637.28548	0.97615
3635.23168	0.97583
3633.17788	0.97524
3631.12407	0.97456
3629.07027	0.97370
3627.01647	0.97353
3624.96266	0.97380
3622.90886	0.97388
3620.85506	0.97395
3618.80125	0.97396
3616.74745	0.97368
3614.69365	0.97298
3612.63984	0.97249
3610.58604	0.97270
3608.53224	0.97346
3606.47844	0.97434
3604.42463	0.97467
3602.37083	0.97459
3600.31703	0.97459
3598.26322	0.97457
3596.20942	0.97439
3594.15562	0.97406
3592.10181	0.97364
3590.04801	0.97377
3587.99421	0.97443
3585.94040	0.97454
3583.88660	0.97415
3581.83280	0.97352
3579.77899	0.97288
3577.72519	0.97291
3575.67139	0.97309
3573.61758	0.97264
3571.56378	0.97224
3569.50998	0.97243
3567.45617	0.97271
3565.40237	0.97251
3563.34857	0.97209
3561.29476	0.97208
3559.24096	0.97233
3557.18716	0.97201
3555.13335	0.97111
3553.07955	0.97051
3551.02575	0.97084
3548.97195	0.97165
3546.91814	0.97216
3544.86434	0.97202
3542.81054	0.97142
3540.75673	0.97098
3538.70293	0.97096
3536.64913	0.97114
3534.59532	0.97129
3532.54152	0.97100
3530.48772	0.97024
3528.43391	0.96976
3526.38011	0.96988
3524.32631	0.97015
3522.27250	0.97088
3520.21870	0.97198
3518.16490	0.97217
3516.11109	0.97171
3514.05729	0.97138
3512.00349	0.97110
3509.94968	0.97102
3507.89588	0.97084
3505.84208	0.97029
3503.78827	0.96954
3501.73447	0.96891
3499.68067	0.96887
3497.62687	0.96930
3495.57306	0.96971
3493.51926	0.96989
3491.46546	0.96973
3489.41165	0.96927
3487.35785	0.96883
3485.30405	0.96875
3483.25024	0.96912
3481.19644	0.96958
3479.14264	0.97009
3477.08883	0.97068
3475.03503	0.97075
3472.98123	0.97024
3470.92742	0.96986
3468.87362	0.96988
3466.81982	0.96999
3464.76601	0.96989
3462.71221	0.96960
3460.65841	0.96940
3458.60460	0.96926
3456.55080	0.96875
3454.49700	0.96802
3452.44319	0.96773
3450.38939	0.96782
3448.33559	0.96805
3446.28178	0.96839
3444.22798	0.96840
3442.17418	0.96802
3440.12038	0.96787
3438.06657	0.96812
3436.01277	0.96854
3433.95897	0.96863
3431.90516	0.96824
3429.85136	0.96769
3427.79756	0.96718
3425.74375	0.96685
3423.68995	0.96677
3421.63615	0.96679
3419.58234	0.96690
3417.52854	0.96700
3415.47474	0.96698
3413.42093	0.96704
3411.36713	0.96716
3409.31333	0.96722
3407.25952	0.96713
3405.20572	0.96676
3403.15192	0.96661
3401.09811	0.96677
3399.04431	0.96669
3396.99051	0.96653
3394.93670	0.96670
3392.88290	0.96693
3390.82910	0.96713
3388.77529	0.96737
3386.72149	0.96709
3384.66769	0.96639
3382.61389	0.96606
3380.56008	0.96597
3378.50628	0.96580
3376.45248	0.96573
3374.39867	0.96580
3372.34487	0.96632
3370.29107	0.96706
3368.23726	0.96706
3366.18346	0.96662
3364.12966	0.96658
3362.07585	0.96688
3360.02205	0.96723
3357.96825	0.96753
3355.91444	0.96765
3353.86064	0.96753
3351.80684	0.96739
3349.75303	0.96754
3347.69923	0.96762
3345.64543	0.96697
3343.59162	0.96617
3341.53782	0.96632
3339.48402	0.96716
3337.43021	0.96775
3335.37641	0.96779
3333.32261	0.96744
3331.26881	0.96720
3329.21500	0.96743
3327.16120	0.96766
3325.10740	0.96757
3323.05359	0.96768
3320.99979	0.96802
3318.94599	0.96824
3316.89218	0.96856
3314.83838	0.96883
3312.78458	0.96851
3310.73077	0.96793
3308.67697	0.96786
3306.62317	0.96807
3304.56936	0.96815
3302.51556	0.96813
3300.46176	0.96793
3298.40795	0.96779
3296.35415	0.96805
3294.30035	0.96863
3292.24654	0.96891
3290.19274	0.96857
3288.13894	0.96824
3286.08513	0.96818
3284.03133	0.96794
3281.97753	0.96779
3279.92372	0.96828
3277.86992	0.96910
3275.81612	0.96915
3273.76232	0.96821
3271.70851	0.96771
3269.65471	0.96817
3267.60091	0.96870
3265.54710	0.96904
3263.49330	0.96911
3261.43950	0.96899
3259.38569	0.96920
3257.33189	0.96933
3255.27809	0.96903
3253.22428	0.96907
3251.17048	0.96948
3249.11668	0.96967
3247.06287	0.96962
3245.00907	0.96960
3242.95527	0.96957
3240.90146	0.96954
3238.84766	0.96995
3236.79386	0.97053
3234.74005	0.97057
3232.68625	0.97038
3230.63245	0.97052
3228.57864	0.97066
3226.52484	0.97054
3224.47104	0.97037
3222.41724	0.97040
3220.36343	0.97081
3218.30963	0.97130
3216.25583	0.97165
3214.20202	0.97194
3212.14822	0.97195
3210.09442	0.97173
3208.04061	0.97185
3205.98681	0.97239
3203.93301	0.97274
3201.87920	0.97285
3199.82540	0.97309
3197.77160	0.97337
3195.71779	0.97335
3193.66399	0.97300
3191.61019	0.97261
3189.55638	0.97261
3187.50258	0.97287
3185.44878	0.97285
3183.39497	0.97284
3181.34117	0.97332
3179.28737	0.97377
3177.23356	0.97366
3175.17976	0.97340
3173.12596	0.97352
3171.07215	0.97364
3169.01835	0.97327
3166.96455	0.97296
3164.91075	0.97305
3162.85694	0.97348
3160.80314	0.97414
3158.74934	0.97445
3156.69553	0.97441
3154.64173	0.97449
3152.58793	0.97463
3150.53412	0.97463
3148.48032	0.97463
3146.42652	0.97470
3144.37271	0.97465
3142.31891	0.97463
3140.26511	0.97489
3138.21130	0.97519
3136.15750	0.97526
3134.10370	0.97528
3132.04989	0.97542
3129.99609	0.97553
3127.94229	0.97546
3125.88848	0.97533
3123.83468	0.97533
3121.78088	0.97537
3119.72707	0.97546
3117.67327	0.97583
3115.61947	0.97634
3113.56566	0.97659
3111.51186	0.97647
3109.45806	0.97620
3107.40426	0.97599
3105.35045	0.97568
3103.29665	0.97543
3101.24285	0.97577
3099.18904	0.97627
3097.13524	0.97617
3095.08144	0.97580
3093.02763	0.97547
3090.97383	0.97509
3088.92003	0.97447
3086.86622	0.97370
3084.81242	0.97322
3082.75862	0.97289
3080.70481	0.97277
3078.65101	0.97296
3076.59721	0.97318
3074.54340	0.97345
3072.48960	0.97349
3070.43580	0.97318
3068.38199	0.97283
3066.32819	0.97249
3064.27439	0.97203
3062.22058	0.97131
3060.16678	0.97083
3058.11298	0.97118
3056.05918	0.97202
3054.00537	0.97291
3051.95157	0.97372
3049.89777	0.97433
3047.84396	0.97490
3045.79016	0.97531
3043.73636	0.97514
3041.68255	0.97469
3039.62875	0.97436
3037.57495	0.97373
3035.52114	0.97248
3033.46734	0.97088
3031.41354	0.96930
3029.35973	0.96752
3027.30593	0.96572
3025.25213	0.96494
3023.19832	0.96565
3021.14452	0.96754
3019.09072	0.96983
3017.03691	0.97176
3014.98311	0.97322
3012.92931	0.97427
3010.87550	0.97500
3008.82170	0.97526
3006.76790	0.97510
3004.71409	0.97500
3002.66029	0.97514
3000.60649	0.97551
2998.55269	0.97627
2996.49888	0.97708
2994.44508	0.97762
2992.39128	0.97778
2990.33747	0.97768
2988.28367	0.97789
2986.22987	0.97857
2984.17606	0.97904
2982.12226	0.97879
2980.06846	0.97825
2978.01465	0.97817
2975.96085	0.97824
2973.90705	0.97781
2971.85324	0.97729
2969.79944	0.97728
2967.74564	0.97734
2965.69183	0.97690
2963.63803	0.97627
2961.58423	0.97598
2959.53042	0.97616
2957.47662	0.97621
2955.42282	0.97575
2953.36901	0.97514
2951.31521	0.97450
2949.26141	0.97405
2947.20761	0.97379
2945.15380	0.97300
2943.10000	0.97196
2941.04620	0.97133
2938.99239	0.97042
2936.93859	0.96894
2934.88479	0.96771
2932.83098	0.96699
2930.77718	0.96635
2928.72338	0.96540
2926.66957	0.96408
2924.61577	0.96259
2922.56197	0.96114
2920.50816	0.95995
2918.45436	0.95912
2916.40056	0.95882
2914.34675	0.95935
2912.29295	0.96043
2910.23915	0.96146
2908.18534	0.96234
2906.13154	0.96341
2904.07774	0.96474
2902.02393	0.96608
2899.97013	0.96705
2897.91633	0.96773
2895.86252	0.96863
2893.80872	0.96983
2891.75492	0.97097
2889.70112	0.97177
2887.64731	0.97214
2885.59351	0.97205
2883.53971	0.97193
2881.48590	0.97236
2879.43210	0.97312
2877.37830	0.97370
2875.32449	0.97418
2873.27069	0.97471
2871.21689	0.97496
2869.16308	0.97486
2867.10928	0.97474
2865.05548	0.97452
2863.00167	0.97419
2860.94787	0.97395
2858.89407	0.97336
2856.84026	0.97229
2854.78646	0.97134
2852.73266	0.97063
2850.67885	0.97004
2848.62505	0.96975
2846.57125	0.96986
2844.51744	0.97035
2842.46364	0.97132
2840.40984	0.97277
2838.35603	0.97440
2836.30223	0.97594
2834.24843	0.97695
2832.19463	0.97741
2830.14082	0.97775
2828.08702	0.97800
2826.03322	0.97820
2823.97941	0.97822
2821.92561	0.97791
2819.87181	0.97797
2817.81800	0.97886
2815.76420	0.97945
2813.71040	0.97915
2811.65659	0.97883
2809.60279	0.97901
2807.54899	0.97922
2805.49518	0.97907
2803.44138	0.97884
2801.38758	0.97902
2799.33377	0.97961
2797.27997	0.97987
2795.22617	0.97972
2793.17236	0.97985
2791.11856	0.98011
2789.06476	0.98022
2787.01095	0.98038
2784.95715	0.98045
2782.90335	0.98024
2780.84955	0.98020
2778.79574	0.98030
2776.74194	0.98009
2774.68814	0.97964
2772.63433	0.97932
2770.58053	0.97959
2768.52673	0.98035
2766.47292	0.98091
2764.41912	0.98106
2762.36532	0.98112
2760.31151	0.98108
2758.25771	0.98095
2756.20391	0.98093
2754.15010	0.98104
2752.09630	0.98103
2750.04250	0.98088
2747.98869	0.98109
2745.93489	0.98169
2743.88109	0.98186
2741.82728	0.98133
2739.77348	0.98074
2737.71968	0.98062
2735.66587	0.98093
2733.61207	0.98125
2731.55827	0.98139
2729.50446	0.98132
2727.45066	0.98109
2725.39686	0.98116
2723.34306	0.98166
2721.28925	0.98210
2719.23545	0.98208
2717.18165	0.98178
2715.12784	0.98144
2713.07404	0.98106
2711.02024	0.98086
2708.96643	0.98087
2706.91263	0.98085
2704.85883	0.98098
2702.80502	0.98138
2700.75122	0.98152
2698.69742	0.98128
2696.64361	0.98138
2694.58981	0.98178
2692.53601	0.98193
2690.48220	0.98195
2688.42840	0.98191
2686.37460	0.98171
2684.32079	0.98142
2682.26699	0.98113
2680.21319	0.98103
2678.15938	0.98129
2676.10558	0.98172
2674.05178	0.98207
2671.99797	0.98205
2669.94417	0.98184
2667.89037	0.98202
2665.83657	0.98218
2663.78276	0.98188
2661.72896	0.98155
2659.67516	0.98147
2657.62135	0.98131
2655.56755	0.98088
2653.51375	0.98065
2651.45994	0.98095
2649.40614	0.98135
2647.35234	0.98139
2645.29853	0.98136
2643.24473	0.98162
2641.19093	0.98182
2639.13712	0.98161
2637.08332	0.98140
2635.02952	0.98139
2632.97571	0.98143
2630.92191	0.98153
2628.86811	0.98153
2626.81430	0.98137
2624.76050	0.98121
2622.70670	0.98135
2620.65289	0.98181
2618.59909	0.98216
2616.54529	0.98221
2614.49149	0.98181
2612.43768	0.98125
2610.38388	0.98133
2608.33008	0.98194
2606.27627	0.98227
2604.22247	0.98241
2602.16867	0.98267
2600.11486	0.98282
2598.06106	0.98258
2596.00726	0.98199
2593.95345	0.98163
2591.89965	0.98194
2589.84585	0.98247
2587.79204	0.98276
2585.73824	0.98288
2583.68444	0.98233
2581.63063	0.98112
2579.57683	0.98074
2577.52303	0.98182
2575.46922	0.98319
2573.41542	0.98371
2571.36162	0.98353
2569.30781	0.98307
2567.25401	0.98276
2565.20021	0.98282
2563.14640	0.98294
2561.09260	0.98291
2559.03880	0.98272
2556.98500	0.98217
2554.93119	0.98180
2552.87739	0.98230
2550.82359	0.98304
2548.76978	0.98349
2546.71598	0.98387
2544.66218	0.98375
2542.60837	0.98308
2540.55457	0.98286
2538.50077	0.98322
2536.44696	0.98356
2534.39316	0.98364
2532.33936	0.98329
2530.28555	0.98286
2528.23175	0.98257
2526.17795	0.98247
2524.12414	0.98254
2522.07034	0.98224
2520.01654	0.98182
2517.96273	0.98211
2515.90893	0.98247
2513.85513	0.98231
2511.80132	0.98222
2509.74752	0.98266
2507.69372	0.98319
2505.63992	0.98300
2503.58611	0.98249
2501.53231	0.98270
2499.47851	0.98357
2497.42470	0.98426
2495.37090	0.98410
2493.31710	0.98347
2491.26329	0.98345
2489.20949	0.98361
2487.15569	0.98308
2485.10188	0.98255
2483.04808	0.98231
2480.99428	0.98226
2478.94047	0.98262
2476.88667	0.98301
2474.83287	0.98311
2472.77906	0.98329
2470.72526	0.98321
2468.67146	0.98273
2466.61765	0.98310
2464.56385	0.98418
2462.51005	0.98435
2460.45624	0.98373
2458.40244	0.98328
2456.34864	0.98290
2454.29483	0.98239
2452.24103	0.98216
2450.18723	0.98246
2448.13343	0.98301
2446.07962	0.98362
2444.02582	0.98389
2441.97202	0.98369
2439.91821	0.98356
2437.86441	0.98371
2435.81061	0.98416
2433.75680	0.98456
2431.70300	0.98451
2429.64920	0.98381
2427.59539	0.98266
2425.54159	0.98194
2423.48779	0.98189
2421.43398	0.98215
2419.38018	0.98266
2417.32638	0.98320
2415.27257	0.98351
2413.21877	0.98358
2411.16497	0.98345
2409.11116	0.98314
2407.05736	0.98308
2405.00356	0.98371
2402.94975	0.98443
2400.89595	0.98434
2398.84215	0.98374
2396.78834	0.98350
2394.73454	0.98349
2392.68074	0.98329
2390.62694	0.98294
2388.57313	0.98268
2386.51933	0.98292
2384.46553	0.98356
2382.41172	0.98389
2380.35792	0.98365
2378.30412	0.98358
2376.25031	0.98411
2374.19651	0.98452
2372.14271	0.98421
2370.08890	0.98347
2368.03510	0.98322
2365.98130	0.98348
2363.92749	0.98377
2361.87369	0.98422
2359.81989	0.98410
2357.76608	0.98322
2355.71228	0.98210
2353.65848	0.98138
2351.60467	0.98149
2349.55087	0.98207
2347.49707	0.98282
2345.44326	0.98302
2343.38946	0.98268
2341.33566	0.98307
2339.28186	0.98378
2337.22805	0.98396
2335.17425	0.98299
2333.12045	0.98184
2331.06664	0.98201
2329.01284	0.98234
2326.95904	0.98158
2324.90523	0.98060
2322.85143	0.98075
2320.79763	0.98207
2318.74382	0.98302
2316.69002	0.98286
2314.63622	0.98248
2312.58241	0.98242
2310.52861	0.98244
2308.47481	0.98197
2306.42100	0.98110
2304.36720	0.98041
2302.31340	0.97994
2300.25959	0.98019
2298.20579	0.98125
2296.15199	0.98214
2294.09818	0.98254
2292.04438	0.98253
2289.99058	0.98211
2287.93677	0.98165
2285.88297	0.98156
2283.82917	0.98157
2281.77537	0.98146
2279.72156	0.98198
2277.66776	0.98303
2275.61396	0.98333
2273.56015	0.98312
2271.50635	0.98357
2269.45255	0.98425
2267.39874	0.98361
2265.34494	0.98145
2263.29114	0.97999
2261.23733	0.98058
2259.18353	0.98139
2257.12973	0.98159
2255.07592	0.98286
2253.02212	0.98433
2250.96832	0.98380
2248.91451	0.98221
2246.86071	0.98185
2244.80691	0.98231
2242.75310	0.98187
2240.69930	0.98168
2238.64550	0.98233
2236.59169	0.98201
2234.53789	0.98133
2232.48409	0.98208
2230.43029	0.98313
2228.37648	0.98279
2226.32268	0.98218
2224.26888	0.98306
2222.21507	0.98462
2220.16127	0.98512
2218.10747	0.98478
2216.05366	0.98428
2213.99986	0.98370
2211.94606	0.98321
2209.89225	0.98239
2207.83845	0.98186
2205.78465	0.98315
2203.73084	0.98474
2201.67704	0.98388
2199.62324	0.98172
2197.56943	0.98091
2195.51563	0.98182
2193.46183	0.98280
2191.40802	0.98158
2189.35422	0.97985
2187.30042	0.98133
2185.24661	0.98366
2183.19281	0.98366
2181.13901	0.98300
2179.08520	0.98309
2177.03140	0.98431
2174.97760	0.98621
2172.92380	0.98613
2170.86999	0.98360
2168.81619	0.98198
2166.76239	0.98325
2164.70858	0.98462
2162.65478	0.98295
2160.60098	0.98023
2158.54717	0.97878
2156.49337	0.97904
2154.43957	0.98178
2152.38576	0.98514
2150.33196	0.98623
2148.27816	0.98529
2146.22435	0.98484
2144.17055	0.98556
2142.11675	0.98574
2140.06294	0.98485
2138.00914	0.98512
2135.95534	0.98705
2133.90153	0.98863
2131.84773	0.98816
2129.79393	0.98542
2127.74012	0.98244
2125.68632	0.98063
2123.63252	0.98082
2121.57871	0.98292
2119.52491	0.98428
2117.47111	0.98381
2115.41731	0.98311
2113.36350	0.98359
2111.30970	0.98499
2109.25590	0.98543
2107.20209	0.98433
2105.14829	0.98339
2103.09449	0.98325
2101.04068	0.98271
2098.98688	0.98152
2096.93308	0.98119
2094.87927	0.98308
2092.82547	0.98558
2090.77167	0.98619
2088.71786	0.98517
2086.66406	0.98357
2084.61026	0.98172
2082.55645	0.98087
2080.50265	0.98196
2078.44885	0.98337
2076.39504	0.98340
2074.34124	0.98271
2072.28744	0.98265
2070.23363	0.98363
2068.17983	0.98516
2066.12603	0.98567
2064.07223	0.98470
2062.01842	0.98450
2059.96462	0.98508
2057.91082	0.98525
2055.85701	0.98575
2053.80321	0.98574
2051.74941	0.98428
2049.69560	0.98285
2047.64180	0.98324
2045.58800	0.98476
2043.53419	0.98520
2041.48039	0.98454
2039.42659	0.98354
2037.37278	0.98263
2035.31898	0.98261
2033.26518	0.98327
2031.21137	0.98477
2029.15757	0.98693
2027.10377	0.98717
2025.04996	0.98556
2022.99616	0.98323
2020.94236	0.98015
2018.88855	0.97951
2016.83475	0.98242
2014.78095	0.98487
2012.72714	0.98504
2010.67334	0.98393
2008.61954	0.98360
2006.56574	0.98513
2004.51193	0.98562
2002.45813	0.98380
2000.40433	0.98236
1998.35052	0.98320
1996.29672	0.98493
1994.24292	0.98602
1992.18911	0.98641
1990.13531	0.98589
1988.08151	0.98485
1986.02770	0.98423
1983.97390	0.98380
1981.92010	0.98188
1979.86629	0.97891
1977.81249	0.97750
1975.75869	0.97925
1973.70488	0.98224
1971.65108	0.98291
1969.59728	0.98288
1967.54347	0.98449
1965.48967	0.98599
1963.43587	0.98628
1961.38206	0.98659
1959.32826	0.98688
1957.27446	0.98511
1955.22066	0.98221
1953.16685	0.98083
1951.11305	0.98116
1949.05925	0.98241
1947.00544	0.98384
1944.95164	0.98438
1942.89784	0.98401
1940.84403	0.98391
1938.79023	0.98437
1936.73643	0.98441
1934.68262	0.98407
1932.62882	0.98424
1930.57502	0.98473
1928.52121	0.98561
1926.46741	0.98635
1924.41361	0.98581
1922.35980	0.98424
1920.30600	0.98345
1918.25220	0.98391
1916.19839	0.98415
1914.14459	0.98413
1912.09079	0.98435
1910.03698	0.98445
1907.98318	0.98457
1905.92938	0.98455
1903.87557	0.98380
1901.82177	0.98273
1899.76797	0.98239
1897.71417	0.98289
1895.66036	0.98308
1893.60656	0.98255
1891.55276	0.98217
1889.49895	0.98236
1887.44515	0.98279
1885.39135	0.98286
1883.33754	0.98254
1881.28374	0.98224
1879.22994	0.98259
1877.17613	0.98321
1875.12233	0.98300
1873.06853	0.98215
1871.01472	0.98124
1868.96092	0.98087
1866.90712	0.98146
1864.85331	0.98191
1862.79951	0.98192
1860.74571	0.98193
1858.69190	0.98197
1856.63810	0.98206
1854.58430	0.98233
1852.53049	0.98262
1850.47669	0.98293
1848.42289	0.98373
1846.36908	0.98459
1844.31528	0.98462
1842.26148	0.98419
1840.20768	0.98383
1838.15387	0.98358
1836.10007	0.98338
1834.04627	0.98295
1831.99246	0.98264
1829.93866	0.98250
1827.88486	0.98209
1825.83105	0.98192
1823.77725	0.98217
1821.72345	0.98242
1819.66964	0.98273
1817.61584	0.98300
1815.56204	0.98312
1813.50823	0.98314
1811.45443	0.98276
1809.40063	0.98215
1807.34682	0.98192
1805.29302	0.98193
1803.23922	0.98180
1801.18541	0.98113
1799.13161	0.98050
1797.07781	0.98068
1795.02400	0.98108
1792.97020	0.98104
1790.91640	0.98093
1788.86260	0.98133
1786.80879	0.98177
1784.75499	0.98198
1782.70119	0.98200
1780.64738	0.98199
1778.59358	0.98207
1776.53978	0.98195
1774.48597	0.98155
1772.43217	0.98130
1770.37837	0.98140
1768.32456	0.98152
1766.27076	0.98164
1764.21696	0.98167
1762.16315	0.98134
1760.10935	0.98100
1758.05555	0.98104
1756.00174	0.98093
1753.94794	0.98045
1751.89414	0.97999
1749.84033	0.97972
1747.78653	0.97912
1745.73273	0.97807
1743.67892	0.97709
1741.62512	0.97613
1739.57132	0.97519
1737.51751	0.97486
1735.46371	0.97502
1733.40991	0.97521
1731.35611	0.97579
1729.30230	0.97700
1727.24850	0.97797
1725.19470	0.97810
1723.14089	0.97787
1721.08709	0.97773
1719.03329	0.97788
1716.97948	0.97869
1714.92568	0.97954
1712.87188	0.97965
1710.81807	0.97958
1708.76427	0.97975
1706.71047	0.97962
1704.65666	0.97875
1702.60286	0.97765
1700.54906	0.97660
1698.49525	0.97631
1696.44145	0.97638
1694.38765	0.97611
1692.33384	0.97576
1690.28004	0.97509
1688.22624	0.97409
1686.17243	0.97345
1684.11863	0.97326
1682.06483	0.97284
1680.01103	0.97206
1677.95722	0.97129
1675.90342	0.97059
1673.84962	0.96991
1671.79581	0.96928
1669.74201	0.96857
1667.68821	0.96814
1665.63440	0.96809
1663.58060	0.96780
1661.52680	0.96724
1659.47299	0.96684
1657.41919	0.96632
1655.36539	0.96567
1653.31158	0.96548
1651.25778	0.96586
1649.20398	0.96619
1647.15017	0.96615
1645.09637	0.96566
1643.04257	0.96562
1640.98876	0.96572
1638.93496	0.96555
1636.88116	0.96557
1634.82735	0.96609
1632.77355	0.96633
1630.71975	0.96629
1628.66594	0.96629
1626.61214	0.96674
1624.55834	0.96753
1622.50454	0.96799
1620.45073	0.96818
1618.39693	0.96850
1616.34313	0.96869
1614.28932	0.96867
1612.23552	0.96870
1610.18172	0.96841
1608.12791	0.96716
1606.07411	0.96490
1604.02031	0.96207
1601.96650	0.95970
1599.91270	0.95926
1597.85890	0.96092
1595.80509	0.96360
1593.75129	0.96588
1591.69749	0.96713
1589.64368	0.96777
1587.58988	0.96778
1585.53608	0.96715
1583.48227	0.96673
1581.42847	0.96708
1579.37467	0.96789
1577.32086	0.96881
1575.26706	0.96952
1573.21326	0.96971
1571.15945	0.96962
1569.10565	0.96954
1567.05185	0.96952
1564.99805	0.96951
1562.94424	0.96961
1560.89044	0.96968
1558.83664	0.96914
1556.78283	0.96859
1554.72903	0.96853
1552.67523	0.96835
1550.62142	0.96818
1548.56762	0.96820
1546.51382	0.96801
1544.46001	0.96733
1542.40621	0.96660
1540.35241	0.96653
1538.29860	0.96699
1536.24480	0.96717
1534.19100	0.96704
1532.13719	0.96683
1530.08339	0.96668
1528.02959	0.96673
1525.97578	0.96703
1523.92198	0.96725
1521.86818	0.96693
1519.81437	0.96634
1517.76057	0.96586
1515.70677	0.96546
1513.65297	0.96520
1511.59916	0.96504
1509.54536	0.96511
1507.49156	0.96513
1505.43775	0.96434
1503.38395	0.96331
1501.33015	0.96193
1499.27634	0.95898
1497.22254	0.95158
1495.16874	0.94048
1493.11493	0.93318
1491.06113	0.93303
1489.00733	0.93930
1486.95352	0.94578
1484.89972	0.94945
1482.84592	0.95140
1480.79211	0.95235
1478.73831	0.95294
1476.68451	0.95325
1474.63070	0.95308
1472.57690	0.95276
1470.52310	0.95236
1468.46929	0.95171
1466.41549	0.95120
1464.36169	0.95088
1462.30788	0.95026
1460.25408	0.94921
1458.20028	0.94597
1456.14648	0.93689
1454.09267	0.92793
1452.03887	0.92360
1449.98507	0.92364
1447.93126	0.92654
1445.87746	0.92971
1443.82366	0.93234
1441.76985	0.93492
1439.71605	0.93697
1437.66225	0.93828
1435.60844	0.93976
1433.55464	0.94151
1431.50084	0.94301
1429.44703	0.94428
1427.39323	0.94540
1425.33943	0.94619
1423.28562	0.94648
1421.23182	0.94666
1419.17802	0.94690
1417.12421	0.94732
1415.07041	0.94809
1413.01661	0.94908
1410.96280	0.95035
1408.90900	0.95169
1406.85520	0.95278
1404.80139	0.95382
1402.74759	0.95491
1400.69379	0.95603
1398.63999	0.95710
1396.58618	0.95779
1394.53238	0.95841
1392.47858	0.95901
1390.42477	0.95938
1388.37097	0.95982
1386.31717	0.96029
1384.26336	0.96040
1382.20956	0.96005
1380.15576	0.95950
1378.10195	0.95923
1376.04815	0.95925
1373.99435	0.95925
1371.94054	0.95928
1369.88674	0.95964
1367.83294	0.96027
1365.77913	0.96078
1363.72533	0.96102
1361.67153	0.96129
1359.61772	0.96166
1357.56392	0.96213
1355.51012	0.96279
1353.45631	0.96348
1351.40251	0.96388
1349.34871	0.96400
1347.29491	0.96419
1345.24110	0.96452
1343.18730	0.96491
1341.13350	0.96544
1339.07969	0.96591
1337.02589	0.96591
1334.97209	0.96570
1332.91828	0.96566
1330.86448	0.96572
1328.81068	0.96563
1326.75687	0.96562
1324.70307	0.96580
1322.64927	0.96574
1320.59546	0.96569
1318.54166	0.96600
1316.48786	0.96623
1314.43405	0.96614
1312.38025	0.96615
1310.32645	0.96636
1308.27264	0.96662
1306.21884	0.96689
1304.16504	0.96706
1302.11123	0.96713
1300.05743	0.96701
1298.00363	0.96684
1295.94982	0.96691
1293.89602	0.96723
1291.84222	0.96764
1289.78842	0.96794
1287.73461	0.96804
1285.68081	0.96817
1283.62701	0.96828
1281.57320	0.96808
1279.51940	0.96773
1277.46560	0.96741
1275.41179	0.96719
1273.35799	0.96720
1271.30419	0.96737
1269.25038	0.96747
1267.19658	0.96765
1265.14278	0.96776
1263.08897	0.96749
1261.03517	0.96710
1258.98137	0.96693
1256.92756	0.96698
1254.87376	0.96706
1252.81996	0.96696
1250.76615	0.96652
1248.71235	0.96591
1246.65855	0.96558
1244.60474	0.96562
1242.55094	0.96565
1240.49714	0.96550
1238.44334	0.96527
1236.38953	0.96496
1234.33573	0.96472
1232.28193	0.96467
1230.22812	0.96435
1228.17432	0.96380
1226.12052	0.96345
1224.06671	0.96325
1222.01291	0.96309
1219.95911	0.96271
1217.90530	0.96213
1215.85150	0.96143
1213.79770	0.96047
1211.74389	0.95938
1209.69009	0.95841
1207.63629	0.95758
1205.58248	0.95660
1203.52868	0.95524
1201.47488	0.95388
1199.42107	0.95274
1197.36727	0.95151
1195.31347	0.95014
1193.25966	0.94893
1191.20586	0.94779
1189.15206	0.94649
1187.09825	0.94486
1185.04445	0.94286
1182.99065	0.94074
1180.93685	0.93885
1178.88304	0.93751
1176.82924	0.93671
1174.77544	0.93594
1172.72163	0.93481
1170.66783	0.93322
1168.61403	0.93142
1166.56022	0.92988
1164.50642	0.92860
1162.45262	0.92760
1160.39881	0.92680
1158.34501	0.92591
1156.29121	0.92472
1154.23740	0.92339
1152.18360	0.92235
1150.12980	0.92158
1148.07599	0.92094
1146.02219	0.92050
1143.96839	0.92013
1141.91458	0.91959
1139.86078	0.91928
1137.80698	0.91914
1135.75317	0.91817
1133.69937	0.91666
1131.64557	0.91543
1129.59176	0.91417
1127.53796	0.91260
1125.48416	0.91101
1123.43036	0.90917
1121.37655	0.90663
1119.32275	0.90360
1117.26895	0.90070
1115.21514	0.89807
1113.16134	0.89549
1111.10754	0.89324
1109.05373	0.89154
1106.99993	0.88976
1104.94613	0.88779
1102.89232	0.88614
1100.83852	0.88456
1098.78472	0.88272
1096.73091	0.88110
1094.67711	0.88014
1092.62331	0.87950
1090.56950	0.87846
1088.51570	0.87685
1086.46190	0.87533
1084.40809	0.87417
1082.35429	0.87278
1080.30049	0.87134
1078.24668	0.87005
1076.19288	0.86864
1074.13908	0.86706
1072.08528	0.86532
1070.03147	0.86348
1067.97767	0.86167
1065.92387	0.86009
1063.87006	0.85872
1061.81626	0.85734
1059.76246	0.85580
1057.70865	0.85374
1055.65485	0.85124
1053.60105	0.84888
1051.54724	0.84657
1049.49344	0.84399
1047.43964	0.84114
1045.38583	0.83769
1043.33203	0.83354
1041.27823	0.82941
1039.22442	0.82553
1037.17062	0.82172
1035.11682	0.81775
1033.06301	0.81329
1031.00921	0.80837
1028.95541	0.80387
1026.90160	0.80083
1024.84780	0.79923
1022.79400	0.79874
1020.74019	0.79871
1018.68639	0.79824
1016.63259	0.79730
1014.57879	0.79626
1012.52498	0.79516
1010.47118	0.79416
1008.41738	0.79328
1006.36357	0.79212
1004.30977	0.79113
1002.25597	0.79112
1000.20216	0.79199
998.14836	0.79315
996.09456	0.79430
994.04075	0.79565
991.98695	0.79710
989.93315	0.79852
987.87934	0.80029
985.82554	0.80242
983.77174	0.80458
981.71793	0.80694
979.66413	0.80986
977.61033	0.81326
975.55652	0.81712
973.50272	0.82133
971.44892	0.82559
969.39511	0.82979
967.34131	0.83425
965.28751	0.83871
963.23371	0.84237
961.17990	0.84569
959.12610	0.84935
957.07230	0.85312
955.01849	0.85639
952.96469	0.85934
950.91089	0.86217
948.85708	0.86434
946.80328	0.86599
944.74948	0.86760
942.69567	0.86894
940.64187	0.87020
938.58807	0.87166
936.53426	0.87332
934.48046	0.87544
932.42666	0.87773
930.37285	0.87936
928.31905	0.88066
926.26525	0.88216
924.21144	0.88327
922.15764	0.88341
920.10384	0.88295
918.05003	0.88254
915.99623	0.88232
913.94243	0.88202
911.88862	0.88160
909.83482	0.88147
907.78102	0.88191
905.72722	0.88313
903.67341	0.88571
901.61961	0.88965
899.56581	0.89409
897.51200	0.89809
895.45820	0.90127
893.40440	0.90406
891.35059	0.90681
889.29679	0.90909
887.24299	0.91057
885.18918	0.91137
883.13538	0.91125
881.08158	0.91015
879.02777	0.90866
876.97397	0.90725
874.92017	0.90615
872.86636	0.90649
870.81256	0.90932
868.75876	0.91318
866.70495	0.91622
864.65115	0.91850
862.59735	0.92024
860.54354	0.92148
858.48974	0.92333
856.43594	0.92632
854.38213	0.92892
852.32833	0.92999
850.27453	0.93002
848.22073	0.92941
846.16692	0.92867
844.11312	0.92863
842.05932	0.92911
840.00551	0.92941
837.95171	0.92940
835.89791	0.92937
833.84410	0.92927
831.79030	0.92927
829.73650	0.92991
827.68269	0.93101
825.62889	0.93175
823.57509	0.93189
821.52128	0.93231
819.46748	0.93298
817.41368	0.93308
815.35987	0.93299
813.30607	0.93290
811.25227	0.93214
809.19846	0.93094
807.14466	0.92955
805.09086	0.92690
803.03705	0.92314
800.98325	0.92051
798.92945	0.91973
796.87565	0.91985
794.82184	0.92053
792.76804	0.92117
790.71424	0.92091
788.66043	0.92018
786.60663	0.91991
784.55283	0.91953
782.49902	0.91796
780.44522	0.91569
778.39142	0.91389
776.33761	0.91244
774.28381	0.91017
772.23001	0.90694
770.17620	0.90357
768.12240	0.90035
766.06860	0.89674
764.01479	0.89187
761.96099	0.88578
759.90719	0.87976
757.85338	0.87543
755.79958	0.87336
753.74578	0.87264
751.69197	0.87209
749.63817	0.87137
747.58437	0.87116
745.53056	0.87324
743.47676	0.87853
741.42296	0.88553
739.36916	0.89227
737.31535	0.89782
735.26155	0.90234
733.20775	0.90641
731.15394	0.91018
729.10014	0.91354
727.04634	0.91630
724.99253	0.91824
722.93873	0.91971
720.88493	0.92115
718.83112	0.92214
716.77732	0.92243
714.72352	0.92223
712.66971	0.92103
710.61591	0.91791
708.56211	0.91119
706.50830	0.89817
704.45450	0.87789
702.40070	0.85193
700.34689	0.82279
698.29309	0.79508
696.23929	0.77680
694.18548	0.77544
692.13168	0.79019
690.07788	0.81206
688.02408	0.83208
685.97027	0.84669
683.91647	0.85675
681.86267	0.86422
679.80886	0.87048
677.75506	0.87548
675.70126	0.87890
673.64745	0.88114
671.59365	0.88230
669.53985	0.88280
667.48604	0.88480
665.43224	0.88797
663.37844	0.88979
661.32463	0.89063
659.27083	0.89132
657.21703	0.89199
655.16322	0.89249
653.10942	0.89218
651.05562	0.89131
649.00181	0.89144
646.94801	0.89281
644.89421	0.89445
642.84040	0.89548
640.78660	0.89551
638.73280	0.89533
636.67899	0.89534
634.62519	0.89560
632.57139	0.89666
630.51759	0.89809
628.46378	0.89834
626.40998	0.89694
624.35618	0.89525
622.30237	0.89442
620.24857	0.89474
618.19477	0.89472
616.14096	0.89326
614.08716	0.89192
612.03336	0.89098
609.97955	0.89001
607.92575	0.88963
605.87195	0.88896
603.81814	0.88744
601.76434	0.88630
599.71054	0.88553
597.65673	0.88500
595.60293	0.88426
593.54913	0.88186
591.49532	0.87923
589.44152	0.87850
587.38772	0.87826
585.33391	0.87736
583.28011	0.87705
581.22631	0.87738
579.17250	0.87734
577.11870	0.87600
575.06490	0.87220
573.01110	0.86783
570.95729	0.86579
568.90349	0.86473
566.84969	0.86247
564.79588	0.85939
562.74208	0.85612
560.68828	0.85244
558.63447	0.84857
556.58067	0.84497
554.52687	0.84065
552.47306	0.83599
550.41926	0.83253
548.36546	0.82943
546.31165	0.82488
544.25785	0.81833
542.20405	0.81097
540.15024	0.80436
538.09644	0.79925
536.04264	0.79579
533.98883	0.79415
531.93503	0.79421
529.88123	0.79583
527.82742	0.79848
525.77362	0.80161
523.71982	0.80471
521.66602	0.80752
519.61221	0.81070
517.55841	0.81351
515.50461	0.81430
513.45080	0.81438
511.39700	0.81566
509.34320	0.81768
507.28939	0.82061
505.23559	0.82427
503.18179	0.82805
501.12798	0.83113
499.07418	0.83099
497.02038	0.82823
494.96657	0.82488
492.91277	0.82253
490.85897	0.82081
488.80516	0.81794
486.75136	0.81383
484.69756	0.80825
482.64375	0.80103
480.58995	0.79296
478.53615	0.78521
476.48234	0.77845
474.42854	0.77294
472.37474	0.76866
470.32093	0.76528
468.26713	0.76197
466.21333	0.75912
464.15953	0.75809
462.10572	0.75961
460.05192	0.76438
457.99812	0.76977
455.94431	0.77201
453.89051	0.77185
451.83671	0.77123
449.78290	0.77306
447.72910	0.77826
445.67530	0.78228
443.62149	0.78160
441.56769	0.78080
439.51389	0.78266
437.46008	0.78289
435.40628	0.78087
433.35248	0.78029
431.29867	0.78265
429.24487	0.78466
427.19107	0.78338
425.13726	0.78435
423.08346	0.78852
421.02966	0.78898
418.97585	0.78814
416.92205	0.78872
414.86825	0.78803
412.81445	0.78657
410.76064	0.78545
408.70684	0.78898
406.65304	0.79839
404.59923	0.80526
402.54543	0.80337
400.49163	0.79447
398.43782	0.78407
