3996.70104	0.93387
3994.64724	0.93427
3992.59344	0.93398
3990.53964	0.93362
3988.48583	0.93385
3986.43203	0.93461
3984.37823	0.93509
3982.32442	0.93484
3980.27062	0.93451
3978.21682	0.93449
3976.16301	0.93439
3974.10921	0.93429
3972.05541	0.93469
3970.00160	0.93528
3967.94780	0.93522
3965.89400	0.93441
3963.84019	0.93362
3961.78639	0.93352
3959.73259	0.93409
3957.67878	0.93473
3955.62498	0.93504
3953.57118	0.93491
3951.51737	0.93426
3949.46357	0.93351
3947.40977	0.93330
3945.35596	0.93362
3943.30216	0.93423
3941.24836	0.93490
3939.19455	0.93483
3937.14075	0.93428
3935.08695	0.93437
3933.03315	0.93477
3930.97934	0.93490
3928.92554	0.93503
3926.87174	0.93486
3924.81793	0.93479
3922.76413	0.93512
3920.71033	0.93502
3918.65652	0.93462
3916.60272	0.93450
3914.54892	0.93474
3912.49511	0.93514
3910.44131	0.93533
3908.38751	0.93525
3906.33370	0.93504
3904.27990	0.93500
3902.22610	0.93540
3900.17229	0.93562
3898.11849	0.93522
3896.06469	0.93477
3894.01088	0.93472
3891.95708	0.93488
3889.90328	0.93465
3887.84947	0.93432
3885.79567	0.93462
3883.74187	0.93514
3881.68807	0.93501
3879.63426	0.93500
3877.58046	0.93519
3875.52666	0.93489
3873.47285	0.93438
3871.41905	0.93431
3869.36525	0.93483
3867.31144	0.93539
3865.25764	0.93613
3863.20384	0.93711
3861.15003	0.93712
3859.09623	0.93653
3857.04243	0.93625
3854.98862	0.93643
3852.93482	0.93713
3850.88102	0.93699
3848.82721	0.93606
3846.77341	0.93516
3844.71961	0.93457
3842.66580	0.93451
3840.61200	0.93486
3838.55820	0.93509
3836.50439	0.93511
3834.45059	0.93535
3832.39679	0.93548
3830.34298	0.93511
3828.28918	0.93501
3826.23538	0.93571
3824.18158	0.93648
3822.12777	0.93683
3820.07397	0.93677
3818.02017	0.93666
3815.96636	0.93671
3813.91256	0.93630
3811.85876	0.93554
3809.80495	0.93513
3807.75115	0.93530
3805.69735	0.93548
3803.64354	0.93545
3801.58974	0.93602
3799.53594	0.93699
3797.48213	0.93744
3795.42833	0.93713
3793.37453	0.93634
3791.32072	0.93575
3789.26692	0.93577
3787.21312	0.93625
3785.15931	0.93669
3783.10551	0.93688
3781.05171	0.93706
3778.99790	0.93724
3776.94410	0.93715
3774.89030	0.93697
3772.83650	0.93708
3770.78269	0.93737
3768.72889	0.93737
3766.67509	0.93738
3764.62128	0.93768
3762.56748	0.93769
3760.51368	0.93741
3758.45987	0.93708
3756.40607	0.93633
3754.35227	0.93555
3752.29846	0.93604
3750.24466	0.93759
3748.19086	0.93794
3746.13705	0.93837
3744.08325	0.93948
3742.02945	0.93945
3739.97564	0.93897
3737.92184	0.93893
3735.86804	0.93897
3733.81423	0.93882
3731.76043	0.93931
3729.70663	0.93947
3727.65282	0.93879
3725.59902	0.93869
3723.54522	0.93942
3721.49141	0.93930
3719.43761	0.93831
3717.38381	0.93775
3715.33001	0.93756
3713.27620	0.93714
3711.22240	0.93661
3709.16860	0.93614
3707.11479	0.93572
3705.06099	0.93495
3703.00719	0.93348
3700.95338	0.93206
3698.89958	0.93143
3696.84578	0.93103
3694.79197	0.93102
3692.73817	0.93173
3690.68437	0.93277
3688.63056	0.93379
3686.57676	0.93445
3684.52296	0.93468
3682.46915	0.93422
3680.41535	0.93307
3678.36155	0.93250
3676.30774	0.93337
3674.25394	0.93395
3672.20014	0.93292
3670.14633	0.93116
3668.09253	0.93034
3666.03873	0.93079
3663.98492	0.93107
3661.93112	0.93059
3659.87732	0.92973
3657.82352	0.92930
3655.76971	0.92927
3653.71591	0.92910
3651.66211	0.92864
3649.60830	0.92780
3647.55450	0.92716
3645.50070	0.92696
3643.44689	0.92670
3641.39309	0.92634
3639.33929	0.92563
3637.28548	0.92459
3635.23168	0.92412
3633.17788	0.92393
3631.12407	0.92332
3629.07027	0.92287
3627.01647	0.92268
3624.96266	0.92227
3622.90886	0.92164
3620.85506	0.92071
3618.80125	0.91997
3616.74745	0.91986
3614.69365	0.91992
3612.63984	0.91991
3610.58604	0.91970
3608.53224	0.91926
3606.47844	0.91932
3604.42463	0.92000
3602.37083	0.92002
3600.31703	0.91915
3598.26322	0.91893
3596.20942	0.91928
3594.15562	0.91904
3592.10181	0.91872
3590.04801	0.91858
3587.99421	0.91802
3585.94040	0.91767
3583.88660	0.91830
3581.83280	0.91906
3579.77899	0.91901
3577.72519	0.91840
3575.67139	0.91768
3573.61758	0.91691
3571.56378	0.91625
3569.50998	0.91551
3567.45617	0.91488
3565.40237	0.91437
3563.34857	0.91378
3561.29476	0.91367
3559.24096	0.91392
3557.18716	0.91371
3555.13335	0.91281
3553.07955	0.91169
3551.02575	0.91104
3548.97195	0.91102
3546.91814	0.91094
3544.86434	0.91043
3542.81054	0.91016
3540.75673	0.91000
3538.70293	0.90951
3536.64913	0.90930
3534.59532	0.90940
3532.54152	0.90890
3530.48772	0.90818
3528.43391	0.90805
3526.38011	0.90803
3524.32631	0.90782
3522.27250	0.90757
3520.21870	0.90718
3518.16490	0.90676
3516.11109	0.90642
3514.05729	0.90605
3512.00349	0.90553
3509.94968	0.90460
3507.89588	0.90362
3505.84208	0.90348
3503.78827	0.90379
3501.73447	0.90363
3499.68067	0.90320
3497.62687	0.90271
3495.57306	0.90179
3493.51926	0.90094
3491.46546	0.90043
3489.41165	0.89983
3487.35785	0.89936
3485.30405	0.89920
3483.25024	0.89899
3481.19644	0.89838
3479.14264	0.89737
3477.08883	0.89676
3475.03503	0.89689
3472.98123	0.89679
3470.92742	0.89611
3468.87362	0.89527
3466.81982	0.89463
3464.76601	0.89451
3462.71221	0.89430
3460.65841	0.89318
3458.60460	0.89186
3456.55080	0.89143
3454.49700	0.89149
3452.44319	0.89112
3450.38939	0.89047
3448.33559	0.89005
3446.28178	0.88994
3444.22798	0.89026
3442.17418	0.89044
3440.12038	0.89003
3438.06657	0.88989
3436.01277	0.89005
3433.95897	0.88997
3431.90516	0.88979
3429.85136	0.88954
3427.79756	0.88903
3425.74375	0.88870
3423.68995	0.88888
3421.63615	0.88893
3419.58234	0.88843
3417.52854	0.88787
3415.47474	0.88769
3413.42093	0.88749
3411.36713	0.88683
3409.31333	0.88614
3407.25952	0.88570
3405.20572	0.88511
3403.15192	0.88447
3401.09811	0.88425
3399.04431	0.88440
3396.99051	0.88471
3394.93670	0.88500
3392.88290	0.88462
3390.82910	0.88376
3388.77529	0.88366
3386.72149	0.88417
3384.66769	0.88433
3382.61389	0.88412
3380.56008	0.88401
3378.50628	0.88397
3376.45248	0.88384
3374.39867	0.88363
3372.34487	0.88326
3370.29107	0.88283
3368.23726	0.88271
3366.18346	0.88287
3364.12966	0.88281
3362.07585	0.88239
3360.02205	0.88221
3357.96825	0.88260
3355.91444	0.88294
3353.86064	0.88257
3351.80684	0.88185
3349.75303	0.88162
3347.69923	0.88179
3345.64543	0.88177
3343.59162	0.88178
3341.53782	0.88220
3339.48402	0.88252
3337.43021	0.88230
3335.37641	0.88189
3333.32261	0.88161
3331.26881	0.88166
3329.21500	0.88201
3327.16120	0.88222
3325.10740	0.88196
3323.05359	0.88168
3320.99979	0.88186
3318.94599	0.88211
3316.89218	0.88209
3314.83838	0.88224
3312.78458	0.88259
3310.73077	0.88273
3308.67697	0.88280
3306.62317	0.88282
3304.56936	0.88264
3302.51556	0.88258
3300.46176	0.88293
3298.40795	0.88372
3296.35415	0.88446
3294.30035	0.88457
3292.24654	0.88382
3290.19274	0.88306
3288.13894	0.88296
3286.08513	0.88328
3284.03133	0.88356
3281.97753	0.88366
3279.92372	0.88413
3277.86992	0.88466
3275.81612	0.88446
3273.76232	0.88429
3271.70851	0.88449
3269.65471	0.88428
3267.60091	0.88385
3265.54710	0.88392
3263.49330	0.88405
3261.43950	0.88379
3259.38569	0.88360
3257.33189	0.88382
3255.27809	0.88445
3253.22428	0.88497
3251.17048	0.88479
3249.11668	0.88431
3247.06287	0.88383
3245.00907	0.88346
3242.95527	0.88367
3240.90146	0.88402
3238.84766	0.88368
3236.79386	0.88338
3234.74005	0.88392
3232.68625	0.88469
3230.63245	0.88538
3228.57864	0.88590
3226.52484	0.88603
3224.47104	0.88614
3222.41724	0.88639
3220.36343	0.88651
3218.30963	0.88631
3216.25583	0.88618
3214.20202	0.88641
3212.14822	0.88675
3210.09442	0.88707
3208.04061	0.88752
3205.98681	0.88789
3203.93301	0.88790
3201.87920	0.88808
3199.82540	0.88892
3197.77160	0.88997
3195.71779	0.89056
3193.66399	0.89071
3191.61019	0.89075
3189.55638	0.89092
3187.50258	0.89139
3185.44878	0.89195
3183.39497	0.89258
3181.34117	0.89328
3179.28737	0.89366
3177.23356	0.89380
3175.17976	0.89420
3173.12596	0.89478
3171.07215	0.89526
3169.01835	0.89568
3166.96455	0.89609
3164.91075	0.89651
3162.85694	0.89686
3160.80314	0.89703
3158.74934	0.89704
3156.69553	0.89693
3154.64173	0.89702
3152.58793	0.89770
3150.53412	0.89878
3148.48032	0.89968
3146.42652	0.90019
3144.37271	0.90049
3142.31891	0.90072
3140.26511	0.90088
3138.21130	0.90149
3136.15750	0.90244
3134.10370	0.90278
3132.04989	0.90243
3129.99609	0.90228
3127.94229	0.90269
3125.88848	0.90327
3123.83468	0.90357
3121.78088	0.90364
3119.72707	0.90418
3117.67327	0.90495
3115.61947	0.90494
3113.56566	0.90473
3111.51186	0.90476
3109.45806	0.90448
3107.40426	0.90400
3105.35045	0.90351
3103.29665	0.90316
3101.24285	0.90319
3099.18904	0.90341
3097.13524	0.90376
3095.08144	0.90434
3093.02763	0.90447
3090.97383	0.90334
3088.92003	0.90114
3086.86622	0.89869
3084.81242	0.89627
3082.75862	0.89440
3080.70481	0.89437
3078.65101	0.89601
3076.59721	0.89795
3074.54340	0.89932
3072.48960	0.89986
3070.43580	0.89956
3068.38199	0.89835
3066.32819	0.89634
3064.27439	0.89399
3062.22058	0.89182
3060.16678	0.89036
3058.11298	0.89021
3056.05918	0.89170
3054.00537	0.89449
3051.95157	0.89764
3049.89777	0.90010
3047.84396	0.90175
3045.79016	0.90297
3043.73636	0.90351
3041.68255	0.90332
3039.62875	0.90289
3037.57495	0.90169
3035.52114	0.89873
3033.46734	0.89366
3031.41354	0.88667
3029.35973	0.87887
3027.30593	0.87229
3025.25213	0.86916
3023.19832	0.87100
3021.14452	0.87723
3019.09072	0.88516
3017.03691	0.89226
3014.98311	0.89760
3012.92931	0.90144
3010.87550	0.90395
3008.82170	0.90488
3006.76790	0.90451
3004.71409	0.90389
3002.66029	0.90400
3000.60649	0.90484
2998.55269	0.90614
2996.49888	0.90772
2994.44508	0.90924
2992.39128	0.91055
2990.33747	0.91161
2988.28367	0.91223
2986.22987	0.91244
2984.17606	0.91227
2982.12226	0.91178
2980.06846	0.91120
2978.01465	0.91077
2975.96085	0.91068
2973.90705	0.91059
2971.85324	0.91004
2969.79944	0.90910
2967.74564	0.90787
2965.69183	0.90615
2963.63803	0.90399
2961.58423	0.90213
2959.53042	0.90067
2957.47662	0.89915
2955.42282	0.89786
2953.36901	0.89700
2951.31521	0.89598
2949.26141	0.89466
2947.20761	0.89337
2945.15380	0.89140
2943.10000	0.88795
2941.04620	0.88327
2938.99239	0.87771
2936.93859	0.87147
2934.88479	0.86462
2932.83098	0.85697
2930.77718	0.84888
2928.72338	0.84124
2926.66957	0.83479
2924.61577	0.82948
2922.56197	0.82496
2920.50816	0.82205
2918.45436	0.82196
2916.40056	0.82470
2914.34675	0.82958
2912.29295	0.83597
2910.23915	0.84292
2908.18534	0.84949
2906.13154	0.85530
2904.07774	0.86057
2902.02393	0.86568
2899.97013	0.87052
2897.91633	0.87485
2895.86252	0.87870
2893.80872	0.88213
2891.75492	0.88501
2889.70112	0.88721
2887.64731	0.88891
2885.59351	0.89044
2883.53971	0.89210
2881.48590	0.89403
2879.43210	0.89573
2877.37830	0.89661
2875.32449	0.89697
2873.27069	0.89714
2871.21689	0.89728
2869.16308	0.89769
2867.10928	0.89794
2865.05548	0.89707
2863.00167	0.89479
2860.94787	0.89135
2858.89407	0.88687
2856.84026	0.88145
2854.78646	0.87581
2852.73266	0.87105
2850.67885	0.86865
2848.62505	0.86995
2846.57125	0.87479
2844.51744	0.88147
2842.46364	0.88833
2840.40984	0.89448
2838.35603	0.89947
2836.30223	0.90328
2834.24843	0.90619
2832.19463	0.90848
2830.14082	0.91042
2828.08702	0.91204
2826.03322	0.91331
2823.97941	0.91424
2821.92561	0.91512
2819.87181	0.91613
2817.81800	0.91705
2815.76420	0.91763
2813.71040	0.91780
2811.65659	0.91792
2809.60279	0.91839
2807.54899	0.91886
2805.49518	0.91898
2803.44138	0.91908
2801.38758	0.91934
2799.33377	0.91951
2797.27997	0.91947
2795.22617	0.91937
2793.17236	0.91949
2791.11856	0.91967
2789.06476	0.91966
2787.01095	0.91976
2784.95715	0.92033
2782.90335	0.92109
2780.84955	0.92164
2778.79574	0.92182
2776.74194	0.92171
2774.68814	0.92166
2772.63433	0.92203
2770.58053	0.92263
2768.52673	0.92293
2766.47292	0.92292
2764.41912	0.92305
2762.36532	0.92339
2760.31151	0.92359
2758.25771	0.92347
2756.20391	0.92325
2754.15010	0.92320
2752.09630	0.92340
2750.04250	0.92372
2747.98869	0.92392
2745.93489	0.92397
2743.88109	0.92403
2741.82728	0.92413
2739.77348	0.92420
2737.71968	0.92417
2735.66587	0.92396
2733.61207	0.92361
2731.55827	0.92349
2729.50446	0.92387
2727.45066	0.92435
2725.39686	0.92438
2723.34306	0.92421
2721.28925	0.92446
2719.23545	0.92509
2717.18165	0.92552
2715.12784	0.92544
2713.07404	0.92523
2711.02024	0.92535
2708.96643	0.92555
2706.91263	0.92562
2704.85883	0.92572
2702.80502	0.92579
2700.75122	0.92584
2698.69742	0.92597
2696.64361	0.92627
2694.58981	0.92659
2692.53601	0.92673
2690.48220	0.92673
2688.42840	0.92658
2686.37460	0.92639
2684.32079	0.92643
2682.26699	0.92651
2680.21319	0.92634
2678.15938	0.92621
2676.10558	0.92641
2674.05178	0.92674
2671.99797	0.92702
2669.94417	0.92702
2667.89037	0.92679
2665.83657	0.92667
2663.78276	0.92671
2661.72896	0.92689
2659.67516	0.92722
2657.62135	0.92736
2655.56755	0.92718
2653.51375	0.92711
2651.45994	0.92731
2649.40614	0.92759
2647.35234	0.92788
2645.29853	0.92813
2643.24473	0.92832
2641.19093	0.92857
2639.13712	0.92876
2637.08332	0.92867
2635.02952	0.92866
2632.97571	0.92903
2630.92191	0.92960
2628.86811	0.93001
2626.81430	0.93013
2624.76050	0.93021
2622.70670	0.93036
2620.65289	0.93069
2618.59909	0.93106
2616.54529	0.93135
2614.49149	0.93179
2612.43768	0.93230
2610.38388	0.93240
2608.33008	0.93221
2606.27627	0.93209
2604.22247	0.93181
2602.16867	0.93130
2600.11486	0.93096
2598.06106	0.93094
2596.00726	0.93129
2593.95345	0.93199
2591.89965	0.93282
2589.84585	0.93339
2587.79204	0.93297
2585.73824	0.93217
2583.68444	0.93248
2581.63063	0.93360
2579.57683	0.93438
2577.52303	0.93446
2575.46922	0.93418
2573.41542	0.93403
2571.36162	0.93390
2569.30781	0.93377
2567.25401	0.93391
2565.20021	0.93401
2563.14640	0.93397
2561.09260	0.93424
2559.03880	0.93466
2556.98500	0.93472
2554.93119	0.93477
2552.87739	0.93524
2550.82359	0.93600
2548.76978	0.93641
2546.71598	0.93558
2544.66218	0.93447
2542.60837	0.93438
2540.55457	0.93487
2538.50077	0.93548
2536.44696	0.93568
2534.39316	0.93538
2532.33936	0.93535
2530.28555	0.93554
2528.23175	0.93555
2526.17795	0.93568
2524.12414	0.93575
2522.07034	0.93559
2520.01654	0.93581
2517.96273	0.93621
2515.90893	0.93588
2513.85513	0.93546
2511.80132	0.93536
2509.74752	0.93486
2507.69372	0.93457
2505.63992	0.93507
2503.58611	0.93549
2501.53231	0.93546
2499.47851	0.93581
2497.42470	0.93659
2495.37090	0.93690
2493.31710	0.93706
2491.26329	0.93705
2489.20949	0.93645
2487.15569	0.93639
2485.10188	0.93712
2483.04808	0.93756
2480.99428	0.93749
2478.94047	0.93744
2476.88667	0.93759
2474.83287	0.93754
2472.77906	0.93749
2470.72526	0.93773
2468.67146	0.93777
2466.61765	0.93773
2464.56385	0.93812
2462.51005	0.93835
2460.45624	0.93804
2458.40244	0.93763
2456.34864	0.93725
2454.29483	0.93697
2452.24103	0.93706
2450.18723	0.93755
2448.13343	0.93776
2446.07962	0.93760
2444.02582	0.93790
2441.97202	0.93821
2439.91821	0.93790
2437.86441	0.93776
2435.81061	0.93802
2433.75680	0.93777
2431.70300	0.93734
2429.64920	0.93770
2427.59539	0.93837
2425.54159	0.93837
2423.48779	0.93798
2421.43398	0.93782
2419.38018	0.93766
2417.32638	0.93759
2415.27257	0.93785
2413.21877	0.93813
2411.16497	0.93805
2409.11116	0.93792
2407.05736	0.93827
2405.00356	0.93845
2402.94975	0.93794
2400.89595	0.93749
2398.84215	0.93766
2396.78834	0.93809
2394.73454	0.93837
2392.68074	0.93871
2390.62694	0.93901
2388.57313	0.93868
2386.51933	0.93826
2384.46553	0.93864
2382.41172	0.93924
2380.35792	0.93924
2378.30412	0.93889
2376.25031	0.93817
2374.19651	0.93703
2372.14271	0.93674
2370.08890	0.93765
2368.03510	0.93853
2365.98130	0.93862
2363.92749	0.93840
2361.87369	0.93845
2359.81989	0.93882
2357.76608	0.93940
2355.71228	0.93951
2353.65848	0.93878
2351.60467	0.93786
2349.55087	0.93742
2347.49707	0.93745
2345.44326	0.93745
2343.38946	0.93737
2341.33566	0.93756
2339.28186	0.93741
2337.22805	0.93707
2335.17425	0.93729
2333.12045	0.93783
2331.06664	0.93826
2329.01284	0.93867
2326.95904	0.93859
2324.90523	0.93746
2322.85143	0.93632
2320.79763	0.93606
2318.74382	0.93645
2316.69002	0.93714
2314.63622	0.93745
2312.58241	0.93773
2310.52861	0.93859
2308.47481	0.93916
2306.42100	0.93921
2304.36720	0.93962
2302.31340	0.94007
2300.25959	0.93974
2298.20579	0.93908
2296.15199	0.93879
2294.09818	0.93848
2292.04438	0.93813
2289.99058	0.93842
2287.93677	0.93886
2285.88297	0.93897
2283.82917	0.93896
2281.77537	0.93858
2279.72156	0.93816
2277.66776	0.93887
2275.61396	0.94058
2273.56015	0.94178
2271.50635	0.94186
2269.45255	0.94132
2267.39874	0.94036
2265.34494	0.93967
2263.29114	0.94024
2261.23733	0.94045
2259.18353	0.93876
2257.12973	0.93732
2255.07592	0.93794
2253.02212	0.93943
2250.96832	0.94043
2248.91451	0.94131
2246.86071	0.94181
2244.80691	0.94150
2242.75310	0.94144
2240.69930	0.94141
2238.64550	0.94147
2236.59169	0.94261
2234.53789	0.94335
2232.48409	0.94343
2230.43029	0.94388
2228.37648	0.94330
2226.32268	0.94190
2224.26888	0.94165
2222.21507	0.94219
2220.16127	0.94221
2218.10747	0.94144
2216.05366	0.94146
2213.99986	0.94320
2211.94606	0.94475
2209.89225	0.94445
2207.83845	0.94285
2205.78465	0.94237
2203.73084	0.94331
2201.67704	0.94316
2199.62324	0.94200
2197.56943	0.94182
2195.51563	0.94279
2193.46183	0.94329
2191.40802	0.94299
2189.35422	0.94255
2187.30042	0.94205
2185.24661	0.94172
2183.19281	0.94260
2181.13901	0.94475
2179.08520	0.94592
2177.03140	0.94534
2174.97760	0.94412
2172.92380	0.94298
2170.86999	0.94217
2168.81619	0.94176
2166.76239	0.94154
2164.70858	0.94051
2162.65478	0.93970
2160.60098	0.94172
2158.54717	0.94543
2156.49337	0.94800
2154.43957	0.94910
2152.38576	0.94886
2150.33196	0.94818
2148.27816	0.94720
2146.22435	0.94571
2144.17055	0.94608
2142.11675	0.94814
2140.06294	0.94830
2138.00914	0.94720
2135.95534	0.94726
2133.90153	0.94753
2131.84773	0.94732
2129.79393	0.94654
2127.74012	0.94531
2125.68632	0.94473
2123.63252	0.94472
2121.57871	0.94445
2119.52491	0.94417
2117.47111	0.94411
2115.41731	0.94418
2113.36350	0.94455
2111.30970	0.94467
2109.25590	0.94426
2107.20209	0.94404
2105.14829	0.94357
2103.09449	0.94259
2101.04068	0.94269
2098.98688	0.94398
2096.93308	0.94471
2094.87927	0.94446
2092.82547	0.94410
2090.77167	0.94373
2088.71786	0.94367
2086.66406	0.94476
2084.61026	0.94568
2082.55645	0.94471
2080.50265	0.94255
2078.44885	0.94131
2076.39504	0.94210
2074.34124	0.94382
2072.28744	0.94489
2070.23363	0.94572
2068.17983	0.94677
2066.12603	0.94720
2064.07223	0.94768
2062.01842	0.94811
2059.96462	0.94696
2057.91082	0.94595
2055.85701	0.94678
2053.80321	0.94723
2051.74941	0.94649
2049.69560	0.94585
2047.64180	0.94480
2045.58800	0.94383
2043.53419	0.94533
2041.48039	0.94824
2039.42659	0.95002
2037.37278	0.94952
2035.31898	0.94642
2033.26518	0.94469
2031.21137	0.94728
2029.15757	0.94984
2027.10377	0.95029
2025.04996	0.95127
2022.99616	0.95227
2020.94236	0.95267
2018.88855	0.95315
2016.83475	0.95243
2014.78095	0.95115
2012.72714	0.95105
2010.67334	0.95046
2008.61954	0.94748
2006.56574	0.94572
2004.51193	0.94788
2002.45813	0.95004
2000.40433	0.94903
1998.35052	0.94621
1996.29672	0.94514
1994.24292	0.94660
1992.18911	0.94786
1990.13531	0.94797
1988.08151	0.94842
1986.02770	0.94872
1983.97390	0.94748
1981.92010	0.94469
1979.86629	0.94296
1977.81249	0.94546
1975.75869	0.94876
1973.70488	0.94889
1971.65108	0.94798
1969.59728	0.94741
1967.54347	0.94688
1965.48967	0.94760
1963.43587	0.94965
1961.38206	0.95047
1959.32826	0.94919
1957.27446	0.94713
1955.22066	0.94615
1953.16685	0.94636
1951.11305	0.94535
1949.05925	0.94314
1947.00544	0.94157
1944.95164	0.94117
1942.89784	0.94198
1940.84403	0.94315
1938.79023	0.94395
1936.73643	0.94512
1934.68262	0.94701
1932.62882	0.94764
1930.57502	0.94656
1928.52121	0.94660
1926.46741	0.94782
1924.41361	0.94850
1922.35980	0.94859
1920.30600	0.94838
1918.25220	0.94809
1916.19839	0.94802
1914.14459	0.94790
1912.09079	0.94732
1910.03698	0.94725
1907.98318	0.94829
1905.92938	0.94884
1903.87557	0.94840
1901.82177	0.94787
1899.76797	0.94740
1897.71417	0.94713
1895.66036	0.94731
1893.60656	0.94718
1891.55276	0.94673
1889.49895	0.94630
1887.44515	0.94529
1885.39135	0.94444
1883.33754	0.94458
1881.28374	0.94524
1879.22994	0.94559
1877.17613	0.94492
1875.12233	0.94391
1873.06853	0.94364
1871.01472	0.94401
1868.96092	0.94430
1866.90712	0.94427
1864.85331	0.94436
1862.79951	0.94474
1860.74571	0.94549
1858.69190	0.94623
1856.63810	0.94645
1854.58430	0.94675
1852.53049	0.94775
1850.47669	0.94845
1848.42289	0.94785
1846.36908	0.94658
1844.31528	0.94628
1842.26148	0.94740
1840.20768	0.94824
1838.15387	0.94858
1836.10007	0.94874
1834.04627	0.94825
1831.99246	0.94749
1829.93866	0.94779
1827.88486	0.94843
1825.83105	0.94810
1823.77725	0.94763
1821.72345	0.94739
1819.66964	0.94712
1817.61584	0.94692
1815.56204	0.94654
1813.50823	0.94589
1811.45443	0.94557
1809.40063	0.94535
1807.34682	0.94457
1805.29302	0.94397
1803.23922	0.94399
1801.18541	0.94428
1799.13161	0.94480
1797.07781	0.94515
1795.02400	0.94532
1792.97020	0.94597
1790.91640	0.94667
1788.86260	0.94692
1786.80879	0.94727
1784.75499	0.94755
1782.70119	0.94744
1780.64738	0.94733
1778.59358	0.94742
1776.53978	0.94763
1774.48597	0.94778
1772.43217	0.94759
1770.37837	0.94725
1768.32456	0.94719
1766.27076	0.94694
1764.21696	0.94621
1762.16315	0.94563
1760.10935	0.94499
1758.05555	0.94358
1756.00174	0.94181
1753.94794	0.94010
1751.89414	0.93800
1749.84033	0.93545
1747.78653	0.93329
1745.73273	0.93164
1743.67892	0.93022
1741.62512	0.92907
1739.57132	0.92866
1737.51751	0.92928
1735.46371	0.93056
1733.40991	0.93189
1731.35611	0.93249
1729.30230	0.93313
1727.24850	0.93419
1725.19470	0.93522
1723.14089	0.93572
1721.08709	0.93573
1719.03329	0.93619
1716.97948	0.93765
1714.92568	0.93809
1712.87188	0.93738
1710.81807	0.93681
1708.76427	0.93674
1706.71047	0.93664
1704.65666	0.93590
1702.60286	0.93495
1700.54906	0.93409
1698.49525	0.93373
1696.44145	0.93314
1694.38765	0.93153
1692.33384	0.93000
1690.28004	0.92863
1688.22624	0.92719
1686.17243	0.92577
1684.11863	0.92352
1682.06483	0.92135
1680.01103	0.91996
1677.95722	0.91835
1675.90342	0.91628
1673.84962	0.91432
1671.79581	0.91306
1669.74201	0.91173
1667.68821	0.91012
1665.63440	0.90879
1663.58060	0.90750
1661.52680	0.90619
1659.47299	0.90499
1657.41919	0.90398
1655.36539	0.90305
1653.31158	0.90151
1651.25778	0.90056
1649.20398	0.90091
1647.15017	0.90119
1645.09637	0.90039
1643.04257	0.89905
1640.98876	0.89764
1638.93496	0.89615
1636.88116	0.89391
1634.82735	0.89028
1632.77355	0.88779
1630.71975	0.88653
1628.66594	0.88504
1626.61214	0.88309
1624.55834	0.88108
1622.50454	0.87924
1620.45073	0.87819
1618.39693	0.87749
1616.34313	0.87636
1614.28932	0.87548
1612.23552	0.87480
1610.18172	0.87333
1608.12791	0.86995
1606.07411	0.86386
1604.02031	0.85587
1601.96650	0.84937
1599.91270	0.84908
1597.85890	0.85537
1595.80509	0.86428
1593.75129	0.87152
1591.69749	0.87551
1589.64368	0.87760
1587.58988	0.87817
1585.53608	0.87652
1583.48227	0.87436
1581.42847	0.87457
1579.37467	0.87695
1577.32086	0.88016
1575.26706	0.88401
1573.21326	0.88723
1571.15945	0.89035
1569.10565	0.89457
1567.05185	0.89817
1564.99805	0.90041
1562.94424	0.90182
1560.89044	0.90286
1558.83664	0.90501
1556.78283	0.90691
1554.72903	0.90744
1552.67523	0.90785
1550.62142	0.90804
1548.56762	0.90763
1546.51382	0.90677
1544.46001	0.90543
1542.40621	0.90404
1540.35241	0.90406
1538.29860	0.90588
1536.24480	0.90811
1534.19100	0.91141
1532.13719	0.91514
1530.08339	0.91741
1528.02959	0.91943
1525.97578	0.92179
1523.92198	0.92365
1521.86818	0.92499
1519.81437	0.92597
1517.76057	0.92640
1515.70677	0.92642
1513.65297	0.92658
1511.59916	0.92700
1509.54536	0.92738
1507.49156	0.92742
1505.43775	0.92675
1503.38395	0.92544
1501.33015	0.92284
1499.27634	0.91482
1497.22254	0.89005
1495.16874	0.85164
1493.11493	0.82738
1491.06113	0.83004
1489.00733	0.85805
1486.95352	0.88327
1484.89972	0.89511
1482.84592	0.90152
1480.79211	0.90497
1478.73831	0.90610
1476.68451	0.90632
1474.63070	0.90614
1472.57690	0.90463
1470.52310	0.90237
1468.46929	0.90095
1466.41549	0.90029
1464.36169	0.89988
1462.30788	0.89922
1460.25408	0.89754
1458.20028	0.88721
1456.14648	0.85398
1454.09267	0.82299
1452.03887	0.81031
1449.98507	0.81490
1447.93126	0.83046
1445.87746	0.84543
1443.82366	0.85588
1441.76985	0.86373
1439.71605	0.86968
1437.66225	0.87535
1435.60844	0.88137
1433.55464	0.88561
1431.50084	0.88860
1429.44703	0.89076
1427.39323	0.89165
1425.33943	0.89126
1423.28562	0.88973
1421.23182	0.88797
1419.17802	0.88659
1417.12421	0.88615
1415.07041	0.88720
1413.01661	0.88961
1410.96280	0.89325
1408.90900	0.89731
1406.85520	0.90101
1404.80139	0.90439
1402.74759	0.90735
1400.69379	0.90981
1398.63999	0.91179
1396.58618	0.91321
1394.53238	0.91434
1392.47858	0.91489
1390.42477	0.91472
1388.37097	0.91407
1386.31717	0.91301
1384.26336	0.91178
1382.20956	0.91062
1380.15576	0.90930
1378.10195	0.90791
1376.04815	0.90680
1373.99435	0.90602
1371.94054	0.90568
1369.88674	0.90588
1367.83294	0.90597
1365.77913	0.90565
1363.72533	0.90625
1361.67153	0.90855
1359.61772	0.91097
1357.56392	0.91283
1355.51012	0.91420
1353.45631	0.91495
1351.40251	0.91542
1349.34871	0.91617
1347.29491	0.91724
1345.24110	0.91825
1343.18730	0.91926
1341.13350	0.92029
1339.07969	0.92092
1337.02589	0.92094
1334.97209	0.92069
1332.91828	0.92010
1330.86448	0.91869
1328.81068	0.91640
1326.75687	0.91370
1324.70307	0.91159
1322.64927	0.91077
1320.59546	0.91124
1318.54166	0.91292
1316.48786	0.91523
1314.43405	0.91724
1312.38025	0.91871
1310.32645	0.91969
1308.27264	0.92043
1306.21884	0.92133
1304.16504	0.92223
1302.11123	0.92286
1300.05743	0.92357
1298.00363	0.92445
1295.94982	0.92513
1293.89602	0.92555
1291.84222	0.92569
1289.78842	0.92533
1287.73461	0.92487
1285.68081	0.92471
1283.62701	0.92407
1281.57320	0.92217
1279.51940	0.91917
1277.46560	0.91576
1275.41179	0.91296
1273.35799	0.91148
1271.30419	0.91114
1269.25038	0.91209
1267.19658	0.91464
1265.14278	0.91764
1263.08897	0.91967
1261.03517	0.92102
1258.98137	0.92232
1256.92756	0.92338
1254.87376	0.92405
1252.81996	0.92417
1250.76615	0.92400
1248.71235	0.92399
1246.65855	0.92387
1244.60474	0.92371
1242.55094	0.92393
1240.49714	0.92418
1238.44334	0.92399
1236.38953	0.92368
1234.33573	0.92364
1232.28193	0.92367
1230.22812	0.92354
1228.17432	0.92307
1226.12052	0.92232
1224.06671	0.92165
1222.01291	0.92101
1219.95911	0.92034
1217.90530	0.91972
1215.85150	0.91880
1213.79770	0.91755
1211.74389	0.91622
1209.69009	0.91446
1207.63629	0.91202
1205.58248	0.90912
1203.52868	0.90570
1201.47488	0.90184
1199.42107	0.89821
1197.36727	0.89538
1195.31347	0.89313
1193.25966	0.89115
1191.20586	0.88961
1189.15206	0.88834
1187.09825	0.88673
1185.04445	0.88406
1182.99065	0.88045
1180.93685	0.87737
1178.88304	0.87580
1176.82924	0.87534
1174.77544	0.87489
1172.72163	0.87360
1170.66783	0.87145
1168.61403	0.86893
1166.56022	0.86634
1164.50642	0.86369
1162.45262	0.86072
1160.39881	0.85729
1158.34501	0.85333
1156.29121	0.84908
1154.23740	0.84572
1152.18360	0.84438
1150.12980	0.84486
1148.07599	0.84553
1146.02219	0.84527
1143.96839	0.84448
1141.91458	0.84368
1139.86078	0.84307
1137.80698	0.84279
1135.75317	0.84261
1133.69937	0.84186
1131.64557	0.83983
1129.59176	0.83670
1127.53796	0.83346
1125.48416	0.83080
1123.43036	0.82776
1121.37655	0.82276
1119.32275	0.81643
1117.26895	0.81152
1115.21514	0.80938
1113.16134	0.80871
1111.10754	0.80778
1109.05373	0.80592
1106.99993	0.80345
1104.94613	0.80070
1102.89232	0.79779
1100.83852	0.79514
1098.78472	0.79299
1096.73091	0.79083
1094.67711	0.78782
1092.62331	0.78447
1090.56950	0.78330
1088.51570	0.78509
1086.46190	0.78748
1084.40809	0.78888
1082.35429	0.78956
1080.30049	0.78961
1078.24668	0.78886
1076.19288	0.78758
1074.13908	0.78608
1072.08528	0.78414
1070.03147	0.78215
1067.97767	0.78079
1065.92387	0.78011
1063.87006	0.77976
1061.81626	0.77932
1059.76246	0.77872
1057.70865	0.77788
1055.65485	0.77619
1053.60105	0.77287
1051.54724	0.76794
1049.49344	0.76293
1047.43964	0.75940
1045.38583	0.75679
1043.33203	0.75349
1041.27823	0.74906
1039.22442	0.74407
1037.17062	0.73814
1035.11682	0.73010
1033.06301	0.72005
1031.00921	0.70999
1028.95541	0.70281
1026.90160	0.70037
1024.84780	0.70230
1022.79400	0.70622
1020.74019	0.70959
1018.68639	0.71162
1016.63259	0.71307
1014.57879	0.71450
1012.52498	0.71538
1010.47118	0.71561
1008.41738	0.71627
1006.36357	0.71730
1004.30977	0.71806
1002.25597	0.71989
1000.20216	0.72397
998.14836	0.72929
996.09456	0.73472
994.04075	0.74010
991.98695	0.74520
989.93315	0.74966
987.87934	0.75398
985.82554	0.75866
983.77174	0.76362
981.71793	0.76903
979.66413	0.77551
977.61033	0.78319
975.55652	0.79105
973.50272	0.79809
971.44892	0.80445
969.39511	0.81005
967.34131	0.81500
965.28751	0.81977
963.23371	0.82435
961.17990	0.82907
959.12610	0.83419
957.07230	0.83935
955.01849	0.84400
952.96469	0.84751
950.91089	0.84990
948.85708	0.85197
946.80328	0.85369
944.74948	0.85470
942.69567	0.85562
940.64187	0.85708
938.58807	0.85889
936.53426	0.86045
934.48046	0.86199
932.42666	0.86405
930.37285	0.86627
928.31905	0.86819
926.26525	0.86959
924.21144	0.87050
922.15764	0.87077
920.10384	0.87012
918.05003	0.86869
915.99623	0.86634
913.94243	0.86281
911.88862	0.85912
909.83482	0.85649
907.78102	0.85522
905.72722	0.85632
903.67341	0.86090
901.61961	0.86789
899.56581	0.87541
897.51200	0.88219
895.45820	0.88694
893.40440	0.88986
891.35059	0.89241
889.29679	0.89473
887.24299	0.89637
885.18918	0.89724
883.13538	0.89711
881.08158	0.89624
879.02777	0.89489
876.97397	0.89310
874.92017	0.89211
872.86636	0.89313
870.81256	0.89508
868.75876	0.89661
866.70495	0.89861
864.65115	0.90169
862.59735	0.90485
860.54354	0.90745
858.48974	0.90898
856.43594	0.90965
854.38213	0.90983
852.32833	0.90893
850.27453	0.90752
848.22073	0.90627
846.16692	0.90487
844.11312	0.90402
842.05932	0.90376
840.00551	0.90291
837.95171	0.90211
835.89791	0.90241
833.84410	0.90288
831.79030	0.90310
829.73650	0.90349
827.68269	0.90317
825.62889	0.90253
823.57509	0.90279
821.52128	0.90267
819.46748	0.90162
817.41368	0.90090
815.35987	0.90054
813.30607	0.90016
811.25227	0.89983
809.19846	0.89855
807.14466	0.89610
805.09086	0.89355
803.03705	0.89104
800.98325	0.88857
798.92945	0.88667
796.87565	0.88599
794.82184	0.88611
792.76804	0.88540
790.71424	0.88338
788.66043	0.88074
786.60663	0.87760
784.55283	0.87388
782.49902	0.87002
780.44522	0.86545
778.39142	0.85935
776.33761	0.85198
774.28381	0.84316
772.23001	0.83251
770.17620	0.82059
768.12240	0.80747
766.06860	0.79312
764.01479	0.77860
761.96099	0.76436
759.90719	0.75066
757.85338	0.73966
755.79958	0.73343
753.74578	0.73182
751.69197	0.73310
749.63817	0.73571
747.58437	0.74032
745.53056	0.74953
743.47676	0.76435
741.42296	0.78216
739.36916	0.79974
737.31535	0.81543
735.26155	0.82852
733.20775	0.83932
731.15394	0.84803
729.10014	0.85401
727.04634	0.85783
724.99253	0.86071
722.93873	0.86284
720.88493	0.86530
718.83112	0.86849
716.77732	0.87038
714.72352	0.86991
712.66971	0.86508
710.61591	0.85090
708.56211	0.82303
706.50830	0.77740
704.45450	0.71109
702.40070	0.62841
700.34689	0.53910
698.29309	0.45850
696.23929	0.41799
694.18548	0.44947
692.13168	0.53921
690.07788	0.63460
688.02408	0.70148
685.97027	0.74106
683.91647	0.76574
681.86267	0.78206
679.80886	0.79210
677.75506	0.79842
675.70126	0.80343
673.64745	0.80752
671.59365	0.81010
669.53985	0.81218
667.48604	0.81514
665.43224	0.81778
663.37844	0.81915
661.32463	0.81921
659.27083	0.81839
657.21703	0.81835
655.16322	0.81983
653.10942	0.82161
651.05562	0.82290
649.00181	0.82377
646.94801	0.82499
644.89421	0.82704
642.84040	0.82876
640.78660	0.83001
638.73280	0.83177
636.67899	0.83309
634.62519	0.83290
632.57139	0.83186
630.51759	0.83062
628.46378	0.82961
626.40998	0.82871
624.35618	0.82759
622.30237	0.82626
620.24857	0.82435
618.19477	0.82239
616.14096	0.82170
614.08716	0.82098
612.03336	0.81865
609.97955	0.81635
607.92575	0.81469
605.87195	0.81215
603.81814	0.80908
601.76434	0.80618
599.71054	0.80312
597.65673	0.80088
595.60293	0.80061
593.54913	0.80244
591.49532	0.80410
589.44152	0.80376
587.38772	0.80393
585.33391	0.80551
583.28011	0.80539
581.22631	0.80276
579.17250	0.80127
577.11870	0.80048
575.06490	0.79572
573.01110	0.79007
570.95729	0.78692
568.90349	0.78228
566.84969	0.77567
564.79588	0.76994
562.74208	0.76444
560.68828	0.75841
558.63447	0.75217
556.58067	0.74562
554.52687	0.73953
552.47306	0.73328
550.41926	0.72532
548.36546	0.71768
546.31165	0.71004
544.25785	0.69940
542.20405	0.68781
540.15024	0.67867
538.09644	0.67281
536.04264	0.67085
533.98883	0.67434
531.93503	0.68308
529.88123	0.69455
527.82742	0.70613
525.77362	0.71589
523.71982	0.72330
521.66602	0.72883
519.61221	0.73342
517.55841	0.73929
515.50461	0.74549
513.45080	0.74984
511.39700	0.75451
509.34320	0.76095
507.28939	0.76678
505.23559	0.77049
503.18179	0.77220
501.12798	0.77274
499.07418	0.77472
497.02038	0.77673
494.96657	0.77564
492.91277	0.77206
490.85897	0.76732
488.80516	0.76278
486.75136	0.75828
484.69756	0.75119
482.64375	0.74080
480.58995	0.72972
478.53615	0.71977
476.48234	0.71110
474.42854	0.70392
472.37474	0.69745
470.32093	0.69070
468.26713	0.68655
466.21333	0.68756
464.15953	0.69192
462.10572	0.69801
460.05192	0.70472
457.99812	0.71010
455.94431	0.71469
453.89051	0.72073
451.83671	0.72821
449.78290	0.73529
447.72910	0.73994
445.67530	0.74031
443.62149	0.73966
441.56769	0.73935
439.51389	0.73473
437.46008	0.72943
435.40628	0.72945
433.35248	0.73325
431.29867	0.73584
429.24487	0.73191
427.19107	0.72442
425.13726	0.72342
423.08346	0.73018
421.02966	0.73791
418.97585	0.74671
416.92205	0.75222
414.86825	0.75238
412.81445	0.75713
410.76064	0.76555
408.70684	0.76879
406.65304	0.76982
404.59923	0.77418
402.54543	0.77936
400.49163	0.78192
398.43782	0.77897
