3996.70104	0.93530
3994.64724	0.93521
3992.59344	0.93536
3990.53964	0.93572
3988.48583	0.93613
3986.43203	0.93613
3984.37823	0.93565
3982.32442	0.93557
3980.27062	0.93620
3978.21682	0.93675
3976.16301	0.93679
3974.10921	0.93657
3972.05541	0.93648
3970.00160	0.93665
3967.94780	0.93681
3965.89400	0.93675
3963.84019	0.93673
3961.78639	0.93683
3959.73259	0.93678
3957.67878	0.93648
3955.62498	0.93593
3953.57118	0.93547
3951.51737	0.93568
3949.46357	0.93633
3947.40977	0.93644
3945.35596	0.93608
3943.30216	0.93596
3941.24836	0.93617
3939.19455	0.93656
3937.14075	0.93663
3935.08695	0.93617
3933.03315	0.93581
3930.97934	0.93585
3928.92554	0.93624
3926.87174	0.93675
3924.81793	0.93677
3922.76413	0.93657
3920.71033	0.93648
3918.65652	0.93620
3916.60272	0.93606
3914.54892	0.93617
3912.49511	0.93638
3910.44131	0.93680
3908.38751	0.93706
3906.33370	0.93677
3904.27990	0.93612
3902.22610	0.93580
3900.17229	0.93625
3898.11849	0.93704
3896.06469	0.93737
3894.01088	0.93730
3891.95708	0.93685
3889.90328	0.93612
3887.84947	0.93598
3885.79567	0.93604
3883.74187	0.93602
3881.68807	0.93672
3879.63426	0.93748
3877.58046	0.93736
3875.52666	0.93708
3873.47285	0.93700
3871.41905	0.93693
3869.36525	0.93717
3867.31144	0.93756
3865.25764	0.93748
3863.20384	0.93701
3861.15003	0.93665
3859.09623	0.93690
3857.04243	0.93772
3854.98862	0.93820
3852.93482	0.93788
3850.88102	0.93749
3848.82721	0.93720
3846.77341	0.93740
3844.71961	0.93800
3842.66580	0.93814
3840.61200	0.93764
3838.55820	0.93743
3836.50439	0.93770
3834.45059	0.93780
3832.39679	0.93787
3830.34298	0.93794
3828.28918	0.93764
3826.23538	0.93717
3824.18158	0.93719
3822.12777	0.93747
3820.07397	0.93713
3818.02017	0.93683
3815.96636	0.93737
3813.91256	0.93819
3811.85876	0.93843
3809.80495	0.93812
3807.75115	0.93783
3805.69735	0.93804
3803.64354	0.93815
3801.58974	0.93786
3799.53594	0.93765
3797.48213	0.93751
3795.42833	0.93700
3793.37453	0.93660
3791.32072	0.93687
3789.26692	0.93728
3787.21312	0.93740
3785.15931	0.93754
3783.10551	0.93780
3781.05171	0.93821
3778.99790	0.93876
3776.94410	0.93880
3774.89030	0.93821
3772.83650	0.93783
3770.78269	0.93816
3768.72889	0.93863
3766.67509	0.93833
3764.62128	0.93748
3762.56748	0.93722
3760.51368	0.93788
3758.45987	0.93852
3756.40607	0.93860
3754.35227	0.93862
3752.29846	0.93865
3750.24466	0.93831
3748.19086	0.93802
3746.13705	0.93808
3744.08325	0.93839
3742.02945	0.93887
3739.97564	0.93969
3737.92184	0.94085
3735.86804	0.94130
3733.81423	0.94065
3731.76043	0.94011
3729.70663	0.93988
3727.65282	0.93990
3725.59902	0.94020
3723.54522	0.94013
3721.49141	0.93959
3719.43761	0.93894
3717.38381	0.93823
3715.33001	0.93768
3713.27620	0.93726
3711.22240	0.93650
3709.16860	0.93534
3707.11479	0.93391
3705.06099	0.93242
3703.00719	0.93116
3700.95338	0.93016
3698.89958	0.92954
3696.84578	0.92936
3694.79197	0.92941
3692.73817	0.92951
3690.68437	0.92952
3688.63056	0.92941
3686.57676	0.92990
3684.52296	0.93074
3682.46915	0.93100
3680.41535	0.93065
3678.36155	0.93022
3676.30774	0.92966
3674.25394	0.92910
3672.20014	0.92893
3670.14633	0.92892
3668.09253	0.92894
3666.03873	0.92860
3663.98492	0.92794
3661.93112	0.92765
3659.87732	0.92782
3657.82352	0.92764
3655.76971	0.92704
3653.71591	0.92704
3651.66211	0.92767
3649.60830	0.92776
3647.55450	0.92648
3645.50070	0.92493
3643.44689	0.92358
3641.39309	0.92277
3639.33929	0.92261
3637.28548	0.92214
3635.23168	0.92116
3633.17788	0.92051
3631.12407	0.92059
3629.07027	0.92063
3627.01647	0.91994
3624.96266	0.91926
3622.90886	0.91840
3620.85506	0.91741
3618.80125	0.91720
3616.74745	0.91743
3614.69365	0.91808
3612.63984	0.91977
3610.58604	0.92126
3608.53224	0.92148
3606.47844	0.92078
3604.42463	0.92000
3602.37083	0.91971
3600.31703	0.91994
3598.26322	0.92041
3596.20942	0.92049
3594.15562	0.91978
3592.10181	0.91922
3590.04801	0.91950
3587.99421	0.92005
3585.94040	0.91999
3583.88660	0.91912
3581.83280	0.91842
3579.77899	0.91853
3577.72519	0.91873
3575.67139	0.91869
3573.61758	0.91894
3571.56378	0.91928
3569.50998	0.91935
3567.45617	0.91904
3565.40237	0.91804
3563.34857	0.91729
3561.29476	0.91737
3559.24096	0.91724
3557.18716	0.91702
3555.13335	0.91768
3553.07955	0.91844
3551.02575	0.91826
3548.97195	0.91762
3546.91814	0.91728
3544.86434	0.91707
3542.81054	0.91679
3540.75673	0.91677
3538.70293	0.91706
3536.64913	0.91716
3534.59532	0.91681
3532.54152	0.91621
3530.48772	0.91583
3528.43391	0.91590
3526.38011	0.91567
3524.32631	0.91517
3522.27250	0.91542
3520.21870	0.91600
3518.16490	0.91596
3516.11109	0.91573
3514.05729	0.91571
3512.00349	0.91547
3509.94968	0.91527
3507.89588	0.91533
3505.84208	0.91515
3503.78827	0.91519
3501.73447	0.91619
3499.68067	0.91728
3497.62687	0.91737
3495.57306	0.91631
3493.51926	0.91472
3491.46546	0.91412
3489.41165	0.91446
3487.35785	0.91432
3485.30405	0.91406
3483.25024	0.91427
3481.19644	0.91431
3479.14264	0.91404
3477.08883	0.91393
3475.03503	0.91391
3472.98123	0.91400
3470.92742	0.91419
3468.87362	0.91409
3466.81982	0.91384
3464.76601	0.91358
3462.71221	0.91331
3460.65841	0.91311
3458.60460	0.91330
3456.55080	0.91378
3454.49700	0.91383
3452.44319	0.91341
3450.38939	0.91321
3448.33559	0.91323
3446.28178	0.91280
3444.22798	0.91197
3442.17418	0.91164
3440.12038	0.91211
3438.06657	0.91229
3436.01277	0.91170
3433.95897	0.91135
3431.90516	0.91146
3429.85136	0.91157
3427.79756	0.91190
3425.74375	0.91220
3423.68995	0.91198
3421.63615	0.91155
3419.58234	0.91126
3417.52854	0.91128
3415.47474	0.91171
3413.42093	0.91186
3411.36713	0.91141
3409.31333	0.91096
3407.25952	0.91067
3405.20572	0.91058
3403.15192	0.91057
3401.09811	0.91028
3399.04431	0.90992
3396.99051	0.91000
3394.93670	0.91040
3392.88290	0.91058
3390.82910	0.91053
3388.77529	0.91063
3386.72149	0.91074
3384.66769	0.91073
3382.61389	0.91064
3380.56008	0.91049
3378.50628	0.91048
3376.45248	0.91097
3374.39867	0.91164
3372.34487	0.91176
3370.29107	0.91146
3368.23726	0.91132
3366.18346	0.91115
3364.12966	0.91090
3362.07585	0.91108
3360.02205	0.91134
3357.96825	0.91142
3355.91444	0.91168
3353.86064	0.91210
3351.80684	0.91229
3349.75303	0.91208
3347.69923	0.91182
3345.64543	0.91170
3343.59162	0.91162
3341.53782	0.91150
3339.48402	0.91145
3337.43021	0.91193
3335.37641	0.91281
3333.32261	0.91330
3331.26881	0.91324
3329.21500	0.91290
3327.16120	0.91270
3325.10740	0.91300
3323.05359	0.91326
3320.99979	0.91310
3318.94599	0.91299
3316.89218	0.91316
3314.83838	0.91345
3312.78458	0.91398
3310.73077	0.91463
3308.67697	0.91474
3306.62317	0.91423
3304.56936	0.91404
3302.51556	0.91451
3300.46176	0.91482
3298.40795	0.91490
3296.35415	0.91522
3294.30035	0.91553
3292.24654	0.91552
3290.19274	0.91524
3288.13894	0.91507
3286.08513	0.91527
3284.03133	0.91525
3281.97753	0.91487
3279.92372	0.91489
3277.86992	0.91539
3275.81612	0.91582
3273.76232	0.91620
3271.70851	0.91674
3269.65471	0.91703
3267.60091	0.91686
3265.54710	0.91632
3263.49330	0.91588
3261.43950	0.91607
3259.38569	0.91649
3257.33189	0.91667
3255.27809	0.91658
3253.22428	0.91622
3251.17048	0.91609
3249.11668	0.91646
3247.06287	0.91689
3245.00907	0.91725
3242.95527	0.91751
3240.90146	0.91742
3238.84766	0.91731
3236.79386	0.91771
3234.74005	0.91818
3232.68625	0.91811
3230.63245	0.91792
3228.57864	0.91802
3226.52484	0.91837
3224.47104	0.91883
3222.41724	0.91903
3220.36343	0.91897
3218.30963	0.91884
3216.25583	0.91880
3214.20202	0.91897
3212.14822	0.91909
3210.09442	0.91927
3208.04061	0.91985
3205.98681	0.92022
3203.93301	0.91998
3201.87920	0.91988
3199.82540	0.92021
3197.77160	0.92040
3195.71779	0.92041
3193.66399	0.92078
3191.61019	0.92138
3189.55638	0.92165
3187.50258	0.92169
3185.44878	0.92175
3183.39497	0.92185
3181.34117	0.92213
3179.28737	0.92254
3177.23356	0.92292
3175.17976	0.92290
3173.12596	0.92241
3171.07215	0.92228
3169.01835	0.92272
3166.96455	0.92276
3164.91075	0.92248
3162.85694	0.92233
3160.80314	0.92221
3158.74934	0.92243
3156.69553	0.92319
3154.64173	0.92383
3152.58793	0.92389
3150.53412	0.92392
3148.48032	0.92400
3146.42652	0.92395
3144.37271	0.92416
3142.31891	0.92458
3140.26511	0.92501
3138.21130	0.92548
3136.15750	0.92565
3134.10370	0.92562
3132.04989	0.92578
3129.99609	0.92580
3127.94229	0.92560
3125.88848	0.92557
3123.83468	0.92556
3121.78088	0.92547
3119.72707	0.92563
3117.67327	0.92593
3115.61947	0.92609
3113.56566	0.92586
3111.51186	0.92534
3109.45806	0.92488
3107.40426	0.92458
3105.35045	0.92435
3103.29665	0.92389
3101.24285	0.92345
3099.18904	0.92372
3097.13524	0.92434
3095.08144	0.92445
3093.02763	0.92396
3090.97383	0.92321
3088.92003	0.92181
3086.86622	0.91940
3084.81242	0.91678
3082.75862	0.91480
3080.70481	0.91425
3078.65101	0.91552
3076.59721	0.91745
3074.54340	0.91886
3072.48960	0.91960
3070.43580	0.91979
3068.38199	0.91933
3066.32819	0.91782
3064.27439	0.91518
3062.22058	0.91205
3060.16678	0.90972
3058.11298	0.90937
3056.05918	0.91121
3054.00537	0.91391
3051.95157	0.91617
3049.89777	0.91806
3047.84396	0.91961
3045.79016	0.92066
3043.73636	0.92113
3041.68255	0.92093
3039.62875	0.92038
3037.57495	0.91929
3035.52114	0.91643
3033.46734	0.91146
3031.41354	0.90512
3029.35973	0.89789
3027.30593	0.89127
3025.25213	0.88793
3023.19832	0.88963
3021.14452	0.89551
3019.09072	0.90241
3017.03691	0.90818
3014.98311	0.91279
3012.92931	0.91644
3010.87550	0.91896
3008.82170	0.92017
3006.76790	0.92034
3004.71409	0.92008
3002.66029	0.91956
3000.60649	0.91921
2998.55269	0.92008
2996.49888	0.92189
2994.44508	0.92366
2992.39128	0.92516
2990.33747	0.92627
2988.28367	0.92704
2986.22987	0.92748
2984.17606	0.92757
2982.12226	0.92774
2980.06846	0.92813
2978.01465	0.92839
2975.96085	0.92859
2973.90705	0.92866
2971.85324	0.92820
2969.79944	0.92748
2967.74564	0.92720
2965.69183	0.92703
2963.63803	0.92634
2961.58423	0.92539
2959.53042	0.92463
2957.47662	0.92389
2955.42282	0.92303
2953.36901	0.92241
2951.31521	0.92186
2949.26141	0.92061
2947.20761	0.91870
2945.15380	0.91663
2943.10000	0.91444
2941.04620	0.91159
2938.99239	0.90799
2936.93859	0.90421
2934.88479	0.90000
2932.83098	0.89502
2930.77718	0.89012
2928.72338	0.88597
2926.66957	0.88236
2924.61577	0.87936
2922.56197	0.87740
2920.50816	0.87658
2918.45436	0.87686
2916.40056	0.87801
2914.34675	0.87991
2912.29295	0.88246
2910.23915	0.88520
2908.18534	0.88791
2906.13154	0.89066
2904.07774	0.89329
2902.02393	0.89572
2899.97013	0.89844
2897.91633	0.90142
2895.86252	0.90397
2893.80872	0.90611
2891.75492	0.90811
2889.70112	0.90967
2887.64731	0.91083
2885.59351	0.91198
2883.53971	0.91317
2881.48590	0.91422
2879.43210	0.91499
2877.37830	0.91563
2875.32449	0.91644
2873.27069	0.91701
2871.21689	0.91712
2869.16308	0.91739
2867.10928	0.91791
2865.05548	0.91798
2863.00167	0.91740
2860.94787	0.91627
2858.89407	0.91438
2856.84026	0.91219
2854.78646	0.91044
2852.73266	0.90911
2850.67885	0.90814
2848.62505	0.90755
2846.57125	0.90772
2844.51744	0.90915
2842.46364	0.91148
2840.40984	0.91429
2838.35603	0.91721
2836.30223	0.91986
2834.24843	0.92195
2832.19463	0.92322
2830.14082	0.92418
2828.08702	0.92532
2826.03322	0.92620
2823.97941	0.92643
2821.92561	0.92649
2819.87181	0.92688
2817.81800	0.92737
2815.76420	0.92787
2813.71040	0.92874
2811.65659	0.92934
2809.60279	0.92912
2807.54899	0.92885
2805.49518	0.92876
2803.44138	0.92855
2801.38758	0.92855
2799.33377	0.92906
2797.27997	0.92955
2795.22617	0.92960
2793.17236	0.92954
2791.11856	0.92960
2789.06476	0.92965
2787.01095	0.92984
2784.95715	0.93030
2782.90335	0.93065
2780.84955	0.93057
2778.79574	0.93049
2776.74194	0.93085
2774.68814	0.93144
2772.63433	0.93160
2770.58053	0.93114
2768.52673	0.93074
2766.47292	0.93095
2764.41912	0.93131
2762.36532	0.93138
2760.31151	0.93131
2758.25771	0.93147
2756.20391	0.93182
2754.15010	0.93207
2752.09630	0.93217
2750.04250	0.93234
2747.98869	0.93251
2745.93489	0.93244
2743.88109	0.93215
2741.82728	0.93187
2739.77348	0.93185
2737.71968	0.93215
2735.66587	0.93255
2733.61207	0.93271
2731.55827	0.93257
2729.50446	0.93233
2727.45066	0.93227
2725.39686	0.93250
2723.34306	0.93263
2721.28925	0.93246
2719.23545	0.93230
2717.18165	0.93231
2715.12784	0.93245
2713.07404	0.93272
2711.02024	0.93282
2708.96643	0.93279
2706.91263	0.93303
2704.85883	0.93313
2702.80502	0.93285
2700.75122	0.93286
2698.69742	0.93325
2696.64361	0.93330
2694.58981	0.93301
2692.53601	0.93290
2690.48220	0.93303
2688.42840	0.93315
2686.37460	0.93303
2684.32079	0.93284
2682.26699	0.93301
2680.21319	0.93330
2678.15938	0.93330
2676.10558	0.93330
2674.05178	0.93363
2671.99797	0.93396
2669.94417	0.93397
2667.89037	0.93383
2665.83657	0.93380
2663.78276	0.93380
2661.72896	0.93369
2659.67516	0.93351
2657.62135	0.93323
2655.56755	0.93313
2653.51375	0.93334
2651.45994	0.93362
2649.40614	0.93391
2647.35234	0.93405
2645.29853	0.93391
2643.24473	0.93373
2641.19093	0.93379
2639.13712	0.93397
2637.08332	0.93393
2635.02952	0.93377
2632.97571	0.93379
2630.92191	0.93393
2628.86811	0.93390
2626.81430	0.93390
2624.76050	0.93438
2622.70670	0.93516
2620.65289	0.93580
2618.59909	0.93597
2616.54529	0.93580
2614.49149	0.93590
2612.43768	0.93612
2610.38388	0.93561
2608.33008	0.93481
2606.27627	0.93442
2604.22247	0.93399
2602.16867	0.93372
2600.11486	0.93437
2598.06106	0.93550
2596.00726	0.93597
2593.95345	0.93599
2591.89965	0.93654
2589.84585	0.93717
2587.79204	0.93692
2585.73824	0.93625
2583.68444	0.93576
2581.63063	0.93544
2579.57683	0.93569
2577.52303	0.93631
2575.46922	0.93667
2573.41542	0.93726
2571.36162	0.93786
2569.30781	0.93747
2567.25401	0.93627
2565.20021	0.93531
2563.14640	0.93534
2561.09260	0.93597
2559.03880	0.93635
2556.98500	0.93631
2554.93119	0.93612
2552.87739	0.93619
2550.82359	0.93642
2548.76978	0.93659
2546.71598	0.93687
2544.66218	0.93705
2542.60837	0.93698
2540.55457	0.93713
2538.50077	0.93755
2536.44696	0.93780
2534.39316	0.93784
2532.33936	0.93783
2530.28555	0.93760
2528.23175	0.93697
2526.17795	0.93669
2524.12414	0.93729
2522.07034	0.93743
2520.01654	0.93708
2517.96273	0.93762
2515.90893	0.93818
2513.85513	0.93814
2511.80132	0.93808
2509.74752	0.93770
2507.69372	0.93727
2505.63992	0.93732
2503.58611	0.93729
2501.53231	0.93691
2499.47851	0.93703
2497.42470	0.93777
2495.37090	0.93795
2493.31710	0.93754
2491.26329	0.93750
2489.20949	0.93735
2487.15569	0.93700
2485.10188	0.93732
2483.04808	0.93805
2480.99428	0.93849
2478.94047	0.93863
2476.88667	0.93836
2474.83287	0.93794
2472.77906	0.93789
2470.72526	0.93805
2468.67146	0.93839
2466.61765	0.93871
2464.56385	0.93863
2462.51005	0.93870
2460.45624	0.93901
2458.40244	0.93913
2456.34864	0.93915
2454.29483	0.93914
2452.24103	0.93904
2450.18723	0.93862
2448.13343	0.93818
2446.07962	0.93856
2444.02582	0.93934
2441.97202	0.93966
2439.91821	0.93966
2437.86441	0.93963
2435.81061	0.93928
2433.75680	0.93885
2431.70300	0.93904
2429.64920	0.93968
2427.59539	0.94005
2425.54159	0.93989
2423.48779	0.93955
2421.43398	0.93926
2419.38018	0.93920
2417.32638	0.93956
2415.27257	0.94001
2413.21877	0.94012
2411.16497	0.93975
2409.11116	0.93941
2407.05736	0.93975
2405.00356	0.94014
2402.94975	0.93973
2400.89595	0.93905
2398.84215	0.93890
2396.78834	0.93925
2394.73454	0.93958
2392.68074	0.93962
2390.62694	0.93950
2388.57313	0.93945
2386.51933	0.93982
2384.46553	0.94043
2382.41172	0.94058
2380.35792	0.94035
2378.30412	0.94006
2376.25031	0.93951
2374.19651	0.93885
2372.14271	0.93882
2370.08890	0.93949
2368.03510	0.94051
2365.98130	0.94160
2363.92749	0.94202
2361.87369	0.94147
2359.81989	0.94065
2357.76608	0.93995
2355.71228	0.94001
2353.65848	0.94080
2351.60467	0.94105
2349.55087	0.94044
2347.49707	0.93943
2345.44326	0.93843
2343.38946	0.93793
2341.33566	0.93790
2339.28186	0.93798
2337.22805	0.93801
2335.17425	0.93801
2333.12045	0.93832
2331.06664	0.93911
2329.01284	0.93954
2326.95904	0.93862
2324.90523	0.93712
2322.85143	0.93703
2320.79763	0.93815
2318.74382	0.93882
2316.69002	0.93943
2314.63622	0.94007
2312.58241	0.93964
2310.52861	0.93876
2308.47481	0.93837
2306.42100	0.93803
2304.36720	0.93795
2302.31340	0.93865
2300.25959	0.93946
2298.20579	0.93982
2296.15199	0.93989
2294.09818	0.93962
2292.04438	0.93886
2289.99058	0.93790
2287.93677	0.93733
2285.88297	0.93793
2283.82917	0.93962
2281.77537	0.94092
2279.72156	0.94096
2277.66776	0.94049
2275.61396	0.94044
2273.56015	0.94077
2271.50635	0.94106
2269.45255	0.94109
2267.39874	0.94101
2265.34494	0.94123
2263.29114	0.94109
2261.23733	0.94040
2259.18353	0.94058
2257.12973	0.94187
2255.07592	0.94269
2253.02212	0.94234
2250.96832	0.94114
2248.91451	0.93962
2246.86071	0.93909
2244.80691	0.93932
2242.75310	0.93902
2240.69930	0.93907
2238.64550	0.94017
2236.59169	0.94163
2234.53789	0.94254
2232.48409	0.94249
2230.43029	0.94219
2228.37648	0.94160
2226.32268	0.94165
2224.26888	0.94279
2222.21507	0.94277
2220.16127	0.94219
2218.10747	0.94326
2216.05366	0.94495
2213.99986	0.94509
2211.94606	0.94417
2209.89225	0.94386
2207.83845	0.94411
2205.78465	0.94398
2203.73084	0.94308
2201.67704	0.94225
2199.62324	0.94184
2197.56943	0.94179
2195.51563	0.94262
2193.46183	0.94345
2191.40802	0.94318
2189.35422	0.94266
2187.30042	0.94209
2185.24661	0.94187
2183.19281	0.94346
2181.13901	0.94430
2179.08520	0.94267
2177.03140	0.94230
2174.97760	0.94326
2172.92380	0.94230
2170.86999	0.94092
2168.81619	0.94239
2166.76239	0.94478
2164.70858	0.94324
2162.65478	0.94102
2160.60098	0.94351
2158.54717	0.94644
2156.49337	0.94755
2154.43957	0.94782
2152.38576	0.94542
2150.33196	0.94230
2148.27816	0.94210
2146.22435	0.94383
2144.17055	0.94469
2142.11675	0.94498
2140.06294	0.94620
2138.00914	0.94732
2135.95534	0.94721
2133.90153	0.94757
2131.84773	0.94801
2129.79393	0.94675
2127.74012	0.94509
2125.68632	0.94431
2123.63252	0.94420
2121.57871	0.94382
2119.52491	0.94276
2117.47111	0.94201
2115.41731	0.94200
2113.36350	0.94225
2111.30970	0.94277
2109.25590	0.94326
2107.20209	0.94295
2105.14829	0.94240
2103.09449	0.94266
2101.04068	0.94371
2098.98688	0.94454
2096.93308	0.94477
2094.87927	0.94544
2092.82547	0.94614
2090.77167	0.94549
2088.71786	0.94407
2086.66406	0.94370
2084.61026	0.94462
2082.55645	0.94486
2080.50265	0.94385
2078.44885	0.94346
2076.39504	0.94419
2074.34124	0.94423
2072.28744	0.94420
2070.23363	0.94551
2068.17983	0.94616
2066.12603	0.94537
2064.07223	0.94463
2062.01842	0.94484
2059.96462	0.94535
2057.91082	0.94552
2055.85701	0.94529
2053.80321	0.94421
2051.74941	0.94346
2049.69560	0.94404
2047.64180	0.94611
2045.58800	0.94822
2043.53419	0.94738
2041.48039	0.94547
2039.42659	0.94490
2037.37278	0.94453
2035.31898	0.94512
2033.26518	0.94671
2031.21137	0.94696
2029.15757	0.94664
2027.10377	0.94634
2025.04996	0.94541
2022.99616	0.94490
2020.94236	0.94519
2018.88855	0.94658
2016.83475	0.94911
2014.78095	0.95084
2012.72714	0.95025
2010.67334	0.94944
2008.61954	0.95023
2006.56574	0.95115
2004.51193	0.95123
2002.45813	0.95106
2000.40433	0.95089
1998.35052	0.95008
1996.29672	0.94924
1994.24292	0.94978
1992.18911	0.95057
1990.13531	0.94943
1988.08151	0.94769
1986.02770	0.94742
1983.97390	0.94764
1981.92010	0.94699
1979.86629	0.94622
1977.81249	0.94710
1975.75869	0.94975
1973.70488	0.95111
1971.65108	0.94943
1969.59728	0.94720
1967.54347	0.94534
1965.48967	0.94328
1963.43587	0.94292
1961.38206	0.94449
1959.32826	0.94504
1957.27446	0.94467
1955.22066	0.94577
1953.16685	0.94665
1951.11305	0.94525
1949.05925	0.94353
1947.00544	0.94369
1944.95164	0.94477
1942.89784	0.94479
1940.84403	0.94322
1938.79023	0.94182
1936.73643	0.94231
1934.68262	0.94378
1932.62882	0.94447
1930.57502	0.94472
1928.52121	0.94538
1926.46741	0.94499
1924.41361	0.94390
1922.35980	0.94388
1920.30600	0.94450
1918.25220	0.94593
1916.19839	0.94691
1914.14459	0.94623
1912.09079	0.94582
1910.03698	0.94615
1907.98318	0.94626
1905.92938	0.94632
1903.87557	0.94626
1901.82177	0.94590
1899.76797	0.94585
1897.71417	0.94584
1895.66036	0.94481
1893.60656	0.94376
1891.55276	0.94391
1889.49895	0.94431
1887.44515	0.94447
1885.39135	0.94415
1883.33754	0.94354
1881.28374	0.94338
1879.22994	0.94314
1877.17613	0.94285
1875.12233	0.94289
1873.06853	0.94250
1871.01472	0.94116
1868.96092	0.94023
1866.90712	0.94110
1864.85331	0.94229
1862.79951	0.94279
1860.74571	0.94307
1858.69190	0.94348
1856.63810	0.94400
1854.58430	0.94447
1852.53049	0.94487
1850.47669	0.94521
1848.42289	0.94531
1846.36908	0.94534
1844.31528	0.94580
1842.26148	0.94616
1840.20768	0.94580
1838.15387	0.94568
1836.10007	0.94631
1834.04627	0.94653
1831.99246	0.94604
1829.93866	0.94574
1827.88486	0.94602
1825.83105	0.94610
1823.77725	0.94545
1821.72345	0.94470
1819.66964	0.94432
1817.61584	0.94418
1815.56204	0.94372
1813.50823	0.94303
1811.45443	0.94281
1809.40063	0.94284
1807.34682	0.94250
1805.29302	0.94199
1803.23922	0.94169
1801.18541	0.94159
1799.13161	0.94154
1797.07781	0.94164
1795.02400	0.94229
1792.97020	0.94345
1790.91640	0.94411
1788.86260	0.94438
1786.80879	0.94479
1784.75499	0.94497
1782.70119	0.94504
1780.64738	0.94506
1778.59358	0.94467
1776.53978	0.94460
1774.48597	0.94534
1772.43217	0.94594
1770.37837	0.94569
1768.32456	0.94520
1766.27076	0.94444
1764.21696	0.94357
1762.16315	0.94317
1760.10935	0.94311
1758.05555	0.94298
1756.00174	0.94274
1753.94794	0.94213
1751.89414	0.94123
1749.84033	0.94050
1747.78653	0.94010
1745.73273	0.94001
1743.67892	0.94021
1741.62512	0.94034
1739.57132	0.94035
1737.51751	0.94068
1735.46371	0.94122
1733.40991	0.94129
1731.35611	0.94108
1729.30230	0.94085
1727.24850	0.94060
1725.19470	0.94066
1723.14089	0.94085
1721.08709	0.94081
1719.03329	0.94078
1716.97948	0.94105
1714.92568	0.94122
1712.87188	0.94129
1710.81807	0.94129
1708.76427	0.94083
1706.71047	0.94023
1704.65666	0.93998
1702.60286	0.93983
1700.54906	0.93934
1698.49525	0.93860
1696.44145	0.93815
1694.38765	0.93780
1692.33384	0.93717
1690.28004	0.93613
1688.22624	0.93524
1686.17243	0.93494
1684.11863	0.93440
1682.06483	0.93341
1680.01103	0.93288
1677.95722	0.93248
1675.90342	0.93153
1673.84962	0.93036
1671.79581	0.92978
1669.74201	0.92920
1667.68821	0.92822
1665.63440	0.92746
1663.58060	0.92714
1661.52680	0.92736
1659.47299	0.92757
1657.41919	0.92754
1655.36539	0.92758
1653.31158	0.92748
1651.25778	0.92708
1649.20398	0.92698
1647.15017	0.92709
1645.09637	0.92736
1643.04257	0.92762
1640.98876	0.92788
1638.93496	0.92821
1636.88116	0.92859
1634.82735	0.92902
1632.77355	0.92925
1630.71975	0.92914
1628.66594	0.92882
1626.61214	0.92857
1624.55834	0.92882
1622.50454	0.92961
1620.45073	0.93012
1618.39693	0.93013
1616.34313	0.92995
1614.28932	0.92978
1612.23552	0.92915
1610.18172	0.92706
1608.12791	0.92235
1606.07411	0.91470
1604.02031	0.90554
1601.96650	0.89872
1599.91270	0.89839
1597.85890	0.90401
1595.80509	0.91164
1593.75129	0.91794
1591.69749	0.92202
1589.64368	0.92438
1587.58988	0.92496
1585.53608	0.92368
1583.48227	0.92244
1581.42847	0.92353
1579.37467	0.92628
1577.32086	0.92913
1575.26706	0.93128
1573.21326	0.93247
1571.15945	0.93348
1569.10565	0.93442
1567.05185	0.93496
1564.99805	0.93527
1562.94424	0.93570
1560.89044	0.93663
1558.83664	0.93755
1556.78283	0.93684
1554.72903	0.93590
1552.67523	0.93523
1550.62142	0.93461
1548.56762	0.93397
1546.51382	0.93342
1544.46001	0.93302
1542.40621	0.93322
1540.35241	0.93361
1538.29860	0.93316
1536.24480	0.93278
1534.19100	0.93270
1532.13719	0.93271
1530.08339	0.93297
1528.02959	0.93335
1525.97578	0.93321
1523.92198	0.93275
1521.86818	0.93235
1519.81437	0.93208
1517.76057	0.93199
1515.70677	0.93168
1513.65297	0.93142
1511.59916	0.93142
1509.54536	0.93105
1507.49156	0.92970
1505.43775	0.92776
1503.38395	0.92593
1501.33015	0.92292
1499.27634	0.91476
1497.22254	0.89165
1495.16874	0.85583
1493.11493	0.83261
1491.06113	0.83555
1489.00733	0.86166
1486.95352	0.88540
1484.89972	0.89764
1482.84592	0.90491
1480.79211	0.90938
1478.73831	0.91159
1476.68451	0.91273
1474.63070	0.91381
1472.57690	0.91529
1470.52310	0.91635
1468.46929	0.91673
1466.41549	0.91707
1464.36169	0.91745
1462.30788	0.91710
1460.25408	0.91489
1458.20028	0.90394
1456.14648	0.87208
1454.09267	0.84076
1452.03887	0.82693
1449.98507	0.83097
1447.93126	0.84597
1445.87746	0.86063
1443.82366	0.87177
1441.76985	0.88094
1439.71605	0.88803
1437.66225	0.89459
1435.60844	0.90188
1433.55464	0.90722
1431.50084	0.91067
1429.44703	0.91334
1427.39323	0.91537
1425.33943	0.91703
1423.28562	0.91844
1421.23182	0.91943
1419.17802	0.92054
1417.12421	0.92200
1415.07041	0.92333
1413.01661	0.92461
1410.96280	0.92581
1408.90900	0.92687
1406.85520	0.92808
1404.80139	0.92937
1402.74759	0.93014
1400.69379	0.93066
1398.63999	0.93145
1396.58618	0.93217
1394.53238	0.93231
1392.47858	0.93186
1390.42477	0.93146
1388.37097	0.93127
1386.31717	0.93052
1384.26336	0.92913
1382.20956	0.92782
1380.15576	0.92677
1378.10195	0.92589
1376.04815	0.92494
1373.99435	0.92396
1371.94054	0.92383
1369.88674	0.92455
1367.83294	0.92530
1365.77913	0.92600
1363.72533	0.92696
1361.67153	0.92775
1359.61772	0.92800
1357.56392	0.92832
1355.51012	0.92906
1353.45631	0.92977
1351.40251	0.93012
1349.34871	0.93036
1347.29491	0.93079
1345.24110	0.93140
1343.18730	0.93206
1341.13350	0.93269
1339.07969	0.93306
1337.02589	0.93298
1334.97209	0.93267
1332.91828	0.93219
1330.86448	0.93167
1328.81068	0.93138
1326.75687	0.93130
1324.70307	0.93134
1322.64927	0.93148
1320.59546	0.93176
1318.54166	0.93200
1316.48786	0.93201
1314.43405	0.93198
1312.38025	0.93211
1310.32645	0.93236
1308.27264	0.93270
1306.21884	0.93308
1304.16504	0.93344
1302.11123	0.93380
1300.05743	0.93439
1298.00363	0.93514
1295.94982	0.93543
1293.89602	0.93516
1291.84222	0.93524
1289.78842	0.93602
1287.73461	0.93665
1285.68081	0.93656
1283.62701	0.93585
1281.57320	0.93513
1279.51940	0.93510
1277.46560	0.93524
1275.41179	0.93488
1273.35799	0.93449
1271.30419	0.93472
1269.25038	0.93535
1267.19658	0.93582
1265.14278	0.93597
1263.08897	0.93583
1261.03517	0.93564
1258.98137	0.93551
1256.92756	0.93531
1254.87376	0.93529
1252.81996	0.93557
1250.76615	0.93565
1248.71235	0.93544
1246.65855	0.93522
1244.60474	0.93495
1242.55094	0.93467
1240.49714	0.93451
1238.44334	0.93442
1236.38953	0.93431
1234.33573	0.93412
1232.28193	0.93377
1230.22812	0.93326
1228.17432	0.93273
1226.12052	0.93210
1224.06671	0.93118
1222.01291	0.93022
1219.95911	0.92941
1217.90530	0.92831
1215.85150	0.92665
1213.79770	0.92468
1211.74389	0.92271
1209.69009	0.92080
1207.63629	0.91857
1205.58248	0.91580
1203.52868	0.91282
1201.47488	0.90995
1199.42107	0.90715
1197.36727	0.90441
1195.31347	0.90177
1193.25966	0.89884
1191.20586	0.89569
1189.15206	0.89259
1187.09825	0.88912
1185.04445	0.88496
1182.99065	0.88053
1180.93685	0.87685
1178.88304	0.87471
1176.82924	0.87356
1174.77544	0.87214
1172.72163	0.87011
1170.66783	0.86777
1168.61403	0.86534
1166.56022	0.86291
1164.50642	0.86072
1162.45262	0.85880
1160.39881	0.85663
1158.34501	0.85377
1156.29121	0.85039
1154.23740	0.84753
1152.18360	0.84629
1150.12980	0.84632
1148.07599	0.84645
1146.02219	0.84612
1143.96839	0.84511
1141.91458	0.84384
1139.86078	0.84280
1137.80698	0.84171
1135.75317	0.84028
1133.69937	0.83865
1131.64557	0.83682
1129.59176	0.83428
1127.53796	0.83087
1125.48416	0.82692
1123.43036	0.82243
1121.37655	0.81733
1119.32275	0.81184
1117.26895	0.80625
1115.21514	0.80060
1113.16134	0.79500
1111.10754	0.78969
1109.05373	0.78505
1106.99993	0.78152
1104.94613	0.77876
1102.89232	0.77591
1100.83852	0.77275
1098.78472	0.76990
1096.73091	0.76775
1094.67711	0.76585
1092.62331	0.76401
1090.56950	0.76243
1088.51570	0.76110
1086.46190	0.75976
1084.40809	0.75799
1082.35429	0.75602
1080.30049	0.75410
1078.24668	0.75209
1076.19288	0.74953
1074.13908	0.74599
1072.08528	0.74174
1070.03147	0.73740
1067.97767	0.73347
1065.92387	0.73013
1063.87006	0.72707
1061.81626	0.72420
1059.76246	0.72127
1057.70865	0.71762
1055.65485	0.71338
1053.60105	0.70900
1051.54724	0.70429
1049.49344	0.69872
1047.43964	0.69206
1045.38583	0.68459
1043.33203	0.67668
1041.27823	0.66860
1039.22442	0.66034
1037.17062	0.65152
1035.11682	0.64157
1033.06301	0.63039
1031.00921	0.61931
1028.95541	0.61026
1026.90160	0.60461
1024.84780	0.60280
1022.79400	0.60320
1020.74019	0.60353
1018.68639	0.60339
1016.63259	0.60279
1014.57879	0.60159
1012.52498	0.60030
1010.47118	0.59916
1008.41738	0.59789
1006.36357	0.59661
1004.30977	0.59586
1002.25597	0.59677
1000.20216	0.60013
998.14836	0.60497
996.09456	0.61006
994.04075	0.61545
991.98695	0.62133
989.93315	0.62747
987.87934	0.63392
985.82554	0.64087
983.77174	0.64836
981.71793	0.65638
979.66413	0.66521
977.61033	0.67545
975.55652	0.68686
973.50272	0.69840
971.44892	0.70924
969.39511	0.71897
967.34131	0.72744
965.28751	0.73520
963.23371	0.74292
961.17990	0.75088
959.12610	0.75916
957.07230	0.76706
955.01849	0.77367
952.96469	0.77910
950.91089	0.78375
948.85708	0.78764
946.80328	0.79091
944.74948	0.79379
942.69567	0.79674
940.64187	0.80004
938.58807	0.80363
936.53426	0.80777
934.48046	0.81221
932.42666	0.81599
930.37285	0.81876
928.31905	0.82075
926.26525	0.82223
924.21144	0.82301
922.15764	0.82300
920.10384	0.82249
918.05003	0.82130
915.99623	0.81898
913.94243	0.81553
911.88862	0.81203
909.83482	0.80973
907.78102	0.80946
905.72722	0.81217
903.67341	0.81844
901.61961	0.82762
899.56581	0.83765
897.51200	0.84653
895.45820	0.85365
893.40440	0.85927
891.35059	0.86374
889.29679	0.86723
887.24299	0.86967
885.18918	0.87115
883.13538	0.87188
881.08158	0.87200
879.02777	0.87230
876.97397	0.87396
874.92017	0.87707
872.86636	0.88062
870.81256	0.88363
868.75876	0.88613
866.70495	0.88803
864.65115	0.88868
862.59735	0.88892
860.54354	0.89002
858.48974	0.89204
856.43594	0.89445
854.38213	0.89665
852.32833	0.89813
850.27453	0.89856
848.22073	0.89772
846.16692	0.89562
844.11312	0.89332
842.05932	0.89196
840.00551	0.89169
837.95171	0.89199
835.89791	0.89263
833.84410	0.89378
831.79030	0.89534
829.73650	0.89714
827.68269	0.89849
825.62889	0.89850
823.57509	0.89767
821.52128	0.89762
819.46748	0.89861
817.41368	0.89960
815.35987	0.90013
813.30607	0.89986
811.25227	0.89809
809.19846	0.89451
807.14466	0.88985
805.09086	0.88488
803.03705	0.88000
800.98325	0.87628
798.92945	0.87473
796.87565	0.87498
794.82184	0.87633
792.76804	0.87771
790.71424	0.87797
788.66043	0.87691
786.60663	0.87420
784.55283	0.87019
782.49902	0.86606
780.44522	0.86186
778.39142	0.85689
776.33761	0.85094
774.28381	0.84396
772.23001	0.83493
770.17620	0.82292
768.12240	0.80865
766.06860	0.79363
764.01479	0.77851
761.96099	0.76298
759.90719	0.74782
757.85338	0.73583
755.79958	0.72939
753.74578	0.72806
751.69197	0.72967
749.63817	0.73270
747.58437	0.73751
745.53056	0.74684
743.47676	0.76310
741.42296	0.78366
739.36916	0.80355
737.31535	0.82077
735.26155	0.83551
733.20775	0.84804
731.15394	0.85813
729.10014	0.86512
727.04634	0.86961
724.99253	0.87287
722.93873	0.87539
720.88493	0.87784
718.83112	0.88030
716.77732	0.88131
714.72352	0.87947
712.66971	0.87345
710.61591	0.85995
708.56211	0.83286
706.50830	0.78654
704.45450	0.71983
702.40070	0.63665
700.34689	0.54452
698.29309	0.45769
696.23929	0.40722
694.18548	0.42911
692.13168	0.51633
690.07788	0.61568
688.02408	0.68698
685.97027	0.72879
683.91647	0.75418
681.86267	0.77115
679.80886	0.78241
677.75506	0.79018
675.70126	0.79604
673.64745	0.80033
671.59365	0.80348
669.53985	0.80645
667.48604	0.80927
665.43224	0.81139
663.37844	0.81356
661.32463	0.81537
659.27083	0.81587
657.21703	0.81557
655.16322	0.81557
653.10942	0.81573
651.05562	0.81582
649.00181	0.81645
646.94801	0.81783
644.89421	0.81978
642.84040	0.82223
640.78660	0.82392
638.73280	0.82434
636.67899	0.82523
634.62519	0.82674
632.57139	0.82693
630.51759	0.82524
628.46378	0.82353
626.40998	0.82342
624.35618	0.82380
622.30237	0.82255
620.24857	0.82006
618.19477	0.81800
616.14096	0.81627
614.08716	0.81422
612.03336	0.81185
609.97955	0.80971
607.92575	0.80794
605.87195	0.80627
603.81814	0.80431
601.76434	0.80127
599.71054	0.79777
597.65673	0.79441
595.60293	0.79111
593.54913	0.78922
591.49532	0.78853
589.44152	0.78713
587.38772	0.78516
585.33391	0.78402
583.28011	0.78307
581.22631	0.78050
579.17250	0.77708
577.11870	0.77407
575.06490	0.77116
573.01110	0.76792
570.95729	0.76400
568.90349	0.75784
566.84969	0.74908
564.79588	0.74042
562.74208	0.73315
560.68828	0.72596
558.63447	0.71766
556.58067	0.71003
554.52687	0.70382
552.47306	0.69572
550.41926	0.68520
548.36546	0.67449
546.31165	0.66275
544.25785	0.64743
542.20405	0.63089
540.15024	0.61727
538.09644	0.60750
536.04264	0.60298
533.98883	0.60409
531.93503	0.60881
529.88123	0.61642
527.82742	0.62552
525.77362	0.63359
523.71982	0.64006
521.66602	0.64586
519.61221	0.65211
517.55841	0.65955
515.50461	0.66676
513.45080	0.67284
511.39700	0.67919
509.34320	0.68543
507.28939	0.69024
505.23559	0.69482
503.18179	0.69936
501.12798	0.70070
499.07418	0.69990
497.02038	0.70108
494.96657	0.70183
492.91277	0.69746
490.85897	0.68848
488.80516	0.67779
486.75136	0.66648
484.69756	0.65473
482.64375	0.64278
480.58995	0.62909
478.53615	0.61202
476.48234	0.59452
474.42854	0.58068
472.37474	0.56995
470.32093	0.56036
468.26713	0.55371
466.21333	0.55341
464.15953	0.55612
462.10572	0.55932
460.05192	0.56868
457.99812	0.58279
455.94431	0.59275
453.89051	0.60034
451.83671	0.60937
449.78290	0.61622
447.72910	0.62016
445.67530	0.62347
443.62149	0.62541
441.56769	0.62376
439.51389	0.61977
437.46008	0.61707
435.40628	0.61594
433.35248	0.61575
431.29867	0.61588
429.24487	0.61517
427.19107	0.61581
425.13726	0.61878
423.08346	0.62226
421.02966	0.62582
418.97585	0.62928
416.92205	0.63307
414.86825	0.63781
412.81445	0.64118
410.76064	0.64356
408.70684	0.64797
406.65304	0.65503
404.59923	0.66354
402.54543	0.66866
400.49163	0.66759
398.43782	0.66994
