3996.70104	0.93860
3994.64724	0.93863
3992.59344	0.93885
3990.53964	0.93910
3988.48583	0.93950
3986.43203	0.93992
3984.37823	0.94013
3982.32442	0.94023
3980.27062	0.94020
3978.21682	0.93981
3976.16301	0.93934
3974.10921	0.93918
3972.05541	0.93899
3970.00160	0.93871
3967.94780	0.93866
3965.89400	0.93850
3963.84019	0.93820
3961.78639	0.93835
3959.73259	0.93908
3957.67878	0.93959
3955.62498	0.93962
3953.57118	0.93986
3951.51737	0.94045
3949.46357	0.94077
3947.40977	0.94041
3945.35596	0.93964
3943.30216	0.93903
3941.24836	0.93896
3939.19455	0.93914
3937.14075	0.93937
3935.08695	0.93980
3933.03315	0.94028
3930.97934	0.94054
3928.92554	0.94057
3926.87174	0.94040
3924.81793	0.94016
3922.76413	0.93966
3920.71033	0.93895
3918.65652	0.93876
3916.60272	0.93928
3914.54892	0.93989
3912.49511	0.93982
3910.44131	0.93940
3908.38751	0.93958
3906.33370	0.94039
3904.27990	0.94104
3902.22610	0.94103
3900.17229	0.94094
3898.11849	0.94109
3896.06469	0.94108
3894.01088	0.94064
3891.95708	0.94002
3889.90328	0.94003
3887.84947	0.94048
3885.79567	0.94093
3883.74187	0.94166
3881.68807	0.94255
3879.63426	0.94298
3877.58046	0.94234
3875.52666	0.94127
3873.47285	0.94038
3871.41905	0.94005
3869.36525	0.94043
3867.31144	0.94023
3865.25764	0.93924
3863.20384	0.93868
3861.15003	0.93913
3859.09623	0.94011
3857.04243	0.94088
3854.98862	0.94111
3852.93482	0.94158
3850.88102	0.94227
3848.82721	0.94221
3846.77341	0.94155
3844.71961	0.94069
3842.66580	0.94002
3840.61200	0.93960
3838.55820	0.93970
3836.50439	0.94034
3834.45059	0.94044
3832.39679	0.94023
3830.34298	0.94064
3828.28918	0.94138
3826.23538	0.94172
3824.18158	0.94145
3822.12777	0.94116
3820.07397	0.94177
3818.02017	0.94228
3815.96636	0.94176
3813.91256	0.94123
3811.85876	0.94130
3809.80495	0.94123
3807.75115	0.94071
3805.69735	0.94050
3803.64354	0.94079
3801.58974	0.94126
3799.53594	0.94164
3797.48213	0.94151
3795.42833	0.94112
3793.37453	0.94086
3791.32072	0.94065
3789.26692	0.94061
3787.21312	0.94092
3785.15931	0.94118
3783.10551	0.94134
3781.05171	0.94153
3778.99790	0.94150
3776.94410	0.94108
3774.89030	0.94044
3772.83650	0.94033
3770.78269	0.94134
3768.72889	0.94290
3766.67509	0.94381
3764.62128	0.94340
3762.56748	0.94219
3760.51368	0.94138
3758.45987	0.94132
3756.40607	0.94158
3754.35227	0.94165
3752.29846	0.94199
3750.24466	0.94321
3748.19086	0.94382
3746.13705	0.94374
3744.08325	0.94383
3742.02945	0.94399
3739.97564	0.94416
3737.92184	0.94458
3735.86804	0.94453
3733.81423	0.94359
3731.76043	0.94344
3729.70663	0.94380
3727.65282	0.94355
3725.59902	0.94297
3723.54522	0.94311
3721.49141	0.94357
3719.43761	0.94356
3717.38381	0.94325
3715.33001	0.94266
3713.27620	0.94219
3711.22240	0.94197
3709.16860	0.94105
3707.11479	0.94027
3705.06099	0.94031
3703.00719	0.94008
3700.95338	0.93885
3698.89958	0.93787
3696.84578	0.93799
3694.79197	0.93877
3692.73817	0.93937
3690.68437	0.93943
3688.63056	0.93976
3686.57676	0.94014
3684.52296	0.93989
3682.46915	0.93928
3680.41535	0.93843
3678.36155	0.93776
3676.30774	0.93840
3674.25394	0.93930
3672.20014	0.93790
3670.14633	0.93614
3668.09253	0.93626
3666.03873	0.93655
3663.98492	0.93615
3661.93112	0.93601
3659.87732	0.93660
3657.82352	0.93709
3655.76971	0.93623
3653.71591	0.93462
3651.66211	0.93332
3649.60830	0.93209
3647.55450	0.93178
3645.50070	0.93199
3643.44689	0.93191
3641.39309	0.93167
3639.33929	0.93079
3637.28548	0.92966
3635.23168	0.92943
3633.17788	0.92976
3631.12407	0.92977
3629.07027	0.92893
3627.01647	0.92746
3624.96266	0.92651
3622.90886	0.92571
3620.85506	0.92496
3618.80125	0.92471
3616.74745	0.92523
3614.69365	0.92658
3612.63984	0.92804
3610.58604	0.92850
3608.53224	0.92815
3606.47844	0.92775
3604.42463	0.92746
3602.37083	0.92728
3600.31703	0.92765
3598.26322	0.92827
3596.20942	0.92849
3594.15562	0.92819
3592.10181	0.92762
3590.04801	0.92724
3587.99421	0.92786
3585.94040	0.92952
3583.88660	0.92991
3581.83280	0.92921
3579.77899	0.92927
3577.72519	0.92989
3575.67139	0.92955
3573.61758	0.92814
3571.56378	0.92650
3569.50998	0.92557
3567.45617	0.92638
3565.40237	0.92813
3563.34857	0.92891
3561.29476	0.92863
3559.24096	0.92813
3557.18716	0.92843
3555.13335	0.92893
3553.07955	0.92873
3551.02575	0.92805
3548.97195	0.92779
3546.91814	0.92872
3544.86434	0.92980
3542.81054	0.92933
3540.75673	0.92796
3538.70293	0.92687
3536.64913	0.92674
3534.59532	0.92751
3532.54152	0.92798
3530.48772	0.92768
3528.43391	0.92755
3526.38011	0.92827
3524.32631	0.92932
3522.27250	0.92940
3520.21870	0.92802
3518.16490	0.92662
3516.11109	0.92652
3514.05729	0.92716
3512.00349	0.92729
3509.94968	0.92704
3507.89588	0.92696
3505.84208	0.92660
3503.78827	0.92612
3501.73447	0.92597
3499.68067	0.92614
3497.62687	0.92694
3495.57306	0.92824
3493.51926	0.92866
3491.46546	0.92771
3489.41165	0.92643
3487.35785	0.92565
3485.30405	0.92527
3483.25024	0.92470
3481.19644	0.92419
3479.14264	0.92436
3477.08883	0.92474
3475.03503	0.92473
3472.98123	0.92461
3470.92742	0.92464
3468.87362	0.92451
3466.81982	0.92449
3464.76601	0.92433
3462.71221	0.92362
3460.65841	0.92317
3458.60460	0.92311
3456.55080	0.92286
3454.49700	0.92250
3452.44319	0.92209
3450.38939	0.92199
3448.33559	0.92267
3446.28178	0.92383
3444.22798	0.92452
3442.17418	0.92428
3440.12038	0.92363
3438.06657	0.92319
3436.01277	0.92331
3433.95897	0.92348
3431.90516	0.92273
3429.85136	0.92180
3427.79756	0.92212
3425.74375	0.92322
3423.68995	0.92365
3421.63615	0.92329
3419.58234	0.92290
3417.52854	0.92265
3415.47474	0.92253
3413.42093	0.92235
3411.36713	0.92202
3409.31333	0.92191
3407.25952	0.92169
3405.20572	0.92147
3403.15192	0.92201
3401.09811	0.92257
3399.04431	0.92230
3396.99051	0.92171
3394.93670	0.92136
3392.88290	0.92129
3390.82910	0.92129
3388.77529	0.92135
3386.72149	0.92159
3384.66769	0.92198
3382.61389	0.92225
3380.56008	0.92209
3378.50628	0.92169
3376.45248	0.92164
3374.39867	0.92187
3372.34487	0.92215
3370.29107	0.92271
3368.23726	0.92345
3366.18346	0.92359
3364.12966	0.92312
3362.07585	0.92278
3360.02205	0.92254
3357.96825	0.92208
3355.91444	0.92183
3353.86064	0.92212
3351.80684	0.92234
3349.75303	0.92211
3347.69923	0.92212
3345.64543	0.92259
3343.59162	0.92292
3341.53782	0.92299
3339.48402	0.92302
3337.43021	0.92319
3335.37641	0.92339
3333.32261	0.92342
3331.26881	0.92340
3329.21500	0.92340
3327.16120	0.92328
3325.10740	0.92317
3323.05359	0.92336
3320.99979	0.92372
3318.94599	0.92395
3316.89218	0.92396
3314.83838	0.92381
3312.78458	0.92371
3310.73077	0.92408
3308.67697	0.92475
3306.62317	0.92497
3304.56936	0.92448
3302.51556	0.92375
3300.46176	0.92341
3298.40795	0.92319
3296.35415	0.92284
3294.30035	0.92280
3292.24654	0.92306
3290.19274	0.92330
3288.13894	0.92344
3286.08513	0.92374
3284.03133	0.92449
3281.97753	0.92521
3279.92372	0.92515
3277.86992	0.92455
3275.81612	0.92409
3273.76232	0.92395
3271.70851	0.92394
3269.65471	0.92403
3267.60091	0.92406
3265.54710	0.92378
3263.49330	0.92352
3261.43950	0.92385
3259.38569	0.92464
3257.33189	0.92499
3255.27809	0.92497
3253.22428	0.92532
3251.17048	0.92570
3249.11668	0.92560
3247.06287	0.92533
3245.00907	0.92559
3242.95527	0.92623
3240.90146	0.92634
3238.84766	0.92575
3236.79386	0.92533
3234.74005	0.92553
3232.68625	0.92615
3230.63245	0.92695
3228.57864	0.92738
3226.52484	0.92723
3224.47104	0.92694
3222.41724	0.92691
3220.36343	0.92721
3218.30963	0.92707
3216.25583	0.92654
3214.20202	0.92669
3212.14822	0.92755
3210.09442	0.92832
3208.04061	0.92843
3205.98681	0.92825
3203.93301	0.92878
3201.87920	0.92977
3199.82540	0.93028
3197.77160	0.93016
3195.71779	0.92973
3193.66399	0.92937
3191.61019	0.92918
3189.55638	0.92900
3187.50258	0.92869
3185.44878	0.92852
3183.39497	0.92905
3181.34117	0.92996
3179.28737	0.93068
3177.23356	0.93111
3175.17976	0.93136
3173.12596	0.93155
3171.07215	0.93139
3169.01835	0.93070
3166.96455	0.93031
3164.91075	0.93063
3162.85694	0.93090
3160.80314	0.93075
3158.74934	0.93062
3156.69553	0.93099
3154.64173	0.93148
3152.58793	0.93170
3150.53412	0.93199
3148.48032	0.93227
3146.42652	0.93222
3144.37271	0.93205
3142.31891	0.93232
3140.26511	0.93311
3138.21130	0.93385
3136.15750	0.93410
3134.10370	0.93381
3132.04989	0.93347
3129.99609	0.93324
3127.94229	0.93283
3125.88848	0.93284
3123.83468	0.93376
3121.78088	0.93481
3119.72707	0.93501
3117.67327	0.93454
3115.61947	0.93416
3113.56566	0.93389
3111.51186	0.93327
3109.45806	0.93201
3107.40426	0.93035
3105.35045	0.92894
3103.29665	0.92847
3101.24285	0.92883
3099.18904	0.92942
3097.13524	0.92977
3095.08144	0.92946
3093.02763	0.92848
3090.97383	0.92689
3088.92003	0.92432
3086.86622	0.92057
3084.81242	0.91666
3082.75862	0.91442
3080.70481	0.91471
3078.65101	0.91671
3076.59721	0.91897
3074.54340	0.92067
3072.48960	0.92123
3070.43580	0.92057
3068.38199	0.91879
3066.32819	0.91570
3064.27439	0.91165
3062.22058	0.90757
3060.16678	0.90498
3058.11298	0.90529
3056.05918	0.90815
3054.00537	0.91202
3051.95157	0.91584
3049.89777	0.91895
3047.84396	0.92103
3045.79016	0.92221
3043.73636	0.92276
3041.68255	0.92243
3039.62875	0.92078
3037.57495	0.91774
3035.52114	0.91279
3033.46734	0.90560
3031.41354	0.89638
3029.35973	0.88594
3027.30593	0.87688
3025.25213	0.87261
3023.19832	0.87512
3021.14452	0.88365
3019.09072	0.89494
3017.03691	0.90507
3014.98311	0.91223
3012.92931	0.91683
3010.87550	0.91973
3008.82170	0.92136
3006.76790	0.92178
3004.71409	0.92108
3002.66029	0.92010
3000.60649	0.92019
2998.55269	0.92181
2996.49888	0.92438
2994.44508	0.92710
2992.39128	0.92915
2990.33747	0.93030
2988.28367	0.93104
2986.22987	0.93139
2984.17606	0.93091
2982.12226	0.93019
2980.06846	0.92997
2978.01465	0.92993
2975.96085	0.92950
2973.90705	0.92863
2971.85324	0.92767
2969.79944	0.92671
2967.74564	0.92526
2965.69183	0.92342
2963.63803	0.92177
2961.58423	0.92033
2959.53042	0.91893
2957.47662	0.91778
2955.42282	0.91675
2953.36901	0.91520
2951.31521	0.91295
2949.26141	0.91044
2947.20761	0.90780
2945.15380	0.90425
2943.10000	0.89933
2941.04620	0.89376
2938.99239	0.88782
2936.93859	0.88093
2934.88479	0.87280
2932.83098	0.86396
2930.77718	0.85537
2928.72338	0.84733
2926.66957	0.83967
2924.61577	0.83296
2922.56197	0.82824
2920.50816	0.82599
2918.45436	0.82639
2916.40056	0.82913
2914.34675	0.83399
2912.29295	0.84093
2910.23915	0.84891
2908.18534	0.85651
2906.13154	0.86310
2904.07774	0.86873
2902.02393	0.87396
2899.97013	0.87927
2897.91633	0.88458
2895.86252	0.88916
2893.80872	0.89249
2891.75492	0.89497
2889.70112	0.89724
2887.64731	0.89971
2885.59351	0.90227
2883.53971	0.90436
2881.48590	0.90610
2879.43210	0.90800
2877.37830	0.90968
2875.32449	0.91048
2873.27069	0.91064
2871.21689	0.91073
2869.16308	0.91082
2867.10928	0.91057
2865.05548	0.90929
2863.00167	0.90656
2860.94787	0.90299
2858.89407	0.89901
2856.84026	0.89429
2854.78646	0.88889
2852.73266	0.88389
2850.67885	0.88087
2848.62505	0.88135
2846.57125	0.88557
2844.51744	0.89194
2842.46364	0.89878
2840.40984	0.90560
2838.35603	0.91185
2836.30223	0.91673
2834.24843	0.92022
2832.19463	0.92277
2830.14082	0.92476
2828.08702	0.92651
2826.03322	0.92775
2823.97941	0.92827
2821.92561	0.92878
2819.87181	0.92973
2817.81800	0.93051
2815.76420	0.93080
2813.71040	0.93116
2811.65659	0.93159
2809.60279	0.93178
2807.54899	0.93213
2805.49518	0.93268
2803.44138	0.93299
2801.38758	0.93316
2799.33377	0.93338
2797.27997	0.93354
2795.22617	0.93363
2793.17236	0.93398
2791.11856	0.93466
2789.06476	0.93500
2787.01095	0.93487
2784.95715	0.93477
2782.90335	0.93478
2780.84955	0.93468
2778.79574	0.93449
2776.74194	0.93443
2774.68814	0.93481
2772.63433	0.93533
2770.58053	0.93552
2768.52673	0.93579
2766.47292	0.93631
2764.41912	0.93668
2762.36532	0.93695
2760.31151	0.93720
2758.25771	0.93718
2756.20391	0.93693
2754.15010	0.93668
2752.09630	0.93658
2750.04250	0.93684
2747.98869	0.93718
2745.93489	0.93717
2743.88109	0.93722
2741.82728	0.93761
2739.77348	0.93790
2737.71968	0.93816
2735.66587	0.93841
2733.61207	0.93820
2731.55827	0.93775
2729.50446	0.93757
2727.45066	0.93774
2725.39686	0.93801
2723.34306	0.93816
2721.28925	0.93819
2719.23545	0.93812
2717.18165	0.93803
2715.12784	0.93827
2713.07404	0.93869
2711.02024	0.93874
2708.96643	0.93854
2706.91263	0.93829
2704.85883	0.93802
2702.80502	0.93792
2700.75122	0.93811
2698.69742	0.93832
2696.64361	0.93821
2694.58981	0.93820
2692.53601	0.93861
2690.48220	0.93905
2688.42840	0.93914
2686.37460	0.93897
2684.32079	0.93893
2682.26699	0.93923
2680.21319	0.93952
2678.15938	0.93945
2676.10558	0.93912
2674.05178	0.93886
2671.99797	0.93880
2669.94417	0.93858
2667.89037	0.93830
2665.83657	0.93829
2663.78276	0.93844
2661.72896	0.93875
2659.67516	0.93904
2657.62135	0.93915
2655.56755	0.93920
2653.51375	0.93926
2651.45994	0.93927
2649.40614	0.93941
2647.35234	0.93958
2645.29853	0.93943
2643.24473	0.93913
2641.19093	0.93884
2639.13712	0.93868
2637.08332	0.93885
2635.02952	0.93928
2632.97571	0.93958
2630.92191	0.93965
2628.86811	0.93988
2626.81430	0.94041
2624.76050	0.94099
2622.70670	0.94122
2620.65289	0.94110
2618.59909	0.94078
2616.54529	0.94040
2614.49149	0.94048
2612.43768	0.94100
2610.38388	0.94133
2608.33008	0.94130
2606.27627	0.94135
2604.22247	0.94197
2602.16867	0.94238
2600.11486	0.94194
2598.06106	0.94153
2596.00726	0.94158
2593.95345	0.94191
2591.89965	0.94219
2589.84585	0.94211
2587.79204	0.94215
2585.73824	0.94284
2583.68444	0.94339
2581.63063	0.94318
2579.57683	0.94319
2577.52303	0.94384
2575.46922	0.94430
2573.41542	0.94417
2571.36162	0.94351
2569.30781	0.94282
2567.25401	0.94257
2565.20021	0.94285
2563.14640	0.94347
2561.09260	0.94336
2559.03880	0.94270
2556.98500	0.94308
2554.93119	0.94403
2552.87739	0.94410
2550.82359	0.94375
2548.76978	0.94425
2546.71598	0.94500
2544.66218	0.94482
2542.60837	0.94432
2540.55457	0.94382
2538.50077	0.94321
2536.44696	0.94320
2534.39316	0.94373
2532.33936	0.94369
2530.28555	0.94323
2528.23175	0.94365
2526.17795	0.94473
2524.12414	0.94512
2522.07034	0.94462
2520.01654	0.94399
2517.96273	0.94374
2515.90893	0.94418
2513.85513	0.94443
2511.80132	0.94388
2509.74752	0.94334
2507.69372	0.94307
2505.63992	0.94303
2503.58611	0.94353
2501.53231	0.94418
2499.47851	0.94447
2497.42470	0.94470
2495.37090	0.94509
2493.31710	0.94539
2491.26329	0.94552
2489.20949	0.94535
2487.15569	0.94506
2485.10188	0.94490
2483.04808	0.94455
2480.99428	0.94420
2478.94047	0.94439
2476.88667	0.94483
2474.83287	0.94519
2472.77906	0.94550
2470.72526	0.94582
2468.67146	0.94640
2466.61765	0.94724
2464.56385	0.94740
2462.51005	0.94656
2460.45624	0.94577
2458.40244	0.94558
2456.34864	0.94576
2454.29483	0.94573
2452.24103	0.94529
2450.18723	0.94476
2448.13343	0.94475
2446.07962	0.94545
2444.02582	0.94608
2441.97202	0.94612
2439.91821	0.94608
2437.86441	0.94644
2435.81061	0.94701
2433.75680	0.94755
2431.70300	0.94726
2429.64920	0.94609
2427.59539	0.94562
2425.54159	0.94619
2423.48779	0.94678
2421.43398	0.94685
2419.38018	0.94692
2417.32638	0.94751
2415.27257	0.94809
2413.21877	0.94770
2411.16497	0.94679
2409.11116	0.94658
2407.05736	0.94691
2405.00356	0.94707
2402.94975	0.94691
2400.89595	0.94668
2398.84215	0.94661
2396.78834	0.94676
2394.73454	0.94675
2392.68074	0.94640
2390.62694	0.94625
2388.57313	0.94660
2386.51933	0.94713
2384.46553	0.94740
2382.41172	0.94729
2380.35792	0.94716
2378.30412	0.94737
2376.25031	0.94761
2374.19651	0.94709
2372.14271	0.94572
2370.08890	0.94519
2368.03510	0.94626
2365.98130	0.94709
2363.92749	0.94749
2361.87369	0.94825
2359.81989	0.94880
2357.76608	0.94919
2355.71228	0.94863
2353.65848	0.94721
2351.60467	0.94641
2349.55087	0.94586
2347.49707	0.94504
2345.44326	0.94450
2343.38946	0.94493
2341.33566	0.94584
2339.28186	0.94645
2337.22805	0.94628
2335.17425	0.94572
2333.12045	0.94594
2331.06664	0.94694
2329.01284	0.94734
2326.95904	0.94643
2324.90523	0.94503
2322.85143	0.94482
2320.79763	0.94569
2318.74382	0.94582
2316.69002	0.94533
2314.63622	0.94547
2312.58241	0.94634
2310.52861	0.94687
2308.47481	0.94679
2306.42100	0.94659
2304.36720	0.94644
2302.31340	0.94705
2300.25959	0.94834
2298.20579	0.94843
2296.15199	0.94716
2294.09818	0.94622
2292.04438	0.94618
2289.99058	0.94665
2287.93677	0.94658
2285.88297	0.94551
2283.82917	0.94529
2281.77537	0.94691
2279.72156	0.94829
2277.66776	0.94774
2275.61396	0.94690
2273.56015	0.94765
2271.50635	0.94917
2269.45255	0.94937
2267.39874	0.94822
2265.34494	0.94792
2263.29114	0.94868
2261.23733	0.94890
2259.18353	0.94841
2257.12973	0.94746
2255.07592	0.94667
2253.02212	0.94744
2250.96832	0.94954
2248.91451	0.95121
2246.86071	0.95103
2244.80691	0.94947
2242.75310	0.94863
2240.69930	0.94895
2238.64550	0.94865
2236.59169	0.94748
2234.53789	0.94684
2232.48409	0.94775
2230.43029	0.95064
2228.37648	0.95289
2226.32268	0.95232
2224.26888	0.95143
2222.21507	0.95244
2220.16127	0.95375
2218.10747	0.95303
2216.05366	0.95026
2213.99986	0.94753
2211.94606	0.94806
2209.89225	0.95048
2207.83845	0.95052
2205.78465	0.94913
2203.73084	0.94884
2201.67704	0.95004
2199.62324	0.95176
2197.56943	0.95232
2195.51563	0.95230
2193.46183	0.95287
2191.40802	0.95357
2189.35422	0.95284
2187.30042	0.95003
2185.24661	0.94726
2183.19281	0.94735
2181.13901	0.94992
2179.08520	0.95065
2177.03140	0.94891
2174.97760	0.94970
2172.92380	0.95357
2170.86999	0.95616
2168.81619	0.95651
2166.76239	0.95542
2164.70858	0.95329
2162.65478	0.95219
2160.60098	0.95268
2158.54717	0.95239
2156.49337	0.95029
2154.43957	0.94954
2152.38576	0.95294
2150.33196	0.95676
2148.27816	0.95620
2146.22435	0.95419
2144.17055	0.95422
2142.11675	0.95527
2140.06294	0.95687
2138.00914	0.95831
2135.95534	0.95867
2133.90153	0.95790
2131.84773	0.95623
2129.79393	0.95426
2127.74012	0.95257
2125.68632	0.95212
2123.63252	0.95266
2121.57871	0.95264
2119.52491	0.95205
2117.47111	0.95185
2115.41731	0.95263
2113.36350	0.95427
2111.30970	0.95556
2109.25590	0.95507
2107.20209	0.95283
2105.14829	0.95064
2103.09449	0.95003
2101.04068	0.95092
2098.98688	0.95218
2096.93308	0.95267
2094.87927	0.95296
2092.82547	0.95392
2090.77167	0.95410
2088.71786	0.95331
2086.66406	0.95343
2084.61026	0.95457
2082.55645	0.95523
2080.50265	0.95441
2078.44885	0.95298
2076.39504	0.95205
2074.34124	0.95087
2072.28744	0.94974
2070.23363	0.95006
2068.17983	0.95115
2066.12603	0.95208
2064.07223	0.95260
2062.01842	0.95221
2059.96462	0.95148
2057.91082	0.95160
2055.85701	0.95238
2053.80321	0.95257
2051.74941	0.95149
2049.69560	0.95087
2047.64180	0.95192
2045.58800	0.95193
2043.53419	0.95028
2041.48039	0.94965
2039.42659	0.95124
2037.37278	0.95413
2035.31898	0.95592
2033.26518	0.95615
2031.21137	0.95702
2029.15757	0.95784
2027.10377	0.95671
2025.04996	0.95519
2022.99616	0.95419
2020.94236	0.95363
2018.88855	0.95407
2016.83475	0.95404
2014.78095	0.95154
2012.72714	0.94821
2010.67334	0.94823
2008.61954	0.95293
2006.56574	0.95801
2004.51193	0.95812
2002.45813	0.95469
2000.40433	0.95307
1998.35052	0.95415
1996.29672	0.95422
1994.24292	0.95272
1992.18911	0.95249
1990.13531	0.95392
1988.08151	0.95543
1986.02770	0.95598
1983.97390	0.95590
1981.92010	0.95504
1979.86629	0.95386
1977.81249	0.95449
1975.75869	0.95511
1973.70488	0.95326
1971.65108	0.95147
1969.59728	0.95222
1967.54347	0.95353
1965.48967	0.95187
1963.43587	0.94845
1961.38206	0.94810
1959.32826	0.95214
1957.27446	0.95544
1955.22066	0.95399
1953.16685	0.95109
1951.11305	0.95034
1949.05925	0.95018
1947.00544	0.94946
1944.95164	0.94908
1942.89784	0.94814
1940.84403	0.94592
1938.79023	0.94514
1936.73643	0.94657
1934.68262	0.94775
1932.62882	0.94784
1930.57502	0.94882
1928.52121	0.95179
1926.46741	0.95525
1924.41361	0.95680
1922.35980	0.95517
1920.30600	0.95311
1918.25220	0.95337
1916.19839	0.95385
1914.14459	0.95290
1912.09079	0.95185
1910.03698	0.95186
1907.98318	0.95334
1905.92938	0.95469
1903.87557	0.95436
1901.82177	0.95366
1899.76797	0.95375
1897.71417	0.95426
1895.66036	0.95393
1893.60656	0.95199
1891.55276	0.95024
1889.49895	0.95030
1887.44515	0.95087
1885.39135	0.95019
1883.33754	0.94886
1881.28374	0.94829
1879.22994	0.94900
1877.17613	0.95014
1875.12233	0.95031
1873.06853	0.94966
1871.01472	0.94912
1868.96092	0.94895
1866.90712	0.94883
1864.85331	0.94836
1862.79951	0.94788
1860.74571	0.94813
1858.69190	0.94943
1856.63810	0.95074
1854.58430	0.95120
1852.53049	0.95154
1850.47669	0.95213
1848.42289	0.95276
1846.36908	0.95362
1844.31528	0.95437
1842.26148	0.95415
1840.20768	0.95375
1838.15387	0.95366
1836.10007	0.95329
1834.04627	0.95253
1831.99246	0.95163
1829.93866	0.95139
1827.88486	0.95238
1825.83105	0.95329
1823.77725	0.95317
1821.72345	0.95236
1819.66964	0.95198
1817.61584	0.95234
1815.56204	0.95221
1813.50823	0.95102
1811.45443	0.94951
1809.40063	0.94823
1807.34682	0.94704
1805.29302	0.94618
1803.23922	0.94611
1801.18541	0.94639
1799.13161	0.94662
1797.07781	0.94706
1795.02400	0.94788
1792.97020	0.94925
1790.91640	0.95074
1788.86260	0.95160
1786.80879	0.95203
1784.75499	0.95224
1782.70119	0.95220
1780.64738	0.95191
1778.59358	0.95158
1776.53978	0.95159
1774.48597	0.95170
1772.43217	0.95144
1770.37837	0.95156
1768.32456	0.95225
1766.27076	0.95262
1764.21696	0.95240
1762.16315	0.95153
1760.10935	0.95036
1758.05555	0.94975
1756.00174	0.94900
1753.94794	0.94738
1751.89414	0.94552
1749.84033	0.94378
1747.78653	0.94204
1745.73273	0.94065
1743.67892	0.93962
1741.62512	0.93887
1739.57132	0.93896
1737.51751	0.93973
1735.46371	0.94051
1733.40991	0.94136
1731.35611	0.94194
1729.30230	0.94177
1727.24850	0.94130
1725.19470	0.94126
1723.14089	0.94141
1721.08709	0.94122
1719.03329	0.94109
1716.97948	0.94214
1714.92568	0.94387
1712.87188	0.94470
1710.81807	0.94479
1708.76427	0.94459
1706.71047	0.94434
1704.65666	0.94437
1702.60286	0.94449
1700.54906	0.94426
1698.49525	0.94342
1696.44145	0.94234
1694.38765	0.94178
1692.33384	0.94142
1690.28004	0.94052
1688.22624	0.93911
1686.17243	0.93771
1684.11863	0.93670
1682.06483	0.93624
1680.01103	0.93558
1677.95722	0.93492
1675.90342	0.93461
1673.84962	0.93442
1671.79581	0.93386
1669.74201	0.93246
1667.68821	0.93094
1665.63440	0.93019
1663.58060	0.92972
1661.52680	0.92915
1659.47299	0.92849
1657.41919	0.92801
1655.36539	0.92808
1653.31158	0.92838
1651.25778	0.92755
1649.20398	0.92652
1647.15017	0.92596
1645.09637	0.92647
1643.04257	0.92692
1640.98876	0.92667
1638.93496	0.92631
1636.88116	0.92666
1634.82735	0.92709
1632.77355	0.92682
1630.71975	0.92663
1628.66594	0.92655
1626.61214	0.92646
1624.55834	0.92634
1622.50454	0.92616
1620.45073	0.92588
1618.39693	0.92561
1616.34313	0.92570
1614.28932	0.92581
1612.23552	0.92475
1610.18172	0.92153
1608.12791	0.91503
1606.07411	0.90487
1604.02031	0.89274
1601.96650	0.88348
1599.91270	0.88261
1597.85890	0.88983
1595.80509	0.90018
1593.75129	0.90888
1591.69749	0.91413
1589.64368	0.91613
1587.58988	0.91496
1585.53608	0.91118
1583.48227	0.90753
1581.42847	0.90710
1579.37467	0.90927
1577.32086	0.91254
1575.26706	0.91666
1573.21326	0.91975
1571.15945	0.92213
1569.10565	0.92444
1567.05185	0.92602
1564.99805	0.92713
1562.94424	0.92796
1560.89044	0.92856
1558.83664	0.92878
1556.78283	0.92845
1554.72903	0.92821
1552.67523	0.92747
1550.62142	0.92582
1548.56762	0.92357
1546.51382	0.92156
1544.46001	0.91971
1542.40621	0.91794
1540.35241	0.91721
1538.29860	0.91796
1536.24480	0.91926
1534.19100	0.92191
1532.13719	0.92574
1530.08339	0.92860
1528.02959	0.93071
1525.97578	0.93246
1523.92198	0.93375
1521.86818	0.93457
1519.81437	0.93479
1517.76057	0.93520
1515.70677	0.93639
1513.65297	0.93729
1511.59916	0.93715
1509.54536	0.93631
1507.49156	0.93544
1505.43775	0.93493
1503.38395	0.93342
1501.33015	0.92939
1499.27634	0.91764
1497.22254	0.88508
1495.16874	0.83746
1493.11493	0.80919
1491.06113	0.81501
1489.00733	0.85192
1486.95352	0.88493
1484.89972	0.90081
1482.84592	0.90885
1480.79211	0.91268
1478.73831	0.91401
1476.68451	0.91444
1474.63070	0.91452
1472.57690	0.91407
1470.52310	0.91318
1468.46929	0.91231
1466.41549	0.91164
1464.36169	0.91112
1462.30788	0.91051
1460.25408	0.90835
1458.20028	0.89380
1456.14648	0.84893
1454.09267	0.80852
1452.03887	0.79209
1449.98507	0.79702
1447.93126	0.81561
1445.87746	0.83439
1443.82366	0.84874
1441.76985	0.86081
1439.71605	0.87034
1437.66225	0.87877
1435.60844	0.88779
1433.55464	0.89464
1431.50084	0.89959
1429.44703	0.90356
1427.39323	0.90606
1425.33943	0.90745
1423.28562	0.90825
1421.23182	0.90865
1419.17802	0.90914
1417.12421	0.91018
1415.07041	0.91174
1413.01661	0.91359
1410.96280	0.91544
1408.90900	0.91717
1406.85520	0.91885
1404.80139	0.92063
1402.74759	0.92235
1400.69379	0.92368
1398.63999	0.92431
1396.58618	0.92444
1394.53238	0.92448
1392.47858	0.92464
1390.42477	0.92458
1388.37097	0.92347
1386.31717	0.92116
1384.26336	0.91922
1382.20956	0.91813
1380.15576	0.91710
1378.10195	0.91574
1376.04815	0.91417
1373.99435	0.91316
1371.94054	0.91341
1369.88674	0.91397
1367.83294	0.91410
1365.77913	0.91428
1363.72533	0.91516
1361.67153	0.91681
1359.61772	0.91848
1357.56392	0.91964
1355.51012	0.92038
1353.45631	0.92092
1351.40251	0.92148
1349.34871	0.92201
1347.29491	0.92229
1345.24110	0.92246
1343.18730	0.92318
1341.13350	0.92474
1339.07969	0.92629
1337.02589	0.92638
1334.97209	0.92532
1332.91828	0.92432
1330.86448	0.92365
1328.81068	0.92299
1326.75687	0.92232
1324.70307	0.92217
1322.64927	0.92282
1320.59546	0.92342
1318.54166	0.92318
1316.48786	0.92252
1314.43405	0.92227
1312.38025	0.92287
1310.32645	0.92387
1308.27264	0.92447
1306.21884	0.92482
1304.16504	0.92559
1302.11123	0.92678
1300.05743	0.92768
1298.00363	0.92794
1295.94982	0.92795
1293.89602	0.92795
1291.84222	0.92817
1289.78842	0.92869
1287.73461	0.92887
1285.68081	0.92841
1283.62701	0.92790
1281.57320	0.92760
1279.51940	0.92698
1277.46560	0.92591
1275.41179	0.92492
1273.35799	0.92455
1271.30419	0.92498
1269.25038	0.92577
1267.19658	0.92642
1265.14278	0.92704
1263.08897	0.92806
1261.03517	0.92937
1258.98137	0.93031
1256.92756	0.93045
1254.87376	0.93034
1252.81996	0.93077
1250.76615	0.93129
1248.71235	0.93129
1246.65855	0.93095
1244.60474	0.93068
1242.55094	0.93082
1240.49714	0.93111
1238.44334	0.93104
1236.38953	0.93060
1234.33573	0.93010
1232.28193	0.93029
1230.22812	0.93108
1228.17432	0.93143
1226.12052	0.93112
1224.06671	0.93093
1222.01291	0.93115
1219.95911	0.93119
1217.90530	0.93065
1215.85150	0.92960
1213.79770	0.92851
1211.74389	0.92774
1209.69009	0.92682
1207.63629	0.92526
1205.58248	0.92340
1203.52868	0.92197
1201.47488	0.92098
1199.42107	0.91988
1197.36727	0.91855
1195.31347	0.91709
1193.25966	0.91576
1191.20586	0.91453
1189.15206	0.91279
1187.09825	0.91022
1185.04445	0.90683
1182.99065	0.90312
1180.93685	0.90065
1178.88304	0.90076
1176.82924	0.90265
1174.77544	0.90417
1172.72163	0.90476
1170.66783	0.90526
1168.61403	0.90557
1166.56022	0.90486
1164.50642	0.90320
1162.45262	0.90127
1160.39881	0.89892
1158.34501	0.89542
1156.29121	0.89119
1154.23740	0.88825
1152.18360	0.88856
1150.12980	0.89143
1148.07599	0.89415
1146.02219	0.89538
1143.96839	0.89564
1141.91458	0.89548
1139.86078	0.89507
1137.80698	0.89445
1135.75317	0.89314
1133.69937	0.89083
1131.64557	0.88817
1129.59176	0.88561
1127.53796	0.88280
1125.48416	0.87957
1123.43036	0.87607
1121.37655	0.87226
1119.32275	0.86811
1117.26895	0.86406
1115.21514	0.86046
1113.16134	0.85713
1111.10754	0.85431
1109.05373	0.85245
1106.99993	0.85078
1104.94613	0.84837
1102.89232	0.84562
1100.83852	0.84318
1098.78472	0.84114
1096.73091	0.83929
1094.67711	0.83693
1092.62331	0.83391
1090.56950	0.83139
1088.51570	0.83001
1086.46190	0.82899
1084.40809	0.82725
1082.35429	0.82456
1080.30049	0.82142
1078.24668	0.81801
1076.19288	0.81416
1074.13908	0.80972
1072.08528	0.80491
1070.03147	0.80074
1067.97767	0.79824
1065.92387	0.79722
1063.87006	0.79646
1061.81626	0.79533
1059.76246	0.79460
1057.70865	0.79442
1055.65485	0.79319
1053.60105	0.79004
1051.54724	0.78560
1049.49344	0.78097
1047.43964	0.77693
1045.38583	0.77285
1043.33203	0.76759
1041.27823	0.76164
1039.22442	0.75567
1037.17062	0.74826
1035.11682	0.73771
1033.06301	0.72439
1031.00921	0.71117
1028.95541	0.70213
1026.90160	0.69956
1024.84780	0.70220
1022.79400	0.70662
1020.74019	0.71051
1018.68639	0.71384
1016.63259	0.71673
1014.57879	0.71864
1012.52498	0.71934
1010.47118	0.71938
1008.41738	0.71964
1006.36357	0.72031
1004.30977	0.72081
1002.25597	0.72175
1000.20216	0.72448
998.14836	0.72855
996.09456	0.73250
994.04075	0.73566
991.98695	0.73814
989.93315	0.74089
987.87934	0.74440
985.82554	0.74748
983.77174	0.74968
981.71793	0.75249
979.66413	0.75706
977.61033	0.76301
975.55652	0.76917
973.50272	0.77488
971.44892	0.78031
969.39511	0.78541
967.34131	0.78981
965.28751	0.79391
963.23371	0.79863
961.17990	0.80455
959.12610	0.81122
957.07230	0.81770
955.01849	0.82323
952.96469	0.82696
950.91089	0.82930
948.85708	0.83134
946.80328	0.83313
944.74948	0.83436
942.69567	0.83504
940.64187	0.83566
938.58807	0.83710
936.53426	0.83959
934.48046	0.84221
932.42666	0.84382
930.37285	0.84467
928.31905	0.84601
926.26525	0.84788
924.21144	0.84850
922.15764	0.84724
920.10384	0.84556
918.05003	0.84407
915.99623	0.84154
913.94243	0.83706
911.88862	0.83150
909.83482	0.82667
907.78102	0.82423
905.72722	0.82552
903.67341	0.83095
901.61961	0.83935
899.56581	0.84917
897.51200	0.85890
895.45820	0.86668
893.40440	0.87178
891.35059	0.87538
889.29679	0.87850
887.24299	0.88085
885.18918	0.88236
883.13538	0.88331
881.08158	0.88349
879.02777	0.88334
876.97397	0.88397
874.92017	0.88567
872.86636	0.88836
870.81256	0.89216
868.75876	0.89642
866.70495	0.90004
864.65115	0.90276
862.59735	0.90474
860.54354	0.90616
858.48974	0.90719
856.43594	0.90827
854.38213	0.90937
852.32833	0.90975
850.27453	0.90926
848.22073	0.90825
846.16692	0.90695
844.11312	0.90549
842.05932	0.90397
840.00551	0.90287
837.95171	0.90290
835.89791	0.90375
833.84410	0.90435
831.79030	0.90457
829.73650	0.90505
827.68269	0.90612
825.62889	0.90711
823.57509	0.90741
821.52128	0.90771
819.46748	0.90915
817.41368	0.91154
815.35987	0.91321
813.30607	0.91371
811.25227	0.91387
809.19846	0.91296
807.14466	0.91031
805.09086	0.90632
803.03705	0.90170
800.98325	0.89854
798.92945	0.89782
796.87565	0.89803
794.82184	0.89852
792.76804	0.89992
790.71424	0.90095
788.66043	0.89962
786.60663	0.89728
784.55283	0.89501
782.49902	0.89058
780.44522	0.88294
778.39142	0.87370
776.33761	0.86385
774.28381	0.85267
772.23001	0.83960
770.17620	0.82475
768.12240	0.80811
766.06860	0.79094
764.01479	0.77472
761.96099	0.75837
759.90719	0.74164
757.85338	0.72817
755.79958	0.72103
753.74578	0.71966
751.69197	0.72133
749.63817	0.72384
747.58437	0.72906
745.53056	0.74156
743.47676	0.76265
741.42296	0.78784
739.36916	0.81167
737.31535	0.83277
735.26155	0.85215
733.20775	0.86938
731.15394	0.88278
729.10014	0.89177
727.04634	0.89711
724.99253	0.90026
722.93873	0.90272
720.88493	0.90398
718.83112	0.90257
716.77732	0.89908
714.72352	0.89456
712.66971	0.88667
710.61591	0.86908
708.56211	0.83465
706.50830	0.77948
704.45450	0.70432
702.40070	0.61345
700.34689	0.51423
698.29309	0.42313
696.23929	0.37471
694.18548	0.40371
692.13168	0.49856
690.07788	0.60528
688.02408	0.68526
685.97027	0.73709
683.91647	0.77174
681.86267	0.79488
679.80886	0.80921
677.75506	0.81891
675.70126	0.82683
673.64745	0.83394
671.59365	0.84052
669.53985	0.84613
667.48604	0.85041
665.43224	0.85417
663.37844	0.85852
661.32463	0.86250
659.27083	0.86421
657.21703	0.86505
655.16322	0.86784
653.10942	0.87125
651.05562	0.87212
649.00181	0.87106
646.94801	0.87134
644.89421	0.87449
642.84040	0.87796
640.78660	0.87831
638.73280	0.87594
636.67899	0.87373
634.62519	0.87303
632.57139	0.87305
630.51759	0.87193
628.46378	0.86909
626.40998	0.86603
624.35618	0.86391
622.30237	0.86288
620.24857	0.86237
618.19477	0.86151
616.14096	0.86105
614.08716	0.86310
612.03336	0.86647
609.97955	0.86730
607.92575	0.86546
605.87195	0.86427
603.81814	0.86510
601.76434	0.86516
599.71054	0.86175
597.65673	0.85738
595.60293	0.85469
593.54913	0.85216
591.49532	0.84731
589.44152	0.84122
587.38772	0.83700
585.33391	0.83521
583.28011	0.83428
581.22631	0.83154
579.17250	0.82700
577.11870	0.82295
575.06490	0.81886
573.01110	0.81327
570.95729	0.80569
568.90349	0.79646
566.84969	0.78765
564.79588	0.78023
562.74208	0.77292
560.68828	0.76450
558.63447	0.75560
556.58067	0.74771
554.52687	0.74153
552.47306	0.73650
550.41926	0.72966
548.36546	0.71948
546.31165	0.70824
544.25785	0.69640
542.20405	0.68239
540.15024	0.66750
538.09644	0.65613
536.04264	0.65228
533.98883	0.65654
531.93503	0.66689
529.88123	0.68027
527.82742	0.69329
525.77362	0.70407
523.71982	0.71182
521.66602	0.71789
519.61221	0.72508
517.55841	0.73256
515.50461	0.73673
513.45080	0.73857
511.39700	0.74078
509.34320	0.74468
507.28939	0.75076
505.23559	0.75629
503.18179	0.76023
501.12798	0.76471
499.07418	0.76967
497.02038	0.77379
494.96657	0.77735
492.91277	0.78097
490.85897	0.78155
488.80516	0.77851
486.75136	0.77537
484.69756	0.76956
482.64375	0.75820
480.58995	0.74478
478.53615	0.73184
476.48234	0.71995
474.42854	0.70852
472.37474	0.69904
470.32093	0.69657
468.26713	0.69946
466.21333	0.70262
464.15953	0.70422
462.10572	0.70688
460.05192	0.71407
457.99812	0.72279
455.94431	0.72568
453.89051	0.72456
451.83671	0.72528
449.78290	0.72730
447.72910	0.72734
445.67530	0.72632
443.62149	0.72757
441.56769	0.73411
439.51389	0.74592
437.46008	0.75714
435.40628	0.76300
433.35248	0.76478
431.29867	0.76150
429.24487	0.75529
427.19107	0.75200
425.13726	0.74799
423.08346	0.74142
421.02966	0.73672
418.97585	0.73744
416.92205	0.74292
414.86825	0.74475
412.81445	0.74511
410.76064	0.75336
408.70684	0.77246
406.65304	0.79188
404.59923	0.79997
402.54543	0.79991
400.49163	0.80237
398.43782	0.80832
