3996.70104	0.93742
3994.64724	0.93830
3992.59344	0.93833
3990.53964	0.93792
3988.48583	0.93800
3986.43203	0.93802
3984.37823	0.93822
3982.32442	0.93866
3980.27062	0.93839
3978.21682	0.93809
3976.16301	0.93850
3974.10921	0.93882
3972.05541	0.93899
3970.00160	0.93901
3967.94780	0.93842
3965.89400	0.93791
3963.84019	0.93788
3961.78639	0.93804
3959.73259	0.93834
3957.67878	0.93868
3955.62498	0.93865
3953.57118	0.93808
3951.51737	0.93735
3949.46357	0.93703
3947.40977	0.93722
3945.35596	0.93745
3943.30216	0.93760
3941.24836	0.93770
3939.19455	0.93785
3937.14075	0.93820
3935.08695	0.93879
3933.03315	0.93939
3930.97934	0.93933
3928.92554	0.93902
3926.87174	0.93933
3924.81793	0.94011
3922.76413	0.94064
3920.71033	0.94067
3918.65652	0.94031
3916.60272	0.93959
3914.54892	0.93895
3912.49511	0.93913
3910.44131	0.93988
3908.38751	0.94022
3906.33370	0.94004
3904.27990	0.93978
3902.22610	0.93978
3900.17229	0.93991
3898.11849	0.93966
3896.06469	0.93929
3894.01088	0.93900
3891.95708	0.93893
3889.90328	0.93900
3887.84947	0.93906
3885.79567	0.93946
3883.74187	0.93975
3881.68807	0.93958
3879.63426	0.93945
3877.58046	0.93942
3875.52666	0.93959
3873.47285	0.94015
3871.41905	0.94065
3869.36525	0.94053
3867.31144	0.94004
3865.25764	0.94002
3863.20384	0.94023
3861.15003	0.93971
3859.09623	0.93903
3857.04243	0.93920
3854.98862	0.94027
3852.93482	0.94096
3850.88102	0.94058
3848.82721	0.94018
3846.77341	0.93979
3844.71961	0.93943
3842.66580	0.93912
3840.61200	0.93905
3838.55820	0.93932
3836.50439	0.93974
3834.45059	0.94013
3832.39679	0.94028
3830.34298	0.94056
3828.28918	0.94127
3826.23538	0.94183
3824.18158	0.94189
3822.12777	0.94163
3820.07397	0.94101
3818.02017	0.94017
3815.96636	0.93972
3813.91256	0.93987
3811.85876	0.93987
3809.80495	0.93972
3807.75115	0.94002
3805.69735	0.94075
3803.64354	0.94121
3801.58974	0.94109
3799.53594	0.94072
3797.48213	0.94050
3795.42833	0.94063
3793.37453	0.94123
3791.32072	0.94189
3789.26692	0.94195
3787.21312	0.94177
3785.15931	0.94222
3783.10551	0.94284
3781.05171	0.94288
3778.99790	0.94215
3776.94410	0.94144
3774.89030	0.94154
3772.83650	0.94182
3770.78269	0.94165
3768.72889	0.94143
3766.67509	0.94102
3764.62128	0.94028
3762.56748	0.94030
3760.51368	0.94086
3758.45987	0.94144
3756.40607	0.94246
3754.35227	0.94341
3752.29846	0.94380
3750.24466	0.94353
3748.19086	0.94276
3746.13705	0.94273
3744.08325	0.94346
3742.02945	0.94342
3739.97564	0.94301
3737.92184	0.94267
3735.86804	0.94246
3733.81423	0.94262
3731.76043	0.94306
3729.70663	0.94362
3727.65282	0.94372
3725.59902	0.94355
3723.54522	0.94370
3721.49141	0.94377
3719.43761	0.94328
3717.38381	0.94228
3715.33001	0.94098
3713.27620	0.93972
3711.22240	0.93847
3709.16860	0.93728
3707.11479	0.93583
3705.06099	0.93370
3703.00719	0.93127
3700.95338	0.92920
3698.89958	0.92808
3696.84578	0.92753
3694.79197	0.92727
3692.73817	0.92775
3690.68437	0.92853
3688.63056	0.92920
3686.57676	0.93060
3684.52296	0.93177
3682.46915	0.93171
3680.41535	0.93118
3678.36155	0.93099
3676.30774	0.93120
3674.25394	0.93144
3672.20014	0.93117
3670.14633	0.93078
3668.09253	0.92997
3666.03873	0.92882
3663.98492	0.92790
3661.93112	0.92705
3659.87732	0.92637
3657.82352	0.92570
3655.76971	0.92469
3653.71591	0.92422
3651.66211	0.92393
3649.60830	0.92301
3647.55450	0.92188
3645.50070	0.92059
3643.44689	0.91962
3641.39309	0.91920
3639.33929	0.91860
3637.28548	0.91755
3635.23168	0.91637
3633.17788	0.91551
3631.12407	0.91518
3629.07027	0.91448
3627.01647	0.91316
3624.96266	0.91231
3622.90886	0.91182
3620.85506	0.91138
3618.80125	0.91084
3616.74745	0.91039
3614.69365	0.91049
3612.63984	0.91104
3610.58604	0.91165
3608.53224	0.91259
3606.47844	0.91389
3604.42463	0.91510
3602.37083	0.91558
3600.31703	0.91499
3598.26322	0.91430
3596.20942	0.91426
3594.15562	0.91454
3592.10181	0.91485
3590.04801	0.91499
3587.99421	0.91464
3585.94040	0.91388
3583.88660	0.91384
3581.83280	0.91440
3579.77899	0.91473
3577.72519	0.91452
3575.67139	0.91387
3573.61758	0.91352
3571.56378	0.91371
3569.50998	0.91375
3567.45617	0.91290
3565.40237	0.91213
3563.34857	0.91259
3561.29476	0.91299
3559.24096	0.91283
3557.18716	0.91245
3555.13335	0.91196
3553.07955	0.91159
3551.02575	0.91128
3548.97195	0.91079
3546.91814	0.91009
3544.86434	0.90969
3542.81054	0.90972
3540.75673	0.90950
3538.70293	0.90915
3536.64913	0.90916
3534.59532	0.90929
3532.54152	0.90918
3530.48772	0.90916
3528.43391	0.90997
3526.38011	0.91088
3524.32631	0.91079
3522.27250	0.91056
3520.21870	0.91069
3518.16490	0.91042
3516.11109	0.90981
3514.05729	0.90922
3512.00349	0.90858
3509.94968	0.90824
3507.89588	0.90870
3505.84208	0.90931
3503.78827	0.90935
3501.73447	0.90899
3499.68067	0.90851
3497.62687	0.90812
3495.57306	0.90803
3493.51926	0.90800
3491.46546	0.90807
3489.41165	0.90848
3487.35785	0.90872
3485.30405	0.90835
3483.25024	0.90768
3481.19644	0.90711
3479.14264	0.90665
3477.08883	0.90645
3475.03503	0.90688
3472.98123	0.90738
3470.92742	0.90715
3468.87362	0.90651
3466.81982	0.90596
3464.76601	0.90548
3462.71221	0.90484
3460.65841	0.90417
3458.60460	0.90377
3456.55080	0.90380
3454.49700	0.90407
3452.44319	0.90405
3450.38939	0.90371
3448.33559	0.90371
3446.28178	0.90397
3444.22798	0.90387
3442.17418	0.90321
3440.12038	0.90239
3438.06657	0.90203
3436.01277	0.90199
3433.95897	0.90179
3431.90516	0.90170
3429.85136	0.90200
3427.79756	0.90224
3425.74375	0.90207
3423.68995	0.90167
3421.63615	0.90127
3419.58234	0.90107
3417.52854	0.90117
3415.47474	0.90127
3413.42093	0.90110
3411.36713	0.90091
3409.31333	0.90068
3407.25952	0.90033
3405.20572	0.90018
3403.15192	0.90023
3401.09811	0.90029
3399.04431	0.90020
3396.99051	0.89998
3394.93670	0.90000
3392.88290	0.90013
3390.82910	0.89994
3388.77529	0.89986
3386.72149	0.90032
3384.66769	0.90055
3382.61389	0.90014
3380.56008	0.89997
3378.50628	0.90006
3376.45248	0.89995
3374.39867	0.90007
3372.34487	0.90024
3370.29107	0.89991
3368.23726	0.89967
3366.18346	0.90034
3364.12966	0.90122
3362.07585	0.90118
3360.02205	0.90057
3357.96825	0.90031
3355.91444	0.90046
3353.86064	0.90048
3351.80684	0.90016
3349.75303	0.90015
3347.69923	0.90078
3345.64543	0.90105
3343.59162	0.90041
3341.53782	0.89991
3339.48402	0.90015
3337.43021	0.90058
3335.37641	0.90082
3333.32261	0.90109
3331.26881	0.90122
3329.21500	0.90103
3327.16120	0.90112
3325.10740	0.90159
3323.05359	0.90199
3320.99979	0.90206
3318.94599	0.90177
3316.89218	0.90156
3314.83838	0.90152
3312.78458	0.90136
3310.73077	0.90142
3308.67697	0.90194
3306.62317	0.90248
3304.56936	0.90259
3302.51556	0.90211
3300.46176	0.90157
3298.40795	0.90193
3296.35415	0.90277
3294.30035	0.90328
3292.24654	0.90327
3290.19274	0.90285
3288.13894	0.90255
3286.08513	0.90262
3284.03133	0.90301
3281.97753	0.90359
3279.92372	0.90374
3277.86992	0.90343
3275.81612	0.90319
3273.76232	0.90330
3271.70851	0.90396
3269.65471	0.90474
3267.60091	0.90482
3265.54710	0.90438
3263.49330	0.90431
3261.43950	0.90470
3259.38569	0.90505
3257.33189	0.90509
3255.27809	0.90523
3253.22428	0.90563
3251.17048	0.90563
3249.11668	0.90551
3247.06287	0.90598
3245.00907	0.90650
3242.95527	0.90667
3240.90146	0.90662
3238.84766	0.90651
3236.79386	0.90678
3234.74005	0.90719
3232.68625	0.90731
3230.63245	0.90771
3228.57864	0.90853
3226.52484	0.90891
3224.47104	0.90864
3222.41724	0.90804
3220.36343	0.90781
3218.30963	0.90840
3216.25583	0.90889
3214.20202	0.90897
3212.14822	0.90961
3210.09442	0.91050
3208.04061	0.91075
3205.98681	0.91043
3203.93301	0.90997
3201.87920	0.91013
3199.82540	0.91088
3197.77160	0.91145
3195.71779	0.91174
3193.66399	0.91181
3191.61019	0.91182
3189.55638	0.91203
3187.50258	0.91232
3185.44878	0.91262
3183.39497	0.91305
3181.34117	0.91360
3179.28737	0.91380
3177.23356	0.91340
3175.17976	0.91306
3173.12596	0.91293
3171.07215	0.91293
3169.01835	0.91339
3166.96455	0.91403
3164.91075	0.91436
3162.85694	0.91454
3160.80314	0.91505
3158.74934	0.91595
3156.69553	0.91672
3154.64173	0.91709
3152.58793	0.91723
3150.53412	0.91731
3148.48032	0.91741
3146.42652	0.91760
3144.37271	0.91794
3142.31891	0.91851
3140.26511	0.91902
3138.21130	0.91921
3136.15750	0.91930
3134.10370	0.91927
3132.04989	0.91915
3129.99609	0.91939
3127.94229	0.91961
3125.88848	0.91963
3123.83468	0.91993
3121.78088	0.92012
3119.72707	0.92005
3117.67327	0.92026
3115.61947	0.92060
3113.56566	0.92054
3111.51186	0.92032
3109.45806	0.92042
3107.40426	0.92053
3105.35045	0.92030
3103.29665	0.92010
3101.24285	0.92020
3099.18904	0.92029
3097.13524	0.92041
3095.08144	0.92050
3093.02763	0.92015
3090.97383	0.91975
3088.92003	0.91957
3086.86622	0.91923
3084.81242	0.91872
3082.75862	0.91805
3080.70481	0.91754
3078.65101	0.91794
3076.59721	0.91879
3074.54340	0.91929
3072.48960	0.91947
3070.43580	0.91954
3068.38199	0.91920
3066.32819	0.91823
3064.27439	0.91711
3062.22058	0.91647
3060.16678	0.91626
3058.11298	0.91625
3056.05918	0.91678
3054.00537	0.91806
3051.95157	0.91929
3049.89777	0.92018
3047.84396	0.92091
3045.79016	0.92135
3043.73636	0.92169
3041.68255	0.92182
3039.62875	0.92147
3037.57495	0.92095
3035.52114	0.92031
3033.46734	0.91893
3031.41354	0.91650
3029.35973	0.91345
3027.30593	0.91037
3025.25213	0.90827
3023.19832	0.90868
3021.14452	0.91131
3019.09072	0.91424
3017.03691	0.91680
3014.98311	0.91912
3012.92931	0.92077
3010.87550	0.92159
3008.82170	0.92209
3006.76790	0.92261
3004.71409	0.92305
3002.66029	0.92332
3000.60649	0.92351
2998.55269	0.92391
2996.49888	0.92468
2994.44508	0.92538
2992.39128	0.92575
2990.33747	0.92598
2988.28367	0.92608
2986.22987	0.92591
2984.17606	0.92560
2982.12226	0.92530
2980.06846	0.92507
2978.01465	0.92501
2975.96085	0.92485
2973.90705	0.92413
2971.85324	0.92289
2969.79944	0.92172
2967.74564	0.92058
2965.69183	0.91877
2963.63803	0.91649
2961.58423	0.91470
2959.53042	0.91348
2957.47662	0.91247
2955.42282	0.91163
2953.36901	0.91115
2951.31521	0.91091
2949.26141	0.91044
2947.20761	0.90959
2945.15380	0.90842
2943.10000	0.90695
2941.04620	0.90494
2938.99239	0.90195
2936.93859	0.89800
2934.88479	0.89356
2932.83098	0.88909
2930.77718	0.88446
2928.72338	0.87959
2926.66957	0.87537
2924.61577	0.87278
2922.56197	0.87176
2920.50816	0.87203
2918.45436	0.87340
2916.40056	0.87554
2914.34675	0.87817
2912.29295	0.88120
2910.23915	0.88459
2908.18534	0.88796
2906.13154	0.89067
2904.07774	0.89266
2902.02393	0.89462
2899.97013	0.89695
2897.91633	0.89929
2895.86252	0.90125
2893.80872	0.90304
2891.75492	0.90504
2889.70112	0.90687
2887.64731	0.90805
2885.59351	0.90904
2883.53971	0.91029
2881.48590	0.91150
2879.43210	0.91228
2877.37830	0.91232
2875.32449	0.91190
2873.27069	0.91163
2871.21689	0.91152
2869.16308	0.91136
2867.10928	0.91123
2865.05548	0.91112
2863.00167	0.91047
2860.94787	0.90875
2858.89407	0.90617
2856.84026	0.90351
2854.78646	0.90145
2852.73266	0.90027
2850.67885	0.90016
2848.62505	0.90158
2846.57125	0.90440
2844.51744	0.90743
2842.46364	0.91042
2840.40984	0.91371
2838.35603	0.91673
2836.30223	0.91874
2834.24843	0.91990
2832.19463	0.92105
2830.14082	0.92266
2828.08702	0.92424
2826.03322	0.92529
2823.97941	0.92589
2821.92561	0.92620
2819.87181	0.92652
2817.81800	0.92703
2815.76420	0.92736
2813.71040	0.92734
2811.65659	0.92730
2809.60279	0.92759
2807.54899	0.92815
2805.49518	0.92878
2803.44138	0.92942
2801.38758	0.92980
2799.33377	0.92972
2797.27997	0.92970
2795.22617	0.93006
2793.17236	0.93050
2791.11856	0.93082
2789.06476	0.93110
2787.01095	0.93125
2784.95715	0.93120
2782.90335	0.93131
2780.84955	0.93155
2778.79574	0.93147
2776.74194	0.93120
2774.68814	0.93128
2772.63433	0.93179
2770.58053	0.93224
2768.52673	0.93232
2766.47292	0.93220
2764.41912	0.93221
2762.36532	0.93255
2760.31151	0.93294
2758.25771	0.93302
2756.20391	0.93286
2754.15010	0.93281
2752.09630	0.93301
2750.04250	0.93327
2747.98869	0.93344
2745.93489	0.93345
2743.88109	0.93348
2741.82728	0.93365
2739.77348	0.93395
2737.71968	0.93421
2735.66587	0.93424
2733.61207	0.93411
2731.55827	0.93400
2729.50446	0.93379
2727.45066	0.93355
2725.39686	0.93367
2723.34306	0.93403
2721.28925	0.93417
2719.23545	0.93413
2717.18165	0.93423
2715.12784	0.93442
2713.07404	0.93454
2711.02024	0.93456
2708.96643	0.93454
2706.91263	0.93467
2704.85883	0.93480
2702.80502	0.93466
2700.75122	0.93450
2698.69742	0.93463
2696.64361	0.93490
2694.58981	0.93511
2692.53601	0.93531
2690.48220	0.93551
2688.42840	0.93535
2686.37460	0.93491
2684.32079	0.93490
2682.26699	0.93527
2680.21319	0.93541
2678.15938	0.93547
2676.10558	0.93581
2674.05178	0.93620
2671.99797	0.93636
2669.94417	0.93620
2667.89037	0.93586
2665.83657	0.93561
2663.78276	0.93542
2661.72896	0.93533
2659.67516	0.93529
2657.62135	0.93522
2655.56755	0.93532
2653.51375	0.93573
2651.45994	0.93613
2649.40614	0.93621
2647.35234	0.93611
2645.29853	0.93600
2643.24473	0.93594
2641.19093	0.93597
2639.13712	0.93612
2637.08332	0.93652
2635.02952	0.93699
2632.97571	0.93702
2630.92191	0.93656
2628.86811	0.93641
2626.81430	0.93681
2624.76050	0.93712
2622.70670	0.93724
2620.65289	0.93751
2618.59909	0.93797
2616.54529	0.93819
2614.49149	0.93800
2612.43768	0.93765
2610.38388	0.93746
2608.33008	0.93763
2606.27627	0.93800
2604.22247	0.93836
2602.16867	0.93862
2600.11486	0.93852
2598.06106	0.93826
2596.00726	0.93828
2593.95345	0.93839
2591.89965	0.93826
2589.84585	0.93802
2587.79204	0.93817
2585.73824	0.93866
2583.68444	0.93887
2581.63063	0.93883
2579.57683	0.93874
2577.52303	0.93875
2575.46922	0.93910
2573.41542	0.93947
2571.36162	0.93959
2569.30781	0.93955
2567.25401	0.93933
2565.20021	0.93914
2563.14640	0.93909
2561.09260	0.93907
2559.03880	0.93907
2556.98500	0.93943
2554.93119	0.94044
2552.87739	0.94122
2550.82359	0.94118
2548.76978	0.94081
2546.71598	0.94023
2544.66218	0.93977
2542.60837	0.94020
2540.55457	0.94092
2538.50077	0.94100
2536.44696	0.94097
2534.39316	0.94129
2532.33936	0.94131
2530.28555	0.94069
2528.23175	0.94040
2526.17795	0.94063
2524.12414	0.94060
2522.07034	0.94060
2520.01654	0.94099
2517.96273	0.94152
2515.90893	0.94167
2513.85513	0.94122
2511.80132	0.94092
2509.74752	0.94113
2507.69372	0.94143
2505.63992	0.94177
2503.58611	0.94210
2501.53231	0.94211
2499.47851	0.94151
2497.42470	0.94054
2495.37090	0.94011
2493.31710	0.94051
2491.26329	0.94141
2489.20949	0.94217
2487.15569	0.94214
2485.10188	0.94191
2483.04808	0.94216
2480.99428	0.94214
2478.94047	0.94135
2476.88667	0.94088
2474.83287	0.94137
2472.77906	0.94195
2470.72526	0.94211
2468.67146	0.94234
2466.61765	0.94274
2464.56385	0.94278
2462.51005	0.94230
2460.45624	0.94201
2458.40244	0.94202
2456.34864	0.94162
2454.29483	0.94092
2452.24103	0.94085
2450.18723	0.94172
2448.13343	0.94256
2446.07962	0.94262
2444.02582	0.94209
2441.97202	0.94172
2439.91821	0.94185
2437.86441	0.94188
2435.81061	0.94195
2433.75680	0.94239
2431.70300	0.94296
2429.64920	0.94369
2427.59539	0.94413
2425.54159	0.94412
2423.48779	0.94401
2421.43398	0.94350
2419.38018	0.94277
2417.32638	0.94273
2415.27257	0.94324
2413.21877	0.94346
2411.16497	0.94342
2409.11116	0.94344
2407.05736	0.94326
2405.00356	0.94299
2402.94975	0.94298
2400.89595	0.94324
2398.84215	0.94362
2396.78834	0.94359
2394.73454	0.94302
2392.68074	0.94254
2390.62694	0.94247
2388.57313	0.94249
2386.51933	0.94242
2384.46553	0.94237
2382.41172	0.94236
2380.35792	0.94259
2378.30412	0.94291
2376.25031	0.94319
2374.19651	0.94379
2372.14271	0.94408
2370.08890	0.94382
2368.03510	0.94396
2365.98130	0.94444
2363.92749	0.94487
2361.87369	0.94468
2359.81989	0.94365
2357.76608	0.94285
2355.71228	0.94293
2353.65848	0.94347
2351.60467	0.94349
2349.55087	0.94283
2347.49707	0.94208
2345.44326	0.94160
2343.38946	0.94212
2341.33566	0.94357
2339.28186	0.94385
2337.22805	0.94260
2335.17425	0.94169
2333.12045	0.94161
2331.06664	0.94182
2329.01284	0.94235
2326.95904	0.94314
2324.90523	0.94343
2322.85143	0.94328
2320.79763	0.94329
2318.74382	0.94316
2316.69002	0.94264
2314.63622	0.94178
2312.58241	0.94113
2310.52861	0.94138
2308.47481	0.94211
2306.42100	0.94293
2304.36720	0.94389
2302.31340	0.94457
2300.25959	0.94461
2298.20579	0.94395
2296.15199	0.94334
2294.09818	0.94346
2292.04438	0.94343
2289.99058	0.94256
2287.93677	0.94171
2285.88297	0.94202
2283.82917	0.94335
2281.77537	0.94445
2279.72156	0.94469
2277.66776	0.94447
2275.61396	0.94430
2273.56015	0.94425
2271.50635	0.94412
2269.45255	0.94426
2267.39874	0.94475
2265.34494	0.94520
2263.29114	0.94585
2261.23733	0.94629
2259.18353	0.94605
2257.12973	0.94529
2255.07592	0.94450
2253.02212	0.94402
2250.96832	0.94371
2248.91451	0.94396
2246.86071	0.94431
2244.80691	0.94412
2242.75310	0.94449
2240.69930	0.94609
2238.64550	0.94763
2236.59169	0.94699
2234.53789	0.94526
2232.48409	0.94555
2230.43029	0.94645
2228.37648	0.94579
2226.32268	0.94476
2224.26888	0.94361
2222.21507	0.94272
2220.16127	0.94374
2218.10747	0.94682
2216.05366	0.94996
2213.99986	0.95176
2211.94606	0.95237
2209.89225	0.95140
2207.83845	0.94904
2205.78465	0.94754
2203.73084	0.94801
2201.67704	0.94932
2199.62324	0.95000
2197.56943	0.94963
2195.51563	0.94998
2193.46183	0.95100
2191.40802	0.95174
2189.35422	0.95250
2187.30042	0.95077
2185.24661	0.94735
2183.19281	0.94720
2181.13901	0.94920
2179.08520	0.95020
2177.03140	0.95136
2174.97760	0.95324
2172.92380	0.95432
2170.86999	0.95342
2168.81619	0.95187
2166.76239	0.94999
2164.70858	0.94711
2162.65478	0.94732
2160.60098	0.95110
2158.54717	0.95278
2156.49337	0.95235
2154.43957	0.95263
2152.38576	0.95295
2150.33196	0.95312
2148.27816	0.95357
2146.22435	0.95289
2144.17055	0.95127
2142.11675	0.95031
2140.06294	0.94957
2138.00914	0.94991
2135.95534	0.95279
2133.90153	0.95479
2131.84773	0.95306
2129.79393	0.95080
2127.74012	0.95091
2125.68632	0.95166
2123.63252	0.95139
2121.57871	0.95105
2119.52491	0.95027
2117.47111	0.94862
2115.41731	0.94784
2113.36350	0.94755
2111.30970	0.94647
2109.25590	0.94609
2107.20209	0.94744
2105.14829	0.94877
2103.09449	0.94882
2101.04068	0.94861
2098.98688	0.94963
2096.93308	0.95159
2094.87927	0.95255
2092.82547	0.95194
2090.77167	0.95090
2088.71786	0.94990
2086.66406	0.94894
2084.61026	0.94849
2082.55645	0.94832
2080.50265	0.94833
2078.44885	0.94933
2076.39504	0.95035
2074.34124	0.94927
2072.28744	0.94730
2070.23363	0.94741
2068.17983	0.94867
2066.12603	0.94943
2064.07223	0.95012
2062.01842	0.95022
2059.96462	0.95019
2057.91082	0.95078
2055.85701	0.95095
2053.80321	0.95102
2051.74941	0.95179
2049.69560	0.95276
2047.64180	0.95361
2045.58800	0.95309
2043.53419	0.95107
2041.48039	0.95075
2039.42659	0.95110
2037.37278	0.94878
2035.31898	0.94803
2033.26518	0.95139
2031.21137	0.95440
2029.15757	0.95480
2027.10377	0.95270
2025.04996	0.95182
2022.99616	0.95371
2020.94236	0.95293
2018.88855	0.94915
2016.83475	0.94839
2014.78095	0.95177
2012.72714	0.95483
2010.67334	0.95581
2008.61954	0.95649
2006.56574	0.95748
2004.51193	0.95671
2002.45813	0.95367
2000.40433	0.95159
1998.35052	0.95148
1996.29672	0.95125
1994.24292	0.95029
1992.18911	0.95026
1990.13531	0.95152
1988.08151	0.95201
1986.02770	0.95169
1983.97390	0.95151
1981.92010	0.95080
1979.86629	0.95026
1977.81249	0.95058
1975.75869	0.95101
1973.70488	0.95301
1971.65108	0.95556
1969.59728	0.95522
1967.54347	0.95334
1965.48967	0.95186
1963.43587	0.95019
1961.38206	0.94953
1959.32826	0.95031
1957.27446	0.95065
1955.22066	0.95030
1953.16685	0.94989
1951.11305	0.95033
1949.05925	0.95198
1947.00544	0.95196
1944.95164	0.94945
1942.89784	0.94818
1940.84403	0.94969
1938.79023	0.95148
1936.73643	0.95182
1934.68262	0.95102
1932.62882	0.95014
1930.57502	0.95025
1928.52121	0.95118
1926.46741	0.95212
1924.41361	0.95289
1922.35980	0.95246
1920.30600	0.95086
1918.25220	0.94985
1916.19839	0.95022
1914.14459	0.95140
1912.09079	0.95245
1910.03698	0.95272
1907.98318	0.95211
1905.92938	0.95117
1903.87557	0.95083
1901.82177	0.95133
1899.76797	0.95153
1897.71417	0.95110
1895.66036	0.95082
1893.60656	0.95076
1891.55276	0.95064
1889.49895	0.95026
1887.44515	0.94987
1885.39135	0.94991
1883.33754	0.95032
1881.28374	0.95056
1879.22994	0.95011
1877.17613	0.94916
1875.12233	0.94846
1873.06853	0.94842
1871.01472	0.94874
1868.96092	0.94882
1866.90712	0.94893
1864.85331	0.94928
1862.79951	0.94965
1860.74571	0.94988
1858.69190	0.94955
1856.63810	0.94927
1854.58430	0.94970
1852.53049	0.95024
1850.47669	0.95073
1848.42289	0.95115
1846.36908	0.95120
1844.31528	0.95135
1842.26148	0.95166
1840.20768	0.95163
1838.15387	0.95145
1836.10007	0.95124
1834.04627	0.95145
1831.99246	0.95222
1829.93866	0.95279
1827.88486	0.95260
1825.83105	0.95205
1823.77725	0.95167
1821.72345	0.95156
1819.66964	0.95128
1817.61584	0.95073
1815.56204	0.95014
1813.50823	0.94952
1811.45443	0.94910
1809.40063	0.94895
1807.34682	0.94882
1805.29302	0.94900
1803.23922	0.94947
1801.18541	0.94957
1799.13161	0.94938
1797.07781	0.94934
1795.02400	0.94942
1792.97020	0.94944
1790.91640	0.94945
1788.86260	0.94972
1786.80879	0.95008
1784.75499	0.95018
1782.70119	0.94999
1780.64738	0.94999
1778.59358	0.95032
1776.53978	0.95046
1774.48597	0.95022
1772.43217	0.95016
1770.37837	0.95035
1768.32456	0.95016
1766.27076	0.94985
1764.21696	0.94983
1762.16315	0.94974
1760.10935	0.94919
1758.05555	0.94837
1756.00174	0.94726
1753.94794	0.94630
1751.89414	0.94559
1749.84033	0.94444
1747.78653	0.94266
1745.73273	0.94126
1743.67892	0.94062
1741.62512	0.94002
1739.57132	0.93943
1737.51751	0.93975
1735.46371	0.94090
1733.40991	0.94173
1731.35611	0.94137
1729.30230	0.94064
1727.24850	0.94003
1725.19470	0.93972
1723.14089	0.93979
1721.08709	0.94001
1719.03329	0.94044
1716.97948	0.94127
1714.92568	0.94147
1712.87188	0.94105
1710.81807	0.94067
1708.76427	0.94054
1706.71047	0.94045
1704.65666	0.94008
1702.60286	0.93971
1700.54906	0.93893
1698.49525	0.93750
1696.44145	0.93640
1694.38765	0.93541
1692.33384	0.93460
1690.28004	0.93363
1688.22624	0.93230
1686.17243	0.93107
1684.11863	0.92970
1682.06483	0.92830
1680.01103	0.92690
1677.95722	0.92537
1675.90342	0.92368
1673.84962	0.92190
1671.79581	0.92043
1669.74201	0.91875
1667.68821	0.91696
1665.63440	0.91575
1663.58060	0.91459
1661.52680	0.91314
1659.47299	0.91194
1657.41919	0.91119
1655.36539	0.91083
1653.31158	0.91039
1651.25778	0.90968
1649.20398	0.90967
1647.15017	0.90995
1645.09637	0.90982
1643.04257	0.90968
1640.98876	0.90972
1638.93496	0.90993
1636.88116	0.91031
1634.82735	0.91042
1632.77355	0.91039
1630.71975	0.91069
1628.66594	0.91137
1626.61214	0.91221
1624.55834	0.91287
1622.50454	0.91363
1620.45073	0.91450
1618.39693	0.91531
1616.34313	0.91627
1614.28932	0.91700
1612.23552	0.91727
1610.18172	0.91706
1608.12791	0.91561
1606.07411	0.91246
1604.02031	0.90848
1601.96650	0.90525
1599.91270	0.90472
1597.85890	0.90737
1595.80509	0.91149
1593.75129	0.91496
1591.69749	0.91725
1589.64368	0.91874
1587.58988	0.91922
1585.53608	0.91857
1583.48227	0.91772
1581.42847	0.91801
1579.37467	0.91964
1577.32086	0.92177
1575.26706	0.92318
1573.21326	0.92372
1571.15945	0.92414
1569.10565	0.92431
1567.05185	0.92403
1564.99805	0.92381
1562.94424	0.92396
1560.89044	0.92427
1558.83664	0.92416
1556.78283	0.92378
1554.72903	0.92338
1552.67523	0.92267
1550.62142	0.92193
1548.56762	0.92130
1546.51382	0.92096
1544.46001	0.92091
1542.40621	0.92109
1540.35241	0.92107
1538.29860	0.92045
1536.24480	0.92029
1534.19100	0.92094
1532.13719	0.92183
1530.08339	0.92221
1528.02959	0.92239
1525.97578	0.92249
1523.92198	0.92263
1521.86818	0.92277
1519.81437	0.92264
1517.76057	0.92227
1515.70677	0.92173
1513.65297	0.92151
1511.59916	0.92182
1509.54536	0.92210
1507.49156	0.92162
1505.43775	0.92052
1503.38395	0.91962
1501.33015	0.91824
1499.27634	0.91428
1497.22254	0.90207
1495.16874	0.88239
1493.11493	0.86919
1491.06113	0.86938
1489.00733	0.88133
1486.95352	0.89254
1484.89972	0.89801
1482.84592	0.90082
1480.79211	0.90247
1478.73831	0.90326
1476.68451	0.90317
1474.63070	0.90218
1472.57690	0.90045
1470.52310	0.89867
1468.46929	0.89738
1466.41549	0.89639
1464.36169	0.89557
1462.30788	0.89505
1460.25408	0.89410
1458.20028	0.88841
1456.14648	0.87196
1454.09267	0.85641
1452.03887	0.84912
1449.98507	0.85026
1447.93126	0.85748
1445.87746	0.86497
1443.82366	0.87036
1441.76985	0.87483
1439.71605	0.87885
1437.66225	0.88303
1435.60844	0.88724
1433.55464	0.88993
1431.50084	0.89164
1429.44703	0.89340
1427.39323	0.89517
1425.33943	0.89650
1423.28562	0.89748
1421.23182	0.89852
1419.17802	0.89987
1417.12421	0.90133
1415.07041	0.90269
1413.01661	0.90426
1410.96280	0.90620
1408.90900	0.90836
1406.85520	0.91036
1404.80139	0.91226
1402.74759	0.91394
1400.69379	0.91527
1398.63999	0.91675
1396.58618	0.91838
1394.53238	0.91957
1392.47858	0.92038
1390.42477	0.92088
1388.37097	0.92075
1386.31717	0.92000
1384.26336	0.91932
1382.20956	0.91871
1380.15576	0.91781
1378.10195	0.91689
1376.04815	0.91662
1373.99435	0.91727
1371.94054	0.91829
1369.88674	0.91924
1367.83294	0.92003
1365.77913	0.92073
1363.72533	0.92168
1361.67153	0.92300
1359.61772	0.92441
1357.56392	0.92555
1355.51012	0.92636
1353.45631	0.92692
1351.40251	0.92735
1349.34871	0.92782
1347.29491	0.92819
1345.24110	0.92831
1343.18730	0.92864
1341.13350	0.92932
1339.07969	0.92995
1337.02589	0.93013
1334.97209	0.93005
1332.91828	0.93021
1330.86448	0.93044
1328.81068	0.93030
1326.75687	0.92991
1324.70307	0.92983
1322.64927	0.93023
1320.59546	0.93057
1318.54166	0.93035
1316.48786	0.92989
1314.43405	0.92973
1312.38025	0.92967
1310.32645	0.92966
1308.27264	0.93000
1306.21884	0.93063
1304.16504	0.93106
1302.11123	0.93119
1300.05743	0.93130
1298.00363	0.93147
1295.94982	0.93142
1293.89602	0.93111
1291.84222	0.93097
1289.78842	0.93103
1287.73461	0.93100
1285.68081	0.93077
1283.62701	0.93039
1281.57320	0.92987
1279.51940	0.92933
1277.46560	0.92874
1275.41179	0.92813
1273.35799	0.92772
1271.30419	0.92754
1269.25038	0.92766
1267.19658	0.92775
1265.14278	0.92737
1263.08897	0.92690
1261.03517	0.92674
1258.98137	0.92668
1256.92756	0.92660
1254.87376	0.92630
1252.81996	0.92569
1250.76615	0.92505
1248.71235	0.92456
1246.65855	0.92413
1244.60474	0.92373
1242.55094	0.92336
1240.49714	0.92304
1238.44334	0.92272
1236.38953	0.92223
1234.33573	0.92160
1232.28193	0.92098
1230.22812	0.92029
1228.17432	0.91965
1226.12052	0.91908
1224.06671	0.91811
1222.01291	0.91669
1219.95911	0.91516
1217.90530	0.91372
1215.85150	0.91220
1213.79770	0.91023
1211.74389	0.90815
1209.69009	0.90608
1207.63629	0.90347
1205.58248	0.90056
1203.52868	0.89772
1201.47488	0.89468
1199.42107	0.89156
1197.36727	0.88856
1195.31347	0.88536
1193.25966	0.88190
1191.20586	0.87846
1189.15206	0.87484
1187.09825	0.87061
1185.04445	0.86595
1182.99065	0.86146
1180.93685	0.85744
1178.88304	0.85393
1176.82924	0.85085
1174.77544	0.84796
1172.72163	0.84492
1170.66783	0.84143
1168.61403	0.83765
1166.56022	0.83394
1164.50642	0.83050
1162.45262	0.82766
1160.39881	0.82574
1158.34501	0.82391
1156.29121	0.82118
1154.23740	0.81815
1152.18360	0.81588
1150.12980	0.81459
1148.07599	0.81367
1146.02219	0.81233
1143.96839	0.81035
1141.91458	0.80799
1139.86078	0.80561
1137.80698	0.80339
1135.75317	0.80100
1133.69937	0.79804
1131.64557	0.79467
1129.59176	0.79093
1127.53796	0.78657
1125.48416	0.78180
1123.43036	0.77663
1121.37655	0.77083
1119.32275	0.76450
1117.26895	0.75763
1115.21514	0.75038
1113.16134	0.74322
1111.10754	0.73648
1109.05373	0.73031
1106.99993	0.72465
1104.94613	0.71931
1102.89232	0.71430
1100.83852	0.70990
1098.78472	0.70602
1096.73091	0.70207
1094.67711	0.69780
1092.62331	0.69383
1090.56950	0.69056
1088.51570	0.68767
1086.46190	0.68502
1084.40809	0.68229
1082.35429	0.67919
1080.30049	0.67599
1078.24668	0.67252
1076.19288	0.66853
1074.13908	0.66457
1072.08528	0.66058
1070.03147	0.65602
1067.97767	0.65118
1065.92387	0.64632
1063.87006	0.64138
1061.81626	0.63647
1059.76246	0.63171
1057.70865	0.62685
1055.65485	0.62110
1053.60105	0.61417
1051.54724	0.60670
1049.49344	0.59863
1047.43964	0.58923
1045.38583	0.57859
1043.33203	0.56756
1041.27823	0.55639
1039.22442	0.54468
1037.17062	0.53257
1035.11682	0.52053
1033.06301	0.50868
1031.00921	0.49728
1028.95541	0.48748
1026.90160	0.48046
1024.84780	0.47575
1022.79400	0.47220
1020.74019	0.46935
1018.68639	0.46638
1016.63259	0.46284
1014.57879	0.45915
1012.52498	0.45519
1010.47118	0.45105
1008.41738	0.44697
1006.36357	0.44291
1004.30977	0.43958
1002.25597	0.43789
1000.20216	0.43799
998.14836	0.43938
996.09456	0.44134
994.04075	0.44383
991.98695	0.44700
989.93315	0.45077
987.87934	0.45504
985.82554	0.45975
983.77174	0.46526
981.71793	0.47207
979.66413	0.48033
977.61033	0.48981
975.55652	0.50043
973.50272	0.51248
971.44892	0.52548
969.39511	0.53837
967.34131	0.55049
965.28751	0.56193
963.23371	0.57311
961.17990	0.58449
959.12610	0.59591
957.07230	0.60646
955.01849	0.61571
952.96469	0.62416
950.91089	0.63168
948.85708	0.63785
946.80328	0.64317
944.74948	0.64828
942.69567	0.65322
940.64187	0.65779
938.58807	0.66245
936.53426	0.66785
934.48046	0.67356
932.42666	0.67887
930.37285	0.68374
928.31905	0.68824
926.26525	0.69208
924.21144	0.69495
922.15764	0.69641
920.10384	0.69670
918.05003	0.69630
915.99623	0.69473
913.94243	0.69228
911.88862	0.69075
909.83482	0.69142
907.78102	0.69493
905.72722	0.70159
903.67341	0.71101
901.61961	0.72229
899.56581	0.73424
897.51200	0.74567
895.45820	0.75560
893.40440	0.76370
891.35059	0.77052
889.29679	0.77640
887.24299	0.78123
885.18918	0.78479
883.13538	0.78709
881.08158	0.78817
879.02777	0.78785
876.97397	0.78744
874.92017	0.78946
872.86636	0.79496
870.81256	0.80280
868.75876	0.81046
866.70495	0.81577
864.65115	0.81881
862.59735	0.82143
860.54354	0.82464
858.48974	0.82834
856.43594	0.83252
854.38213	0.83673
852.32833	0.84028
850.27453	0.84285
848.22073	0.84402
846.16692	0.84350
844.11312	0.84184
842.05932	0.84028
840.00551	0.83931
837.95171	0.83869
835.89791	0.83792
833.84410	0.83631
831.79030	0.83463
829.73650	0.83403
827.68269	0.83409
825.62889	0.83428
823.57509	0.83482
821.52128	0.83646
819.46748	0.83874
817.41368	0.84043
815.35987	0.84119
813.30607	0.84055
811.25227	0.83806
809.19846	0.83389
807.14466	0.82808
805.09086	0.82095
803.03705	0.81336
800.98325	0.80709
798.92945	0.80409
796.87565	0.80439
794.82184	0.80622
792.76804	0.80781
790.71424	0.80836
788.66043	0.80848
786.60663	0.80860
784.55283	0.80733
782.49902	0.80370
780.44522	0.79894
778.39142	0.79495
776.33761	0.79244
774.28381	0.79015
772.23001	0.78610
770.17620	0.77901
768.12240	0.76947
766.06860	0.75883
764.01479	0.74733
761.96099	0.73550
759.90719	0.72455
757.85338	0.71556
755.79958	0.70989
753.74578	0.70807
751.69197	0.70872
749.63817	0.71018
747.58437	0.71222
745.53056	0.71715
743.47676	0.72750
741.42296	0.74170
739.36916	0.75609
737.31535	0.76903
735.26155	0.78067
733.20775	0.79015
731.15394	0.79665
729.10014	0.80109
727.04634	0.80415
724.99253	0.80588
722.93873	0.80777
720.88493	0.81138
718.83112	0.81558
716.77732	0.81766
714.72352	0.81656
712.66971	0.81264
710.61591	0.80483
708.56211	0.78899
706.50830	0.76049
704.45450	0.71777
702.40070	0.66262
700.34689	0.59887
698.29309	0.53488
696.23929	0.49126
694.18548	0.49303
692.13168	0.53990
690.07788	0.60194
688.02408	0.65121
685.97027	0.68176
683.91647	0.70022
681.86267	0.71278
679.80886	0.72276
677.75506	0.73069
675.70126	0.73595
673.64745	0.73899
671.59365	0.74090
669.53985	0.74306
667.48604	0.74676
665.43224	0.74985
663.37844	0.75095
661.32463	0.75129
659.27083	0.75187
657.21703	0.75155
655.16322	0.74978
653.10942	0.74751
651.05562	0.74552
649.00181	0.74492
646.94801	0.74588
644.89421	0.74784
642.84040	0.75032
640.78660	0.75218
638.73280	0.75337
636.67899	0.75502
634.62519	0.75670
632.57139	0.75740
630.51759	0.75737
628.46378	0.75708
626.40998	0.75655
624.35618	0.75551
622.30237	0.75349
620.24857	0.75070
618.19477	0.74811
616.14096	0.74622
614.08716	0.74408
612.03336	0.74149
609.97955	0.73977
607.92575	0.73778
605.87195	0.73440
603.81814	0.73179
601.76434	0.73009
599.71054	0.72669
597.65673	0.72175
595.60293	0.71759
593.54913	0.71423
591.49532	0.71085
589.44152	0.70783
587.38772	0.70485
585.33391	0.70145
583.28011	0.69799
581.22631	0.69482
579.17250	0.69193
577.11870	0.68863
575.06490	0.68401
573.01110	0.67858
570.95729	0.67322
568.90349	0.66692
566.84969	0.65894
564.79588	0.65083
562.74208	0.64339
560.68828	0.63566
558.63447	0.62688
556.58067	0.61698
554.52687	0.60714
552.47306	0.59817
550.41926	0.58861
548.36546	0.57756
546.31165	0.56517
544.25785	0.55171
542.20405	0.53743
540.15024	0.52264
538.09644	0.50956
536.04264	0.50020
533.98883	0.49482
531.93503	0.49414
529.88123	0.49778
527.82742	0.50228
525.77362	0.50654
523.71982	0.51255
521.66602	0.51987
519.61221	0.52751
517.55841	0.53464
515.50461	0.54088
513.45080	0.54728
511.39700	0.55443
509.34320	0.56232
507.28939	0.56967
505.23559	0.57455
503.18179	0.57637
501.12798	0.57650
499.07418	0.57574
497.02038	0.57394
494.96657	0.57246
492.91277	0.57025
490.85897	0.56463
488.80516	0.55478
486.75136	0.54212
484.69756	0.52813
482.64375	0.51181
480.58995	0.49397
478.53615	0.47564
476.48234	0.45713
474.42854	0.43978
472.37474	0.42422
470.32093	0.41233
468.26713	0.40413
466.21333	0.40007
464.15953	0.40283
462.10572	0.41050
460.05192	0.41828
457.99812	0.42510
455.94431	0.43130
453.89051	0.43780
451.83671	0.44622
449.78290	0.45413
447.72910	0.46025
445.67530	0.46627
443.62149	0.47044
441.56769	0.47146
439.51389	0.47210
437.46008	0.47275
435.40628	0.47025
433.35248	0.46449
431.29867	0.45867
429.24487	0.45516
427.19107	0.45482
425.13726	0.45769
423.08346	0.46330
421.02966	0.46849
418.97585	0.47302
416.92205	0.48032
414.86825	0.48695
412.81445	0.49190
410.76064	0.49858
408.70684	0.50626
406.65304	0.51343
404.59923	0.52148
402.54543	0.52430
400.49163	0.52082
398.43782	0.51824
