3996.70104	0.99395
3994.64724	0.99443
3992.59344	0.99472
3990.53964	0.99469
3988.48583	0.99440
3986.43203	0.99379
3984.37823	0.99313
3982.32442	0.99307
3980.27062	0.99347
3978.21682	0.99389
3976.16301	0.99446
3974.10921	0.99477
3972.05541	0.99435
3970.00160	0.99376
3967.94780	0.99348
3965.89400	0.99328
3963.84019	0.99319
3961.78639	0.99360
3959.73259	0.99421
3957.67878	0.99434
3955.62498	0.99419
3953.57118	0.99419
3951.51737	0.99404
3949.46357	0.99371
3947.40977	0.99379
3945.35596	0.99397
3943.30216	0.99398
3941.24836	0.99446
3939.19455	0.99521
3937.14075	0.99547
3935.08695	0.99517
3933.03315	0.99481
3930.97934	0.99456
3928.92554	0.99402
3926.87174	0.99359
3924.81793	0.99371
3922.76413	0.99366
3920.71033	0.99341
3918.65652	0.99352
3916.60272	0.99352
3914.54892	0.99338
3912.49511	0.99344
3910.44131	0.99351
3908.38751	0.99347
3906.33370	0.99343
3904.27990	0.99352
3902.22610	0.99356
3900.17229	0.99375
3898.11849	0.99425
3896.06469	0.99425
3894.01088	0.99365
3891.95708	0.99346
3889.90328	0.99379
3887.84947	0.99378
3885.79567	0.99392
3883.74187	0.99416
3881.68807	0.99365
3879.63426	0.99343
3877.58046	0.99369
3875.52666	0.99359
3873.47285	0.99382
3871.41905	0.99442
3869.36525	0.99429
3867.31144	0.99403
3865.25764	0.99407
3863.20384	0.99397
3861.15003	0.99402
3859.09623	0.99388
3857.04243	0.99318
3854.98862	0.99265
3852.93482	0.99288
3850.88102	0.99319
3848.82721	0.99329
3846.77341	0.99331
3844.71961	0.99354
3842.66580	0.99396
3840.61200	0.99397
3838.55820	0.99401
3836.50439	0.99418
3834.45059	0.99420
3832.39679	0.99468
3830.34298	0.99502
3828.28918	0.99484
3826.23538	0.99461
3824.18158	0.99441
3822.12777	0.99440
3820.07397	0.99447
3818.02017	0.99393
3815.96636	0.99341
3813.91256	0.99371
3811.85876	0.99409
3809.80495	0.99393
3807.75115	0.99354
3805.69735	0.99373
3803.64354	0.99437
3801.58974	0.99513
3799.53594	0.99560
3797.48213	0.99541
3795.42833	0.99482
3793.37453	0.99427
3791.32072	0.99379
3789.26692	0.99359
3787.21312	0.99402
3785.15931	0.99408
3783.10551	0.99349
3781.05171	0.99361
3778.99790	0.99427
3776.94410	0.99429
3774.89030	0.99385
3772.83650	0.99363
3770.78269	0.99392
3768.72889	0.99411
3766.67509	0.99382
3764.62128	0.99353
3762.56748	0.99352
3760.51368	0.99353
3758.45987	0.99326
3756.40607	0.99323
3754.35227	0.99377
3752.29846	0.99445
3750.24466	0.99447
3748.19086	0.99422
3746.13705	0.99427
3744.08325	0.99420
3742.02945	0.99376
3739.97564	0.99290
3737.92184	0.99213
3735.86804	0.99177
3733.81423	0.99165
3731.76043	0.99194
3729.70663	0.99213
3727.65282	0.99156
3725.59902	0.99044
3723.54522	0.98942
3721.49141	0.98861
3719.43761	0.98763
3717.38381	0.98619
3715.33001	0.98445
3713.27620	0.98255
3711.22240	0.97929
3709.16860	0.97436
3707.11479	0.96944
3705.06099	0.96498
3703.00719	0.96039
3700.95338	0.95575
3698.89958	0.95294
3696.84578	0.95231
3694.79197	0.95305
3692.73817	0.95490
3690.68437	0.95764
3688.63056	0.96089
3686.57676	0.96374
3684.52296	0.96595
3682.46915	0.96745
3680.41535	0.96788
3678.36155	0.96763
3676.30774	0.96734
3674.25394	0.96740
3672.20014	0.96771
3670.14633	0.96740
3668.09253	0.96586
3666.03873	0.96406
3663.98492	0.96285
3661.93112	0.96202
3659.87732	0.96091
3657.82352	0.95999
3655.76971	0.95972
3653.71591	0.95944
3651.66211	0.95875
3649.60830	0.95771
3647.55450	0.95671
3645.50070	0.95646
3643.44689	0.95698
3641.39309	0.95718
3639.33929	0.95646
3637.28548	0.95551
3635.23168	0.95434
3633.17788	0.95264
3631.12407	0.95120
3629.07027	0.94970
3627.01647	0.94727
3624.96266	0.94518
3622.90886	0.94423
3620.85506	0.94456
3618.80125	0.94533
3616.74745	0.94593
3614.69365	0.94667
3612.63984	0.94781
3610.58604	0.94935
3608.53224	0.95052
3606.47844	0.95064
3604.42463	0.95038
3602.37083	0.95011
3600.31703	0.94985
3598.26322	0.95037
3596.20942	0.95153
3594.15562	0.95179
3592.10181	0.95115
3590.04801	0.95068
3587.99421	0.95006
3585.94040	0.94968
3583.88660	0.95011
3581.83280	0.95009
3579.77899	0.94927
3577.72519	0.94874
3575.67139	0.94872
3573.61758	0.94875
3571.56378	0.94904
3569.50998	0.94959
3567.45617	0.94949
3565.40237	0.94815
3563.34857	0.94696
3561.29476	0.94654
3559.24096	0.94649
3557.18716	0.94605
3555.13335	0.94514
3553.07955	0.94462
3551.02575	0.94433
3548.97195	0.94368
3546.91814	0.94279
3544.86434	0.94206
3542.81054	0.94210
3540.75673	0.94282
3538.70293	0.94341
3536.64913	0.94324
3534.59532	0.94268
3532.54152	0.94207
3530.48772	0.94142
3528.43391	0.94113
3526.38011	0.94119
3524.32631	0.94109
3522.27250	0.94088
3520.21870	0.94059
3518.16490	0.94006
3516.11109	0.93958
3514.05729	0.93918
3512.00349	0.93901
3509.94968	0.93924
3507.89588	0.93919
3505.84208	0.93886
3503.78827	0.93837
3501.73447	0.93760
3499.68067	0.93729
3497.62687	0.93732
3495.57306	0.93687
3493.51926	0.93607
3491.46546	0.93563
3489.41165	0.93580
3487.35785	0.93592
3485.30405	0.93528
3483.25024	0.93454
3481.19644	0.93465
3479.14264	0.93507
3477.08883	0.93498
3475.03503	0.93450
3472.98123	0.93360
3470.92742	0.93249
3468.87362	0.93179
3466.81982	0.93132
3464.76601	0.93076
3462.71221	0.93020
3460.65841	0.92935
3458.60460	0.92842
3456.55080	0.92811
3454.49700	0.92834
3452.44319	0.92855
3450.38939	0.92803
3448.33559	0.92700
3446.28178	0.92629
3444.22798	0.92588
3442.17418	0.92553
3440.12038	0.92521
3438.06657	0.92489
3436.01277	0.92475
3433.95897	0.92471
3431.90516	0.92449
3429.85136	0.92408
3427.79756	0.92329
3425.74375	0.92228
3423.68995	0.92156
3421.63615	0.92118
3419.58234	0.92101
3417.52854	0.92091
3415.47474	0.92063
3413.42093	0.92005
3411.36713	0.91969
3409.31333	0.91963
3407.25952	0.91912
3405.20572	0.91842
3403.15192	0.91830
3401.09811	0.91848
3399.04431	0.91840
3396.99051	0.91829
3394.93670	0.91815
3392.88290	0.91779
3390.82910	0.91762
3388.77529	0.91764
3386.72149	0.91737
3384.66769	0.91681
3382.61389	0.91639
3380.56008	0.91653
3378.50628	0.91701
3376.45248	0.91743
3374.39867	0.91762
3372.34487	0.91784
3370.29107	0.91834
3368.23726	0.91855
3366.18346	0.91830
3364.12966	0.91818
3362.07585	0.91826
3360.02205	0.91825
3357.96825	0.91813
3355.91444	0.91806
3353.86064	0.91838
3351.80684	0.91896
3349.75303	0.91935
3347.69923	0.91959
3345.64543	0.91965
3343.59162	0.91962
3341.53782	0.91984
3339.48402	0.92040
3337.43021	0.92122
3335.37641	0.92175
3333.32261	0.92149
3331.26881	0.92105
3329.21500	0.92111
3327.16120	0.92159
3325.10740	0.92203
3323.05359	0.92229
3320.99979	0.92262
3318.94599	0.92272
3316.89218	0.92244
3314.83838	0.92237
3312.78458	0.92268
3310.73077	0.92306
3308.67697	0.92340
3306.62317	0.92371
3304.56936	0.92387
3302.51556	0.92428
3300.46176	0.92514
3298.40795	0.92574
3296.35415	0.92593
3294.30035	0.92607
3292.24654	0.92627
3290.19274	0.92649
3288.13894	0.92670
3286.08513	0.92678
3284.03133	0.92679
3281.97753	0.92694
3279.92372	0.92726
3277.86992	0.92780
3275.81612	0.92837
3273.76232	0.92862
3271.70851	0.92875
3269.65471	0.92908
3267.60091	0.92938
3265.54710	0.92943
3263.49330	0.92950
3261.43950	0.93002
3259.38569	0.93088
3257.33189	0.93129
3255.27809	0.93136
3253.22428	0.93159
3251.17048	0.93200
3249.11668	0.93267
3247.06287	0.93328
3245.00907	0.93352
3242.95527	0.93379
3240.90146	0.93407
3238.84766	0.93415
3236.79386	0.93443
3234.74005	0.93505
3232.68625	0.93559
3230.63245	0.93585
3228.57864	0.93613
3226.52484	0.93658
3224.47104	0.93702
3222.41724	0.93750
3220.36343	0.93804
3218.30963	0.93840
3216.25583	0.93872
3214.20202	0.93939
3212.14822	0.94018
3210.09442	0.94059
3208.04061	0.94080
3205.98681	0.94133
3203.93301	0.94170
3201.87920	0.94172
3199.82540	0.94222
3197.77160	0.94309
3195.71779	0.94381
3193.66399	0.94455
3191.61019	0.94517
3189.55638	0.94527
3187.50258	0.94528
3185.44878	0.94572
3183.39497	0.94651
3181.34117	0.94735
3179.28737	0.94788
3177.23356	0.94839
3175.17976	0.94914
3173.12596	0.94996
3171.07215	0.95046
3169.01835	0.95035
3166.96455	0.95039
3164.91075	0.95126
3162.85694	0.95222
3160.80314	0.95286
3158.74934	0.95352
3156.69553	0.95415
3154.64173	0.95460
3152.58793	0.95493
3150.53412	0.95546
3148.48032	0.95630
3146.42652	0.95690
3144.37271	0.95701
3142.31891	0.95705
3140.26511	0.95741
3138.21130	0.95797
3136.15750	0.95855
3134.10370	0.95921
3132.04989	0.95972
3129.99609	0.95987
3127.94229	0.96020
3125.88848	0.96094
3123.83468	0.96145
3121.78088	0.96184
3119.72707	0.96236
3117.67327	0.96246
3115.61947	0.96244
3113.56566	0.96283
3111.51186	0.96340
3109.45806	0.96388
3107.40426	0.96389
3105.35045	0.96331
3103.29665	0.96275
3101.24285	0.96315
3099.18904	0.96429
3097.13524	0.96478
3095.08144	0.96444
3093.02763	0.96427
3090.97383	0.96453
3088.92003	0.96482
3086.86622	0.96510
3084.81242	0.96536
3082.75862	0.96560
3080.70481	0.96599
3078.65101	0.96641
3076.59721	0.96662
3074.54340	0.96661
3072.48960	0.96672
3070.43580	0.96707
3068.38199	0.96718
3066.32819	0.96710
3064.27439	0.96739
3062.22058	0.96800
3060.16678	0.96834
3058.11298	0.96836
3056.05918	0.96842
3054.00537	0.96847
3051.95157	0.96855
3049.89777	0.96891
3047.84396	0.96927
3045.79016	0.96943
3043.73636	0.96953
3041.68255	0.96967
3039.62875	0.97010
3037.57495	0.97082
3035.52114	0.97121
3033.46734	0.97102
3031.41354	0.97081
3029.35973	0.97066
3027.30593	0.97054
3025.25213	0.97093
3023.19832	0.97150
3021.14452	0.97149
3019.09072	0.97122
3017.03691	0.97123
3014.98311	0.97138
3012.92931	0.97153
3010.87550	0.97144
3008.82170	0.97090
3006.76790	0.97034
3004.71409	0.97010
3002.66029	0.97020
3000.60649	0.97049
2998.55269	0.97079
2996.49888	0.97090
2994.44508	0.97033
2992.39128	0.96927
2990.33747	0.96851
2988.28367	0.96785
2986.22987	0.96682
2984.17606	0.96566
2982.12226	0.96460
2980.06846	0.96355
2978.01465	0.96240
2975.96085	0.96045
2973.90705	0.95754
2971.85324	0.95447
2969.79944	0.95129
2967.74564	0.94744
2965.69183	0.94307
2963.63803	0.93868
2961.58423	0.93425
2959.53042	0.92987
2957.47662	0.92588
2955.42282	0.92288
2953.36901	0.92113
2951.31521	0.91946
2949.26141	0.91628
2947.20761	0.91073
2945.15380	0.90217
2943.10000	0.89042
2941.04620	0.87571
2938.99239	0.85786
2936.93859	0.83667
2934.88479	0.81230
2932.83098	0.78473
2930.77718	0.75379
2928.72338	0.71925
2926.66957	0.68058
2924.61577	0.63717
2922.56197	0.58918
2920.50816	0.53955
2918.45436	0.49542
2916.40056	0.46728
2914.34675	0.46449
2912.29295	0.48715
2910.23915	0.52516
2908.18534	0.56632
2906.13154	0.60327
2904.07774	0.63393
2902.02393	0.65879
2899.97013	0.67929
2897.91633	0.69709
2895.86252	0.71354
2893.80872	0.72974
2891.75492	0.74646
2889.70112	0.76380
2887.64731	0.78143
2885.59351	0.79903
2883.53971	0.81593
2881.48590	0.83127
2879.43210	0.84484
2877.37830	0.85662
2875.32449	0.86579
2873.27069	0.87158
2871.21689	0.87440
2869.16308	0.87479
2867.10928	0.87197
2865.05548	0.86445
2863.00167	0.85046
2860.94787	0.82830
2858.89407	0.79630
2856.84026	0.75218
2854.78646	0.69371
2852.73266	0.62240
2850.67885	0.55162
2848.62505	0.50849
2846.57125	0.51473
2844.51744	0.56566
2842.46364	0.63729
2840.40984	0.70759
2838.35603	0.76561
2836.30223	0.80935
2834.24843	0.84159
2832.19463	0.86601
2830.14082	0.88476
2828.08702	0.89908
2826.03322	0.91024
2823.97941	0.91922
2821.92561	0.92655
2819.87181	0.93245
2817.81800	0.93717
2815.76420	0.94111
2813.71040	0.94457
2811.65659	0.94787
2809.60279	0.95104
2807.54899	0.95373
2805.49518	0.95592
2803.44138	0.95757
2801.38758	0.95885
2799.33377	0.96049
2797.27997	0.96240
2795.22617	0.96389
2793.17236	0.96501
2791.11856	0.96620
2789.06476	0.96746
2787.01095	0.96865
2784.95715	0.96981
2782.90335	0.97105
2780.84955	0.97229
2778.79574	0.97327
2776.74194	0.97391
2774.68814	0.97446
2772.63433	0.97511
2770.58053	0.97571
2768.52673	0.97625
2766.47292	0.97687
2764.41912	0.97741
2762.36532	0.97762
2760.31151	0.97780
2758.25771	0.97822
2756.20391	0.97859
2754.15010	0.97894
2752.09630	0.97944
2750.04250	0.97964
2747.98869	0.97930
2745.93489	0.97901
2743.88109	0.97922
2741.82728	0.97961
2739.77348	0.97978
2737.71968	0.97996
2735.66587	0.98049
2733.61207	0.98081
2731.55827	0.98065
2729.50446	0.98059
2727.45066	0.98083
2725.39686	0.98114
2723.34306	0.98121
2721.28925	0.98112
2719.23545	0.98135
2717.18165	0.98182
2715.12784	0.98217
2713.07404	0.98258
2711.02024	0.98302
2708.96643	0.98326
2706.91263	0.98343
2704.85883	0.98355
2702.80502	0.98354
2700.75122	0.98359
2698.69742	0.98366
2696.64361	0.98356
2694.58981	0.98342
2692.53601	0.98347
2690.48220	0.98368
2688.42840	0.98377
2686.37460	0.98366
2684.32079	0.98345
2682.26699	0.98341
2680.21319	0.98352
2678.15938	0.98353
2676.10558	0.98359
2674.05178	0.98373
2671.99797	0.98371
2669.94417	0.98347
2667.89037	0.98304
2665.83657	0.98267
2663.78276	0.98251
2661.72896	0.98237
2659.67516	0.98218
2657.62135	0.98226
2655.56755	0.98272
2653.51375	0.98318
2651.45994	0.98331
2649.40614	0.98336
2647.35234	0.98353
2645.29853	0.98382
2643.24473	0.98417
2641.19093	0.98415
2639.13712	0.98373
2637.08332	0.98352
2635.02952	0.98377
2632.97571	0.98430
2630.92191	0.98490
2628.86811	0.98531
2626.81430	0.98535
2624.76050	0.98533
2622.70670	0.98530
2620.65289	0.98507
2618.59909	0.98495
2616.54529	0.98559
2614.49149	0.98665
2612.43768	0.98708
2610.38388	0.98715
2608.33008	0.98756
2606.27627	0.98799
2604.22247	0.98827
2602.16867	0.98846
2600.11486	0.98849
2598.06106	0.98832
2596.00726	0.98838
2593.95345	0.98888
2591.89965	0.98927
2589.84585	0.98932
2587.79204	0.98926
2585.73824	0.98926
2583.68444	0.98964
2581.63063	0.99030
2579.57683	0.99061
2577.52303	0.99085
2575.46922	0.99130
2573.41542	0.99139
2571.36162	0.99095
2569.30781	0.99033
2567.25401	0.99033
2565.20021	0.99097
2563.14640	0.99118
2561.09260	0.99133
2559.03880	0.99151
2556.98500	0.99114
2554.93119	0.99138
2552.87739	0.99235
2550.82359	0.99260
2548.76978	0.99220
2546.71598	0.99190
2544.66218	0.99187
2542.60837	0.99183
2540.55457	0.99143
2538.50077	0.99111
2536.44696	0.99138
2534.39316	0.99188
2532.33936	0.99218
2530.28555	0.99227
2528.23175	0.99224
2526.17795	0.99222
2524.12414	0.99233
2522.07034	0.99233
2520.01654	0.99202
2517.96273	0.99191
2515.90893	0.99231
2513.85513	0.99317
2511.80132	0.99411
2509.74752	0.99429
2507.69372	0.99346
2505.63992	0.99261
2503.58611	0.99252
2501.53231	0.99283
2499.47851	0.99326
2497.42470	0.99355
2495.37090	0.99338
2493.31710	0.99293
2491.26329	0.99256
2489.20949	0.99262
2487.15569	0.99302
2485.10188	0.99358
2483.04808	0.99433
2480.99428	0.99504
2478.94047	0.99533
2476.88667	0.99500
2474.83287	0.99457
2472.77906	0.99453
2470.72526	0.99451
2468.67146	0.99416
2466.61765	0.99392
2464.56385	0.99422
2462.51005	0.99452
2460.45624	0.99441
2458.40244	0.99422
2456.34864	0.99374
2454.29483	0.99325
2452.24103	0.99352
2450.18723	0.99395
2448.13343	0.99412
2446.07962	0.99412
2444.02582	0.99362
2441.97202	0.99328
2439.91821	0.99384
2437.86441	0.99455
2435.81061	0.99497
2433.75680	0.99485
2431.70300	0.99387
2429.64920	0.99319
2427.59539	0.99351
2425.54159	0.99414
2423.48779	0.99455
2421.43398	0.99456
2419.38018	0.99428
2417.32638	0.99377
2415.27257	0.99339
2413.21877	0.99339
2411.16497	0.99341
2409.11116	0.99318
2407.05736	0.99290
2405.00356	0.99286
2402.94975	0.99294
2400.89595	0.99294
2398.84215	0.99281
2396.78834	0.99276
2394.73454	0.99311
2392.68074	0.99361
2390.62694	0.99378
2388.57313	0.99398
2386.51933	0.99451
2384.46553	0.99457
2382.41172	0.99409
2380.35792	0.99367
2378.30412	0.99327
2376.25031	0.99320
2374.19651	0.99391
2372.14271	0.99431
2370.08890	0.99366
2368.03510	0.99315
2365.98130	0.99384
2363.92749	0.99575
2361.87369	0.99694
2359.81989	0.99605
2357.76608	0.99446
2355.71228	0.99330
2353.65848	0.99266
2351.60467	0.99223
2349.55087	0.99207
2347.49707	0.99234
2345.44326	0.99263
2343.38946	0.99233
2341.33566	0.99129
2339.28186	0.99013
2337.22805	0.99005
2335.17425	0.99094
2333.12045	0.99161
2331.06664	0.99178
2329.01284	0.99146
2326.95904	0.99040
2324.90523	0.98905
2322.85143	0.98869
2320.79763	0.98996
2318.74382	0.99157
2316.69002	0.99253
2314.63622	0.99275
2312.58241	0.99186
2310.52861	0.99065
2308.47481	0.99009
2306.42100	0.99027
2304.36720	0.99067
2302.31340	0.99095
2300.25959	0.99179
2298.20579	0.99254
2296.15199	0.99200
2294.09818	0.99088
2292.04438	0.99017
2289.99058	0.99020
2287.93677	0.99066
2285.88297	0.99089
2283.82917	0.99121
2281.77537	0.99175
2279.72156	0.99162
2277.66776	0.99122
2275.61396	0.99154
2273.56015	0.99237
2271.50635	0.99282
2269.45255	0.99268
2267.39874	0.99293
2265.34494	0.99357
2263.29114	0.99342
2261.23733	0.99299
2259.18353	0.99386
2257.12973	0.99539
2255.07592	0.99571
2253.02212	0.99492
2250.96832	0.99390
2248.91451	0.99306
2246.86071	0.99326
2244.80691	0.99460
2242.75310	0.99595
2240.69930	0.99647
2238.64550	0.99572
2236.59169	0.99430
2234.53789	0.99347
2232.48409	0.99349
2230.43029	0.99386
2228.37648	0.99425
2226.32268	0.99417
2224.26888	0.99307
2222.21507	0.99167
2220.16127	0.99198
2218.10747	0.99424
2216.05366	0.99611
2213.99986	0.99627
2211.94606	0.99601
2209.89225	0.99617
2207.83845	0.99550
2205.78465	0.99483
2203.73084	0.99565
2201.67704	0.99612
2199.62324	0.99504
2197.56943	0.99447
2195.51563	0.99576
2193.46183	0.99647
2191.40802	0.99535
2189.35422	0.99518
2187.30042	0.99652
2185.24661	0.99698
2183.19281	0.99591
2181.13901	0.99376
2179.08520	0.99143
2177.03140	0.99163
2174.97760	0.99447
2172.92380	0.99707
2170.86999	0.99831
2168.81619	0.99711
2166.76239	0.99471
2164.70858	0.99395
2162.65478	0.99356
2160.60098	0.99394
2158.54717	0.99696
2156.49337	0.99966
2154.43957	0.99866
2152.38576	0.99680
2150.33196	0.99779
2148.27816	0.99932
2146.22435	0.99869
2144.17055	0.99728
2142.11675	0.99652
2140.06294	0.99608
2138.00914	0.99636
2135.95534	0.99815
2133.90153	1.00014
2131.84773	1.00029
2129.79393	0.99840
2127.74012	0.99682
2125.68632	0.99715
2123.63252	0.99837
2121.57871	0.99839
2119.52491	0.99657
2117.47111	0.99518
2115.41731	0.99547
2113.36350	0.99568
2111.30970	0.99480
2109.25590	0.99412
2107.20209	0.99408
2105.14829	0.99383
2103.09449	0.99393
2101.04068	0.99513
2098.98688	0.99579
2096.93308	0.99520
2094.87927	0.99529
2092.82547	0.99644
2090.77167	0.99667
2088.71786	0.99545
2086.66406	0.99412
2084.61026	0.99399
2082.55645	0.99501
2080.50265	0.99506
2078.44885	0.99385
2076.39504	0.99346
2074.34124	0.99306
2072.28744	0.99209
2070.23363	0.99348
2068.17983	0.99706
2066.12603	0.99906
2064.07223	0.99772
2062.01842	0.99537
2059.96462	0.99488
2057.91082	0.99536
2055.85701	0.99517
2053.80321	0.99477
2051.74941	0.99510
2049.69560	0.99650
2047.64180	0.99780
2045.58800	0.99766
2043.53419	0.99649
2041.48039	0.99582
2039.42659	0.99637
2037.37278	0.99801
2035.31898	1.00072
2033.26518	1.00206
2031.21137	1.00080
2029.15757	1.00008
2027.10377	1.00067
2025.04996	0.99958
2022.99616	0.99742
2020.94236	0.99777
2018.88855	0.99928
2016.83475	0.99969
2014.78095	0.99973
2012.72714	0.99928
2010.67334	0.99728
2008.61954	0.99489
2006.56574	0.99551
2004.51193	0.99866
2002.45813	1.00107
2000.40433	1.00156
1998.35052	1.00102
1996.29672	1.00036
1994.24292	0.99859
1992.18911	0.99604
1990.13531	0.99453
1988.08151	0.99482
1986.02770	0.99697
1983.97390	0.99815
1981.92010	0.99621
1979.86629	0.99375
1977.81249	0.99295
1975.75869	0.99375
1973.70488	0.99640
1971.65108	0.99973
1969.59728	1.00094
1967.54347	0.99938
1965.48967	0.99710
1963.43587	0.99612
1961.38206	0.99638
1959.32826	0.99652
1957.27446	0.99638
1955.22066	0.99538
1953.16685	0.99389
1951.11305	0.99406
1949.05925	0.99551
1947.00544	0.99708
1944.95164	0.99825
1942.89784	0.99762
1940.84403	0.99600
1938.79023	0.99502
1936.73643	0.99460
1934.68262	0.99451
1932.62882	0.99423
1930.57502	0.99444
1928.52121	0.99596
1926.46741	0.99778
1924.41361	0.99800
1922.35980	0.99633
1920.30600	0.99546
1918.25220	0.99614
1916.19839	0.99635
1914.14459	0.99549
1912.09079	0.99440
1910.03698	0.99373
1907.98318	0.99383
1905.92938	0.99419
1903.87557	0.99402
1901.82177	0.99360
1899.76797	0.99377
1897.71417	0.99437
1895.66036	0.99469
1893.60656	0.99458
1891.55276	0.99434
1889.49895	0.99423
1887.44515	0.99384
1885.39135	0.99346
1883.33754	0.99383
1881.28374	0.99454
1879.22994	0.99504
1877.17613	0.99546
1875.12233	0.99563
1873.06853	0.99533
1871.01472	0.99506
1868.96092	0.99471
1866.90712	0.99365
1864.85331	0.99300
1862.79951	0.99373
1860.74571	0.99470
1858.69190	0.99439
1856.63810	0.99349
1854.58430	0.99351
1852.53049	0.99407
1850.47669	0.99407
1848.42289	0.99375
1846.36908	0.99380
1844.31528	0.99413
1842.26148	0.99391
1840.20768	0.99319
1838.15387	0.99280
1836.10007	0.99321
1834.04627	0.99382
1831.99246	0.99393
1829.93866	0.99405
1827.88486	0.99433
1825.83105	0.99414
1823.77725	0.99373
1821.72345	0.99359
1819.66964	0.99342
1817.61584	0.99309
1815.56204	0.99308
1813.50823	0.99328
1811.45443	0.99316
1809.40063	0.99285
1807.34682	0.99266
1805.29302	0.99267
1803.23922	0.99327
1801.18541	0.99441
1799.13161	0.99494
1797.07781	0.99418
1795.02400	0.99290
1792.97020	0.99205
1790.91640	0.99195
1788.86260	0.99223
1786.80879	0.99239
1784.75499	0.99211
1782.70119	0.99180
1780.64738	0.99196
1778.59358	0.99203
1776.53978	0.99165
1774.48597	0.99121
1772.43217	0.99092
1770.37837	0.99099
1768.32456	0.99130
1766.27076	0.99122
1764.21696	0.99060
1762.16315	0.98988
1760.10935	0.98948
1758.05555	0.98947
1756.00174	0.98931
1753.94794	0.98855
1751.89414	0.98725
1749.84033	0.98602
1747.78653	0.98562
1745.73273	0.98555
1743.67892	0.98544
1741.62512	0.98518
1739.57132	0.98448
1737.51751	0.98381
1735.46371	0.98368
1733.40991	0.98383
1731.35611	0.98371
1729.30230	0.98317
1727.24850	0.98234
1725.19470	0.98145
1723.14089	0.98088
1721.08709	0.98097
1719.03329	0.98122
1716.97948	0.98085
1714.92568	0.98006
1712.87188	0.97931
1710.81807	0.97869
1708.76427	0.97848
1706.71047	0.97831
1704.65666	0.97766
1702.60286	0.97666
1700.54906	0.97474
1698.49525	0.97243
1696.44145	0.97080
1694.38765	0.96890
1692.33384	0.96722
1690.28004	0.96583
1688.22624	0.96427
1686.17243	0.96269
1684.11863	0.96045
1682.06483	0.95801
1680.01103	0.95621
1677.95722	0.95437
1675.90342	0.95224
1673.84962	0.95004
1671.79581	0.94801
1669.74201	0.94552
1667.68821	0.94342
1665.63440	0.94247
1663.58060	0.94187
1661.52680	0.94131
1659.47299	0.94055
1657.41919	0.93975
1655.36539	0.93924
1653.31158	0.93848
1651.25778	0.93751
1649.20398	0.93735
1647.15017	0.93743
1645.09637	0.93725
1643.04257	0.93735
1640.98876	0.93757
1638.93496	0.93755
1636.88116	0.93776
1634.82735	0.93837
1632.77355	0.93875
1630.71975	0.93934
1628.66594	0.94048
1626.61214	0.94161
1624.55834	0.94237
1622.50454	0.94336
1620.45073	0.94453
1618.39693	0.94565
1616.34313	0.94731
1614.28932	0.94918
1612.23552	0.95051
1610.18172	0.95158
1608.12791	0.95273
1606.07411	0.95389
1604.02031	0.95492
1601.96650	0.95585
1599.91270	0.95680
1597.85890	0.95789
1595.80509	0.95895
1593.75129	0.95978
1591.69749	0.96054
1589.64368	0.96144
1587.58988	0.96242
1585.53608	0.96333
1583.48227	0.96391
1581.42847	0.96415
1579.37467	0.96434
1577.32086	0.96471
1575.26706	0.96520
1573.21326	0.96555
1571.15945	0.96585
1569.10565	0.96629
1567.05185	0.96664
1564.99805	0.96674
1562.94424	0.96669
1560.89044	0.96639
1558.83664	0.96567
1556.78283	0.96582
1554.72903	0.96626
1552.67523	0.96638
1550.62142	0.96641
1548.56762	0.96630
1546.51382	0.96634
1544.46001	0.96673
1542.40621	0.96723
1540.35241	0.96806
1538.29860	0.96875
1536.24480	0.96885
1534.19100	0.96932
1532.13719	0.97031
1530.08339	0.97084
1528.02959	0.97111
1525.97578	0.97148
1523.92198	0.97200
1521.86818	0.97276
1519.81437	0.97329
1517.76057	0.97335
1515.70677	0.97329
1513.65297	0.97322
1511.59916	0.97368
1509.54536	0.97468
1507.49156	0.97551
1505.43775	0.97547
1503.38395	0.97535
1501.33015	0.97540
1499.27634	0.97497
1497.22254	0.97410
1495.16874	0.97362
1493.11493	0.97353
1491.06113	0.97305
1489.00733	0.97197
1486.95352	0.97062
1484.89972	0.96883
1482.84592	0.96596
1480.79211	0.96060
1478.73831	0.94957
1476.68451	0.92289
1474.63070	0.87173
1472.57690	0.81910
1470.52310	0.80487
1468.46929	0.80884
1466.41549	0.80553
1464.36169	0.79377
1462.30788	0.79494
1460.25408	0.81699
1458.20028	0.85043
1456.14648	0.87969
1454.09267	0.89497
1452.03887	0.90570
1449.98507	0.91460
1447.93126	0.92123
1445.87746	0.92584
1443.82366	0.92899
1441.76985	0.93173
1439.71605	0.93420
1437.66225	0.93671
1435.60844	0.94017
1433.55464	0.94397
1431.50084	0.94771
1429.44703	0.95156
1427.39323	0.95486
1425.33943	0.95747
1423.28562	0.95960
1421.23182	0.96120
1419.17802	0.96266
1417.12421	0.96340
1415.07041	0.96338
1413.01661	0.96353
1410.96280	0.96385
1408.90900	0.96409
1406.85520	0.96451
1404.80139	0.96521
1402.74759	0.96576
1400.69379	0.96600
1398.63999	0.96621
1396.58618	0.96667
1394.53238	0.96712
1392.47858	0.96726
1390.42477	0.96694
1388.37097	0.96608
1386.31717	0.96475
1384.26336	0.96289
1382.20956	0.95973
1380.15576	0.95528
1378.10195	0.95195
1376.04815	0.95158
1373.99435	0.95270
1371.94054	0.95314
1369.88674	0.95320
1367.83294	0.95363
1365.77913	0.95444
1363.72533	0.95574
1361.67153	0.95756
1359.61772	0.95899
1357.56392	0.95965
1355.51012	0.95992
1353.45631	0.96012
1351.40251	0.96034
1349.34871	0.96057
1347.29491	0.96120
1345.24110	0.96231
1343.18730	0.96328
1341.13350	0.96381
1339.07969	0.96452
1337.02589	0.96558
1334.97209	0.96646
1332.91828	0.96704
1330.86448	0.96747
1328.81068	0.96765
1326.75687	0.96738
1324.70307	0.96689
1322.64927	0.96650
1320.59546	0.96599
1318.54166	0.96524
1316.48786	0.96467
1314.43405	0.96432
1312.38025	0.96398
1310.32645	0.96350
1308.27264	0.96278
1306.21884	0.96213
1304.16504	0.96191
1302.11123	0.96197
1300.05743	0.96212
1298.00363	0.96225
1295.94982	0.96237
1293.89602	0.96281
1291.84222	0.96329
1289.78842	0.96351
1287.73461	0.96375
1285.68081	0.96387
1283.62701	0.96357
1281.57320	0.96319
1279.51940	0.96303
1277.46560	0.96291
1275.41179	0.96264
1273.35799	0.96222
1271.30419	0.96175
1269.25038	0.96115
1267.19658	0.96053
1265.14278	0.96004
1263.08897	0.95948
1261.03517	0.95884
1258.98137	0.95834
1256.92756	0.95784
1254.87376	0.95729
1252.81996	0.95678
1250.76615	0.95620
1248.71235	0.95555
1246.65855	0.95484
1244.60474	0.95415
1242.55094	0.95359
1240.49714	0.95296
1238.44334	0.95235
1236.38953	0.95187
1234.33573	0.95120
1232.28193	0.95046
1230.22812	0.94974
1228.17432	0.94914
1226.12052	0.94874
1224.06671	0.94807
1222.01291	0.94718
1219.95911	0.94635
1217.90530	0.94535
1215.85150	0.94420
1213.79770	0.94313
1211.74389	0.94213
1209.69009	0.94102
1207.63629	0.93967
1205.58248	0.93792
1203.52868	0.93614
1201.47488	0.93464
1199.42107	0.93320
1197.36727	0.93155
1195.31347	0.92963
1193.25966	0.92769
1191.20586	0.92576
1189.15206	0.92350
1187.09825	0.92093
1185.04445	0.91825
1182.99065	0.91545
1180.93685	0.91253
1178.88304	0.90951
1176.82924	0.90654
1174.77544	0.90355
1172.72163	0.90024
1170.66783	0.89703
1168.61403	0.89420
1166.56022	0.89111
1164.50642	0.88791
1162.45262	0.88539
1160.39881	0.88336
1158.34501	0.88123
1156.29121	0.87875
1154.23740	0.87616
1152.18360	0.87369
1150.12980	0.87099
1148.07599	0.86822
1146.02219	0.86570
1143.96839	0.86316
1141.91458	0.86028
1139.86078	0.85729
1137.80698	0.85446
1135.75317	0.85155
1133.69937	0.84831
1131.64557	0.84451
1129.59176	0.83993
1127.53796	0.83477
1125.48416	0.82914
1123.43036	0.82300
1121.37655	0.81638
1119.32275	0.80922
1117.26895	0.80189
1115.21514	0.79494
1113.16134	0.78825
1111.10754	0.78174
1109.05373	0.77590
1106.99993	0.77087
1104.94613	0.76649
1102.89232	0.76296
1100.83852	0.76018
1098.78472	0.75746
1096.73091	0.75469
1094.67711	0.75242
1092.62331	0.75082
1090.56950	0.74973
1088.51570	0.74878
1086.46190	0.74762
1084.40809	0.74624
1082.35429	0.74476
1080.30049	0.74317
1078.24668	0.74114
1076.19288	0.73865
1074.13908	0.73620
1072.08528	0.73364
1070.03147	0.73071
1067.97767	0.72742
1065.92387	0.72355
1063.87006	0.71914
1061.81626	0.71424
1059.76246	0.70915
1057.70865	0.70384
1055.65485	0.69779
1053.60105	0.69082
1051.54724	0.68339
1049.49344	0.67594
1047.43964	0.66853
1045.38583	0.66113
1043.33203	0.65356
1041.27823	0.64615
1039.22442	0.63978
1037.17062	0.63433
1035.11682	0.62969
1033.06301	0.62662
1031.00921	0.62528
1028.95541	0.62576
1026.90160	0.62808
1024.84780	0.63123
1022.79400	0.63433
1020.74019	0.63715
1018.68639	0.63940
1016.63259	0.64068
1014.57879	0.64112
1012.52498	0.64130
1010.47118	0.64164
1008.41738	0.64264
1006.36357	0.64503
1004.30977	0.64938
1002.25597	0.65575
1000.20216	0.66364
998.14836	0.67274
996.09456	0.68316
994.04075	0.69442
991.98695	0.70578
989.93315	0.71698
987.87934	0.72818
985.82554	0.73956
983.77174	0.75085
981.71793	0.76165
979.66413	0.77187
977.61033	0.78170
975.55652	0.79135
973.50272	0.80091
971.44892	0.80991
969.39511	0.81756
967.34131	0.82406
965.28751	0.83016
963.23371	0.83619
961.17990	0.84187
959.12610	0.84661
957.07230	0.85037
955.01849	0.85384
952.96469	0.85730
950.91089	0.86042
948.85708	0.86293
946.80328	0.86469
944.74948	0.86619
942.69567	0.86773
940.64187	0.86898
938.58807	0.87031
936.53426	0.87192
934.48046	0.87316
932.42666	0.87376
930.37285	0.87438
928.31905	0.87524
926.26525	0.87548
924.21144	0.87489
922.15764	0.87374
920.10384	0.87208
918.05003	0.87010
915.99623	0.86821
913.94243	0.86727
911.88862	0.86829
909.83482	0.87147
907.78102	0.87637
905.72722	0.88264
903.67341	0.88924
901.61961	0.89511
899.56581	0.89995
897.51200	0.90405
895.45820	0.90786
893.40440	0.91098
891.35059	0.91314
889.29679	0.91500
887.24299	0.91694
885.18918	0.91882
883.13538	0.92074
881.08158	0.92282
879.02777	0.92482
876.97397	0.92654
874.92017	0.92785
872.86636	0.92886
870.81256	0.93016
868.75876	0.93225
866.70495	0.93456
864.65115	0.93606
862.59735	0.93716
860.54354	0.93845
858.48974	0.93953
856.43594	0.94028
854.38213	0.94081
852.32833	0.94129
850.27453	0.94199
848.22073	0.94236
846.16692	0.94208
844.11312	0.94173
842.05932	0.94158
840.00551	0.94125
837.95171	0.94074
835.89791	0.94048
833.84410	0.94005
831.79030	0.93913
829.73650	0.93809
827.68269	0.93725
825.62889	0.93672
823.57509	0.93615
821.52128	0.93522
819.46748	0.93454
817.41368	0.93438
815.35987	0.93393
813.30607	0.93284
811.25227	0.93142
809.19846	0.92961
807.14466	0.92758
805.09086	0.92525
803.03705	0.92198
800.98325	0.91861
798.92945	0.91648
796.87565	0.91557
794.82184	0.91550
792.76804	0.91557
790.71424	0.91474
788.66043	0.91367
786.60663	0.91346
784.55283	0.91353
782.49902	0.91280
780.44522	0.91153
778.39142	0.91136
776.33761	0.91248
774.28381	0.91312
772.23001	0.91272
770.17620	0.91207
768.12240	0.91135
766.06860	0.91043
764.01479	0.90903
761.96099	0.90679
759.90719	0.90448
757.85338	0.90315
755.79958	0.90245
753.74578	0.90150
751.69197	0.90053
749.63817	0.89982
747.58437	0.89886
745.53056	0.89764
743.47676	0.89675
741.42296	0.89623
739.36916	0.89503
737.31535	0.89095
735.26155	0.87818
733.20775	0.84923
731.15394	0.81442
729.10014	0.80039
727.04634	0.80717
724.99253	0.80720
722.93873	0.78265
720.88493	0.73901
718.83112	0.71061
716.77732	0.72692
714.72352	0.77290
712.66971	0.81674
710.61591	0.84414
708.56211	0.85792
706.50830	0.86407
704.45450	0.86665
702.40070	0.86788
700.34689	0.86785
698.29309	0.86661
696.23929	0.86582
694.18548	0.86674
692.13168	0.86851
690.07788	0.87012
688.02408	0.87113
685.97027	0.87181
683.91647	0.87315
681.86267	0.87463
679.80886	0.87578
677.75506	0.87721
675.70126	0.87828
673.64745	0.87864
671.59365	0.87973
669.53985	0.88213
667.48604	0.88469
665.43224	0.88619
663.37844	0.88705
661.32463	0.88786
659.27083	0.88885
657.21703	0.88935
655.16322	0.88882
653.10942	0.88774
651.05562	0.88634
649.00181	0.88473
646.94801	0.88387
644.89421	0.88419
642.84040	0.88530
640.78660	0.88632
638.73280	0.88648
636.67899	0.88645
634.62519	0.88671
632.57139	0.88674
630.51759	0.88664
628.46378	0.88645
626.40998	0.88604
624.35618	0.88539
622.30237	0.88425
620.24857	0.88297
618.19477	0.88112
616.14096	0.87825
614.08716	0.87530
612.03336	0.87264
609.97955	0.87040
607.92575	0.86877
605.87195	0.86694
603.81814	0.86553
601.76434	0.86559
599.71054	0.86528
597.65673	0.86342
595.60293	0.86067
593.54913	0.85767
591.49532	0.85470
589.44152	0.85185
587.38772	0.85021
585.33391	0.85007
583.28011	0.84962
581.22631	0.84809
579.17250	0.84702
577.11870	0.84643
575.06490	0.84532
573.01110	0.84457
570.95729	0.84374
568.90349	0.84042
566.84969	0.83550
564.79588	0.83201
562.74208	0.82904
560.68828	0.82527
558.63447	0.82231
556.58067	0.81994
554.52687	0.81706
552.47306	0.81378
550.41926	0.81040
548.36546	0.80661
546.31165	0.80176
544.25785	0.79733
542.20405	0.79359
540.15024	0.78841
538.09644	0.78255
536.04264	0.77905
533.98883	0.77796
531.93503	0.77755
529.88123	0.77867
527.82742	0.78173
525.77362	0.78494
523.71982	0.78696
521.66602	0.78898
519.61221	0.79352
517.55841	0.80046
515.50461	0.80619
513.45080	0.81020
511.39700	0.81327
509.34320	0.81461
507.28939	0.81538
505.23559	0.81690
503.18179	0.81846
501.12798	0.81948
499.07418	0.81972
497.02038	0.81942
494.96657	0.81976
492.91277	0.81957
490.85897	0.81627
488.80516	0.81093
486.75136	0.80475
484.69756	0.79648
482.64375	0.78725
480.58995	0.77918
478.53615	0.77031
476.48234	0.75931
474.42854	0.74826
472.37474	0.73813
470.32093	0.73059
468.26713	0.72811
466.21333	0.72923
464.15953	0.73190
462.10572	0.73829
460.05192	0.74831
457.99812	0.75781
455.94431	0.76437
453.89051	0.77005
451.83671	0.77618
449.78290	0.78211
447.72910	0.78743
445.67530	0.78963
443.62149	0.79112
441.56769	0.79556
439.51389	0.79569
437.46008	0.78973
435.40628	0.78509
433.35248	0.78515
431.29867	0.78648
429.24487	0.78617
427.19107	0.78599
425.13726	0.79098
423.08346	0.80015
421.02966	0.80205
418.97585	0.79868
416.92205	0.80493
414.86825	0.81244
412.81445	0.81736
410.76064	0.82425
408.70684	0.83273
406.65304	0.84052
404.59923	0.84648
402.54543	0.84809
400.49163	0.84902
398.43782	0.85447
