3996.71440	0.98784
3994.66059	0.98754
3992.60678	0.98751
3990.55297	0.98766
3988.49916	0.98780
3986.44535	0.98791
3984.39154	0.98790
3982.33773	0.98753
3980.28391	0.98722
3978.23010	0.98742
3976.17629	0.98795
3974.12248	0.98818
3972.06867	0.98783
3970.01486	0.98764
3967.96105	0.98789
3965.90724	0.98795
3963.85343	0.98755
3961.79962	0.98717
3959.74581	0.98709
3957.69200	0.98731
3955.63819	0.98774
3953.58438	0.98796
3951.53057	0.98784
3949.47676	0.98777
3947.42295	0.98776
3945.36914	0.98759
3943.31533	0.98738
3941.26152	0.98719
3939.20771	0.98707
3937.15390	0.98712
3935.10009	0.98734
3933.04628	0.98764
3930.99247	0.98786
3928.93866	0.98784
3926.88485	0.98751
3924.83104	0.98710
3922.77723	0.98695
3920.72342	0.98718
3918.66961	0.98769
3916.61580	0.98786
3914.56199	0.98746
3912.50818	0.98707
3910.45437	0.98714
3908.40056	0.98747
3906.34675	0.98780
3904.29294	0.98819
3902.23913	0.98836
3900.18532	0.98799
3898.13151	0.98752
3896.07770	0.98714
3894.02389	0.98675
3891.97008	0.98653
3889.91627	0.98666
3887.86246	0.98722
3885.80865	0.98790
3883.75484	0.98803
3881.70103	0.98769
3879.64722	0.98725
3877.59341	0.98720
3875.53960	0.98760
3873.48579	0.98782
3871.43198	0.98790
3869.37817	0.98803
3867.32436	0.98795
3865.27055	0.98791
3863.21674	0.98805
3861.16293	0.98803
3859.10912	0.98779
3857.05531	0.98763
3855.00150	0.98796
3852.94769	0.98824
3850.89388	0.98727
3848.84007	0.98632
3846.78626	0.98617
3844.73245	0.98667
3842.67864	0.98752
3840.62483	0.98837
3838.57102	0.98856
3836.51721	0.98771
3834.46340	0.98690
3832.40959	0.98655
3830.35578	0.98629
3828.30197	0.98641
3826.24816	0.98671
3824.19435	0.98664
3822.14054	0.98679
3820.08673	0.98728
3818.03292	0.98731
3815.97911	0.98692
3813.92530	0.98620
3811.87149	0.98556
3809.81768	0.98542
3807.76387	0.98557
3805.71006	0.98559
3803.65625	0.98591
3801.60244	0.98644
3799.54863	0.98633
3797.49482	0.98581
3795.44101	0.98544
3793.38720	0.98528
3791.33339	0.98509
3789.27958	0.98471
3787.22577	0.98448
3785.17196	0.98445
3783.11815	0.98433
3781.06434	0.98427
3779.01053	0.98430
3776.95672	0.98396
3774.90291	0.98351
3772.84910	0.98339
3770.79529	0.98355
3768.74148	0.98382
3766.68767	0.98397
3764.63386	0.98384
3762.58005	0.98380
3760.52624	0.98405
3758.47243	0.98399
3756.41862	0.98389
3754.36481	0.98418
3752.31100	0.98450
3750.25719	0.98456
3748.20338	0.98455
3746.14957	0.98465
3744.09576	0.98434
3742.04195	0.98352
3739.98814	0.98295
3737.93433	0.98305
3735.88052	0.98326
3733.82671	0.98232
3731.77290	0.98096
3729.71909	0.98020
3727.66528	0.97994
3725.61147	0.97979
3723.55766	0.97916
3721.50385	0.97794
3719.45004	0.97660
3717.39623	0.97515
3715.34242	0.97375
3713.28861	0.97249
3711.23480	0.97017
3709.18099	0.96649
3707.12718	0.96279
3705.07337	0.95949
3703.01956	0.95630
3700.96575	0.95301
3698.91194	0.95025
3696.85813	0.94872
3694.80432	0.94841
3692.75051	0.94874
3690.69670	0.94923
3688.64289	0.94952
3686.58907	0.94919
3684.53526	0.94848
3682.48145	0.94773
3680.42764	0.94718
3678.37383	0.94666
3676.32002	0.94563
3674.26621	0.94371
3672.21240	0.94172
3670.15859	0.93943
3668.10478	0.93641
3666.05097	0.93365
3663.99716	0.93111
3661.94335	0.92848
3659.88954	0.92624
3657.83573	0.92437
3655.78192	0.92210
3653.72811	0.92006
3651.67430	0.91848
3649.62049	0.91605
3647.56668	0.91256
3645.51287	0.90946
3643.45906	0.90690
3641.40525	0.90396
3639.35144	0.90084
3637.29763	0.89831
3635.24382	0.89588
3633.19001	0.89304
3631.13620	0.89035
3629.08239	0.88733
3627.02858	0.88373
3624.97477	0.88097
3622.92096	0.87904
3620.86715	0.87782
3618.81334	0.87708
3616.75953	0.87642
3614.70572	0.87570
3612.65191	0.87453
3610.59810	0.87305
3608.54429	0.87162
3606.49048	0.86986
3604.43667	0.86788
3602.38286	0.86614
3600.32905	0.86440
3598.27524	0.86273
3596.22143	0.86141
3594.16762	0.85957
3592.11381	0.85716
3590.06000	0.85542
3588.00619	0.85404
3585.95238	0.85192
3583.89857	0.84953
3581.84476	0.84743
3579.79095	0.84561
3577.73714	0.84398
3575.68333	0.84229
3573.62952	0.84065
3571.57571	0.83919
3569.52190	0.83768
3567.46809	0.83580
3565.41428	0.83357
3563.36047	0.83139
3561.30666	0.82903
3559.25285	0.82639
3557.19904	0.82405
3555.14523	0.82237
3553.09142	0.82084
3551.03761	0.81904
3548.98380	0.81714
3546.92999	0.81519
3544.87618	0.81300
3542.82237	0.81081
3540.76856	0.80883
3538.71475	0.80690
3536.66094	0.80509
3534.60713	0.80330
3532.55332	0.80131
3530.49951	0.79940
3528.44570	0.79784
3526.39189	0.79639
3524.33808	0.79490
3522.28427	0.79310
3520.23046	0.79096
3518.17665	0.78896
3516.12284	0.78717
3514.06903	0.78525
3512.01522	0.78321
3509.96141	0.78129
3507.90760	0.77943
3505.85379	0.77779
3503.79998	0.77619
3501.74617	0.77432
3499.69236	0.77245
3497.63855	0.77083
3495.58474	0.76917
3493.53093	0.76733
3491.47712	0.76568
3489.42331	0.76425
3487.36950	0.76271
3485.31569	0.76099
3483.26188	0.75950
3481.20807	0.75820
3479.15426	0.75660
3477.10045	0.75470
3475.04664	0.75283
3472.99283	0.75115
3470.93902	0.74979
3468.88521	0.74855
3466.83140	0.74699
3464.77759	0.74536
3462.72378	0.74395
3460.66997	0.74257
3458.61616	0.74114
3456.56235	0.73975
3454.50854	0.73830
3452.45473	0.73686
3450.40092	0.73566
3448.34711	0.73459
3446.29330	0.73328
3444.23949	0.73187
3442.18568	0.73064
3440.13187	0.72967
3438.07806	0.72883
3436.02425	0.72755
3433.97044	0.72604
3431.91663	0.72496
3429.86282	0.72420
3427.80901	0.72336
3425.75520	0.72240
3423.70139	0.72133
3421.64758	0.72011
3419.59377	0.71898
3417.53996	0.71796
3415.48615	0.71687
3413.43234	0.71601
3411.37853	0.71556
3409.32472	0.71509
3407.27091	0.71450
3405.21710	0.71393
3403.16329	0.71337
3401.10948	0.71305
3399.05567	0.71280
3397.00186	0.71218
3394.94805	0.71143
3392.89424	0.71091
3390.84042	0.71049
3388.78661	0.71013
3386.73280	0.71000
3384.67899	0.71006
3382.62518	0.71017
3380.57137	0.71021
3378.51756	0.71011
3376.46375	0.71010
3374.40994	0.71036
3372.35613	0.71052
3370.30232	0.71036
3368.24851	0.71024
3366.19470	0.71044
3364.14089	0.71071
3362.08708	0.71074
3360.03327	0.71082
3357.97946	0.71127
3355.92565	0.71184
3353.87184	0.71228
3351.81803	0.71261
3349.76422	0.71277
3347.71041	0.71299
3345.65660	0.71356
3343.60279	0.71414
3341.54898	0.71456
3339.49517	0.71501
3337.44136	0.71541
3335.38755	0.71571
3333.33374	0.71596
3331.27993	0.71636
3329.22612	0.71692
3327.17231	0.71744
3325.11850	0.71800
3323.06469	0.71871
3321.01088	0.71940
3318.95707	0.71998
3316.90326	0.72055
3314.84945	0.72110
3312.79564	0.72173
3310.74183	0.72246
3308.68802	0.72300
3306.63421	0.72339
3304.58040	0.72371
3302.52659	0.72397
3300.47278	0.72425
3298.41897	0.72455
3296.36516	0.72482
3294.31135	0.72535
3292.25754	0.72638
3290.20373	0.72733
3288.14992	0.72773
3286.09611	0.72800
3284.04230	0.72825
3281.98849	0.72843
3279.93468	0.72883
3277.88087	0.72936
3275.82706	0.72984
3273.77325	0.73026
3271.71944	0.73062
3269.66563	0.73103
3267.61182	0.73160
3265.55801	0.73232
3263.50420	0.73293
3261.45039	0.73340
3259.39658	0.73398
3257.34277	0.73458
3255.28896	0.73507
3253.23515	0.73562
3251.18134	0.73615
3249.12753	0.73657
3247.07372	0.73708
3245.01991	0.73766
3242.96610	0.73822
3240.91229	0.73897
3238.85848	0.73995
3236.80467	0.74085
3234.75086	0.74164
3232.69705	0.74250
3230.64324	0.74336
3228.58943	0.74413
3226.53562	0.74498
3224.48181	0.74589
3222.42800	0.74682
3220.37419	0.74784
3218.32038	0.74887
3216.26657	0.74991
3214.21276	0.75102
3212.15895	0.75236
3210.10514	0.75380
3208.05133	0.75483
3205.99752	0.75580
3203.94371	0.75730
3201.88990	0.75903
3199.83609	0.76056
3197.78228	0.76186
3195.72847	0.76301
3193.67466	0.76405
3191.62085	0.76511
3189.56704	0.76639
3187.51323	0.76808
3185.45942	0.76996
3183.40561	0.77146
3181.35180	0.77257
3179.29799	0.77381
3177.24418	0.77542
3175.19037	0.77714
3173.13656	0.77861
3171.08275	0.77987
3169.02894	0.78120
3166.97513	0.78277
3164.92132	0.78451
3162.86751	0.78631
3160.81370	0.78795
3158.75989	0.78939
3156.70608	0.79090
3154.65227	0.79247
3152.59846	0.79388
3150.54465	0.79525
3148.49084	0.79680
3146.43703	0.79855
3144.38322	0.80040
3142.32941	0.80215
3140.27560	0.80375
3138.22179	0.80530
3136.16798	0.80684
3134.11417	0.80828
3132.06036	0.80956
3130.00655	0.81081
3127.95274	0.81217
3125.89893	0.81365
3123.84512	0.81537
3121.79131	0.81726
3119.73750	0.81886
3117.68369	0.82030
3115.62988	0.82193
3113.57607	0.82342
3111.52226	0.82468
3109.46845	0.82595
3107.41464	0.82727
3105.36083	0.82854
3103.30702	0.82975
3101.25321	0.83092
3099.19940	0.83194
3097.14559	0.83308
3095.09177	0.83462
3093.03796	0.83615
3090.98415	0.83740
3088.93034	0.83851
3086.87653	0.83955
3084.82272	0.84066
3082.76891	0.84199
3080.71510	0.84331
3078.66129	0.84462
3076.60748	0.84603
3074.55367	0.84742
3072.49986	0.84867
3070.44605	0.84977
3068.39224	0.85065
3066.33843	0.85153
3064.28462	0.85268
3062.23081	0.85390
3060.17700	0.85501
3058.12319	0.85600
3056.06938	0.85701
3054.01557	0.85808
3051.96176	0.85908
3049.90795	0.86008
3047.85414	0.86125
3045.80033	0.86252
3043.74652	0.86364
3041.69271	0.86460
3039.63890	0.86544
3037.58509	0.86632
3035.53128	0.86749
3033.47747	0.86872
3031.42366	0.86967
3029.36985	0.87042
3027.31604	0.87116
3025.26223	0.87197
3023.20842	0.87284
3021.15461	0.87389
3019.10080	0.87509
3017.04699	0.87614
3014.99318	0.87705
3012.93937	0.87796
3010.88556	0.87878
3008.83175	0.87936
3006.77794	0.87975
3004.72413	0.88040
3002.67032	0.88133
3000.61651	0.88217
2998.56270	0.88297
2996.50889	0.88380
2994.45508	0.88443
2992.40127	0.88498
2990.34746	0.88556
2988.29365	0.88603
2986.23984	0.88645
2984.18603	0.88689
2982.13222	0.88732
2980.07841	0.88771
2978.02460	0.88795
2975.97079	0.88796
2973.91698	0.88786
2971.86317	0.88770
2969.80936	0.88746
2967.75555	0.88711
2965.70174	0.88656
2963.64793	0.88577
2961.59412	0.88479
2959.54031	0.88382
2957.48650	0.88279
2955.43269	0.88146
2953.37888	0.87984
2951.32507	0.87788
2949.27126	0.87520
2947.21745	0.87147
2945.16364	0.86635
2943.10983	0.85931
2941.05602	0.85017
2939.00221	0.83891
2936.94840	0.82510
2934.89459	0.80836
2932.84078	0.78848
2930.78697	0.76498
2928.73316	0.73725
2926.67935	0.70415
2924.62554	0.66424
2922.57173	0.61765
2920.51792	0.56746
2918.46411	0.52026
2916.41030	0.48586
2914.35649	0.47437
2912.30268	0.48831
2910.24887	0.51937
2908.19506	0.55588
2906.14125	0.59021
2904.08744	0.61919
2902.03363	0.64236
2899.97982	0.66093
2897.92601	0.67660
2895.87220	0.69079
2893.81839	0.70447
2891.76458	0.71820
2889.71077	0.73209
2887.65696	0.74608
2885.60315	0.76014
2883.54934	0.77425
2881.49553	0.78846
2879.44172	0.80248
2877.38791	0.81581
2875.33410	0.82775
2873.28029	0.83736
2871.22648	0.84407
2869.17267	0.84776
2867.11886	0.84842
2865.06505	0.84550
2863.01124	0.83787
2860.95743	0.82395
2858.90362	0.80104
2856.84981	0.76537
2854.79600	0.71269
2852.74219	0.64257
2850.68838	0.56843
2848.63457	0.51982
2846.58076	0.52075
2844.52695	0.56560
2842.47314	0.62822
2840.41933	0.68728
2838.36552	0.73465
2836.31171	0.77029
2834.25790	0.79670
2832.20409	0.81635
2830.15028	0.83127
2828.09647	0.84297
2826.04266	0.85240
2823.98885	0.86012
2821.93504	0.86650
2819.88123	0.87185
2817.82742	0.87652
2815.77361	0.88058
2813.71980	0.88405
2811.66599	0.88707
2809.61218	0.88978
2807.55837	0.89227
2805.50456	0.89469
2803.45075	0.89700
2801.39693	0.89902
2799.34312	0.90082
2797.28931	0.90246
2795.23550	0.90395
2793.18169	0.90552
2791.12788	0.90727
2789.07407	0.90883
2787.02026	0.91000
2784.96645	0.91111
2782.91264	0.91249
2780.85883	0.91382
2778.80502	0.91483
2776.75121	0.91571
2774.69740	0.91678
2772.64359	0.91793
2770.58978	0.91896
2768.53597	0.91984
2766.48216	0.92051
2764.42835	0.92103
2762.37454	0.92155
2760.32073	0.92204
2758.26692	0.92264
2756.21311	0.92331
2754.15930	0.92381
2752.10549	0.92425
2750.05168	0.92482
2747.99787	0.92539
2745.94406	0.92590
2743.89025	0.92628
2741.83644	0.92656
2739.78263	0.92693
2737.72882	0.92739
2735.67501	0.92773
2733.62120	0.92791
2731.56739	0.92821
2729.51358	0.92875
2727.45977	0.92930
2725.40596	0.92981
2723.35215	0.93022
2721.29834	0.93052
2719.24453	0.93104
2717.19072	0.93160
2715.13691	0.93182
2713.08310	0.93186
2711.02929	0.93201
2708.97548	0.93234
2706.92167	0.93278
2704.86786	0.93315
2702.81405	0.93341
2700.76024	0.93368
2698.70643	0.93400
2696.65262	0.93434
2694.59881	0.93469
2692.54500	0.93499
2690.49119	0.93516
2688.43738	0.93526
2686.38357	0.93538
2684.32976	0.93551
2682.27595	0.93565
2680.22214	0.93582
2678.16833	0.93581
2676.11452	0.93552
2674.06071	0.93533
2672.00690	0.93544
2669.95309	0.93554
2667.89928	0.93547
2665.84547	0.93532
2663.79166	0.93519
2661.73785	0.93513
2659.68404	0.93512
2657.63023	0.93523
2655.57642	0.93543
2653.52261	0.93554
2651.46880	0.93569
2649.41499	0.93592
2647.36118	0.93602
2645.30737	0.93610
2643.25356	0.93630
2641.19975	0.93646
2639.14594	0.93650
2637.09213	0.93669
2635.03832	0.93693
2632.98451	0.93705
2630.93070	0.93725
2628.87689	0.93756
2626.82308	0.93782
2624.76927	0.93818
2622.71546	0.93873
2620.66165	0.93904
2618.60784	0.93920
2616.55403	0.93969
2614.50022	0.94032
2612.44641	0.94068
2610.39260	0.94072
2608.33879	0.94085
2606.28498	0.94125
2604.23117	0.94156
2602.17736	0.94166
2600.12355	0.94179
2598.06974	0.94196
2596.01593	0.94219
2593.96212	0.94242
2591.90831	0.94266
2589.85450	0.94309
2587.80069	0.94346
2585.74688	0.94337
2583.69307	0.94325
2581.63926	0.94340
2579.58545	0.94353
2577.53164	0.94353
2575.47783	0.94342
2573.42402	0.94342
2571.37021	0.94355
2569.31640	0.94366
2567.26259	0.94396
2565.20878	0.94425
2563.15497	0.94427
2561.10116	0.94435
2559.04735	0.94458
2556.99354	0.94468
2554.93973	0.94477
2552.88592	0.94483
2550.83211	0.94451
2548.77830	0.94411
2546.72449	0.94433
2544.67068	0.94508
2542.61687	0.94558
2540.56306	0.94553
2538.50925	0.94544
2536.45544	0.94545
2534.40163	0.94531
2532.34782	0.94536
2530.29401	0.94555
2528.24020	0.94538
2526.18639	0.94506
2524.13258	0.94495
2522.07877	0.94485
2520.02496	0.94474
2517.97115	0.94472
2515.91734	0.94474
2513.86353	0.94520
2511.80972	0.94577
2509.75591	0.94591
2507.70210	0.94598
2505.64828	0.94582
2503.59447	0.94543
2501.54066	0.94548
2499.48685	0.94570
2497.43304	0.94562
2495.37923	0.94563
2493.32542	0.94598
2491.27161	0.94619
2489.21780	0.94605
2487.16399	0.94601
2485.11018	0.94625
2483.05637	0.94659
2481.00256	0.94683
2478.94875	0.94688
2476.89494	0.94679
2474.84113	0.94670
2472.78732	0.94655
2470.73351	0.94613
2468.67970	0.94573
2466.62589	0.94574
2464.57208	0.94600
2462.51827	0.94622
2460.46446	0.94607
2458.41065	0.94576
2456.35684	0.94592
2454.30303	0.94620
2452.24922	0.94628
2450.19541	0.94635
2448.14160	0.94649
2446.08779	0.94670
2444.03398	0.94687
2441.98017	0.94679
2439.92636	0.94660
2437.87255	0.94658
2435.81874	0.94679
2433.76493	0.94697
2431.71112	0.94675
2429.65731	0.94614
2427.60350	0.94591
2425.54969	0.94639
2423.49588	0.94680
2421.44207	0.94661
2419.38826	0.94645
2417.33445	0.94664
2415.28064	0.94689
2413.22683	0.94707
2411.17302	0.94686
2409.11921	0.94626
2407.06540	0.94609
2405.01159	0.94659
2402.95778	0.94695
2400.90397	0.94693
2398.85016	0.94688
2396.79635	0.94683
2394.74254	0.94675
2392.68873	0.94664
2390.63492	0.94651
2388.58111	0.94644
2386.52730	0.94661
2384.47349	0.94675
2382.41968	0.94644
2380.36587	0.94601
2378.31206	0.94591
2376.25825	0.94619
2374.20444	0.94643
2372.15063	0.94673
2370.09682	0.94743
2368.04301	0.94785
2365.98920	0.94754
2363.93539	0.94716
2361.88158	0.94714
2359.82777	0.94700
2357.77396	0.94651
2355.72015	0.94578
2353.66634	0.94494
2351.61253	0.94422
2349.55872	0.94368
2347.50491	0.94353
2345.45110	0.94371
2343.39729	0.94367
2341.34348	0.94315
2339.28967	0.94293
2337.23586	0.94321
2335.18205	0.94330
2333.12824	0.94333
2331.07443	0.94372
2329.02062	0.94411
2326.96681	0.94383
2324.91300	0.94311
2322.85919	0.94276
2320.80538	0.94276
2318.75157	0.94283
2316.69776	0.94290
2314.64395	0.94282
2312.59014	0.94280
2310.53633	0.94336
2308.48252	0.94416
2306.42871	0.94441
2304.37490	0.94435
2302.32109	0.94445
2300.26728	0.94445
2298.21347	0.94433
2296.15966	0.94445
2294.10585	0.94453
2292.05204	0.94431
2289.99823	0.94403
2287.94442	0.94357
2285.89061	0.94313
2283.83680	0.94332
2281.78299	0.94382
2279.72918	0.94423
2277.67537	0.94466
2275.62156	0.94462
2273.56775	0.94419
2271.51394	0.94408
2269.46013	0.94392
2267.40632	0.94386
2265.35251	0.94481
2263.29870	0.94613
2261.24489	0.94632
2259.19108	0.94575
2257.13727	0.94547
2255.08346	0.94544
2253.02965	0.94552
2250.97584	0.94551
2248.92203	0.94527
2246.86822	0.94523
2244.81441	0.94530
2242.76060	0.94481
2240.70679	0.94445
2238.65298	0.94482
2236.59917	0.94470
2234.54536	0.94380
2232.49155	0.94365
2230.43774	0.94491
2228.38393	0.94610
2226.33012	0.94581
2224.27631	0.94480
2222.22250	0.94421
2220.16869	0.94430
2218.11488	0.94460
2216.06107	0.94464
2214.00726	0.94472
2211.95344	0.94542
2209.89963	0.94593
2207.84582	0.94567
2205.79201	0.94573
2203.73820	0.94597
2201.68439	0.94574
2199.63058	0.94521
2197.57677	0.94444
2195.52296	0.94388
2193.46915	0.94430
2191.41534	0.94531
2189.36153	0.94545
2187.30772	0.94509
2185.25391	0.94542
2183.20010	0.94633
2181.14629	0.94688
2179.09248	0.94598
2177.03867	0.94421
2174.98486	0.94264
2172.93105	0.94149
2170.87724	0.94189
2168.82343	0.94379
2166.76962	0.94523
2164.71581	0.94542
2162.66200	0.94479
2160.60819	0.94581
2158.55438	0.94918
2156.50057	0.95091
2154.44676	0.95008
2152.39295	0.94865
2150.33914	0.94695
2148.28533	0.94542
2146.23152	0.94514
2144.17771	0.94505
2142.12390	0.94415
2140.07009	0.94350
2138.01628	0.94393
2135.96247	0.94500
2133.90866	0.94570
2131.85485	0.94519
2129.80104	0.94391
2127.74723	0.94349
2125.69342	0.94385
2123.63961	0.94341
2121.58580	0.94242
2119.53199	0.94203
2117.47818	0.94192
2115.42437	0.94139
2113.37056	0.94080
2111.31675	0.94101
2109.26294	0.94152
2107.20913	0.94142
2105.15532	0.94096
2103.10151	0.94034
2101.04770	0.93978
2098.99389	0.94002
2096.94008	0.94088
2094.88627	0.94128
2092.83246	0.94127
2090.77865	0.94131
2088.72484	0.94127
2086.67103	0.94121
2084.61722	0.94103
2082.56341	0.94061
2080.50960	0.94053
2078.45579	0.94096
2076.40198	0.94129
2074.34817	0.94154
2072.29436	0.94196
2070.24055	0.94263
2068.18674	0.94323
2066.13293	0.94304
2064.07912	0.94256
2062.02531	0.94283
2059.97150	0.94327
2057.91769	0.94299
2055.86388	0.94237
2053.81007	0.94161
2051.75626	0.94057
2049.70245	0.94020
2047.64864	0.94116
2045.59483	0.94225
2043.54102	0.94189
2041.48721	0.93975
2039.43340	0.93838
2037.37959	0.94010
2035.32578	0.94330
2033.27197	0.94521
2031.21816	0.94477
2029.16435	0.94304
2027.11054	0.94176
2025.05673	0.94138
2023.00292	0.94133
2020.94911	0.94160
2018.89530	0.94278
2016.84149	0.94466
2014.78768	0.94617
2012.73387	0.94679
2010.68006	0.94614
2008.62625	0.94408
2006.57244	0.94269
2004.51863	0.94293
2002.46482	0.94330
2000.41101	0.94352
1998.35720	0.94387
1996.30339	0.94389
1994.24958	0.94421
1992.19577	0.94487
1990.14196	0.94370
1988.08815	0.94101
1986.03434	0.93939
1983.98053	0.93959
1981.92672	0.94054
1979.87291	0.94157
1977.81910	0.94280
1975.76529	0.94351
1973.71148	0.94338
1971.65767	0.94366
1969.60386	0.94450
1967.55005	0.94456
1965.49624	0.94360
1963.44243	0.94263
1961.38862	0.94185
1959.33481	0.94166
1957.28100	0.94275
1955.22719	0.94328
1953.17338	0.94274
1951.11957	0.94247
1949.06576	0.94184
1947.01195	0.94058
1944.95814	0.93995
1942.90433	0.94058
1940.85052	0.94112
1938.79671	0.94066
1936.74290	0.93986
1934.68909	0.93887
1932.63528	0.93841
1930.58147	0.93902
1928.52766	0.93931
1926.47385	0.93875
1924.42004	0.93827
1922.36623	0.93797
1920.31242	0.93773
1918.25861	0.93761
1916.20479	0.93745
1914.15098	0.93740
1912.09717	0.93724
1910.04336	0.93680
1907.98955	0.93647
1905.93574	0.93652
1903.88193	0.93654
1901.82812	0.93590
1899.77431	0.93489
1897.72050	0.93461
1895.66669	0.93511
1893.61288	0.93516
1891.55907	0.93459
1889.50526	0.93422
1887.45145	0.93373
1885.39764	0.93299
1883.34383	0.93241
1881.29002	0.93192
1879.23621	0.93147
1877.18240	0.93136
1875.12859	0.93169
1873.07478	0.93198
1871.02097	0.93221
1868.96716	0.93260
1866.91335	0.93248
1864.85954	0.93190
1862.80573	0.93154
1860.75192	0.93127
1858.69811	0.93075
1856.64430	0.93015
1854.59049	0.92976
1852.53668	0.92950
1850.48287	0.92926
1848.42906	0.92927
1846.37525	0.92950
1844.32144	0.92918
1842.26763	0.92807
1840.21382	0.92734
1838.16001	0.92703
1836.10620	0.92630
1834.05239	0.92549
1831.99858	0.92538
1829.94477	0.92576
1827.89096	0.92590
1825.83715	0.92559
1823.78334	0.92496
1821.72953	0.92429
1819.67572	0.92384
1817.62191	0.92348
1815.56810	0.92301
1813.51429	0.92246
1811.46048	0.92182
1809.40667	0.92092
1807.35286	0.91995
1805.29905	0.91952
1803.24524	0.91962
1801.19143	0.91950
1799.13762	0.91877
1797.08381	0.91788
1795.03000	0.91744
1792.97619	0.91724
1790.92238	0.91629
1788.86857	0.91514
1786.81476	0.91455
1784.76095	0.91409
1782.70714	0.91333
1780.65333	0.91231
1778.59952	0.91137
1776.54571	0.91101
1774.49190	0.91110
1772.43809	0.91061
1770.38428	0.90925
1768.33047	0.90804
1766.27666	0.90700
1764.22285	0.90620
1762.16904	0.90560
1760.11523	0.90488
1758.06142	0.90408
1756.00761	0.90300
1753.95380	0.90199
1751.89999	0.90151
1749.84618	0.90097
1747.79237	0.89983
1745.73856	0.89855
1743.68475	0.89739
1741.63094	0.89624
1739.57713	0.89500
1737.52332	0.89403
1735.46951	0.89341
1733.41570	0.89203
1731.36189	0.88982
1729.30808	0.88772
1727.25427	0.88578
1725.20046	0.88390
1723.14665	0.88192
1721.09284	0.88020
1719.03903	0.87881
1716.98522	0.87710
1714.93141	0.87500
1712.87760	0.87321
1710.82379	0.87176
1708.76998	0.87066
1706.71617	0.86987
1704.66236	0.86904
1702.60855	0.86823
1700.55474	0.86711
1698.50093	0.86512
1696.44712	0.86284
1694.39331	0.86053
1692.33950	0.85897
1690.28569	0.85769
1688.23188	0.85604
1686.17807	0.85436
1684.12426	0.85176
1682.07045	0.84858
1680.01664	0.84621
1677.96283	0.84401
1675.90902	0.84133
1673.85521	0.83823
1671.80140	0.83559
1669.74759	0.83276
1667.69378	0.82944
1665.63997	0.82677
1663.58616	0.82417
1661.53235	0.82092
1659.47854	0.81793
1657.42473	0.81587
1655.37092	0.81443
1653.31711	0.81175
1651.26330	0.80816
1649.20949	0.80631
1647.15568	0.80474
1645.10187	0.80271
1643.04806	0.80100
1640.99425	0.79989
1638.94044	0.79962
1636.88663	0.80028
1634.83282	0.80101
1632.77901	0.80128
1630.72520	0.80215
1628.67139	0.80419
1626.61758	0.80672
1624.56377	0.80955
1622.50996	0.81333
1620.45614	0.81704
1618.40233	0.82065
1616.34852	0.82516
1614.29471	0.82926
1612.24090	0.83282
1610.18709	0.83689
1608.13328	0.84125
1606.07947	0.84529
1604.02566	0.84891
1601.97185	0.85236
1599.91804	0.85572
1597.86423	0.85895
1595.81042	0.86202
1593.75661	0.86481
1591.70280	0.86737
1589.64899	0.86991
1587.59518	0.87241
1585.54137	0.87474
1583.48756	0.87683
1581.43375	0.87874
1579.37994	0.88059
1577.32613	0.88278
1575.27232	0.88513
1573.21851	0.88664
1571.16470	0.88782
1569.11089	0.88910
1567.05708	0.89018
1565.00327	0.89129
1562.94946	0.89256
1560.89565	0.89431
1558.84184	0.89677
1556.78803	0.89742
1554.73422	0.89728
1552.68041	0.89762
1550.62660	0.89827
1548.57279	0.89888
1546.51898	0.89954
1544.46517	0.90072
1542.41136	0.90236
1540.35755	0.90354
1538.30374	0.90313
1536.24993	0.90271
1534.19612	0.90301
1532.14231	0.90330
1530.08850	0.90339
1528.03469	0.90395
1525.98088	0.90466
1523.92707	0.90496
1521.87326	0.90520
1519.81945	0.90551
1517.76564	0.90584
1515.71183	0.90591
1513.65802	0.90570
1511.60421	0.90581
1509.55040	0.90681
1507.49659	0.90833
1505.44278	0.90785
1503.38897	0.90633
1501.33516	0.90556
1499.28135	0.90530
1497.22754	0.90517
1495.17373	0.90481
1493.11992	0.90461
1491.06611	0.90479
1489.01230	0.90447
1486.95849	0.90315
1484.90468	0.90164
1482.85087	0.89959
1480.79706	0.89529
1478.74325	0.88452
1476.68944	0.85505
1474.63563	0.79683
1472.58182	0.73994
1470.52801	0.73577
1468.47420	0.76032
1466.42039	0.77674
1464.36658	0.77605
1462.31277	0.77806
1460.25896	0.79917
1458.20515	0.83190
1456.15134	0.85712
1454.09753	0.86676
1452.04372	0.87193
1449.98991	0.87622
1447.93610	0.87923
1445.88229	0.88090
1443.82848	0.88200
1441.77467	0.88309
1439.72086	0.88434
1437.66705	0.88600
1435.61324	0.88752
1433.55943	0.88834
1431.50562	0.88934
1429.45181	0.89062
1427.39800	0.89175
1425.34419	0.89273
1423.29038	0.89350
1421.23657	0.89402
1419.18276	0.89447
1417.12895	0.89440
1415.07514	0.89404
1413.02133	0.89373
1410.96752	0.89341
1408.91371	0.89326
1406.85990	0.89348
1404.80609	0.89376
1402.75228	0.89378
1400.69847	0.89393
1398.64466	0.89423
1396.59085	0.89420
1394.53704	0.89368
1392.48323	0.89311
1390.42942	0.89290
1388.37561	0.89287
1386.32180	0.89233
1384.26799	0.89126
1382.21418	0.89028
1380.16037	0.88941
1378.10656	0.88847
1376.05275	0.88758
1373.99894	0.88662
1371.94513	0.88555
1369.89132	0.88467
1367.83751	0.88410
1365.78370	0.88403
1363.72989	0.88442
1361.67608	0.88461
1359.62227	0.88443
1357.56846	0.88415
1355.51465	0.88369
1353.46084	0.88311
1351.40703	0.88269
1349.35322	0.88254
1347.29941	0.88267
1345.24560	0.88301
1343.19179	0.88341
1341.13798	0.88363
1339.08417	0.88339
1337.03036	0.88282
1334.97655	0.88260
1332.92274	0.88280
1330.86893	0.88292
1328.81512	0.88284
1326.76130	0.88270
1324.70749	0.88241
1322.65368	0.88198
1320.59987	0.88155
1318.54606	0.88103
1316.49225	0.88049
1314.43844	0.88005
1312.38463	0.87954
1310.33082	0.87889
1308.27701	0.87815
1306.22320	0.87747
1304.16939	0.87708
1302.11558	0.87691
1300.06177	0.87665
1298.00796	0.87607
1295.95415	0.87537
1293.90034	0.87495
1291.84653	0.87473
1289.79272	0.87442
1287.73891	0.87400
1285.68510	0.87344
1283.63129	0.87258
1281.57748	0.87152
1279.52367	0.87060
1277.46986	0.86978
1275.41605	0.86880
1273.36224	0.86761
1271.30843	0.86641
1269.25462	0.86512
1267.20081	0.86346
1265.14700	0.86152
1263.09319	0.85957
1261.03938	0.85734
1258.98557	0.85454
1256.93176	0.85127
1254.87795	0.84773
1252.82414	0.84392
1250.77033	0.83968
1248.71652	0.83507
1246.66271	0.83022
1244.60890	0.82539
1242.55509	0.82060
1240.50128	0.81561
1238.44747	0.81032
1236.39366	0.80478
1234.33985	0.79930
1232.28604	0.79413
1230.23223	0.78911
1228.17842	0.78404
1226.12461	0.77891
1224.07080	0.77383
1222.01699	0.76896
1219.96318	0.76433
1217.90937	0.75990
1215.85556	0.75548
1213.80175	0.75098
1211.74794	0.74660
1209.69413	0.74259
1207.64032	0.73895
1205.58651	0.73552
1203.53270	0.73205
1201.47889	0.72851
1199.42508	0.72527
1197.37127	0.72258
1195.31746	0.72020
1193.26365	0.71810
1191.20984	0.71630
1189.15603	0.71467
1187.10222	0.71319
1185.04841	0.71185
1182.99460	0.71057
1180.94079	0.70932
1178.88698	0.70819
1176.83317	0.70746
1174.77936	0.70705
1172.72555	0.70669
1170.67174	0.70634
1168.61793	0.70593
1166.56412	0.70542
1164.51031	0.70508
1162.45650	0.70516
1160.40269	0.70530
1158.34888	0.70516
1156.29507	0.70481
1154.24126	0.70424
1152.18745	0.70359
1150.13364	0.70305
1148.07983	0.70234
1146.02602	0.70109
1143.97221	0.69945
1141.91840	0.69783
1139.86459	0.69633
1137.81078	0.69449
1135.75697	0.69186
1133.70316	0.68874
1131.64935	0.68565
1129.59554	0.68237
1127.54173	0.67847
1125.48792	0.67410
1123.43411	0.66954
1121.38030	0.66480
1119.32649	0.66010
1117.27268	0.65597
1115.21887	0.65245
1113.16506	0.64918
1111.11125	0.64590
1109.05744	0.64234
1107.00363	0.63832
1104.94982	0.63398
1102.89601	0.62939
1100.84220	0.62461
1098.78839	0.62005
1096.73458	0.61609
1094.68077	0.61291
1092.62696	0.61040
1090.57315	0.60821
1088.51934	0.60644
1086.46553	0.60557
1084.41172	0.60564
1082.35791	0.60620
1080.30410	0.60682
1078.25029	0.60751
1076.19648	0.60848
1074.14267	0.60964
1072.08886	0.61071
1070.03505	0.61133
1067.98124	0.61126
1065.92743	0.61046
1063.87362	0.60870
1061.81981	0.60580
1059.76600	0.60189
1057.71219	0.59694
1055.65838	0.59119
1053.60457	0.58550
1051.55076	0.58074
1049.49695	0.57724
1047.44314	0.57474
1045.38933	0.57284
1043.33552	0.57142
1041.28171	0.57060
1039.22790	0.57082
1037.17409	0.57256
1035.12028	0.57567
1033.06647	0.57978
1031.01265	0.58508
1028.95884	0.59154
1026.90503	0.59848
1024.85122	0.60514
1022.79741	0.61095
1020.74360	0.61558
1018.68979	0.61891
1016.63598	0.62108
1014.58217	0.62276
1012.52836	0.62456
1010.47455	0.62672
1008.42074	0.62979
1006.36693	0.63456
1004.31312	0.64124
1002.25931	0.64948
1000.20550	0.65856
998.15169	0.66772
996.09788	0.67675
994.04407	0.68562
991.99026	0.69399
989.93645	0.70124
987.88264	0.70714
985.82883	0.71196
983.77502	0.71606
981.72121	0.71959
979.66740	0.72258
977.61359	0.72523
975.55978	0.72787
973.50597	0.73050
971.45216	0.73300
969.39835	0.73542
967.34454	0.73768
965.29073	0.73968
963.23692	0.74143
961.18311	0.74277
959.12930	0.74401
957.07549	0.74547
955.02168	0.74689
952.96787	0.74796
950.91406	0.74856
948.86025	0.74887
946.80644	0.74928
944.75263	0.74994
942.69882	0.75037
940.64501	0.75007
938.59120	0.74936
936.53739	0.74880
934.48358	0.74871
932.42977	0.74866
930.37596	0.74767
928.32215	0.74576
926.26834	0.74367
924.21453	0.74140
922.16072	0.73866
920.10691	0.73520
918.05310	0.73083
915.99929	0.72622
913.94548	0.72263
911.89167	0.72088
909.83786	0.72124
907.78405	0.72333
905.73024	0.72608
903.67643	0.72881
901.62262	0.73156
899.56881	0.73426
897.51500	0.73648
895.46119	0.73816
893.40738	0.73953
891.35357	0.74059
889.29976	0.74143
887.24595	0.74245
885.19214	0.74375
883.13833	0.74474
881.08452	0.74507
879.03071	0.74568
876.97690	0.74720
874.92309	0.74885
872.86928	0.75022
870.81547	0.75137
868.76166	0.75217
866.70785	0.75297
864.65404	0.75429
862.60023	0.75601
860.54642	0.75730
858.49261	0.75765
856.43880	0.75787
854.38499	0.75859
852.33118	0.75917
850.27737	0.75886
848.22356	0.75789
846.16975	0.75724
844.11594	0.75714
842.06213	0.75706
840.00832	0.75662
837.95451	0.75540
835.90070	0.75336
833.84689	0.75131
831.79308	0.75006
829.73927	0.74948
827.68546	0.74844
825.63165	0.74651
823.57784	0.74452
821.52403	0.74277
819.47022	0.74088
817.41641	0.73882
815.36260	0.73638
813.30879	0.73336
811.25498	0.73032
809.20117	0.72746
807.14736	0.72425
805.09355	0.72040
803.03974	0.71593
800.98593	0.71139
798.93212	0.70760
796.87831	0.70476
794.82450	0.70305
792.77069	0.70230
790.71688	0.70161
788.66307	0.70083
786.60926	0.70061
784.55545	0.70062
782.50164	0.70003
780.44783	0.69911
778.39402	0.69819
776.34021	0.69719
774.28640	0.69676
772.23259	0.69721
770.17878	0.69772
768.12497	0.69712
766.07116	0.69544
764.01735	0.69380
761.96354	0.69244
759.90973	0.69090
757.85592	0.68896
755.80211	0.68708
753.74830	0.68572
751.69449	0.68484
749.64068	0.68410
747.58687	0.68330
745.53306	0.68263
743.47925	0.68192
741.42544	0.68085
739.37163	0.67967
737.31781	0.67795
735.26400	0.67080
733.21019	0.65059
731.15638	0.62405
729.10257	0.61297
727.04876	0.61950
724.99495	0.62261
722.94114	0.60650
720.88733	0.56935
718.83352	0.52974
716.77971	0.51549
714.72590	0.53381
712.67209	0.56789
710.61828	0.59614
708.56447	0.61178
706.51066	0.61902
704.45685	0.62221
702.40304	0.62379
700.34923	0.62388
698.29542	0.62247
696.24161	0.62103
694.18780	0.62020
692.13399	0.61970
690.08018	0.61944
688.02637	0.61884
685.97256	0.61796
683.91875	0.61761
681.86494	0.61791
679.81113	0.61844
677.75732	0.61867
675.70351	0.61819
673.64970	0.61722
671.59589	0.61656
669.54208	0.61698
667.48827	0.61828
665.43446	0.61850
663.38065	0.61784
661.32684	0.61747
659.27303	0.61738
657.21922	0.61683
655.16541	0.61637
653.11160	0.61612
651.05779	0.61479
649.00398	0.61272
646.95017	0.61166
644.89636	0.61163
642.84255	0.61102
640.78874	0.60884
638.73493	0.60603
636.68112	0.60413
634.62731	0.60355
632.57350	0.60323
630.51969	0.60202
628.46588	0.59981
626.41207	0.59702
624.35826	0.59496
622.30445	0.59428
620.25064	0.59285
618.19683	0.58940
616.14302	0.58618
614.08921	0.58474
612.03540	0.58392
609.98159	0.58214
607.92778	0.57864
605.87397	0.57422
603.82016	0.57050
601.76635	0.56790
599.71254	0.56561
597.65873	0.56286
595.60492	0.55917
593.55111	0.55498
591.49730	0.55144
589.44349	0.54947
587.38968	0.54864
585.33587	0.54747
583.28206	0.54576
581.22825	0.54441
579.17444	0.54396
577.12063	0.54423
575.06682	0.54438
573.01301	0.54349
570.95920	0.54192
568.90539	0.54077
566.85158	0.54077
564.79777	0.54176
562.74396	0.54198
560.69015	0.54005
558.63634	0.53683
556.58253	0.53417
554.52872	0.53300
552.47491	0.53265
550.42110	0.53124
548.36729	0.52743
546.31348	0.52247
544.25967	0.51881
542.20586	0.51744
540.15205	0.51694
538.09824	0.51491
536.04443	0.51187
533.99062	0.51043
531.93681	0.51142
529.88300	0.51331
527.82919	0.51510
525.77538	0.51760
523.72157	0.52063
521.66776	0.52363
519.61395	0.52763
517.56014	0.53195
515.50633	0.53433
513.45252	0.53548
511.39871	0.53765
509.34490	0.54081
507.29109	0.54339
505.23728	0.54505
503.18347	0.54561
501.12966	0.54463
499.07585	0.54353
497.02204	0.54324
494.96823	0.54260
492.91442	0.54007
490.86061	0.53576
488.80680	0.53095
486.75299	0.52608
484.69918	0.52093
482.64537	0.51517
480.59156	0.50824
478.53775	0.50004
476.48394	0.49157
474.43013	0.48387
472.37632	0.47648
470.32251	0.46890
468.26870	0.46233
466.21489	0.45868
464.16108	0.45973
462.10727	0.46432
460.05346	0.46931
457.99965	0.47420
455.94584	0.47839
453.89203	0.48180
451.83822	0.48738
449.78441	0.49435
447.73060	0.49800
445.67679	0.49630
443.62298	0.49288
441.56916	0.49303
439.51535	0.49578
437.46154	0.49656
435.40773	0.49416
433.35392	0.49009
431.30011	0.48730
429.24630	0.48910
427.19249	0.49479
425.13868	0.50115
423.08487	0.50565
421.03106	0.50776
418.97725	0.51099
416.92344	0.51480
414.86963	0.51673
412.81582	0.52066
410.76201	0.52608
408.70820	0.52853
406.65439	0.53240
404.60058	0.54158
402.54677	0.54732
400.49296	0.54479
398.43915	0.53936
