3996.71440	0.97724
3994.66059	0.97739
3992.60678	0.97798
3990.55297	0.97840
3988.49916	0.97839
3986.44535	0.97805
3984.39154	0.97738
3982.33773	0.97697
3980.28391	0.97705
3978.23010	0.97708
3976.17629	0.97712
3974.12248	0.97738
3972.06867	0.97745
3970.01486	0.97732
3967.96105	0.97731
3965.90724	0.97719
3963.85343	0.97695
3961.79962	0.97708
3959.74581	0.97747
3957.69200	0.97760
3955.63819	0.97746
3953.58438	0.97729
3951.53057	0.97705
3949.47676	0.97669
3947.42295	0.97676
3945.36914	0.97710
3943.31533	0.97713
3941.26152	0.97722
3939.20771	0.97749
3937.15390	0.97747
3935.10009	0.97726
3933.04628	0.97724
3930.99247	0.97732
3928.93866	0.97729
3926.88485	0.97719
3924.83104	0.97724
3922.77723	0.97741
3920.72342	0.97747
3918.66961	0.97744
3916.61580	0.97740
3914.56199	0.97740
3912.50818	0.97729
3910.45437	0.97712
3908.40056	0.97713
3906.34675	0.97724
3904.29294	0.97742
3902.23913	0.97738
3900.18532	0.97704
3898.13151	0.97692
3896.07770	0.97691
3894.02389	0.97689
3891.97008	0.97708
3889.91627	0.97720
3887.86246	0.97698
3885.80865	0.97671
3883.75484	0.97656
3881.70103	0.97654
3879.64722	0.97676
3877.59341	0.97699
3875.53960	0.97704
3873.48579	0.97706
3871.43198	0.97694
3869.37817	0.97688
3867.32436	0.97706
3865.27055	0.97698
3863.21674	0.97674
3861.16293	0.97657
3859.10912	0.97645
3857.05531	0.97648
3855.00150	0.97667
3852.94769	0.97662
3850.89388	0.97643
3848.84007	0.97644
3846.78626	0.97645
3844.73245	0.97628
3842.67864	0.97587
3840.62483	0.97554
3838.57102	0.97559
3836.51721	0.97566
3834.46340	0.97560
3832.40959	0.97568
3830.35578	0.97590
3828.30197	0.97609
3826.24816	0.97642
3824.19435	0.97688
3822.14054	0.97684
3820.08673	0.97606
3818.03292	0.97559
3815.97911	0.97572
3813.92530	0.97576
3811.87149	0.97559
3809.81768	0.97562
3807.76387	0.97562
3805.71006	0.97542
3803.65625	0.97533
3801.60244	0.97501
3799.54863	0.97472
3797.49482	0.97492
3795.44101	0.97487
3793.38720	0.97450
3791.33339	0.97441
3789.27958	0.97458
3787.22577	0.97462
3785.17196	0.97432
3783.11815	0.97405
3781.06434	0.97417
3779.01053	0.97450
3776.95672	0.97442
3774.90291	0.97402
3772.84910	0.97386
3770.79529	0.97379
3768.74148	0.97367
3766.68767	0.97380
3764.63386	0.97417
3762.58005	0.97420
3760.52624	0.97364
3758.47243	0.97316
3756.41862	0.97321
3754.36481	0.97337
3752.31100	0.97319
3750.25719	0.97261
3748.20338	0.97240
3746.14957	0.97261
3744.09576	0.97262
3742.04195	0.97234
3739.98814	0.97208
3737.93433	0.97190
3735.88052	0.97189
3733.82671	0.97217
3731.77290	0.97217
3729.71909	0.97181
3727.66528	0.97150
3725.61147	0.97112
3723.55766	0.97045
3721.50385	0.96982
3719.45004	0.96942
3717.39623	0.96891
3715.34242	0.96824
3713.28861	0.96778
3711.23480	0.96713
3709.18099	0.96590
3707.12718	0.96486
3705.07337	0.96413
3703.01956	0.96342
3700.96575	0.96281
3698.91194	0.96224
3696.85813	0.96132
3694.80432	0.96019
3692.75051	0.95906
3690.69670	0.95781
3688.64289	0.95658
3686.58907	0.95535
3684.53526	0.95415
3682.48145	0.95294
3680.42764	0.95133
3678.37383	0.94929
3676.32002	0.94732
3674.26621	0.94552
3672.21240	0.94358
3670.15859	0.94107
3668.10478	0.93846
3666.05097	0.93633
3663.99716	0.93429
3661.94335	0.93214
3659.88954	0.92983
3657.83573	0.92723
3655.78192	0.92411
3653.72811	0.92156
3651.67430	0.92004
3649.62049	0.91783
3647.56668	0.91390
3645.51287	0.91069
3643.45906	0.90860
3641.40525	0.90655
3639.35144	0.90406
3637.29763	0.90120
3635.24382	0.89855
3633.19001	0.89667
3631.13620	0.89506
3629.08239	0.89244
3627.02858	0.88918
3624.97477	0.88663
3622.92096	0.88445
3620.86715	0.88224
3618.81334	0.87974
3616.75953	0.87730
3614.70572	0.87525
3612.65191	0.87341
3610.59810	0.87142
3608.54429	0.86908
3606.49048	0.86648
3604.43667	0.86401
3602.38286	0.86194
3600.32905	0.86010
3598.27524	0.85808
3596.22143	0.85591
3594.16762	0.85378
3592.11381	0.85184
3590.06000	0.84996
3588.00619	0.84759
3585.95238	0.84492
3583.89857	0.84254
3581.84476	0.84032
3579.79095	0.83811
3577.73714	0.83588
3575.68333	0.83364
3573.62952	0.83140
3571.57571	0.82911
3569.52190	0.82691
3567.46809	0.82469
3565.41428	0.82230
3563.36047	0.82011
3561.30666	0.81796
3559.25285	0.81572
3557.19904	0.81345
3555.14523	0.81123
3553.09142	0.80916
3551.03761	0.80728
3548.98380	0.80525
3546.92999	0.80257
3544.87618	0.79962
3542.82237	0.79722
3540.76856	0.79534
3538.71475	0.79357
3536.66094	0.79162
3534.60713	0.78942
3532.55332	0.78722
3530.49951	0.78502
3528.44570	0.78273
3526.39189	0.78053
3524.33808	0.77839
3522.28427	0.77613
3520.23046	0.77407
3518.17665	0.77226
3516.12284	0.77032
3514.06903	0.76813
3512.01522	0.76585
3509.96141	0.76374
3507.90760	0.76190
3505.85379	0.76020
3503.79998	0.75841
3501.74617	0.75627
3499.69236	0.75400
3497.63855	0.75207
3495.58474	0.75037
3493.53093	0.74844
3491.47712	0.74627
3489.42331	0.74431
3487.36950	0.74254
3485.31569	0.74060
3483.26188	0.73863
3481.20807	0.73676
3479.15426	0.73484
3477.10045	0.73301
3475.04664	0.73120
3472.99283	0.72936
3470.93902	0.72779
3468.88521	0.72638
3466.83140	0.72481
3464.77759	0.72290
3462.72378	0.72073
3460.66997	0.71883
3458.61616	0.71726
3456.56235	0.71569
3454.50854	0.71407
3452.45473	0.71245
3450.40092	0.71088
3448.34711	0.70949
3446.29330	0.70812
3444.23949	0.70657
3442.18568	0.70506
3440.13187	0.70385
3438.07806	0.70274
3436.02425	0.70153
3433.97044	0.70034
3431.91663	0.69909
3429.86282	0.69781
3427.80901	0.69667
3425.75520	0.69558
3423.70139	0.69458
3421.64758	0.69352
3419.59377	0.69234
3417.53996	0.69142
3415.48615	0.69069
3413.43234	0.68992
3411.37853	0.68922
3409.32472	0.68839
3407.27091	0.68736
3405.21710	0.68661
3403.16329	0.68628
3401.10948	0.68571
3399.05567	0.68490
3397.00186	0.68428
3394.94805	0.68385
3392.89424	0.68353
3390.84042	0.68351
3388.78661	0.68379
3386.73280	0.68395
3384.67899	0.68361
3382.62518	0.68302
3380.57137	0.68273
3378.51756	0.68279
3376.46375	0.68294
3374.40994	0.68307
3372.35613	0.68332
3370.30232	0.68361
3368.24851	0.68385
3366.19470	0.68420
3364.14089	0.68462
3362.08708	0.68505
3360.03327	0.68545
3357.97946	0.68584
3355.92565	0.68631
3353.87184	0.68687
3351.81803	0.68736
3349.76422	0.68777
3347.71041	0.68833
3345.65660	0.68894
3343.60279	0.68957
3341.54898	0.69039
3339.49517	0.69130
3337.44136	0.69209
3335.38755	0.69282
3333.33374	0.69367
3331.27993	0.69454
3329.22612	0.69508
3327.17231	0.69554
3325.11850	0.69633
3323.06469	0.69721
3321.01088	0.69798
3318.95707	0.69870
3316.90326	0.69938
3314.84945	0.70014
3312.79564	0.70104
3310.74183	0.70187
3308.68802	0.70242
3306.63421	0.70286
3304.58040	0.70344
3302.52659	0.70420
3300.47278	0.70512
3298.41897	0.70606
3296.36516	0.70684
3294.31135	0.70747
3292.25754	0.70804
3290.20373	0.70857
3288.14992	0.70924
3286.09611	0.71004
3284.04230	0.71091
3281.98849	0.71193
3279.93468	0.71285
3277.88087	0.71347
3275.82706	0.71392
3273.77325	0.71452
3271.71944	0.71536
3269.66563	0.71622
3267.61182	0.71693
3265.55801	0.71748
3263.50420	0.71810
3261.45039	0.71902
3259.39658	0.72016
3257.34277	0.72124
3255.28896	0.72217
3253.23515	0.72309
3251.18134	0.72393
3249.12753	0.72466
3247.07372	0.72572
3245.01991	0.72695
3242.96610	0.72808
3240.91229	0.72920
3238.85848	0.73017
3236.80467	0.73122
3234.75086	0.73232
3232.69705	0.73335
3230.64324	0.73473
3228.58943	0.73636
3226.53562	0.73791
3224.48181	0.73930
3222.42800	0.74054
3220.37419	0.74194
3218.32038	0.74356
3216.26657	0.74508
3214.21276	0.74658
3212.15895	0.74821
3210.10514	0.74994
3208.05133	0.75174
3205.99752	0.75347
3203.94371	0.75506
3201.88990	0.75682
3199.83609	0.75888
3197.78228	0.76081
3195.72847	0.76255
3193.67466	0.76451
3191.62085	0.76662
3189.56704	0.76862
3187.51323	0.77058
3185.45942	0.77265
3183.40561	0.77485
3181.35180	0.77701
3179.29799	0.77886
3177.24418	0.78067
3175.19037	0.78273
3173.13656	0.78478
3171.08275	0.78683
3169.02894	0.78924
3166.97513	0.79174
3164.92132	0.79390
3162.86751	0.79595
3160.81370	0.79800
3158.75989	0.80010
3156.70608	0.80235
3154.65227	0.80468
3152.59846	0.80692
3150.54465	0.80907
3148.49084	0.81133
3146.43703	0.81360
3144.38322	0.81560
3142.32941	0.81755
3140.27560	0.81973
3138.22179	0.82191
3136.16798	0.82384
3134.11417	0.82583
3132.06036	0.82818
3130.00655	0.83050
3127.95274	0.83253
3125.89893	0.83433
3123.84512	0.83600
3121.79131	0.83789
3119.73750	0.83988
3117.68369	0.84170
3115.62988	0.84355
3113.57607	0.84575
3111.52226	0.84798
3109.46845	0.84981
3107.41464	0.85148
3105.36083	0.85312
3103.30702	0.85482
3101.25321	0.85672
3099.19940	0.85853
3097.14559	0.86015
3095.09177	0.86175
3093.03796	0.86332
3090.98415	0.86483
3088.93034	0.86634
3086.87653	0.86783
3084.82272	0.86922
3082.76891	0.87059
3080.71510	0.87221
3078.66129	0.87394
3076.60748	0.87548
3074.55367	0.87679
3072.49986	0.87801
3070.44605	0.87921
3068.39224	0.88048
3066.33843	0.88176
3064.28462	0.88290
3062.23081	0.88400
3060.17700	0.88513
3058.12319	0.88623
3056.06938	0.88732
3054.01557	0.88850
3051.96176	0.88990
3049.90795	0.89161
3047.85414	0.89320
3045.80033	0.89456
3043.74652	0.89589
3041.69271	0.89719
3039.63890	0.89846
3037.58509	0.89973
3035.53128	0.90087
3033.47747	0.90188
3031.42366	0.90301
3029.36985	0.90418
3027.31604	0.90503
3025.26223	0.90553
3023.20842	0.90622
3021.15461	0.90727
3019.10080	0.90830
3017.04699	0.90907
3014.99318	0.90971
3012.93937	0.91041
3010.88556	0.91104
3008.83175	0.91155
3006.77794	0.91211
3004.72413	0.91264
3002.67032	0.91309
3000.61651	0.91346
2998.56270	0.91348
2996.50889	0.91307
2994.45508	0.91255
2992.40127	0.91176
2990.34746	0.91048
2988.29365	0.90900
2986.23984	0.90726
2984.18603	0.90479
2982.13222	0.90157
2980.07841	0.89765
2978.02460	0.89280
2975.97079	0.88669
2973.91698	0.87932
2971.86317	0.87105
2969.80936	0.86183
2967.75555	0.85136
2965.70174	0.83998
2963.64793	0.82866
2961.59412	0.81805
2959.54031	0.80861
2957.48650	0.80105
2955.43269	0.79569
2953.37888	0.79270
2951.32507	0.79221
2949.27126	0.79325
2947.21745	0.79402
2945.16364	0.79312
2943.10983	0.78972
2941.05602	0.78300
2939.00221	0.77280
2936.94840	0.75980
2934.89459	0.74466
2932.84078	0.72796
2930.78697	0.71092
2928.73316	0.69505
2926.67935	0.68128
2924.62554	0.67046
2922.57173	0.66395
2920.51792	0.66289
2918.46411	0.66748
2916.41030	0.67743
2914.35649	0.69183
2912.30268	0.70811
2910.24887	0.72343
2908.19506	0.73670
2906.14125	0.74812
2904.08744	0.75823
2902.03363	0.76748
2899.97982	0.77607
2897.92601	0.78409
2895.87220	0.79179
2893.81839	0.79972
2891.76458	0.80789
2889.71077	0.81588
2887.65696	0.82351
2885.60315	0.83054
2883.54934	0.83640
2881.49553	0.84040
2879.44172	0.84175
2877.38791	0.84001
2875.33410	0.83553
2873.28029	0.82962
2871.22648	0.82427
2869.17267	0.82063
2867.11886	0.81820
2865.06505	0.81556
2863.01124	0.81079
2860.95743	0.80266
2858.90362	0.79163
2856.84981	0.77924
2854.79600	0.76814
2852.74219	0.76143
2850.68838	0.76165
2848.63457	0.77031
2846.58076	0.78659
2844.52695	0.80712
2842.47314	0.82816
2840.41933	0.84754
2838.36552	0.86461
2836.31171	0.87928
2834.25790	0.89161
2832.20409	0.90182
2830.15028	0.91008
2828.09647	0.91650
2826.04266	0.92162
2823.98885	0.92583
2821.93504	0.92931
2819.88123	0.93226
2817.82742	0.93480
2815.77361	0.93717
2813.71980	0.93941
2811.66599	0.94134
2809.61218	0.94305
2807.55837	0.94465
2805.50456	0.94604
2803.45075	0.94725
2801.39693	0.94848
2799.34312	0.94968
2797.28931	0.95071
2795.23550	0.95164
2793.18169	0.95255
2791.12788	0.95338
2789.07407	0.95429
2787.02026	0.95510
2784.96645	0.95556
2782.91264	0.95594
2780.85883	0.95658
2778.80502	0.95744
2776.75121	0.95831
2774.69740	0.95902
2772.64359	0.95956
2770.58978	0.95993
2768.53597	0.96025
2766.48216	0.96069
2764.42835	0.96122
2762.37454	0.96167
2760.32073	0.96201
2758.26692	0.96224
2756.21311	0.96247
2754.15930	0.96272
2752.10549	0.96292
2750.05168	0.96307
2747.99787	0.96323
2745.94406	0.96350
2743.89025	0.96375
2741.83644	0.96385
2739.78263	0.96379
2737.72882	0.96377
2735.67501	0.96369
2733.62120	0.96351
2731.56739	0.96359
2729.51358	0.96384
2727.45977	0.96408
2725.40596	0.96426
2723.35215	0.96433
2721.29834	0.96452
2719.24453	0.96497
2717.19072	0.96548
2715.13691	0.96589
2713.08310	0.96628
2711.02929	0.96671
2708.97548	0.96695
2706.92167	0.96688
2704.86786	0.96672
2702.81405	0.96671
2700.76024	0.96686
2698.70643	0.96709
2696.65262	0.96734
2694.59881	0.96759
2692.54500	0.96784
2690.49119	0.96792
2688.43738	0.96777
2686.38357	0.96770
2684.32976	0.96791
2682.27595	0.96830
2680.22214	0.96848
2678.16833	0.96834
2676.11452	0.96819
2674.06071	0.96830
2672.00690	0.96856
2669.95309	0.96872
2667.89928	0.96869
2665.84547	0.96865
2663.79166	0.96865
2661.73785	0.96864
2659.68404	0.96881
2657.63023	0.96911
2655.57642	0.96917
2653.52261	0.96906
2651.46880	0.96913
2649.41499	0.96938
2647.36118	0.96965
2645.30737	0.96979
2643.25356	0.96983
2641.19975	0.96989
2639.14594	0.97011
2637.09213	0.97034
2635.03832	0.97042
2632.98451	0.97045
2630.93070	0.97057
2628.87689	0.97084
2626.82308	0.97094
2624.76927	0.97083
2622.71546	0.97082
2620.66165	0.97102
2618.60784	0.97144
2616.55403	0.97175
2614.50022	0.97163
2612.44641	0.97150
2610.39260	0.97168
2608.33879	0.97188
2606.28498	0.97179
2604.23117	0.97163
2602.17736	0.97179
2600.12355	0.97216
2598.06974	0.97241
2596.01593	0.97263
2593.96212	0.97289
2591.90831	0.97317
2589.85450	0.97338
2587.80069	0.97327
2585.74688	0.97295
2583.69307	0.97297
2581.63926	0.97324
2579.58545	0.97330
2577.53164	0.97330
2575.47783	0.97334
2573.42402	0.97326
2571.37021	0.97309
2569.31640	0.97309
2567.26259	0.97339
2565.20878	0.97357
2563.15497	0.97334
2561.10116	0.97290
2559.04735	0.97262
2556.99354	0.97288
2554.93973	0.97346
2552.88592	0.97377
2550.83211	0.97367
2548.77830	0.97346
2546.72449	0.97331
2544.67068	0.97335
2542.61687	0.97367
2540.56306	0.97390
2538.50925	0.97368
2536.45544	0.97323
2534.40163	0.97289
2532.34782	0.97259
2530.29401	0.97226
2528.24020	0.97215
2526.18639	0.97224
2524.13258	0.97226
2522.07877	0.97212
2520.02496	0.97185
2517.97115	0.97176
2515.91734	0.97218
2513.86353	0.97275
2511.80972	0.97313
2509.75591	0.97339
2507.70210	0.97346
2505.64828	0.97327
2503.59447	0.97320
2501.54066	0.97347
2499.48685	0.97377
2497.43304	0.97388
2495.37923	0.97400
2493.32542	0.97413
2491.27161	0.97416
2489.21780	0.97410
2487.16399	0.97409
2485.11018	0.97432
2483.05637	0.97469
2481.00256	0.97502
2478.94875	0.97519
2476.89494	0.97533
2474.84113	0.97568
2472.78732	0.97619
2470.73351	0.97669
2468.67970	0.97678
2466.62589	0.97642
2464.57208	0.97628
2462.51827	0.97645
2460.46446	0.97647
2458.41065	0.97648
2456.35684	0.97654
2454.30303	0.97641
2452.24922	0.97611
2450.19541	0.97593
2448.14160	0.97621
2446.08779	0.97658
2444.03398	0.97650
2441.98017	0.97629
2439.92636	0.97650
2437.87255	0.97689
2435.81874	0.97706
2433.76493	0.97680
2431.71112	0.97646
2429.65731	0.97659
2427.60350	0.97683
2425.54969	0.97672
2423.49588	0.97631
2421.44207	0.97609
2419.38826	0.97637
2417.33445	0.97671
2415.28064	0.97656
2413.22683	0.97601
2411.17302	0.97561
2409.11921	0.97558
2407.06540	0.97570
2405.01159	0.97579
2402.95778	0.97599
2400.90397	0.97625
2398.85016	0.97632
2396.79635	0.97614
2394.74254	0.97587
2392.68873	0.97566
2390.63492	0.97553
2388.58111	0.97538
2386.52730	0.97527
2384.47349	0.97541
2382.41968	0.97576
2380.36587	0.97608
2378.31206	0.97627
2376.25825	0.97629
2374.20444	0.97620
2372.15063	0.97601
2370.09682	0.97583
2368.04301	0.97564
2365.98920	0.97557
2363.93539	0.97638
2361.88158	0.97711
2359.82777	0.97643
2357.77396	0.97577
2355.72015	0.97579
2353.66634	0.97534
2351.61253	0.97464
2349.55872	0.97413
2347.50491	0.97374
2345.45110	0.97371
2343.39729	0.97404
2341.34348	0.97417
2339.28967	0.97399
2337.23586	0.97372
2335.18205	0.97373
2333.12824	0.97389
2331.07443	0.97369
2329.02062	0.97314
2326.96681	0.97236
2324.91300	0.97194
2322.85919	0.97223
2320.80538	0.97259
2318.75157	0.97285
2316.69776	0.97303
2314.64395	0.97289
2312.59014	0.97264
2310.53633	0.97255
2308.48252	0.97241
2306.42871	0.97227
2304.37490	0.97234
2302.32109	0.97245
2300.26728	0.97253
2298.21347	0.97244
2296.15966	0.97218
2294.10585	0.97207
2292.05204	0.97191
2289.99823	0.97169
2287.94442	0.97162
2285.89061	0.97158
2283.83680	0.97184
2281.78299	0.97227
2279.72918	0.97222
2277.67537	0.97183
2275.62156	0.97179
2273.56775	0.97221
2271.51394	0.97257
2269.46013	0.97261
2267.40632	0.97239
2265.35251	0.97202
2263.29870	0.97203
2261.24489	0.97222
2259.19108	0.97218
2257.13727	0.97246
2255.08346	0.97294
2253.02965	0.97288
2250.97584	0.97227
2248.92203	0.97159
2246.86822	0.97130
2244.81441	0.97110
2242.76060	0.97084
2240.70679	0.97140
2238.65298	0.97249
2236.59917	0.97257
2234.54536	0.97241
2232.49155	0.97280
2230.43774	0.97291
2228.38393	0.97311
2226.33012	0.97351
2224.27631	0.97334
2222.22250	0.97286
2220.16869	0.97275
2218.11488	0.97277
2216.06107	0.97250
2214.00726	0.97189
2211.95344	0.97094
2209.89963	0.97080
2207.84582	0.97192
2205.79201	0.97204
2203.73820	0.97065
2201.68439	0.97027
2199.63058	0.97100
2197.57677	0.97097
2195.52296	0.97059
2193.46915	0.97043
2191.41534	0.97051
2189.36153	0.97140
2187.30772	0.97229
2185.25391	0.97159
2183.20010	0.97000
2181.14629	0.96941
2179.09248	0.96964
2177.03867	0.97034
2174.98486	0.97067
2172.93105	0.96972
2170.87724	0.96944
2168.82343	0.97110
2166.76962	0.97184
2164.71581	0.96940
2162.66200	0.96703
2160.60819	0.96783
2158.55438	0.97068
2156.50057	0.97298
2154.44676	0.97292
2152.39295	0.97142
2150.33914	0.97086
2148.28533	0.97126
2146.23152	0.97175
2144.17771	0.97248
2142.12390	0.97285
2140.07009	0.97262
2138.01628	0.97211
2135.96247	0.97145
2133.90866	0.97104
2131.85485	0.97076
2129.80104	0.97051
2127.74723	0.97048
2125.69342	0.97014
2123.63961	0.96929
2121.58580	0.96854
2119.53199	0.96819
2117.47818	0.96832
2115.42437	0.96845
2113.37056	0.96802
2111.31675	0.96759
2109.26294	0.96806
2107.20913	0.96926
2105.15532	0.97013
2103.10151	0.96995
2101.04770	0.96895
2098.99389	0.96831
2096.94008	0.96866
2094.88627	0.96900
2092.83246	0.96895
2090.77865	0.96922
2088.72484	0.96944
2086.67103	0.96859
2084.61722	0.96749
2082.56341	0.96758
2080.50960	0.96826
2078.45579	0.96820
2076.40198	0.96794
2074.34817	0.96921
2072.29436	0.97048
2070.24055	0.96988
2068.18674	0.96915
2066.13293	0.96907
2064.07912	0.96925
2062.02531	0.96983
2059.97150	0.97037
2057.91769	0.97044
2055.86388	0.97029
2053.81007	0.96998
2051.75626	0.96930
2049.70245	0.96916
2047.64864	0.97018
2045.59483	0.97117
2043.54102	0.97165
2041.48721	0.97202
2039.43340	0.97257
2037.37959	0.97290
2035.32578	0.97301
2033.27197	0.97490
2031.21816	0.97683
2029.16435	0.97502
2027.11054	0.97234
2025.05673	0.97297
2023.00292	0.97509
2020.94911	0.97615
2018.89530	0.97706
2016.84149	0.97787
2014.78768	0.97787
2012.73387	0.97746
2010.68006	0.97669
2008.62625	0.97547
2006.57244	0.97483
2004.51863	0.97502
2002.46482	0.97501
2000.41101	0.97504
1998.35720	0.97533
1996.30339	0.97544
1994.24958	0.97573
1992.19577	0.97608
1990.14196	0.97562
1988.08815	0.97503
1986.03434	0.97525
1983.98053	0.97537
1981.92672	0.97507
1979.87291	0.97524
1977.81910	0.97541
1975.76529	0.97508
1973.71148	0.97560
1971.65767	0.97637
1969.60386	0.97545
1967.55005	0.97440
1965.49624	0.97524
1963.44243	0.97648
1961.38862	0.97710
1959.33481	0.97789
1957.28100	0.97805
1955.22719	0.97676
1953.17338	0.97544
1951.11957	0.97552
1949.06576	0.97631
1947.01195	0.97708
1944.95814	0.97782
1942.90433	0.97780
1940.85052	0.97726
1938.79671	0.97728
1936.74290	0.97718
1934.68909	0.97639
1932.63528	0.97605
1930.58147	0.97645
1928.52766	0.97641
1926.47385	0.97610
1924.42004	0.97572
1922.36623	0.97523
1920.31242	0.97496
1918.25861	0.97486
1916.20479	0.97500
1914.15098	0.97477
1912.09717	0.97409
1910.04336	0.97376
1907.98955	0.97414
1905.93574	0.97495
1903.88193	0.97540
1901.82812	0.97511
1899.77431	0.97468
1897.72050	0.97453
1895.66669	0.97452
1893.61288	0.97470
1891.55907	0.97491
1889.50526	0.97489
1887.45145	0.97492
1885.39764	0.97494
1883.34383	0.97484
1881.29002	0.97466
1879.23621	0.97428
1877.18240	0.97406
1875.12859	0.97451
1873.07478	0.97521
1871.02097	0.97542
1868.96716	0.97505
1866.91335	0.97442
1864.85954	0.97382
1862.80573	0.97365
1860.75192	0.97390
1858.69811	0.97401
1856.64430	0.97389
1854.59049	0.97369
1852.53668	0.97333
1850.48287	0.97283
1848.42906	0.97266
1846.37525	0.97291
1844.32144	0.97287
1842.26763	0.97238
1840.21382	0.97211
1838.16001	0.97219
1836.10620	0.97209
1834.05239	0.97165
1831.99858	0.97130
1829.94477	0.97098
1827.89096	0.97048
1825.83715	0.96999
1823.78334	0.96957
1821.72953	0.96926
1819.67572	0.96906
1817.62191	0.96881
1815.56810	0.96833
1813.51429	0.96755
1811.46048	0.96659
1809.40667	0.96554
1807.35286	0.96443
1805.29905	0.96329
1803.24524	0.96219
1801.19143	0.96110
1799.13762	0.96010
1797.08381	0.95926
1795.03000	0.95831
1792.97619	0.95686
1790.92238	0.95512
1788.86857	0.95382
1786.81476	0.95263
1784.76095	0.95130
1782.70714	0.94994
1780.65333	0.94849
1778.59952	0.94705
1776.54571	0.94567
1774.49190	0.94418
1772.43809	0.94218
1770.38428	0.93982
1768.33047	0.93781
1766.27666	0.93637
1764.22285	0.93518
1762.16904	0.93365
1760.11523	0.93182
1758.06142	0.93019
1756.00761	0.92860
1753.95380	0.92720
1751.89999	0.92578
1749.84618	0.92372
1747.79237	0.92142
1745.73856	0.91919
1743.68475	0.91697
1741.63094	0.91486
1739.57713	0.91243
1737.52332	0.90993
1735.46951	0.90743
1733.41570	0.90375
1731.36189	0.89993
1729.30808	0.89644
1727.25427	0.89277
1725.20046	0.88893
1723.14665	0.88449
1721.09284	0.88000
1719.03903	0.87530
1716.98522	0.86890
1714.93141	0.86226
1712.87760	0.85725
1710.82379	0.85338
1708.76998	0.85012
1706.71617	0.84668
1704.66236	0.84323
1702.60855	0.84068
1700.55474	0.83790
1698.50093	0.83483
1696.44712	0.83258
1694.39331	0.83047
1692.33950	0.82869
1690.28569	0.82689
1688.23188	0.82485
1686.17807	0.82258
1684.12426	0.81862
1682.07045	0.81420
1680.01664	0.81089
1677.96283	0.80779
1675.90902	0.80418
1673.85521	0.80008
1671.80140	0.79637
1669.74759	0.79221
1667.69378	0.78791
1665.63997	0.78469
1663.58616	0.78145
1661.53235	0.77780
1659.47854	0.77474
1657.42473	0.77237
1655.37092	0.77032
1653.31711	0.76713
1651.26330	0.76387
1649.20949	0.76230
1647.15568	0.76060
1645.10187	0.75863
1643.04806	0.75744
1640.99425	0.75677
1638.94044	0.75633
1636.88663	0.75585
1634.83282	0.75544
1632.77901	0.75583
1630.72520	0.75662
1628.67139	0.75739
1626.61758	0.75819
1624.56377	0.75926
1622.50996	0.76089
1620.45614	0.76283
1618.40233	0.76489
1616.34852	0.76749
1614.29471	0.77018
1612.24090	0.77250
1610.18709	0.77473
1608.13328	0.77698
1606.07947	0.77906
1604.02566	0.78084
1601.97185	0.78249
1599.91804	0.78416
1597.86423	0.78571
1595.81042	0.78713
1593.75661	0.78851
1591.70280	0.78977
1589.64899	0.79097
1587.59518	0.79215
1585.54137	0.79333
1583.48756	0.79450
1581.43375	0.79553
1579.37994	0.79640
1577.32613	0.79738
1575.27232	0.79853
1573.21851	0.79953
1571.16470	0.80048
1569.11089	0.80153
1567.05708	0.80275
1565.00327	0.80418
1562.94946	0.80554
1560.89565	0.80666
1558.84184	0.80795
1556.78803	0.80957
1554.73422	0.81124
1552.68041	0.81300
1550.62660	0.81470
1548.57279	0.81635
1546.51898	0.81815
1544.46517	0.82017
1542.41136	0.82217
1540.35755	0.82438
1538.30374	0.82669
1536.24993	0.82829
1534.19612	0.82971
1532.14231	0.83137
1530.08850	0.83283
1528.03469	0.83394
1525.98088	0.83481
1523.92707	0.83557
1521.87326	0.83621
1519.81945	0.83638
1517.76564	0.83600
1515.71183	0.83549
1513.65802	0.83521
1511.60421	0.83511
1509.55040	0.83510
1507.49659	0.83474
1505.44278	0.83361
1503.38897	0.83271
1501.33516	0.83197
1499.28135	0.83098
1497.22754	0.82960
1495.17373	0.82816
1493.11992	0.82700
1491.06611	0.82552
1489.01230	0.82306
1486.95849	0.82024
1484.90468	0.81765
1482.85087	0.81476
1480.79706	0.81102
1478.74325	0.80644
1476.68944	0.80032
1474.63563	0.79112
1472.58182	0.77591
1470.52801	0.75680
1468.47420	0.73962
1466.42039	0.72374
1464.36658	0.70984
1462.31277	0.70144
1460.25896	0.69727
1458.20515	0.69387
1456.15134	0.69117
1454.09753	0.69191
1452.04372	0.69499
1449.98991	0.69892
1447.93610	0.70304
1445.88229	0.70694
1443.82848	0.71068
1441.77467	0.71452
1439.72086	0.71813
1437.66705	0.72196
1435.61324	0.72652
1433.55943	0.73073
1431.50562	0.73443
1429.45181	0.73788
1427.39800	0.74073
1425.34419	0.74270
1423.29038	0.74353
1421.23657	0.74315
1419.18276	0.74178
1417.12895	0.74009
1415.07514	0.73888
1413.02133	0.73778
1410.96752	0.73650
1408.91371	0.73506
1406.85990	0.73383
1404.80609	0.73297
1402.75228	0.73260
1400.69847	0.73255
1398.64466	0.73245
1396.59085	0.73218
1394.53704	0.73173
1392.48323	0.73093
1390.42942	0.72927
1388.37561	0.72593
1386.32180	0.72053
1384.26799	0.71413
1382.21418	0.70671
1380.16037	0.69828
1378.10656	0.69150
1376.05275	0.68980
1373.99894	0.69416
1371.94513	0.70158
1369.89132	0.70830
1367.83751	0.71322
1365.78370	0.71709
1363.72989	0.72155
1361.67608	0.72677
1359.62227	0.73129
1357.56846	0.73475
1355.51465	0.73756
1353.46084	0.73995
1351.40703	0.74229
1349.35322	0.74507
1347.29941	0.74800
1345.24560	0.75044
1343.19179	0.75242
1341.13798	0.75402
1339.08417	0.75524
1337.03036	0.75637
1334.97655	0.75763
1332.92274	0.75861
1330.86893	0.75891
1328.81512	0.75869
1326.76130	0.75815
1324.70749	0.75725
1322.65368	0.75610
1320.59987	0.75482
1318.54606	0.75350
1316.49225	0.75266
1314.43844	0.75294
1312.38463	0.75446
1310.33082	0.75648
1308.27701	0.75817
1306.22320	0.75943
1304.16939	0.76046
1302.11558	0.76119
1300.06177	0.76171
1298.00796	0.76230
1295.95415	0.76296
1293.90034	0.76358
1291.84653	0.76423
1289.79272	0.76509
1287.73891	0.76599
1285.68510	0.76672
1283.63129	0.76737
1281.57748	0.76799
1279.52367	0.76858
1277.46986	0.76906
1275.41605	0.76952
1273.36224	0.77005
1271.30843	0.77047
1269.25462	0.77087
1267.20081	0.77149
1265.14700	0.77210
1263.09319	0.77245
1261.03938	0.77267
1258.98557	0.77280
1256.93176	0.77277
1254.87795	0.77260
1252.82414	0.77231
1250.77033	0.77204
1248.71652	0.77189
1246.66271	0.77186
1244.60890	0.77189
1242.55509	0.77175
1240.50128	0.77154
1238.44747	0.77146
1236.39366	0.77128
1234.33985	0.77110
1232.28604	0.77122
1230.23223	0.77144
1228.17842	0.77152
1226.12461	0.77151
1224.07080	0.77160
1222.01699	0.77177
1219.96318	0.77184
1217.90937	0.77183
1215.85556	0.77173
1213.80175	0.77150
1211.74794	0.77120
1209.69413	0.77083
1207.64032	0.77056
1205.58651	0.77041
1203.53270	0.77020
1201.47889	0.76983
1199.42508	0.76937
1197.37127	0.76904
1195.31746	0.76890
1193.26365	0.76882
1191.20984	0.76873
1189.15603	0.76853
1187.10222	0.76829
1185.04841	0.76819
1182.99460	0.76833
1180.94079	0.76861
1178.88698	0.76877
1176.83317	0.76865
1174.77936	0.76825
1172.72555	0.76775
1170.67174	0.76738
1168.61793	0.76728
1166.56412	0.76745
1164.51031	0.76766
1162.45650	0.76792
1160.40269	0.76835
1158.34888	0.76881
1156.29507	0.76919
1154.24126	0.76965
1152.18745	0.77024
1150.13364	0.77084
1148.07983	0.77132
1146.02602	0.77160
1143.97221	0.77147
1141.91840	0.77099
1139.86459	0.77048
1137.81078	0.76982
1135.75697	0.76887
1133.70316	0.76793
1131.64935	0.76710
1129.59554	0.76629
1127.54173	0.76541
1125.48792	0.76449
1123.43411	0.76371
1121.38030	0.76318
1119.32649	0.76280
1117.27268	0.76254
1115.21887	0.76232
1113.16506	0.76214
1111.11125	0.76204
1109.05744	0.76202
1107.00363	0.76206
1104.94982	0.76204
1102.89601	0.76189
1100.84220	0.76185
1098.78839	0.76216
1096.73458	0.76249
1094.68077	0.76246
1092.62696	0.76201
1090.57315	0.76113
1088.51934	0.76014
1086.46553	0.75912
1084.41172	0.75747
1082.35791	0.75636
1080.30410	0.75758
1078.25029	0.76005
1076.19648	0.76205
1074.14267	0.76359
1072.08886	0.76480
1070.03505	0.76575
1067.98124	0.76665
1065.92743	0.76725
1063.87362	0.76725
1061.81981	0.76688
1059.76600	0.76631
1057.71219	0.76538
1055.65838	0.76410
1053.60457	0.76265
1051.55076	0.76081
1049.49695	0.75844
1047.44314	0.75601
1045.38933	0.75382
1043.33552	0.75178
1041.28171	0.75013
1039.22790	0.74915
1037.17409	0.74898
1035.12028	0.74964
1033.06647	0.75122
1031.01265	0.75362
1028.95884	0.75629
1026.90503	0.75871
1024.85122	0.76067
1022.79741	0.76231
1020.74360	0.76382
1018.68979	0.76532
1016.63598	0.76692
1014.58217	0.76859
1012.52836	0.77019
1010.47455	0.77157
1008.42074	0.77293
1006.36693	0.77484
1004.31312	0.77728
1002.25931	0.77959
1000.20550	0.78194
998.15169	0.78469
996.09788	0.78732
994.04407	0.78950
991.99026	0.79163
989.93645	0.79398
987.88264	0.79634
985.82883	0.79847
983.77502	0.80029
981.72121	0.80199
979.66740	0.80349
977.61359	0.80465
975.55978	0.80590
973.50597	0.80743
971.45216	0.80868
969.39835	0.80950
967.34454	0.81042
965.29073	0.81172
963.23692	0.81308
961.18311	0.81411
959.12930	0.81481
957.07549	0.81535
955.02168	0.81576
952.96787	0.81616
950.91406	0.81652
948.86025	0.81663
946.80644	0.81658
944.75263	0.81637
942.69882	0.81611
940.64501	0.81611
938.59120	0.81620
936.53739	0.81612
934.48358	0.81612
932.42977	0.81601
930.37596	0.81544
928.32215	0.81479
926.26834	0.81433
924.21453	0.81390
922.16072	0.81346
920.10691	0.81276
918.05310	0.81154
915.99929	0.81004
913.94548	0.80872
911.89167	0.80800
909.83786	0.80771
907.78405	0.80719
905.73024	0.80628
903.67643	0.80526
901.62262	0.80421
899.56881	0.80297
897.51500	0.80148
895.46119	0.79982
893.40738	0.79772
891.35357	0.79461
889.29976	0.78986
887.24595	0.78291
885.19214	0.77424
883.13833	0.76500
881.08452	0.75598
879.03071	0.74746
876.97690	0.73906
874.92309	0.73052
872.86928	0.72243
870.81547	0.71634
868.76166	0.71352
866.70785	0.71351
864.65404	0.71463
862.60023	0.71570
860.54642	0.71665
858.49261	0.71744
856.43880	0.71782
854.38499	0.71833
852.33118	0.71921
850.27737	0.71937
848.22356	0.71896
846.16975	0.71953
844.11594	0.72049
842.06213	0.72015
840.00832	0.71904
837.95451	0.71826
835.90070	0.71753
833.84689	0.71653
831.79308	0.71516
829.73927	0.71283
827.68546	0.70979
825.63165	0.70699
823.57784	0.70447
821.52403	0.70192
819.47022	0.69943
817.41641	0.69713
815.36260	0.69487
813.30879	0.69271
811.25498	0.69074
809.20117	0.68865
807.14736	0.68655
805.09355	0.68497
803.03974	0.68387
800.98593	0.68264
798.93212	0.68090
796.87831	0.67898
794.82450	0.67686
792.77069	0.67436
790.71688	0.67219
788.66307	0.67043
786.60926	0.66816
784.55545	0.66510
782.50164	0.66175
780.44783	0.65882
778.39402	0.65665
776.34021	0.65493
774.28640	0.65330
772.23259	0.65136
770.17878	0.64909
768.12497	0.64678
766.07116	0.64421
764.01735	0.64120
761.96354	0.63809
759.90973	0.63544
757.85592	0.63357
755.80211	0.63187
753.74830	0.62964
751.69449	0.62728
749.64068	0.62542
747.58687	0.62383
745.53306	0.62237
743.47925	0.62122
741.42544	0.62005
739.37163	0.61912
737.31781	0.61854
735.26400	0.61725
733.21019	0.61455
731.15638	0.61083
729.10257	0.60677
727.04876	0.60199
724.99495	0.59622
722.94114	0.59059
720.88733	0.58633
718.83352	0.58413
716.77971	0.58337
714.72590	0.58219
712.67209	0.58036
710.61828	0.57984
708.56447	0.58134
706.51066	0.58341
704.45685	0.58452
702.40304	0.58399
700.34923	0.58236
698.29542	0.58154
696.24161	0.58226
694.18780	0.58327
692.13399	0.58395
690.08018	0.58445
688.02637	0.58437
685.97256	0.58336
683.91875	0.58221
681.86494	0.58140
679.81113	0.58059
677.75732	0.57963
675.70351	0.57832
673.64970	0.57657
671.59589	0.57465
669.54208	0.57295
667.48827	0.57229
665.43446	0.57233
663.38065	0.57189
661.32684	0.57060
659.27303	0.56836
657.21922	0.56627
655.16541	0.56538
653.11160	0.56474
651.05779	0.56309
649.00398	0.56124
646.95017	0.55998
644.89636	0.55874
642.84255	0.55738
640.78874	0.55612
638.73493	0.55510
636.68112	0.55406
634.62731	0.55245
632.57350	0.55030
630.51969	0.54848
628.46588	0.54769
626.41207	0.54723
624.35826	0.54635
622.30445	0.54517
620.25064	0.54389
618.19683	0.54258
616.14302	0.54123
614.08921	0.54004
612.03540	0.53943
609.98159	0.53959
607.92778	0.53989
605.87397	0.53942
603.82016	0.53881
601.76635	0.53878
599.71254	0.53852
597.65873	0.53776
595.60492	0.53700
593.55111	0.53633
591.49730	0.53566
589.44349	0.53494
587.38968	0.53400
585.33587	0.53321
583.28206	0.53280
581.22825	0.53267
579.17444	0.53307
577.12063	0.53361
575.06682	0.53347
573.01301	0.53264
570.95920	0.53192
568.90539	0.53163
566.85158	0.53148
564.79777	0.53103
562.74396	0.52976
560.69015	0.52827
558.63634	0.52781
556.58253	0.52804
554.52872	0.52781
552.47491	0.52705
550.42110	0.52636
548.36729	0.52649
546.31348	0.52742
544.25967	0.52823
542.20586	0.52810
540.15205	0.52723
538.09824	0.52659
536.04443	0.52673
533.99062	0.52647
531.93681	0.52514
529.88300	0.52437
527.82919	0.52427
525.77538	0.52379
523.72157	0.52374
521.66776	0.52397
519.61395	0.52378
517.56014	0.52424
515.50633	0.52559
513.45252	0.52648
511.39871	0.52597
509.34490	0.52480
507.29109	0.52535
505.23728	0.52770
503.18347	0.52911
501.12966	0.52869
499.07585	0.52825
497.02204	0.52844
494.96823	0.52874
492.91442	0.52927
490.86061	0.53009
488.80680	0.53058
486.75299	0.52992
484.69918	0.52833
482.64537	0.52725
480.59156	0.52676
478.53775	0.52550
476.48394	0.52311
474.43013	0.52057
472.37632	0.51938
470.32251	0.51980
468.26870	0.52083
466.21489	0.52146
464.16108	0.52128
462.10727	0.52156
460.05346	0.52174
457.99965	0.52089
455.94584	0.52218
453.89203	0.52561
451.83822	0.52800
449.78441	0.52906
447.73060	0.53052
445.67679	0.53165
443.62298	0.53082
441.56916	0.53021
439.51535	0.53071
437.46154	0.52957
435.40773	0.52783
433.35392	0.52769
431.30011	0.52777
429.24630	0.52788
427.19249	0.52780
425.13868	0.52618
423.08487	0.52411
421.03106	0.52488
418.97725	0.52809
416.92344	0.52931
414.86963	0.53087
412.81582	0.53402
410.76201	0.53601
408.70820	0.53645
406.65439	0.53716
404.60058	0.53833
402.54677	0.53881
400.49296	0.53876
398.43915	0.53619
