3996.70104	0.99143
3994.64724	0.99159
3992.59344	0.99113
3990.53964	0.99034
3988.48583	0.99012
3986.43203	0.99033
3984.37823	0.99041
3982.32442	0.99005
3980.27062	0.98958
3978.21682	0.99003
3976.16301	0.99119
3974.10921	0.99156
3972.05541	0.99080
3970.00160	0.98996
3967.94780	0.99014
3965.89400	0.99084
3963.84019	0.99127
3961.78639	0.99182
3959.73259	0.99204
3957.67878	0.99140
3955.62498	0.99075
3953.57118	0.99055
3951.51737	0.99055
3949.46357	0.99025
3947.40977	0.98961
3945.35596	0.98918
3943.30216	0.98943
3941.24836	0.99019
3939.19455	0.99057
3937.14075	0.99072
3935.08695	0.99112
3933.03315	0.99131
3930.97934	0.99113
3928.92554	0.99118
3926.87174	0.99119
3924.81793	0.99080
3922.76413	0.99039
3920.71033	0.99047
3918.65652	0.99095
3916.60272	0.99127
3914.54892	0.99143
3912.49511	0.99142
3910.44131	0.99085
3908.38751	0.99015
3906.33370	0.98990
3904.27990	0.98982
3902.22610	0.98974
3900.17229	0.99018
3898.11849	0.99082
3896.06469	0.99091
3894.01088	0.99081
3891.95708	0.99091
3889.90328	0.99099
3887.84947	0.99090
3885.79567	0.99045
3883.74187	0.98997
3881.68807	0.99002
3879.63426	0.99043
3877.58046	0.99071
3875.52666	0.99056
3873.47285	0.99017
3871.41905	0.99014
3869.36525	0.99107
3867.31144	0.99206
3865.25764	0.99183
3863.20384	0.99117
3861.15003	0.99111
3859.09623	0.99094
3857.04243	0.99058
3854.98862	0.99039
3852.93482	0.99040
3850.88102	0.99070
3848.82721	0.99100
3846.77341	0.99119
3844.71961	0.99128
3842.66580	0.99130
3840.61200	0.99102
3838.55820	0.99050
3836.50439	0.99086
3834.45059	0.99184
3832.39679	0.99227
3830.34298	0.99194
3828.28918	0.99157
3826.23538	0.99172
3824.18158	0.99215
3822.12777	0.99255
3820.07397	0.99231
3818.02017	0.99160
3815.96636	0.99113
3813.91256	0.99051
3811.85876	0.99019
3809.80495	0.99024
3807.75115	0.98991
3805.69735	0.98947
3803.64354	0.98958
3801.58974	0.98997
3799.53594	0.99020
3797.48213	0.99027
3795.42833	0.99072
3793.37453	0.99148
3791.32072	0.99167
3789.26692	0.99097
3787.21312	0.99035
3785.15931	0.99063
3783.10551	0.99116
3781.05171	0.99145
3778.99790	0.99177
3776.94410	0.99180
3774.89030	0.99139
3772.83650	0.99107
3770.78269	0.99108
3768.72889	0.99092
3766.67509	0.99047
3764.62128	0.98993
3762.56748	0.98954
3760.51368	0.98993
3758.45987	0.99069
3756.40607	0.99099
3754.35227	0.99124
3752.29846	0.99166
3750.24466	0.99175
3748.19086	0.99134
3746.13705	0.99166
3744.08325	0.99321
3742.02945	0.99350
3739.97564	0.99242
3737.92184	0.99176
3735.86804	0.99118
3733.81423	0.98997
3731.76043	0.98981
3729.70663	0.99054
3727.65282	0.99106
3725.59902	0.99070
3723.54522	0.98965
3721.49141	0.98904
3719.43761	0.98883
3717.38381	0.98829
3715.33001	0.98771
3713.27620	0.98777
3711.22240	0.98785
3709.16860	0.98670
3707.11479	0.98474
3705.06099	0.98283
3703.00719	0.98108
3700.95338	0.97910
3698.89958	0.97791
3696.84578	0.97788
3694.79197	0.97806
3692.73817	0.97827
3690.68437	0.97891
3688.63056	0.98002
3686.57676	0.98117
3684.52296	0.98216
3682.46915	0.98290
3680.41535	0.98299
3678.36155	0.98215
3676.30774	0.98144
3674.25394	0.98224
3672.20014	0.98278
3670.14633	0.98221
3668.09253	0.98159
3666.03873	0.98144
3663.98492	0.98090
3661.93112	0.97998
3659.87732	0.97954
3657.82352	0.97960
3655.76971	0.97952
3653.71591	0.97910
3651.66211	0.97844
3649.60830	0.97755
3647.55450	0.97743
3645.50070	0.97817
3643.44689	0.97858
3641.39309	0.97861
3639.33929	0.97853
3637.28548	0.97827
3635.23168	0.97791
3633.17788	0.97780
3631.12407	0.97812
3629.07027	0.97815
3627.01647	0.97669
3624.96266	0.97517
3622.90886	0.97418
3620.85506	0.97364
3618.80125	0.97431
3616.74745	0.97541
3614.69365	0.97582
3612.63984	0.97593
3610.58604	0.97582
3608.53224	0.97578
3606.47844	0.97611
3604.42463	0.97648
3602.37083	0.97671
3600.31703	0.97687
3598.26322	0.97708
3596.20942	0.97730
3594.15562	0.97738
3592.10181	0.97716
3590.04801	0.97672
3587.99421	0.97649
3585.94040	0.97658
3583.88660	0.97604
3581.83280	0.97517
3579.77899	0.97497
3577.72519	0.97517
3575.67139	0.97497
3573.61758	0.97468
3571.56378	0.97474
3569.50998	0.97483
3567.45617	0.97497
3565.40237	0.97506
3563.34857	0.97471
3561.29476	0.97403
3559.24096	0.97296
3557.18716	0.97236
3555.13335	0.97275
3553.07955	0.97333
3551.02575	0.97366
3548.97195	0.97369
3546.91814	0.97301
3544.86434	0.97179
3542.81054	0.97139
3540.75673	0.97199
3538.70293	0.97231
3536.64913	0.97182
3534.59532	0.97151
3532.54152	0.97187
3530.48772	0.97196
3528.43391	0.97148
3526.38011	0.97119
3524.32631	0.97171
3522.27250	0.97258
3520.21870	0.97296
3518.16490	0.97285
3516.11109	0.97245
3514.05729	0.97199
3512.00349	0.97205
3509.94968	0.97262
3507.89588	0.97272
3505.84208	0.97209
3503.78827	0.97186
3501.73447	0.97224
3499.68067	0.97227
3497.62687	0.97202
3495.57306	0.97208
3493.51926	0.97246
3491.46546	0.97260
3489.41165	0.97228
3487.35785	0.97211
3485.30405	0.97208
3483.25024	0.97209
3481.19644	0.97258
3479.14264	0.97304
3477.08883	0.97293
3475.03503	0.97264
3472.98123	0.97235
3470.92742	0.97178
3468.87362	0.97114
3466.81982	0.97117
3464.76601	0.97172
3462.71221	0.97173
3460.65841	0.97105
3458.60460	0.97062
3456.55080	0.97067
3454.49700	0.97080
3452.44319	0.97080
3450.38939	0.97046
3448.33559	0.97008
3446.28178	0.96992
3444.22798	0.96970
3442.17418	0.96941
3440.12038	0.96939
3438.06657	0.96938
3436.01277	0.96900
3433.95897	0.96863
3431.90516	0.96852
3429.85136	0.96851
3427.79756	0.96841
3425.74375	0.96798
3423.68995	0.96748
3421.63615	0.96749
3419.58234	0.96777
3417.52854	0.96774
3415.47474	0.96738
3413.42093	0.96711
3411.36713	0.96687
3409.31333	0.96632
3407.25952	0.96623
3405.20572	0.96678
3403.15192	0.96704
3401.09811	0.96683
3399.04431	0.96640
3396.99051	0.96604
3394.93670	0.96609
3392.88290	0.96639
3390.82910	0.96659
3388.77529	0.96654
3386.72149	0.96621
3384.66769	0.96629
3382.61389	0.96703
3380.56008	0.96728
3378.50628	0.96679
3376.45248	0.96637
3374.39867	0.96622
3372.34487	0.96617
3370.29107	0.96626
3368.23726	0.96659
3366.18346	0.96701
3364.12966	0.96699
3362.07585	0.96677
3360.02205	0.96711
3357.96825	0.96787
3355.91444	0.96851
3353.86064	0.96854
3351.80684	0.96787
3349.75303	0.96729
3347.69923	0.96766
3345.64543	0.96856
3343.59162	0.96928
3341.53782	0.96949
3339.48402	0.96915
3337.43021	0.96884
3335.37641	0.96872
3333.32261	0.96840
3331.26881	0.96811
3329.21500	0.96811
3327.16120	0.96809
3325.10740	0.96785
3323.05359	0.96780
3320.99979	0.96812
3318.94599	0.96834
3316.89218	0.96858
3314.83838	0.96920
3312.78458	0.96980
3310.73077	0.96978
3308.67697	0.96952
3306.62317	0.96994
3304.56936	0.97079
3302.51556	0.97116
3300.46176	0.97098
3298.40795	0.97060
3296.35415	0.97001
3294.30035	0.96952
3292.24654	0.96969
3290.19274	0.97021
3288.13894	0.97035
3286.08513	0.97000
3284.03133	0.96988
3281.97753	0.97026
3279.92372	0.97047
3277.86992	0.97041
3275.81612	0.97058
3273.76232	0.97074
3271.70851	0.97087
3269.65471	0.97111
3267.60091	0.97103
3265.54710	0.97050
3263.49330	0.97024
3261.43950	0.97077
3259.38569	0.97139
3257.33189	0.97129
3255.27809	0.97072
3253.22428	0.97054
3251.17048	0.97092
3249.11668	0.97128
3247.06287	0.97131
3245.00907	0.97117
3242.95527	0.97110
3240.90146	0.97129
3238.84766	0.97165
3236.79386	0.97176
3234.74005	0.97189
3232.68625	0.97249
3230.63245	0.97297
3228.57864	0.97269
3226.52484	0.97218
3224.47104	0.97220
3222.41724	0.97240
3220.36343	0.97238
3218.30963	0.97248
3216.25583	0.97304
3214.20202	0.97372
3212.14822	0.97377
3210.09442	0.97315
3208.04061	0.97301
3205.98681	0.97370
3203.93301	0.97431
3201.87920	0.97453
3199.82540	0.97472
3197.77160	0.97504
3195.71779	0.97527
3193.66399	0.97517
3191.61019	0.97484
3189.55638	0.97478
3187.50258	0.97509
3185.44878	0.97539
3183.39497	0.97544
3181.34117	0.97534
3179.28737	0.97545
3177.23356	0.97579
3175.17976	0.97601
3173.12596	0.97597
3171.07215	0.97587
3169.01835	0.97608
3166.96455	0.97666
3164.91075	0.97718
3162.85694	0.97716
3160.80314	0.97698
3158.74934	0.97724
3156.69553	0.97770
3154.64173	0.97810
3152.58793	0.97830
3150.53412	0.97795
3148.48032	0.97745
3146.42652	0.97755
3144.37271	0.97800
3142.31891	0.97818
3140.26511	0.97802
3138.21130	0.97789
3136.15750	0.97815
3134.10370	0.97870
3132.04989	0.97915
3129.99609	0.97916
3127.94229	0.97897
3125.88848	0.97904
3123.83468	0.97955
3121.78088	0.98006
3119.72707	0.98006
3117.67327	0.97995
3115.61947	0.97996
3113.56566	0.97989
3111.51186	0.97986
3109.45806	0.98001
3107.40426	0.98018
3105.35045	0.98017
3103.29665	0.98030
3101.24285	0.98075
3099.18904	0.98119
3097.13524	0.98144
3095.08144	0.98139
3093.02763	0.98102
3090.97383	0.98073
3088.92003	0.98084
3086.86622	0.98096
3084.81242	0.98091
3082.75862	0.98082
3080.70481	0.98049
3078.65101	0.98012
3076.59721	0.98040
3074.54340	0.98120
3072.48960	0.98166
3070.43580	0.98148
3068.38199	0.98122
3066.32819	0.98154
3064.27439	0.98222
3062.22058	0.98223
3060.16678	0.98163
3058.11298	0.98138
3056.05918	0.98176
3054.00537	0.98222
3051.95157	0.98233
3049.89777	0.98235
3047.84396	0.98244
3045.79016	0.98229
3043.73636	0.98204
3041.68255	0.98225
3039.62875	0.98301
3037.57495	0.98350
3035.52114	0.98317
3033.46734	0.98267
3031.41354	0.98258
3029.35973	0.98293
3027.30593	0.98339
3025.25213	0.98344
3023.19832	0.98309
3021.14452	0.98280
3019.09072	0.98297
3017.03691	0.98334
3014.98311	0.98346
3012.92931	0.98342
3010.87550	0.98352
3008.82170	0.98360
3006.76790	0.98341
3004.71409	0.98328
3002.66029	0.98317
3000.60649	0.98283
2998.55269	0.98260
2996.49888	0.98297
2994.44508	0.98371
2992.39128	0.98413
2990.33747	0.98400
2988.28367	0.98362
2986.22987	0.98315
2984.17606	0.98282
2982.12226	0.98263
2980.06846	0.98215
2978.01465	0.98122
2975.96085	0.98014
2973.90705	0.97921
2971.85324	0.97837
2969.79944	0.97744
2967.74564	0.97647
2965.69183	0.97544
2963.63803	0.97415
2961.58423	0.97273
2959.53042	0.97143
2957.47662	0.97034
2955.42282	0.96966
2953.36901	0.96933
2951.31521	0.96912
2949.26141	0.96901
2947.20761	0.96879
2945.15380	0.96775
2943.10000	0.96565
2941.04620	0.96306
2938.99239	0.96012
2936.93859	0.95658
2934.88479	0.95229
2932.83098	0.94687
2930.77718	0.94016
2928.72338	0.93258
2926.66957	0.92463
2924.61577	0.91594
2922.56197	0.90540
2920.50816	0.89341
2918.45436	0.88200
2916.40056	0.87353
2914.34675	0.87022
2912.29295	0.87263
2910.23915	0.87906
2908.18534	0.88704
2906.13154	0.89491
2904.07774	0.90184
2902.02393	0.90759
2899.97013	0.91220
2897.91633	0.91606
2895.86252	0.91985
2893.80872	0.92349
2891.75492	0.92685
2889.70112	0.93035
2887.64731	0.93428
2885.59351	0.93820
2883.53971	0.94175
2881.48590	0.94533
2879.43210	0.94898
2877.37830	0.95233
2875.32449	0.95534
2873.27069	0.95783
2871.21689	0.95960
2869.16308	0.96081
2867.10928	0.96112
2865.05548	0.96033
2863.00167	0.95862
2860.94787	0.95553
2858.89407	0.95009
2856.84026	0.94148
2854.78646	0.92911
2852.73266	0.91311
2850.67885	0.89600
2848.62505	0.88323
2846.57125	0.87997
2844.51744	0.88663
2842.46364	0.89936
2840.40984	0.91355
2838.35603	0.92628
2836.30223	0.93665
2834.24843	0.94483
2832.19463	0.95122
2830.14082	0.95587
2828.08702	0.95927
2826.03322	0.96235
2823.97941	0.96505
2821.92561	0.96703
2819.87181	0.96845
2817.81800	0.96960
2815.76420	0.97098
2813.71040	0.97265
2811.65659	0.97413
2809.60279	0.97518
2807.54899	0.97592
2805.49518	0.97654
2803.44138	0.97697
2801.38758	0.97737
2799.33377	0.97804
2797.27997	0.97884
2795.22617	0.97932
2793.17236	0.97947
2791.11856	0.97976
2789.06476	0.98022
2787.01095	0.98065
2784.95715	0.98109
2782.90335	0.98143
2780.84955	0.98145
2778.79574	0.98128
2776.74194	0.98144
2774.68814	0.98204
2772.63433	0.98265
2770.58053	0.98293
2768.52673	0.98308
2766.47292	0.98346
2764.41912	0.98385
2762.36532	0.98396
2760.31151	0.98404
2758.25771	0.98423
2756.20391	0.98447
2754.15010	0.98446
2752.09630	0.98417
2750.04250	0.98404
2747.98869	0.98415
2745.93489	0.98424
2743.88109	0.98416
2741.82728	0.98415
2739.77348	0.98429
2737.71968	0.98429
2735.66587	0.98433
2733.61207	0.98456
2731.55827	0.98477
2729.50446	0.98498
2727.45066	0.98510
2725.39686	0.98506
2723.34306	0.98517
2721.28925	0.98551
2719.23545	0.98589
2717.18165	0.98616
2715.12784	0.98610
2713.07404	0.98568
2711.02024	0.98523
2708.96643	0.98498
2706.91263	0.98501
2704.85883	0.98539
2702.80502	0.98587
2700.75122	0.98614
2698.69742	0.98621
2696.64361	0.98622
2694.58981	0.98635
2692.53601	0.98642
2690.48220	0.98619
2688.42840	0.98594
2686.37460	0.98596
2684.32079	0.98608
2682.26699	0.98613
2680.21319	0.98612
2678.15938	0.98613
2676.10558	0.98614
2674.05178	0.98605
2671.99797	0.98603
2669.94417	0.98588
2667.89037	0.98539
2665.83657	0.98513
2663.78276	0.98531
2661.72896	0.98543
2659.67516	0.98528
2657.62135	0.98511
2655.56755	0.98536
2653.51375	0.98600
2651.45994	0.98640
2649.40614	0.98648
2647.35234	0.98646
2645.29853	0.98629
2643.24473	0.98611
2641.19093	0.98596
2639.13712	0.98586
2637.08332	0.98595
2635.02952	0.98603
2632.97571	0.98616
2630.92191	0.98631
2628.86811	0.98612
2626.81430	0.98569
2624.76050	0.98556
2622.70670	0.98586
2620.65289	0.98619
2618.59909	0.98656
2616.54529	0.98684
2614.49149	0.98698
2612.43768	0.98730
2610.38388	0.98768
2608.33008	0.98764
2606.27627	0.98724
2604.22247	0.98733
2602.16867	0.98791
2600.11486	0.98806
2598.06106	0.98766
2596.00726	0.98727
2593.95345	0.98717
2591.89965	0.98704
2589.84585	0.98666
2587.79204	0.98667
2585.73824	0.98737
2583.68444	0.98800
2581.63063	0.98818
2579.57683	0.98836
2577.52303	0.98870
2575.46922	0.98875
2573.41542	0.98858
2571.36162	0.98846
2569.30781	0.98807
2567.25401	0.98732
2565.20021	0.98725
2563.14640	0.98793
2561.09260	0.98815
2559.03880	0.98828
2556.98500	0.98871
2554.93119	0.98867
2552.87739	0.98834
2550.82359	0.98817
2548.76978	0.98829
2546.71598	0.98898
2544.66218	0.98983
2542.60837	0.99005
2540.55457	0.98968
2538.50077	0.98924
2536.44696	0.98897
2534.39316	0.98838
2532.33936	0.98803
2530.28555	0.98882
2528.23175	0.98972
2526.17795	0.98958
2524.12414	0.98914
2522.07034	0.98917
2520.01654	0.98918
2517.96273	0.98895
2515.90893	0.98882
2513.85513	0.98880
2511.80132	0.98871
2509.74752	0.98880
2507.69372	0.98928
2505.63992	0.98942
2503.58611	0.98884
2501.53231	0.98810
2499.47851	0.98781
2497.42470	0.98810
2495.37090	0.98873
2493.31710	0.98924
2491.26329	0.98932
2489.20949	0.98915
2487.15569	0.98928
2485.10188	0.98946
2483.04808	0.98897
2480.99428	0.98813
2478.94047	0.98785
2476.88667	0.98854
2474.83287	0.98945
2472.77906	0.98956
2470.72526	0.98938
2468.67146	0.98971
2466.61765	0.99005
2464.56385	0.98995
2462.51005	0.98993
2460.45624	0.99021
2458.40244	0.99043
2456.34864	0.99045
2454.29483	0.99037
2452.24103	0.99025
2450.18723	0.98990
2448.13343	0.98925
2446.07962	0.98882
2444.02582	0.98883
2441.97202	0.98927
2439.91821	0.99011
2437.86441	0.99029
2435.81061	0.98944
2433.75680	0.98888
2431.70300	0.98907
2429.64920	0.98941
2427.59539	0.98942
2425.54159	0.98930
2423.48779	0.98926
2421.43398	0.98926
2419.38018	0.98963
2417.32638	0.98996
2415.27257	0.98960
2413.21877	0.98934
2411.16497	0.98968
2409.11116	0.98982
2407.05736	0.98955
2405.00356	0.98921
2402.94975	0.98874
2400.89595	0.98854
2398.84215	0.98887
2396.78834	0.98888
2394.73454	0.98861
2392.68074	0.98888
2390.62694	0.98935
2388.57313	0.98971
2386.51933	0.98994
2384.46553	0.98967
2382.41172	0.98911
2380.35792	0.98886
2378.30412	0.98864
2376.25031	0.98790
2374.19651	0.98740
2372.14271	0.98753
2370.08890	0.98683
2368.03510	0.98544
2365.98130	0.98541
2363.92749	0.98661
2361.87369	0.98814
2359.81989	0.98932
2357.76608	0.98921
2355.71228	0.98832
2353.65848	0.98761
2351.60467	0.98750
2349.55087	0.98759
2347.49707	0.98748
2345.44326	0.98734
2343.38946	0.98716
2341.33566	0.98684
2339.28186	0.98687
2337.22805	0.98730
2335.17425	0.98778
2333.12045	0.98800
2331.06664	0.98743
2329.01284	0.98637
2326.95904	0.98597
2324.90523	0.98624
2322.85143	0.98627
2320.79763	0.98594
2318.74382	0.98614
2316.69002	0.98705
2314.63622	0.98762
2312.58241	0.98777
2310.52861	0.98862
2308.47481	0.98944
2306.42100	0.98913
2304.36720	0.98892
2302.31340	0.98936
2300.25959	0.98912
2298.20579	0.98799
2296.15199	0.98730
2294.09818	0.98785
2292.04438	0.98880
2289.99058	0.98912
2287.93677	0.98898
2285.88297	0.98902
2283.82917	0.98932
2281.77537	0.98962
2279.72156	0.98987
2277.66776	0.98968
2275.61396	0.98909
2273.56015	0.98911
2271.50635	0.98979
2269.45255	0.98997
2267.39874	0.98990
2265.34494	0.99025
2263.29114	0.99008
2261.23733	0.98895
2259.18353	0.98766
2257.12973	0.98716
2255.07592	0.98768
2253.02212	0.98835
2250.96832	0.98850
2248.91451	0.98906
2246.86071	0.99048
2244.80691	0.99107
2242.75310	0.99024
2240.69930	0.98906
2238.64550	0.98845
2236.59169	0.98837
2234.53789	0.98815
2232.48409	0.98817
2230.43029	0.98878
2228.37648	0.98873
2226.32268	0.98792
2224.26888	0.98817
2222.21507	0.98979
2220.16127	0.99127
2218.10747	0.99193
2216.05366	0.99225
2213.99986	0.99239
2211.94606	0.99200
2209.89225	0.99084
2207.83845	0.98986
2205.78465	0.99020
2203.73084	0.99076
2201.67704	0.99033
2199.62324	0.98872
2197.56943	0.98729
2195.51563	0.98788
2193.46183	0.98871
2191.40802	0.98836
2189.35422	0.98918
2187.30042	0.99119
2185.24661	0.99136
2183.19281	0.98952
2181.13901	0.98856
2179.08520	0.99035
2177.03140	0.99238
2174.97760	0.99124
2172.92380	0.98935
2170.86999	0.98985
2168.81619	0.99138
2166.76239	0.99166
2164.70858	0.99078
2162.65478	0.98931
2160.60098	0.98786
2158.54717	0.98919
2156.49337	0.99289
2154.43957	0.99427
2152.38576	0.99232
2150.33196	0.99070
2148.27816	0.99028
2146.22435	0.98973
2144.17055	0.98909
2142.11675	0.98782
2140.06294	0.98704
2138.00914	0.98804
2135.95534	0.99004
2133.90153	0.99198
2131.84773	0.99235
2129.79393	0.99131
2127.74012	0.99077
2125.68632	0.99094
2123.63252	0.99088
2121.57871	0.99063
2119.52491	0.99054
2117.47111	0.98978
2115.41731	0.98836
2113.36350	0.98808
2111.30970	0.98900
2109.25590	0.98983
2107.20209	0.98974
2105.14829	0.98862
2103.09449	0.98777
2101.04068	0.98821
2098.98688	0.98953
2096.93308	0.99083
2094.87927	0.99118
2092.82547	0.99058
2090.77167	0.99024
2088.71786	0.99056
2086.66406	0.99001
2084.61026	0.98900
2082.55645	0.99013
2080.50265	0.99180
2078.44885	0.99123
2076.39504	0.99006
2074.34124	0.99018
2072.28744	0.99038
2070.23363	0.99002
2068.17983	0.99108
2066.12603	0.99303
2064.07223	0.99308
2062.01842	0.99130
2059.96462	0.98953
2057.91082	0.98880
2055.85701	0.98903
2053.80321	0.98946
2051.74941	0.98949
2049.69560	0.98969
2047.64180	0.99018
2045.58800	0.98969
2043.53419	0.98826
2041.48039	0.98855
2039.42659	0.99101
2037.37278	0.99180
2035.31898	0.99169
2033.26518	0.99350
2031.21137	0.99401
2029.15757	0.99426
2027.10377	0.99730
2025.04996	0.99799
2022.99616	0.99344
2020.94236	0.98920
2018.88855	0.98826
2016.83475	0.98835
2014.78095	0.98897
2012.72714	0.98999
2010.67334	0.99022
2008.61954	0.98985
2006.56574	0.99055
2004.51193	0.99274
2002.45813	0.99399
2000.40433	0.99318
1998.35052	0.99049
1996.29672	0.98766
1994.24292	0.98716
1992.18911	0.98838
1990.13531	0.98968
1988.08151	0.99039
1986.02770	0.99037
1983.97390	0.99014
1981.92010	0.98982
1979.86629	0.98936
1977.81249	0.99100
1975.75869	0.99406
1973.70488	0.99338
1971.65108	0.98989
1969.59728	0.98788
1967.54347	0.98814
1965.48967	0.98887
1963.43587	0.98914
1961.38206	0.98975
1959.32826	0.99089
1957.27446	0.99204
1955.22066	0.99218
1953.16685	0.99153
1951.11305	0.99109
1949.05925	0.99059
1947.00544	0.99053
1944.95164	0.99143
1942.89784	0.99191
1940.84403	0.99139
1938.79023	0.99107
1936.73643	0.99115
1934.68262	0.99086
1932.62882	0.99055
1930.57502	0.99120
1928.52121	0.99185
1926.46741	0.99155
1924.41361	0.99104
1922.35980	0.98987
1920.30600	0.98861
1918.25220	0.98881
1916.19839	0.98898
1914.14459	0.98878
1912.09079	0.98923
1910.03698	0.98943
1907.98318	0.98894
1905.92938	0.98843
1903.87557	0.98878
1901.82177	0.98996
1899.76797	0.99026
1897.71417	0.98927
1895.66036	0.98862
1893.60656	0.98889
1891.55276	0.98941
1889.49895	0.99004
1887.44515	0.99086
1885.39135	0.99133
1883.33754	0.99109
1881.28374	0.99057
1879.22994	0.98995
1877.17613	0.98936
1875.12233	0.98925
1873.06853	0.98952
1871.01472	0.98989
1868.96092	0.99014
1866.90712	0.99022
1864.85331	0.98994
1862.79951	0.98955
1860.74571	0.98972
1858.69190	0.99001
1856.63810	0.99013
1854.58430	0.99025
1852.53049	0.98987
1850.47669	0.98927
1848.42289	0.98914
1846.36908	0.98945
1844.31528	0.99000
1842.26148	0.99029
1840.20768	0.99010
1838.15387	0.98994
1836.10007	0.98990
1834.04627	0.98974
1831.99246	0.98953
1829.93866	0.98954
1827.88486	0.98971
1825.83105	0.99009
1823.77725	0.99042
1821.72345	0.99027
1819.66964	0.98998
1817.61584	0.98976
1815.56204	0.98950
1813.50823	0.98951
1811.45443	0.98979
1809.40063	0.98977
1807.34682	0.98949
1805.29302	0.98929
1803.23922	0.98911
1801.18541	0.98905
1799.13161	0.98912
1797.07781	0.98913
1795.02400	0.98921
1792.97020	0.98938
1790.91640	0.98945
1788.86260	0.98943
1786.80879	0.98930
1784.75499	0.98913
1782.70119	0.98882
1780.64738	0.98842
1778.59358	0.98829
1776.53978	0.98832
1774.48597	0.98835
1772.43217	0.98839
1770.37837	0.98826
1768.32456	0.98834
1766.27076	0.98867
1764.21696	0.98858
1762.16315	0.98807
1760.10935	0.98806
1758.05555	0.98835
1756.00174	0.98815
1753.94794	0.98764
1751.89414	0.98722
1749.84033	0.98700
1747.78653	0.98673
1745.73273	0.98607
1743.67892	0.98548
1741.62512	0.98525
1739.57132	0.98465
1737.51751	0.98366
1735.46371	0.98313
1733.40991	0.98349
1731.35611	0.98402
1729.30230	0.98389
1727.24850	0.98344
1725.19470	0.98335
1723.14089	0.98355
1721.08709	0.98361
1719.03329	0.98339
1716.97948	0.98293
1714.92568	0.98299
1712.87188	0.98357
1710.81807	0.98393
1708.76427	0.98400
1706.71047	0.98385
1704.65666	0.98325
1702.60286	0.98259
1700.54906	0.98197
1698.49525	0.98116
1696.44145	0.98063
1694.38765	0.98046
1692.33384	0.98023
1690.28004	0.97980
1688.22624	0.97905
1686.17243	0.97822
1684.11863	0.97765
1682.06483	0.97672
1680.01103	0.97560
1677.95722	0.97482
1675.90342	0.97442
1673.84962	0.97430
1671.79581	0.97420
1669.74201	0.97379
1667.68821	0.97300
1665.63440	0.97229
1663.58060	0.97168
1661.52680	0.97123
1659.47299	0.97097
1657.41919	0.97078
1655.36539	0.97073
1653.31158	0.97092
1651.25778	0.97061
1649.20398	0.96997
1647.15017	0.96952
1645.09637	0.96929
1643.04257	0.96916
1640.98876	0.96921
1638.93496	0.96938
1636.88116	0.96946
1634.82735	0.96897
1632.77355	0.96831
1630.71975	0.96816
1628.66594	0.96866
1626.61214	0.96936
1624.55834	0.96965
1622.50454	0.96954
1620.45073	0.96924
1618.39693	0.96927
1616.34313	0.97023
1614.28932	0.97120
1612.23552	0.97163
1610.18172	0.97222
1608.12791	0.97289
1606.07411	0.97317
1604.02031	0.97332
1601.96650	0.97358
1599.91270	0.97384
1597.85890	0.97405
1595.80509	0.97428
1593.75129	0.97454
1591.69749	0.97492
1589.64368	0.97540
1587.58988	0.97579
1585.53608	0.97600
1583.48227	0.97599
1581.42847	0.97588
1579.37467	0.97574
1577.32086	0.97576
1575.26706	0.97633
1573.21326	0.97690
1571.15945	0.97724
1569.10565	0.97739
1567.05185	0.97729
1564.99805	0.97723
1562.94424	0.97736
1560.89044	0.97762
1558.83664	0.97785
1556.78283	0.97769
1554.72903	0.97751
1552.67523	0.97751
1550.62142	0.97749
1548.56762	0.97753
1546.51382	0.97789
1544.46001	0.97813
1542.40621	0.97778
1540.35241	0.97782
1538.29860	0.97837
1536.24480	0.97863
1534.19100	0.97903
1532.13719	0.97936
1530.08339	0.97922
1528.02959	0.97921
1525.97578	0.97988
1523.92198	0.98051
1521.86818	0.98060
1519.81437	0.98073
1517.76057	0.98122
1515.70677	0.98160
1513.65297	0.98162
1511.59916	0.98187
1509.54536	0.98233
1507.49156	0.98277
1505.43775	0.98316
1503.38395	0.98289
1501.33015	0.98223
1499.27634	0.98152
1497.22254	0.98125
1495.16874	0.98141
1493.11493	0.98153
1491.06113	0.98165
1489.00733	0.98183
1486.95352	0.98168
1484.89972	0.98116
1482.84592	0.98039
1480.79211	0.97907
1478.73831	0.97632
1476.68451	0.96922
1474.63070	0.95463
1472.57690	0.93875
1470.52310	0.93548
1468.46929	0.93936
1466.41549	0.94155
1464.36169	0.93950
1462.30788	0.93825
1460.25408	0.94276
1458.20028	0.95193
1456.14648	0.96018
1454.09267	0.96360
1452.03887	0.96559
1449.98507	0.96741
1447.93126	0.96925
1445.87746	0.97056
1443.82366	0.97113
1441.76985	0.97158
1439.71605	0.97220
1437.66225	0.97297
1435.60844	0.97373
1433.55464	0.97419
1431.50084	0.97451
1429.44703	0.97484
1427.39323	0.97526
1425.33943	0.97583
1423.28562	0.97645
1421.23182	0.97676
1419.17802	0.97687
1417.12421	0.97717
1415.07041	0.97743
1413.01661	0.97745
1410.96280	0.97726
1408.90900	0.97707
1406.85520	0.97706
1404.80139	0.97730
1402.74759	0.97767
1400.69379	0.97788
1398.63999	0.97802
1396.58618	0.97842
1394.53238	0.97876
1392.47858	0.97863
1390.42477	0.97838
1388.37097	0.97804
1386.31717	0.97752
1384.26336	0.97710
1382.20956	0.97664
1380.15576	0.97592
1378.10195	0.97537
1376.04815	0.97545
1373.99435	0.97590
1371.94054	0.97613
1369.88674	0.97613
1367.83294	0.97611
1365.77913	0.97635
1363.72533	0.97690
1361.67153	0.97752
1359.61772	0.97801
1357.56392	0.97828
1355.51012	0.97841
1353.45631	0.97874
1351.40251	0.97906
1349.34871	0.97895
1347.29491	0.97865
1345.24110	0.97868
1343.18730	0.97908
1341.13350	0.97948
1339.07969	0.97948
1337.02589	0.97937
1334.97209	0.97970
1332.91828	0.98001
1330.86448	0.97996
1328.81068	0.97983
1326.75687	0.97979
1324.70307	0.97978
1322.64927	0.97975
1320.59546	0.97962
1318.54166	0.97934
1316.48786	0.97921
1314.43405	0.97939
1312.38025	0.97958
1310.32645	0.97953
1308.27264	0.97935
1306.21884	0.97909
1304.16504	0.97872
1302.11123	0.97846
1300.05743	0.97848
1298.00363	0.97875
1295.94982	0.97905
1293.89602	0.97912
1291.84222	0.97904
1289.78842	0.97907
1287.73461	0.97921
1285.68081	0.97937
1283.62701	0.97938
1281.57320	0.97907
1279.51940	0.97877
1277.46560	0.97849
1275.41179	0.97784
1273.35799	0.97723
1271.30419	0.97721
1269.25038	0.97729
1267.19658	0.97698
1265.14278	0.97657
1263.08897	0.97639
1261.03517	0.97640
1258.98137	0.97638
1256.92756	0.97624
1254.87376	0.97601
1252.81996	0.97565
1250.76615	0.97529
1248.71235	0.97509
1246.65855	0.97475
1244.60474	0.97426
1242.55094	0.97396
1240.49714	0.97394
1238.44334	0.97390
1236.38953	0.97349
1234.33573	0.97304
1232.28193	0.97309
1230.22812	0.97321
1228.17432	0.97302
1226.12052	0.97285
1224.06671	0.97264
1222.01291	0.97220
1219.95911	0.97188
1217.90530	0.97173
1215.85150	0.97150
1213.79770	0.97107
1211.74389	0.97039
1209.69009	0.96966
1207.63629	0.96913
1205.58248	0.96886
1203.52868	0.96871
1201.47488	0.96843
1199.42107	0.96796
1197.36727	0.96734
1195.31347	0.96659
1193.25966	0.96580
1191.20586	0.96499
1189.15206	0.96407
1187.09825	0.96300
1185.04445	0.96166
1182.99065	0.96035
1180.93685	0.95928
1178.88304	0.95800
1176.82924	0.95645
1174.77544	0.95499
1172.72163	0.95376
1170.66783	0.95268
1168.61403	0.95135
1166.56022	0.94974
1164.50642	0.94833
1162.45262	0.94714
1160.39881	0.94603
1158.34501	0.94494
1156.29121	0.94367
1154.23740	0.94243
1152.18360	0.94146
1150.12980	0.94072
1148.07599	0.94020
1146.02219	0.93942
1143.96839	0.93807
1141.91458	0.93680
1139.86078	0.93592
1137.80698	0.93527
1135.75317	0.93488
1133.69937	0.93428
1131.64557	0.93295
1129.59176	0.93116
1127.53796	0.92932
1125.48416	0.92728
1123.43036	0.92489
1121.37655	0.92241
1119.32275	0.92015
1117.26895	0.91817
1115.21514	0.91621
1113.16134	0.91425
1111.10754	0.91261
1109.05373	0.91155
1106.99993	0.91072
1104.94613	0.90960
1102.89232	0.90832
1100.83852	0.90733
1098.78472	0.90636
1096.73091	0.90500
1094.67711	0.90365
1092.62331	0.90302
1090.56950	0.90310
1088.51570	0.90293
1086.46190	0.90213
1084.40809	0.90160
1082.35429	0.90138
1080.30049	0.90081
1078.24668	0.89985
1076.19288	0.89888
1074.13908	0.89828
1072.08528	0.89774
1070.03147	0.89672
1067.97767	0.89526
1065.92387	0.89362
1063.87006	0.89209
1061.81626	0.89048
1059.76246	0.88824
1057.70865	0.88538
1055.65485	0.88249
1053.60105	0.88000
1051.54724	0.87738
1049.49344	0.87439
1047.43964	0.87144
1045.38583	0.86877
1043.33203	0.86625
1041.27823	0.86359
1039.22442	0.86077
1037.17062	0.85820
1035.11682	0.85614
1033.06301	0.85461
1031.00921	0.85365
1028.95541	0.85319
1026.90160	0.85291
1024.84780	0.85277
1022.79400	0.85307
1020.74019	0.85349
1018.68639	0.85361
1016.63259	0.85388
1014.57879	0.85408
1012.52498	0.85353
1010.47118	0.85267
1008.41738	0.85235
1006.36357	0.85299
1004.30977	0.85424
1002.25597	0.85568
1000.20216	0.85758
998.14836	0.86007
996.09456	0.86288
994.04075	0.86586
991.98695	0.86903
989.93315	0.87248
987.87934	0.87649
985.82554	0.88082
983.77174	0.88462
981.71793	0.88768
979.66413	0.89058
977.61033	0.89380
975.55652	0.89738
973.50272	0.90080
971.44892	0.90390
969.39511	0.90703
967.34131	0.90990
965.28751	0.91238
963.23371	0.91476
961.17990	0.91693
959.12610	0.91903
957.07230	0.92098
955.01849	0.92256
952.96469	0.92408
950.91089	0.92558
948.85708	0.92685
946.80328	0.92758
944.74948	0.92784
942.69567	0.92808
940.64187	0.92858
938.58807	0.92954
936.53426	0.93028
934.48046	0.93046
932.42666	0.93072
930.37285	0.93116
928.31905	0.93164
926.26525	0.93189
924.21144	0.93159
922.15764	0.93084
920.10384	0.92985
918.05003	0.92868
915.99623	0.92752
913.94243	0.92646
911.88862	0.92581
909.83482	0.92668
907.78102	0.92924
905.72722	0.93215
903.67341	0.93484
901.61961	0.93764
899.56581	0.94016
897.51200	0.94220
895.45820	0.94446
893.40440	0.94666
891.35059	0.94787
889.29679	0.94835
887.24299	0.94870
885.18918	0.94921
883.13538	0.94993
881.08158	0.95053
879.02777	0.95094
876.97397	0.95156
874.92017	0.95262
872.86636	0.95341
870.81256	0.95351
868.75876	0.95376
866.70495	0.95471
864.65115	0.95567
862.59735	0.95604
860.54354	0.95639
858.48974	0.95711
856.43594	0.95784
854.38213	0.95857
852.32833	0.95922
850.27453	0.95985
848.22073	0.96100
846.16692	0.96187
844.11312	0.96158
842.05932	0.96086
840.00551	0.96042
837.95171	0.96038
835.89791	0.96036
833.84410	0.95996
831.79030	0.95963
829.73650	0.95964
827.68269	0.95954
825.62889	0.95894
823.57509	0.95829
821.52128	0.95813
819.46748	0.95820
817.41368	0.95827
815.35987	0.95832
813.30607	0.95831
811.25227	0.95804
809.19846	0.95706
807.14466	0.95595
805.09086	0.95526
803.03705	0.95415
800.98325	0.95255
798.92945	0.95176
796.87565	0.95192
794.82184	0.95190
792.76804	0.95182
790.71424	0.95209
788.66043	0.95220
786.60663	0.95203
784.55283	0.95196
782.49902	0.95189
780.44522	0.95171
778.39142	0.95161
776.33761	0.95143
774.28381	0.95160
772.23001	0.95250
770.17620	0.95310
768.12240	0.95288
766.06860	0.95213
764.01479	0.95137
761.96099	0.95094
759.90719	0.95030
757.85338	0.94911
755.79958	0.94807
753.74578	0.94785
751.69197	0.94820
749.63817	0.94852
747.58437	0.94863
745.53056	0.94866
743.47676	0.94841
741.42296	0.94795
739.36916	0.94759
737.31535	0.94704
735.26155	0.94437
733.20775	0.93702
731.15394	0.92854
729.10014	0.92592
727.04634	0.92846
724.99253	0.93003
722.93873	0.92540
720.88493	0.91349
718.83112	0.90176
716.77732	0.89933
714.72352	0.90655
712.66971	0.91756
710.61591	0.92642
708.56211	0.93140
706.50830	0.93351
704.45450	0.93349
702.40070	0.93307
700.34689	0.93343
698.29309	0.93331
696.23929	0.93228
694.18548	0.93145
692.13168	0.93150
690.07788	0.93223
688.02408	0.93204
685.97027	0.93088
683.91647	0.93110
681.86267	0.93245
679.80886	0.93291
677.75506	0.93229
675.70126	0.93190
673.64745	0.93214
671.59365	0.93172
669.53985	0.93128
667.48604	0.93333
665.43224	0.93519
663.37844	0.93567
661.32463	0.93640
659.27083	0.93714
657.21703	0.93649
655.16322	0.93501
653.10942	0.93434
651.05562	0.93479
649.00181	0.93543
646.94801	0.93537
644.89421	0.93473
642.84040	0.93425
640.78660	0.93461
638.73280	0.93552
636.67899	0.93611
634.62519	0.93634
632.57139	0.93569
630.51759	0.93448
628.46378	0.93442
626.40998	0.93529
624.35618	0.93569
622.30237	0.93504
620.24857	0.93332
618.19477	0.93215
616.14096	0.93246
614.08716	0.93151
612.03336	0.92937
609.97955	0.92895
607.92575	0.92891
605.87195	0.92713
603.81814	0.92528
601.76434	0.92487
599.71054	0.92522
597.65673	0.92564
595.60293	0.92557
593.54913	0.92519
591.49532	0.92493
589.44152	0.92416
587.38772	0.92285
585.33391	0.92135
583.28011	0.91992
581.22631	0.91934
579.17250	0.91976
577.11870	0.91982
575.06490	0.91850
573.01110	0.91661
570.95729	0.91598
568.90349	0.91761
566.84969	0.91914
564.79588	0.91784
562.74208	0.91508
560.68828	0.91247
558.63447	0.90997
556.58067	0.90840
554.52687	0.90756
552.47306	0.90614
550.41926	0.90397
548.36546	0.90119
546.31165	0.89818
544.25785	0.89563
542.20405	0.89316
540.15024	0.89074
538.09644	0.88916
536.04264	0.88881
533.98883	0.88880
531.93503	0.88708
529.88123	0.88464
527.82742	0.88443
525.77362	0.88728
523.71982	0.89134
521.66602	0.89477
519.61221	0.89744
517.55841	0.89838
515.50461	0.89666
513.45080	0.89452
511.39700	0.89456
509.34320	0.89552
507.28939	0.89586
505.23559	0.89755
503.18179	0.90160
501.12798	0.90443
499.07418	0.90339
497.02038	0.90216
494.96657	0.90174
492.91277	0.90002
490.85897	0.89828
488.80516	0.89744
486.75136	0.89606
484.69756	0.89264
482.64375	0.88787
480.58995	0.88394
478.53615	0.88101
476.48234	0.87780
474.42854	0.87352
472.37474	0.86839
470.32093	0.86369
468.26713	0.86123
466.21333	0.86108
464.15953	0.86208
462.10572	0.86442
460.05192	0.86703
457.99812	0.86836
455.94431	0.86999
453.89051	0.87214
451.83671	0.87457
449.78290	0.87772
447.72910	0.87824
445.67530	0.87608
443.62149	0.87713
441.56769	0.88109
439.51389	0.88348
437.46008	0.88231
435.40628	0.87798
433.35248	0.87583
431.29867	0.87793
429.24487	0.87940
427.19107	0.87824
425.13726	0.87671
423.08346	0.87686
421.02966	0.87904
418.97585	0.88211
416.92205	0.88422
414.86825	0.88532
412.81445	0.88659
410.76064	0.88888
408.70684	0.89303
406.65304	0.89712
404.59923	0.89865
402.54543	0.90044
400.49163	0.90547
398.43782	0.90833
