3996.70104	0.98184
3994.64724	0.98204
3992.59344	0.98215
3990.53964	0.98243
3988.48583	0.98259
3986.43203	0.98232
3984.37823	0.98183
3982.32442	0.98161
3980.27062	0.98179
3978.21682	0.98201
3976.16301	0.98214
3974.10921	0.98230
3972.05541	0.98229
3970.00160	0.98215
3967.94780	0.98214
3965.89400	0.98220
3963.84019	0.98226
3961.78639	0.98244
3959.73259	0.98247
3957.67878	0.98217
3955.62498	0.98210
3953.57118	0.98227
3951.51737	0.98209
3949.46357	0.98172
3947.40977	0.98174
3945.35596	0.98222
3943.30216	0.98254
3941.24836	0.98242
3939.19455	0.98255
3937.14075	0.98313
3935.08695	0.98346
3933.03315	0.98331
3930.97934	0.98307
3928.92554	0.98277
3926.87174	0.98233
3924.81793	0.98182
3922.76413	0.98149
3920.71033	0.98146
3918.65652	0.98184
3916.60272	0.98278
3914.54892	0.98342
3912.49511	0.98338
3910.44131	0.98315
3908.38751	0.98287
3906.33370	0.98237
3904.27990	0.98156
3902.22610	0.98131
3900.17229	0.98230
3898.11849	0.98296
3896.06469	0.98238
3894.01088	0.98171
3891.95708	0.98186
3889.90328	0.98256
3887.84947	0.98321
3885.79567	0.98374
3883.74187	0.98374
3881.68807	0.98362
3879.63426	0.98371
3877.58046	0.98330
3875.52666	0.98249
3873.47285	0.98150
3871.41905	0.98069
3869.36525	0.98099
3867.31144	0.98234
3865.25764	0.98349
3863.20384	0.98369
3861.15003	0.98315
3859.09623	0.98271
3857.04243	0.98269
3854.98862	0.98324
3852.93482	0.98410
3850.88102	0.98422
3848.82721	0.98375
3846.77341	0.98315
3844.71961	0.98315
3842.66580	0.98352
3840.61200	0.98327
3838.55820	0.98284
3836.50439	0.98261
3834.45059	0.98229
3832.39679	0.98224
3830.34298	0.98235
3828.28918	0.98217
3826.23538	0.98216
3824.18158	0.98292
3822.12777	0.98397
3820.07397	0.98370
3818.02017	0.98268
3815.96636	0.98281
3813.91256	0.98326
3811.85876	0.98290
3809.80495	0.98248
3807.75115	0.98237
3805.69735	0.98195
3803.64354	0.98134
3801.58974	0.98144
3799.53594	0.98234
3797.48213	0.98292
3795.42833	0.98300
3793.37453	0.98271
3791.32072	0.98219
3789.26692	0.98172
3787.21312	0.98141
3785.15931	0.98147
3783.10551	0.98202
3781.05171	0.98243
3778.99790	0.98218
3776.94410	0.98165
3774.89030	0.98135
3772.83650	0.98131
3770.78269	0.98147
3768.72889	0.98155
3766.67509	0.98153
3764.62128	0.98167
3762.56748	0.98174
3760.51368	0.98186
3758.45987	0.98243
3756.40607	0.98319
3754.35227	0.98350
3752.29846	0.98351
3750.24466	0.98391
3748.19086	0.98377
3746.13705	0.98324
3744.08325	0.98332
3742.02945	0.98308
3739.97564	0.98238
3737.92184	0.98256
3735.86804	0.98402
3733.81423	0.98456
3731.76043	0.98343
3729.70663	0.98261
3727.65282	0.98249
3725.59902	0.98241
3723.54522	0.98171
3721.49141	0.98055
3719.43761	0.97994
3717.38381	0.98015
3715.33001	0.98046
3713.27620	0.98036
3711.22240	0.97950
3709.16860	0.97800
3707.11479	0.97647
3705.06099	0.97519
3703.00719	0.97436
3700.95338	0.97349
3698.89958	0.97215
3696.84578	0.97137
3694.79197	0.97165
3692.73817	0.97227
3690.68437	0.97328
3688.63056	0.97450
3686.57676	0.97464
3684.52296	0.97439
3682.46915	0.97416
3680.41535	0.97376
3678.36155	0.97346
3676.30774	0.97334
3674.25394	0.97335
3672.20014	0.97318
3670.14633	0.97301
3668.09253	0.97310
3666.03873	0.97253
3663.98492	0.97145
3661.93112	0.97058
3659.87732	0.96994
3657.82352	0.96953
3655.76971	0.96920
3653.71591	0.96874
3651.66211	0.96824
3649.60830	0.96737
3647.55450	0.96661
3645.50070	0.96627
3643.44689	0.96556
3641.39309	0.96493
3639.33929	0.96492
3637.28548	0.96494
3635.23168	0.96470
3633.17788	0.96465
3631.12407	0.96458
3629.07027	0.96383
3627.01647	0.96294
3624.96266	0.96246
3622.90886	0.96214
3620.85506	0.96206
3618.80125	0.96186
3616.74745	0.96166
3614.69365	0.96214
3612.63984	0.96284
3610.58604	0.96281
3608.53224	0.96231
3606.47844	0.96234
3604.42463	0.96306
3602.37083	0.96352
3600.31703	0.96332
3598.26322	0.96326
3596.20942	0.96405
3594.15562	0.96526
3592.10181	0.96554
3590.04801	0.96499
3587.99421	0.96510
3585.94040	0.96613
3583.88660	0.96642
3581.83280	0.96575
3579.77899	0.96483
3577.72519	0.96426
3575.67139	0.96389
3573.61758	0.96359
3571.56378	0.96383
3569.50998	0.96424
3567.45617	0.96440
3565.40237	0.96418
3563.34857	0.96359
3561.29476	0.96328
3559.24096	0.96339
3557.18716	0.96339
3555.13335	0.96312
3553.07955	0.96296
3551.02575	0.96325
3548.97195	0.96365
3546.91814	0.96318
3544.86434	0.96223
3542.81054	0.96212
3540.75673	0.96253
3538.70293	0.96273
3536.64913	0.96266
3534.59532	0.96277
3532.54152	0.96331
3530.48772	0.96361
3528.43391	0.96314
3526.38011	0.96307
3524.32631	0.96426
3522.27250	0.96549
3520.21870	0.96493
3518.16490	0.96317
3516.11109	0.96236
3514.05729	0.96284
3512.00349	0.96333
3509.94968	0.96329
3507.89588	0.96326
3505.84208	0.96319
3503.78827	0.96274
3501.73447	0.96211
3499.68067	0.96172
3497.62687	0.96187
3495.57306	0.96195
3493.51926	0.96138
3491.46546	0.96085
3489.41165	0.96112
3487.35785	0.96183
3485.30405	0.96214
3483.25024	0.96194
3481.19644	0.96183
3479.14264	0.96173
3477.08883	0.96116
3475.03503	0.96055
3472.98123	0.96015
3470.92742	0.96026
3468.87362	0.96095
3466.81982	0.96108
3464.76601	0.96031
3462.71221	0.95936
3460.65841	0.95866
3458.60460	0.95831
3456.55080	0.95815
3454.49700	0.95786
3452.44319	0.95767
3450.38939	0.95769
3448.33559	0.95744
3446.28178	0.95715
3444.22798	0.95722
3442.17418	0.95733
3440.12038	0.95726
3438.06657	0.95688
3436.01277	0.95665
3433.95897	0.95683
3431.90516	0.95690
3429.85136	0.95687
3427.79756	0.95721
3425.74375	0.95781
3423.68995	0.95813
3421.63615	0.95824
3419.58234	0.95821
3417.52854	0.95784
3415.47474	0.95747
3413.42093	0.95746
3411.36713	0.95746
3409.31333	0.95702
3407.25952	0.95645
3405.20572	0.95633
3403.15192	0.95657
3401.09811	0.95655
3399.04431	0.95621
3396.99051	0.95601
3394.93670	0.95600
3392.88290	0.95611
3390.82910	0.95625
3388.77529	0.95615
3386.72149	0.95598
3384.66769	0.95606
3382.61389	0.95638
3380.56008	0.95656
3378.50628	0.95642
3376.45248	0.95635
3374.39867	0.95646
3372.34487	0.95641
3370.29107	0.95603
3368.23726	0.95558
3366.18346	0.95510
3364.12966	0.95461
3362.07585	0.95468
3360.02205	0.95501
3357.96825	0.95480
3355.91444	0.95451
3353.86064	0.95469
3351.80684	0.95523
3349.75303	0.95554
3347.69923	0.95531
3345.64543	0.95499
3343.59162	0.95479
3341.53782	0.95474
3339.48402	0.95477
3337.43021	0.95470
3335.37641	0.95459
3333.32261	0.95441
3331.26881	0.95424
3329.21500	0.95448
3327.16120	0.95502
3325.10740	0.95541
3323.05359	0.95563
3320.99979	0.95592
3318.94599	0.95630
3316.89218	0.95633
3314.83838	0.95616
3312.78458	0.95629
3310.73077	0.95630
3308.67697	0.95598
3306.62317	0.95590
3304.56936	0.95622
3302.51556	0.95663
3300.46176	0.95711
3298.40795	0.95774
3296.35415	0.95852
3294.30035	0.95910
3292.24654	0.95907
3290.19274	0.95875
3288.13894	0.95853
3286.08513	0.95859
3284.03133	0.95872
3281.97753	0.95851
3279.92372	0.95859
3277.86992	0.95946
3275.81612	0.96019
3273.76232	0.96001
3271.70851	0.95933
3269.65471	0.95890
3267.60091	0.95908
3265.54710	0.95990
3263.49330	0.96114
3261.43950	0.96202
3259.38569	0.96205
3257.33189	0.96195
3255.27809	0.96241
3253.22428	0.96295
3251.17048	0.96286
3249.11668	0.96236
3247.06287	0.96188
3245.00907	0.96181
3242.95527	0.96234
3240.90146	0.96282
3238.84766	0.96278
3236.79386	0.96275
3234.74005	0.96320
3232.68625	0.96383
3230.63245	0.96434
3228.57864	0.96477
3226.52484	0.96470
3224.47104	0.96431
3222.41724	0.96465
3220.36343	0.96533
3218.30963	0.96544
3216.25583	0.96501
3214.20202	0.96453
3212.14822	0.96438
3210.09442	0.96437
3208.04061	0.96453
3205.98681	0.96520
3203.93301	0.96617
3201.87920	0.96694
3199.82540	0.96711
3197.77160	0.96690
3195.71779	0.96687
3193.66399	0.96679
3191.61019	0.96668
3189.55638	0.96698
3187.50258	0.96751
3185.44878	0.96778
3183.39497	0.96770
3181.34117	0.96784
3179.28737	0.96802
3177.23356	0.96768
3175.17976	0.96746
3173.12596	0.96784
3171.07215	0.96825
3169.01835	0.96848
3166.96455	0.96853
3164.91075	0.96820
3162.85694	0.96800
3160.80314	0.96823
3158.74934	0.96845
3156.69553	0.96846
3154.64173	0.96853
3152.58793	0.96898
3150.53412	0.96949
3148.48032	0.96943
3146.42652	0.96919
3144.37271	0.96952
3142.31891	0.96999
3140.26511	0.96989
3138.21130	0.96958
3136.15750	0.96966
3134.10370	0.96997
3132.04989	0.97029
3129.99609	0.97051
3127.94229	0.97050
3125.88848	0.97062
3123.83468	0.97102
3121.78088	0.97123
3119.72707	0.97112
3117.67327	0.97086
3115.61947	0.97085
3113.56566	0.97125
3111.51186	0.97162
3109.45806	0.97164
3107.40426	0.97144
3105.35045	0.97131
3103.29665	0.97138
3101.24285	0.97150
3099.18904	0.97187
3097.13524	0.97229
3095.08144	0.97209
3093.02763	0.97175
3090.97383	0.97189
3088.92003	0.97190
3086.86622	0.97131
3084.81242	0.97081
3082.75862	0.97105
3080.70481	0.97165
3078.65101	0.97188
3076.59721	0.97185
3074.54340	0.97200
3072.48960	0.97217
3070.43580	0.97209
3068.38199	0.97188
3066.32819	0.97199
3064.27439	0.97220
3062.22058	0.97208
3060.16678	0.97205
3058.11298	0.97237
3056.05918	0.97264
3054.00537	0.97250
3051.95157	0.97210
3049.89777	0.97197
3047.84396	0.97227
3045.79016	0.97269
3043.73636	0.97292
3041.68255	0.97290
3039.62875	0.97266
3037.57495	0.97257
3035.52114	0.97292
3033.46734	0.97329
3031.41354	0.97323
3029.35973	0.97319
3027.30593	0.97326
3025.25213	0.97309
3023.19832	0.97287
3021.14452	0.97282
3019.09072	0.97278
3017.03691	0.97256
3014.98311	0.97207
3012.92931	0.97176
3010.87550	0.97199
3008.82170	0.97237
3006.76790	0.97242
3004.71409	0.97203
3002.66029	0.97148
3000.60649	0.97109
2998.55269	0.97086
2996.49888	0.97038
2994.44508	0.96969
2992.39128	0.96919
2990.33747	0.96841
2988.28367	0.96703
2986.22987	0.96563
2984.17606	0.96410
2982.12226	0.96169
2980.06846	0.95830
2978.01465	0.95412
2975.96085	0.94900
2973.90705	0.94226
2971.85324	0.93363
2969.79944	0.92409
2967.74564	0.91487
2965.69183	0.90698
2963.63803	0.90188
2961.58423	0.90110
2959.53042	0.90477
2957.47662	0.91131
2955.42282	0.91853
2953.36901	0.92493
2951.31521	0.92986
2949.26141	0.93281
2947.20761	0.93340
2945.15380	0.93176
2943.10000	0.92798
2941.04620	0.92204
2938.99239	0.91424
2936.93859	0.90487
2934.88479	0.89418
2932.83098	0.88179
2930.77718	0.86679
2928.72338	0.84900
2926.66957	0.82866
2924.61577	0.80525
2922.56197	0.77844
2920.50816	0.74974
2918.45436	0.72382
2916.40056	0.70802
2914.34675	0.70789
2912.29295	0.72229
2910.23915	0.74432
2908.18534	0.76678
2906.13154	0.78591
2904.07774	0.80128
2902.02393	0.81390
2899.97013	0.82478
2897.91633	0.83446
2895.86252	0.84327
2893.80872	0.85179
2891.75492	0.86026
2889.70112	0.86851
2887.64731	0.87681
2885.59351	0.88504
2883.53971	0.89278
2881.48590	0.90015
2879.43210	0.90734
2877.37830	0.91390
2875.32449	0.91898
2873.27069	0.92248
2871.21689	0.92472
2869.16308	0.92561
2867.10928	0.92484
2865.05548	0.92202
2863.00167	0.91649
2860.94787	0.90728
2858.89407	0.89310
2856.84026	0.87246
2854.78646	0.84325
2852.73266	0.80445
2850.67885	0.76261
2848.62505	0.73462
2846.57125	0.73464
2844.51744	0.75977
2842.46364	0.79572
2840.40984	0.83074
2838.35603	0.85959
2836.30223	0.88152
2834.24843	0.89789
2832.19463	0.91011
2830.14082	0.91941
2828.08702	0.92671
2826.03322	0.93268
2823.97941	0.93780
2821.92561	0.94200
2819.87181	0.94535
2817.81800	0.94829
2815.76420	0.95076
2813.71040	0.95248
2811.65659	0.95390
2809.60279	0.95538
2807.54899	0.95674
2805.49518	0.95786
2803.44138	0.95881
2801.38758	0.95965
2799.33377	0.96060
2797.27997	0.96170
2795.22617	0.96264
2793.17236	0.96344
2791.11856	0.96420
2789.06476	0.96483
2787.01095	0.96552
2784.95715	0.96642
2782.90335	0.96732
2780.84955	0.96797
2778.79574	0.96842
2776.74194	0.96889
2774.68814	0.96944
2772.63433	0.97006
2770.58053	0.97041
2768.52673	0.97027
2766.47292	0.97031
2764.41912	0.97085
2762.36532	0.97137
2760.31151	0.97169
2758.25771	0.97209
2756.20391	0.97245
2754.15010	0.97277
2752.09630	0.97327
2750.04250	0.97341
2747.98869	0.97311
2745.93489	0.97315
2743.88109	0.97363
2741.82728	0.97401
2739.77348	0.97387
2737.71968	0.97349
2735.66587	0.97353
2733.61207	0.97388
2731.55827	0.97403
2729.50446	0.97416
2727.45066	0.97428
2725.39686	0.97421
2723.34306	0.97418
2721.28925	0.97422
2719.23545	0.97435
2717.18165	0.97472
2715.12784	0.97517
2713.07404	0.97522
2711.02024	0.97508
2708.96643	0.97528
2706.91263	0.97553
2704.85883	0.97567
2702.80502	0.97579
2700.75122	0.97571
2698.69742	0.97559
2696.64361	0.97577
2694.58981	0.97611
2692.53601	0.97623
2690.48220	0.97611
2688.42840	0.97605
2686.37460	0.97611
2684.32079	0.97599
2682.26699	0.97563
2680.21319	0.97550
2678.15938	0.97576
2676.10558	0.97580
2674.05178	0.97538
2671.99797	0.97503
2669.94417	0.97495
2667.89037	0.97501
2665.83657	0.97498
2663.78276	0.97464
2661.72896	0.97453
2659.67516	0.97500
2657.62135	0.97541
2655.56755	0.97545
2653.51375	0.97533
2651.45994	0.97509
2649.40614	0.97484
2647.35234	0.97471
2645.29853	0.97465
2643.24473	0.97465
2641.19093	0.97465
2639.13712	0.97476
2637.08332	0.97499
2635.02952	0.97515
2632.97571	0.97523
2630.92191	0.97513
2628.86811	0.97506
2626.81430	0.97545
2624.76050	0.97623
2622.70670	0.97707
2620.65289	0.97773
2618.59909	0.97809
2616.54529	0.97805
2614.49149	0.97755
2612.43768	0.97702
2610.38388	0.97691
2608.33008	0.97701
2606.27627	0.97732
2604.22247	0.97796
2602.16867	0.97844
2600.11486	0.97829
2598.06106	0.97798
2596.00726	0.97813
2593.95345	0.97865
2591.89965	0.97938
2589.84585	0.98013
2587.79204	0.98006
2585.73824	0.97907
2583.68444	0.97846
2581.63063	0.97867
2579.57683	0.97899
2577.52303	0.97911
2575.46922	0.97903
2573.41542	0.97891
2571.36162	0.97888
2569.30781	0.97886
2567.25401	0.97893
2565.20021	0.97870
2563.14640	0.97841
2561.09260	0.97891
2559.03880	0.97985
2556.98500	0.98060
2554.93119	0.98067
2552.87739	0.98037
2550.82359	0.98073
2548.76978	0.98114
2546.71598	0.98071
2544.66218	0.97995
2542.60837	0.97973
2540.55457	0.97969
2538.50077	0.97920
2536.44696	0.97897
2534.39316	0.97922
2532.33936	0.97996
2530.28555	0.98087
2528.23175	0.98088
2526.17795	0.98088
2524.12414	0.98155
2522.07034	0.98199
2520.01654	0.98243
2517.96273	0.98283
2515.90893	0.98254
2513.85513	0.98197
2511.80132	0.98132
2509.74752	0.98050
2507.69372	0.98012
2505.63992	0.98053
2503.58611	0.98132
2501.53231	0.98180
2499.47851	0.98201
2497.42470	0.98201
2495.37090	0.98154
2493.31710	0.98120
2491.26329	0.98155
2489.20949	0.98224
2487.15569	0.98263
2485.10188	0.98227
2483.04808	0.98158
2480.99428	0.98126
2478.94047	0.98143
2476.88667	0.98188
2474.83287	0.98205
2472.77906	0.98197
2470.72526	0.98214
2468.67146	0.98240
2466.61765	0.98234
2464.56385	0.98218
2462.51005	0.98224
2460.45624	0.98202
2458.40244	0.98150
2456.34864	0.98154
2454.29483	0.98187
2452.24103	0.98193
2450.18723	0.98201
2448.13343	0.98224
2446.07962	0.98241
2444.02582	0.98259
2441.97202	0.98271
2439.91821	0.98271
2437.86441	0.98297
2435.81061	0.98333
2433.75680	0.98375
2431.70300	0.98421
2429.64920	0.98429
2427.59539	0.98404
2425.54159	0.98343
2423.48779	0.98289
2421.43398	0.98302
2419.38018	0.98320
2417.32638	0.98307
2415.27257	0.98298
2413.21877	0.98295
2411.16497	0.98281
2409.11116	0.98255
2407.05736	0.98221
2405.00356	0.98214
2402.94975	0.98251
2400.89595	0.98293
2398.84215	0.98328
2396.78834	0.98354
2394.73454	0.98331
2392.68074	0.98265
2390.62694	0.98213
2388.57313	0.98216
2386.51933	0.98259
2384.46553	0.98293
2382.41172	0.98278
2380.35792	0.98240
2378.30412	0.98261
2376.25031	0.98303
2374.19651	0.98240
2372.14271	0.98121
2370.08890	0.98094
2368.03510	0.98185
2365.98130	0.98258
2363.92749	0.98205
2361.87369	0.98092
2359.81989	0.98061
2357.76608	0.98144
2355.71228	0.98222
2353.65848	0.98236
2351.60467	0.98170
2349.55087	0.98061
2347.49707	0.98019
2345.44326	0.98063
2343.38946	0.98082
2341.33566	0.98050
2339.28186	0.98042
2337.22805	0.98070
2335.17425	0.98107
2333.12045	0.98108
2331.06664	0.98084
2329.01284	0.98089
2326.95904	0.98073
2324.90523	0.98006
2322.85143	0.97989
2320.79763	0.98014
2318.74382	0.98004
2316.69002	0.97998
2314.63622	0.97998
2312.58241	0.98039
2310.52861	0.98135
2308.47481	0.98172
2306.42100	0.98099
2304.36720	0.98015
2302.31340	0.98004
2300.25959	0.98058
2298.20579	0.98157
2296.15199	0.98247
2294.09818	0.98263
2292.04438	0.98229
2289.99058	0.98185
2287.93677	0.98109
2285.88297	0.98015
2283.82917	0.98005
2281.77537	0.98107
2279.72156	0.98191
2277.66776	0.98221
2275.61396	0.98296
2273.56015	0.98399
2271.50635	0.98423
2269.45255	0.98393
2267.39874	0.98416
2265.34494	0.98463
2263.29114	0.98425
2261.23733	0.98309
2259.18353	0.98155
2257.12973	0.98025
2255.07592	0.98019
2253.02212	0.98107
2250.96832	0.98208
2248.91451	0.98359
2246.86071	0.98483
2244.80691	0.98431
2242.75310	0.98330
2240.69930	0.98392
2238.64550	0.98547
2236.59169	0.98621
2234.53789	0.98611
2232.48409	0.98612
2230.43029	0.98644
2228.37648	0.98603
2226.32268	0.98502
2224.26888	0.98417
2222.21507	0.98378
2220.16127	0.98469
2218.10747	0.98517
2216.05366	0.98355
2213.99986	0.98232
2211.94606	0.98308
2209.89225	0.98498
2207.83845	0.98734
2205.78465	0.98884
2203.73084	0.98865
2201.67704	0.98777
2199.62324	0.98695
2197.56943	0.98668
2195.51563	0.98731
2193.46183	0.98772
2191.40802	0.98677
2189.35422	0.98549
2187.30042	0.98476
2185.24661	0.98354
2183.19281	0.98215
2181.13901	0.98218
2179.08520	0.98336
2177.03140	0.98413
2174.97760	0.98307
2172.92380	0.98150
2170.86999	0.98293
2168.81619	0.98534
2166.76239	0.98456
2164.70858	0.98339
2162.65478	0.98476
2160.60098	0.98601
2158.54717	0.98785
2156.49337	0.99265
2154.43957	0.99458
2152.38576	0.99078
2150.33196	0.98715
2148.27816	0.98669
2146.22435	0.98723
2144.17055	0.98821
2142.11675	0.98945
2140.06294	0.98952
2138.00914	0.98819
2135.95534	0.98688
2133.90153	0.98694
2131.84773	0.98780
2129.79393	0.98846
2127.74012	0.98842
2125.68632	0.98732
2123.63252	0.98617
2121.57871	0.98591
2119.52491	0.98620
2117.47111	0.98675
2115.41731	0.98652
2113.36350	0.98504
2111.30970	0.98385
2109.25590	0.98323
2107.20209	0.98224
2105.14829	0.98158
2103.09449	0.98243
2101.04068	0.98408
2098.98688	0.98515
2096.93308	0.98510
2094.87927	0.98501
2092.82547	0.98530
2090.77167	0.98512
2088.71786	0.98471
2086.66406	0.98382
2084.61026	0.98302
2082.55645	0.98375
2080.50265	0.98454
2078.44885	0.98362
2076.39504	0.98233
2074.34124	0.98200
2072.28744	0.98157
2070.23363	0.98090
2068.17983	0.98083
2066.12603	0.98150
2064.07223	0.98364
2062.01842	0.98641
2059.96462	0.98744
2057.91082	0.98628
2055.85701	0.98538
2053.80321	0.98607
2051.74941	0.98677
2049.69560	0.98715
2047.64180	0.98643
2045.58800	0.98461
2043.53419	0.98532
2041.48039	0.98717
2039.42659	0.98601
2037.37278	0.98428
2035.31898	0.98608
2033.26518	0.98726
2031.21137	0.98383
2029.15757	0.98303
2027.10377	0.98778
2025.04996	0.99057
2022.99616	0.98921
2020.94236	0.98864
2018.88855	0.98949
2016.83475	0.98881
2014.78095	0.98688
2012.72714	0.98605
2010.67334	0.98762
2008.61954	0.99043
2006.56574	0.99214
2004.51193	0.99117
2002.45813	0.98849
2000.40433	0.98716
1998.35052	0.98715
1996.29672	0.98670
1994.24292	0.98605
1992.18911	0.98478
1990.13531	0.98295
1988.08151	0.98361
1986.02770	0.98659
1983.97390	0.98790
1981.92010	0.98643
1979.86629	0.98596
1977.81249	0.98763
1975.75869	0.98746
1973.70488	0.98628
1971.65108	0.98516
1969.59728	0.98341
1967.54347	0.98410
1965.48967	0.98601
1963.43587	0.98518
1961.38206	0.98382
1959.32826	0.98490
1957.27446	0.98612
1955.22066	0.98574
1953.16685	0.98520
1951.11305	0.98598
1949.05925	0.98741
1947.00544	0.98689
1944.95164	0.98447
1942.89784	0.98292
1940.84403	0.98318
1938.79023	0.98320
1936.73643	0.98266
1934.68262	0.98346
1932.62882	0.98421
1930.57502	0.98366
1928.52121	0.98403
1926.46741	0.98516
1924.41361	0.98557
1922.35980	0.98584
1920.30600	0.98558
1918.25220	0.98492
1916.19839	0.98568
1914.14459	0.98672
1912.09079	0.98598
1910.03698	0.98392
1907.98318	0.98237
1905.92938	0.98224
1903.87557	0.98250
1901.82177	0.98222
1899.76797	0.98231
1897.71417	0.98325
1895.66036	0.98385
1893.60656	0.98365
1891.55276	0.98336
1889.49895	0.98336
1887.44515	0.98340
1885.39135	0.98352
1883.33754	0.98338
1881.28374	0.98244
1879.22994	0.98162
1877.17613	0.98188
1875.12233	0.98260
1873.06853	0.98265
1871.01472	0.98260
1868.96092	0.98324
1866.90712	0.98345
1864.85331	0.98319
1862.79951	0.98314
1860.74571	0.98284
1858.69190	0.98246
1856.63810	0.98256
1854.58430	0.98317
1852.53049	0.98397
1850.47669	0.98404
1848.42289	0.98336
1846.36908	0.98312
1844.31528	0.98323
1842.26148	0.98315
1840.20768	0.98327
1838.15387	0.98333
1836.10007	0.98291
1834.04627	0.98247
1831.99246	0.98260
1829.93866	0.98293
1827.88486	0.98267
1825.83105	0.98226
1823.77725	0.98226
1821.72345	0.98232
1819.66964	0.98236
1817.61584	0.98274
1815.56204	0.98298
1813.50823	0.98274
1811.45443	0.98250
1809.40063	0.98235
1807.34682	0.98217
1805.29302	0.98210
1803.23922	0.98214
1801.18541	0.98220
1799.13161	0.98202
1797.07781	0.98160
1795.02400	0.98122
1792.97020	0.98077
1790.91640	0.98019
1788.86260	0.97993
1786.80879	0.98005
1784.75499	0.98019
1782.70119	0.98003
1780.64738	0.97973
1778.59358	0.97950
1776.53978	0.97957
1774.48597	0.98010
1772.43217	0.98069
1770.37837	0.98048
1768.32456	0.98005
1766.27076	0.98000
1764.21696	0.98005
1762.16315	0.98003
1760.10935	0.97975
1758.05555	0.97930
1756.00174	0.97892
1753.94794	0.97860
1751.89414	0.97815
1749.84033	0.97723
1747.78653	0.97653
1745.73273	0.97631
1743.67892	0.97546
1741.62512	0.97413
1739.57132	0.97339
1737.51751	0.97323
1735.46371	0.97310
1733.40991	0.97286
1731.35611	0.97251
1729.30230	0.97201
1727.24850	0.97139
1725.19470	0.97057
1723.14089	0.96983
1721.08709	0.96965
1719.03329	0.97005
1716.97948	0.97054
1714.92568	0.97055
1712.87188	0.97050
1710.81807	0.97086
1708.76427	0.97172
1706.71047	0.97259
1704.65666	0.97287
1702.60286	0.97276
1700.54906	0.97246
1698.49525	0.97197
1696.44145	0.97186
1694.38765	0.97214
1692.33384	0.97238
1690.28004	0.97234
1688.22624	0.97190
1686.17243	0.97142
1684.11863	0.97093
1682.06483	0.96967
1680.01103	0.96841
1677.95722	0.96792
1675.90342	0.96816
1673.84962	0.96807
1671.79581	0.96704
1669.74201	0.96585
1667.68821	0.96537
1665.63440	0.96507
1663.58060	0.96458
1661.52680	0.96444
1659.47299	0.96439
1657.41919	0.96385
1655.36539	0.96318
1653.31158	0.96304
1651.25778	0.96328
1649.20398	0.96350
1647.15017	0.96369
1645.09637	0.96322
1643.04257	0.96264
1640.98876	0.96258
1638.93496	0.96298
1636.88116	0.96345
1634.82735	0.96317
1632.77355	0.96260
1630.71975	0.96242
1628.66594	0.96234
1626.61214	0.96234
1624.55834	0.96265
1622.50454	0.96301
1620.45073	0.96296
1618.39693	0.96288
1616.34313	0.96340
1614.28932	0.96405
1612.23552	0.96413
1610.18172	0.96370
1608.12791	0.96313
1606.07411	0.96293
1604.02031	0.96311
1601.96650	0.96318
1599.91270	0.96307
1597.85890	0.96311
1595.80509	0.96329
1593.75129	0.96351
1591.69749	0.96390
1589.64368	0.96434
1587.58988	0.96445
1585.53608	0.96438
1583.48227	0.96442
1581.42847	0.96433
1579.37467	0.96414
1577.32086	0.96422
1575.26706	0.96452
1573.21326	0.96463
1571.15945	0.96440
1569.10565	0.96372
1567.05185	0.96303
1564.99805	0.96269
1562.94424	0.96246
1560.89044	0.96198
1558.83664	0.96134
1556.78283	0.96088
1554.72903	0.95989
1552.67523	0.95861
1550.62142	0.95763
1548.56762	0.95683
1546.51382	0.95592
1544.46001	0.95484
1542.40621	0.95380
1540.35241	0.95185
1538.29860	0.94913
1536.24480	0.94742
1534.19100	0.94556
1532.13719	0.94332
1530.08339	0.94177
1528.02959	0.94060
1525.97578	0.93945
1523.92198	0.93844
1521.86818	0.93693
1519.81437	0.93532
1517.76057	0.93415
1515.70677	0.93274
1513.65297	0.93143
1511.59916	0.93045
1509.54536	0.92948
1507.49156	0.92785
1505.43775	0.92614
1503.38395	0.92583
1501.33015	0.92582
1499.27634	0.92544
1497.22254	0.92492
1495.16874	0.92468
1493.11493	0.92475
1491.06113	0.92474
1489.00733	0.92443
1486.95352	0.92408
1484.89972	0.92397
1482.84592	0.92361
1480.79211	0.92228
1478.73831	0.91817
1476.68451	0.90459
1474.63070	0.87614
1472.57690	0.84926
1470.52310	0.84697
1468.46929	0.85337
1466.41549	0.85189
1464.36169	0.84000
1462.30788	0.83426
1460.25408	0.84582
1458.20028	0.86895
1456.14648	0.88954
1454.09267	0.89886
1452.03887	0.90485
1449.98507	0.91009
1447.93126	0.91455
1445.87746	0.91838
1443.82366	0.92159
1441.76985	0.92448
1439.71605	0.92709
1437.66225	0.92968
1435.60844	0.93229
1433.55464	0.93425
1431.50084	0.93615
1429.44703	0.93805
1427.39323	0.93918
1425.33943	0.93962
1423.28562	0.93971
1421.23182	0.93928
1419.17802	0.93804
1417.12421	0.93629
1415.07041	0.93519
1413.01661	0.93513
1410.96280	0.93628
1408.90900	0.93836
1406.85520	0.94050
1404.80139	0.94211
1402.74759	0.94310
1400.69379	0.94412
1398.63999	0.94575
1396.58618	0.94782
1394.53238	0.95021
1392.47858	0.95236
1390.42477	0.95367
1388.37097	0.95459
1386.31717	0.95542
1384.26336	0.95539
1382.20956	0.95432
1380.15576	0.95260
1378.10195	0.95103
1376.04815	0.95069
1373.99435	0.95155
1371.94054	0.95236
1369.88674	0.95265
1367.83294	0.95290
1365.77913	0.95344
1363.72533	0.95439
1361.67153	0.95577
1359.61772	0.95700
1357.56392	0.95763
1355.51012	0.95789
1353.45631	0.95802
1351.40251	0.95800
1349.34871	0.95822
1347.29491	0.95879
1345.24110	0.95928
1343.18730	0.95963
1341.13350	0.96003
1339.07969	0.96051
1337.02589	0.96093
1334.97209	0.96123
1332.91828	0.96139
1330.86448	0.96151
1328.81068	0.96173
1326.75687	0.96194
1324.70307	0.96170
1322.64927	0.96110
1320.59546	0.96075
1318.54166	0.96063
1316.48786	0.96020
1314.43405	0.95941
1312.38025	0.95874
1310.32645	0.95837
1308.27264	0.95814
1306.21884	0.95794
1304.16504	0.95762
1302.11123	0.95714
1300.05743	0.95655
1298.00363	0.95585
1295.94982	0.95536
1293.89602	0.95502
1291.84222	0.95437
1289.78842	0.95349
1287.73461	0.95244
1285.68081	0.95091
1283.62701	0.94878
1281.57320	0.94585
1279.51940	0.94197
1277.46560	0.93655
1275.41179	0.92793
1273.35799	0.91388
1271.30419	0.89058
1269.25038	0.85369
1267.19658	0.80324
1265.14278	0.74816
1263.08897	0.70454
1261.03517	0.68570
1258.98137	0.69598
1256.92756	0.73114
1254.87376	0.78011
1252.81996	0.82865
1250.76615	0.86660
1248.71235	0.89205
1246.65855	0.90824
1244.60474	0.91874
1242.55094	0.92568
1240.49714	0.93046
1238.44334	0.93410
1236.38953	0.93687
1234.33573	0.93875
1232.28193	0.94018
1230.22812	0.94142
1228.17432	0.94226
1226.12052	0.94268
1224.06671	0.94285
1222.01291	0.94280
1219.95911	0.94247
1217.90530	0.94194
1215.85150	0.94133
1213.79770	0.94063
1211.74389	0.93955
1209.69009	0.93815
1207.63629	0.93659
1205.58248	0.93467
1203.52868	0.93273
1201.47488	0.93105
1199.42107	0.92915
1197.36727	0.92714
1195.31347	0.92520
1193.25966	0.92283
1191.20586	0.92024
1189.15206	0.91777
1187.09825	0.91497
1185.04445	0.91186
1182.99065	0.90884
1180.93685	0.90576
1178.88304	0.90257
1176.82924	0.89945
1174.77544	0.89631
1172.72163	0.89302
1170.66783	0.88954
1168.61403	0.88584
1166.56022	0.88208
1164.50642	0.87857
1162.45262	0.87567
1160.39881	0.87347
1158.34501	0.87143
1156.29121	0.86908
1154.23740	0.86637
1152.18360	0.86320
1150.12980	0.85963
1148.07599	0.85570
1146.02219	0.85112
1143.96839	0.84593
1141.91458	0.84079
1139.86078	0.83566
1137.80698	0.82996
1135.75317	0.82354
1133.69937	0.81648
1131.64557	0.80854
1129.59176	0.79952
1127.53796	0.78952
1125.48416	0.77850
1123.43036	0.76612
1121.37655	0.75228
1119.32275	0.73724
1117.26895	0.72117
1115.21514	0.70415
1113.16134	0.68665
1111.10754	0.66996
1109.05373	0.65485
1106.99993	0.64096
1104.94613	0.62807
1102.89232	0.61614
1100.83852	0.60552
1098.78472	0.59672
1096.73091	0.58979
1094.67711	0.58473
1092.62331	0.58142
1090.56950	0.57941
1088.51570	0.57846
1086.46190	0.57852
1084.40809	0.57935
1082.35429	0.58076
1080.30049	0.58280
1078.24668	0.58519
1076.19288	0.58733
1074.13908	0.58889
1072.08528	0.58998
1070.03147	0.59074
1067.97767	0.59089
1065.92387	0.59025
1063.87006	0.58886
1061.81626	0.58698
1059.76246	0.58498
1057.70865	0.58262
1055.65485	0.57941
1053.60105	0.57538
1051.54724	0.57054
1049.49344	0.56478
1047.43964	0.55847
1045.38583	0.55171
1043.33203	0.54429
1041.27823	0.53612
1039.22442	0.52746
1037.17062	0.51893
1035.11682	0.51068
1033.06301	0.50251
1031.00921	0.49438
1028.95541	0.48652
1026.90160	0.47915
1024.84780	0.47222
1022.79400	0.46568
1020.74019	0.45978
1018.68639	0.45514
1016.63259	0.45267
1014.57879	0.45348
1012.52498	0.45872
1010.47118	0.46875
1008.41738	0.48303
1006.36357	0.50046
1004.30977	0.51925
1002.25597	0.53772
1000.20216	0.55538
998.14836	0.57197
996.09456	0.58697
994.04075	0.60023
991.98695	0.61188
989.93315	0.62245
987.87934	0.63265
985.82554	0.64266
983.77174	0.65277
981.71793	0.66334
979.66413	0.67393
977.61033	0.68419
975.55652	0.69426
973.50272	0.70394
971.44892	0.71314
969.39511	0.72242
967.34131	0.73175
965.28751	0.74033
963.23371	0.74788
961.17990	0.75488
959.12610	0.76149
957.07230	0.76758
955.01849	0.77311
952.96469	0.77813
950.91089	0.78274
948.85708	0.78700
946.80328	0.79103
944.74948	0.79478
942.69567	0.79810
940.64187	0.80121
938.58807	0.80430
936.53426	0.80702
934.48046	0.80962
932.42666	0.81248
930.37285	0.81492
928.31905	0.81684
926.26525	0.81901
924.21144	0.82142
922.15764	0.82321
920.10384	0.82382
918.05003	0.82371
915.99623	0.82339
913.94243	0.82303
911.88862	0.82328
909.83482	0.82503
907.78102	0.82852
905.72722	0.83264
903.67341	0.83612
901.61961	0.83932
899.56581	0.84256
897.51200	0.84527
895.45820	0.84750
893.40440	0.84931
891.35059	0.85040
889.29679	0.85048
887.24299	0.84942
885.18918	0.84738
883.13538	0.84445
881.08158	0.84052
879.02777	0.83575
876.97397	0.83138
874.92017	0.82906
872.86636	0.82854
870.81256	0.82862
868.75876	0.82875
866.70495	0.82868
864.65115	0.82883
862.59735	0.82998
860.54354	0.83174
858.48974	0.83358
856.43594	0.83607
854.38213	0.84067
852.32833	0.84791
850.27453	0.85519
848.22073	0.85933
846.16692	0.85979
844.11312	0.85839
842.05932	0.85599
840.00551	0.85163
837.95171	0.84486
835.89791	0.83548
833.84410	0.82347
831.79030	0.80825
829.73650	0.78791
827.68269	0.76220
825.62889	0.73320
823.57509	0.70467
821.52128	0.68126
819.46748	0.66474
817.41368	0.65235
815.35987	0.64090
813.30607	0.62891
811.25227	0.61528
809.19846	0.59972
807.14466	0.58318
805.09086	0.56703
803.03705	0.55315
800.98325	0.54353
798.92945	0.54024
796.87565	0.54543
794.82184	0.55974
792.76804	0.58219
790.71424	0.61150
788.66043	0.64602
786.60663	0.68235
784.55283	0.71645
782.49902	0.74562
780.44522	0.76886
778.39142	0.78734
776.33761	0.80315
774.28381	0.81656
772.23001	0.82686
770.17620	0.83458
768.12240	0.84062
766.06860	0.84504
764.01479	0.84768
761.96099	0.84911
759.90719	0.85068
757.85338	0.85298
755.79958	0.85513
753.74578	0.85683
751.69197	0.85842
749.63817	0.85974
747.58437	0.86050
745.53056	0.86080
743.47676	0.86120
741.42296	0.86226
739.36916	0.86371
737.31535	0.86271
735.26155	0.85227
733.20775	0.82531
731.15394	0.79344
729.10014	0.78392
727.04634	0.79587
724.99253	0.80092
722.93873	0.78109
720.88493	0.74136
718.83112	0.71614
716.77732	0.73253
714.72352	0.77169
712.66971	0.80531
710.61591	0.82495
708.56211	0.83359
706.50830	0.83680
704.45450	0.83855
702.40070	0.83909
700.34689	0.83802
698.29309	0.83689
696.23929	0.83701
694.18548	0.83900
692.13168	0.84212
690.07788	0.84477
688.02408	0.84690
685.97027	0.84888
683.91647	0.85094
681.86267	0.85259
679.80886	0.85372
677.75506	0.85583
675.70126	0.85824
673.64745	0.85922
671.59365	0.85985
669.53985	0.86131
667.48604	0.86103
665.43224	0.85799
663.37844	0.85568
661.32463	0.85573
659.27083	0.85842
657.21703	0.86224
655.16322	0.86525
653.10942	0.86589
651.05562	0.86527
649.00181	0.86528
646.94801	0.86575
644.89421	0.86721
642.84040	0.86922
640.78660	0.86995
638.73280	0.87013
636.67899	0.87168
634.62519	0.87400
632.57139	0.87484
630.51759	0.87412
628.46378	0.87363
626.40998	0.87374
624.35618	0.87389
622.30237	0.87390
620.24857	0.87271
618.19477	0.86971
616.14096	0.86619
614.08716	0.86337
612.03336	0.86093
609.97955	0.85874
607.92575	0.85702
605.87195	0.85506
603.81814	0.85292
601.76434	0.85094
599.71054	0.84825
597.65673	0.84511
595.60293	0.84251
593.54913	0.84048
591.49532	0.83866
589.44152	0.83709
587.38772	0.83626
585.33391	0.83587
583.28011	0.83465
581.22631	0.83237
579.17250	0.83048
577.11870	0.82983
575.06490	0.82879
573.01110	0.82664
570.95729	0.82562
568.90349	0.82574
566.84969	0.82322
564.79588	0.81756
562.74208	0.81144
560.68828	0.80619
558.63447	0.80218
556.58067	0.79934
554.52687	0.79732
552.47306	0.79515
550.41926	0.79186
548.36546	0.78715
546.31165	0.78204
544.25785	0.77735
542.20405	0.77189
540.15024	0.76541
538.09644	0.75979
536.04264	0.75586
533.98883	0.75191
531.93503	0.74805
529.88123	0.74656
527.82742	0.74710
525.77362	0.74847
523.71982	0.75107
521.66602	0.75389
519.61221	0.75546
517.55841	0.75653
515.50461	0.75861
513.45080	0.76214
511.39700	0.76641
509.34320	0.76941
507.28939	0.77025
505.23559	0.77126
503.18179	0.77281
501.12798	0.77307
499.07418	0.77319
497.02038	0.77341
494.96657	0.77182
492.91277	0.76850
490.85897	0.76322
488.80516	0.75614
486.75136	0.74946
484.69756	0.74241
482.64375	0.73281
480.58995	0.72182
478.53615	0.71001
476.48234	0.69722
474.42854	0.68742
472.37474	0.68141
470.32093	0.67585
468.26713	0.67177
466.21333	0.67066
464.15953	0.67387
462.10572	0.68087
460.05192	0.68712
457.99812	0.69147
455.94431	0.69668
453.89051	0.70275
451.83671	0.70762
449.78290	0.70955
447.72910	0.71090
445.67530	0.71360
443.62149	0.71600
441.56769	0.71859
439.51389	0.72057
437.46008	0.71987
435.40628	0.71761
433.35248	0.71712
431.29867	0.71908
429.24487	0.72130
427.19107	0.72029
425.13726	0.71600
423.08346	0.71511
421.02966	0.71694
418.97585	0.71480
416.92205	0.71053
414.86825	0.70668
412.81445	0.70210
410.76064	0.69752
408.70684	0.69220
406.65304	0.68586
404.59923	0.68128
402.54543	0.67965
400.49163	0.68054
398.43782	0.67992
