3996.70104	0.99307
3994.64724	0.99294
3992.59344	0.99256
3990.53964	0.99204
3988.48583	0.99149
3986.43203	0.99147
3984.37823	0.99197
3982.32442	0.99241
3980.27062	0.99257
3978.21682	0.99249
3976.16301	0.99243
3974.10921	0.99273
3972.05541	0.99309
3970.00160	0.99309
3967.94780	0.99291
3965.89400	0.99274
3963.84019	0.99279
3961.78639	0.99337
3959.73259	0.99407
3957.67878	0.99403
3955.62498	0.99318
3953.57118	0.99254
3951.51737	0.99263
3949.46357	0.99279
3947.40977	0.99279
3945.35596	0.99288
3943.30216	0.99270
3941.24836	0.99227
3939.19455	0.99201
3937.14075	0.99174
3935.08695	0.99171
3933.03315	0.99219
3930.97934	0.99307
3928.92554	0.99373
3926.87174	0.99394
3924.81793	0.99413
3922.76413	0.99418
3920.71033	0.99378
3918.65652	0.99331
3916.60272	0.99302
3914.54892	0.99275
3912.49511	0.99256
3910.44131	0.99249
3908.38751	0.99225
3906.33370	0.99200
3904.27990	0.99223
3902.22610	0.99276
3900.17229	0.99298
3898.11849	0.99305
3896.06469	0.99289
3894.01088	0.99255
3891.95708	0.99260
3889.90328	0.99294
3887.84947	0.99298
3885.79567	0.99307
3883.74187	0.99346
3881.68807	0.99325
3879.63426	0.99249
3877.58046	0.99232
3875.52666	0.99262
3873.47285	0.99313
3871.41905	0.99360
3869.36525	0.99352
3867.31144	0.99300
3865.25764	0.99274
3863.20384	0.99286
3861.15003	0.99320
3859.09623	0.99377
3857.04243	0.99425
3854.98862	0.99436
3852.93482	0.99405
3850.88102	0.99340
3848.82721	0.99277
3846.77341	0.99251
3844.71961	0.99271
3842.66580	0.99297
3840.61200	0.99255
3838.55820	0.99149
3836.50439	0.99120
3834.45059	0.99201
3832.39679	0.99277
3830.34298	0.99297
3828.28918	0.99287
3826.23538	0.99267
3824.18158	0.99241
3822.12777	0.99221
3820.07397	0.99232
3818.02017	0.99255
3815.96636	0.99301
3813.91256	0.99350
3811.85876	0.99317
3809.80495	0.99281
3807.75115	0.99318
3805.69735	0.99356
3803.64354	0.99341
3801.58974	0.99335
3799.53594	0.99368
3797.48213	0.99376
3795.42833	0.99377
3793.37453	0.99403
3791.32072	0.99413
3789.26692	0.99403
3787.21312	0.99398
3785.15931	0.99399
3783.10551	0.99371
3781.05171	0.99303
3778.99790	0.99267
3776.94410	0.99290
3774.89030	0.99290
3772.83650	0.99250
3770.78269	0.99215
3768.72889	0.99222
3766.67509	0.99244
3764.62128	0.99244
3762.56748	0.99238
3760.51368	0.99258
3758.45987	0.99294
3756.40607	0.99297
3754.35227	0.99271
3752.29846	0.99282
3750.24466	0.99363
3748.19086	0.99450
3746.13705	0.99517
3744.08325	0.99503
3742.02945	0.99423
3739.97564	0.99394
3737.92184	0.99387
3735.86804	0.99357
3733.81423	0.99332
3731.76043	0.99314
3729.70663	0.99301
3727.65282	0.99288
3725.59902	0.99241
3723.54522	0.99260
3721.49141	0.99442
3719.43761	0.99576
3717.38381	0.99500
3715.33001	0.99356
3713.27620	0.99233
3711.22240	0.99173
3709.16860	0.99274
3707.11479	0.99384
3705.06099	0.99388
3703.00719	0.99348
3700.95338	0.99319
3698.89958	0.99284
3696.84578	0.99245
3694.79197	0.99233
3692.73817	0.99293
3690.68437	0.99385
3688.63056	0.99374
3686.57676	0.99299
3684.52296	0.99276
3682.46915	0.99279
3680.41535	0.99260
3678.36155	0.99236
3676.30774	0.99271
3674.25394	0.99328
3672.20014	0.99261
3670.14633	0.99211
3668.09253	0.99304
3666.03873	0.99354
3663.98492	0.99327
3661.93112	0.99293
3659.87732	0.99268
3657.82352	0.99243
3655.76971	0.99230
3653.71591	0.99215
3651.66211	0.99164
3649.60830	0.99114
3647.55450	0.99122
3645.50070	0.99134
3643.44689	0.99161
3641.39309	0.99227
3639.33929	0.99276
3637.28548	0.99278
3635.23168	0.99276
3633.17788	0.99250
3631.12407	0.99199
3629.07027	0.99188
3627.01647	0.99231
3624.96266	0.99291
3622.90886	0.99317
3620.85506	0.99262
3618.80125	0.99237
3616.74745	0.99317
3614.69365	0.99346
3612.63984	0.99326
3610.58604	0.99306
3608.53224	0.99252
3606.47844	0.99224
3604.42463	0.99259
3602.37083	0.99287
3600.31703	0.99256
3598.26322	0.99217
3596.20942	0.99221
3594.15562	0.99265
3592.10181	0.99312
3590.04801	0.99294
3587.99421	0.99222
3585.94040	0.99175
3583.88660	0.99150
3581.83280	0.99127
3579.77899	0.99148
3577.72519	0.99207
3575.67139	0.99242
3573.61758	0.99251
3571.56378	0.99280
3569.50998	0.99310
3567.45617	0.99287
3565.40237	0.99214
3563.34857	0.99177
3561.29476	0.99168
3559.24096	0.99125
3557.18716	0.99078
3555.13335	0.99065
3553.07955	0.99076
3551.02575	0.99087
3548.97195	0.99077
3546.91814	0.99104
3544.86434	0.99182
3542.81054	0.99192
3540.75673	0.99153
3538.70293	0.99145
3536.64913	0.99139
3534.59532	0.99115
3532.54152	0.99090
3530.48772	0.99053
3528.43391	0.99019
3526.38011	0.99037
3524.32631	0.99092
3522.27250	0.99155
3520.21870	0.99187
3518.16490	0.99154
3516.11109	0.99109
3514.05729	0.99083
3512.00349	0.99045
3509.94968	0.99017
3507.89588	0.99048
3505.84208	0.99092
3503.78827	0.99054
3501.73447	0.98975
3499.68067	0.98968
3497.62687	0.99009
3495.57306	0.99014
3493.51926	0.98983
3491.46546	0.98976
3489.41165	0.98974
3487.35785	0.98925
3485.30405	0.98927
3483.25024	0.98990
3481.19644	0.98984
3479.14264	0.98940
3477.08883	0.98955
3475.03503	0.99007
3472.98123	0.99023
3470.92742	0.98980
3468.87362	0.98926
3466.81982	0.98925
3464.76601	0.98979
3462.71221	0.99002
3460.65841	0.98949
3458.60460	0.98886
3456.55080	0.98870
3454.49700	0.98911
3452.44319	0.98940
3450.38939	0.98905
3448.33559	0.98867
3446.28178	0.98854
3444.22798	0.98871
3442.17418	0.98918
3440.12038	0.98939
3438.06657	0.98945
3436.01277	0.98989
3433.95897	0.99018
3431.90516	0.98938
3429.85136	0.98824
3427.79756	0.98795
3425.74375	0.98818
3423.68995	0.98846
3421.63615	0.98871
3419.58234	0.98879
3417.52854	0.98870
3415.47474	0.98869
3413.42093	0.98904
3411.36713	0.98939
3409.31333	0.98904
3407.25952	0.98840
3405.20572	0.98816
3403.15192	0.98782
3401.09811	0.98734
3399.04431	0.98740
3396.99051	0.98765
3394.93670	0.98788
3392.88290	0.98832
3390.82910	0.98848
3388.77529	0.98852
3386.72149	0.98875
3384.66769	0.98840
3382.61389	0.98781
3380.56008	0.98762
3378.50628	0.98739
3376.45248	0.98738
3374.39867	0.98778
3372.34487	0.98789
3370.29107	0.98736
3368.23726	0.98703
3366.18346	0.98742
3364.12966	0.98778
3362.07585	0.98802
3360.02205	0.98837
3357.96825	0.98840
3355.91444	0.98794
3353.86064	0.98757
3351.80684	0.98760
3349.75303	0.98785
3347.69923	0.98813
3345.64543	0.98808
3343.59162	0.98770
3341.53782	0.98764
3339.48402	0.98787
3337.43021	0.98763
3335.37641	0.98739
3333.32261	0.98793
3331.26881	0.98835
3329.21500	0.98804
3327.16120	0.98773
3325.10740	0.98766
3323.05359	0.98758
3320.99979	0.98759
3318.94599	0.98800
3316.89218	0.98835
3314.83838	0.98806
3312.78458	0.98779
3310.73077	0.98810
3308.67697	0.98863
3306.62317	0.98912
3304.56936	0.98948
3302.51556	0.98956
3300.46176	0.98954
3298.40795	0.98931
3296.35415	0.98868
3294.30035	0.98824
3292.24654	0.98822
3290.19274	0.98819
3288.13894	0.98828
3286.08513	0.98860
3284.03133	0.98867
3281.97753	0.98839
3279.92372	0.98844
3277.86992	0.98891
3275.81612	0.98887
3273.76232	0.98837
3271.70851	0.98823
3269.65471	0.98847
3267.60091	0.98889
3265.54710	0.98902
3263.49330	0.98882
3261.43950	0.98910
3259.38569	0.98956
3257.33189	0.98953
3255.27809	0.98949
3253.22428	0.98941
3251.17048	0.98929
3249.11668	0.98929
3247.06287	0.98888
3245.00907	0.98851
3242.95527	0.98889
3240.90146	0.98947
3238.84766	0.98965
3236.79386	0.98961
3234.74005	0.98937
3232.68625	0.98877
3230.63245	0.98859
3228.57864	0.98892
3226.52484	0.98888
3224.47104	0.98856
3222.41724	0.98856
3220.36343	0.98868
3218.30963	0.98859
3216.25583	0.98845
3214.20202	0.98833
3212.14822	0.98806
3210.09442	0.98770
3208.04061	0.98776
3205.98681	0.98803
3203.93301	0.98799
3201.87920	0.98802
3199.82540	0.98831
3197.77160	0.98870
3195.71779	0.98888
3193.66399	0.98860
3191.61019	0.98842
3189.55638	0.98852
3187.50258	0.98862
3185.44878	0.98877
3183.39497	0.98897
3181.34117	0.98920
3179.28737	0.98921
3177.23356	0.98907
3175.17976	0.98920
3173.12596	0.98937
3171.07215	0.98909
3169.01835	0.98870
3166.96455	0.98874
3164.91075	0.98882
3162.85694	0.98875
3160.80314	0.98889
3158.74934	0.98911
3156.69553	0.98934
3154.64173	0.98961
3152.58793	0.98945
3150.53412	0.98890
3148.48032	0.98873
3146.42652	0.98911
3144.37271	0.98952
3142.31891	0.98989
3140.26511	0.99011
3138.21130	0.98998
3136.15750	0.98980
3134.10370	0.98964
3132.04989	0.98953
3129.99609	0.98965
3127.94229	0.98977
3125.88848	0.98967
3123.83468	0.98958
3121.78088	0.98978
3119.72707	0.99035
3117.67327	0.99064
3115.61947	0.99034
3113.56566	0.99028
3111.51186	0.99071
3109.45806	0.99086
3107.40426	0.99033
3105.35045	0.98980
3103.29665	0.98996
3101.24285	0.99055
3099.18904	0.99077
3097.13524	0.99053
3095.08144	0.99034
3093.02763	0.99016
3090.97383	0.98982
3088.92003	0.98942
3086.86622	0.98936
3084.81242	0.98995
3082.75862	0.99058
3080.70481	0.99069
3078.65101	0.99056
3076.59721	0.99032
3074.54340	0.98998
3072.48960	0.98991
3070.43580	0.98996
3068.38199	0.99003
3066.32819	0.99054
3064.27439	0.99139
3062.22058	0.99196
3060.16678	0.99200
3058.11298	0.99167
3056.05918	0.99113
3054.00537	0.99054
3051.95157	0.99032
3049.89777	0.99065
3047.84396	0.99103
3045.79016	0.99108
3043.73636	0.99111
3041.68255	0.99097
3039.62875	0.99046
3037.57495	0.99037
3035.52114	0.99090
3033.46734	0.99127
3031.41354	0.99106
3029.35973	0.99076
3027.30593	0.99070
3025.25213	0.99051
3023.19832	0.99002
3021.14452	0.98933
3019.09072	0.98880
3017.03691	0.98854
3014.98311	0.98828
3012.92931	0.98800
3010.87550	0.98779
3008.82170	0.98776
3006.76790	0.98765
3004.71409	0.98691
3002.66029	0.98605
3000.60649	0.98571
2998.55269	0.98544
2996.49888	0.98469
2994.44508	0.98330
2992.39128	0.98144
2990.33747	0.97953
2988.28367	0.97733
2986.22987	0.97424
2984.17606	0.97063
2982.12226	0.96668
2980.06846	0.96146
2978.01465	0.95413
2975.96085	0.94435
2973.90705	0.93177
2971.85324	0.91613
2969.79944	0.89730
2967.74564	0.87542
2965.69183	0.85115
2963.63803	0.82669
2961.58423	0.80670
2959.53042	0.79490
2957.47662	0.78869
2955.42282	0.78072
2953.36901	0.76724
2951.31521	0.75329
2949.26141	0.74928
2947.20761	0.76209
2945.15380	0.78886
2943.10000	0.81947
2941.04620	0.84374
2938.99239	0.85685
2936.93859	0.85878
2934.88479	0.85131
2932.83098	0.83660
2930.77718	0.81644
2928.72338	0.79302
2926.66957	0.76962
2924.61577	0.74864
2922.56197	0.72961
2920.50816	0.71179
2918.45436	0.69873
2916.40056	0.69641
2914.34675	0.70634
2912.29295	0.72306
2910.23915	0.73975
2908.18534	0.75388
2906.13154	0.76664
2904.07774	0.78004
2902.02393	0.79496
2899.97013	0.81043
2897.91633	0.82477
2895.86252	0.83691
2893.80872	0.84606
2891.75492	0.85156
2889.70112	0.85376
2887.64731	0.85389
2885.59351	0.85254
2883.53971	0.84931
2881.48590	0.84420
2879.43210	0.83900
2877.37830	0.83638
2875.32449	0.83691
2873.27069	0.83793
2871.21689	0.83635
2869.16308	0.83226
2867.10928	0.83020
2865.05548	0.83698
2863.00167	0.85516
2860.94787	0.87900
2858.89407	0.89993
2856.84026	0.91358
2854.78646	0.91984
2852.73266	0.92017
2850.67885	0.91601
2848.62505	0.90778
2846.57125	0.89512
2844.51744	0.87793
2842.46364	0.85806
2840.40984	0.84045
2838.35603	0.83168
2836.30223	0.83666
2834.24843	0.85501
2832.19463	0.88023
2830.14082	0.90396
2828.08702	0.92181
2826.03322	0.93400
2823.97941	0.94216
2821.92561	0.94782
2819.87181	0.95207
2817.81800	0.95536
2815.76420	0.95786
2813.71040	0.96002
2811.65659	0.96204
2809.60279	0.96383
2807.54899	0.96560
2805.49518	0.96727
2803.44138	0.96870
2801.38758	0.97012
2799.33377	0.97156
2797.27997	0.97276
2795.22617	0.97361
2793.17236	0.97452
2791.11856	0.97566
2789.06476	0.97661
2787.01095	0.97740
2784.95715	0.97831
2782.90335	0.97922
2780.84955	0.97991
2778.79574	0.98035
2776.74194	0.98079
2774.68814	0.98146
2772.63433	0.98218
2770.58053	0.98243
2768.52673	0.98225
2766.47292	0.98207
2764.41912	0.98229
2762.36532	0.98291
2760.31151	0.98332
2758.25771	0.98340
2756.20391	0.98360
2754.15010	0.98385
2752.09630	0.98390
2750.04250	0.98372
2747.98869	0.98351
2745.93489	0.98354
2743.88109	0.98364
2741.82728	0.98341
2739.77348	0.98304
2737.71968	0.98265
2735.66587	0.98197
2733.61207	0.98119
2731.55827	0.98071
2729.50446	0.98031
2727.45066	0.97972
2725.39686	0.97909
2723.34306	0.97854
2721.28925	0.97832
2719.23545	0.97857
2717.18165	0.97933
2715.12784	0.98052
2713.07404	0.98172
2711.02024	0.98255
2708.96643	0.98293
2706.91263	0.98306
2704.85883	0.98338
2702.80502	0.98402
2700.75122	0.98458
2698.69742	0.98472
2696.64361	0.98455
2694.58981	0.98448
2692.53601	0.98456
2690.48220	0.98444
2688.42840	0.98415
2686.37460	0.98413
2684.32079	0.98447
2682.26699	0.98466
2680.21319	0.98440
2678.15938	0.98411
2676.10558	0.98426
2674.05178	0.98463
2671.99797	0.98490
2669.94417	0.98509
2667.89037	0.98499
2665.83657	0.98457
2663.78276	0.98432
2661.72896	0.98424
2659.67516	0.98434
2657.62135	0.98481
2655.56755	0.98515
2653.51375	0.98517
2651.45994	0.98533
2649.40614	0.98568
2647.35234	0.98579
2645.29853	0.98546
2643.24473	0.98519
2641.19093	0.98540
2639.13712	0.98581
2637.08332	0.98607
2635.02952	0.98619
2632.97571	0.98622
2630.92191	0.98630
2628.86811	0.98644
2626.81430	0.98648
2624.76050	0.98631
2622.70670	0.98593
2620.65289	0.98564
2618.59909	0.98556
2616.54529	0.98555
2614.49149	0.98525
2612.43768	0.98498
2610.38388	0.98545
2608.33008	0.98610
2606.27627	0.98613
2604.22247	0.98583
2602.16867	0.98586
2600.11486	0.98644
2598.06106	0.98706
2596.00726	0.98707
2593.95345	0.98678
2591.89965	0.98704
2589.84585	0.98805
2587.79204	0.98844
2585.73824	0.98746
2583.68444	0.98613
2581.63063	0.98545
2579.57683	0.98592
2577.52303	0.98702
2575.46922	0.98762
2573.41542	0.98744
2571.36162	0.98689
2569.30781	0.98648
2567.25401	0.98647
2565.20021	0.98679
2563.14640	0.98731
2561.09260	0.98763
2559.03880	0.98788
2556.98500	0.98824
2554.93119	0.98820
2552.87739	0.98801
2550.82359	0.98858
2548.76978	0.98952
2546.71598	0.98988
2544.66218	0.98994
2542.60837	0.98987
2540.55457	0.98955
2538.50077	0.98912
2536.44696	0.98875
2534.39316	0.98902
2532.33936	0.98961
2530.28555	0.98964
2528.23175	0.98957
2526.17795	0.98976
2524.12414	0.98950
2522.07034	0.98908
2520.01654	0.98931
2517.96273	0.98995
2515.90893	0.99048
2513.85513	0.99078
2511.80132	0.99094
2509.74752	0.99095
2507.69372	0.99093
2505.63992	0.99096
2503.58611	0.99050
2501.53231	0.98967
2499.47851	0.98968
2497.42470	0.99022
2495.37090	0.99022
2493.31710	0.99019
2491.26329	0.99070
2489.20949	0.99112
2487.15569	0.99103
2485.10188	0.99069
2483.04808	0.99053
2480.99428	0.99066
2478.94047	0.99079
2476.88667	0.99067
2474.83287	0.99042
2472.77906	0.99011
2470.72526	0.99014
2468.67146	0.99085
2466.61765	0.99132
2464.56385	0.99105
2462.51005	0.99062
2460.45624	0.99022
2458.40244	0.98984
2456.34864	0.98934
2454.29483	0.98879
2452.24103	0.98894
2450.18723	0.98971
2448.13343	0.99018
2446.07962	0.99011
2444.02582	0.99013
2441.97202	0.99050
2439.91821	0.99093
2437.86441	0.99102
2435.81061	0.99062
2433.75680	0.99029
2431.70300	0.99031
2429.64920	0.99006
2427.59539	0.98980
2425.54159	0.99052
2423.48779	0.99124
2421.43398	0.99044
2419.38018	0.98928
2417.32638	0.98926
2415.27257	0.98987
2413.21877	0.99033
2411.16497	0.99043
2409.11116	0.99054
2407.05736	0.99101
2405.00356	0.99118
2402.94975	0.99076
2400.89595	0.99020
2398.84215	0.98975
2396.78834	0.98981
2394.73454	0.99015
2392.68074	0.99043
2390.62694	0.99085
2388.57313	0.99093
2386.51933	0.99031
2384.46553	0.98997
2382.41172	0.99032
2380.35792	0.99067
2378.30412	0.99085
2376.25031	0.99088
2374.19651	0.99055
2372.14271	0.99027
2370.08890	0.99057
2368.03510	0.99069
2365.98130	0.98966
2363.92749	0.98902
2361.87369	0.99009
2359.81989	0.99165
2357.76608	0.99190
2355.71228	0.99067
2353.65848	0.98990
2351.60467	0.98993
2349.55087	0.98959
2347.49707	0.98932
2345.44326	0.98940
2343.38946	0.98889
2341.33566	0.98873
2339.28186	0.98993
2337.22805	0.99062
2335.17425	0.99035
2333.12045	0.99045
2331.06664	0.99059
2329.01284	0.99009
2326.95904	0.98936
2324.90523	0.98895
2322.85143	0.98920
2320.79763	0.98967
2318.74382	0.98985
2316.69002	0.98937
2314.63622	0.98857
2312.58241	0.98883
2310.52861	0.98993
2308.47481	0.99043
2306.42100	0.99006
2304.36720	0.98923
2302.31340	0.98900
2300.25959	0.98950
2298.20579	0.98960
2296.15199	0.98960
2294.09818	0.98998
2292.04438	0.98995
2289.99058	0.98945
2287.93677	0.98918
2285.88297	0.98948
2283.82917	0.99007
2281.77537	0.99021
2279.72156	0.98993
2277.66776	0.98982
2275.61396	0.98997
2273.56015	0.99054
2271.50635	0.99096
2269.45255	0.99038
2267.39874	0.98972
2265.34494	0.99010
2263.29114	0.99109
2261.23733	0.99131
2259.18353	0.99017
2257.12973	0.98932
2255.07592	0.99019
2253.02212	0.99107
2250.96832	0.99051
2248.91451	0.98943
2246.86071	0.98941
2244.80691	0.99047
2242.75310	0.99059
2240.69930	0.98958
2238.64550	0.98973
2236.59169	0.99104
2234.53789	0.99105
2232.48409	0.98969
2230.43029	0.98927
2228.37648	0.99017
2226.32268	0.99068
2224.26888	0.99097
2222.21507	0.99215
2220.16127	0.99262
2218.10747	0.99117
2216.05366	0.98982
2213.99986	0.98981
2211.94606	0.99036
2209.89225	0.99167
2207.83845	0.99282
2205.78465	0.99252
2203.73084	0.99277
2201.67704	0.99402
2199.62324	0.99395
2197.56943	0.99253
2195.51563	0.99154
2193.46183	0.99091
2191.40802	0.99018
2189.35422	0.99000
2187.30042	0.99001
2185.24661	0.98960
2183.19281	0.98924
2181.13901	0.98850
2179.08520	0.98687
2177.03140	0.98664
2174.97760	0.98930
2172.92380	0.99243
2170.86999	0.99444
2168.81619	0.99484
2166.76239	0.99304
2164.70858	0.99060
2162.65478	0.98847
2160.60098	0.98674
2158.54717	0.98833
2156.49337	0.99250
2154.43957	0.99443
2152.38576	0.99470
2150.33196	0.99397
2148.27816	0.99276
2146.22435	0.99301
2144.17055	0.99383
2142.11675	0.99437
2140.06294	0.99384
2138.00914	0.99214
2135.95534	0.99165
2133.90153	0.99299
2131.84773	0.99399
2129.79393	0.99333
2127.74012	0.99213
2125.68632	0.99158
2123.63252	0.99186
2121.57871	0.99269
2119.52491	0.99358
2117.47111	0.99395
2115.41731	0.99302
2113.36350	0.99149
2111.30970	0.99088
2109.25590	0.99118
2107.20209	0.99135
2105.14829	0.99118
2103.09449	0.99141
2101.04068	0.99230
2098.98688	0.99274
2096.93308	0.99290
2094.87927	0.99373
2092.82547	0.99372
2090.77167	0.99230
2088.71786	0.99128
2086.66406	0.99118
2084.61026	0.99119
2082.55645	0.99027
2080.50265	0.98891
2078.44885	0.98950
2076.39504	0.99148
2074.34124	0.99182
2072.28744	0.99107
2070.23363	0.99139
2068.17983	0.99211
2066.12603	0.99199
2064.07223	0.99159
2062.01842	0.99140
2059.96462	0.99119
2057.91082	0.99131
2055.85701	0.99159
2053.80321	0.99077
2051.74941	0.98883
2049.69560	0.98778
2047.64180	0.98878
2045.58800	0.99088
2043.53419	0.99291
2041.48039	0.99378
2039.42659	0.99224
2037.37278	0.98954
2035.31898	0.98925
2033.26518	0.99079
2031.21137	0.99091
2029.15757	0.98942
2027.10377	0.98868
2025.04996	0.99045
2022.99616	0.99182
2020.94236	0.99217
2018.88855	0.99327
2016.83475	0.99315
2014.78095	0.99209
2012.72714	0.99126
2010.67334	0.98973
2008.61954	0.98921
2006.56574	0.99116
2004.51193	0.99272
2002.45813	0.99248
2000.40433	0.99199
1998.35052	0.99184
1996.29672	0.99232
1994.24292	0.99389
1992.18911	0.99542
1990.13531	0.99458
1988.08151	0.99226
1986.02770	0.99180
1983.97390	0.99388
1981.92010	0.99481
1979.86629	0.99289
1977.81249	0.99192
1975.75869	0.99370
1973.70488	0.99536
1971.65108	0.99511
1969.59728	0.99453
1967.54347	0.99440
1965.48967	0.99370
1963.43587	0.99359
1961.38206	0.99533
1959.32826	0.99583
1957.27446	0.99379
1955.22066	0.99282
1953.16685	0.99308
1951.11305	0.99256
1949.05925	0.99244
1947.00544	0.99309
1944.95164	0.99296
1942.89784	0.99262
1940.84403	0.99293
1938.79023	0.99282
1936.73643	0.99207
1934.68262	0.99123
1932.62882	0.99112
1930.57502	0.99208
1928.52121	0.99296
1926.46741	0.99309
1924.41361	0.99316
1922.35980	0.99314
1920.30600	0.99242
1918.25220	0.99187
1916.19839	0.99235
1914.14459	0.99275
1912.09079	0.99249
1910.03698	0.99265
1907.98318	0.99341
1905.92938	0.99358
1903.87557	0.99320
1901.82177	0.99276
1899.76797	0.99203
1897.71417	0.99129
1895.66036	0.99085
1893.60656	0.99088
1891.55276	0.99113
1889.49895	0.99113
1887.44515	0.99114
1885.39135	0.99070
1883.33754	0.98970
1881.28374	0.98900
1879.22994	0.98929
1877.17613	0.99017
1875.12233	0.99067
1873.06853	0.99080
1871.01472	0.99084
1868.96092	0.99035
1866.90712	0.98952
1864.85331	0.98922
1862.79951	0.98942
1860.74571	0.98993
1858.69190	0.99048
1856.63810	0.99081
1854.58430	0.99077
1852.53049	0.99050
1850.47669	0.99050
1848.42289	0.99079
1846.36908	0.99098
1844.31528	0.99102
1842.26148	0.99061
1840.20768	0.98991
1838.15387	0.98990
1836.10007	0.99024
1834.04627	0.99001
1831.99246	0.98980
1829.93866	0.99011
1827.88486	0.99065
1825.83105	0.99096
1823.77725	0.99084
1821.72345	0.99077
1819.66964	0.99103
1817.61584	0.99118
1815.56204	0.99103
1813.50823	0.99114
1811.45443	0.99163
1809.40063	0.99158
1807.34682	0.99084
1805.29302	0.99035
1803.23922	0.99030
1801.18541	0.99046
1799.13161	0.99050
1797.07781	0.99008
1795.02400	0.98942
1792.97020	0.98872
1790.91640	0.98814
1788.86260	0.98785
1786.80879	0.98765
1784.75499	0.98759
1782.70119	0.98774
1780.64738	0.98765
1778.59358	0.98716
1776.53978	0.98661
1774.48597	0.98612
1772.43217	0.98585
1770.37837	0.98589
1768.32456	0.98576
1766.27076	0.98551
1764.21696	0.98548
1762.16315	0.98562
1760.10935	0.98583
1758.05555	0.98594
1756.00174	0.98578
1753.94794	0.98550
1751.89414	0.98555
1749.84033	0.98598
1747.78653	0.98584
1745.73273	0.98516
1743.67892	0.98486
1741.62512	0.98522
1739.57132	0.98562
1737.51751	0.98519
1735.46371	0.98405
1733.40991	0.98295
1731.35611	0.98267
1729.30230	0.98253
1727.24850	0.98195
1725.19470	0.98119
1723.14089	0.98091
1721.08709	0.98120
1719.03329	0.98121
1716.97948	0.98035
1714.92568	0.97977
1712.87188	0.97978
1710.81807	0.97982
1708.76427	0.97996
1706.71047	0.98042
1704.65666	0.98109
1702.60286	0.98189
1700.54906	0.98281
1698.49525	0.98314
1696.44145	0.98340
1694.38765	0.98411
1692.33384	0.98447
1690.28004	0.98439
1688.22624	0.98398
1686.17243	0.98341
1684.11863	0.98331
1682.06483	0.98386
1680.01103	0.98414
1677.95722	0.98400
1675.90342	0.98372
1673.84962	0.98373
1671.79581	0.98389
1669.74201	0.98397
1667.68821	0.98407
1665.63440	0.98430
1663.58060	0.98439
1661.52680	0.98401
1659.47299	0.98371
1657.41919	0.98351
1655.36539	0.98315
1653.31158	0.98318
1651.25778	0.98345
1649.20398	0.98321
1647.15017	0.98283
1645.09637	0.98261
1643.04257	0.98261
1640.98876	0.98289
1638.93496	0.98331
1636.88116	0.98373
1634.82735	0.98424
1632.77355	0.98447
1630.71975	0.98436
1628.66594	0.98395
1626.61214	0.98357
1624.55834	0.98374
1622.50454	0.98414
1620.45073	0.98405
1618.39693	0.98379
1616.34313	0.98392
1614.28932	0.98399
1612.23552	0.98382
1610.18172	0.98412
1608.12791	0.98484
1606.07411	0.98508
1604.02031	0.98483
1601.96650	0.98462
1599.91270	0.98470
1597.85890	0.98522
1595.80509	0.98586
1593.75129	0.98599
1591.69749	0.98554
1589.64368	0.98521
1587.58988	0.98546
1585.53608	0.98574
1583.48227	0.98556
1581.42847	0.98526
1579.37467	0.98518
1577.32086	0.98532
1575.26706	0.98567
1573.21326	0.98617
1571.15945	0.98642
1569.10565	0.98602
1567.05185	0.98566
1564.99805	0.98593
1562.94424	0.98633
1560.89044	0.98650
1558.83664	0.98671
1556.78283	0.98684
1554.72903	0.98662
1552.67523	0.98658
1550.62142	0.98672
1548.56762	0.98646
1546.51382	0.98561
1544.46001	0.98457
1542.40621	0.98418
1540.35241	0.98485
1538.29860	0.98554
1536.24480	0.98581
1534.19100	0.98612
1532.13719	0.98619
1530.08339	0.98615
1528.02959	0.98639
1525.97578	0.98642
1523.92198	0.98590
1521.86818	0.98539
1519.81437	0.98539
1517.76057	0.98559
1515.70677	0.98572
1513.65297	0.98563
1511.59916	0.98541
1509.54536	0.98536
1507.49156	0.98533
1505.43775	0.98452
1503.38395	0.98379
1501.33015	0.98340
1499.27634	0.98300
1497.22254	0.98246
1495.16874	0.98184
1493.11493	0.98139
1491.06113	0.98113
1489.00733	0.98078
1486.95352	0.97979
1484.89972	0.97810
1482.84592	0.97576
1480.79211	0.97288
1478.73831	0.96948
1476.68451	0.96478
1474.63070	0.95719
1472.57690	0.94358
1470.52310	0.92665
1468.46929	0.91099
1466.41549	0.89259
1464.36169	0.87066
1462.30788	0.85475
1460.25408	0.84653
1458.20028	0.84048
1456.14648	0.83558
1454.09267	0.83462
1452.03887	0.83695
1449.98507	0.84429
1447.93126	0.86048
1445.87746	0.88279
1443.82366	0.90278
1441.76985	0.91720
1439.71605	0.92509
1437.66225	0.92789
1435.60844	0.93066
1433.55464	0.93842
1431.50084	0.94919
1429.44703	0.95891
1427.39323	0.96447
1425.33943	0.96712
1423.28562	0.96868
1421.23182	0.96985
1419.17802	0.97119
1417.12421	0.97212
1415.07041	0.97239
1413.01661	0.97269
1410.96280	0.97312
1408.90900	0.97337
1406.85520	0.97349
1404.80139	0.97360
1402.74759	0.97362
1400.69379	0.97339
1398.63999	0.97309
1396.58618	0.97276
1394.53238	0.97177
1392.47858	0.97001
1390.42477	0.96765
1388.37097	0.96298
1386.31717	0.95246
1384.26336	0.93368
1382.20956	0.90299
1380.15576	0.85588
1378.10195	0.80102
1376.04815	0.76754
1373.99435	0.78327
1371.94054	0.83358
1369.88674	0.88099
1367.83294	0.91264
1365.77913	0.92758
1363.72533	0.93070
1361.67153	0.92673
1359.61772	0.92235
1357.56392	0.92396
1355.51012	0.93242
1353.45631	0.94354
1351.40251	0.95285
1349.34871	0.95925
1347.29491	0.96337
1345.24110	0.96628
1343.18730	0.96845
1341.13350	0.96983
1339.07969	0.97047
1337.02589	0.97043
1334.97209	0.96992
1332.91828	0.96894
1330.86448	0.96775
1328.81068	0.96745
1326.75687	0.96852
1324.70307	0.97022
1322.64927	0.97173
1320.59546	0.97277
1318.54166	0.97349
1316.48786	0.97401
1314.43405	0.97412
1312.38025	0.97386
1310.32645	0.97308
1308.27264	0.97070
1306.21884	0.96694
1304.16504	0.96457
1302.11123	0.96515
1300.05743	0.96679
1298.00363	0.96781
1295.94982	0.96844
1293.89602	0.96917
1291.84222	0.97015
1289.78842	0.97141
1287.73461	0.97268
1285.68081	0.97371
1283.62701	0.97449
1281.57320	0.97498
1279.51940	0.97520
1277.46560	0.97524
1275.41179	0.97515
1273.35799	0.97505
1271.30419	0.97499
1269.25038	0.97468
1267.19658	0.97420
1265.14278	0.97373
1263.08897	0.97304
1261.03517	0.97185
1258.98137	0.96974
1256.92756	0.96714
1254.87376	0.96604
1252.81996	0.96759
1250.76615	0.97021
1248.71235	0.97199
1246.65855	0.97284
1244.60474	0.97328
1242.55094	0.97361
1240.49714	0.97403
1238.44334	0.97436
1236.38953	0.97421
1234.33573	0.97379
1232.28193	0.97346
1230.22812	0.97323
1228.17432	0.97293
1226.12052	0.97242
1224.06671	0.97167
1222.01291	0.97086
1219.95911	0.97055
1217.90530	0.97079
1215.85150	0.97114
1213.79770	0.97162
1211.74389	0.97219
1209.69009	0.97253
1207.63629	0.97264
1205.58248	0.97259
1203.52868	0.97253
1201.47488	0.97265
1199.42107	0.97287
1197.36727	0.97311
1195.31347	0.97313
1193.25966	0.97287
1191.20586	0.97273
1189.15206	0.97265
1187.09825	0.97212
1185.04445	0.97122
1182.99065	0.97039
1180.93685	0.96951
1178.88304	0.96805
1176.82924	0.96519
1174.77544	0.95984
1172.72163	0.95131
1170.66783	0.94074
1168.61403	0.93207
1166.56022	0.92953
1164.50642	0.93308
1162.45262	0.93906
1160.39881	0.94448
1158.34501	0.94827
1156.29121	0.95032
1154.23740	0.95139
1152.18360	0.95280
1150.12980	0.95510
1148.07599	0.95782
1146.02219	0.96048
1143.96839	0.96298
1141.91458	0.96520
1139.86078	0.96700
1137.80698	0.96832
1135.75317	0.96904
1133.69937	0.96920
1131.64557	0.96924
1129.59176	0.96947
1127.53796	0.96993
1125.48416	0.97038
1123.43036	0.97059
1121.37655	0.97058
1119.32275	0.97041
1117.26895	0.97011
1115.21514	0.96966
1113.16134	0.96893
1111.10754	0.96809
1109.05373	0.96719
1106.99993	0.96584
1104.94613	0.96429
1102.89232	0.96358
1100.83852	0.96380
1098.78472	0.96487
1096.73091	0.96647
1094.67711	0.96780
1092.62331	0.96890
1090.56950	0.96977
1088.51570	0.97000
1086.46190	0.96986
1084.40809	0.96994
1082.35429	0.97033
1080.30049	0.97048
1078.24668	0.97032
1076.19288	0.97042
1074.13908	0.97085
1072.08528	0.97108
1070.03147	0.97090
1067.97767	0.97067
1065.92387	0.97056
1063.87006	0.97011
1061.81626	0.96938
1059.76246	0.96903
1057.70865	0.96923
1055.65485	0.96960
1053.60105	0.96965
1051.54724	0.96936
1049.49344	0.96871
1047.43964	0.96717
1045.38583	0.96534
1043.33203	0.96490
1041.27823	0.96600
1039.22442	0.96729
1037.17062	0.96782
1035.11682	0.96783
1033.06301	0.96801
1031.00921	0.96845
1028.95541	0.96890
1026.90160	0.96914
1024.84780	0.96945
1022.79400	0.96977
1020.74019	0.96956
1018.68639	0.96926
1016.63259	0.96935
1014.57879	0.96929
1012.52498	0.96847
1010.47118	0.96709
1008.41738	0.96518
1006.36357	0.96234
1004.30977	0.95749
1002.25597	0.94821
1000.20216	0.93497
998.14836	0.92564
996.09456	0.92821
994.04075	0.93999
991.98695	0.95183
989.93315	0.95918
987.87934	0.96305
985.82554	0.96475
983.77174	0.96406
981.71793	0.96052
979.66413	0.95366
977.61033	0.94286
975.55652	0.92925
973.50272	0.91916
971.44892	0.92087
969.39511	0.93387
967.34131	0.94851
965.28751	0.95806
963.23371	0.96321
961.17990	0.96651
959.12610	0.96868
957.07230	0.96974
955.01849	0.97017
952.96469	0.97044
950.91089	0.97096
948.85708	0.97155
946.80328	0.97154
944.74948	0.97086
942.69567	0.96982
940.64187	0.96919
938.58807	0.96975
936.53426	0.97115
934.48046	0.97247
932.42666	0.97346
930.37285	0.97420
928.31905	0.97464
926.26525	0.97484
924.21144	0.97465
922.15764	0.97431
920.10384	0.97441
918.05003	0.97470
915.99623	0.97484
913.94243	0.97470
911.88862	0.97421
909.83482	0.97363
907.78102	0.97271
905.72722	0.97061
903.67341	0.96658
901.61961	0.96121
899.56581	0.95764
897.51200	0.95881
895.45820	0.96345
893.40440	0.96785
891.35059	0.97052
889.29679	0.97197
887.24299	0.97287
885.18918	0.97338
883.13538	0.97354
881.08158	0.97383
879.02777	0.97435
876.97397	0.97435
874.92017	0.97344
872.86636	0.97283
870.81256	0.97311
868.75876	0.97290
866.70495	0.97216
864.65115	0.97243
862.59735	0.97339
860.54354	0.97366
858.48974	0.97323
856.43594	0.97256
854.38213	0.97192
852.32833	0.97127
850.27453	0.96983
848.22073	0.96655
846.16692	0.95974
844.11312	0.94743
842.05932	0.93427
840.00551	0.93270
837.95171	0.94445
835.89791	0.95677
833.84410	0.96312
831.79030	0.96641
829.73650	0.96857
827.68269	0.96938
825.62889	0.96935
823.57509	0.96903
821.52128	0.96847
819.46748	0.96792
817.41368	0.96689
815.35987	0.96464
813.30607	0.96082
811.25227	0.95619
809.19846	0.95325
807.14466	0.95405
805.09086	0.95809
803.03705	0.96277
800.98325	0.96636
798.92945	0.96881
796.87565	0.97023
794.82184	0.97092
792.76804	0.97131
790.71424	0.97170
788.66043	0.97238
786.60663	0.97317
784.55283	0.97373
782.49902	0.97397
780.44522	0.97417
778.39142	0.97456
776.33761	0.97479
774.28381	0.97497
772.23001	0.97553
770.17620	0.97572
768.12240	0.97494
766.06860	0.97422
764.01479	0.97452
761.96099	0.97513
759.90719	0.97536
757.85338	0.97513
755.79958	0.97434
753.74578	0.97378
751.69197	0.97365
749.63817	0.97320
747.58437	0.97331
745.53056	0.97457
743.47676	0.97521
741.42296	0.97478
739.36916	0.97468
737.31535	0.97456
735.26155	0.97406
733.20775	0.97383
731.15394	0.97342
729.10014	0.97266
727.04634	0.97210
724.99253	0.97175
722.93873	0.97139
720.88493	0.97117
718.83112	0.97110
716.77732	0.97116
714.72352	0.97176
712.66971	0.97259
710.61591	0.97276
708.56211	0.97216
706.50830	0.97152
704.45450	0.97132
702.40070	0.97145
700.34689	0.97248
698.29309	0.97384
696.23929	0.97311
694.18548	0.97125
692.13168	0.97078
690.07788	0.97079
688.02408	0.97063
685.97027	0.97078
683.91647	0.97051
681.86267	0.97032
679.80886	0.97097
677.75506	0.97132
675.70126	0.97023
673.64745	0.96884
671.59365	0.96886
669.53985	0.96970
667.48604	0.96916
665.43224	0.96802
663.37844	0.96846
661.32463	0.96979
659.27083	0.97058
657.21703	0.97026
655.16322	0.96921
653.10942	0.96824
651.05562	0.96712
649.00181	0.96612
646.94801	0.96615
644.89421	0.96695
642.84040	0.96778
640.78660	0.96784
638.73280	0.96774
636.67899	0.96822
634.62519	0.96891
632.57139	0.96925
630.51759	0.96862
628.46378	0.96810
626.40998	0.96847
624.35618	0.96815
622.30237	0.96735
620.24857	0.96752
618.19477	0.96788
616.14096	0.96768
614.08716	0.96792
612.03336	0.96787
609.97955	0.96610
607.92575	0.96441
605.87195	0.96410
603.81814	0.96416
601.76434	0.96511
599.71054	0.96720
597.65673	0.96877
595.60293	0.96912
593.54913	0.96900
591.49532	0.96788
589.44152	0.96502
587.38772	0.96291
585.33391	0.96350
583.28011	0.96555
581.22631	0.96682
579.17250	0.96576
577.11870	0.96453
575.06490	0.96479
573.01110	0.96477
570.95729	0.96415
568.90349	0.96401
566.84969	0.96457
564.79588	0.96527
562.74208	0.96649
560.68828	0.96836
558.63447	0.96837
556.58067	0.96568
554.52687	0.96309
552.47306	0.96223
550.41926	0.96139
548.36546	0.96016
546.31165	0.96099
544.25785	0.96339
542.20405	0.96505
540.15024	0.96445
538.09644	0.96103
536.04264	0.95815
533.98883	0.95904
531.93503	0.96133
529.88123	0.96140
527.82742	0.95951
525.77362	0.95913
523.71982	0.96121
521.66602	0.96336
519.61221	0.96609
517.55841	0.96839
515.50461	0.96745
513.45080	0.96561
511.39700	0.96461
509.34320	0.96484
507.28939	0.96612
505.23559	0.96495
503.18179	0.96177
501.12798	0.96225
499.07418	0.96554
497.02038	0.96629
494.96657	0.96533
492.91277	0.96481
490.85897	0.96401
488.80516	0.96375
486.75136	0.96429
484.69756	0.96356
482.64375	0.96235
480.58995	0.96261
478.53615	0.96239
476.48234	0.96213
474.42854	0.96462
472.37474	0.96627
470.32093	0.96320
468.26713	0.95973
466.21333	0.95826
464.15953	0.95678
462.10572	0.95474
460.05192	0.95379
457.99812	0.95305
455.94431	0.95110
453.89051	0.95053
451.83671	0.95223
449.78290	0.95523
447.72910	0.95919
445.67530	0.96267
443.62149	0.96415
441.56769	0.96214
439.51389	0.95837
437.46008	0.95773
435.40628	0.95902
433.35248	0.95913
431.29867	0.95995
429.24487	0.96048
427.19107	0.95997
425.13726	0.96222
423.08346	0.96554
421.02966	0.96684
418.97585	0.96613
416.92205	0.96119
414.86825	0.95592
412.81445	0.95345
410.76064	0.95376
408.70684	0.95496
406.65304	0.95612
404.59923	0.95691
402.54543	0.95639
400.49163	0.95565
398.43782	0.95731
