3996.71440	0.99492
3994.66059	0.99476
3992.60678	0.99440
3990.55297	0.99384
3988.49916	0.99368
3986.44535	0.99429
3984.39154	0.99475
3982.33773	0.99449
3980.28391	0.99438
3978.23010	0.99467
3976.17629	0.99479
3974.12248	0.99449
3972.06867	0.99411
3970.01486	0.99416
3967.96105	0.99452
3965.90724	0.99483
3963.85343	0.99465
3961.79962	0.99394
3959.74581	0.99380
3957.69200	0.99415
3955.63819	0.99400
3953.58438	0.99360
3951.53057	0.99368
3949.47676	0.99440
3947.42295	0.99502
3945.36914	0.99476
3943.31533	0.99444
3941.26152	0.99474
3939.20771	0.99494
3937.15390	0.99479
3935.10009	0.99470
3933.04628	0.99493
3930.99247	0.99511
3928.93866	0.99473
3926.88485	0.99437
3924.83104	0.99456
3922.77723	0.99470
3920.72342	0.99436
3918.66961	0.99401
3916.61580	0.99396
3914.56199	0.99412
3912.50818	0.99430
3910.45437	0.99432
3908.40056	0.99412
3906.34675	0.99370
3904.29294	0.99365
3902.23913	0.99447
3900.18532	0.99517
3898.13151	0.99553
3896.07770	0.99544
3894.02389	0.99460
3891.97008	0.99402
3889.91627	0.99444
3887.86246	0.99498
3885.80865	0.99511
3883.75484	0.99483
3881.70103	0.99430
3879.64722	0.99361
3877.59341	0.99315
3875.53960	0.99311
3873.48579	0.99336
3871.43198	0.99395
3869.37817	0.99499
3867.32436	0.99527
3865.27055	0.99466
3863.21674	0.99438
3861.16293	0.99452
3859.10912	0.99478
3857.05531	0.99503
3855.00150	0.99469
3852.94769	0.99416
3850.89388	0.99428
3848.84007	0.99442
3846.78626	0.99450
3844.73245	0.99450
3842.67864	0.99460
3840.62483	0.99509
3838.57102	0.99516
3836.51721	0.99436
3834.46340	0.99400
3832.40959	0.99441
3830.35578	0.99486
3828.30197	0.99522
3826.24816	0.99559
3824.19435	0.99567
3822.14054	0.99530
3820.08673	0.99475
3818.03292	0.99439
3815.97911	0.99441
3813.92530	0.99465
3811.87149	0.99480
3809.81768	0.99486
3807.76387	0.99473
3805.71006	0.99464
3803.65625	0.99448
3801.60244	0.99406
3799.54863	0.99416
3797.49482	0.99485
3795.44101	0.99538
3793.38720	0.99530
3791.33339	0.99486
3789.27958	0.99463
3787.22577	0.99485
3785.17196	0.99526
3783.11815	0.99559
3781.06434	0.99577
3779.01053	0.99574
3776.95672	0.99559
3774.90291	0.99544
3772.84910	0.99519
3770.79529	0.99461
3768.74148	0.99401
3766.68767	0.99404
3764.63386	0.99443
3762.58005	0.99464
3760.52624	0.99466
3758.47243	0.99436
3756.41862	0.99382
3754.36481	0.99345
3752.31100	0.99335
3750.25719	0.99360
3748.20338	0.99362
3746.14957	0.99329
3744.09576	0.99385
3742.04195	0.99475
3739.98814	0.99496
3737.93433	0.99471
3735.88052	0.99376
3733.82671	0.99314
3731.77290	0.99347
3729.71909	0.99340
3727.66528	0.99289
3725.61147	0.99315
3723.55766	0.99387
3721.50385	0.99325
3719.45004	0.99195
3717.39623	0.99140
3715.34242	0.99101
3713.28861	0.98971
3711.23480	0.98780
3709.18099	0.98679
3707.12718	0.98636
3705.07337	0.98517
3703.01956	0.98289
3700.96575	0.98065
3698.91194	0.97972
3696.85813	0.97991
3694.80432	0.98039
3692.75051	0.98031
3690.69670	0.98015
3688.64289	0.98086
3686.58907	0.98176
3684.53526	0.98241
3682.48145	0.98307
3680.42764	0.98354
3678.37383	0.98337
3676.32002	0.98275
3674.26621	0.98285
3672.21240	0.98337
3670.15859	0.98353
3668.10478	0.98358
3666.05097	0.98360
3663.99716	0.98330
3661.94335	0.98236
3659.88954	0.98134
3657.83573	0.98104
3655.78192	0.98054
3653.72811	0.97963
3651.67430	0.97968
3649.62049	0.98033
3647.56668	0.98009
3645.51287	0.97949
3643.45906	0.97894
3641.40525	0.97862
3639.35144	0.97901
3637.29763	0.97906
3635.24382	0.97796
3633.19001	0.97691
3631.13620	0.97658
3629.08239	0.97629
3627.02858	0.97614
3624.97477	0.97618
3622.92096	0.97610
3620.86715	0.97616
3618.81334	0.97665
3616.75953	0.97719
3614.70572	0.97736
3612.65191	0.97720
3610.59810	0.97726
3608.54429	0.97810
3606.49048	0.97904
3604.43667	0.97921
3602.38286	0.97928
3600.32905	0.97965
3598.27524	0.97987
3596.22143	0.97974
3594.16762	0.97937
3592.11381	0.97926
3590.06000	0.97959
3588.00619	0.98009
3585.95238	0.98054
3583.89857	0.98053
3581.84476	0.98022
3579.79095	0.97993
3577.73714	0.97926
3575.68333	0.97850
3573.62952	0.97849
3571.57571	0.97876
3569.52190	0.97896
3567.46809	0.97940
3565.41428	0.97965
3563.36047	0.97959
3561.30666	0.97943
3559.25285	0.97924
3557.19904	0.97918
3555.14523	0.97893
3553.09142	0.97868
3551.03761	0.97883
3548.98380	0.97901
3546.92999	0.97901
3544.87618	0.97891
3542.82237	0.97866
3540.76856	0.97837
3538.71475	0.97830
3536.66094	0.97859
3534.60713	0.97908
3532.55332	0.97912
3530.49951	0.97865
3528.44570	0.97833
3526.39189	0.97827
3524.33808	0.97836
3522.28427	0.97867
3520.23046	0.97907
3518.17665	0.97911
3516.12284	0.97889
3514.06903	0.97911
3512.01522	0.97943
3509.96141	0.97905
3507.90760	0.97848
3505.85379	0.97830
3503.79998	0.97824
3501.74617	0.97844
3499.69236	0.97850
3497.63855	0.97831
3495.58474	0.97843
3493.53093	0.97858
3491.47712	0.97852
3489.42331	0.97836
3487.36950	0.97826
3485.31569	0.97841
3483.26188	0.97830
3481.20807	0.97776
3479.15426	0.97751
3477.10045	0.97738
3475.04664	0.97713
3472.99283	0.97719
3470.93902	0.97708
3468.88521	0.97654
3466.83140	0.97642
3464.77759	0.97704
3462.72378	0.97738
3460.66997	0.97707
3458.61616	0.97659
3456.56235	0.97617
3454.50854	0.97617
3452.45473	0.97645
3450.40092	0.97641
3448.34711	0.97614
3446.29330	0.97619
3444.23949	0.97656
3442.18568	0.97688
3440.13187	0.97696
3438.07806	0.97692
3436.02425	0.97697
3433.97044	0.97705
3431.91663	0.97696
3429.86282	0.97676
3427.80901	0.97656
3425.75520	0.97652
3423.70139	0.97672
3421.64758	0.97663
3419.59377	0.97619
3417.53996	0.97609
3415.48615	0.97607
3413.43234	0.97556
3411.37853	0.97525
3409.32472	0.97565
3407.27091	0.97610
3405.21710	0.97632
3403.16329	0.97621
3401.10948	0.97565
3399.05567	0.97556
3397.00186	0.97612
3394.94805	0.97647
3392.89424	0.97627
3390.84042	0.97600
3388.78661	0.97587
3386.73280	0.97531
3384.67899	0.97439
3382.62518	0.97420
3380.57137	0.97487
3378.51756	0.97561
3376.46375	0.97612
3374.40994	0.97608
3372.35613	0.97588
3370.30232	0.97624
3368.24851	0.97645
3366.19470	0.97609
3364.14089	0.97602
3362.08708	0.97616
3360.03327	0.97586
3357.97946	0.97573
3355.92565	0.97622
3353.87184	0.97681
3351.81803	0.97717
3349.76422	0.97729
3347.71041	0.97726
3345.65660	0.97746
3343.60279	0.97794
3341.54898	0.97800
3339.49517	0.97740
3337.44136	0.97696
3335.38755	0.97739
3333.33374	0.97795
3331.27993	0.97792
3329.22612	0.97770
3327.17231	0.97771
3325.11850	0.97776
3323.06469	0.97732
3321.01088	0.97674
3318.95707	0.97705
3316.90326	0.97800
3314.84945	0.97857
3312.79564	0.97862
3310.74183	0.97832
3308.68802	0.97802
3306.63421	0.97816
3304.58040	0.97846
3302.52659	0.97850
3300.47278	0.97824
3298.41897	0.97803
3296.36516	0.97812
3294.31135	0.97827
3292.25754	0.97847
3290.20373	0.97893
3288.14992	0.97905
3286.09611	0.97871
3284.04230	0.97868
3281.98849	0.97884
3279.93468	0.97897
3277.88087	0.97922
3275.82706	0.97925
3273.77325	0.97906
3271.71944	0.97917
3269.66563	0.97926
3267.61182	0.97886
3265.55801	0.97872
3263.50420	0.97959
3261.45039	0.98054
3259.39658	0.98048
3257.34277	0.97985
3255.28896	0.97973
3253.23515	0.98020
3251.18134	0.98050
3249.12753	0.98059
3247.07372	0.98089
3245.01991	0.98109
3242.96610	0.98108
3240.91229	0.98090
3238.85848	0.98048
3236.80467	0.98026
3234.75086	0.98056
3232.69705	0.98096
3230.64324	0.98108
3228.58943	0.98115
3226.53562	0.98127
3224.48181	0.98143
3222.42800	0.98149
3220.37419	0.98139
3218.32038	0.98151
3216.26657	0.98189
3214.21276	0.98207
3212.15895	0.98197
3210.10514	0.98181
3208.05133	0.98162
3205.99752	0.98157
3203.94371	0.98153
3201.88990	0.98123
3199.83609	0.98116
3197.78228	0.98150
3195.72847	0.98184
3193.67466	0.98227
3191.62085	0.98274
3189.56704	0.98281
3187.51323	0.98251
3185.45942	0.98216
3183.40561	0.98198
3181.35180	0.98205
3179.29799	0.98240
3177.24418	0.98306
3175.19037	0.98332
3173.13656	0.98288
3171.08275	0.98287
3169.02894	0.98363
3166.97513	0.98421
3164.92132	0.98441
3162.86751	0.98462
3160.81370	0.98473
3158.75989	0.98459
3156.70608	0.98459
3154.65227	0.98479
3152.59846	0.98486
3150.54465	0.98486
3148.49084	0.98496
3146.43703	0.98510
3144.38322	0.98519
3142.32941	0.98542
3140.27560	0.98580
3138.22179	0.98562
3136.16798	0.98478
3134.11417	0.98438
3132.06036	0.98487
3130.00655	0.98547
3127.95274	0.98557
3125.89893	0.98559
3123.84512	0.98605
3121.79131	0.98663
3119.73750	0.98680
3117.68369	0.98664
3115.62988	0.98659
3113.57607	0.98661
3111.52226	0.98648
3109.46845	0.98664
3107.41464	0.98695
3105.36083	0.98692
3103.30702	0.98687
3101.25321	0.98680
3099.19940	0.98656
3097.14559	0.98678
3095.09177	0.98758
3093.03796	0.98786
3090.98415	0.98736
3088.93034	0.98703
3086.87653	0.98702
3084.82272	0.98704
3082.76891	0.98722
3080.71510	0.98759
3078.66129	0.98800
3076.60748	0.98827
3074.55367	0.98821
3072.49986	0.98800
3070.44605	0.98797
3068.39224	0.98820
3066.33843	0.98862
3064.28462	0.98877
3062.23081	0.98866
3060.17700	0.98865
3058.12319	0.98878
3056.06938	0.98900
3054.01557	0.98903
3051.96176	0.98892
3049.90795	0.98890
3047.85414	0.98873
3045.80033	0.98843
3043.74652	0.98852
3041.69271	0.98898
3039.63890	0.98927
3037.58509	0.98926
3035.53128	0.98912
3033.47747	0.98886
3031.42366	0.98857
3029.36985	0.98855
3027.31604	0.98858
3025.26223	0.98844
3023.20842	0.98828
3021.15461	0.98813
3019.10080	0.98806
3017.04699	0.98823
3014.99318	0.98841
3012.93937	0.98821
3010.88556	0.98787
3008.83175	0.98778
3006.77794	0.98774
3004.72413	0.98738
3002.67032	0.98668
3000.61651	0.98589
2998.56270	0.98517
2996.50889	0.98458
2994.45508	0.98393
2992.40127	0.98285
2990.34746	0.98125
2988.29365	0.97948
2986.23984	0.97782
2984.18603	0.97577
2982.13222	0.97265
2980.07841	0.96850
2978.02460	0.96338
2975.97079	0.95706
2973.91698	0.94890
2971.86317	0.93808
2969.80936	0.92466
2967.75555	0.90909
2965.70174	0.89176
2963.64793	0.87439
2961.59412	0.85981
2959.54031	0.84972
2957.48650	0.84340
2955.43269	0.83779
2953.37888	0.83022
2951.32507	0.82247
2949.27126	0.82049
2947.21745	0.82905
2945.16364	0.84705
2943.10983	0.86784
2941.05602	0.88427
2939.00221	0.89312
2936.94840	0.89410
2934.89459	0.88820
2932.84078	0.87721
2930.78697	0.86285
2928.73316	0.84692
2926.67935	0.83139
2924.62554	0.81734
2922.57173	0.80436
2920.51792	0.79219
2918.46411	0.78273
2916.41030	0.77938
2914.35649	0.78384
2912.30268	0.79388
2910.24887	0.80511
2908.19506	0.81510
2906.14125	0.82451
2904.08744	0.83455
2902.03363	0.84534
2899.97982	0.85635
2897.92601	0.86688
2895.87220	0.87624
2893.81839	0.88345
2891.76458	0.88821
2889.71077	0.89096
2887.65696	0.89178
2885.60315	0.89088
2883.54934	0.88842
2881.49553	0.88474
2879.44172	0.88106
2877.38791	0.87899
2875.33410	0.87913
2873.28029	0.87996
2871.22648	0.87925
2869.17267	0.87692
2867.11886	0.87613
2865.06505	0.88173
2863.01124	0.89526
2860.95743	0.91198
2858.90362	0.92577
2856.84981	0.93411
2854.79600	0.93711
2852.74219	0.93593
2850.68838	0.93202
2848.63457	0.92619
2846.58076	0.91805
2844.52695	0.90721
2842.47314	0.89444
2840.41933	0.88260
2838.36552	0.87625
2836.31171	0.87926
2834.25790	0.89211
2832.20409	0.91058
2830.15028	0.92851
2828.09647	0.94237
2826.04266	0.95190
2823.98885	0.95819
2821.93504	0.96270
2819.88123	0.96638
2817.82742	0.96903
2815.77361	0.97066
2813.71980	0.97191
2811.66599	0.97312
2809.61218	0.97429
2807.55837	0.97537
2805.50456	0.97642
2803.45075	0.97775
2801.39693	0.97931
2799.34312	0.98046
2797.28931	0.98104
2795.23550	0.98144
2793.18169	0.98203
2791.12788	0.98288
2789.07407	0.98378
2787.02026	0.98455
2784.96645	0.98530
2782.91264	0.98596
2780.85883	0.98649
2778.80502	0.98707
2776.75121	0.98761
2774.69740	0.98775
2772.64359	0.98775
2770.58978	0.98797
2768.53597	0.98811
2766.48216	0.98808
2764.42835	0.98828
2762.37454	0.98878
2760.32073	0.98925
2758.26692	0.98951
2756.21311	0.98953
2754.15930	0.98936
2752.10549	0.98929
2750.05168	0.98950
2747.99787	0.98967
2745.94406	0.98941
2743.89025	0.98891
2741.83644	0.98866
2739.78263	0.98867
2737.72882	0.98870
2735.67501	0.98851
2733.62120	0.98795
2731.56739	0.98723
2729.51358	0.98648
2727.45977	0.98585
2725.40596	0.98559
2723.35215	0.98550
2721.29834	0.98539
2719.24453	0.98561
2717.19072	0.98649
2715.13691	0.98753
2713.08310	0.98809
2711.02929	0.98830
2708.97548	0.98845
2706.92167	0.98868
2704.86786	0.98906
2702.81405	0.98953
2700.76024	0.99002
2698.70643	0.99046
2696.65262	0.99059
2694.59881	0.99041
2692.54500	0.99028
2690.49119	0.99021
2688.43738	0.98993
2686.38357	0.98966
2684.32976	0.98981
2682.27595	0.99010
2680.22214	0.99007
2678.16833	0.99008
2676.11452	0.99046
2674.06071	0.99065
2672.00690	0.99040
2669.95309	0.99018
2667.89928	0.99008
2665.84547	0.99021
2663.79166	0.99054
2661.73785	0.99061
2659.68404	0.99049
2657.63023	0.99049
2655.57642	0.99038
2653.52261	0.99030
2651.46880	0.99033
2649.41499	0.99010
2647.36118	0.99007
2645.30737	0.99051
2643.25356	0.99096
2641.19975	0.99131
2639.14594	0.99153
2637.09213	0.99153
2635.03832	0.99135
2632.98451	0.99109
2630.93070	0.99098
2628.87689	0.99085
2626.82308	0.99058
2624.76927	0.99062
2622.71546	0.99117
2620.66165	0.99164
2618.60784	0.99172
2616.55403	0.99178
2614.50022	0.99178
2612.44641	0.99172
2610.39260	0.99183
2608.33879	0.99193
2606.28498	0.99208
2604.23117	0.99236
2602.17736	0.99259
2600.12355	0.99270
2598.06974	0.99269
2596.01593	0.99240
2593.96212	0.99203
2591.90831	0.99210
2589.85450	0.99259
2587.80069	0.99278
2585.74688	0.99224
2583.69307	0.99155
2581.63926	0.99140
2579.58545	0.99182
2577.53164	0.99202
2575.47783	0.99168
2573.42402	0.99159
2571.37021	0.99237
2569.31640	0.99342
2567.26259	0.99351
2565.20878	0.99291
2563.15497	0.99285
2561.10116	0.99321
2559.04735	0.99361
2556.99354	0.99411
2554.93973	0.99419
2552.88592	0.99373
2550.83211	0.99333
2548.77830	0.99344
2546.72449	0.99393
2544.67068	0.99430
2542.61687	0.99448
2540.56306	0.99470
2538.50925	0.99471
2536.45544	0.99463
2534.40163	0.99488
2532.34782	0.99495
2530.29401	0.99502
2528.24020	0.99535
2526.18639	0.99502
2524.13258	0.99431
2522.07877	0.99397
2520.02496	0.99391
2517.97115	0.99391
2515.91734	0.99376
2513.86353	0.99389
2511.80972	0.99453
2509.75591	0.99513
2507.70210	0.99553
2505.64828	0.99539
2503.59447	0.99462
2501.54066	0.99430
2499.48685	0.99482
2497.43304	0.99549
2495.37923	0.99577
2493.32542	0.99555
2491.27161	0.99556
2489.21780	0.99592
2487.16399	0.99599
2485.11018	0.99571
2483.05637	0.99536
2481.00256	0.99520
2478.94875	0.99551
2476.89494	0.99604
2474.84113	0.99631
2472.78732	0.99640
2470.73351	0.99622
2468.67970	0.99568
2466.62589	0.99518
2464.57208	0.99522
2462.51827	0.99544
2460.46446	0.99521
2458.41065	0.99492
2456.35684	0.99484
2454.30303	0.99481
2452.24922	0.99481
2450.19541	0.99486
2448.14160	0.99493
2446.08779	0.99502
2444.03398	0.99534
2441.98017	0.99581
2439.92636	0.99576
2437.87255	0.99511
2435.81874	0.99467
2433.76493	0.99493
2431.71112	0.99527
2429.65731	0.99531
2427.60350	0.99548
2425.54969	0.99568
2423.49588	0.99549
2421.44207	0.99517
2419.38826	0.99540
2417.33445	0.99590
2415.28064	0.99574
2413.22683	0.99518
2411.17302	0.99496
2409.11921	0.99511
2407.06540	0.99524
2405.01159	0.99542
2402.95778	0.99578
2400.90397	0.99596
2398.85016	0.99588
2396.79635	0.99574
2394.74254	0.99546
2392.68873	0.99512
2390.63492	0.99472
2388.58111	0.99448
2386.52730	0.99492
2384.47349	0.99547
2382.41968	0.99542
2380.36587	0.99519
2378.31206	0.99517
2376.25825	0.99516
2374.20444	0.99531
2372.15063	0.99541
2370.09682	0.99478
2368.04301	0.99432
2365.98920	0.99522
2363.93539	0.99669
2361.88158	0.99720
2359.82777	0.99689
2357.77396	0.99692
2355.72015	0.99698
2353.66634	0.99659
2351.61253	0.99656
2349.55872	0.99689
2347.50491	0.99651
2345.45110	0.99499
2343.39729	0.99366
2341.34348	0.99384
2339.28967	0.99426
2337.23586	0.99430
2335.18205	0.99462
2333.12824	0.99499
2331.07443	0.99507
2329.02062	0.99524
2326.96681	0.99528
2324.91300	0.99467
2322.85919	0.99406
2320.80538	0.99441
2318.75157	0.99491
2316.69776	0.99449
2314.64395	0.99387
2312.59014	0.99423
2310.53633	0.99502
2308.48252	0.99543
2306.42871	0.99561
2304.37490	0.99535
2302.32109	0.99480
2300.26728	0.99462
2298.21347	0.99464
2296.15966	0.99467
2294.10585	0.99497
2292.05204	0.99543
2289.99823	0.99562
2287.94442	0.99544
2285.89061	0.99536
2283.83680	0.99578
2281.78299	0.99580
2279.72918	0.99522
2277.67537	0.99519
2275.62156	0.99571
2273.56775	0.99610
2271.51394	0.99575
2269.46013	0.99465
2267.40632	0.99424
2265.35251	0.99504
2263.29870	0.99602
2261.24489	0.99636
2259.19108	0.99588
2257.13727	0.99538
2255.08346	0.99549
2253.02965	0.99544
2250.97584	0.99492
2248.92203	0.99466
2246.86822	0.99439
2244.81441	0.99440
2242.76060	0.99546
2240.70679	0.99654
2238.65298	0.99696
2236.59917	0.99677
2234.54536	0.99602
2232.49155	0.99586
2230.43774	0.99654
2228.38393	0.99743
2226.33012	0.99773
2224.27631	0.99717
2222.22250	0.99650
2220.16869	0.99527
2218.11488	0.99399
2216.06107	0.99417
2214.00726	0.99536
2211.95344	0.99730
2209.89963	0.99933
2207.84582	0.99995
2205.79201	0.99965
2203.73820	0.99812
2201.68439	0.99539
2199.63058	0.99409
2197.57677	0.99430
2195.52296	0.99448
2193.46915	0.99464
2191.41534	0.99489
2189.36153	0.99489
2187.30772	0.99407
2185.25391	0.99393
2183.20010	0.99569
2181.14629	0.99716
2179.09248	0.99792
2177.03867	0.99937
2174.98486	1.00045
2172.93105	1.00057
2170.87724	1.00031
2168.82343	0.99918
2166.76962	0.99805
2164.71581	0.99884
2162.66200	1.00014
2160.60819	1.00011
2158.55438	1.00059
2156.50057	1.00201
2154.44676	1.00138
2152.39295	0.99982
2150.33914	0.99963
2148.28533	0.99755
2146.23152	0.99396
2144.17771	0.99432
2142.12390	0.99842
2140.07009	1.00199
2138.01628	1.00195
2135.96247	0.99919
2133.90866	0.99748
2131.85485	0.99783
2129.80104	0.99834
2127.74723	0.99821
2125.69342	0.99803
2123.63961	0.99795
2121.58580	0.99736
2119.53199	0.99626
2117.47818	0.99567
2115.42437	0.99617
2113.37056	0.99723
2111.31675	0.99786
2109.26294	0.99832
2107.20913	0.99874
2105.15532	0.99812
2103.10151	0.99734
2101.04770	0.99747
2098.99389	0.99795
2096.94008	0.99765
2094.88627	0.99633
2092.83246	0.99563
2090.77865	0.99574
2088.72484	0.99559
2086.67103	0.99534
2084.61722	0.99521
2082.56341	0.99553
2080.50960	0.99619
2078.45579	0.99699
2076.40198	0.99821
2074.34817	0.99853
2072.29436	0.99765
2070.24055	0.99708
2068.18674	0.99703
2066.13293	0.99670
2064.07912	0.99550
2062.02531	0.99498
2059.97150	0.99554
2057.91769	0.99498
2055.86388	0.99395
2053.81007	0.99443
2051.75626	0.99592
2049.70245	0.99746
2047.64864	0.99810
2045.59483	0.99807
2043.54102	0.99846
2041.48721	0.99774
2039.43340	0.99628
2037.37959	0.99587
2035.32578	0.99514
2033.27197	0.99491
2031.21816	0.99633
2029.16435	0.99594
2027.11054	0.99367
2025.05673	0.99390
2023.00292	0.99618
2020.94911	0.99683
2018.89530	0.99718
2016.84149	0.99924
2014.78768	1.00069
2012.73387	0.99990
2010.68006	0.99796
2008.62625	0.99715
2006.57244	0.99783
2004.51863	0.99945
2002.46482	1.00162
2000.41101	1.00263
1998.35720	1.00146
1996.30339	0.99940
1994.24958	0.99911
1992.19577	1.00090
1990.14196	1.00189
1988.08815	1.00099
1986.03434	1.00042
1983.98053	1.00067
1981.92672	1.00054
1979.87291	0.99993
1977.81910	0.99731
1975.76529	0.99368
1973.71148	0.99319
1971.65767	0.99482
1969.60386	0.99629
1967.55005	0.99892
1965.49624	1.00162
1963.44243	1.00075
1961.38862	0.99810
1959.33481	0.99798
1957.28100	0.99934
1955.22719	0.99948
1953.17338	0.99901
1951.11957	0.99909
1949.06576	0.99918
1947.01195	0.99778
1944.95814	0.99573
1942.90433	0.99543
1940.85052	0.99684
1938.79671	0.99871
1936.74290	1.00045
1934.68909	1.00088
1932.63528	0.99915
1930.58147	0.99728
1928.52766	0.99688
1926.47385	0.99646
1924.42004	0.99588
1922.36623	0.99618
1920.31242	0.99698
1918.25861	0.99795
1916.20479	0.99850
1914.15098	0.99852
1912.09717	0.99841
1910.04336	0.99767
1907.98955	0.99577
1905.93574	0.99417
1903.88193	0.99488
1901.82812	0.99690
1899.77431	0.99810
1897.72050	0.99833
1895.66669	0.99827
1893.61288	0.99782
1891.55907	0.99684
1889.50526	0.99610
1887.45145	0.99619
1885.39764	0.99633
1883.34383	0.99566
1881.29002	0.99483
1879.23621	0.99494
1877.18240	0.99582
1875.12859	0.99637
1873.07478	0.99606
1871.02097	0.99560
1868.96716	0.99593
1866.91335	0.99691
1864.85954	0.99737
1862.80573	0.99725
1860.75192	0.99705
1858.69811	0.99646
1856.64430	0.99583
1854.59049	0.99627
1852.53668	0.99676
1850.48287	0.99604
1848.42906	0.99557
1846.37525	0.99612
1844.32144	0.99650
1842.26763	0.99646
1840.21382	0.99659
1838.16001	0.99690
1836.10620	0.99686
1834.05239	0.99631
1831.99858	0.99586
1829.94477	0.99627
1827.89096	0.99718
1825.83715	0.99719
1823.78334	0.99644
1821.72953	0.99596
1819.67572	0.99596
1817.62191	0.99613
1815.56810	0.99632
1813.51429	0.99633
1811.46048	0.99586
1809.40667	0.99524
1807.35286	0.99492
1805.29905	0.99503
1803.24524	0.99529
1801.19143	0.99542
1799.13762	0.99539
1797.08381	0.99517
1795.03000	0.99480
1792.97619	0.99431
1790.92238	0.99415
1788.86857	0.99457
1786.81476	0.99479
1784.76095	0.99483
1782.70714	0.99493
1780.65333	0.99484
1778.59952	0.99483
1776.54571	0.99486
1774.49190	0.99462
1772.43809	0.99431
1770.38428	0.99434
1768.33047	0.99446
1766.27666	0.99420
1764.22285	0.99373
1762.16904	0.99352
1760.11523	0.99380
1758.06142	0.99401
1756.00761	0.99384
1753.95380	0.99347
1751.89999	0.99300
1749.84618	0.99278
1747.79237	0.99299
1745.73856	0.99322
1743.68475	0.99291
1741.63094	0.99193
1739.57713	0.99097
1737.52332	0.99056
1735.46951	0.99032
1733.41570	0.99005
1731.36189	0.98972
1729.30808	0.98936
1727.25427	0.98910
1725.20046	0.98889
1723.14665	0.98860
1721.09284	0.98837
1719.03903	0.98830
1716.98522	0.98786
1714.93141	0.98697
1712.87760	0.98654
1710.82379	0.98665
1708.76998	0.98692
1706.71617	0.98700
1704.66236	0.98665
1702.60855	0.98611
1700.55474	0.98578
1698.50093	0.98562
1696.44712	0.98558
1694.39331	0.98569
1692.33950	0.98543
1690.28569	0.98472
1688.23188	0.98391
1686.17807	0.98322
1684.12426	0.98272
1682.07045	0.98242
1680.01664	0.98191
1677.96283	0.98098
1675.90902	0.97999
1673.85521	0.97960
1671.80140	0.97944
1669.74759	0.97868
1667.69378	0.97771
1665.63997	0.97716
1663.58616	0.97681
1661.53235	0.97686
1659.47854	0.97707
1657.42473	0.97688
1655.37092	0.97648
1653.31711	0.97574
1651.26330	0.97492
1649.20949	0.97480
1647.15568	0.97534
1645.10187	0.97600
1643.04806	0.97599
1640.99425	0.97578
1638.94044	0.97572
1636.88663	0.97563
1634.83282	0.97541
1632.77901	0.97532
1630.72520	0.97534
1628.67139	0.97537
1626.61758	0.97550
1624.56377	0.97579
1622.50996	0.97622
1620.45614	0.97652
1618.40233	0.97653
1616.34852	0.97674
1614.29471	0.97742
1612.24090	0.97784
1610.18709	0.97774
1608.13328	0.97761
1606.07947	0.97782
1604.02566	0.97825
1601.97185	0.97884
1599.91804	0.97936
1597.86423	0.97958
1595.81042	0.97962
1593.75661	0.97957
1591.70280	0.97940
1589.64899	0.97936
1587.59518	0.97952
1585.54137	0.97955
1583.48756	0.97946
1581.43375	0.97948
1579.37994	0.97946
1577.32613	0.97926
1575.27232	0.97925
1573.21851	0.97961
1571.16470	0.98000
1569.11089	0.98055
1567.05708	0.98119
1565.00327	0.98137
1562.94946	0.98091
1560.89565	0.98018
1558.84184	0.98011
1556.78803	0.98058
1554.73422	0.98043
1552.68041	0.97998
1550.62660	0.97943
1548.57279	0.97896
1546.51898	0.97851
1544.46517	0.97772
1542.41136	0.97690
1540.35755	0.97685
1538.30374	0.97746
1536.24993	0.97771
1534.19612	0.97787
1532.14231	0.97829
1530.08850	0.97862
1528.03469	0.97865
1525.98088	0.97841
1523.92707	0.97784
1521.87326	0.97722
1519.81945	0.97701
1517.76564	0.97697
1515.71183	0.97681
1513.65802	0.97651
1511.60421	0.97603
1509.55040	0.97524
1507.49659	0.97447
1505.44278	0.97465
1503.38897	0.97462
1501.33516	0.97403
1499.28135	0.97323
1497.22754	0.97216
1495.17373	0.97083
1493.11992	0.96949
1491.06611	0.96814
1489.01230	0.96687
1486.95849	0.96572
1484.90468	0.96429
1482.85087	0.96229
1480.79706	0.95960
1478.74325	0.95615
1476.68944	0.95139
1474.63563	0.94452
1472.58182	0.93404
1470.52801	0.92186
1468.47420	0.91032
1466.42039	0.89650
1464.36658	0.88018
1462.31277	0.86809
1460.25896	0.86171
1458.20515	0.85736
1456.15134	0.85398
1454.09753	0.85340
1452.04372	0.85561
1449.98991	0.86175
1447.93610	0.87419
1445.88229	0.89042
1443.82848	0.90424
1441.77467	0.91359
1439.72086	0.91835
1437.66705	0.91984
1435.61324	0.92178
1433.55943	0.92748
1431.50562	0.93539
1429.45181	0.94251
1427.39800	0.94660
1425.34419	0.94850
1423.29038	0.94950
1421.23657	0.95002
1419.18276	0.95037
1417.12895	0.95120
1415.07514	0.95226
1413.02133	0.95303
1410.96752	0.95359
1408.91371	0.95410
1406.85990	0.95487
1404.80609	0.95600
1402.75228	0.95696
1400.69847	0.95739
1398.64466	0.95741
1396.59085	0.95723
1394.53704	0.95713
1392.48323	0.95680
1390.42942	0.95561
1388.37561	0.95263
1386.32180	0.94553
1384.26799	0.93160
1382.21418	0.90734
1380.16037	0.87071
1378.10656	0.83067
1376.05275	0.80910
1373.99894	0.82371
1371.94513	0.86251
1369.89132	0.89897
1367.83751	0.92313
1365.78370	0.93458
1363.72989	0.93744
1361.67608	0.93544
1359.62227	0.93286
1357.56846	0.93424
1355.51465	0.94064
1353.46084	0.94906
1351.40703	0.95616
1349.35322	0.96109
1347.29941	0.96451
1345.24560	0.96708
1343.19179	0.96881
1341.13798	0.96968
1339.08417	0.97035
1337.03036	0.97101
1334.97655	0.97119
1332.92274	0.97096
1330.86893	0.97075
1328.81512	0.97098
1326.76130	0.97178
1324.70749	0.97304
1322.65368	0.97426
1320.59987	0.97501
1318.54606	0.97563
1316.49225	0.97640
1314.43844	0.97698
1312.38463	0.97710
1310.33082	0.97663
1308.27701	0.97525
1306.22320	0.97332
1304.16939	0.97220
1302.11558	0.97245
1300.06177	0.97303
1298.00796	0.97331
1295.95415	0.97361
1293.90034	0.97431
1291.84653	0.97524
1289.79272	0.97602
1287.73891	0.97667
1285.68510	0.97720
1283.63129	0.97750
1281.57748	0.97769
1279.52367	0.97789
1277.46986	0.97818
1275.41605	0.97839
1273.36224	0.97825
1271.30843	0.97788
1269.25462	0.97733
1267.20081	0.97649
1265.14700	0.97560
1263.09319	0.97492
1261.03938	0.97413
1258.98557	0.97290
1256.93176	0.97159
1254.87795	0.97124
1252.82414	0.97221
1250.77033	0.97352
1248.71652	0.97448
1246.66271	0.97521
1244.60890	0.97576
1242.55509	0.97622
1240.50128	0.97652
1238.44747	0.97635
1236.39366	0.97607
1234.33985	0.97634
1232.28604	0.97669
1230.23223	0.97655
1228.17842	0.97626
1226.12461	0.97595
1224.07080	0.97527
1222.01699	0.97435
1219.96318	0.97385
1217.90937	0.97408
1215.85556	0.97460
1213.80175	0.97509
1211.74794	0.97545
1209.69413	0.97567
1207.64032	0.97585
1205.58651	0.97593
1203.53270	0.97580
1201.47889	0.97543
1199.42508	0.97493
1197.37127	0.97467
1195.31746	0.97474
1193.26365	0.97464
1191.20984	0.97412
1189.15603	0.97353
1187.10222	0.97291
1185.04841	0.97188
1182.99460	0.97043
1180.94079	0.96881
1178.88698	0.96699
1176.83317	0.96433
1174.77936	0.96004
1172.72555	0.95379
1170.67174	0.94634
1168.61793	0.94002
1166.56412	0.93742
1164.51031	0.93885
1162.45650	0.94213
1160.40269	0.94492
1158.34888	0.94657
1156.29507	0.94727
1154.24126	0.94729
1152.18745	0.94731
1150.13364	0.94795
1148.07983	0.94916
1146.02602	0.95029
1143.97221	0.95102
1141.91840	0.95144
1139.86459	0.95165
1137.81078	0.95142
1135.75697	0.95037
1133.70316	0.94875
1131.64935	0.94720
1129.59554	0.94520
1127.54173	0.94241
1125.48792	0.93955
1123.43411	0.93674
1121.38030	0.93365
1119.32649	0.93033
1117.27268	0.92711
1115.21887	0.92429
1113.16506	0.92167
1111.11125	0.91890
1109.05744	0.91598
1107.00363	0.91270
1104.94982	0.90902
1102.89601	0.90607
1100.84220	0.90449
1098.78839	0.90380
1096.73458	0.90370
1094.68077	0.90396
1092.62696	0.90385
1090.57315	0.90342
1088.51934	0.90311
1086.46553	0.90271
1084.41172	0.90222
1082.35791	0.90175
1080.30410	0.90120
1078.25029	0.90076
1076.19648	0.90032
1074.14267	0.89961
1072.08886	0.89887
1070.03505	0.89794
1067.98124	0.89653
1065.92743	0.89483
1063.87362	0.89268
1061.81981	0.89001
1059.76600	0.88732
1057.71219	0.88464
1055.65838	0.88199
1053.60457	0.87948
1051.55076	0.87648
1049.49695	0.87259
1047.44314	0.86858
1045.38933	0.86526
1043.33552	0.86275
1041.28171	0.86089
1039.22790	0.85953
1037.17409	0.85817
1035.12028	0.85678
1033.06647	0.85596
1031.01265	0.85610
1028.95884	0.85716
1026.90503	0.85868
1024.85122	0.85996
1022.79741	0.86082
1020.74360	0.86151
1018.68979	0.86218
1016.63598	0.86277
1014.58217	0.86316
1012.52836	0.86318
1010.47455	0.86285
1008.42074	0.86268
1006.36693	0.86293
1004.31312	0.86265
1002.25931	0.86032
1000.20550	0.85602
998.15169	0.85375
996.09788	0.85878
994.04407	0.87047
991.99026	0.88278
989.93645	0.89186
987.88264	0.89816
985.82883	0.90303
983.77502	0.90674
981.72121	0.90830
979.66740	0.90638
977.61359	0.90053
975.55978	0.89256
973.50597	0.88780
971.45216	0.89177
969.39835	0.90363
967.34454	0.91682
965.29073	0.92657
963.23692	0.93281
961.18311	0.93714
959.12930	0.94032
957.07549	0.94269
955.02168	0.94458
952.96787	0.94607
950.91406	0.94728
948.86025	0.94849
946.80644	0.94932
944.75263	0.94923
942.69882	0.94897
940.64501	0.94910
938.59120	0.94970
936.53739	0.95085
934.48358	0.95209
932.42977	0.95285
930.37596	0.95307
928.32215	0.95290
926.26834	0.95236
924.21453	0.95160
922.16072	0.95080
920.10691	0.95000
918.05310	0.94924
915.99929	0.94836
913.94548	0.94743
911.89167	0.94704
909.83786	0.94750
907.78405	0.94835
905.73024	0.94860
903.67643	0.94740
901.62262	0.94531
899.56881	0.94453
897.51500	0.94688
895.46119	0.95162
893.40738	0.95622
891.35357	0.95925
889.29976	0.96099
887.24595	0.96147
885.19214	0.96025
883.13833	0.95796
881.08452	0.95506
879.03071	0.95169
876.97690	0.94929
874.92309	0.94849
872.86928	0.94890
870.81547	0.95137
868.76166	0.95591
866.70785	0.96036
864.65404	0.96315
862.60023	0.96452
860.54642	0.96482
858.49261	0.96443
856.43880	0.96413
854.38499	0.96443
852.33118	0.96507
850.27737	0.96487
848.22356	0.96264
846.16975	0.95690
844.11594	0.94664
842.06213	0.93681
840.00832	0.93689
837.95451	0.94685
835.90070	0.95684
833.84689	0.96198
831.79308	0.96448
829.73927	0.96610
827.68546	0.96651
825.63165	0.96602
823.57784	0.96568
821.52403	0.96575
819.47022	0.96537
817.41641	0.96390
815.36260	0.96125
813.30879	0.95735
811.25498	0.95324
809.20117	0.95105
807.14736	0.95175
805.09355	0.95409
803.03974	0.95655
800.98593	0.95877
798.93212	0.96045
796.87831	0.96118
794.82450	0.96168
792.77069	0.96241
790.71688	0.96259
788.66307	0.96236
786.60926	0.96276
784.55545	0.96369
782.50164	0.96438
780.44783	0.96488
778.39402	0.96576
776.34021	0.96660
774.28640	0.96654
772.23259	0.96577
770.17878	0.96499
768.12497	0.96485
766.07116	0.96517
764.01735	0.96496
761.96354	0.96422
759.90973	0.96337
757.85592	0.96235
755.80211	0.96154
753.74830	0.96167
751.69449	0.96197
749.64068	0.96152
747.58687	0.96108
745.53306	0.96063
743.47925	0.95992
741.42544	0.96003
739.37163	0.96063
737.31781	0.96047
735.26400	0.96004
733.21019	0.95979
731.15638	0.95923
729.10257	0.95813
727.04876	0.95696
724.99495	0.95654
722.94114	0.95660
720.88733	0.95608
718.83352	0.95486
716.77971	0.95365
714.72590	0.95272
712.67209	0.95200
710.61828	0.95169
708.56447	0.95151
706.51066	0.95053
704.45685	0.94856
702.40304	0.94609
700.34923	0.94367
698.29542	0.94184
696.24161	0.94064
694.18780	0.93988
692.13399	0.93931
690.08018	0.93890
688.02637	0.93911
685.97256	0.93947
683.91875	0.93949
681.86494	0.94001
679.81113	0.94046
677.75732	0.93973
675.70351	0.93885
673.64970	0.93877
671.59589	0.93903
669.54208	0.93935
667.48827	0.94026
665.43446	0.94056
663.38065	0.94032
661.32684	0.94089
659.27303	0.94184
657.21922	0.94207
655.16541	0.94161
653.11160	0.94118
651.05779	0.94114
649.00398	0.94095
646.95017	0.94011
644.89636	0.93913
642.84255	0.93897
640.78874	0.93976
638.73493	0.94037
636.68112	0.93994
634.62731	0.93893
632.57350	0.93834
630.51969	0.93909
628.46588	0.94044
626.41207	0.94107
624.35826	0.94058
622.30445	0.93933
620.25064	0.93841
618.19683	0.93811
616.14302	0.93756
614.08921	0.93620
612.03540	0.93571
609.98159	0.93648
607.92778	0.93614
605.87397	0.93430
603.82016	0.93296
601.76635	0.93316
599.71254	0.93404
597.65873	0.93441
595.60492	0.93369
593.55111	0.93254
591.49730	0.93236
589.44349	0.93282
587.38968	0.93244
585.33587	0.93121
583.28206	0.92948
581.22825	0.92680
579.17444	0.92389
577.12063	0.92218
575.06682	0.92144
573.01301	0.92115
570.95920	0.92143
568.90539	0.92112
566.85158	0.91990
564.79777	0.91907
562.74396	0.91896
560.69015	0.91831
558.63634	0.91586
556.58253	0.91287
554.52872	0.91097
552.47491	0.90994
550.42110	0.90933
548.36729	0.90865
546.31348	0.90759
544.25967	0.90712
542.20586	0.90656
540.15205	0.90467
538.09824	0.90349
536.04443	0.90384
533.99062	0.90335
531.93681	0.90192
529.88300	0.90275
527.82919	0.90584
525.77538	0.90759
523.72157	0.90772
521.66776	0.90846
519.61395	0.91080
517.56014	0.91436
515.50633	0.91711
513.45252	0.91820
511.39871	0.91817
509.34490	0.91738
507.29109	0.91706
505.23728	0.91856
503.18347	0.92146
501.12966	0.92423
499.07585	0.92537
497.02204	0.92501
494.96823	0.92455
492.91442	0.92395
490.86061	0.92214
488.80680	0.92036
486.75299	0.91856
484.69918	0.91409
482.64537	0.90948
480.59156	0.90797
478.53775	0.90575
476.48394	0.89977
474.43013	0.89239
472.37632	0.88813
470.32251	0.88851
468.26870	0.88838
466.21489	0.88640
464.16108	0.88614
462.10727	0.88598
460.05346	0.88434
457.99965	0.88514
455.94584	0.88929
453.89203	0.89300
451.83822	0.89594
449.78441	0.89893
447.73060	0.90156
445.67679	0.90264
443.62298	0.90202
441.56916	0.90358
439.51535	0.90653
437.46154	0.90508
435.40773	0.90081
433.35392	0.89974
431.30011	0.90138
429.24630	0.90255
427.19249	0.90546
425.13868	0.91018
423.08487	0.91073
421.03106	0.90931
418.97725	0.91162
416.92344	0.91258
414.86963	0.91265
412.81582	0.91663
410.76201	0.92113
408.70820	0.92241
406.65439	0.92437
404.60058	0.92989
402.54677	0.93361
400.49296	0.93190
398.43915	0.92985
