3996.70104	0.98689
3994.64724	0.98666
3992.59344	0.98665
3990.53964	0.98640
3988.48583	0.98591
3986.43203	0.98530
3984.37823	0.98492
3982.32442	0.98552
3980.27062	0.98679
3978.21682	0.98751
3976.16301	0.98732
3974.10921	0.98679
3972.05541	0.98634
3970.00160	0.98639
3967.94780	0.98698
3965.89400	0.98720
3963.84019	0.98739
3961.78639	0.98803
3959.73259	0.98801
3957.67878	0.98726
3955.62498	0.98711
3953.57118	0.98765
3951.51737	0.98790
3949.46357	0.98757
3947.40977	0.98716
3945.35596	0.98730
3943.30216	0.98782
3941.24836	0.98778
3939.19455	0.98726
3937.14075	0.98699
3935.08695	0.98690
3933.03315	0.98655
3930.97934	0.98606
3928.92554	0.98591
3926.87174	0.98605
3924.81793	0.98627
3922.76413	0.98659
3920.71033	0.98678
3918.65652	0.98677
3916.60272	0.98708
3914.54892	0.98741
3912.49511	0.98713
3910.44131	0.98663
3908.38751	0.98644
3906.33370	0.98642
3904.27990	0.98623
3902.22610	0.98610
3900.17229	0.98666
3898.11849	0.98746
3896.06469	0.98739
3894.01088	0.98671
3891.95708	0.98664
3889.90328	0.98716
3887.84947	0.98723
3885.79567	0.98684
3883.74187	0.98640
3881.68807	0.98633
3879.63426	0.98673
3877.58046	0.98719
3875.52666	0.98724
3873.47285	0.98702
3871.41905	0.98680
3869.36525	0.98637
3867.31144	0.98629
3865.25764	0.98684
3863.20384	0.98753
3861.15003	0.98769
3859.09623	0.98742
3857.04243	0.98718
3854.98862	0.98688
3852.93482	0.98613
3850.88102	0.98568
3848.82721	0.98584
3846.77341	0.98638
3844.71961	0.98680
3842.66580	0.98678
3840.61200	0.98688
3838.55820	0.98736
3836.50439	0.98767
3834.45059	0.98776
3832.39679	0.98773
3830.34298	0.98753
3828.28918	0.98703
3826.23538	0.98657
3824.18158	0.98691
3822.12777	0.98784
3820.07397	0.98822
3818.02017	0.98782
3815.96636	0.98788
3813.91256	0.98844
3811.85876	0.98846
3809.80495	0.98796
3807.75115	0.98724
3805.69735	0.98687
3803.64354	0.98710
3801.58974	0.98769
3799.53594	0.98828
3797.48213	0.98828
3795.42833	0.98752
3793.37453	0.98673
3791.32072	0.98653
3789.26692	0.98687
3787.21312	0.98740
3785.15931	0.98767
3783.10551	0.98764
3781.05171	0.98768
3778.99790	0.98772
3776.94410	0.98751
3774.89030	0.98704
3772.83650	0.98645
3770.78269	0.98604
3768.72889	0.98623
3766.67509	0.98690
3764.62128	0.98753
3762.56748	0.98759
3760.51368	0.98696
3758.45987	0.98621
3756.40607	0.98609
3754.35227	0.98660
3752.29846	0.98804
3750.24466	0.98996
3748.19086	0.99042
3746.13705	0.98974
3744.08325	0.98896
3742.02945	0.98919
3739.97564	0.98986
3737.92184	0.99005
3735.86804	0.98902
3733.81423	0.98756
3731.76043	0.98706
3729.70663	0.98717
3727.65282	0.98733
3725.59902	0.98695
3723.54522	0.98633
3721.49141	0.98579
3719.43761	0.98469
3717.38381	0.98322
3715.33001	0.98193
3713.27620	0.98086
3711.22240	0.97949
3709.16860	0.97753
3707.11479	0.97565
3705.06099	0.97364
3703.00719	0.97113
3700.95338	0.96883
3698.89958	0.96732
3696.84578	0.96641
3694.79197	0.96618
3692.73817	0.96657
3690.68437	0.96722
3688.63056	0.96836
3686.57676	0.97030
3684.52296	0.97175
3682.46915	0.97202
3680.41535	0.97159
3678.36155	0.97168
3676.30774	0.97239
3674.25394	0.97218
3672.20014	0.97175
3670.14633	0.97184
3668.09253	0.97180
3666.03873	0.97126
3663.98492	0.97051
3661.93112	0.96993
3659.87732	0.96922
3657.82352	0.96807
3655.76971	0.96728
3653.71591	0.96718
3651.66211	0.96691
3649.60830	0.96645
3647.55450	0.96639
3645.50070	0.96627
3643.44689	0.96557
3641.39309	0.96499
3639.33929	0.96504
3637.28548	0.96474
3635.23168	0.96332
3633.17788	0.96196
3631.12407	0.96190
3629.07027	0.96171
3627.01647	0.96029
3624.96266	0.95938
3622.90886	0.95920
3620.85506	0.95949
3618.80125	0.95993
3616.74745	0.95993
3614.69365	0.95955
3612.63984	0.95934
3610.58604	0.95966
3608.53224	0.96043
3606.47844	0.96071
3604.42463	0.96032
3602.37083	0.96007
3600.31703	0.96004
3598.26322	0.95979
3596.20942	0.95947
3594.15562	0.95967
3592.10181	0.96021
3590.04801	0.96041
3587.99421	0.96050
3585.94040	0.96047
3583.88660	0.95997
3581.83280	0.95980
3579.77899	0.96001
3577.72519	0.95968
3575.67139	0.95909
3573.61758	0.95903
3571.56378	0.95922
3569.50998	0.95940
3567.45617	0.95936
3565.40237	0.95810
3563.34857	0.95672
3561.29476	0.95654
3559.24096	0.95671
3557.18716	0.95646
3555.13335	0.95624
3553.07955	0.95583
3551.02575	0.95483
3548.97195	0.95395
3546.91814	0.95352
3544.86434	0.95331
3542.81054	0.95338
3540.75673	0.95326
3538.70293	0.95272
3536.64913	0.95265
3534.59532	0.95302
3532.54152	0.95277
3530.48772	0.95186
3528.43391	0.95087
3526.38011	0.95024
3524.32631	0.95011
3522.27250	0.95004
3520.21870	0.94971
3518.16490	0.94938
3516.11109	0.94919
3514.05729	0.94915
3512.00349	0.94911
3509.94968	0.94877
3507.89588	0.94831
3505.84208	0.94831
3503.78827	0.94863
3501.73447	0.94828
3499.68067	0.94734
3497.62687	0.94653
3495.57306	0.94610
3493.51926	0.94604
3491.46546	0.94588
3489.41165	0.94546
3487.35785	0.94489
3485.30405	0.94423
3483.25024	0.94397
3481.19644	0.94419
3479.14264	0.94449
3477.08883	0.94472
3475.03503	0.94447
3472.98123	0.94403
3470.92742	0.94379
3468.87362	0.94336
3466.81982	0.94266
3464.76601	0.94194
3462.71221	0.94144
3460.65841	0.94112
3458.60460	0.94066
3456.55080	0.94027
3454.49700	0.94030
3452.44319	0.94055
3450.38939	0.94064
3448.33559	0.94032
3446.28178	0.93973
3444.22798	0.93919
3442.17418	0.93882
3440.12038	0.93871
3438.06657	0.93842
3436.01277	0.93767
3433.95897	0.93696
3431.90516	0.93658
3429.85136	0.93648
3427.79756	0.93647
3425.74375	0.93599
3423.68995	0.93504
3421.63615	0.93463
3419.58234	0.93505
3417.52854	0.93546
3415.47474	0.93543
3413.42093	0.93501
3411.36713	0.93440
3409.31333	0.93383
3407.25952	0.93358
3405.20572	0.93358
3403.15192	0.93333
3401.09811	0.93291
3399.04431	0.93278
3396.99051	0.93285
3394.93670	0.93293
3392.88290	0.93272
3390.82910	0.93222
3388.77529	0.93193
3386.72149	0.93172
3384.66769	0.93148
3382.61389	0.93164
3380.56008	0.93190
3378.50628	0.93189
3376.45248	0.93187
3374.39867	0.93193
3372.34487	0.93159
3370.29107	0.93096
3368.23726	0.93074
3366.18346	0.93094
3364.12966	0.93105
3362.07585	0.93102
3360.02205	0.93140
3357.96825	0.93175
3355.91444	0.93138
3353.86064	0.93113
3351.80684	0.93149
3349.75303	0.93203
3347.69923	0.93240
3345.64543	0.93256
3343.59162	0.93283
3341.53782	0.93294
3339.48402	0.93256
3337.43021	0.93239
3335.37641	0.93295
3333.32261	0.93387
3331.26881	0.93457
3329.21500	0.93459
3327.16120	0.93416
3325.10740	0.93396
3323.05359	0.93412
3320.99979	0.93418
3318.94599	0.93429
3316.89218	0.93494
3314.83838	0.93535
3312.78458	0.93531
3310.73077	0.93569
3308.67697	0.93605
3306.62317	0.93596
3304.56936	0.93605
3302.51556	0.93633
3300.46176	0.93666
3298.40795	0.93705
3296.35415	0.93701
3294.30035	0.93682
3292.24654	0.93691
3290.19274	0.93712
3288.13894	0.93726
3286.08513	0.93714
3284.03133	0.93710
3281.97753	0.93737
3279.92372	0.93759
3277.86992	0.93749
3275.81612	0.93731
3273.76232	0.93745
3271.70851	0.93778
3269.65471	0.93794
3267.60091	0.93807
3265.54710	0.93827
3263.49330	0.93827
3261.43950	0.93821
3259.38569	0.93850
3257.33189	0.93915
3255.27809	0.94006
3253.22428	0.94103
3251.17048	0.94145
3249.11668	0.94124
3247.06287	0.94116
3245.00907	0.94104
3242.95527	0.94065
3240.90146	0.94067
3238.84766	0.94106
3236.79386	0.94129
3234.74005	0.94176
3232.68625	0.94268
3230.63245	0.94340
3228.57864	0.94353
3226.52484	0.94348
3224.47104	0.94396
3222.41724	0.94449
3220.36343	0.94434
3218.30963	0.94402
3216.25583	0.94389
3214.20202	0.94393
3212.14822	0.94443
3210.09442	0.94536
3208.04061	0.94619
3205.98681	0.94647
3203.93301	0.94634
3201.87920	0.94637
3199.82540	0.94684
3197.77160	0.94741
3195.71779	0.94784
3193.66399	0.94832
3191.61019	0.94869
3189.55638	0.94881
3187.50258	0.94915
3185.44878	0.94949
3183.39497	0.94949
3181.34117	0.94978
3179.28737	0.95039
3177.23356	0.95086
3175.17976	0.95126
3173.12596	0.95165
3171.07215	0.95233
3169.01835	0.95321
3166.96455	0.95387
3164.91075	0.95437
3162.85694	0.95457
3160.80314	0.95471
3158.74934	0.95501
3156.69553	0.95514
3154.64173	0.95509
3152.58793	0.95492
3150.53412	0.95506
3148.48032	0.95592
3146.42652	0.95683
3144.37271	0.95713
3142.31891	0.95738
3140.26511	0.95790
3138.21130	0.95826
3136.15750	0.95854
3134.10370	0.95871
3132.04989	0.95863
3129.99609	0.95873
3127.94229	0.95922
3125.88848	0.95988
3123.83468	0.96066
3121.78088	0.96135
3119.72707	0.96175
3117.67327	0.96207
3115.61947	0.96254
3113.56566	0.96301
3111.51186	0.96331
3109.45806	0.96345
3107.40426	0.96323
3105.35045	0.96268
3103.29665	0.96237
3101.24285	0.96264
3099.18904	0.96312
3097.13524	0.96346
3095.08144	0.96405
3093.02763	0.96510
3090.97383	0.96583
3088.92003	0.96607
3086.86622	0.96641
3084.81242	0.96679
3082.75862	0.96668
3080.70481	0.96603
3078.65101	0.96591
3076.59721	0.96651
3074.54340	0.96697
3072.48960	0.96752
3070.43580	0.96814
3068.38199	0.96819
3066.32819	0.96817
3064.27439	0.96837
3062.22058	0.96826
3060.16678	0.96817
3058.11298	0.96853
3056.05918	0.96877
3054.00537	0.96854
3051.95157	0.96830
3049.89777	0.96843
3047.84396	0.96904
3045.79016	0.96985
3043.73636	0.97031
3041.68255	0.97035
3039.62875	0.97053
3037.57495	0.97111
3035.52114	0.97156
3033.46734	0.97140
3031.41354	0.97114
3029.35973	0.97143
3027.30593	0.97177
3025.25213	0.97172
3023.19832	0.97151
3021.14452	0.97139
3019.09072	0.97135
3017.03691	0.97123
3014.98311	0.97114
3012.92931	0.97111
3010.87550	0.97110
3008.82170	0.97101
3006.76790	0.97082
3004.71409	0.97065
3002.66029	0.97039
3000.60649	0.97002
2998.55269	0.96946
2996.49888	0.96845
2994.44508	0.96733
2992.39128	0.96632
2990.33747	0.96505
2988.28367	0.96341
2986.22987	0.96137
2984.17606	0.95907
2982.12226	0.95621
2980.06846	0.95216
2978.01465	0.94717
2975.96085	0.94113
2973.90705	0.93309
2971.85324	0.92261
2969.79944	0.90979
2967.74564	0.89486
2965.69183	0.87832
2963.63803	0.86168
2961.58423	0.84734
2959.53042	0.83642
2957.47662	0.82672
2955.42282	0.81509
2953.36901	0.80135
2951.31521	0.78899
2949.26141	0.78399
2947.20761	0.79162
2945.15380	0.81084
2943.10000	0.83387
2941.04620	0.85221
2938.99239	0.86152
2936.93859	0.86132
2934.88479	0.85291
2932.83098	0.83860
2930.77718	0.82057
2928.72338	0.80038
2926.66957	0.77999
2924.61577	0.76095
2922.56197	0.74301
2920.50816	0.72638
2918.45436	0.71430
2916.40056	0.71162
2914.34675	0.72032
2912.29295	0.73662
2910.23915	0.75466
2908.18534	0.77165
2906.13154	0.78753
2904.07774	0.80267
2902.02393	0.81703
2899.97013	0.83035
2897.91633	0.84246
2895.86252	0.85292
2893.80872	0.86061
2891.75492	0.86482
2889.70112	0.86619
2887.64731	0.86557
2885.59351	0.86326
2883.53971	0.85904
2881.48590	0.85282
2879.43210	0.84586
2877.37830	0.84074
2875.32449	0.83933
2873.27069	0.84017
2871.21689	0.83978
2869.16308	0.83728
2867.10928	0.83599
2865.05548	0.84134
2863.00167	0.85613
2860.94787	0.87624
2858.89407	0.89403
2856.84026	0.90533
2854.78646	0.91039
2852.73266	0.91105
2850.67885	0.90917
2848.62505	0.90537
2846.57125	0.89865
2844.51744	0.88818
2842.46364	0.87450
2840.40984	0.86043
2838.35603	0.85117
2836.30223	0.85242
2834.24843	0.86581
2832.19463	0.88633
2830.14082	0.90645
2828.08702	0.92198
2826.03322	0.93264
2823.97941	0.93978
2821.92561	0.94480
2819.87181	0.94847
2817.81800	0.95113
2815.76420	0.95322
2813.71040	0.95523
2811.65659	0.95717
2809.60279	0.95868
2807.54899	0.95991
2805.49518	0.96153
2803.44138	0.96355
2801.38758	0.96506
2799.33377	0.96587
2797.27997	0.96653
2795.22617	0.96725
2793.17236	0.96812
2791.11856	0.96923
2789.06476	0.97020
2787.01095	0.97097
2784.95715	0.97182
2782.90335	0.97241
2780.84955	0.97267
2778.79574	0.97306
2776.74194	0.97370
2774.68814	0.97421
2772.63433	0.97445
2770.58053	0.97463
2768.52673	0.97490
2766.47292	0.97513
2764.41912	0.97522
2762.36532	0.97561
2760.31151	0.97629
2758.25771	0.97661
2756.20391	0.97646
2754.15010	0.97630
2752.09630	0.97637
2750.04250	0.97657
2747.98869	0.97666
2745.93489	0.97657
2743.88109	0.97646
2741.82728	0.97630
2739.77348	0.97584
2737.71968	0.97537
2735.66587	0.97534
2733.61207	0.97524
2731.55827	0.97460
2729.50446	0.97385
2727.45066	0.97327
2725.39686	0.97279
2723.34306	0.97235
2721.28925	0.97226
2719.23545	0.97311
2717.18165	0.97432
2715.12784	0.97504
2713.07404	0.97554
2711.02024	0.97612
2708.96643	0.97653
2706.91263	0.97675
2704.85883	0.97701
2702.80502	0.97737
2700.75122	0.97748
2698.69742	0.97757
2696.64361	0.97804
2694.58981	0.97837
2692.53601	0.97818
2690.48220	0.97812
2688.42840	0.97865
2686.37460	0.97923
2684.32079	0.97929
2682.26699	0.97910
2680.21319	0.97880
2678.15938	0.97841
2676.10558	0.97836
2674.05178	0.97860
2671.99797	0.97893
2669.94417	0.97932
2667.89037	0.97940
2665.83657	0.97905
2663.78276	0.97863
2661.72896	0.97838
2659.67516	0.97848
2657.62135	0.97869
2655.56755	0.97857
2653.51375	0.97857
2651.45994	0.97909
2649.40614	0.97949
2647.35234	0.97951
2645.29853	0.97952
2643.24473	0.97965
2641.19093	0.97976
2639.13712	0.97980
2637.08332	0.97992
2635.02952	0.97993
2632.97571	0.97962
2630.92191	0.97921
2628.86811	0.97900
2626.81430	0.97906
2624.76050	0.97934
2622.70670	0.97962
2620.65289	0.97961
2618.59909	0.97967
2616.54529	0.98021
2614.49149	0.98058
2612.43768	0.98021
2610.38388	0.97960
2608.33008	0.97963
2606.27627	0.98036
2604.22247	0.98124
2602.16867	0.98181
2600.11486	0.98173
2598.06106	0.98106
2596.00726	0.98052
2593.95345	0.98058
2591.89965	0.98091
2589.84585	0.98080
2587.79204	0.98046
2585.73824	0.98034
2583.68444	0.98006
2581.63063	0.97986
2579.57683	0.98037
2577.52303	0.98087
2575.46922	0.98106
2573.41542	0.98181
2571.36162	0.98281
2569.30781	0.98305
2567.25401	0.98290
2565.20021	0.98304
2563.14640	0.98305
2561.09260	0.98291
2559.03880	0.98276
2556.98500	0.98263
2554.93119	0.98282
2552.87739	0.98319
2550.82359	0.98348
2548.76978	0.98375
2546.71598	0.98400
2544.66218	0.98392
2542.60837	0.98368
2540.55457	0.98392
2538.50077	0.98458
2536.44696	0.98487
2534.39316	0.98443
2532.33936	0.98403
2530.28555	0.98382
2528.23175	0.98329
2526.17795	0.98302
2524.12414	0.98340
2522.07034	0.98387
2520.01654	0.98414
2517.96273	0.98430
2515.90893	0.98455
2513.85513	0.98488
2511.80132	0.98509
2509.74752	0.98513
2507.69372	0.98535
2505.63992	0.98595
2503.58611	0.98605
2501.53231	0.98503
2499.47851	0.98382
2497.42470	0.98356
2495.37090	0.98406
2493.31710	0.98436
2491.26329	0.98466
2489.20949	0.98530
2487.15569	0.98559
2485.10188	0.98560
2483.04808	0.98579
2480.99428	0.98595
2478.94047	0.98592
2476.88667	0.98580
2474.83287	0.98571
2472.77906	0.98558
2470.72526	0.98527
2468.67146	0.98501
2466.61765	0.98538
2464.56385	0.98580
2462.51005	0.98566
2460.45624	0.98553
2458.40244	0.98550
2456.34864	0.98537
2454.29483	0.98533
2452.24103	0.98561
2450.18723	0.98574
2448.13343	0.98526
2446.07962	0.98471
2444.02582	0.98487
2441.97202	0.98547
2439.91821	0.98575
2437.86441	0.98583
2435.81061	0.98583
2433.75680	0.98555
2431.70300	0.98518
2429.64920	0.98504
2427.59539	0.98507
2425.54159	0.98508
2423.48779	0.98506
2421.43398	0.98495
2419.38018	0.98476
2417.32638	0.98482
2415.27257	0.98515
2413.21877	0.98495
2411.16497	0.98456
2409.11116	0.98506
2407.05736	0.98597
2405.00356	0.98636
2402.94975	0.98618
2400.89595	0.98581
2398.84215	0.98553
2396.78834	0.98529
2394.73454	0.98521
2392.68074	0.98543
2390.62694	0.98574
2388.57313	0.98577
2386.51933	0.98550
2384.46553	0.98520
2382.41172	0.98508
2380.35792	0.98531
2378.30412	0.98579
2376.25031	0.98601
2374.19651	0.98559
2372.14271	0.98511
2370.08890	0.98514
2368.03510	0.98547
2365.98130	0.98605
2363.92749	0.98628
2361.87369	0.98584
2359.81989	0.98551
2357.76608	0.98558
2355.71228	0.98612
2353.65848	0.98636
2351.60467	0.98580
2349.55087	0.98516
2347.49707	0.98473
2345.44326	0.98450
2343.38946	0.98461
2341.33566	0.98492
2339.28186	0.98519
2337.22805	0.98574
2335.17425	0.98628
2333.12045	0.98612
2331.06664	0.98564
2329.01284	0.98521
2326.95904	0.98454
2324.90523	0.98340
2322.85143	0.98273
2320.79763	0.98359
2318.74382	0.98486
2316.69002	0.98545
2314.63622	0.98542
2312.58241	0.98487
2310.52861	0.98458
2308.47481	0.98454
2306.42100	0.98407
2304.36720	0.98383
2302.31340	0.98408
2300.25959	0.98412
2298.20579	0.98397
2296.15199	0.98417
2294.09818	0.98422
2292.04438	0.98358
2289.99058	0.98368
2287.93677	0.98495
2285.88297	0.98592
2283.82917	0.98613
2281.77537	0.98585
2279.72156	0.98522
2277.66776	0.98498
2275.61396	0.98561
2273.56015	0.98642
2271.50635	0.98640
2269.45255	0.98545
2267.39874	0.98466
2265.34494	0.98437
2263.29114	0.98453
2261.23733	0.98564
2259.18353	0.98619
2257.12973	0.98551
2255.07592	0.98517
2253.02212	0.98521
2250.96832	0.98499
2248.91451	0.98520
2246.86071	0.98613
2244.80691	0.98691
2242.75310	0.98727
2240.69930	0.98715
2238.64550	0.98713
2236.59169	0.98738
2234.53789	0.98712
2232.48409	0.98713
2230.43029	0.98805
2228.37648	0.98909
2226.32268	0.98904
2224.26888	0.98735
2222.21507	0.98514
2220.16127	0.98474
2218.10747	0.98590
2216.05366	0.98514
2213.99986	0.98392
2211.94606	0.98553
2209.89225	0.98705
2207.83845	0.98769
2205.78465	0.98932
2203.73084	0.98899
2201.67704	0.98536
2199.62324	0.98331
2197.56943	0.98602
2195.51563	0.99040
2193.46183	0.99175
2191.40802	0.98997
2189.35422	0.98878
2187.30042	0.98810
2185.24661	0.98671
2183.19281	0.98736
2181.13901	0.98981
2179.08520	0.99051
2177.03140	0.99004
2174.97760	0.98985
2172.92380	0.98923
2170.86999	0.98864
2168.81619	0.98829
2166.76239	0.98751
2164.70858	0.98658
2162.65478	0.98520
2160.60098	0.98352
2158.54717	0.98571
2156.49337	0.99085
2154.43957	0.99322
2152.38576	0.99314
2150.33196	0.99179
2148.27816	0.99065
2146.22435	0.99091
2144.17055	0.99189
2142.11675	0.99317
2140.06294	0.99358
2138.00914	0.99216
2135.95534	0.99044
2133.90153	0.99001
2131.84773	0.98999
2129.79393	0.99015
2127.74012	0.99035
2125.68632	0.98934
2123.63252	0.98755
2121.57871	0.98666
2119.52491	0.98710
2117.47111	0.98791
2115.41731	0.98821
2113.36350	0.98810
2111.30970	0.98797
2109.25590	0.98778
2107.20209	0.98754
2105.14829	0.98711
2103.09449	0.98628
2101.04068	0.98558
2098.98688	0.98540
2096.93308	0.98641
2094.87927	0.98886
2092.82547	0.99083
2090.77167	0.99083
2088.71786	0.98954
2086.66406	0.98888
2084.61026	0.98986
2082.55645	0.99041
2080.50265	0.98874
2078.44885	0.98698
2076.39504	0.98664
2074.34124	0.98701
2072.28744	0.98804
2070.23363	0.98863
2068.17983	0.98839
2066.12603	0.98866
2064.07223	0.98893
2062.01842	0.98812
2059.96462	0.98654
2057.91082	0.98555
2055.85701	0.98514
2053.80321	0.98557
2051.74941	0.98734
2049.69560	0.98763
2047.64180	0.98579
2045.58800	0.98503
2043.53419	0.98617
2041.48039	0.98627
2039.42659	0.98508
2037.37278	0.98638
2035.31898	0.98973
2033.26518	0.99193
2031.21137	0.99297
2029.15757	0.99334
2027.10377	0.99136
2025.04996	0.98723
2022.99616	0.98564
2020.94236	0.98842
2018.88855	0.99124
2016.83475	0.99197
2014.78095	0.99174
2012.72714	0.99079
2010.67334	0.98977
2008.61954	0.98922
2006.56574	0.98861
2004.51193	0.98780
2002.45813	0.98735
2000.40433	0.98844
1998.35052	0.99032
1996.29672	0.99010
1994.24292	0.98901
1992.18911	0.98826
1990.13531	0.98668
1988.08151	0.98693
1986.02770	0.98895
1983.97390	0.98859
1981.92010	0.98560
1979.86629	0.98400
1977.81249	0.98586
1975.75869	0.98944
1973.70488	0.99292
1971.65108	0.99479
1969.59728	0.99401
1967.54347	0.99271
1965.48967	0.99296
1963.43587	0.99263
1961.38206	0.99127
1959.32826	0.98991
1957.27446	0.98946
1955.22066	0.99040
1953.16685	0.99079
1951.11305	0.99014
1949.05925	0.99002
1947.00544	0.99078
1944.95164	0.99113
1942.89784	0.98975
1940.84403	0.98794
1938.79023	0.98772
1936.73643	0.98858
1934.68262	0.98907
1932.62882	0.98875
1930.57502	0.98848
1928.52121	0.98883
1926.46741	0.98921
1924.41361	0.98928
1922.35980	0.98930
1920.30600	0.98904
1918.25220	0.98825
1916.19839	0.98758
1914.14459	0.98761
1912.09079	0.98762
1910.03698	0.98709
1907.98318	0.98719
1905.92938	0.98871
1903.87557	0.98975
1901.82177	0.98885
1899.76797	0.98719
1897.71417	0.98640
1895.66036	0.98647
1893.60656	0.98701
1891.55276	0.98765
1889.49895	0.98754
1887.44515	0.98715
1885.39135	0.98731
1883.33754	0.98727
1881.28374	0.98694
1879.22994	0.98702
1877.17613	0.98706
1875.12233	0.98707
1873.06853	0.98731
1871.01472	0.98731
1868.96092	0.98726
1866.90712	0.98741
1864.85331	0.98708
1862.79951	0.98637
1860.74571	0.98622
1858.69190	0.98673
1856.63810	0.98703
1854.58430	0.98711
1852.53049	0.98734
1850.47669	0.98734
1848.42289	0.98690
1846.36908	0.98609
1844.31528	0.98559
1842.26148	0.98627
1840.20768	0.98682
1838.15387	0.98687
1836.10007	0.98702
1834.04627	0.98686
1831.99246	0.98632
1829.93866	0.98603
1827.88486	0.98628
1825.83105	0.98661
1823.77725	0.98651
1821.72345	0.98644
1819.66964	0.98677
1817.61584	0.98688
1815.56204	0.98655
1813.50823	0.98619
1811.45443	0.98591
1809.40063	0.98577
1807.34682	0.98579
1805.29302	0.98606
1803.23922	0.98633
1801.18541	0.98586
1799.13161	0.98505
1797.07781	0.98452
1795.02400	0.98397
1792.97020	0.98343
1790.91640	0.98292
1788.86260	0.98240
1786.80879	0.98187
1784.75499	0.98102
1782.70119	0.97999
1780.64738	0.97911
1778.59358	0.97832
1776.53978	0.97781
1774.48597	0.97764
1772.43217	0.97778
1770.37837	0.97800
1768.32456	0.97787
1766.27076	0.97741
1764.21696	0.97678
1762.16315	0.97619
1760.10935	0.97583
1758.05555	0.97541
1756.00174	0.97495
1753.94794	0.97471
1751.89414	0.97437
1749.84033	0.97356
1747.78653	0.97256
1745.73273	0.97177
1743.67892	0.97093
1741.62512	0.96977
1739.57132	0.96885
1737.51751	0.96860
1735.46371	0.96818
1733.40991	0.96734
1731.35611	0.96686
1729.30230	0.96623
1727.24850	0.96524
1725.19470	0.96425
1723.14089	0.96336
1721.08709	0.96260
1719.03329	0.96177
1716.97948	0.96051
1714.92568	0.95924
1712.87188	0.95845
1710.81807	0.95788
1708.76427	0.95746
1706.71047	0.95742
1704.65666	0.95810
1702.60286	0.95891
1700.54906	0.95938
1698.49525	0.95946
1696.44145	0.95926
1694.38765	0.95915
1692.33384	0.95920
1690.28004	0.95902
1688.22624	0.95846
1686.17243	0.95778
1684.11863	0.95672
1682.06483	0.95560
1680.01103	0.95491
1677.95722	0.95432
1675.90342	0.95353
1673.84962	0.95255
1671.79581	0.95181
1669.74201	0.95085
1667.68821	0.94948
1665.63440	0.94837
1663.58060	0.94746
1661.52680	0.94669
1659.47299	0.94616
1657.41919	0.94558
1655.36539	0.94435
1653.31158	0.94200
1651.25778	0.94103
1649.20398	0.94099
1647.15017	0.94028
1645.09637	0.93978
1643.04257	0.94003
1640.98876	0.94055
1638.93496	0.94144
1636.88116	0.94266
1634.82735	0.94381
1632.77355	0.94426
1630.71975	0.94447
1628.66594	0.94514
1626.61214	0.94620
1624.55834	0.94710
1622.50454	0.94779
1620.45073	0.94846
1618.39693	0.94944
1616.34313	0.95096
1614.28932	0.95225
1612.23552	0.95297
1610.18172	0.95369
1608.12791	0.95474
1606.07411	0.95575
1604.02031	0.95657
1601.96650	0.95743
1599.91270	0.95837
1597.85890	0.95936
1595.80509	0.96035
1593.75129	0.96127
1591.69749	0.96208
1589.64368	0.96278
1587.58988	0.96338
1585.53608	0.96386
1583.48227	0.96434
1581.42847	0.96500
1579.37467	0.96575
1577.32086	0.96645
1575.26706	0.96729
1573.21326	0.96770
1571.15945	0.96738
1569.10565	0.96713
1567.05185	0.96770
1564.99805	0.96826
1562.94424	0.96855
1560.89044	0.96900
1558.83664	0.96967
1556.78283	0.96990
1554.72903	0.96959
1552.67523	0.96894
1550.62142	0.96868
1548.56762	0.96911
1546.51382	0.96972
1544.46001	0.97011
1542.40621	0.96976
1540.35241	0.96922
1538.29860	0.97011
1536.24480	0.97089
1534.19100	0.97112
1532.13719	0.97121
1530.08339	0.97128
1528.02959	0.97132
1525.97578	0.97173
1523.92198	0.97256
1521.86818	0.97308
1519.81437	0.97315
1517.76057	0.97342
1515.70677	0.97372
1513.65297	0.97373
1511.59916	0.97384
1509.54536	0.97441
1507.49156	0.97533
1505.43775	0.97518
1503.38395	0.97475
1501.33015	0.97470
1499.27634	0.97450
1497.22254	0.97405
1495.16874	0.97360
1493.11493	0.97302
1491.06113	0.97223
1489.00733	0.97133
1486.95352	0.96977
1484.89972	0.96766
1482.84592	0.96540
1480.79211	0.96261
1478.73831	0.95916
1476.68451	0.95464
1474.63070	0.94744
1472.57690	0.93480
1470.52310	0.91958
1468.46929	0.90554
1466.41549	0.88873
1464.36169	0.86833
1462.30788	0.85353
1460.25408	0.84630
1458.20028	0.84207
1456.14648	0.83975
1454.09267	0.84006
1452.03887	0.84306
1449.98507	0.85109
1447.93126	0.86728
1445.87746	0.88731
1443.82366	0.90327
1441.76985	0.91370
1439.71605	0.91837
1437.66225	0.91874
1435.60844	0.91967
1433.55464	0.92601
1431.50084	0.93549
1429.44703	0.94384
1427.39323	0.94831
1425.33943	0.95055
1423.28562	0.95234
1421.23182	0.95385
1419.17802	0.95480
1417.12421	0.95506
1415.07041	0.95531
1413.01661	0.95580
1410.96280	0.95635
1408.90900	0.95674
1406.85520	0.95717
1404.80139	0.95765
1402.74759	0.95785
1400.69379	0.95783
1398.63999	0.95783
1396.58618	0.95745
1394.53238	0.95643
1392.47858	0.95486
1390.42477	0.95257
1388.37097	0.94811
1386.31717	0.93863
1384.26336	0.92164
1382.20956	0.89232
1380.15576	0.84548
1378.10195	0.79055
1376.04815	0.75693
1373.99435	0.77114
1371.94054	0.81888
1369.88674	0.86438
1367.83294	0.89529
1365.77913	0.91034
1363.72533	0.91428
1361.67153	0.91185
1359.61772	0.90868
1357.56392	0.91040
1355.51012	0.91842
1353.45631	0.92911
1351.40251	0.93802
1349.34871	0.94424
1347.29491	0.94861
1345.24110	0.95179
1343.18730	0.95411
1341.13350	0.95578
1339.07969	0.95699
1337.02589	0.95773
1334.97209	0.95759
1332.91828	0.95638
1330.86448	0.95507
1328.81068	0.95476
1326.75687	0.95537
1324.70307	0.95651
1322.64927	0.95783
1320.59546	0.95891
1318.54166	0.95944
1316.48786	0.95943
1314.43405	0.95946
1312.38025	0.95980
1310.32645	0.95985
1308.27264	0.95894
1306.21884	0.95727
1304.16504	0.95597
1302.11123	0.95568
1300.05743	0.95578
1298.00363	0.95571
1295.94982	0.95567
1293.89602	0.95608
1291.84222	0.95697
1289.78842	0.95798
1287.73461	0.95861
1285.68081	0.95892
1283.62701	0.95917
1281.57320	0.95910
1279.51940	0.95871
1277.46560	0.95853
1275.41179	0.95865
1273.35799	0.95867
1271.30419	0.95847
1269.25038	0.95823
1267.19658	0.95798
1265.14278	0.95731
1263.08897	0.95592
1261.03517	0.95417
1258.98137	0.95217
1256.92756	0.95005
1254.87376	0.94890
1252.81996	0.94940
1250.76615	0.95078
1248.71235	0.95174
1246.65855	0.95178
1244.60474	0.95148
1242.55094	0.95124
1240.49714	0.95098
1238.44334	0.95067
1236.38953	0.95031
1234.33573	0.94997
1232.28193	0.94969
1230.22812	0.94922
1228.17432	0.94859
1226.12052	0.94779
1224.06671	0.94656
1222.01291	0.94505
1219.95911	0.94383
1217.90530	0.94337
1215.85150	0.94363
1213.79770	0.94403
1211.74389	0.94424
1209.69009	0.94423
1207.63629	0.94411
1205.58248	0.94384
1203.52868	0.94321
1201.47488	0.94245
1199.42107	0.94178
1197.36727	0.94105
1195.31347	0.94042
1193.25966	0.93979
1191.20586	0.93885
1189.15206	0.93769
1187.09825	0.93632
1185.04445	0.93484
1182.99065	0.93334
1180.93685	0.93149
1178.88304	0.92906
1176.82924	0.92615
1174.77544	0.92232
1172.72163	0.91682
1170.66783	0.91037
1168.61403	0.90529
1166.56022	0.90324
1164.50642	0.90368
1162.45262	0.90499
1160.39881	0.90601
1158.34501	0.90600
1156.29121	0.90506
1154.23740	0.90393
1152.18360	0.90314
1150.12980	0.90305
1148.07599	0.90375
1146.02219	0.90487
1143.96839	0.90576
1141.91458	0.90581
1139.86078	0.90513
1137.80698	0.90405
1135.75317	0.90264
1133.69937	0.90077
1131.64557	0.89838
1129.59176	0.89572
1127.53796	0.89310
1125.48416	0.89037
1123.43036	0.88741
1121.37655	0.88431
1119.32275	0.88134
1117.26895	0.87852
1115.21514	0.87568
1113.16134	0.87254
1111.10754	0.86868
1109.05373	0.86452
1106.99993	0.86062
1104.94613	0.85706
1102.89232	0.85410
1100.83852	0.85241
1098.78472	0.85200
1096.73091	0.85193
1094.67711	0.85183
1092.62331	0.85191
1090.56950	0.85221
1088.51570	0.85279
1086.46190	0.85323
1084.40809	0.85298
1082.35429	0.85219
1080.30049	0.85131
1078.24668	0.85075
1076.19288	0.85025
1074.13908	0.84898
1072.08528	0.84738
1070.03147	0.84619
1067.97767	0.84463
1065.92387	0.84236
1063.87006	0.84000
1061.81626	0.83747
1059.76246	0.83479
1057.70865	0.83240
1055.65485	0.82969
1053.60105	0.82626
1051.54724	0.82264
1049.49344	0.81879
1047.43964	0.81487
1045.38583	0.81109
1043.33203	0.80712
1041.27823	0.80345
1039.22442	0.80066
1037.17062	0.79858
1035.11682	0.79723
1033.06301	0.79651
1031.00921	0.79590
1028.95541	0.79585
1026.90160	0.79701
1024.84780	0.79842
1022.79400	0.79929
1020.74019	0.80011
1018.68639	0.80105
1016.63259	0.80186
1014.57879	0.80227
1012.52498	0.80181
1010.47118	0.80079
1008.41738	0.80025
1006.36357	0.80014
1004.30977	0.79944
1002.25597	0.79756
1000.20216	0.79497
998.14836	0.79456
996.09456	0.79959
994.04075	0.80895
991.98695	0.81878
989.93315	0.82691
987.87934	0.83328
985.82554	0.83818
983.77174	0.84187
981.71793	0.84456
979.66413	0.84543
977.61033	0.84363
975.55652	0.84047
973.50272	0.83974
971.44892	0.84484
969.39511	0.85468
967.34131	0.86492
965.28751	0.87266
963.23371	0.87779
961.17990	0.88144
959.12610	0.88462
957.07230	0.88758
955.01849	0.88983
952.96469	0.89139
950.91089	0.89251
948.85708	0.89301
946.80328	0.89302
944.74948	0.89270
942.69567	0.89212
940.64187	0.89169
938.58807	0.89241
936.53426	0.89452
934.48046	0.89675
932.42666	0.89829
930.37285	0.89927
928.31905	0.90015
926.26525	0.90095
924.21144	0.90121
922.15764	0.90072
920.10384	0.89945
918.05003	0.89749
915.99623	0.89564
913.94243	0.89470
911.88862	0.89473
909.83482	0.89559
907.78102	0.89670
905.72722	0.89720
903.67341	0.89617
901.61961	0.89371
899.56581	0.89292
897.51200	0.89667
895.45820	0.90324
893.40440	0.90958
891.35059	0.91470
889.29679	0.91828
887.24299	0.92034
885.18918	0.92161
883.13538	0.92293
881.08158	0.92434
879.02777	0.92470
876.97397	0.92389
874.92017	0.92395
872.86636	0.92533
870.81256	0.92664
868.75876	0.92738
866.70495	0.92792
864.65115	0.92881
862.59735	0.93001
860.54354	0.93103
858.48974	0.93225
856.43594	0.93362
854.38213	0.93401
852.32833	0.93347
850.27453	0.93243
848.22073	0.93040
846.16692	0.92682
844.11312	0.92112
842.05932	0.91549
840.00551	0.91539
837.95171	0.92138
835.89791	0.92740
833.84410	0.93011
831.79030	0.93109
829.73650	0.93150
827.68269	0.93119
825.62889	0.93046
823.57509	0.92981
821.52128	0.92907
819.46748	0.92817
817.41368	0.92693
815.35987	0.92418
813.30607	0.91882
811.25227	0.91222
809.19846	0.90763
807.14466	0.90735
805.09086	0.91076
803.03705	0.91478
800.98325	0.91687
798.92945	0.91722
796.87565	0.91754
794.82184	0.91825
792.76804	0.91865
790.71424	0.91909
788.66043	0.91992
786.60663	0.92011
784.55283	0.91940
782.49902	0.91909
780.44522	0.91950
778.39142	0.91934
776.33761	0.91850
774.28381	0.91804
772.23001	0.91801
770.17620	0.91802
768.12240	0.91742
766.06860	0.91597
764.01479	0.91426
761.96099	0.91273
759.90719	0.91159
757.85338	0.91064
755.79958	0.90926
753.74578	0.90758
751.69197	0.90640
749.63817	0.90578
747.58437	0.90567
745.53056	0.90571
743.47676	0.90516
741.42296	0.90465
739.36916	0.90449
737.31535	0.90426
735.26155	0.90405
733.20775	0.90365
731.15394	0.90277
729.10014	0.90182
727.04634	0.90118
724.99253	0.89992
722.93873	0.89795
720.88493	0.89643
718.83112	0.89540
716.77732	0.89443
714.72352	0.89370
712.66971	0.89261
710.61591	0.89027
708.56211	0.88751
706.50830	0.88470
704.45450	0.88121
702.40070	0.87811
700.34689	0.87604
698.29309	0.87437
696.23929	0.87292
694.18548	0.87155
692.13168	0.86982
690.07788	0.86777
688.02408	0.86651
685.97027	0.86724
683.91647	0.86893
681.86267	0.86922
679.80886	0.86788
677.75506	0.86707
675.70126	0.86742
673.64745	0.86735
671.59365	0.86672
669.53985	0.86654
667.48604	0.86742
665.43224	0.86865
663.37844	0.86961
661.32463	0.87082
659.27083	0.87211
657.21703	0.87244
655.16322	0.87216
653.10942	0.87230
651.05562	0.87269
649.00181	0.87312
646.94801	0.87356
644.89421	0.87353
642.84040	0.87309
640.78660	0.87193
638.73280	0.86982
636.67899	0.86844
634.62519	0.86872
632.57139	0.86953
630.51759	0.86970
628.46378	0.86915
626.40998	0.86880
624.35618	0.86900
622.30237	0.86914
620.24857	0.86900
618.19477	0.86869
616.14096	0.86799
614.08716	0.86692
612.03336	0.86595
609.97955	0.86542
607.92575	0.86545
605.87195	0.86547
603.81814	0.86438
601.76434	0.86312
599.71054	0.86273
597.65673	0.86182
595.60293	0.86102
593.54913	0.86145
591.49532	0.86147
589.44152	0.86049
587.38772	0.85869
585.33391	0.85717
583.28011	0.85776
581.22631	0.85802
579.17250	0.85613
577.11870	0.85468
575.06490	0.85452
573.01110	0.85467
570.95729	0.85490
568.90349	0.85404
566.84969	0.85164
564.79588	0.84911
562.74208	0.84671
560.68828	0.84548
558.63447	0.84560
556.58067	0.84452
554.52687	0.84262
552.47306	0.84117
550.41926	0.83939
548.36546	0.83724
546.31165	0.83512
544.25785	0.83232
542.20405	0.82858
540.15024	0.82597
538.09644	0.82525
536.04264	0.82469
533.98883	0.82305
531.93503	0.82070
529.88123	0.81988
527.82742	0.82155
525.77362	0.82454
523.71982	0.82760
521.66602	0.82924
519.61221	0.82953
517.55841	0.83059
515.50461	0.83291
513.45080	0.83615
511.39700	0.84043
509.34320	0.84444
507.28939	0.84638
505.23559	0.84578
503.18179	0.84539
501.12798	0.84768
499.07418	0.85040
497.02038	0.85174
494.96657	0.85214
492.91277	0.85206
490.85897	0.85213
488.80516	0.85170
486.75136	0.85000
484.69756	0.84776
482.64375	0.84508
480.58995	0.84031
478.53615	0.83329
476.48234	0.82644
474.42854	0.82097
472.37474	0.81680
470.32093	0.81283
468.26713	0.80794
466.21333	0.80434
464.15953	0.80424
462.10572	0.80587
460.05192	0.80629
457.99812	0.80744
455.94431	0.81240
453.89051	0.81801
451.83671	0.82068
449.78290	0.81991
447.72910	0.81833
445.67530	0.81894
443.62149	0.82350
441.56769	0.82773
439.51389	0.82568
437.46008	0.82005
435.40628	0.81643
433.35248	0.81702
431.29867	0.81841
429.24487	0.81937
427.19107	0.82285
425.13726	0.82638
423.08346	0.82652
421.02966	0.82600
418.97585	0.83013
416.92205	0.83640
414.86825	0.83732
412.81445	0.83655
410.76064	0.83824
408.70684	0.84406
406.65304	0.85361
404.59923	0.86204
402.54543	0.86681
400.49163	0.86630
398.43782	0.85575
