3996.70104	0.99239
3994.64724	0.99252
3992.59344	0.99271
3990.53964	0.99305
3988.48583	0.99303
3986.43203	0.99253
3984.37823	0.99222
3982.32442	0.99208
3980.27062	0.99199
3978.21682	0.99237
3976.16301	0.99284
3974.10921	0.99286
3972.05541	0.99270
3970.00160	0.99288
3967.94780	0.99313
3965.89400	0.99298
3963.84019	0.99264
3961.78639	0.99242
3959.73259	0.99223
3957.67878	0.99207
3955.62498	0.99213
3953.57118	0.99242
3951.51737	0.99285
3949.46357	0.99321
3947.40977	0.99339
3945.35596	0.99344
3943.30216	0.99335
3941.24836	0.99282
3939.19455	0.99220
3937.14075	0.99225
3935.08695	0.99269
3933.03315	0.99264
3930.97934	0.99208
3928.92554	0.99194
3926.87174	0.99238
3924.81793	0.99269
3922.76413	0.99269
3920.71033	0.99242
3918.65652	0.99176
3916.60272	0.99175
3914.54892	0.99275
3912.49511	0.99344
3910.44131	0.99327
3908.38751	0.99253
3906.33370	0.99209
3904.27990	0.99257
3902.22610	0.99298
3900.17229	0.99237
3898.11849	0.99197
3896.06469	0.99235
3894.01088	0.99269
3891.95708	0.99282
3889.90328	0.99286
3887.84947	0.99248
3885.79567	0.99222
3883.74187	0.99274
3881.68807	0.99339
3879.63426	0.99354
3877.58046	0.99307
3875.52666	0.99251
3873.47285	0.99204
3871.41905	0.99151
3869.36525	0.99161
3867.31144	0.99239
3865.25764	0.99270
3863.20384	0.99243
3861.15003	0.99227
3859.09623	0.99227
3857.04243	0.99213
3854.98862	0.99147
3852.93482	0.99097
3850.88102	0.99218
3848.82721	0.99316
3846.77341	0.99308
3844.71961	0.99258
3842.66580	0.99212
3840.61200	0.99209
3838.55820	0.99265
3836.50439	0.99287
3834.45059	0.99271
3832.39679	0.99282
3830.34298	0.99299
3828.28918	0.99304
3826.23538	0.99274
3824.18158	0.99225
3822.12777	0.99188
3820.07397	0.99165
3818.02017	0.99224
3815.96636	0.99316
3813.91256	0.99315
3811.85876	0.99249
3809.80495	0.99190
3807.75115	0.99221
3805.69735	0.99355
3803.64354	0.99454
3801.58974	0.99434
3799.53594	0.99341
3797.48213	0.99303
3795.42833	0.99294
3793.37453	0.99259
3791.32072	0.99222
3789.26692	0.99211
3787.21312	0.99217
3785.15931	0.99232
3783.10551	0.99251
3781.05171	0.99280
3778.99790	0.99321
3776.94410	0.99342
3774.89030	0.99320
3772.83650	0.99233
3770.78269	0.99146
3768.72889	0.99176
3766.67509	0.99254
3764.62128	0.99262
3762.56748	0.99235
3760.51368	0.99232
3758.45987	0.99238
3756.40607	0.99245
3754.35227	0.99304
3752.29846	0.99405
3750.24466	0.99463
3748.19086	0.99432
3746.13705	0.99368
3744.08325	0.99375
3742.02945	0.99430
3739.97564	0.99437
3737.92184	0.99398
3735.86804	0.99306
3733.81423	0.99233
3731.76043	0.99253
3729.70663	0.99318
3727.65282	0.99368
3725.59902	0.99377
3723.54522	0.99364
3721.49141	0.99373
3719.43761	0.99348
3717.38381	0.99268
3715.33001	0.99218
3713.27620	0.99211
3711.22240	0.99190
3709.16860	0.99194
3707.11479	0.99287
3705.06099	0.99386
3703.00719	0.99362
3700.95338	0.99223
3698.89958	0.99180
3696.84578	0.99267
3694.79197	0.99306
3692.73817	0.99257
3690.68437	0.99233
3688.63056	0.99235
3686.57676	0.99209
3684.52296	0.99201
3682.46915	0.99207
3680.41535	0.99187
3678.36155	0.99124
3676.30774	0.99047
3674.25394	0.99065
3672.20014	0.99138
3670.14633	0.99111
3668.09253	0.99049
3666.03873	0.99066
3663.98492	0.99075
3661.93112	0.99030
3659.87732	0.98976
3657.82352	0.98961
3655.76971	0.98999
3653.71591	0.99043
3651.66211	0.99076
3649.60830	0.99121
3647.55450	0.99092
3645.50070	0.98974
3643.44689	0.98899
3641.39309	0.98893
3639.33929	0.98899
3637.28548	0.98872
3635.23168	0.98827
3633.17788	0.98783
3631.12407	0.98746
3629.07027	0.98693
3627.01647	0.98618
3624.96266	0.98582
3622.90886	0.98583
3620.85506	0.98572
3618.80125	0.98546
3616.74745	0.98511
3614.69365	0.98461
3612.63984	0.98433
3610.58604	0.98422
3608.53224	0.98415
3606.47844	0.98412
3604.42463	0.98420
3602.37083	0.98442
3600.31703	0.98447
3598.26322	0.98410
3596.20942	0.98338
3594.15562	0.98267
3592.10181	0.98221
3590.04801	0.98184
3587.99421	0.98170
3585.94040	0.98162
3583.88660	0.98134
3581.83280	0.98106
3579.77899	0.98053
3577.72519	0.97948
3575.67139	0.97849
3573.61758	0.97827
3571.56378	0.97878
3569.50998	0.97926
3567.45617	0.97885
3565.40237	0.97795
3563.34857	0.97771
3561.29476	0.97784
3559.24096	0.97771
3557.18716	0.97728
3555.13335	0.97669
3553.07955	0.97584
3551.02575	0.97517
3548.97195	0.97477
3546.91814	0.97396
3544.86434	0.97331
3542.81054	0.97341
3540.75673	0.97376
3538.70293	0.97390
3536.64913	0.97365
3534.59532	0.97293
3532.54152	0.97200
3530.48772	0.97163
3528.43391	0.97186
3526.38011	0.97195
3524.32631	0.97168
3522.27250	0.97133
3520.21870	0.97102
3518.16490	0.97068
3516.11109	0.97011
3514.05729	0.96972
3512.00349	0.96958
3509.94968	0.96893
3507.89588	0.96824
3505.84208	0.96841
3503.78827	0.96869
3501.73447	0.96833
3499.68067	0.96779
3497.62687	0.96750
3495.57306	0.96765
3493.51926	0.96776
3491.46546	0.96694
3489.41165	0.96578
3487.35785	0.96537
3485.30405	0.96537
3483.25024	0.96518
3481.19644	0.96489
3479.14264	0.96463
3477.08883	0.96436
3475.03503	0.96422
3472.98123	0.96413
3470.92742	0.96378
3468.87362	0.96346
3466.81982	0.96334
3464.76601	0.96316
3462.71221	0.96286
3460.65841	0.96263
3458.60460	0.96254
3456.55080	0.96232
3454.49700	0.96203
3452.44319	0.96179
3450.38939	0.96141
3448.33559	0.96081
3446.28178	0.96029
3444.22798	0.96031
3442.17418	0.96052
3440.12038	0.96042
3438.06657	0.96004
3436.01277	0.95963
3433.95897	0.95933
3431.90516	0.95895
3429.85136	0.95820
3427.79756	0.95737
3425.74375	0.95702
3423.68995	0.95718
3421.63615	0.95755
3419.58234	0.95775
3417.52854	0.95776
3415.47474	0.95782
3413.42093	0.95782
3411.36713	0.95780
3409.31333	0.95781
3407.25952	0.95733
3405.20572	0.95648
3403.15192	0.95591
3401.09811	0.95589
3399.04431	0.95600
3396.99051	0.95566
3394.93670	0.95484
3392.88290	0.95413
3390.82910	0.95435
3388.77529	0.95520
3386.72149	0.95554
3384.66769	0.95507
3382.61389	0.95449
3380.56008	0.95447
3378.50628	0.95446
3376.45248	0.95415
3374.39867	0.95402
3372.34487	0.95384
3370.29107	0.95321
3368.23726	0.95265
3366.18346	0.95262
3364.12966	0.95247
3362.07585	0.95219
3360.02205	0.95268
3357.96825	0.95345
3355.91444	0.95338
3353.86064	0.95242
3351.80684	0.95155
3349.75303	0.95125
3347.69923	0.95077
3345.64543	0.95010
3343.59162	0.95003
3341.53782	0.95013
3339.48402	0.94984
3337.43021	0.94949
3335.37641	0.94914
3333.32261	0.94869
3331.26881	0.94838
3329.21500	0.94832
3327.16120	0.94796
3325.10740	0.94719
3323.05359	0.94656
3320.99979	0.94635
3318.94599	0.94647
3316.89218	0.94642
3314.83838	0.94587
3312.78458	0.94523
3310.73077	0.94479
3308.67697	0.94416
3306.62317	0.94331
3304.56936	0.94281
3302.51556	0.94268
3300.46176	0.94234
3298.40795	0.94152
3296.35415	0.94066
3294.30035	0.94047
3292.24654	0.94077
3290.19274	0.94083
3288.13894	0.94028
3286.08513	0.93930
3284.03133	0.93874
3281.97753	0.93881
3279.92372	0.93876
3277.86992	0.93818
3275.81612	0.93734
3273.76232	0.93684
3271.70851	0.93670
3269.65471	0.93685
3267.60091	0.93755
3265.54710	0.93826
3263.49330	0.93849
3261.43950	0.93857
3259.38569	0.93855
3257.33189	0.93838
3255.27809	0.93823
3253.22428	0.93809
3251.17048	0.93800
3249.11668	0.93846
3247.06287	0.93945
3245.00907	0.94036
3242.95527	0.94071
3240.90146	0.94053
3238.84766	0.94052
3236.79386	0.94094
3234.74005	0.94152
3232.68625	0.94225
3230.63245	0.94305
3228.57864	0.94364
3226.52484	0.94368
3224.47104	0.94371
3222.41724	0.94424
3220.36343	0.94449
3218.30963	0.94427
3216.25583	0.94442
3214.20202	0.94488
3212.14822	0.94540
3210.09442	0.94600
3208.04061	0.94632
3205.98681	0.94655
3203.93301	0.94690
3201.87920	0.94719
3199.82540	0.94746
3197.77160	0.94779
3195.71779	0.94836
3193.66399	0.94881
3191.61019	0.94890
3189.55638	0.94911
3187.50258	0.94946
3185.44878	0.94984
3183.39497	0.95064
3181.34117	0.95165
3179.28737	0.95228
3177.23356	0.95256
3175.17976	0.95268
3173.12596	0.95274
3171.07215	0.95319
3169.01835	0.95397
3166.96455	0.95451
3164.91075	0.95505
3162.85694	0.95552
3160.80314	0.95547
3158.74934	0.95582
3156.69553	0.95679
3154.64173	0.95737
3152.58793	0.95752
3150.53412	0.95791
3148.48032	0.95851
3146.42652	0.95889
3144.37271	0.95904
3142.31891	0.95912
3140.26511	0.95887
3138.21130	0.95852
3136.15750	0.95861
3134.10370	0.95925
3132.04989	0.96007
3129.99609	0.96043
3127.94229	0.96070
3125.88848	0.96126
3123.83468	0.96155
3121.78088	0.96125
3119.72707	0.96067
3117.67327	0.96027
3115.61947	0.96002
3113.56566	0.95975
3111.51186	0.95961
3109.45806	0.95987
3107.40426	0.96039
3105.35045	0.96056
3103.29665	0.96025
3101.24285	0.95999
3099.18904	0.95981
3097.13524	0.95963
3095.08144	0.95967
3093.02763	0.95979
3090.97383	0.95973
3088.92003	0.95953
3086.86622	0.95950
3084.81242	0.95989
3082.75862	0.96028
3080.70481	0.96000
3078.65101	0.95953
3076.59721	0.95976
3074.54340	0.96014
3072.48960	0.95993
3070.43580	0.95973
3068.38199	0.96046
3066.32819	0.96133
3064.27439	0.96161
3062.22058	0.96206
3060.16678	0.96265
3058.11298	0.96284
3056.05918	0.96287
3054.00537	0.96281
3051.95157	0.96259
3049.89777	0.96268
3047.84396	0.96335
3045.79016	0.96397
3043.73636	0.96416
3041.68255	0.96451
3039.62875	0.96515
3037.57495	0.96548
3035.52114	0.96556
3033.46734	0.96607
3031.41354	0.96709
3029.35973	0.96791
3027.30593	0.96805
3025.25213	0.96790
3023.19832	0.96805
3021.14452	0.96838
3019.09072	0.96864
3017.03691	0.96879
3014.98311	0.96849
3012.92931	0.96806
3010.87550	0.96805
3008.82170	0.96847
3006.76790	0.96902
3004.71409	0.96949
3002.66029	0.96969
3000.60649	0.96943
2998.55269	0.96916
2996.49888	0.96897
2994.44508	0.96861
2992.39128	0.96835
2990.33747	0.96823
2988.28367	0.96808
2986.22987	0.96761
2984.17606	0.96688
2982.12226	0.96633
2980.06846	0.96593
2978.01465	0.96535
2975.96085	0.96463
2973.90705	0.96393
2971.85324	0.96327
2969.79944	0.96266
2967.74564	0.96205
2965.69183	0.96152
2963.63803	0.96143
2961.58423	0.96167
2959.53042	0.96223
2957.47662	0.96320
2955.42282	0.96383
2953.36901	0.96378
2951.31521	0.96364
2949.26141	0.96362
2947.20761	0.96371
2945.15380	0.96379
2943.10000	0.96353
2941.04620	0.96308
2938.99239	0.96279
2936.93859	0.96246
2934.88479	0.96203
2932.83098	0.96176
2930.77718	0.96155
2928.72338	0.96126
2926.66957	0.96108
2924.61577	0.96126
2922.56197	0.96181
2920.50816	0.96230
2918.45436	0.96255
2916.40056	0.96309
2914.34675	0.96413
2912.29295	0.96499
2910.23915	0.96541
2908.18534	0.96592
2906.13154	0.96662
2904.07774	0.96702
2902.02393	0.96722
2899.97013	0.96768
2897.91633	0.96823
2895.86252	0.96848
2893.80872	0.96862
2891.75492	0.96872
2889.70112	0.96857
2887.64731	0.96815
2885.59351	0.96787
2883.53971	0.96793
2881.48590	0.96780
2879.43210	0.96736
2877.37830	0.96712
2875.32449	0.96723
2873.27069	0.96748
2871.21689	0.96775
2869.16308	0.96804
2867.10928	0.96845
2865.05548	0.96906
2863.00167	0.96987
2860.94787	0.97074
2858.89407	0.97129
2856.84026	0.97134
2854.78646	0.97124
2852.73266	0.97114
2850.67885	0.97117
2848.62505	0.97182
2846.57125	0.97290
2844.51744	0.97386
2842.46364	0.97450
2840.40984	0.97465
2838.35603	0.97478
2836.30223	0.97550
2834.24843	0.97609
2832.19463	0.97605
2830.14082	0.97595
2828.08702	0.97605
2826.03322	0.97630
2823.97941	0.97666
2821.92561	0.97704
2819.87181	0.97731
2817.81800	0.97722
2815.76420	0.97695
2813.71040	0.97694
2811.65659	0.97715
2809.60279	0.97730
2807.54899	0.97720
2805.49518	0.97727
2803.44138	0.97816
2801.38758	0.97919
2799.33377	0.97938
2797.27997	0.97890
2795.22617	0.97837
2793.17236	0.97831
2791.11856	0.97861
2789.06476	0.97877
2787.01095	0.97889
2784.95715	0.97911
2782.90335	0.97924
2780.84955	0.97930
2778.79574	0.97952
2776.74194	0.97987
2774.68814	0.98006
2772.63433	0.98000
2770.58053	0.97996
2768.52673	0.97999
2766.47292	0.98002
2764.41912	0.98037
2762.36532	0.98078
2760.31151	0.98073
2758.25771	0.98055
2756.20391	0.98078
2754.15010	0.98117
2752.09630	0.98132
2750.04250	0.98124
2747.98869	0.98099
2745.93489	0.98085
2743.88109	0.98089
2741.82728	0.98086
2739.77348	0.98092
2737.71968	0.98127
2735.66587	0.98163
2733.61207	0.98188
2731.55827	0.98228
2729.50446	0.98271
2727.45066	0.98272
2725.39686	0.98240
2723.34306	0.98235
2721.28925	0.98258
2719.23545	0.98272
2717.18165	0.98289
2715.12784	0.98323
2713.07404	0.98336
2711.02024	0.98306
2708.96643	0.98284
2706.91263	0.98306
2704.85883	0.98333
2702.80502	0.98316
2700.75122	0.98270
2698.69742	0.98250
2696.64361	0.98259
2694.58981	0.98284
2692.53601	0.98330
2690.48220	0.98362
2688.42840	0.98340
2686.37460	0.98314
2684.32079	0.98324
2682.26699	0.98331
2680.21319	0.98326
2678.15938	0.98334
2676.10558	0.98343
2674.05178	0.98333
2671.99797	0.98322
2669.94417	0.98354
2667.89037	0.98397
2665.83657	0.98388
2663.78276	0.98360
2661.72896	0.98358
2659.67516	0.98363
2657.62135	0.98352
2655.56755	0.98351
2653.51375	0.98369
2651.45994	0.98363
2649.40614	0.98338
2647.35234	0.98324
2645.29853	0.98327
2643.24473	0.98355
2641.19093	0.98409
2639.13712	0.98462
2637.08332	0.98460
2635.02952	0.98408
2632.97571	0.98393
2630.92191	0.98430
2628.86811	0.98471
2626.81430	0.98498
2624.76050	0.98492
2622.70670	0.98451
2620.65289	0.98421
2618.59909	0.98430
2616.54529	0.98452
2614.49149	0.98474
2612.43768	0.98505
2610.38388	0.98510
2608.33008	0.98464
2606.27627	0.98435
2604.22247	0.98457
2602.16867	0.98476
2600.11486	0.98457
2598.06106	0.98425
2596.00726	0.98414
2593.95345	0.98449
2591.89965	0.98517
2589.84585	0.98542
2587.79204	0.98533
2585.73824	0.98544
2583.68444	0.98548
2581.63063	0.98557
2579.57683	0.98575
2577.52303	0.98546
2575.46922	0.98517
2573.41542	0.98569
2571.36162	0.98634
2569.30781	0.98638
2567.25401	0.98638
2565.20021	0.98688
2563.14640	0.98716
2561.09260	0.98688
2559.03880	0.98674
2556.98500	0.98674
2554.93119	0.98645
2552.87739	0.98640
2550.82359	0.98677
2548.76978	0.98689
2546.71598	0.98696
2544.66218	0.98734
2542.60837	0.98795
2540.55457	0.98842
2538.50077	0.98837
2536.44696	0.98773
2534.39316	0.98679
2532.33936	0.98644
2530.28555	0.98704
2528.23175	0.98811
2526.17795	0.98853
2524.12414	0.98766
2522.07034	0.98627
2520.01654	0.98538
2517.96273	0.98552
2515.90893	0.98619
2513.85513	0.98620
2511.80132	0.98590
2509.74752	0.98653
2507.69372	0.98766
2505.63992	0.98827
2503.58611	0.98802
2501.53231	0.98721
2499.47851	0.98679
2497.42470	0.98704
2495.37090	0.98767
2493.31710	0.98802
2491.26329	0.98762
2489.20949	0.98700
2487.15569	0.98689
2485.10188	0.98749
2483.04808	0.98813
2480.99428	0.98806
2478.94047	0.98756
2476.88667	0.98741
2474.83287	0.98796
2472.77906	0.98843
2470.72526	0.98802
2468.67146	0.98750
2466.61765	0.98758
2464.56385	0.98782
2462.51005	0.98788
2460.45624	0.98789
2458.40244	0.98756
2456.34864	0.98698
2454.29483	0.98680
2452.24103	0.98702
2450.18723	0.98704
2448.13343	0.98697
2446.07962	0.98717
2444.02582	0.98744
2441.97202	0.98770
2439.91821	0.98807
2437.86441	0.98827
2435.81061	0.98823
2433.75680	0.98817
2431.70300	0.98811
2429.64920	0.98817
2427.59539	0.98817
2425.54159	0.98775
2423.48779	0.98781
2421.43398	0.98875
2419.38018	0.98945
2417.32638	0.98983
2415.27257	0.99026
2413.21877	0.99026
2411.16497	0.98974
2409.11116	0.98929
2407.05736	0.98930
2405.00356	0.98942
2402.94975	0.98916
2400.89595	0.98871
2398.84215	0.98851
2396.78834	0.98857
2394.73454	0.98878
2392.68074	0.98917
2390.62694	0.98927
2388.57313	0.98889
2386.51933	0.98880
2384.46553	0.98925
2382.41172	0.98977
2380.35792	0.99005
2378.30412	0.98958
2376.25031	0.98855
2374.19651	0.98822
2372.14271	0.98842
2370.08890	0.98837
2368.03510	0.98881
2365.98130	0.98930
2363.92749	0.98822
2361.87369	0.98687
2359.81989	0.98759
2357.76608	0.98930
2355.71228	0.98972
2353.65848	0.98885
2351.60467	0.98825
2349.55087	0.98835
2347.49707	0.98821
2345.44326	0.98764
2343.38946	0.98778
2341.33566	0.98861
2339.28186	0.98872
2337.22805	0.98807
2335.17425	0.98770
2333.12045	0.98750
2331.06664	0.98737
2329.01284	0.98749
2326.95904	0.98738
2324.90523	0.98672
2322.85143	0.98588
2320.79763	0.98595
2318.74382	0.98691
2316.69002	0.98771
2314.63622	0.98803
2312.58241	0.98795
2310.52861	0.98768
2308.47481	0.98786
2306.42100	0.98835
2304.36720	0.98821
2302.31340	0.98799
2300.25959	0.98827
2298.20579	0.98845
2296.15199	0.98832
2294.09818	0.98795
2292.04438	0.98744
2289.99058	0.98699
2287.93677	0.98665
2285.88297	0.98678
2283.82917	0.98728
2281.77537	0.98709
2279.72156	0.98638
2277.66776	0.98649
2275.61396	0.98765
2273.56015	0.98917
2271.50635	0.99029
2269.45255	0.99008
2267.39874	0.98913
2265.34494	0.98874
2263.29114	0.98904
2261.23733	0.98994
2259.18353	0.99101
2257.12973	0.99088
2255.07592	0.98963
2253.02212	0.98906
2250.96832	0.98905
2248.91451	0.98828
2246.86071	0.98707
2244.80691	0.98670
2242.75310	0.98738
2240.69930	0.98837
2238.64550	0.98907
2236.59169	0.98925
2234.53789	0.98887
2232.48409	0.98832
2230.43029	0.98868
2228.37648	0.98925
2226.32268	0.98904
2224.26888	0.98885
2222.21507	0.98895
2220.16127	0.98974
2218.10747	0.99091
2216.05366	0.99135
2213.99986	0.99052
2211.94606	0.98860
2209.89225	0.98708
2207.83845	0.98688
2205.78465	0.98736
2203.73084	0.98894
2201.67704	0.99118
2199.62324	0.99206
2197.56943	0.99085
2195.51563	0.98832
2193.46183	0.98640
2191.40802	0.98646
2189.35422	0.98774
2187.30042	0.98910
2185.24661	0.98977
2183.19281	0.99014
2181.13901	0.99147
2179.08520	0.99199
2177.03140	0.99040
2174.97760	0.98913
2172.92380	0.98966
2170.86999	0.99077
2168.81619	0.99126
2166.76239	0.99122
2164.70858	0.99003
2162.65478	0.98838
2160.60098	0.98871
2158.54717	0.99171
2156.49337	0.99460
2154.43957	0.99394
2152.38576	0.99172
2150.33196	0.99156
2148.27816	0.99323
2146.22435	0.99407
2144.17055	0.99302
2142.11675	0.99138
2140.06294	0.98963
2138.00914	0.98893
2135.95534	0.99082
2133.90153	0.99269
2131.84773	0.99238
2129.79393	0.99163
2127.74012	0.99106
2125.68632	0.99032
2123.63252	0.98984
2121.57871	0.99009
2119.52491	0.99129
2117.47111	0.99220
2115.41731	0.99141
2113.36350	0.98969
2111.30970	0.98921
2109.25590	0.98975
2107.20209	0.98941
2105.14829	0.98915
2103.09449	0.98931
2101.04068	0.98865
2098.98688	0.98806
2096.93308	0.98841
2094.87927	0.98845
2092.82547	0.98776
2090.77167	0.98789
2088.71786	0.98928
2086.66406	0.99031
2084.61026	0.99000
2082.55645	0.98954
2080.50265	0.98945
2078.44885	0.98901
2076.39504	0.98875
2074.34124	0.98856
2072.28744	0.98785
2070.23363	0.98802
2068.17983	0.98931
2066.12603	0.99041
2064.07223	0.99133
2062.01842	0.99184
2059.96462	0.99080
2057.91082	0.98860
2055.85701	0.98715
2053.80321	0.98763
2051.74941	0.98849
2049.69560	0.98865
2047.64180	0.98972
2045.58800	0.99131
2043.53419	0.99158
2041.48039	0.99089
2039.42659	0.99008
2037.37278	0.99006
2035.31898	0.99139
2033.26518	0.99289
2031.21137	0.99294
2029.15757	0.99194
2027.10377	0.99159
2025.04996	0.99084
2022.99616	0.98827
2020.94236	0.98795
2018.88855	0.99129
2016.83475	0.99395
2014.78095	0.99324
2012.72714	0.99019
2010.67334	0.98905
2008.61954	0.99076
2006.56574	0.99330
2004.51193	0.99592
2002.45813	0.99626
2000.40433	0.99385
1998.35052	0.99180
1996.29672	0.99191
1994.24292	0.99253
1992.18911	0.99272
1990.13531	0.99415
1988.08151	0.99538
1986.02770	0.99338
1983.97390	0.99062
1981.92010	0.99063
1979.86629	0.99210
1977.81249	0.99350
1975.75869	0.99509
1973.70488	0.99515
1971.65108	0.99288
1969.59728	0.99173
1967.54347	0.99313
1965.48967	0.99423
1963.43587	0.99461
1961.38206	0.99551
1959.32826	0.99545
1957.27446	0.99353
1955.22066	0.99249
1953.16685	0.99261
1951.11305	0.99147
1949.05925	0.99059
1947.00544	0.99188
1944.95164	0.99352
1942.89784	0.99375
1940.84403	0.99306
1938.79023	0.99266
1936.73643	0.99309
1934.68262	0.99387
1932.62882	0.99376
1930.57502	0.99280
1928.52121	0.99204
1926.46741	0.99194
1924.41361	0.99274
1922.35980	0.99395
1920.30600	0.99397
1918.25220	0.99300
1916.19839	0.99293
1914.14459	0.99326
1912.09079	0.99308
1910.03698	0.99309
1907.98318	0.99288
1905.92938	0.99183
1903.87557	0.99097
1901.82177	0.99109
1899.76797	0.99138
1897.71417	0.99085
1895.66036	0.98991
1893.60656	0.99014
1891.55276	0.99179
1889.49895	0.99290
1887.44515	0.99262
1885.39135	0.99183
1883.33754	0.99130
1881.28374	0.99140
1879.22994	0.99179
1877.17613	0.99240
1875.12233	0.99315
1873.06853	0.99357
1871.01472	0.99369
1868.96092	0.99375
1866.90712	0.99337
1864.85331	0.99294
1862.79951	0.99299
1860.74571	0.99278
1858.69190	0.99231
1856.63810	0.99206
1854.58430	0.99144
1852.53049	0.99098
1850.47669	0.99138
1848.42289	0.99195
1846.36908	0.99218
1844.31528	0.99220
1842.26148	0.99257
1840.20768	0.99296
1838.15387	0.99294
1836.10007	0.99286
1834.04627	0.99305
1831.99246	0.99344
1829.93866	0.99367
1827.88486	0.99332
1825.83105	0.99252
1823.77725	0.99165
1821.72345	0.99124
1819.66964	0.99149
1817.61584	0.99190
1815.56204	0.99195
1813.50823	0.99174
1811.45443	0.99156
1809.40063	0.99151
1807.34682	0.99154
1805.29302	0.99168
1803.23922	0.99211
1801.18541	0.99259
1799.13161	0.99265
1797.07781	0.99248
1795.02400	0.99239
1792.97020	0.99242
1790.91640	0.99230
1788.86260	0.99187
1786.80879	0.99121
1784.75499	0.99057
1782.70119	0.99028
1780.64738	0.99028
1778.59358	0.99035
1776.53978	0.99070
1774.48597	0.99142
1772.43217	0.99147
1770.37837	0.99069
1768.32456	0.99028
1766.27076	0.99018
1764.21696	0.99033
1762.16315	0.99062
1760.10935	0.99037
1758.05555	0.99002
1756.00174	0.98996
1753.94794	0.98978
1751.89414	0.98961
1749.84033	0.98929
1747.78653	0.98841
1745.73273	0.98790
1743.67892	0.98804
1741.62512	0.98784
1739.57132	0.98697
1737.51751	0.98632
1735.46371	0.98598
1733.40991	0.98528
1731.35611	0.98503
1729.30230	0.98524
1727.24850	0.98491
1725.19470	0.98414
1723.14089	0.98343
1721.08709	0.98279
1719.03329	0.98203
1716.97948	0.98078
1714.92568	0.97931
1712.87188	0.97859
1710.81807	0.97834
1708.76427	0.97783
1706.71047	0.97645
1704.65666	0.97463
1702.60286	0.97330
1700.54906	0.97125
1698.49525	0.96794
1696.44145	0.96500
1694.38765	0.96216
1692.33384	0.95964
1690.28004	0.95717
1688.22624	0.95480
1686.17243	0.95277
1684.11863	0.94924
1682.06483	0.94463
1680.01103	0.94130
1677.95722	0.93850
1675.90342	0.93508
1673.84962	0.93141
1671.79581	0.92874
1669.74201	0.92558
1667.68821	0.92170
1665.63440	0.91867
1663.58060	0.91557
1661.52680	0.91169
1659.47299	0.90816
1657.41919	0.90564
1655.36539	0.90371
1653.31158	0.90070
1651.25778	0.89752
1649.20398	0.89581
1647.15017	0.89361
1645.09637	0.89066
1643.04257	0.88815
1640.98876	0.88604
1638.93496	0.88446
1636.88116	0.88313
1634.82735	0.88118
1632.77355	0.87926
1630.71975	0.87773
1628.66594	0.87624
1626.61214	0.87496
1624.55834	0.87437
1622.50454	0.87458
1620.45073	0.87531
1618.39693	0.87683
1616.34313	0.87986
1614.28932	0.88326
1612.23552	0.88644
1610.18172	0.89015
1608.12791	0.89429
1606.07411	0.89838
1604.02031	0.90215
1601.96650	0.90563
1599.91270	0.90878
1597.85890	0.91164
1595.80509	0.91406
1593.75129	0.91599
1591.69749	0.91758
1589.64368	0.91884
1587.58988	0.91987
1585.53608	0.92077
1583.48227	0.92128
1581.42847	0.92122
1579.37467	0.92076
1577.32086	0.91980
1575.26706	0.91831
1573.21326	0.91713
1571.15945	0.91606
1569.10565	0.91422
1567.05185	0.91192
1564.99805	0.90946
1562.94424	0.90701
1560.89044	0.90477
1558.83664	0.90098
1556.78283	0.89719
1554.72903	0.89514
1552.67523	0.89318
1550.62142	0.89097
1548.56762	0.88889
1546.51382	0.88748
1544.46001	0.88622
1542.40621	0.88470
1540.35241	0.88297
1538.29860	0.88206
1536.24480	0.88198
1534.19100	0.88162
1532.13719	0.88104
1530.08339	0.88098
1528.02959	0.88120
1525.97578	0.88158
1523.92198	0.88223
1521.86818	0.88267
1519.81437	0.88229
1517.76057	0.88166
1515.70677	0.88149
1513.65297	0.88210
1511.59916	0.88353
1509.54536	0.88547
1507.49156	0.88791
1505.43775	0.89115
1503.38395	0.89412
1501.33015	0.89698
1499.27634	0.89983
1497.22254	0.90275
1495.16874	0.90593
1493.11493	0.90879
1491.06113	0.91169
1489.00733	0.91511
1486.95352	0.91776
1484.89972	0.91948
1482.84592	0.92103
1480.79211	0.92234
1478.73831	0.92315
1476.68451	0.92345
1474.63070	0.92281
1472.57690	0.92106
1470.52310	0.91972
1468.46929	0.91917
1466.41549	0.91857
1464.36169	0.91757
1462.30788	0.91639
1460.25408	0.91522
1458.20028	0.91381
1456.14648	0.91207
1454.09267	0.91101
1452.03887	0.91041
1449.98507	0.90993
1447.93126	0.90969
1445.87746	0.90948
1443.82366	0.90936
1441.76985	0.90974
1439.71605	0.91068
1437.66225	0.91221
1435.60844	0.91391
1433.55464	0.91492
1431.50084	0.91585
1429.44703	0.91712
1427.39323	0.91813
1425.33943	0.91872
1423.28562	0.91914
1421.23182	0.91929
1419.17802	0.91925
1417.12421	0.91936
1415.07041	0.91954
1413.01661	0.91958
1410.96280	0.91954
1408.90900	0.91939
1406.85520	0.91913
1404.80139	0.91907
1402.74759	0.91941
1400.69379	0.91979
1398.63999	0.91974
1396.58618	0.91924
1394.53238	0.91872
1392.47858	0.91842
1390.42477	0.91812
1388.37097	0.91743
1386.31717	0.91628
1384.26336	0.91516
1382.20956	0.91425
1380.15576	0.91339
1378.10195	0.91266
1376.04815	0.91216
1373.99435	0.91207
1371.94054	0.91240
1369.88674	0.91316
1367.83294	0.91452
1365.77913	0.91623
1363.72533	0.91799
1361.67153	0.91967
1359.61772	0.92109
1357.56392	0.92234
1355.51012	0.92361
1353.45631	0.92480
1351.40251	0.92564
1349.34871	0.92625
1347.29491	0.92648
1345.24110	0.92629
1343.18730	0.92604
1341.13350	0.92574
1339.07969	0.92532
1337.02589	0.92480
1334.97209	0.92422
1332.91828	0.92362
1330.86448	0.92301
1328.81068	0.92267
1326.75687	0.92269
1324.70307	0.92263
1322.64927	0.92239
1320.59546	0.92231
1318.54166	0.92227
1316.48786	0.92196
1314.43405	0.92158
1312.38025	0.92124
1310.32645	0.92097
1308.27264	0.92099
1306.21884	0.92118
1304.16504	0.92112
1302.11123	0.92105
1300.05743	0.92151
1298.00363	0.92233
1295.94982	0.92300
1293.89602	0.92351
1291.84222	0.92386
1289.78842	0.92397
1287.73461	0.92412
1285.68081	0.92447
1283.62701	0.92475
1281.57320	0.92477
1279.51940	0.92466
1277.46560	0.92468
1275.41179	0.92486
1273.35799	0.92508
1271.30419	0.92505
1269.25038	0.92461
1267.19658	0.92413
1265.14278	0.92373
1263.08897	0.92322
1261.03517	0.92254
1258.98137	0.92152
1256.92756	0.92022
1254.87376	0.91922
1252.81996	0.91866
1250.76615	0.91811
1248.71235	0.91726
1246.65855	0.91616
1244.60474	0.91514
1242.55094	0.91437
1240.49714	0.91378
1238.44334	0.91334
1236.38953	0.91281
1234.33573	0.91222
1232.28193	0.91200
1230.22812	0.91236
1228.17432	0.91316
1226.12052	0.91433
1224.06671	0.91572
1222.01291	0.91722
1219.95911	0.91877
1217.90530	0.92040
1215.85150	0.92184
1213.79770	0.92309
1211.74389	0.92433
1209.69009	0.92512
1207.63629	0.92509
1205.58248	0.92470
1203.52868	0.92480
1201.47488	0.92536
1199.42107	0.92576
1197.36727	0.92635
1195.31347	0.92747
1193.25966	0.92859
1191.20586	0.92939
1189.15206	0.93009
1187.09825	0.93082
1185.04445	0.93146
1182.99065	0.93188
1180.93685	0.93197
1178.88304	0.93150
1176.82924	0.93060
1174.77544	0.92973
1172.72163	0.92890
1170.66783	0.92795
1168.61403	0.92682
1166.56022	0.92535
1164.50642	0.92386
1162.45262	0.92275
1160.39881	0.92193
1158.34501	0.92148
1156.29121	0.92148
1154.23740	0.92184
1152.18360	0.92254
1150.12980	0.92362
1148.07599	0.92490
1146.02219	0.92619
1143.96839	0.92755
1141.91458	0.92875
1139.86078	0.92965
1137.80698	0.93044
1135.75317	0.93116
1133.69937	0.93146
1131.64557	0.93101
1129.59176	0.92986
1127.53796	0.92839
1125.48416	0.92679
1123.43036	0.92515
1121.37655	0.92359
1119.32275	0.92234
1117.26895	0.92159
1115.21514	0.92101
1113.16134	0.92060
1111.10754	0.92061
1109.05373	0.92081
1106.99993	0.92131
1104.94613	0.92215
1102.89232	0.92279
1100.83852	0.92308
1098.78472	0.92337
1096.73091	0.92372
1094.67711	0.92368
1092.62331	0.92310
1090.56950	0.92226
1088.51570	0.92133
1086.46190	0.92041
1084.40809	0.91931
1082.35429	0.91744
1080.30049	0.91491
1078.24668	0.91292
1076.19288	0.91168
1074.13908	0.91063
1072.08528	0.91018
1070.03147	0.91049
1067.97767	0.91070
1065.92387	0.91049
1063.87006	0.91035
1061.81626	0.91043
1059.76246	0.91059
1057.70865	0.91061
1055.65485	0.91039
1053.60105	0.91035
1051.54724	0.91090
1049.49344	0.91168
1047.43964	0.91214
1045.38583	0.91226
1043.33203	0.91210
1041.27823	0.91162
1039.22442	0.91088
1037.17062	0.91006
1035.11682	0.90901
1033.06301	0.90777
1031.00921	0.90682
1028.95541	0.90612
1026.90160	0.90558
1024.84780	0.90523
1022.79400	0.90508
1020.74019	0.90500
1018.68639	0.90472
1016.63259	0.90441
1014.57879	0.90451
1012.52498	0.90487
1010.47118	0.90541
1008.41738	0.90654
1006.36357	0.90818
1004.30977	0.91012
1002.25597	0.91240
1000.20216	0.91467
998.14836	0.91663
996.09456	0.91846
994.04075	0.92057
991.98695	0.92288
989.93315	0.92498
987.87934	0.92679
985.82554	0.92844
983.77174	0.93011
981.71793	0.93187
979.66413	0.93365
977.61033	0.93516
975.55652	0.93624
973.50272	0.93706
971.44892	0.93766
969.39511	0.93831
967.34131	0.93933
965.28751	0.94032
963.23371	0.94095
961.17990	0.94110
959.12610	0.94074
957.07230	0.94005
955.01849	0.93914
952.96469	0.93854
950.91089	0.93875
948.85708	0.93910
946.80328	0.93930
944.74948	0.94024
942.69567	0.94148
940.64187	0.94187
938.58807	0.94232
936.53426	0.94377
934.48046	0.94526
932.42666	0.94595
930.37285	0.94615
928.31905	0.94647
926.26525	0.94689
924.21144	0.94708
922.15764	0.94714
920.10384	0.94743
918.05003	0.94794
915.99623	0.94854
913.94243	0.94889
911.88862	0.94882
909.83482	0.94852
907.78102	0.94829
905.72722	0.94824
903.67341	0.94796
901.61961	0.94758
899.56581	0.94739
897.51200	0.94723
895.45820	0.94722
893.40440	0.94741
891.35059	0.94759
889.29679	0.94761
887.24299	0.94740
885.18918	0.94710
883.13538	0.94696
881.08158	0.94707
879.02777	0.94748
876.97397	0.94771
874.92017	0.94758
872.86636	0.94762
870.81256	0.94787
868.75876	0.94813
866.70495	0.94794
864.65115	0.94720
862.59735	0.94666
860.54354	0.94623
858.48974	0.94566
856.43594	0.94528
854.38213	0.94493
852.32833	0.94473
850.27453	0.94478
848.22073	0.94469
846.16692	0.94457
844.11312	0.94430
842.05932	0.94301
840.00551	0.94136
837.95171	0.94104
835.89791	0.94142
833.84410	0.94081
831.79030	0.93958
829.73650	0.93894
827.68269	0.93918
825.62889	0.93970
823.57509	0.93944
821.52128	0.93886
819.46748	0.93893
817.41368	0.93867
815.35987	0.93755
813.30607	0.93667
811.25227	0.93623
809.19846	0.93518
807.14466	0.93377
805.09086	0.93326
803.03705	0.93321
800.98325	0.93217
798.92945	0.93035
796.87565	0.92925
794.82184	0.92894
792.76804	0.92833
790.71424	0.92713
788.66043	0.92566
786.60663	0.92435
784.55283	0.92402
782.49902	0.92428
780.44522	0.92406
778.39142	0.92337
776.33761	0.92242
774.28381	0.92156
772.23001	0.92083
770.17620	0.92013
768.12240	0.91934
766.06860	0.91819
764.01479	0.91723
761.96099	0.91651
759.90719	0.91545
757.85338	0.91432
755.79958	0.91310
753.74578	0.91163
751.69197	0.91026
749.63817	0.90930
747.58437	0.90891
745.53056	0.90857
743.47676	0.90778
741.42296	0.90695
739.36916	0.90581
737.31535	0.90422
735.26155	0.90310
733.20775	0.90264
731.15394	0.90253
729.10014	0.90244
727.04634	0.90169
724.99253	0.90050
722.93873	0.89948
720.88493	0.89822
718.83112	0.89644
716.77732	0.89488
714.72352	0.89393
712.66971	0.89315
710.61591	0.89212
708.56211	0.89074
706.50830	0.88875
704.45450	0.88641
702.40070	0.88475
700.34689	0.88385
698.29309	0.88320
696.23929	0.88260
694.18548	0.88170
692.13168	0.88043
690.07788	0.87923
688.02408	0.87850
685.97027	0.87866
683.91647	0.87910
681.86267	0.87817
679.80886	0.87592
677.75506	0.87397
675.70126	0.87315
673.64745	0.87296
671.59365	0.87269
669.53985	0.87239
667.48604	0.87171
665.43224	0.87057
663.37844	0.86923
661.32463	0.86770
659.27083	0.86682
657.21703	0.86684
655.16322	0.86745
653.10942	0.86780
651.05562	0.86702
649.00181	0.86597
646.94801	0.86529
644.89421	0.86422
642.84040	0.86321
640.78660	0.86270
638.73280	0.86149
636.67899	0.85939
634.62519	0.85739
632.57139	0.85665
630.51759	0.85714
628.46378	0.85751
626.40998	0.85707
624.35618	0.85546
622.30237	0.85321
620.24857	0.85241
618.19477	0.85354
616.14096	0.85385
614.08716	0.85188
612.03336	0.84942
609.97955	0.84802
607.92575	0.84779
605.87195	0.84799
603.81814	0.84787
601.76434	0.84709
599.71054	0.84554
597.65673	0.84421
595.60293	0.84415
593.54913	0.84391
591.49532	0.84238
589.44152	0.84104
587.38772	0.84080
585.33391	0.84099
583.28011	0.84047
581.22631	0.83913
579.17250	0.83780
577.11870	0.83622
575.06490	0.83416
573.01110	0.83263
570.95729	0.83154
568.90349	0.83046
566.84969	0.82973
564.79588	0.82861
562.74208	0.82622
560.68828	0.82343
558.63447	0.82200
556.58067	0.82234
554.52687	0.82259
552.47306	0.82185
550.41926	0.82098
548.36546	0.81995
546.31165	0.81884
544.25785	0.81774
542.20405	0.81696
540.15024	0.81696
538.09644	0.81664
536.04264	0.81588
533.98883	0.81534
531.93503	0.81519
529.88123	0.81529
527.82742	0.81412
525.77362	0.81217
523.71982	0.81172
521.66602	0.81262
519.61221	0.81454
517.55841	0.81621
515.50461	0.81557
513.45080	0.81471
511.39700	0.81524
509.34320	0.81522
507.28939	0.81396
505.23559	0.81250
503.18179	0.81057
501.12798	0.80923
499.07418	0.81017
497.02038	0.81064
494.96657	0.80914
492.91277	0.80828
490.85897	0.80880
488.80516	0.80978
486.75136	0.80996
484.69756	0.80865
482.64375	0.80758
480.58995	0.80700
478.53615	0.80650
476.48234	0.80642
474.42854	0.80688
472.37474	0.80732
470.32093	0.80677
468.26713	0.80509
466.21333	0.80212
464.15953	0.79983
462.10572	0.80039
460.05192	0.80237
457.99812	0.80416
455.94431	0.80506
453.89051	0.80422
451.83671	0.80463
449.78290	0.80707
447.72910	0.80733
445.67530	0.80459
443.62149	0.80081
441.56769	0.79801
439.51389	0.79795
437.46008	0.80072
435.40628	0.80278
433.35248	0.80176
431.29867	0.79887
429.24487	0.79466
427.19107	0.79102
425.13726	0.78978
423.08346	0.79169
421.02966	0.79356
418.97585	0.79117
416.92205	0.78829
414.86825	0.78923
412.81445	0.79231
410.76064	0.79477
408.70684	0.79517
406.65304	0.79398
404.59923	0.79088
402.54543	0.78675
400.49163	0.78443
398.43782	0.78149
