3996.70104	0.97969
3994.64724	0.97950
3992.59344	0.97877
3990.53964	0.97830
3988.48583	0.97814
3986.43203	0.97836
3984.37823	0.97873
3982.32442	0.97860
3980.27062	0.97856
3978.21682	0.97931
3976.16301	0.98002
3974.10921	0.97973
3972.05541	0.97870
3970.00160	0.97787
3967.94780	0.97765
3965.89400	0.97792
3963.84019	0.97846
3961.78639	0.97906
3959.73259	0.97952
3957.67878	0.97966
3955.62498	0.97957
3953.57118	0.97931
3951.51737	0.97892
3949.46357	0.97841
3947.40977	0.97792
3945.35596	0.97789
3943.30216	0.97834
3941.24836	0.97886
3939.19455	0.97909
3937.14075	0.97901
3935.08695	0.97899
3933.03315	0.97921
3930.97934	0.97930
3928.92554	0.97905
3926.87174	0.97873
3924.81793	0.97861
3922.76413	0.97860
3920.71033	0.97849
3918.65652	0.97871
3916.60272	0.97937
3914.54892	0.97949
3912.49511	0.97912
3910.44131	0.97904
3908.38751	0.97914
3906.33370	0.97911
3904.27990	0.97937
3902.22610	0.98014
3900.17229	0.98060
3898.11849	0.98027
3896.06469	0.97940
3894.01088	0.97849
3891.95708	0.97800
3889.90328	0.97815
3887.84947	0.97863
3885.79567	0.97875
3883.74187	0.97815
3881.68807	0.97790
3879.63426	0.97883
3877.58046	0.97964
3875.52666	0.97964
3873.47285	0.97950
3871.41905	0.97906
3869.36525	0.97838
3867.31144	0.97835
3865.25764	0.97860
3863.20384	0.97890
3861.15003	0.97948
3859.09623	0.97981
3857.04243	0.97963
3854.98862	0.97955
3852.93482	0.98005
3850.88102	0.98038
3848.82721	0.98052
3846.77341	0.98043
3844.71961	0.97991
3842.66580	0.97942
3840.61200	0.97933
3838.55820	0.97951
3836.50439	0.97986
3834.45059	0.98000
3832.39679	0.97978
3830.34298	0.97959
3828.28918	0.97964
3826.23538	0.97964
3824.18158	0.97930
3822.12777	0.97870
3820.07397	0.97863
3818.02017	0.97924
3815.96636	0.97978
3813.91256	0.98009
3811.85876	0.98015
3809.80495	0.98007
3807.75115	0.98020
3805.69735	0.98038
3803.64354	0.98020
3801.58974	0.98002
3799.53594	0.97986
3797.48213	0.97966
3795.42833	0.97960
3793.37453	0.97982
3791.32072	0.98040
3789.26692	0.98092
3787.21312	0.98101
3785.15931	0.98078
3783.10551	0.98034
3781.05171	0.98043
3778.99790	0.98142
3776.94410	0.98182
3774.89030	0.98114
3772.83650	0.98035
3770.78269	0.98019
3768.72889	0.98066
3766.67509	0.98093
3764.62128	0.98067
3762.56748	0.98056
3760.51368	0.98103
3758.45987	0.98160
3756.40607	0.98161
3754.35227	0.98125
3752.29846	0.98117
3750.24466	0.98173
3748.19086	0.98222
3746.13705	0.98302
3744.08325	0.98352
3742.02945	0.98202
3739.97564	0.98067
3737.92184	0.98079
3735.86804	0.98154
3733.81423	0.98160
3731.76043	0.98136
3729.70663	0.98151
3727.65282	0.98185
3725.59902	0.98151
3723.54522	0.98034
3721.49141	0.97970
3719.43761	0.97944
3717.38381	0.97851
3715.33001	0.97708
3713.27620	0.97562
3711.22240	0.97403
3709.16860	0.97207
3707.11479	0.96976
3705.06099	0.96730
3703.00719	0.96505
3700.95338	0.96312
3698.89958	0.96149
3696.84578	0.96033
3694.79197	0.96001
3692.73817	0.96043
3690.68437	0.96149
3688.63056	0.96385
3686.57676	0.96579
3684.52296	0.96606
3682.46915	0.96600
3680.41535	0.96630
3678.36155	0.96646
3676.30774	0.96610
3674.25394	0.96626
3672.20014	0.96698
3670.14633	0.96694
3668.09253	0.96617
3666.03873	0.96553
3663.98492	0.96501
3661.93112	0.96453
3659.87732	0.96389
3657.82352	0.96329
3655.76971	0.96267
3653.71591	0.96141
3651.66211	0.96050
3649.60830	0.96071
3647.55450	0.96049
3645.50070	0.95992
3643.44689	0.95980
3641.39309	0.95970
3639.33929	0.95959
3637.28548	0.95938
3635.23168	0.95866
3633.17788	0.95754
3631.12407	0.95679
3629.07027	0.95614
3627.01647	0.95438
3624.96266	0.95237
3622.90886	0.95102
3620.85506	0.95106
3618.80125	0.95212
3616.74745	0.95246
3614.69365	0.95241
3612.63984	0.95275
3610.58604	0.95320
3608.53224	0.95349
3606.47844	0.95355
3604.42463	0.95369
3602.37083	0.95406
3600.31703	0.95421
3598.26322	0.95384
3596.20942	0.95347
3594.15562	0.95370
3592.10181	0.95416
3590.04801	0.95452
3587.99421	0.95465
3585.94040	0.95381
3583.88660	0.95298
3581.83280	0.95266
3579.77899	0.95230
3577.72519	0.95188
3575.67139	0.95130
3573.61758	0.95069
3571.56378	0.95056
3569.50998	0.95112
3567.45617	0.95156
3565.40237	0.95077
3563.34857	0.94996
3561.29476	0.94952
3559.24096	0.94904
3557.18716	0.94867
3555.13335	0.94851
3553.07955	0.94844
3551.02575	0.94798
3548.97195	0.94735
3546.91814	0.94727
3544.86434	0.94746
3542.81054	0.94719
3540.75673	0.94639
3538.70293	0.94551
3536.64913	0.94505
3534.59532	0.94512
3532.54152	0.94540
3530.48772	0.94544
3528.43391	0.94508
3526.38011	0.94467
3524.32631	0.94449
3522.27250	0.94453
3520.21870	0.94455
3518.16490	0.94433
3516.11109	0.94400
3514.05729	0.94379
3512.00349	0.94337
3509.94968	0.94246
3507.89588	0.94204
3505.84208	0.94221
3503.78827	0.94185
3501.73447	0.94120
3499.68067	0.94078
3497.62687	0.94030
3495.57306	0.93960
3493.51926	0.93924
3491.46546	0.93951
3489.41165	0.93965
3487.35785	0.93927
3485.30405	0.93861
3483.25024	0.93802
3481.19644	0.93783
3479.14264	0.93768
3477.08883	0.93709
3475.03503	0.93643
3472.98123	0.93610
3470.92742	0.93594
3468.87362	0.93568
3466.81982	0.93548
3464.76601	0.93524
3462.71221	0.93478
3460.65841	0.93454
3458.60460	0.93469
3456.55080	0.93474
3454.49700	0.93441
3452.44319	0.93403
3450.38939	0.93390
3448.33559	0.93364
3446.28178	0.93284
3444.22798	0.93212
3442.17418	0.93190
3440.12038	0.93174
3438.06657	0.93136
3436.01277	0.93081
3433.95897	0.93033
3431.90516	0.92996
3429.85136	0.92942
3427.79756	0.92914
3425.74375	0.92921
3423.68995	0.92923
3421.63615	0.92914
3419.58234	0.92894
3417.52854	0.92838
3415.47474	0.92750
3413.42093	0.92686
3411.36713	0.92629
3409.31333	0.92566
3407.25952	0.92543
3405.20572	0.92531
3403.15192	0.92501
3401.09811	0.92492
3399.04431	0.92498
3396.99051	0.92493
3394.93670	0.92502
3392.88290	0.92525
3390.82910	0.92525
3388.77529	0.92484
3386.72149	0.92444
3384.66769	0.92444
3382.61389	0.92441
3380.56008	0.92406
3378.50628	0.92368
3376.45248	0.92361
3374.39867	0.92400
3372.34487	0.92446
3370.29107	0.92441
3368.23726	0.92404
3366.18346	0.92384
3364.12966	0.92397
3362.07585	0.92418
3360.02205	0.92406
3357.96825	0.92399
3355.91444	0.92412
3353.86064	0.92413
3351.80684	0.92426
3349.75303	0.92474
3347.69923	0.92503
3345.64543	0.92483
3343.59162	0.92461
3341.53782	0.92473
3339.48402	0.92508
3337.43021	0.92561
3335.37641	0.92617
3333.32261	0.92597
3331.26881	0.92530
3329.21500	0.92510
3327.16120	0.92519
3325.10740	0.92550
3323.05359	0.92594
3320.99979	0.92590
3318.94599	0.92547
3316.89218	0.92543
3314.83838	0.92567
3312.78458	0.92550
3310.73077	0.92540
3308.67697	0.92586
3306.62317	0.92605
3304.56936	0.92591
3302.51556	0.92608
3300.46176	0.92651
3298.40795	0.92691
3296.35415	0.92694
3294.30035	0.92657
3292.24654	0.92645
3290.19274	0.92675
3288.13894	0.92693
3286.08513	0.92716
3284.03133	0.92758
3281.97753	0.92777
3279.92372	0.92806
3277.86992	0.92852
3275.81612	0.92837
3273.76232	0.92764
3271.70851	0.92724
3269.65471	0.92742
3267.60091	0.92782
3265.54710	0.92820
3263.49330	0.92868
3261.43950	0.92920
3259.38569	0.92967
3257.33189	0.93000
3255.27809	0.92991
3253.22428	0.92971
3251.17048	0.92977
3249.11668	0.92998
3247.06287	0.93016
3245.00907	0.93021
3242.95527	0.93029
3240.90146	0.93074
3238.84766	0.93149
3236.79386	0.93205
3234.74005	0.93236
3232.68625	0.93284
3230.63245	0.93333
3228.57864	0.93361
3226.52484	0.93380
3224.47104	0.93386
3222.41724	0.93413
3220.36343	0.93464
3218.30963	0.93492
3216.25583	0.93507
3214.20202	0.93536
3212.14822	0.93577
3210.09442	0.93633
3208.04061	0.93670
3205.98681	0.93648
3203.93301	0.93630
3201.87920	0.93675
3199.82540	0.93736
3197.77160	0.93781
3195.71779	0.93831
3193.66399	0.93880
3191.61019	0.93944
3189.55638	0.94017
3187.50258	0.94035
3185.44878	0.94037
3183.39497	0.94078
3181.34117	0.94090
3179.28737	0.94070
3177.23356	0.94092
3175.17976	0.94148
3173.12596	0.94210
3171.07215	0.94265
3169.01835	0.94274
3166.96455	0.94280
3164.91075	0.94341
3162.85694	0.94414
3160.80314	0.94443
3158.74934	0.94476
3156.69553	0.94512
3154.64173	0.94520
3152.58793	0.94560
3150.53412	0.94641
3148.48032	0.94702
3146.42652	0.94730
3144.37271	0.94763
3142.31891	0.94819
3140.26511	0.94866
3138.21130	0.94882
3136.15750	0.94883
3134.10370	0.94897
3132.04989	0.94952
3129.99609	0.95021
3127.94229	0.95066
3125.88848	0.95075
3123.83468	0.95074
3121.78088	0.95093
3119.72707	0.95120
3117.67327	0.95147
3115.61947	0.95191
3113.56566	0.95228
3111.51186	0.95203
3109.45806	0.95175
3107.40426	0.95230
3105.35045	0.95285
3103.29665	0.95281
3101.24285	0.95262
3099.18904	0.95260
3097.13524	0.95284
3095.08144	0.95317
3093.02763	0.95343
3090.97383	0.95367
3088.92003	0.95385
3086.86622	0.95391
3084.81242	0.95403
3082.75862	0.95441
3080.70481	0.95491
3078.65101	0.95542
3076.59721	0.95592
3074.54340	0.95616
3072.48960	0.95612
3070.43580	0.95618
3068.38199	0.95619
3066.32819	0.95616
3064.27439	0.95653
3062.22058	0.95688
3060.16678	0.95683
3058.11298	0.95688
3056.05918	0.95747
3054.00537	0.95816
3051.95157	0.95857
3049.89777	0.95884
3047.84396	0.95895
3045.79016	0.95868
3043.73636	0.95833
3041.68255	0.95858
3039.62875	0.95925
3037.57495	0.95974
3035.52114	0.95991
3033.46734	0.95986
3031.41354	0.95985
3029.35973	0.96006
3027.30593	0.96064
3025.25213	0.96142
3023.19832	0.96179
3021.14452	0.96150
3019.09072	0.96115
3017.03691	0.96148
3014.98311	0.96220
3012.92931	0.96257
3010.87550	0.96263
3008.82170	0.96292
3006.76790	0.96346
3004.71409	0.96353
3002.66029	0.96304
3000.60649	0.96287
2998.55269	0.96326
2996.49888	0.96371
2994.44508	0.96400
2992.39128	0.96412
2990.33747	0.96407
2988.28367	0.96393
2986.22987	0.96363
2984.17606	0.96301
2982.12226	0.96256
2980.06846	0.96275
2978.01465	0.96320
2975.96085	0.96333
2973.90705	0.96290
2971.85324	0.96203
2969.79944	0.96099
2967.74564	0.96033
2965.69183	0.95997
2963.63803	0.95909
2961.58423	0.95803
2959.53042	0.95753
2957.47662	0.95727
2955.42282	0.95713
2953.36901	0.95718
2951.31521	0.95692
2949.26141	0.95624
2947.20761	0.95557
2945.15380	0.95476
2943.10000	0.95321
2941.04620	0.95086
2938.99239	0.94813
2936.93859	0.94483
2934.88479	0.94069
2932.83098	0.93589
2930.77718	0.93027
2928.72338	0.92345
2926.66957	0.91535
2924.61577	0.90558
2922.56197	0.89383
2920.50816	0.88079
2918.45436	0.86835
2916.40056	0.85934
2914.34675	0.85652
2912.29295	0.86067
2910.23915	0.86949
2908.18534	0.87953
2906.13154	0.88855
2904.07774	0.89576
2902.02393	0.90141
2899.97013	0.90586
2897.91633	0.90950
2895.86252	0.91283
2893.80872	0.91591
2891.75492	0.91885
2889.70112	0.92208
2887.64731	0.92581
2885.59351	0.92970
2883.53971	0.93317
2881.48590	0.93613
2879.43210	0.93906
2877.37830	0.94218
2875.32449	0.94527
2873.27069	0.94761
2871.21689	0.94884
2869.16308	0.94956
2867.10928	0.94986
2865.05548	0.94935
2863.00167	0.94804
2860.94787	0.94545
2858.89407	0.94029
2856.84026	0.93199
2854.78646	0.92025
2852.73266	0.90404
2850.67885	0.88530
2848.62505	0.87123
2846.57125	0.86879
2844.51744	0.87766
2842.46364	0.89188
2840.40984	0.90616
2838.35603	0.91801
2836.30223	0.92719
2834.24843	0.93425
2832.19463	0.93952
2830.14082	0.94352
2828.08702	0.94683
2826.03322	0.94975
2823.97941	0.95205
2821.92561	0.95389
2819.87181	0.95565
2817.81800	0.95708
2815.76420	0.95820
2813.71040	0.95944
2811.65659	0.96063
2809.60279	0.96134
2807.54899	0.96181
2805.49518	0.96239
2803.44138	0.96287
2801.38758	0.96322
2799.33377	0.96391
2797.27997	0.96474
2795.22617	0.96524
2793.17236	0.96570
2791.11856	0.96624
2789.06476	0.96673
2787.01095	0.96722
2784.95715	0.96746
2782.90335	0.96756
2780.84955	0.96782
2778.79574	0.96816
2776.74194	0.96845
2774.68814	0.96852
2772.63433	0.96842
2770.58053	0.96871
2768.52673	0.96946
2766.47292	0.96982
2764.41912	0.96971
2762.36532	0.96984
2760.31151	0.97026
2758.25771	0.97074
2756.20391	0.97110
2754.15010	0.97109
2752.09630	0.97094
2750.04250	0.97082
2747.98869	0.97078
2745.93489	0.97094
2743.88109	0.97121
2741.82728	0.97134
2739.77348	0.97136
2737.71968	0.97161
2735.66587	0.97182
2733.61207	0.97168
2731.55827	0.97165
2729.50446	0.97194
2727.45066	0.97211
2725.39686	0.97196
2723.34306	0.97186
2721.28925	0.97196
2719.23545	0.97210
2717.18165	0.97228
2715.12784	0.97250
2713.07404	0.97260
2711.02024	0.97256
2708.96643	0.97269
2706.91263	0.97316
2704.85883	0.97351
2702.80502	0.97356
2700.75122	0.97356
2698.69742	0.97350
2696.64361	0.97352
2694.58981	0.97382
2692.53601	0.97404
2690.48220	0.97399
2688.42840	0.97401
2686.37460	0.97428
2684.32079	0.97435
2682.26699	0.97412
2680.21319	0.97405
2678.15938	0.97415
2676.10558	0.97422
2674.05178	0.97430
2671.99797	0.97452
2669.94417	0.97477
2667.89037	0.97468
2665.83657	0.97432
2663.78276	0.97407
2661.72896	0.97395
2659.67516	0.97391
2657.62135	0.97396
2655.56755	0.97397
2653.51375	0.97399
2651.45994	0.97410
2649.40614	0.97428
2647.35234	0.97439
2645.29853	0.97436
2643.24473	0.97427
2641.19093	0.97419
2639.13712	0.97433
2637.08332	0.97447
2635.02952	0.97418
2632.97571	0.97397
2630.92191	0.97426
2628.86811	0.97470
2626.81430	0.97507
2624.76050	0.97527
2622.70670	0.97533
2620.65289	0.97546
2618.59909	0.97570
2616.54529	0.97569
2614.49149	0.97548
2612.43768	0.97548
2610.38388	0.97556
2608.33008	0.97543
2606.27627	0.97546
2604.22247	0.97596
2602.16867	0.97638
2600.11486	0.97624
2598.06106	0.97591
2596.00726	0.97596
2593.95345	0.97639
2591.89965	0.97688
2589.84585	0.97710
2587.79204	0.97732
2585.73824	0.97790
2583.68444	0.97840
2581.63063	0.97853
2579.57683	0.97816
2577.52303	0.97745
2575.46922	0.97715
2573.41542	0.97731
2571.36162	0.97747
2569.30781	0.97731
2567.25401	0.97719
2565.20021	0.97745
2563.14640	0.97756
2561.09260	0.97745
2559.03880	0.97759
2556.98500	0.97793
2554.93119	0.97841
2552.87739	0.97875
2550.82359	0.97822
2548.76978	0.97720
2546.71598	0.97666
2544.66218	0.97661
2542.60837	0.97683
2540.55457	0.97728
2538.50077	0.97783
2536.44696	0.97832
2534.39316	0.97884
2532.33936	0.97930
2530.28555	0.97926
2528.23175	0.97918
2526.17795	0.97958
2524.12414	0.97984
2522.07034	0.97978
2520.01654	0.97949
2517.96273	0.97866
2515.90893	0.97803
2513.85513	0.97823
2511.80132	0.97880
2509.74752	0.97938
2507.69372	0.97973
2505.63992	0.97959
2503.58611	0.97922
2501.53231	0.97887
2499.47851	0.97897
2497.42470	0.97964
2495.37090	0.98015
2493.31710	0.98023
2491.26329	0.98010
2489.20949	0.97992
2487.15569	0.98002
2485.10188	0.98030
2483.04808	0.98029
2480.99428	0.98014
2478.94047	0.98029
2476.88667	0.98056
2474.83287	0.98037
2472.77906	0.97983
2470.72526	0.97943
2468.67146	0.97907
2466.61765	0.97882
2464.56385	0.97933
2462.51005	0.98045
2460.45624	0.98097
2458.40244	0.98061
2456.34864	0.98021
2454.29483	0.98017
2452.24103	0.98026
2450.18723	0.97984
2448.13343	0.97901
2446.07962	0.97872
2444.02582	0.97871
2441.97202	0.97860
2439.91821	0.97886
2437.86441	0.97948
2435.81061	0.97972
2433.75680	0.97947
2431.70300	0.97948
2429.64920	0.97983
2427.59539	0.98021
2425.54159	0.98075
2423.48779	0.98092
2421.43398	0.98032
2419.38018	0.97987
2417.32638	0.98005
2415.27257	0.97997
2413.21877	0.97942
2411.16497	0.97916
2409.11116	0.97934
2407.05736	0.97966
2405.00356	0.98005
2402.94975	0.98028
2400.89595	0.98041
2398.84215	0.98053
2396.78834	0.98051
2394.73454	0.98067
2392.68074	0.98065
2390.62694	0.98018
2388.57313	0.98002
2386.51933	0.98013
2384.46553	0.97995
2382.41172	0.97961
2380.35792	0.97935
2378.30412	0.97934
2376.25031	0.97988
2374.19651	0.98038
2372.14271	0.97972
2370.08890	0.97910
2368.03510	0.97951
2365.98130	0.97899
2363.92749	0.97720
2361.87369	0.97606
2359.81989	0.97624
2357.76608	0.97688
2355.71228	0.97751
2353.65848	0.97825
2351.60467	0.97886
2349.55087	0.97937
2347.49707	0.97943
2345.44326	0.97855
2343.38946	0.97696
2341.33566	0.97530
2339.28186	0.97473
2337.22805	0.97570
2335.17425	0.97683
2333.12045	0.97723
2331.06664	0.97746
2329.01284	0.97818
2326.95904	0.97878
2324.90523	0.97850
2322.85143	0.97766
2320.79763	0.97723
2318.74382	0.97769
2316.69002	0.97805
2314.63622	0.97787
2312.58241	0.97784
2310.52861	0.97807
2308.47481	0.97832
2306.42100	0.97800
2304.36720	0.97757
2302.31340	0.97835
2300.25959	0.97929
2298.20579	0.97877
2296.15199	0.97802
2294.09818	0.97838
2292.04438	0.97914
2289.99058	0.97942
2287.93677	0.97924
2285.88297	0.97932
2283.82917	0.97938
2281.77537	0.97885
2279.72156	0.97877
2277.66776	0.97997
2275.61396	0.98151
2273.56015	0.98198
2271.50635	0.98058
2269.45255	0.97838
2267.39874	0.97824
2265.34494	0.98035
2263.29114	0.98182
2261.23733	0.98203
2259.18353	0.98216
2257.12973	0.98220
2255.07592	0.98215
2253.02212	0.98216
2250.96832	0.98160
2248.91451	0.98120
2246.86071	0.98141
2244.80691	0.98163
2242.75310	0.98181
2240.69930	0.98117
2238.64550	0.98087
2236.59169	0.98156
2234.53789	0.98177
2232.48409	0.98227
2230.43029	0.98300
2228.37648	0.98266
2226.32268	0.98184
2224.26888	0.98165
2222.21507	0.98205
2220.16127	0.98166
2218.10747	0.98068
2216.05366	0.98061
2213.99986	0.98061
2211.94606	0.98026
2209.89225	0.98113
2207.83845	0.98285
2205.78465	0.98399
2203.73084	0.98424
2201.67704	0.98337
2199.62324	0.98215
2197.56943	0.98207
2195.51563	0.98345
2193.46183	0.98501
2191.40802	0.98371
2189.35422	0.98025
2187.30042	0.97923
2185.24661	0.98073
2183.19281	0.98205
2181.13901	0.98320
2179.08520	0.98398
2177.03140	0.98298
2174.97760	0.98148
2172.92380	0.98149
2170.86999	0.98200
2168.81619	0.98275
2166.76239	0.98496
2164.70858	0.98694
2162.65478	0.98656
2160.60098	0.98549
2158.54717	0.98561
2156.49337	0.98593
2154.43957	0.98535
2152.38576	0.98478
2150.33196	0.98547
2148.27816	0.98637
2146.22435	0.98578
2144.17055	0.98496
2142.11675	0.98525
2140.06294	0.98516
2138.00914	0.98378
2135.95534	0.98241
2133.90153	0.98219
2131.84773	0.98287
2129.79393	0.98376
2127.74012	0.98445
2125.68632	0.98466
2123.63252	0.98449
2121.57871	0.98440
2119.52491	0.98434
2117.47111	0.98438
2115.41731	0.98430
2113.36350	0.98313
2111.30970	0.98197
2109.25590	0.98229
2107.20209	0.98329
2105.14829	0.98407
2103.09449	0.98427
2101.04068	0.98390
2098.98688	0.98346
2096.93308	0.98371
2094.87927	0.98467
2092.82547	0.98535
2090.77167	0.98527
2088.71786	0.98476
2086.66406	0.98414
2084.61026	0.98384
2082.55645	0.98408
2080.50265	0.98364
2078.44885	0.98259
2076.39504	0.98274
2074.34124	0.98366
2072.28744	0.98439
2070.23363	0.98468
2068.17983	0.98395
2066.12603	0.98376
2064.07223	0.98485
2062.01842	0.98533
2059.96462	0.98484
2057.91082	0.98414
2055.85701	0.98404
2053.80321	0.98470
2051.74941	0.98448
2049.69560	0.98310
2047.64180	0.98226
2045.58800	0.98262
2043.53419	0.98432
2041.48039	0.98685
2039.42659	0.98833
2037.37278	0.98821
2035.31898	0.98812
2033.26518	0.98938
2031.21137	0.99104
2029.15757	0.99144
2027.10377	0.98974
2025.04996	0.98676
2022.99616	0.98533
2020.94236	0.98634
2018.88855	0.98686
2016.83475	0.98607
2014.78095	0.98653
2012.72714	0.98750
2010.67334	0.98761
2008.61954	0.98793
2006.56574	0.98814
2004.51193	0.98698
2002.45813	0.98591
2000.40433	0.98626
1998.35052	0.98607
1996.29672	0.98574
1994.24292	0.98646
1992.18911	0.98650
1990.13531	0.98604
1988.08151	0.98586
1986.02770	0.98576
1983.97390	0.98619
1981.92010	0.98595
1979.86629	0.98454
1977.81249	0.98578
1975.75869	0.98956
1973.70488	0.98991
1971.65108	0.98794
1969.59728	0.98747
1967.54347	0.98725
1965.48967	0.98672
1963.43587	0.98666
1961.38206	0.98663
1959.32826	0.98626
1957.27446	0.98604
1955.22066	0.98644
1953.16685	0.98671
1951.11305	0.98659
1949.05925	0.98688
1947.00544	0.98729
1944.95164	0.98723
1942.89784	0.98657
1940.84403	0.98536
1938.79023	0.98481
1936.73643	0.98532
1934.68262	0.98540
1932.62882	0.98473
1930.57502	0.98471
1928.52121	0.98569
1926.46741	0.98675
1924.41361	0.98684
1922.35980	0.98568
1920.30600	0.98479
1918.25220	0.98555
1916.19839	0.98619
1914.14459	0.98551
1912.09079	0.98500
1910.03698	0.98440
1907.98318	0.98351
1905.92938	0.98402
1903.87557	0.98536
1901.82177	0.98551
1899.76797	0.98459
1897.71417	0.98402
1895.66036	0.98412
1893.60656	0.98400
1891.55276	0.98338
1889.49895	0.98288
1887.44515	0.98264
1885.39135	0.98285
1883.33754	0.98357
1881.28374	0.98403
1879.22994	0.98418
1877.17613	0.98476
1875.12233	0.98525
1873.06853	0.98484
1871.01472	0.98399
1868.96092	0.98392
1866.90712	0.98458
1864.85331	0.98453
1862.79951	0.98378
1860.74571	0.98339
1858.69190	0.98407
1856.63810	0.98527
1854.58430	0.98601
1852.53049	0.98604
1850.47669	0.98557
1848.42289	0.98494
1846.36908	0.98443
1844.31528	0.98437
1842.26148	0.98444
1840.20768	0.98388
1838.15387	0.98291
1836.10007	0.98249
1834.04627	0.98303
1831.99246	0.98382
1829.93866	0.98432
1827.88486	0.98440
1825.83105	0.98400
1823.77725	0.98354
1821.72345	0.98379
1819.66964	0.98423
1817.61584	0.98413
1815.56204	0.98378
1813.50823	0.98365
1811.45443	0.98372
1809.40063	0.98380
1807.34682	0.98385
1805.29302	0.98368
1803.23922	0.98309
1801.18541	0.98255
1799.13161	0.98278
1797.07781	0.98352
1795.02400	0.98413
1792.97020	0.98424
1790.91640	0.98410
1788.86260	0.98431
1786.80879	0.98435
1784.75499	0.98388
1782.70119	0.98336
1780.64738	0.98316
1778.59358	0.98296
1776.53978	0.98279
1774.48597	0.98295
1772.43217	0.98326
1770.37837	0.98320
1768.32456	0.98286
1766.27076	0.98272
1764.21696	0.98265
1762.16315	0.98253
1760.10935	0.98252
1758.05555	0.98238
1756.00174	0.98196
1753.94794	0.98145
1751.89414	0.98089
1749.84033	0.98039
1747.78653	0.98022
1745.73273	0.97972
1743.67892	0.97873
1741.62512	0.97785
1739.57132	0.97714
1737.51751	0.97639
1735.46371	0.97600
1733.40991	0.97601
1731.35611	0.97578
1729.30230	0.97563
1727.24850	0.97563
1725.19470	0.97545
1723.14089	0.97530
1721.08709	0.97531
1719.03329	0.97542
1716.97948	0.97508
1714.92568	0.97404
1712.87188	0.97320
1710.81807	0.97248
1708.76427	0.97194
1706.71047	0.97161
1704.65666	0.97095
1702.60286	0.97000
1700.54906	0.96865
1698.49525	0.96658
1696.44145	0.96451
1694.38765	0.96253
1692.33384	0.96086
1690.28004	0.95931
1688.22624	0.95778
1686.17243	0.95601
1684.11863	0.95293
1682.06483	0.94958
1680.01103	0.94736
1677.95722	0.94553
1675.90342	0.94359
1673.84962	0.94149
1671.79581	0.93969
1669.74201	0.93759
1667.68821	0.93529
1665.63440	0.93355
1663.58060	0.93172
1661.52680	0.92950
1659.47299	0.92763
1657.41919	0.92635
1655.36539	0.92549
1653.31158	0.92493
1651.25778	0.92471
1649.20398	0.92458
1647.15017	0.92447
1645.09637	0.92426
1643.04257	0.92385
1640.98876	0.92337
1638.93496	0.92304
1636.88116	0.92317
1634.82735	0.92382
1632.77355	0.92411
1630.71975	0.92413
1628.66594	0.92466
1626.61214	0.92570
1624.55834	0.92658
1622.50454	0.92739
1620.45073	0.92851
1618.39693	0.93007
1616.34313	0.93267
1614.28932	0.93542
1612.23552	0.93737
1610.18172	0.93918
1608.12791	0.94104
1606.07411	0.94245
1604.02031	0.94364
1601.96650	0.94507
1599.91270	0.94634
1597.85890	0.94716
1595.80509	0.94785
1593.75129	0.94851
1591.69749	0.94916
1589.64368	0.94977
1587.58988	0.95006
1585.53608	0.95022
1583.48227	0.95053
1581.42847	0.95074
1579.37467	0.95075
1577.32086	0.95077
1575.26706	0.95099
1573.21326	0.95121
1571.15945	0.95130
1569.10565	0.95131
1567.05185	0.95122
1564.99805	0.95091
1562.94424	0.95042
1560.89044	0.94999
1558.83664	0.94980
1556.78283	0.94954
1554.72903	0.94914
1552.67523	0.94891
1550.62142	0.94885
1548.56762	0.94898
1546.51382	0.94903
1544.46001	0.94871
1542.40621	0.94861
1540.35241	0.95003
1538.29860	0.95151
1536.24480	0.95211
1534.19100	0.95315
1532.13719	0.95441
1530.08339	0.95509
1528.02959	0.95556
1525.97578	0.95594
1523.92198	0.95635
1521.86818	0.95693
1519.81437	0.95731
1517.76057	0.95796
1515.70677	0.95935
1513.65297	0.96067
1511.59916	0.96164
1509.54536	0.96229
1507.49156	0.96266
1505.43775	0.96303
1503.38395	0.96343
1501.33015	0.96392
1499.27634	0.96438
1497.22254	0.96464
1495.16874	0.96451
1493.11493	0.96421
1491.06113	0.96426
1489.00733	0.96482
1486.95352	0.96492
1484.89972	0.96404
1482.84592	0.96276
1480.79211	0.96135
1478.73831	0.95865
1476.68451	0.95135
1474.63070	0.93696
1472.57690	0.92275
1470.52310	0.92084
1468.46929	0.92435
1466.41549	0.92484
1464.36169	0.91951
1462.30788	0.91532
1460.25408	0.91921
1458.20028	0.92991
1456.14648	0.94017
1454.09267	0.94378
1452.03887	0.94530
1449.98507	0.94652
1447.93126	0.94747
1445.87746	0.94816
1443.82366	0.94865
1441.76985	0.94906
1439.71605	0.94948
1437.66225	0.95015
1435.60844	0.95103
1433.55464	0.95165
1431.50084	0.95210
1429.44703	0.95284
1427.39323	0.95383
1425.33943	0.95450
1423.28562	0.95486
1421.23182	0.95503
1419.17802	0.95512
1417.12421	0.95555
1415.07041	0.95607
1413.01661	0.95604
1410.96280	0.95577
1408.90900	0.95610
1406.85520	0.95694
1404.80139	0.95790
1402.74759	0.95872
1400.69379	0.95930
1398.63999	0.95961
1396.58618	0.95970
1394.53238	0.95984
1392.47858	0.95994
1390.42477	0.95979
1388.37097	0.95956
1386.31717	0.95924
1384.26336	0.95865
1382.20956	0.95787
1380.15576	0.95709
1378.10195	0.95651
1376.04815	0.95646
1373.99435	0.95715
1371.94054	0.95787
1369.88674	0.95838
1367.83294	0.95912
1365.77913	0.96011
1363.72533	0.96100
1361.67153	0.96153
1359.61772	0.96193
1357.56392	0.96259
1355.51012	0.96325
1353.45631	0.96351
1351.40251	0.96371
1349.34871	0.96392
1347.29491	0.96392
1345.24110	0.96391
1343.18730	0.96414
1341.13350	0.96464
1339.07969	0.96520
1337.02589	0.96536
1334.97209	0.96520
1332.91828	0.96509
1330.86448	0.96495
1328.81068	0.96447
1326.75687	0.96395
1324.70307	0.96369
1322.64927	0.96346
1320.59546	0.96328
1318.54166	0.96321
1316.48786	0.96312
1314.43405	0.96309
1312.38025	0.96324
1310.32645	0.96327
1308.27264	0.96297
1306.21884	0.96263
1304.16504	0.96266
1302.11123	0.96301
1300.05743	0.96316
1298.00363	0.96304
1295.94982	0.96316
1293.89602	0.96354
1291.84222	0.96374
1289.78842	0.96364
1287.73461	0.96341
1285.68081	0.96340
1283.62701	0.96342
1281.57320	0.96311
1279.51940	0.96247
1277.46560	0.96181
1275.41179	0.96135
1273.35799	0.96093
1271.30419	0.96048
1269.25038	0.95995
1267.19658	0.95897
1265.14278	0.95791
1263.08897	0.95740
1261.03517	0.95706
1258.98137	0.95626
1256.92756	0.95545
1254.87376	0.95510
1252.81996	0.95483
1250.76615	0.95426
1248.71235	0.95348
1246.65855	0.95269
1244.60474	0.95186
1242.55094	0.95091
1240.49714	0.94992
1238.44334	0.94904
1236.38953	0.94807
1234.33573	0.94721
1232.28193	0.94683
1230.22812	0.94642
1228.17432	0.94578
1226.12052	0.94511
1224.06671	0.94423
1222.01291	0.94305
1219.95911	0.94184
1217.90530	0.94079
1215.85150	0.93984
1213.79770	0.93903
1211.74389	0.93812
1209.69009	0.93681
1207.63629	0.93535
1205.58248	0.93400
1203.52868	0.93262
1201.47488	0.93083
1199.42107	0.92884
1197.36727	0.92702
1195.31347	0.92539
1193.25966	0.92390
1191.20586	0.92216
1189.15206	0.91978
1187.09825	0.91716
1185.04445	0.91473
1182.99065	0.91208
1180.93685	0.90890
1178.88304	0.90575
1176.82924	0.90293
1174.77544	0.89997
1172.72163	0.89677
1170.66783	0.89374
1168.61403	0.89073
1166.56022	0.88770
1164.50642	0.88498
1162.45262	0.88249
1160.39881	0.88008
1158.34501	0.87770
1156.29121	0.87532
1154.23740	0.87331
1152.18360	0.87147
1150.12980	0.86922
1148.07599	0.86671
1146.02219	0.86425
1143.96839	0.86188
1141.91458	0.85951
1139.86078	0.85720
1137.80698	0.85481
1135.75317	0.85187
1133.69937	0.84849
1131.64557	0.84501
1129.59176	0.84130
1127.53796	0.83712
1125.48416	0.83260
1123.43036	0.82765
1121.37655	0.82194
1119.32275	0.81584
1117.26895	0.80996
1115.21514	0.80453
1113.16134	0.79924
1111.10754	0.79402
1109.05373	0.78927
1106.99993	0.78483
1104.94613	0.78071
1102.89232	0.77716
1100.83852	0.77392
1098.78472	0.77090
1096.73091	0.76821
1094.67711	0.76590
1092.62331	0.76375
1090.56950	0.76169
1088.51570	0.75983
1086.46190	0.75777
1084.40809	0.75560
1082.35429	0.75386
1080.30049	0.75212
1078.24668	0.74977
1076.19288	0.74692
1074.13908	0.74405
1072.08528	0.74147
1070.03147	0.73859
1067.97767	0.73498
1065.92387	0.73088
1063.87006	0.72651
1061.81626	0.72179
1059.76246	0.71601
1057.70865	0.70921
1055.65485	0.70228
1053.60105	0.69542
1051.54724	0.68820
1049.49344	0.68014
1047.43964	0.67171
1045.38583	0.66399
1043.33203	0.65675
1041.27823	0.64902
1039.22442	0.64106
1037.17062	0.63360
1035.11682	0.62710
1033.06301	0.62190
1031.00921	0.61763
1028.95541	0.61428
1026.90160	0.61243
1024.84780	0.61169
1022.79400	0.61102
1020.74019	0.61016
1018.68639	0.60906
1016.63259	0.60786
1014.57879	0.60656
1012.52498	0.60463
1010.47118	0.60230
1008.41738	0.60027
1006.36357	0.59912
1004.30977	0.59917
1002.25597	0.60052
1000.20216	0.60342
998.14836	0.60784
996.09456	0.61346
994.04075	0.62002
991.98695	0.62716
989.93315	0.63475
987.87934	0.64293
985.82554	0.65172
983.77174	0.66083
981.71793	0.66983
979.66413	0.67849
977.61033	0.68716
975.55652	0.69617
973.50272	0.70522
971.44892	0.71394
969.39511	0.72233
967.34131	0.73041
965.28751	0.73816
963.23371	0.74563
961.17990	0.75252
959.12610	0.75871
957.07230	0.76447
955.01849	0.76964
952.96469	0.77396
950.91089	0.77783
948.85708	0.78180
946.80328	0.78551
944.74948	0.78853
942.69567	0.79106
940.64187	0.79322
938.58807	0.79513
936.53426	0.79718
934.48046	0.79947
932.42666	0.80175
930.37285	0.80376
928.31905	0.80506
926.26525	0.80575
924.21144	0.80592
922.15764	0.80508
920.10384	0.80335
918.05003	0.80083
915.99623	0.79782
913.94243	0.79537
911.88862	0.79451
909.83482	0.79646
907.78102	0.80172
905.72722	0.80904
903.67341	0.81650
901.61961	0.82396
899.56581	0.83188
897.51200	0.83883
895.45820	0.84419
893.40440	0.84887
891.35059	0.85291
889.29679	0.85653
887.24299	0.86003
885.18918	0.86278
883.13538	0.86447
881.08158	0.86556
879.02777	0.86674
876.97397	0.86809
874.92017	0.86959
872.86636	0.87181
870.81256	0.87473
868.75876	0.87779
866.70495	0.88070
864.65115	0.88306
862.59735	0.88516
860.54354	0.88788
858.48974	0.89086
856.43594	0.89316
854.38213	0.89491
852.32833	0.89642
850.27453	0.89744
848.22073	0.89836
846.16692	0.89943
844.11312	0.89977
842.05932	0.89929
840.00551	0.89900
837.95171	0.89928
835.89791	0.89959
833.84410	0.89911
831.79030	0.89790
829.73650	0.89726
827.68269	0.89733
825.62889	0.89685
823.57509	0.89612
821.52128	0.89577
819.46748	0.89514
817.41368	0.89411
815.35987	0.89337
813.30607	0.89302
811.25227	0.89181
809.19846	0.88865
807.14466	0.88458
805.09086	0.88100
803.03705	0.87785
800.98325	0.87475
798.92945	0.87194
796.87565	0.87003
794.82184	0.86957
792.76804	0.87026
790.71424	0.87070
788.66043	0.87001
786.60663	0.86920
784.55283	0.86907
782.49902	0.86890
780.44522	0.86811
778.39142	0.86699
776.33761	0.86652
774.28381	0.86778
772.23001	0.86953
770.17620	0.86970
768.12240	0.86835
766.06860	0.86618
764.01479	0.86383
761.96099	0.86228
759.90719	0.86141
757.85338	0.86024
755.79958	0.85898
753.74578	0.85819
751.69197	0.85751
749.63817	0.85687
747.58437	0.85692
745.53056	0.85778
743.47676	0.85868
741.42296	0.85932
739.36916	0.85982
737.31535	0.85993
735.26155	0.85767
733.20775	0.84850
731.15394	0.83514
729.10014	0.82951
727.04634	0.83396
724.99253	0.83778
722.93873	0.83134
720.88493	0.81406
718.83112	0.79910
716.77732	0.79961
714.72352	0.81158
712.66971	0.82420
710.61591	0.83158
708.56211	0.83331
706.50830	0.83195
704.45450	0.82984
702.40070	0.82756
700.34689	0.82467
698.29309	0.82147
696.23929	0.81896
694.18548	0.81747
692.13168	0.81675
690.07788	0.81655
688.02408	0.81654
685.97027	0.81645
683.91647	0.81611
681.86267	0.81594
679.80886	0.81653
677.75506	0.81721
675.70126	0.81720
673.64745	0.81611
671.59365	0.81424
669.53985	0.81349
667.48604	0.81568
665.43224	0.81813
663.37844	0.81914
661.32463	0.81934
659.27083	0.81895
657.21703	0.81855
655.16322	0.81817
653.10942	0.81707
651.05562	0.81569
649.00181	0.81439
646.94801	0.81311
644.89421	0.81268
642.84040	0.81284
640.78660	0.81308
638.73280	0.81325
636.67899	0.81329
634.62519	0.81389
632.57139	0.81398
630.51759	0.81229
628.46378	0.81018
626.40998	0.80924
624.35618	0.80896
622.30237	0.80791
620.24857	0.80594
618.19477	0.80361
616.14096	0.80140
614.08716	0.79930
612.03336	0.79614
609.97955	0.79174
607.92575	0.78761
605.87195	0.78435
603.81814	0.78141
601.76434	0.77788
599.71054	0.77407
597.65673	0.77119
595.60293	0.76872
593.54913	0.76705
591.49532	0.76645
589.44152	0.76500
587.38772	0.76273
585.33391	0.76073
583.28011	0.75803
581.22631	0.75476
579.17250	0.75233
577.11870	0.75077
575.06490	0.74917
573.01110	0.74662
570.95729	0.74321
568.90349	0.73925
566.84969	0.73544
564.79588	0.73274
562.74208	0.73073
560.68828	0.72818
558.63447	0.72418
556.58067	0.71993
554.52687	0.71678
552.47306	0.71320
550.41926	0.70824
548.36546	0.70236
546.31165	0.69537
544.25785	0.68753
542.20405	0.67963
540.15024	0.67260
538.09644	0.66703
536.04264	0.66274
533.98883	0.65942
531.93503	0.65724
529.88123	0.65606
527.82742	0.65580
525.77362	0.65689
523.71982	0.65814
521.66602	0.65963
519.61221	0.66235
517.55841	0.66589
515.50461	0.67131
513.45080	0.67815
511.39700	0.68379
509.34320	0.68722
507.28939	0.68889
505.23559	0.68941
503.18179	0.69051
501.12798	0.69324
499.07418	0.69485
497.02038	0.69462
494.96657	0.69423
492.91277	0.69284
490.85897	0.69029
488.80516	0.68725
486.75136	0.68300
484.69756	0.67662
482.64375	0.66690
480.58995	0.65539
478.53615	0.64344
476.48234	0.63050
474.42854	0.61789
472.37474	0.60493
470.32093	0.59280
468.26713	0.58430
466.21333	0.57809
464.15953	0.57511
462.10572	0.57668
460.05192	0.58062
457.99812	0.58686
455.94431	0.59466
453.89051	0.59895
451.83671	0.60003
449.78290	0.60203
447.72910	0.60609
445.67530	0.60856
443.62149	0.60639
441.56769	0.60428
439.51389	0.60583
437.46008	0.60634
435.40628	0.60348
433.35248	0.59956
431.29867	0.59563
429.24487	0.59313
427.19107	0.59401
425.13726	0.59854
423.08346	0.60377
421.02966	0.60498
418.97585	0.60187
416.92205	0.60347
414.86825	0.61067
412.81445	0.61829
410.76064	0.62483
408.70684	0.62740
406.65304	0.62865
404.59923	0.63650
402.54543	0.64732
400.49163	0.65006
398.43782	0.64771
