3996.70104	0.96252
3994.64724	0.96288
3992.59344	0.96303
3990.53964	0.96315
3988.48583	0.96334
3986.43203	0.96322
3984.37823	0.96283
3982.32442	0.96259
3980.27062	0.96230
3978.21682	0.96191
3976.16301	0.96190
3974.10921	0.96251
3972.05541	0.96333
3970.00160	0.96372
3967.94780	0.96329
3965.89400	0.96253
3963.84019	0.96258
3961.78639	0.96325
3959.73259	0.96354
3957.67878	0.96348
3955.62498	0.96327
3953.57118	0.96292
3951.51737	0.96297
3949.46357	0.96355
3947.40977	0.96420
3945.35596	0.96453
3943.30216	0.96440
3941.24836	0.96424
3939.19455	0.96432
3937.14075	0.96412
3935.08695	0.96381
3933.03315	0.96356
3930.97934	0.96299
3928.92554	0.96256
3926.87174	0.96262
3924.81793	0.96300
3922.76413	0.96346
3920.71033	0.96340
3918.65652	0.96316
3916.60272	0.96336
3914.54892	0.96328
3912.49511	0.96287
3910.44131	0.96288
3908.38751	0.96337
3906.33370	0.96380
3904.27990	0.96377
3902.22610	0.96362
3900.17229	0.96366
3898.11849	0.96373
3896.06469	0.96367
3894.01088	0.96368
3891.95708	0.96378
3889.90328	0.96369
3887.84947	0.96347
3885.79567	0.96285
3883.74187	0.96215
3881.68807	0.96237
3879.63426	0.96303
3877.58046	0.96297
3875.52666	0.96280
3873.47285	0.96346
3871.41905	0.96415
3869.36525	0.96411
3867.31144	0.96399
3865.25764	0.96395
3863.20384	0.96359
3861.15003	0.96310
3859.09623	0.96309
3857.04243	0.96323
3854.98862	0.96287
3852.93482	0.96264
3850.88102	0.96304
3848.82721	0.96316
3846.77341	0.96298
3844.71961	0.96312
3842.66580	0.96376
3840.61200	0.96412
3838.55820	0.96401
3836.50439	0.96371
3834.45059	0.96311
3832.39679	0.96257
3830.34298	0.96260
3828.28918	0.96314
3826.23538	0.96381
3824.18158	0.96409
3822.12777	0.96383
3820.07397	0.96370
3818.02017	0.96418
3815.96636	0.96461
3813.91256	0.96438
3811.85876	0.96397
3809.80495	0.96382
3807.75115	0.96375
3805.69735	0.96354
3803.64354	0.96327
3801.58974	0.96308
3799.53594	0.96326
3797.48213	0.96353
3795.42833	0.96369
3793.37453	0.96406
3791.32072	0.96406
3789.26692	0.96336
3787.21312	0.96302
3785.15931	0.96359
3783.10551	0.96408
3781.05171	0.96386
3778.99790	0.96345
3776.94410	0.96335
3774.89030	0.96342
3772.83650	0.96348
3770.78269	0.96372
3768.72889	0.96407
3766.67509	0.96387
3764.62128	0.96351
3762.56748	0.96384
3760.51368	0.96412
3758.45987	0.96349
3756.40607	0.96269
3754.35227	0.96229
3752.29846	0.96194
3750.24466	0.96186
3748.19086	0.96292
3746.13705	0.96394
3744.08325	0.96366
3742.02945	0.96297
3739.97564	0.96279
3737.92184	0.96327
3735.86804	0.96465
3733.81423	0.96559
3731.76043	0.96536
3729.70663	0.96526
3727.65282	0.96555
3725.59902	0.96536
3723.54522	0.96435
3721.49141	0.96356
3719.43761	0.96346
3717.38381	0.96341
3715.33001	0.96313
3713.27620	0.96251
3711.22240	0.96181
3709.16860	0.96144
3707.11479	0.96101
3705.06099	0.96016
3703.00719	0.95863
3700.95338	0.95675
3698.89958	0.95573
3696.84578	0.95600
3694.79197	0.95672
3692.73817	0.95673
3690.68437	0.95599
3688.63056	0.95590
3686.57676	0.95646
3684.52296	0.95631
3682.46915	0.95602
3680.41535	0.95615
3678.36155	0.95604
3676.30774	0.95544
3674.25394	0.95482
3672.20014	0.95448
3670.14633	0.95495
3668.09253	0.95570
3666.03873	0.95539
3663.98492	0.95476
3661.93112	0.95458
3659.87732	0.95407
3657.82352	0.95287
3655.76971	0.95251
3653.71591	0.95316
3651.66211	0.95349
3649.60830	0.95291
3647.55450	0.95128
3645.50070	0.95047
3643.44689	0.95052
3641.39309	0.95001
3639.33929	0.94895
3637.28548	0.94848
3635.23168	0.94860
3633.17788	0.94827
3631.12407	0.94718
3629.07027	0.94611
3627.01647	0.94548
3624.96266	0.94475
3622.90886	0.94401
3620.85506	0.94351
3618.80125	0.94333
3616.74745	0.94358
3614.69365	0.94403
3612.63984	0.94400
3610.58604	0.94349
3608.53224	0.94371
3606.47844	0.94452
3604.42463	0.94486
3602.37083	0.94509
3600.31703	0.94551
3598.26322	0.94572
3596.20942	0.94579
3594.15562	0.94576
3592.10181	0.94532
3590.04801	0.94470
3587.99421	0.94442
3585.94040	0.94492
3583.88660	0.94541
3581.83280	0.94510
3579.77899	0.94473
3577.72519	0.94492
3575.67139	0.94519
3573.61758	0.94539
3571.56378	0.94541
3569.50998	0.94503
3567.45617	0.94439
3565.40237	0.94398
3563.34857	0.94357
3561.29476	0.94307
3559.24096	0.94291
3557.18716	0.94286
3555.13335	0.94249
3553.07955	0.94199
3551.02575	0.94147
3548.97195	0.94082
3546.91814	0.94036
3544.86434	0.94049
3542.81054	0.94110
3540.75673	0.94132
3538.70293	0.94084
3536.64913	0.94079
3534.59532	0.94147
3532.54152	0.94183
3530.48772	0.94174
3528.43391	0.94182
3526.38011	0.94203
3524.32631	0.94207
3522.27250	0.94201
3520.21870	0.94184
3518.16490	0.94144
3516.11109	0.94101
3514.05729	0.94080
3512.00349	0.94064
3509.94968	0.94031
3507.89588	0.94020
3505.84208	0.94065
3503.78827	0.94099
3501.73447	0.94074
3499.68067	0.94047
3497.62687	0.94043
3495.57306	0.94031
3493.51926	0.94009
3491.46546	0.93977
3489.41165	0.93923
3487.35785	0.93899
3485.30405	0.93946
3483.25024	0.93984
3481.19644	0.93939
3479.14264	0.93873
3477.08883	0.93843
3475.03503	0.93838
3472.98123	0.93853
3470.92742	0.93876
3468.87362	0.93869
3466.81982	0.93830
3464.76601	0.93839
3462.71221	0.93884
3460.65841	0.93857
3458.60460	0.93780
3456.55080	0.93744
3454.49700	0.93748
3452.44319	0.93754
3450.38939	0.93747
3448.33559	0.93698
3446.28178	0.93629
3444.22798	0.93607
3442.17418	0.93607
3440.12038	0.93581
3438.06657	0.93545
3436.01277	0.93527
3433.95897	0.93526
3431.90516	0.93541
3429.85136	0.93578
3427.79756	0.93597
3425.74375	0.93577
3423.68995	0.93547
3421.63615	0.93519
3419.58234	0.93516
3417.52854	0.93552
3415.47474	0.93535
3413.42093	0.93458
3411.36713	0.93425
3409.31333	0.93417
3407.25952	0.93400
3405.20572	0.93394
3403.15192	0.93387
3401.09811	0.93407
3399.04431	0.93465
3396.99051	0.93479
3394.93670	0.93433
3392.88290	0.93389
3390.82910	0.93368
3388.77529	0.93355
3386.72149	0.93335
3384.66769	0.93329
3382.61389	0.93325
3380.56008	0.93320
3378.50628	0.93361
3376.45248	0.93404
3374.39867	0.93413
3372.34487	0.93419
3370.29107	0.93444
3368.23726	0.93463
3366.18346	0.93462
3364.12966	0.93480
3362.07585	0.93495
3360.02205	0.93470
3357.96825	0.93465
3355.91444	0.93507
3353.86064	0.93538
3351.80684	0.93534
3349.75303	0.93526
3347.69923	0.93537
3345.64543	0.93545
3343.59162	0.93518
3341.53782	0.93496
3339.48402	0.93529
3337.43021	0.93568
3335.37641	0.93573
3333.32261	0.93583
3331.26881	0.93584
3329.21500	0.93521
3327.16120	0.93456
3325.10740	0.93489
3323.05359	0.93569
3320.99979	0.93605
3318.94599	0.93599
3316.89218	0.93586
3314.83838	0.93590
3312.78458	0.93614
3310.73077	0.93655
3308.67697	0.93694
3306.62317	0.93726
3304.56936	0.93738
3302.51556	0.93725
3300.46176	0.93735
3298.40795	0.93804
3296.35415	0.93865
3294.30035	0.93829
3292.24654	0.93719
3290.19274	0.93667
3288.13894	0.93705
3286.08513	0.93741
3284.03133	0.93758
3281.97753	0.93785
3279.92372	0.93814
3277.86992	0.93844
3275.81612	0.93847
3273.76232	0.93795
3271.70851	0.93768
3269.65471	0.93807
3267.60091	0.93868
3265.54710	0.93919
3263.49330	0.93921
3261.43950	0.93883
3259.38569	0.93866
3257.33189	0.93870
3255.27809	0.93865
3253.22428	0.93900
3251.17048	0.93965
3249.11668	0.93981
3247.06287	0.93958
3245.00907	0.93960
3242.95527	0.94003
3240.90146	0.94039
3238.84766	0.94027
3236.79386	0.94017
3234.74005	0.94033
3232.68625	0.94034
3230.63245	0.94049
3228.57864	0.94100
3226.52484	0.94144
3224.47104	0.94145
3222.41724	0.94110
3220.36343	0.94089
3218.30963	0.94114
3216.25583	0.94168
3214.20202	0.94218
3212.14822	0.94233
3210.09442	0.94209
3208.04061	0.94191
3205.98681	0.94208
3203.93301	0.94237
3201.87920	0.94248
3199.82540	0.94238
3197.77160	0.94256
3195.71779	0.94332
3193.66399	0.94413
3191.61019	0.94462
3189.55638	0.94483
3187.50258	0.94456
3185.44878	0.94410
3183.39497	0.94388
3181.34117	0.94386
3179.28737	0.94422
3177.23356	0.94477
3175.17976	0.94498
3173.12596	0.94505
3171.07215	0.94538
3169.01835	0.94562
3166.96455	0.94548
3164.91075	0.94534
3162.85694	0.94551
3160.80314	0.94579
3158.74934	0.94616
3156.69553	0.94675
3154.64173	0.94738
3152.58793	0.94782
3150.53412	0.94788
3148.48032	0.94769
3146.42652	0.94740
3144.37271	0.94707
3142.31891	0.94711
3140.26511	0.94765
3138.21130	0.94820
3136.15750	0.94817
3134.10370	0.94766
3132.04989	0.94747
3129.99609	0.94778
3127.94229	0.94815
3125.88848	0.94848
3123.83468	0.94865
3121.78088	0.94855
3119.72707	0.94848
3117.67327	0.94879
3115.61947	0.94908
3113.56566	0.94885
3111.51186	0.94858
3109.45806	0.94867
3107.40426	0.94870
3105.35045	0.94876
3103.29665	0.94897
3101.24285	0.94908
3099.18904	0.94913
3097.13524	0.94917
3095.08144	0.94903
3093.02763	0.94886
3090.97383	0.94870
3088.92003	0.94826
3086.86622	0.94737
3084.81242	0.94615
3082.75862	0.94522
3080.70481	0.94513
3078.65101	0.94577
3076.59721	0.94660
3074.54340	0.94722
3072.48960	0.94763
3070.43580	0.94769
3068.38199	0.94718
3066.32819	0.94614
3064.27439	0.94490
3062.22058	0.94388
3060.16678	0.94338
3058.11298	0.94343
3056.05918	0.94393
3054.00537	0.94484
3051.95157	0.94571
3049.89777	0.94638
3047.84396	0.94725
3045.79016	0.94825
3043.73636	0.94900
3041.68255	0.94926
3039.62875	0.94884
3037.57495	0.94790
3035.52114	0.94674
3033.46734	0.94542
3031.41354	0.94334
3029.35973	0.94000
3027.30593	0.93639
3025.25213	0.93435
3023.19832	0.93506
3021.14452	0.93774
3019.09072	0.94096
3017.03691	0.94405
3014.98311	0.94625
3012.92931	0.94762
3010.87550	0.94865
3008.82170	0.94913
3006.76790	0.94924
3004.71409	0.94922
3002.66029	0.94879
3000.60649	0.94822
2998.55269	0.94841
2996.49888	0.94946
2994.44508	0.95063
2992.39128	0.95142
2990.33747	0.95168
2988.28367	0.95155
2986.22987	0.95165
2984.17606	0.95228
2982.12226	0.95288
2980.06846	0.95308
2978.01465	0.95320
2975.96085	0.95317
2973.90705	0.95285
2971.85324	0.95274
2969.79944	0.95293
2967.74564	0.95286
2965.69183	0.95235
2963.63803	0.95176
2961.58423	0.95146
2959.53042	0.95147
2957.47662	0.95146
2955.42282	0.95094
2953.36901	0.94999
2951.31521	0.94934
2949.26141	0.94922
2947.20761	0.94902
2945.15380	0.94808
2943.10000	0.94697
2941.04620	0.94624
2938.99239	0.94515
2936.93859	0.94339
2934.88479	0.94151
2932.83098	0.93953
2930.77718	0.93738
2928.72338	0.93545
2926.66957	0.93370
2924.61577	0.93215
2922.56197	0.93110
2920.50816	0.93026
2918.45436	0.92984
2916.40056	0.93025
2914.34675	0.93108
2912.29295	0.93198
2910.23915	0.93323
2908.18534	0.93478
2906.13154	0.93623
2904.07774	0.93752
2902.02393	0.93889
2899.97013	0.94004
2897.91633	0.94057
2895.86252	0.94111
2893.80872	0.94212
2891.75492	0.94308
2889.70112	0.94377
2887.64731	0.94469
2885.59351	0.94591
2883.53971	0.94674
2881.48590	0.94722
2879.43210	0.94775
2877.37830	0.94804
2875.32449	0.94811
2873.27069	0.94848
2871.21689	0.94910
2869.16308	0.94941
2867.10928	0.94933
2865.05548	0.94907
2863.00167	0.94864
2860.94787	0.94803
2858.89407	0.94720
2856.84026	0.94620
2854.78646	0.94500
2852.73266	0.94357
2850.67885	0.94263
2848.62505	0.94280
2846.57125	0.94352
2844.51744	0.94404
2842.46364	0.94490
2840.40984	0.94654
2838.35603	0.94827
2836.30223	0.94951
2834.24843	0.95026
2832.19463	0.95067
2830.14082	0.95127
2828.08702	0.95216
2826.03322	0.95264
2823.97941	0.95274
2821.92561	0.95302
2819.87181	0.95344
2817.81800	0.95361
2815.76420	0.95343
2813.71040	0.95335
2811.65659	0.95344
2809.60279	0.95363
2807.54899	0.95395
2805.49518	0.95406
2803.44138	0.95391
2801.38758	0.95400
2799.33377	0.95422
2797.27997	0.95440
2795.22617	0.95467
2793.17236	0.95479
2791.11856	0.95473
2789.06476	0.95461
2787.01095	0.95445
2784.95715	0.95447
2782.90335	0.95472
2780.84955	0.95488
2778.79574	0.95489
2776.74194	0.95494
2774.68814	0.95497
2772.63433	0.95486
2770.58053	0.95500
2768.52673	0.95543
2766.47292	0.95578
2764.41912	0.95589
2762.36532	0.95572
2760.31151	0.95561
2758.25771	0.95576
2756.20391	0.95600
2754.15010	0.95618
2752.09630	0.95609
2750.04250	0.95585
2747.98869	0.95589
2745.93489	0.95610
2743.88109	0.95612
2741.82728	0.95596
2739.77348	0.95590
2737.71968	0.95626
2735.66587	0.95683
2733.61207	0.95690
2731.55827	0.95639
2729.50446	0.95581
2727.45066	0.95537
2725.39686	0.95529
2723.34306	0.95583
2721.28925	0.95661
2719.23545	0.95685
2717.18165	0.95647
2715.12784	0.95618
2713.07404	0.95635
2711.02024	0.95665
2708.96643	0.95678
2706.91263	0.95662
2704.85883	0.95628
2702.80502	0.95610
2700.75122	0.95640
2698.69742	0.95697
2696.64361	0.95733
2694.58981	0.95729
2692.53601	0.95688
2690.48220	0.95669
2688.42840	0.95694
2686.37460	0.95700
2684.32079	0.95687
2682.26699	0.95695
2680.21319	0.95710
2678.15938	0.95726
2676.10558	0.95732
2674.05178	0.95718
2671.99797	0.95701
2669.94417	0.95689
2667.89037	0.95668
2665.83657	0.95649
2663.78276	0.95642
2661.72896	0.95637
2659.67516	0.95644
2657.62135	0.95672
2655.56755	0.95694
2653.51375	0.95688
2651.45994	0.95684
2649.40614	0.95690
2647.35234	0.95681
2645.29853	0.95667
2643.24473	0.95677
2641.19093	0.95686
2639.13712	0.95670
2637.08332	0.95668
2635.02952	0.95698
2632.97571	0.95735
2630.92191	0.95752
2628.86811	0.95721
2626.81430	0.95642
2624.76050	0.95613
2622.70670	0.95688
2620.65289	0.95768
2618.59909	0.95786
2616.54529	0.95754
2614.49149	0.95685
2612.43768	0.95628
2610.38388	0.95621
2608.33008	0.95661
2606.27627	0.95719
2604.22247	0.95750
2602.16867	0.95748
2600.11486	0.95728
2598.06106	0.95685
2596.00726	0.95663
2593.95345	0.95714
2591.89965	0.95759
2589.84585	0.95743
2587.79204	0.95759
2585.73824	0.95819
2583.68444	0.95842
2581.63063	0.95840
2579.57683	0.95838
2577.52303	0.95836
2575.46922	0.95832
2573.41542	0.95803
2571.36162	0.95774
2569.30781	0.95751
2567.25401	0.95729
2565.20021	0.95779
2563.14640	0.95860
2561.09260	0.95883
2559.03880	0.95856
2556.98500	0.95805
2554.93119	0.95778
2552.87739	0.95793
2550.82359	0.95805
2548.76978	0.95836
2546.71598	0.95885
2544.66218	0.95896
2542.60837	0.95866
2540.55457	0.95819
2538.50077	0.95799
2536.44696	0.95819
2534.39316	0.95842
2532.33936	0.95863
2530.28555	0.95898
2528.23175	0.95930
2526.17795	0.95926
2524.12414	0.95869
2522.07034	0.95805
2520.01654	0.95793
2517.96273	0.95837
2515.90893	0.95881
2513.85513	0.95863
2511.80132	0.95840
2509.74752	0.95863
2507.69372	0.95917
2505.63992	0.95943
2503.58611	0.95906
2501.53231	0.95859
2499.47851	0.95863
2497.42470	0.95871
2495.37090	0.95813
2493.31710	0.95763
2491.26329	0.95768
2489.20949	0.95786
2487.15569	0.95835
2485.10188	0.95918
2483.04808	0.95934
2480.99428	0.95861
2478.94047	0.95807
2476.88667	0.95855
2474.83287	0.95961
2472.77906	0.96018
2470.72526	0.96016
2468.67146	0.95982
2466.61765	0.95914
2464.56385	0.95871
2462.51005	0.95884
2460.45624	0.95897
2458.40244	0.95908
2456.34864	0.95912
2454.29483	0.95849
2452.24103	0.95761
2450.18723	0.95749
2448.13343	0.95774
2446.07962	0.95786
2444.02582	0.95836
2441.97202	0.95933
2439.91821	0.96009
2437.86441	0.95988
2435.81061	0.95914
2433.75680	0.95873
2431.70300	0.95859
2429.64920	0.95868
2427.59539	0.95896
2425.54159	0.95921
2423.48779	0.95935
2421.43398	0.95929
2419.38018	0.95907
2417.32638	0.95908
2415.27257	0.95904
2413.21877	0.95878
2411.16497	0.95888
2409.11116	0.95912
2407.05736	0.95932
2405.00356	0.95972
2402.94975	0.96003
2400.89595	0.96001
2398.84215	0.95985
2396.78834	0.95945
2394.73454	0.95879
2392.68074	0.95831
2390.62694	0.95830
2388.57313	0.95870
2386.51933	0.95926
2384.46553	0.95997
2382.41172	0.96031
2380.35792	0.95967
2378.30412	0.95889
2376.25031	0.95867
2374.19651	0.95848
2372.14271	0.95810
2370.08890	0.95716
2368.03510	0.95628
2365.98130	0.95647
2363.92749	0.95662
2361.87369	0.95753
2359.81989	0.95938
2357.76608	0.95954
2355.71228	0.95880
2353.65848	0.95856
2351.60467	0.95842
2349.55087	0.95805
2347.49707	0.95710
2345.44326	0.95582
2343.38946	0.95525
2341.33566	0.95574
2339.28186	0.95654
2337.22805	0.95726
2335.17425	0.95780
2333.12045	0.95810
2331.06664	0.95849
2329.01284	0.95890
2326.95904	0.95876
2324.90523	0.95753
2322.85143	0.95595
2320.79763	0.95550
2318.74382	0.95617
2316.69002	0.95710
2314.63622	0.95758
2312.58241	0.95751
2310.52861	0.95783
2308.47481	0.95892
2306.42100	0.95956
2304.36720	0.95942
2302.31340	0.95936
2300.25959	0.95889
2298.20579	0.95800
2296.15199	0.95758
2294.09818	0.95734
2292.04438	0.95720
2289.99058	0.95758
2287.93677	0.95799
2285.88297	0.95773
2283.82917	0.95747
2281.77537	0.95833
2279.72156	0.95987
2277.66776	0.96063
2275.61396	0.96030
2273.56015	0.95932
2271.50635	0.95796
2269.45255	0.95711
2267.39874	0.95723
2265.34494	0.95782
2263.29114	0.95870
2261.23733	0.95939
2259.18353	0.95905
2257.12973	0.95804
2255.07592	0.95777
2253.02212	0.95794
2250.96832	0.95743
2248.91451	0.95764
2246.86071	0.95895
2244.80691	0.95941
2242.75310	0.95945
2240.69930	0.96013
2238.64550	0.96051
2236.59169	0.95952
2234.53789	0.95790
2232.48409	0.95666
2230.43029	0.95518
2228.37648	0.95424
2226.32268	0.95568
2224.26888	0.95809
2222.21507	0.95896
2220.16127	0.95873
2218.10747	0.95817
2216.05366	0.95673
2213.99986	0.95540
2211.94606	0.95625
2209.89225	0.95832
2207.83845	0.95913
2205.78465	0.95837
2203.73084	0.95686
2201.67704	0.95642
2199.62324	0.95780
2197.56943	0.95910
2195.51563	0.95891
2193.46183	0.95825
2191.40802	0.95915
2189.35422	0.96118
2187.30042	0.96253
2185.24661	0.96238
2183.19281	0.96115
2181.13901	0.96064
2179.08520	0.96072
2177.03140	0.95840
2174.97760	0.95526
2172.92380	0.95418
2170.86999	0.95417
2168.81619	0.95511
2166.76239	0.95624
2164.70858	0.95680
2162.65478	0.95712
2160.60098	0.95825
2158.54717	0.96105
2156.49337	0.96269
2154.43957	0.96129
2152.38576	0.95885
2150.33196	0.95905
2148.27816	0.96112
2146.22435	0.96102
2144.17055	0.95949
2142.11675	0.95960
2140.06294	0.96092
2138.00914	0.96235
2135.95534	0.96382
2133.90153	0.96432
2131.84773	0.96363
2129.79393	0.96373
2127.74012	0.96430
2125.68632	0.96251
2123.63252	0.95982
2121.57871	0.95871
2119.52491	0.95813
2117.47111	0.95781
2115.41731	0.95809
2113.36350	0.95883
2111.30970	0.95994
2109.25590	0.96041
2107.20209	0.96037
2105.14829	0.96094
2103.09449	0.96168
2101.04068	0.96175
2098.98688	0.96104
2096.93308	0.96014
2094.87927	0.95986
2092.82547	0.96048
2090.77167	0.96127
2088.71786	0.96175
2086.66406	0.96198
2084.61026	0.96151
2082.55645	0.96071
2080.50265	0.96116
2078.44885	0.96217
2076.39504	0.96184
2074.34124	0.96141
2072.28744	0.96223
2070.23363	0.96272
2068.17983	0.96165
2066.12603	0.96009
2064.07223	0.95966
2062.01842	0.95976
2059.96462	0.95928
2057.91082	0.95928
2055.85701	0.96043
2053.80321	0.96149
2051.74941	0.96133
2049.69560	0.96048
2047.64180	0.96012
2045.58800	0.95909
2043.53419	0.95736
2041.48039	0.95758
2039.42659	0.95948
2037.37278	0.95997
2035.31898	0.95789
2033.26518	0.95528
2031.21137	0.95466
2029.15757	0.95645
2027.10377	0.95781
2025.04996	0.95806
2022.99616	0.95978
2020.94236	0.96236
2018.88855	0.96382
2016.83475	0.96299
2014.78095	0.95960
2012.72714	0.95663
2010.67334	0.95694
2008.61954	0.96017
2006.56574	0.96461
2004.51193	0.96708
2002.45813	0.96611
2000.40433	0.96433
1998.35052	0.96362
1996.29672	0.96308
1994.24292	0.96216
1992.18911	0.96110
1990.13531	0.96086
1988.08151	0.96150
1986.02770	0.96034
1983.97390	0.95832
1981.92010	0.95767
1979.86629	0.95704
1977.81249	0.95683
1975.75869	0.95869
1973.70488	0.96171
1971.65108	0.96325
1969.59728	0.96234
1967.54347	0.96135
1965.48967	0.96192
1963.43587	0.96279
1961.38206	0.96257
1959.32826	0.96149
1957.27446	0.96076
1955.22066	0.96111
1953.16685	0.96136
1951.11305	0.96067
1949.05925	0.96120
1947.00544	0.96295
1944.95164	0.96309
1942.89784	0.96192
1940.84403	0.96100
1938.79023	0.96029
1936.73643	0.95996
1934.68262	0.95957
1932.62882	0.95843
1930.57502	0.95789
1928.52121	0.95881
1926.46741	0.96002
1924.41361	0.96084
1922.35980	0.96108
1920.30600	0.96087
1918.25220	0.96104
1916.19839	0.96177
1914.14459	0.96210
1912.09079	0.96185
1910.03698	0.96141
1907.98318	0.96035
1905.92938	0.95922
1903.87557	0.95921
1901.82177	0.95981
1899.76797	0.96003
1897.71417	0.95974
1895.66036	0.95977
1893.60656	0.96062
1891.55276	0.96133
1889.49895	0.96167
1887.44515	0.96193
1885.39135	0.96149
1883.33754	0.96049
1881.28374	0.95965
1879.22994	0.95940
1877.17613	0.95955
1875.12233	0.95937
1873.06853	0.95893
1871.01472	0.95868
1868.96092	0.95856
1866.90712	0.95855
1864.85331	0.95913
1862.79951	0.96038
1860.74571	0.96150
1858.69190	0.96170
1856.63810	0.96127
1854.58430	0.96129
1852.53049	0.96164
1850.47669	0.96142
1848.42289	0.96117
1846.36908	0.96148
1844.31528	0.96166
1842.26148	0.96136
1840.20768	0.96080
1838.15387	0.96028
1836.10007	0.96023
1834.04627	0.96051
1831.99246	0.96083
1829.93866	0.96115
1827.88486	0.96147
1825.83105	0.96149
1823.77725	0.96090
1821.72345	0.96029
1819.66964	0.96014
1817.61584	0.96013
1815.56204	0.95993
1813.50823	0.95977
1811.45443	0.95961
1809.40063	0.95925
1807.34682	0.95912
1805.29302	0.95925
1803.23922	0.95951
1801.18541	0.95977
1799.13161	0.95956
1797.07781	0.95909
1795.02400	0.95927
1792.97020	0.96013
1790.91640	0.96011
1788.86260	0.95918
1786.80879	0.95874
1784.75499	0.95910
1782.70119	0.95983
1780.64738	0.96025
1778.59358	0.96031
1776.53978	0.96038
1774.48597	0.96044
1772.43217	0.96035
1770.37837	0.96001
1768.32456	0.95955
1766.27076	0.95933
1764.21696	0.95949
1762.16315	0.95972
1760.10935	0.95967
1758.05555	0.95927
1756.00174	0.95885
1753.94794	0.95878
1751.89414	0.95907
1749.84033	0.95927
1747.78653	0.95857
1745.73273	0.95746
1743.67892	0.95688
1741.62512	0.95690
1739.57132	0.95673
1737.51751	0.95645
1735.46371	0.95684
1733.40991	0.95744
1731.35611	0.95729
1729.30230	0.95706
1727.24850	0.95714
1725.19470	0.95720
1723.14089	0.95690
1721.08709	0.95656
1719.03329	0.95658
1716.97948	0.95694
1714.92568	0.95716
1712.87188	0.95712
1710.81807	0.95692
1708.76427	0.95669
1706.71047	0.95625
1704.65666	0.95555
1702.60286	0.95522
1700.54906	0.95498
1698.49525	0.95417
1696.44145	0.95373
1694.38765	0.95373
1692.33384	0.95342
1690.28004	0.95279
1688.22624	0.95225
1686.17243	0.95194
1684.11863	0.95085
1682.06483	0.94914
1680.01103	0.94803
1677.95722	0.94719
1675.90342	0.94663
1673.84962	0.94635
1671.79581	0.94591
1669.74201	0.94512
1667.68821	0.94458
1665.63440	0.94444
1663.58060	0.94411
1661.52680	0.94347
1659.47299	0.94296
1657.41919	0.94262
1655.36539	0.94226
1653.31158	0.94192
1651.25778	0.94164
1649.20398	0.94113
1647.15017	0.94084
1645.09637	0.94149
1643.04257	0.94193
1640.98876	0.94165
1638.93496	0.94135
1636.88116	0.94136
1634.82735	0.94122
1632.77355	0.94109
1630.71975	0.94130
1628.66594	0.94156
1626.61214	0.94171
1624.55834	0.94202
1622.50454	0.94243
1620.45073	0.94262
1618.39693	0.94289
1616.34313	0.94333
1614.28932	0.94364
1612.23552	0.94387
1610.18172	0.94353
1608.12791	0.94180
1606.07411	0.93857
1604.02031	0.93454
1601.96650	0.93111
1599.91270	0.93039
1597.85890	0.93294
1595.80509	0.93682
1593.75129	0.93992
1591.69749	0.94168
1589.64368	0.94281
1587.58988	0.94348
1585.53608	0.94315
1583.48227	0.94250
1581.42847	0.94289
1579.37467	0.94403
1577.32086	0.94501
1575.26706	0.94611
1573.21326	0.94716
1571.15945	0.94776
1569.10565	0.94824
1567.05185	0.94869
1564.99805	0.94888
1562.94424	0.94863
1560.89044	0.94825
1558.83664	0.94864
1556.78283	0.94923
1554.72903	0.94903
1552.67523	0.94891
1550.62142	0.94911
1548.56762	0.94906
1546.51382	0.94861
1544.46001	0.94829
1542.40621	0.94834
1540.35241	0.94862
1538.29860	0.94927
1536.24480	0.94981
1534.19100	0.94988
1532.13719	0.94961
1530.08339	0.94974
1528.02959	0.95049
1525.97578	0.95150
1523.92198	0.95205
1521.86818	0.95202
1519.81437	0.95199
1517.76057	0.95186
1515.70677	0.95137
1513.65297	0.95113
1511.59916	0.95141
1509.54536	0.95185
1507.49156	0.95182
1505.43775	0.95155
1503.38395	0.95125
1501.33015	0.95003
1499.27634	0.94648
1497.22254	0.93611
1495.16874	0.91891
1493.11493	0.90654
1491.06113	0.90591
1489.00733	0.91694
1486.95352	0.92854
1484.89972	0.93480
1482.84592	0.93827
1480.79211	0.94063
1478.73831	0.94230
1476.68451	0.94348
1474.63070	0.94423
1472.57690	0.94438
1470.52310	0.94405
1468.46929	0.94381
1466.41549	0.94376
1464.36169	0.94356
1462.30788	0.94308
1460.25408	0.94202
1458.20028	0.93692
1456.14648	0.92218
1454.09267	0.90724
1452.03887	0.89943
1449.98507	0.89959
1447.93126	0.90533
1445.87746	0.91139
1443.82366	0.91614
1441.76985	0.92041
1439.71605	0.92426
1437.66225	0.92775
1435.60844	0.93072
1433.55464	0.93269
1431.50084	0.93428
1429.44703	0.93593
1427.39323	0.93730
1425.33943	0.93811
1423.28562	0.93872
1421.23182	0.93933
1419.17802	0.94005
1417.12421	0.94129
1415.07041	0.94255
1413.01661	0.94332
1410.96280	0.94372
1408.90900	0.94420
1406.85520	0.94492
1404.80139	0.94561
1402.74759	0.94599
1400.69379	0.94641
1398.63999	0.94686
1396.58618	0.94728
1394.53238	0.94793
1392.47858	0.94826
1390.42477	0.94820
1388.37097	0.94796
1386.31717	0.94738
1384.26336	0.94683
1382.20956	0.94644
1380.15576	0.94591
1378.10195	0.94527
1376.04815	0.94467
1373.99435	0.94403
1371.94054	0.94375
1369.88674	0.94400
1367.83294	0.94438
1365.77913	0.94467
1363.72533	0.94484
1361.67153	0.94501
1359.61772	0.94527
1357.56392	0.94579
1355.51012	0.94650
1353.45631	0.94695
1351.40251	0.94703
1349.34871	0.94714
1347.29491	0.94750
1345.24110	0.94784
1343.18730	0.94797
1341.13350	0.94816
1339.07969	0.94838
1337.02589	0.94837
1334.97209	0.94845
1332.91828	0.94848
1330.86448	0.94796
1328.81068	0.94739
1326.75687	0.94757
1324.70307	0.94811
1322.64927	0.94840
1320.59546	0.94838
1318.54166	0.94816
1316.48786	0.94800
1314.43405	0.94797
1312.38025	0.94804
1310.32645	0.94828
1308.27264	0.94865
1306.21884	0.94877
1304.16504	0.94866
1302.11123	0.94894
1300.05743	0.94941
1298.00363	0.94954
1295.94982	0.94952
1293.89602	0.94939
1291.84222	0.94926
1289.78842	0.94938
1287.73461	0.94942
1285.68081	0.94932
1283.62701	0.94936
1281.57320	0.94928
1279.51940	0.94910
1277.46560	0.94942
1275.41179	0.94981
1273.35799	0.94962
1271.30419	0.94929
1269.25038	0.94921
1267.19658	0.94919
1265.14278	0.94915
1263.08897	0.94913
1261.03517	0.94913
1258.98137	0.94906
1256.92756	0.94881
1254.87376	0.94858
1252.81996	0.94850
1250.76615	0.94856
1248.71235	0.94865
1246.65855	0.94843
1244.60474	0.94789
1242.55094	0.94765
1240.49714	0.94762
1238.44334	0.94744
1236.38953	0.94725
1234.33573	0.94678
1232.28193	0.94602
1230.22812	0.94554
1228.17432	0.94543
1226.12052	0.94515
1224.06671	0.94435
1222.01291	0.94307
1219.95911	0.94180
1217.90530	0.94085
1215.85150	0.93992
1213.79770	0.93866
1211.74389	0.93701
1209.69009	0.93496
1207.63629	0.93266
1205.58248	0.93049
1203.52868	0.92871
1201.47488	0.92695
1199.42107	0.92470
1197.36727	0.92222
1195.31347	0.92010
1193.25966	0.91807
1191.20586	0.91556
1189.15206	0.91278
1187.09825	0.91000
1185.04445	0.90700
1182.99065	0.90359
1180.93685	0.90033
1178.88304	0.89795
1176.82924	0.89625
1174.77544	0.89443
1172.72163	0.89233
1170.66783	0.89025
1168.61403	0.88833
1166.56022	0.88644
1164.50642	0.88431
1162.45262	0.88233
1160.39881	0.88076
1158.34501	0.87902
1156.29121	0.87697
1154.23740	0.87484
1152.18360	0.87297
1150.12980	0.87174
1148.07599	0.87123
1146.02219	0.87101
1143.96839	0.87045
1141.91458	0.86917
1139.86078	0.86744
1137.80698	0.86589
1135.75317	0.86445
1133.69937	0.86268
1131.64557	0.86060
1129.59176	0.85826
1127.53796	0.85553
1125.48416	0.85254
1123.43036	0.84927
1121.37655	0.84559
1119.32275	0.84148
1117.26895	0.83690
1115.21514	0.83181
1113.16134	0.82670
1111.10754	0.82213
1109.05373	0.81817
1106.99993	0.81491
1104.94613	0.81231
1102.89232	0.80986
1100.83852	0.80724
1098.78472	0.80468
1096.73091	0.80226
1094.67711	0.79967
1092.62331	0.79736
1090.56950	0.79597
1088.51570	0.79522
1086.46190	0.79401
1084.40809	0.79206
1082.35429	0.78998
1080.30049	0.78780
1078.24668	0.78556
1076.19288	0.78355
1074.13908	0.78123
1072.08528	0.77798
1070.03147	0.77444
1067.97767	0.77135
1065.92387	0.76856
1063.87006	0.76573
1061.81626	0.76270
1059.76246	0.75935
1057.70865	0.75589
1055.65485	0.75226
1053.60105	0.74825
1051.54724	0.74386
1049.49344	0.73855
1047.43964	0.73219
1045.38583	0.72564
1043.33203	0.71921
1041.27823	0.71222
1039.22442	0.70468
1037.17062	0.69719
1035.11682	0.68947
1033.06301	0.68119
1031.00921	0.67299
1028.95541	0.66599
1026.90160	0.66095
1024.84780	0.65788
1022.79400	0.65623
1020.74019	0.65463
1018.68639	0.65223
1016.63259	0.64979
1014.57879	0.64778
1012.52498	0.64570
1010.47118	0.64319
1008.41738	0.64036
1006.36357	0.63782
1004.30977	0.63609
1002.25597	0.63555
1000.20216	0.63644
998.14836	0.63836
996.09456	0.64069
994.04075	0.64315
991.98695	0.64570
989.93315	0.64864
987.87934	0.65224
985.82554	0.65639
983.77174	0.66089
981.71793	0.66601
979.66413	0.67245
977.61033	0.68016
975.55652	0.68871
973.50272	0.69768
971.44892	0.70659
969.39511	0.71527
967.34131	0.72337
965.28751	0.73068
963.23371	0.73764
961.17990	0.74452
959.12610	0.75120
957.07230	0.75770
955.01849	0.76383
952.96469	0.76908
950.91089	0.77350
948.85708	0.77753
946.80328	0.78112
944.74948	0.78466
942.69567	0.78854
940.64187	0.79215
938.58807	0.79500
936.53426	0.79749
934.48046	0.80049
932.42666	0.80388
930.37285	0.80666
928.31905	0.80872
926.26525	0.81088
924.21144	0.81292
922.15764	0.81383
920.10384	0.81384
918.05003	0.81349
915.99623	0.81213
913.94243	0.80997
911.88862	0.80843
909.83482	0.80796
907.78102	0.80864
905.72722	0.81123
903.67341	0.81613
901.61961	0.82286
899.56581	0.83041
897.51200	0.83777
895.45820	0.84423
893.40440	0.84956
891.35059	0.85414
889.29679	0.85798
887.24299	0.86062
885.18918	0.86229
883.13538	0.86323
881.08158	0.86361
879.02777	0.86428
876.97397	0.86622
874.92017	0.86928
872.86636	0.87257
870.81256	0.87606
868.75876	0.87957
866.70495	0.88226
864.65115	0.88440
862.59735	0.88661
860.54354	0.88826
858.48974	0.88915
856.43594	0.89039
854.38213	0.89166
852.32833	0.89177
850.27453	0.89135
848.22073	0.89130
846.16692	0.89098
844.11312	0.89024
842.05932	0.89015
840.00551	0.89043
837.95171	0.88995
835.89791	0.88922
833.84410	0.88904
831.79030	0.88941
829.73650	0.88984
827.68269	0.88996
825.62889	0.89019
823.57509	0.89077
821.52128	0.89139
819.46748	0.89169
817.41368	0.89192
815.35987	0.89221
813.30607	0.89222
811.25227	0.89179
809.19846	0.88999
807.14466	0.88642
805.09086	0.88213
803.03705	0.87772
800.98325	0.87421
798.92945	0.87269
796.87565	0.87270
794.82184	0.87362
792.76804	0.87493
790.71424	0.87540
788.66043	0.87457
786.60663	0.87321
784.55283	0.87123
782.49902	0.86871
780.44522	0.86627
778.39142	0.86427
776.33761	0.86258
774.28381	0.85990
772.23001	0.85523
770.17620	0.84855
768.12240	0.84072
766.06860	0.83230
764.01479	0.82314
761.96099	0.81370
759.90719	0.80456
757.85338	0.79662
755.79958	0.79102
753.74578	0.78846
751.69197	0.78858
749.63817	0.78916
747.58437	0.78993
745.53056	0.79401
743.47676	0.80253
741.42296	0.81334
739.36916	0.82431
737.31535	0.83398
735.26155	0.84223
733.20775	0.85018
731.15394	0.85769
729.10014	0.86327
727.04634	0.86685
724.99253	0.87025
722.93873	0.87444
720.88493	0.87793
718.83112	0.88023
716.77732	0.88254
714.72352	0.88356
712.66971	0.88068
710.61591	0.87317
708.56211	0.85962
706.50830	0.83646
704.45450	0.80126
702.40070	0.75532
700.34689	0.70256
698.29309	0.64989
696.23929	0.61219
694.18548	0.60782
692.13168	0.63852
690.07788	0.68398
688.02408	0.72307
685.97027	0.75036
683.91647	0.76921
681.86267	0.78156
679.80886	0.78899
677.75506	0.79443
675.70126	0.79940
673.64745	0.80347
671.59365	0.80657
669.53985	0.80936
667.48604	0.81183
665.43224	0.81375
663.37844	0.81532
661.32463	0.81608
659.27083	0.81556
657.21703	0.81418
655.16322	0.81311
653.10942	0.81278
651.05562	0.81205
649.00181	0.81098
646.94801	0.81130
644.89421	0.81327
642.84040	0.81595
640.78660	0.81898
638.73280	0.82201
636.67899	0.82385
634.62519	0.82353
632.57139	0.82215
630.51759	0.82125
628.46378	0.82152
626.40998	0.82189
624.35618	0.81970
622.30237	0.81629
620.24857	0.81504
618.19477	0.81507
616.14096	0.81446
614.08716	0.81339
612.03336	0.81200
609.97955	0.81043
607.92575	0.80936
605.87195	0.80777
603.81814	0.80428
601.76434	0.79992
599.71054	0.79612
597.65673	0.79316
595.60293	0.79096
593.54913	0.78914
591.49532	0.78737
589.44152	0.78579
587.38772	0.78429
585.33391	0.78341
583.28011	0.78339
581.22631	0.78315
579.17250	0.78236
577.11870	0.78058
575.06490	0.77762
573.01110	0.77451
570.95729	0.77090
568.90349	0.76571
566.84969	0.75931
564.79588	0.75295
562.74208	0.74735
560.68828	0.74231
558.63447	0.73663
556.58067	0.72968
554.52687	0.72313
552.47306	0.71762
550.41926	0.71115
548.36546	0.70214
546.31165	0.69084
544.25785	0.67844
542.20405	0.66620
540.15024	0.65475
538.09644	0.64484
536.04264	0.63926
533.98883	0.63812
531.93503	0.63762
529.88123	0.63806
527.82742	0.64272
525.77362	0.65010
523.71982	0.65434
521.66602	0.65546
519.61221	0.65849
517.55841	0.66391
515.50461	0.66971
513.45080	0.67514
511.39700	0.67962
509.34320	0.68364
507.28939	0.68833
505.23559	0.69333
503.18179	0.69702
501.12798	0.69947
499.07418	0.70116
497.02038	0.70153
494.96657	0.69952
492.91277	0.69444
490.85897	0.68808
488.80516	0.68035
486.75136	0.66860
484.69756	0.65543
482.64375	0.64469
480.58995	0.63286
478.53615	0.61740
476.48234	0.60246
474.42854	0.59091
472.37474	0.58140
470.32093	0.57291
468.26713	0.56629
466.21333	0.56330
464.15953	0.56414
462.10572	0.56719
460.05192	0.57164
457.99812	0.57766
455.94431	0.58336
453.89051	0.58835
451.83671	0.59567
449.78290	0.60260
447.72910	0.60525
445.67530	0.60617
443.62149	0.60903
441.56769	0.61391
439.51389	0.61653
437.46008	0.61533
435.40628	0.61109
433.35248	0.60434
431.29867	0.59739
429.24487	0.59142
427.19107	0.58699
425.13726	0.58720
423.08346	0.59566
421.02966	0.60752
418.97585	0.61478
416.92205	0.61724
414.86825	0.61830
412.81445	0.61838
410.76064	0.62021
408.70684	0.62464
406.65304	0.62971
404.59923	0.63476
402.54543	0.63451
400.49163	0.62706
398.43782	0.62415
