3996.71440	0.98425
3994.66059	0.98450
3992.60678	0.98440
3990.55297	0.98426
3988.49916	0.98425
3986.44535	0.98394
3984.39154	0.98359
3982.33773	0.98345
3980.28391	0.98347
3978.23010	0.98385
3976.17629	0.98452
3974.12248	0.98482
3972.06867	0.98459
3970.01486	0.98438
3967.96105	0.98436
3965.90724	0.98442
3963.85343	0.98455
3961.79962	0.98458
3959.74581	0.98450
3957.69200	0.98441
3955.63819	0.98430
3953.58438	0.98431
3951.53057	0.98444
3949.47676	0.98438
3947.42295	0.98434
3945.36914	0.98461
3943.31533	0.98482
3941.26152	0.98453
3939.20771	0.98405
3937.15390	0.98387
3935.10009	0.98389
3933.04628	0.98404
3930.99247	0.98434
3928.93866	0.98435
3926.88485	0.98390
3924.83104	0.98347
3922.77723	0.98344
3920.72342	0.98376
3918.66961	0.98414
3916.61580	0.98428
3914.56199	0.98433
3912.50818	0.98438
3910.45437	0.98437
3908.40056	0.98437
3906.34675	0.98444
3904.29294	0.98439
3902.23913	0.98427
3900.18532	0.98449
3898.13151	0.98463
3896.07770	0.98443
3894.02389	0.98402
3891.97008	0.98359
3889.91627	0.98357
3887.86246	0.98384
3885.80865	0.98385
3883.75484	0.98369
3881.70103	0.98393
3879.64722	0.98447
3877.59341	0.98463
3875.53960	0.98460
3873.48579	0.98461
3871.43198	0.98455
3869.37817	0.98465
3867.32436	0.98460
3865.27055	0.98416
3863.21674	0.98376
3861.16293	0.98386
3859.10912	0.98409
3857.05531	0.98394
3855.00150	0.98378
3852.94769	0.98416
3850.89388	0.98433
3848.84007	0.98433
3846.78626	0.98442
3844.73245	0.98444
3842.67864	0.98448
3840.62483	0.98456
3838.57102	0.98467
3836.51721	0.98457
3834.46340	0.98420
3832.40959	0.98419
3830.35578	0.98463
3828.30197	0.98476
3826.24816	0.98434
3824.19435	0.98397
3822.14054	0.98401
3820.08673	0.98426
3818.03292	0.98453
3815.97911	0.98492
3813.92530	0.98497
3811.87149	0.98460
3809.81768	0.98419
3807.76387	0.98399
3805.71006	0.98409
3803.65625	0.98426
3801.60244	0.98452
3799.54863	0.98484
3797.49482	0.98512
3795.44101	0.98528
3793.38720	0.98510
3791.33339	0.98472
3789.27958	0.98462
3787.22577	0.98480
3785.17196	0.98484
3783.11815	0.98476
3781.06434	0.98489
3779.01053	0.98502
3776.95672	0.98480
3774.90291	0.98454
3772.84910	0.98425
3770.79529	0.98399
3768.74148	0.98421
3766.68767	0.98444
3764.63386	0.98438
3762.58005	0.98445
3760.52624	0.98466
3758.47243	0.98489
3756.41862	0.98518
3754.36481	0.98543
3752.31100	0.98531
3750.25719	0.98500
3748.20338	0.98499
3746.14957	0.98496
3744.09576	0.98486
3742.04195	0.98468
3739.98814	0.98426
3737.93433	0.98395
3735.88052	0.98416
3733.82671	0.98459
3731.77290	0.98475
3729.71909	0.98484
3727.66528	0.98486
3725.61147	0.98455
3723.55766	0.98430
3721.50385	0.98474
3719.45004	0.98513
3717.39623	0.98477
3715.34242	0.98439
3713.28861	0.98422
3711.23480	0.98406
3709.18099	0.98448
3707.12718	0.98487
3705.07337	0.98466
3703.01956	0.98442
3700.96575	0.98450
3698.91194	0.98466
3696.85813	0.98478
3694.80432	0.98481
3692.75051	0.98453
3690.69670	0.98424
3688.64289	0.98468
3686.58907	0.98503
3684.53526	0.98477
3682.48145	0.98463
3680.42764	0.98464
3678.37383	0.98445
3676.32002	0.98444
3674.26621	0.98489
3672.21240	0.98513
3670.15859	0.98529
3668.10478	0.98532
3666.05097	0.98475
3663.99716	0.98400
3661.94335	0.98364
3659.88954	0.98376
3657.83573	0.98403
3655.78192	0.98398
3653.72811	0.98361
3651.67430	0.98371
3649.62049	0.98451
3647.56668	0.98477
3645.51287	0.98415
3643.45906	0.98349
3641.40525	0.98314
3639.35144	0.98307
3637.29763	0.98323
3635.24382	0.98354
3633.19001	0.98359
3631.13620	0.98316
3629.08239	0.98279
3627.02858	0.98297
3624.97477	0.98316
3622.92096	0.98301
3620.86715	0.98267
3618.81334	0.98253
3616.75953	0.98259
3614.70572	0.98271
3612.65191	0.98285
3610.59810	0.98303
3608.54429	0.98322
3606.49048	0.98300
3604.43667	0.98269
3602.38286	0.98251
3600.32905	0.98218
3598.27524	0.98205
3596.22143	0.98245
3594.16762	0.98285
3592.11381	0.98267
3590.06000	0.98191
3588.00619	0.98125
3585.95238	0.98149
3583.89857	0.98184
3581.84476	0.98159
3579.79095	0.98114
3577.73714	0.98113
3575.68333	0.98122
3573.62952	0.98075
3571.57571	0.98011
3569.52190	0.98000
3567.46809	0.98029
3565.41428	0.98027
3563.36047	0.97993
3561.30666	0.97981
3559.25285	0.97969
3557.19904	0.97938
3555.14523	0.97929
3553.09142	0.97940
3551.03761	0.97922
3548.98380	0.97886
3546.92999	0.97858
3544.87618	0.97813
3542.82237	0.97753
3540.76856	0.97716
3538.71475	0.97706
3536.66094	0.97702
3534.60713	0.97690
3532.55332	0.97680
3530.49951	0.97687
3528.44570	0.97691
3526.39189	0.97677
3524.33808	0.97665
3522.28427	0.97653
3520.23046	0.97638
3518.17665	0.97624
3516.12284	0.97601
3514.06903	0.97577
3512.01522	0.97562
3509.96141	0.97552
3507.90760	0.97540
3505.85379	0.97528
3503.79998	0.97511
3501.74617	0.97486
3499.69236	0.97489
3497.63855	0.97509
3495.58474	0.97492
3493.53093	0.97441
3491.47712	0.97399
3489.42331	0.97387
3487.36950	0.97399
3485.31569	0.97422
3483.26188	0.97412
3481.20807	0.97376
3479.15426	0.97348
3477.10045	0.97333
3475.04664	0.97335
3472.99283	0.97347
3470.93902	0.97364
3468.88521	0.97377
3466.83140	0.97373
3464.77759	0.97377
3462.72378	0.97391
3460.66997	0.97353
3458.61616	0.97268
3456.56235	0.97233
3454.50854	0.97247
3452.45473	0.97252
3450.40092	0.97252
3448.34711	0.97261
3446.29330	0.97291
3444.23949	0.97324
3442.18568	0.97323
3440.13187	0.97313
3438.07806	0.97313
3436.02425	0.97288
3433.97044	0.97243
3431.91663	0.97214
3429.86282	0.97197
3427.80901	0.97178
3425.75520	0.97176
3423.70139	0.97207
3421.64758	0.97241
3419.59377	0.97243
3417.53996	0.97215
3415.48615	0.97170
3413.43234	0.97126
3411.37853	0.97107
3409.32472	0.97116
3407.27091	0.97136
3405.21710	0.97143
3403.16329	0.97131
3401.10948	0.97116
3399.05567	0.97105
3397.00186	0.97094
3394.94805	0.97082
3392.89424	0.97082
3390.84042	0.97117
3388.78661	0.97166
3386.73280	0.97193
3384.67899	0.97198
3382.62518	0.97185
3380.57137	0.97162
3378.51756	0.97158
3376.46375	0.97178
3374.40994	0.97181
3372.35613	0.97150
3370.30232	0.97117
3368.24851	0.97113
3366.19470	0.97149
3364.14089	0.97195
3362.08708	0.97213
3360.03327	0.97215
3357.97946	0.97204
3355.92565	0.97192
3353.87184	0.97192
3351.81803	0.97186
3349.76422	0.97177
3347.71041	0.97167
3345.65660	0.97146
3343.60279	0.97133
3341.54898	0.97137
3339.49517	0.97149
3337.44136	0.97169
3335.38755	0.97201
3333.33374	0.97229
3331.27993	0.97241
3329.22612	0.97240
3327.17231	0.97240
3325.11850	0.97248
3323.06469	0.97251
3321.01088	0.97250
3318.95707	0.97259
3316.90326	0.97268
3314.84945	0.97278
3312.79564	0.97299
3310.74183	0.97323
3308.68802	0.97340
3306.63421	0.97352
3304.58040	0.97354
3302.52659	0.97345
3300.47278	0.97332
3298.41897	0.97325
3296.36516	0.97299
3294.31135	0.97267
3292.25754	0.97291
3290.20373	0.97332
3288.14992	0.97328
3286.09611	0.97311
3284.04230	0.97324
3281.98849	0.97354
3279.93468	0.97375
3277.88087	0.97376
3275.82706	0.97361
3273.77325	0.97351
3271.71944	0.97347
3269.66563	0.97336
3267.61182	0.97330
3265.55801	0.97337
3263.50420	0.97350
3261.45039	0.97364
3259.39658	0.97383
3257.34277	0.97411
3255.28896	0.97421
3253.23515	0.97405
3251.18134	0.97394
3249.12753	0.97406
3247.07372	0.97427
3245.01991	0.97437
3242.96610	0.97431
3240.91229	0.97421
3238.85848	0.97421
3236.80467	0.97418
3234.75086	0.97390
3232.69705	0.97371
3230.64324	0.97405
3228.58943	0.97450
3226.53562	0.97442
3224.48181	0.97409
3222.42800	0.97405
3220.37419	0.97419
3218.32038	0.97407
3216.26657	0.97374
3214.21276	0.97361
3212.15895	0.97382
3210.10514	0.97384
3208.05133	0.97356
3205.99752	0.97359
3203.94371	0.97393
3201.88990	0.97412
3199.83609	0.97420
3197.78228	0.97430
3195.72847	0.97414
3193.67466	0.97384
3191.62085	0.97379
3189.56704	0.97405
3187.51323	0.97431
3185.45942	0.97438
3183.40561	0.97444
3181.35180	0.97464
3179.29799	0.97487
3177.24418	0.97487
3175.19037	0.97471
3173.13656	0.97471
3171.08275	0.97488
3169.02894	0.97509
3166.97513	0.97522
3164.92132	0.97523
3162.86751	0.97506
3160.81370	0.97495
3158.75989	0.97516
3156.70608	0.97542
3154.65227	0.97541
3152.59846	0.97532
3150.54465	0.97520
3148.49084	0.97510
3146.43703	0.97506
3144.38322	0.97499
3142.32941	0.97520
3140.27560	0.97578
3138.22179	0.97609
3136.16798	0.97597
3134.11417	0.97585
3132.06036	0.97583
3130.00655	0.97563
3127.95274	0.97555
3125.89893	0.97587
3123.84512	0.97626
3121.79131	0.97652
3119.73750	0.97670
3117.68369	0.97665
3115.62988	0.97639
3113.57607	0.97626
3111.52226	0.97640
3109.46845	0.97662
3107.41464	0.97667
3105.36083	0.97673
3103.30702	0.97689
3101.25321	0.97685
3099.19940	0.97656
3097.14559	0.97617
3095.09177	0.97600
3093.03796	0.97634
3090.98415	0.97679
3088.93034	0.97698
3086.87653	0.97711
3084.82272	0.97714
3082.76891	0.97704
3080.71510	0.97707
3078.66129	0.97718
3076.60748	0.97718
3074.55367	0.97708
3072.49986	0.97694
3070.44605	0.97674
3068.39224	0.97677
3066.33843	0.97712
3064.28462	0.97735
3062.23081	0.97732
3060.17700	0.97715
3058.12319	0.97698
3056.06938	0.97695
3054.01557	0.97707
3051.96176	0.97727
3049.90795	0.97746
3047.85414	0.97746
3045.80033	0.97713
3043.74652	0.97692
3041.69271	0.97703
3039.63890	0.97722
3037.58509	0.97729
3035.53128	0.97726
3033.47747	0.97726
3031.42366	0.97733
3029.36985	0.97730
3027.31604	0.97694
3025.26223	0.97664
3023.20842	0.97674
3021.15461	0.97673
3019.10080	0.97621
3017.04699	0.97560
3014.99318	0.97516
3012.93937	0.97474
3010.88556	0.97438
3008.83175	0.97398
3006.77794	0.97325
3004.72413	0.97236
3002.67032	0.97147
3000.61651	0.97045
2998.56270	0.96936
2996.50889	0.96815
2994.45508	0.96648
2992.40127	0.96444
2990.34746	0.96226
2988.29365	0.95956
2986.23984	0.95605
2984.18603	0.95187
2982.13222	0.94677
2980.07841	0.94034
2978.02460	0.93234
2975.97079	0.92209
2973.91698	0.90862
2971.86317	0.89156
2969.80936	0.87117
2967.75555	0.84790
2965.70174	0.82253
2963.64793	0.79779
2961.59412	0.77904
2959.54031	0.76930
2957.48650	0.76421
2955.43269	0.75577
2953.37888	0.74121
2951.32507	0.72698
2949.27126	0.72358
2947.21745	0.73666
2945.16364	0.76272
2943.10983	0.79214
2941.05602	0.81573
2939.00221	0.82884
2936.94840	0.83080
2934.89459	0.82314
2932.84078	0.80783
2930.78697	0.78655
2928.73316	0.76188
2926.67935	0.73717
2924.62554	0.71460
2922.57173	0.69430
2920.51792	0.67639
2918.46411	0.66445
2916.41030	0.66456
2914.35649	0.67829
2912.30268	0.69931
2910.24887	0.71955
2908.19506	0.73596
2906.14125	0.75020
2904.08744	0.76471
2902.03363	0.78025
2899.97982	0.79600
2897.92601	0.81050
2895.87220	0.82227
2893.81839	0.83048
2891.76458	0.83533
2889.71077	0.83733
2887.65696	0.83696
2885.60315	0.83494
2883.54934	0.83168
2881.49553	0.82719
2879.44172	0.82255
2877.38791	0.82005
2875.33410	0.82042
2873.28029	0.82120
2871.22648	0.81946
2869.17267	0.81539
2867.11886	0.81352
2865.06505	0.82055
2863.01124	0.83884
2860.95743	0.86253
2858.90362	0.88311
2856.84981	0.89657
2854.79600	0.90342
2852.74219	0.90503
2850.68838	0.90186
2848.63457	0.89362
2846.58076	0.88001
2844.52695	0.86162
2842.47314	0.84102
2840.41933	0.82356
2838.36552	0.81608
2836.31171	0.82318
2834.25790	0.84347
2832.20409	0.86941
2830.15028	0.89271
2828.09647	0.90972
2826.04266	0.92108
2823.98885	0.92890
2821.93504	0.93463
2819.88123	0.93890
2817.82742	0.94220
2815.77361	0.94496
2813.71980	0.94716
2811.66599	0.94883
2809.61218	0.95041
2807.55837	0.95223
2805.50456	0.95429
2803.45075	0.95641
2801.39693	0.95817
2799.34312	0.95937
2797.28931	0.96021
2795.23550	0.96107
2793.18169	0.96204
2791.12788	0.96304
2789.07407	0.96405
2787.02026	0.96501
2784.96645	0.96582
2782.91264	0.96651
2780.85883	0.96722
2778.80502	0.96803
2776.75121	0.96876
2774.69740	0.96922
2772.64359	0.96959
2770.58978	0.97002
2768.53597	0.97035
2766.48216	0.97055
2764.42835	0.97081
2762.37454	0.97115
2760.32073	0.97153
2758.26692	0.97203
2756.21311	0.97238
2754.15930	0.97234
2752.10549	0.97221
2750.05168	0.97214
2747.99787	0.97201
2745.94406	0.97200
2743.89025	0.97208
2741.83644	0.97169
2739.78263	0.97096
2737.72882	0.97043
2735.67501	0.97020
2733.62120	0.96981
2731.56739	0.96905
2729.51358	0.96838
2727.45977	0.96777
2725.40596	0.96692
2723.35215	0.96636
2721.29834	0.96661
2719.24453	0.96748
2717.19072	0.96859
2715.13691	0.96968
2713.08310	0.97056
2711.02929	0.97110
2708.97548	0.97148
2706.92167	0.97196
2704.86786	0.97247
2702.81405	0.97295
2700.76024	0.97331
2698.70643	0.97335
2696.65262	0.97320
2694.59881	0.97317
2692.54500	0.97338
2690.49119	0.97351
2688.43738	0.97341
2686.38357	0.97346
2684.32976	0.97363
2682.27595	0.97358
2680.22214	0.97340
2678.16833	0.97324
2676.11452	0.97317
2674.06071	0.97321
2672.00690	0.97326
2669.95309	0.97337
2667.89928	0.97355
2665.84547	0.97355
2663.79166	0.97330
2661.73785	0.97317
2659.68404	0.97327
2657.63023	0.97337
2655.57642	0.97351
2653.52261	0.97375
2651.46880	0.97401
2649.41499	0.97424
2647.36118	0.97444
2645.30737	0.97452
2643.25356	0.97455
2641.19975	0.97466
2639.14594	0.97480
2637.09213	0.97494
2635.03832	0.97503
2632.98451	0.97497
2630.93070	0.97492
2628.87689	0.97506
2626.82308	0.97509
2624.76927	0.97477
2622.71546	0.97445
2620.66165	0.97431
2618.60784	0.97432
2616.55403	0.97438
2614.50022	0.97432
2612.44641	0.97440
2610.39260	0.97485
2608.33879	0.97533
2606.28498	0.97572
2604.23117	0.97610
2602.17736	0.97641
2600.12355	0.97666
2598.06974	0.97677
2596.01593	0.97658
2593.96212	0.97635
2591.90831	0.97630
2589.85450	0.97639
2587.80069	0.97640
2585.74688	0.97622
2583.69307	0.97595
2581.63926	0.97590
2579.58545	0.97611
2577.53164	0.97612
2575.47783	0.97612
2573.42402	0.97653
2571.37021	0.97687
2569.31640	0.97675
2567.26259	0.97668
2565.20878	0.97691
2563.15497	0.97732
2561.10116	0.97780
2559.04735	0.97791
2556.99354	0.97770
2554.93973	0.97777
2552.88592	0.97806
2550.83211	0.97799
2548.77830	0.97788
2546.72449	0.97828
2544.67068	0.97887
2542.61687	0.97919
2540.56306	0.97933
2538.50925	0.97958
2536.45544	0.97986
2534.40163	0.97975
2532.34782	0.97932
2530.29401	0.97914
2528.24020	0.97922
2526.18639	0.97911
2524.13258	0.97898
2522.07877	0.97931
2520.02496	0.97978
2517.97115	0.97998
2515.91734	0.98026
2513.86353	0.98046
2511.80972	0.98023
2509.75591	0.97987
2507.70210	0.97974
2505.64828	0.98006
2503.59447	0.98051
2501.54066	0.98059
2499.48685	0.98032
2497.43304	0.98019
2495.37923	0.98032
2493.32542	0.98027
2491.27161	0.98014
2489.21780	0.98053
2487.16399	0.98116
2485.11018	0.98127
2483.05637	0.98090
2481.00256	0.98060
2478.94875	0.98062
2476.89494	0.98083
2474.84113	0.98094
2472.78732	0.98102
2470.73351	0.98127
2468.67970	0.98156
2466.62589	0.98168
2464.57208	0.98163
2462.51827	0.98146
2460.46446	0.98126
2458.41065	0.98116
2456.35684	0.98119
2454.30303	0.98128
2452.24922	0.98115
2450.19541	0.98094
2448.14160	0.98097
2446.08779	0.98121
2444.03398	0.98155
2441.98017	0.98172
2439.92636	0.98139
2437.87255	0.98090
2435.81874	0.98082
2433.76493	0.98098
2431.71112	0.98134
2429.65731	0.98182
2427.60350	0.98184
2425.54969	0.98144
2423.49588	0.98117
2421.44207	0.98135
2419.38826	0.98179
2417.33445	0.98219
2415.28064	0.98237
2413.22683	0.98226
2411.17302	0.98197
2409.11921	0.98183
2407.06540	0.98183
2405.01159	0.98176
2402.95778	0.98162
2400.90397	0.98155
2398.85016	0.98169
2396.79635	0.98194
2394.74254	0.98200
2392.68873	0.98207
2390.63492	0.98213
2388.58111	0.98205
2386.52730	0.98198
2384.47349	0.98204
2382.41968	0.98217
2380.36587	0.98219
2378.31206	0.98193
2376.25825	0.98139
2374.20444	0.98089
2372.15063	0.98105
2370.09682	0.98174
2368.04301	0.98195
2365.98920	0.98140
2363.93539	0.98095
2361.88158	0.98092
2359.82777	0.98120
2357.77396	0.98161
2355.72015	0.98124
2353.66634	0.98059
2351.61253	0.98059
2349.55872	0.98092
2347.50491	0.98108
2345.45110	0.98126
2343.39729	0.98186
2341.34348	0.98221
2339.28967	0.98194
2337.23586	0.98168
2335.18205	0.98175
2333.12824	0.98210
2331.07443	0.98255
2329.02062	0.98253
2326.96681	0.98182
2324.91300	0.98112
2322.85919	0.98100
2320.80538	0.98118
2318.75157	0.98132
2316.69776	0.98143
2314.64395	0.98124
2312.59014	0.98090
2310.53633	0.98109
2308.48252	0.98191
2306.42871	0.98248
2304.37490	0.98235
2302.32109	0.98209
2300.26728	0.98200
2298.21347	0.98194
2296.15966	0.98192
2294.10585	0.98184
2292.05204	0.98161
2289.99823	0.98144
2287.94442	0.98143
2285.89061	0.98133
2283.83680	0.98141
2281.78299	0.98216
2279.72918	0.98272
2277.67537	0.98269
2275.62156	0.98297
2273.56775	0.98321
2271.51394	0.98309
2269.46013	0.98325
2267.40632	0.98355
2265.35251	0.98375
2263.29870	0.98362
2261.24489	0.98279
2259.19108	0.98197
2257.13727	0.98192
2255.08346	0.98218
2253.02965	0.98239
2250.97584	0.98253
2248.92203	0.98243
2246.86822	0.98268
2244.81441	0.98309
2242.76060	0.98304
2240.70679	0.98300
2238.65298	0.98302
2236.59917	0.98292
2234.54536	0.98293
2232.49155	0.98318
2230.43774	0.98349
2228.38393	0.98353
2226.33012	0.98329
2224.27631	0.98331
2222.22250	0.98426
2220.16869	0.98516
2218.11488	0.98470
2216.06107	0.98376
2214.00726	0.98312
2211.95344	0.98274
2209.89963	0.98323
2207.84582	0.98424
2205.79201	0.98456
2203.73820	0.98378
2201.68439	0.98286
2199.63058	0.98229
2197.57677	0.98154
2195.52296	0.98084
2193.46915	0.98056
2191.41534	0.98101
2189.36153	0.98195
2187.30772	0.98264
2185.25391	0.98300
2183.20010	0.98328
2181.14629	0.98358
2179.09248	0.98419
2177.03867	0.98507
2174.98486	0.98486
2172.93105	0.98392
2170.87724	0.98380
2168.82343	0.98412
2166.76962	0.98488
2164.71581	0.98617
2162.66200	0.98633
2160.60819	0.98612
2158.55438	0.98814
2156.50057	0.99019
2154.44676	0.99035
2152.39295	0.98942
2150.33914	0.98811
2148.28533	0.98729
2146.23152	0.98630
2144.17771	0.98536
2142.12390	0.98552
2140.07009	0.98606
2138.01628	0.98622
2135.96247	0.98647
2133.90866	0.98701
2131.85485	0.98738
2129.80104	0.98739
2127.74723	0.98696
2125.69342	0.98646
2123.63961	0.98604
2121.58580	0.98533
2119.53199	0.98497
2117.47818	0.98531
2115.42437	0.98509
2113.37056	0.98425
2111.31675	0.98421
2109.26294	0.98463
2107.20913	0.98451
2105.15532	0.98369
2103.10151	0.98303
2101.04770	0.98371
2098.99389	0.98481
2096.94008	0.98533
2094.88627	0.98551
2092.83246	0.98544
2090.77865	0.98569
2088.72484	0.98579
2086.67103	0.98498
2084.61722	0.98411
2082.56341	0.98386
2080.50960	0.98361
2078.45579	0.98325
2076.40198	0.98389
2074.34817	0.98520
2072.29436	0.98571
2070.24055	0.98483
2068.18674	0.98355
2066.13293	0.98358
2064.07912	0.98459
2062.02531	0.98535
2059.97150	0.98560
2057.91769	0.98520
2055.86388	0.98441
2053.81007	0.98380
2051.75626	0.98311
2049.70245	0.98232
2047.64864	0.98245
2045.59483	0.98423
2043.54102	0.98640
2041.48721	0.98727
2039.43340	0.98681
2037.37959	0.98506
2035.32578	0.98265
2033.27197	0.98128
2031.21816	0.98190
2029.16435	0.98395
2027.11054	0.98532
2025.05673	0.98521
2023.00292	0.98551
2020.94911	0.98677
2018.89530	0.98701
2016.84149	0.98620
2014.78768	0.98539
2012.73387	0.98473
2010.68006	0.98484
2008.62625	0.98587
2006.57244	0.98701
2004.51863	0.98743
2002.46482	0.98811
2000.41101	0.98883
1998.35720	0.98818
1996.30339	0.98695
1994.24958	0.98563
1992.19577	0.98457
1990.14196	0.98487
1988.08815	0.98546
1986.03434	0.98484
1983.98053	0.98386
1981.92672	0.98359
1979.87291	0.98425
1977.81910	0.98565
1975.76529	0.98656
1973.71148	0.98613
1971.65767	0.98544
1969.60386	0.98556
1967.55005	0.98583
1965.49624	0.98568
1963.44243	0.98580
1961.38862	0.98648
1959.33481	0.98711
1957.28100	0.98721
1955.22719	0.98674
1953.17338	0.98648
1951.11957	0.98649
1949.06576	0.98586
1947.01195	0.98538
1944.95814	0.98568
1942.90433	0.98609
1940.85052	0.98635
1938.79671	0.98618
1936.74290	0.98560
1934.68909	0.98553
1932.63528	0.98618
1930.58147	0.98675
1928.52766	0.98672
1926.47385	0.98605
1924.42004	0.98564
1922.36623	0.98615
1920.31242	0.98677
1918.25861	0.98684
1916.20479	0.98639
1914.15098	0.98569
1912.09717	0.98485
1910.04336	0.98427
1907.98955	0.98444
1905.93574	0.98478
1903.88193	0.98471
1901.82812	0.98458
1899.77431	0.98485
1897.72050	0.98518
1895.66669	0.98508
1893.61288	0.98481
1891.55907	0.98438
1889.50526	0.98387
1887.45145	0.98388
1885.39764	0.98421
1883.34383	0.98434
1881.29002	0.98446
1879.23621	0.98461
1877.18240	0.98450
1875.12859	0.98468
1873.07478	0.98550
1871.02097	0.98583
1868.96716	0.98519
1866.91335	0.98452
1864.85954	0.98415
1862.80573	0.98402
1860.75192	0.98418
1858.69811	0.98416
1856.64430	0.98396
1854.59049	0.98424
1852.53668	0.98469
1850.48287	0.98456
1848.42906	0.98422
1846.37525	0.98411
1844.32144	0.98414
1842.26763	0.98408
1840.21382	0.98396
1838.16001	0.98385
1836.10620	0.98362
1834.05239	0.98325
1831.99858	0.98290
1829.94477	0.98273
1827.89096	0.98275
1825.83715	0.98285
1823.78334	0.98302
1821.72953	0.98297
1819.67572	0.98269
1817.62191	0.98261
1815.56810	0.98269
1813.51429	0.98255
1811.46048	0.98211
1809.40667	0.98156
1807.35286	0.98112
1805.29905	0.98056
1803.24524	0.97960
1801.19143	0.97847
1799.13762	0.97746
1797.08381	0.97646
1795.03000	0.97523
1792.97619	0.97343
1790.92238	0.97134
1788.86857	0.96951
1786.81476	0.96764
1784.76095	0.96554
1782.70714	0.96335
1780.65333	0.96089
1778.59952	0.95869
1776.54571	0.95744
1774.49190	0.95648
1772.43809	0.95515
1770.38428	0.95407
1768.33047	0.95358
1766.27666	0.95331
1764.22285	0.95302
1762.16904	0.95239
1760.11523	0.95151
1758.06142	0.95064
1756.00761	0.94963
1753.95380	0.94882
1751.89999	0.94813
1749.84618	0.94682
1747.79237	0.94513
1745.73856	0.94380
1743.68475	0.94267
1741.63094	0.94159
1739.57713	0.94062
1737.52332	0.94001
1735.46951	0.93973
1733.41570	0.93939
1731.36189	0.93881
1729.30808	0.93798
1727.25427	0.93683
1725.20046	0.93504
1723.14665	0.93270
1721.09284	0.93078
1719.03903	0.92922
1716.98522	0.92702
1714.93141	0.92498
1712.87760	0.92395
1710.82379	0.92360
1708.76998	0.92413
1706.71617	0.92596
1704.66236	0.92894
1702.60855	0.93239
1700.55474	0.93680
1698.50093	0.94118
1696.44712	0.94444
1694.39331	0.94748
1692.33950	0.94999
1690.28569	0.95221
1688.23188	0.95414
1686.17807	0.95571
1684.12426	0.95743
1682.07045	0.95886
1680.01664	0.95978
1677.96283	0.96050
1675.90902	0.96100
1673.85521	0.96145
1671.80140	0.96204
1669.74759	0.96263
1667.69378	0.96293
1665.63997	0.96284
1663.58616	0.96253
1661.53235	0.96250
1659.47854	0.96276
1657.42473	0.96285
1655.37092	0.96286
1653.31711	0.96289
1651.26330	0.96274
1649.20949	0.96253
1647.15568	0.96235
1645.10187	0.96236
1643.04806	0.96268
1640.99425	0.96308
1638.94044	0.96344
1636.88663	0.96398
1634.83282	0.96436
1632.77901	0.96413
1630.72520	0.96392
1628.67139	0.96385
1626.61758	0.96373
1624.56377	0.96370
1622.50996	0.96395
1620.45614	0.96453
1618.40233	0.96552
1616.34852	0.96694
1614.29471	0.96826
1612.24090	0.96924
1610.18709	0.97001
1608.13328	0.97062
1606.07947	0.97113
1604.02566	0.97159
1601.97185	0.97208
1599.91804	0.97269
1597.86423	0.97326
1595.81042	0.97375
1593.75661	0.97424
1591.70280	0.97451
1589.64899	0.97466
1587.59518	0.97496
1585.54137	0.97522
1583.48756	0.97545
1581.43375	0.97574
1579.37994	0.97595
1577.32613	0.97609
1575.27232	0.97621
1573.21851	0.97634
1571.16470	0.97656
1569.11089	0.97678
1567.05708	0.97691
1565.00327	0.97708
1562.94946	0.97715
1560.89565	0.97702
1558.84184	0.97686
1556.78803	0.97716
1554.73422	0.97747
1552.68041	0.97743
1550.62660	0.97718
1548.57279	0.97707
1546.51898	0.97723
1544.46517	0.97761
1542.41136	0.97817
1540.35755	0.97855
1538.30374	0.97852
1536.24993	0.97829
1534.19612	0.97809
1532.14231	0.97805
1530.08850	0.97795
1528.03469	0.97782
1525.98088	0.97780
1523.92707	0.97778
1521.87326	0.97781
1519.81945	0.97782
1517.76564	0.97761
1515.71183	0.97762
1513.65802	0.97794
1511.60421	0.97813
1509.55040	0.97802
1507.49659	0.97766
1505.44278	0.97711
1503.38897	0.97672
1501.33516	0.97651
1499.28135	0.97630
1497.22754	0.97588
1495.17373	0.97525
1493.11992	0.97468
1491.06611	0.97393
1489.01230	0.97261
1486.95849	0.97094
1484.90468	0.96928
1482.85087	0.96726
1480.79706	0.96440
1478.74325	0.96057
1476.68944	0.95518
1474.63563	0.94665
1472.58182	0.93195
1470.52801	0.91349
1468.47420	0.89589
1466.42039	0.87594
1464.36658	0.85335
1462.31277	0.83713
1460.25896	0.82888
1458.20515	0.82271
1456.15134	0.81667
1454.09753	0.81444
1452.04372	0.81579
1449.98991	0.82224
1447.93610	0.83823
1445.88229	0.86140
1443.82848	0.88271
1441.77467	0.89793
1439.72086	0.90617
1437.66705	0.90877
1435.61324	0.91077
1433.55943	0.91823
1431.50562	0.92939
1429.45181	0.93924
1427.39800	0.94462
1425.34419	0.94703
1423.29038	0.94828
1421.23657	0.94919
1419.18276	0.94993
1417.12895	0.95026
1415.07514	0.95044
1413.02133	0.95065
1410.96752	0.95095
1408.91371	0.95113
1406.85990	0.95112
1404.80609	0.95114
1402.75228	0.95143
1400.69847	0.95169
1398.64466	0.95160
1396.59085	0.95096
1394.53704	0.94952
1392.48323	0.94725
1390.42942	0.94395
1388.37561	0.93761
1386.32180	0.92544
1384.26799	0.90625
1382.21418	0.87613
1380.16037	0.82952
1378.10656	0.77372
1376.05275	0.73860
1373.99894	0.75319
1371.94513	0.80353
1369.89132	0.85194
1367.83751	0.88380
1365.78370	0.89881
1363.72989	0.90209
1361.67608	0.89852
1359.62227	0.89473
1357.56846	0.89703
1355.51465	0.90614
1353.46084	0.91762
1351.40703	0.92727
1349.35322	0.93433
1347.29941	0.93919
1345.24560	0.94237
1343.19179	0.94455
1341.13798	0.94604
1339.08417	0.94678
1337.03036	0.94685
1334.97655	0.94619
1332.92274	0.94462
1330.86893	0.94281
1328.81512	0.94210
1326.76130	0.94282
1324.70749	0.94417
1322.65368	0.94528
1320.59987	0.94573
1318.54606	0.94580
1316.49225	0.94614
1314.43844	0.94671
1312.38463	0.94682
1310.33082	0.94587
1308.27701	0.94328
1306.22320	0.93959
1304.16939	0.93734
1302.11558	0.93787
1300.06177	0.93920
1298.00796	0.93969
1295.95415	0.93993
1293.90034	0.94069
1291.84653	0.94193
1289.79272	0.94314
1287.73891	0.94394
1285.68510	0.94446
1283.63129	0.94482
1281.57748	0.94497
1279.52367	0.94498
1277.46986	0.94491
1275.41605	0.94474
1273.36224	0.94451
1271.30843	0.94423
1269.25462	0.94366
1267.20081	0.94262
1265.14700	0.94138
1263.09319	0.93993
1261.03938	0.93778
1258.98557	0.93482
1256.93176	0.93186
1254.87795	0.93063
1252.82414	0.93168
1250.77033	0.93337
1248.71652	0.93436
1246.66271	0.93474
1244.60890	0.93477
1242.55509	0.93443
1240.50128	0.93392
1238.44747	0.93350
1236.39366	0.93316
1234.33985	0.93282
1232.28604	0.93242
1230.23223	0.93188
1228.17842	0.93122
1226.12461	0.93047
1224.07080	0.92967
1222.01699	0.92884
1219.96318	0.92808
1217.90937	0.92756
1215.85556	0.92736
1213.80175	0.92747
1211.74794	0.92778
1209.69413	0.92784
1207.64032	0.92768
1205.58651	0.92764
1203.53270	0.92757
1201.47889	0.92741
1199.42508	0.92736
1197.37127	0.92720
1195.31746	0.92673
1193.26365	0.92615
1191.20984	0.92560
1189.15603	0.92505
1187.10222	0.92431
1185.04841	0.92331
1182.99460	0.92224
1180.94079	0.92106
1178.88698	0.91920
1176.83317	0.91610
1174.77936	0.91103
1172.72555	0.90271
1170.67174	0.89161
1168.61793	0.88186
1166.56412	0.87851
1164.51031	0.88236
1162.45650	0.88949
1160.40269	0.89605
1158.34888	0.90066
1156.29507	0.90343
1154.24126	0.90520
1152.18745	0.90698
1150.13364	0.90940
1148.07983	0.91247
1146.02602	0.91561
1143.97221	0.91822
1141.91840	0.92009
1139.86459	0.92136
1137.81078	0.92223
1135.75697	0.92278
1133.70316	0.92314
1131.64935	0.92361
1129.59554	0.92435
1127.54173	0.92506
1125.48792	0.92558
1123.43411	0.92608
1121.38030	0.92652
1119.32649	0.92661
1117.27268	0.92631
1115.21887	0.92612
1113.16506	0.92603
1111.11125	0.92564
1109.05744	0.92487
1107.00363	0.92361
1104.94982	0.92195
1102.89601	0.92088
1100.84220	0.92136
1098.78839	0.92276
1096.73458	0.92403
1094.68077	0.92502
1092.62696	0.92567
1090.57315	0.92598
1088.51934	0.92624
1086.46553	0.92660
1084.41172	0.92711
1082.35791	0.92771
1080.30410	0.92802
1078.25029	0.92803
1076.19648	0.92834
1074.14267	0.92917
1072.08886	0.92999
1070.03505	0.93037
1067.98124	0.93067
1065.92743	0.93099
1063.87362	0.93092
1061.81981	0.93051
1059.76600	0.93011
1057.71219	0.92968
1055.65838	0.92934
1053.60457	0.92909
1051.55076	0.92858
1049.49695	0.92775
1047.44314	0.92666
1045.38933	0.92586
1043.33552	0.92625
1041.28171	0.92757
1039.22790	0.92891
1037.17409	0.92990
1035.12028	0.93068
1033.06647	0.93156
1031.01265	0.93259
1028.95884	0.93337
1026.90503	0.93392
1024.85122	0.93457
1022.79741	0.93519
1020.74360	0.93580
1018.68979	0.93653
1016.63598	0.93704
1014.58217	0.93711
1012.52836	0.93696
1010.47455	0.93661
1008.42074	0.93531
1006.36693	0.93242
1004.31312	0.92725
1002.25931	0.91778
1000.20550	0.90389
998.15169	0.89345
996.09788	0.89574
994.04407	0.90836
991.99026	0.92141
989.93645	0.92973
987.88264	0.93392
985.82883	0.93547
983.77502	0.93478
981.72121	0.93159
979.66740	0.92541
977.61359	0.91541
975.55978	0.90214
973.50597	0.89174
971.45216	0.89335
969.39835	0.90665
967.34454	0.92118
965.29073	0.93032
963.23692	0.93494
961.18311	0.93723
959.12930	0.93830
957.07549	0.93896
955.02168	0.93945
952.96787	0.93963
950.91406	0.93971
948.86025	0.93958
946.80644	0.93888
944.75263	0.93778
942.69882	0.93669
940.64501	0.93629
938.59120	0.93725
936.53739	0.93909
934.48358	0.94078
932.42977	0.94215
930.37596	0.94358
928.32215	0.94500
926.26834	0.94615
924.21453	0.94707
922.16072	0.94783
920.10691	0.94821
918.05310	0.94834
915.99929	0.94859
913.94548	0.94899
911.89167	0.94950
909.83786	0.94987
907.78405	0.94953
905.73024	0.94772
903.67643	0.94375
901.62262	0.93841
899.56881	0.93513
897.51500	0.93674
895.46119	0.94194
893.40738	0.94711
891.35357	0.95025
889.29976	0.95169
887.24595	0.95229
885.19214	0.95279
883.13833	0.95348
881.08452	0.95399
879.03071	0.95402
876.97690	0.95395
874.92309	0.95412
872.86928	0.95444
870.81547	0.95467
868.76166	0.95469
866.70785	0.95455
864.65404	0.95438
862.60023	0.95432
860.54642	0.95429
858.49261	0.95432
856.43880	0.95436
854.38499	0.95402
852.33118	0.95302
850.27737	0.95136
848.22356	0.94815
846.16975	0.94062
844.11594	0.92600
842.06213	0.91043
840.00832	0.90911
837.95451	0.92361
835.90070	0.93868
833.84689	0.94656
831.79308	0.94997
829.73927	0.95142
827.68546	0.95216
825.63165	0.95302
823.57784	0.95370
821.52403	0.95368
819.47022	0.95306
817.41641	0.95181
815.36260	0.94897
813.30879	0.94385
811.25498	0.93820
809.20117	0.93530
807.14736	0.93691
805.09355	0.94174
803.03974	0.94692
800.98593	0.95024
798.93212	0.95168
796.87831	0.95284
794.82450	0.95443
792.77069	0.95575
790.71688	0.95637
788.66307	0.95664
786.60926	0.95697
784.55545	0.95727
782.50164	0.95730
780.44783	0.95719
778.39402	0.95746
776.34021	0.95810
774.28640	0.95832
772.23259	0.95828
770.17878	0.95865
768.12497	0.95921
766.07116	0.95945
764.01735	0.95954
761.96354	0.95979
759.90973	0.96017
757.85592	0.96079
755.80211	0.96143
753.74830	0.96193
751.69449	0.96226
749.64068	0.96250
747.58687	0.96269
745.53306	0.96274
743.47925	0.96261
741.42544	0.96260
739.37163	0.96284
737.31781	0.96260
735.26400	0.96154
733.21019	0.96087
731.15638	0.96119
729.10257	0.96146
727.04876	0.96126
724.99495	0.96129
722.94114	0.96174
720.88733	0.96227
718.83352	0.96258
716.77971	0.96242
714.72590	0.96235
712.67209	0.96247
710.61828	0.96227
708.56447	0.96219
706.51066	0.96226
704.45685	0.96174
702.40304	0.96092
700.34923	0.96072
698.29542	0.96097
696.24161	0.96100
694.18780	0.96047
692.13399	0.95941
690.08018	0.95875
688.02637	0.95890
685.97256	0.95907
683.91875	0.95878
681.86494	0.95777
679.81113	0.95659
677.75732	0.95643
675.70351	0.95685
673.64970	0.95699
671.59589	0.95676
669.54208	0.95521
667.48827	0.95312
665.43446	0.95381
663.38065	0.95544
661.32684	0.95626
659.27303	0.95566
657.21922	0.95426
655.16541	0.95353
653.11160	0.95399
651.05779	0.95428
649.00398	0.95348
646.95017	0.95263
644.89636	0.95226
642.84255	0.95205
640.78874	0.95194
638.73493	0.95158
636.68112	0.95117
634.62731	0.95123
632.57350	0.95121
630.51969	0.95088
628.46588	0.95054
626.41207	0.94966
624.35826	0.94828
622.30445	0.94731
620.25064	0.94673
618.19683	0.94667
616.14302	0.94735
614.08921	0.94748
612.03540	0.94640
609.98159	0.94496
607.92778	0.94450
605.87397	0.94543
603.82016	0.94639
601.76635	0.94656
599.71254	0.94632
597.65873	0.94564
595.60492	0.94437
593.55111	0.94400
591.49730	0.94554
589.44349	0.94693
587.38968	0.94694
585.33587	0.94621
583.28206	0.94545
581.22825	0.94564
579.17444	0.94651
577.12063	0.94649
575.06682	0.94597
573.01301	0.94584
570.95920	0.94556
568.90539	0.94557
566.85158	0.94619
564.79777	0.94651
562.74396	0.94634
560.69015	0.94541
558.63634	0.94403
556.58253	0.94354
554.52872	0.94394
552.47491	0.94444
550.42110	0.94458
548.36729	0.94407
546.31348	0.94363
544.25967	0.94374
542.20586	0.94371
540.15205	0.94306
538.09824	0.94237
536.04443	0.94195
533.99062	0.94108
531.93681	0.93949
529.88300	0.93803
527.82919	0.93814
525.77538	0.94008
523.72157	0.94177
521.66776	0.94214
519.61395	0.94198
517.56014	0.94169
515.50633	0.94191
513.45252	0.94352
511.39871	0.94539
509.34490	0.94584
507.29109	0.94457
505.23728	0.94250
503.18347	0.94203
501.12966	0.94364
499.07585	0.94437
497.02204	0.94366
494.96823	0.94368
492.91442	0.94504
490.86061	0.94631
488.80680	0.94619
486.75299	0.94568
484.69918	0.94585
482.64537	0.94598
480.59156	0.94559
478.53775	0.94499
476.48394	0.94497
474.43013	0.94498
472.37632	0.94261
470.32251	0.93851
468.26870	0.93637
466.21489	0.93575
464.16108	0.93315
462.10727	0.92867
460.05346	0.92611
457.99965	0.92928
455.94584	0.93557
453.89203	0.93767
451.83822	0.93700
449.78441	0.93910
447.73060	0.94380
445.67679	0.94770
443.62298	0.94820
441.56916	0.94605
439.51535	0.94478
437.46154	0.94400
435.40773	0.94357
433.35392	0.94551
431.30011	0.94667
429.24630	0.94472
427.19249	0.94360
425.13868	0.94470
423.08487	0.94513
421.03106	0.94325
418.97725	0.93992
416.92344	0.94154
414.86963	0.94604
412.81582	0.94674
410.76201	0.94474
408.70820	0.94428
406.65439	0.94730
404.60058	0.95088
402.54677	0.95151
400.49296	0.94991
398.43915	0.94430
