3996.70104	0.98884
3994.64724	0.98823
3992.59344	0.98839
3990.53964	0.98900
3988.48583	0.98919
3986.43203	0.98891
3984.37823	0.98876
3982.32442	0.98889
3980.27062	0.98889
3978.21682	0.98871
3976.16301	0.98859
3974.10921	0.98877
3972.05541	0.98912
3970.00160	0.98919
3967.94780	0.98909
3965.89400	0.98914
3963.84019	0.98899
3961.78639	0.98859
3959.73259	0.98841
3957.67878	0.98829
3955.62498	0.98785
3953.57118	0.98764
3951.51737	0.98816
3949.46357	0.98882
3947.40977	0.98919
3945.35596	0.98915
3943.30216	0.98868
3941.24836	0.98844
3939.19455	0.98883
3937.14075	0.98919
3935.08695	0.98914
3933.03315	0.98902
3930.97934	0.98902
3928.92554	0.98924
3926.87174	0.98955
3924.81793	0.98926
3922.76413	0.98840
3920.71033	0.98768
3918.65652	0.98746
3916.60272	0.98769
3914.54892	0.98813
3912.49511	0.98875
3910.44131	0.98908
3908.38751	0.98872
3906.33370	0.98818
3904.27990	0.98818
3902.22610	0.98859
3900.17229	0.98843
3898.11849	0.98805
3896.06469	0.98819
3894.01088	0.98815
3891.95708	0.98775
3889.90328	0.98776
3887.84947	0.98827
3885.79567	0.98881
3883.74187	0.98852
3881.68807	0.98766
3879.63426	0.98753
3877.58046	0.98821
3875.52666	0.98847
3873.47285	0.98816
3871.41905	0.98799
3869.36525	0.98807
3867.31144	0.98797
3865.25764	0.98786
3863.20384	0.98833
3861.15003	0.98888
3859.09623	0.98897
3857.04243	0.98875
3854.98862	0.98827
3852.93482	0.98791
3850.88102	0.98841
3848.82721	0.98922
3846.77341	0.98950
3844.71961	0.98917
3842.66580	0.98898
3840.61200	0.98923
3838.55820	0.98940
3836.50439	0.98916
3834.45059	0.98887
3832.39679	0.98898
3830.34298	0.98931
3828.28918	0.98958
3826.23538	0.98942
3824.18158	0.98858
3822.12777	0.98803
3820.07397	0.98858
3818.02017	0.98886
3815.96636	0.98883
3813.91256	0.98923
3811.85876	0.98950
3809.80495	0.98963
3807.75115	0.98979
3805.69735	0.98971
3803.64354	0.98954
3801.58974	0.98936
3799.53594	0.98911
3797.48213	0.98909
3795.42833	0.98921
3793.37453	0.98917
3791.32072	0.98903
3789.26692	0.98872
3787.21312	0.98838
3785.15931	0.98855
3783.10551	0.98901
3781.05171	0.98939
3778.99790	0.98934
3776.94410	0.98900
3774.89030	0.98920
3772.83650	0.98943
3770.78269	0.98906
3768.72889	0.98877
3766.67509	0.98867
3764.62128	0.98830
3762.56748	0.98802
3760.51368	0.98806
3758.45987	0.98801
3756.40607	0.98790
3754.35227	0.98839
3752.29846	0.98954
3750.24466	0.99023
3748.19086	0.98947
3746.13705	0.98861
3744.08325	0.98860
3742.02945	0.98895
3739.97564	0.98919
3737.92184	0.98939
3735.86804	0.98919
3733.81423	0.98846
3731.76043	0.98812
3729.70663	0.98835
3727.65282	0.98824
3725.59902	0.98783
3723.54522	0.98815
3721.49141	0.98864
3719.43761	0.98844
3717.38381	0.98795
3715.33001	0.98776
3713.27620	0.98815
3711.22240	0.98853
3709.16860	0.98766
3707.11479	0.98612
3705.06099	0.98492
3703.00719	0.98407
3700.95338	0.98390
3698.89958	0.98416
3696.84578	0.98393
3694.79197	0.98358
3692.73817	0.98375
3690.68437	0.98445
3688.63056	0.98492
3686.57676	0.98467
3684.52296	0.98474
3682.46915	0.98557
3680.41535	0.98610
3678.36155	0.98559
3676.30774	0.98505
3674.25394	0.98522
3672.20014	0.98499
3670.14633	0.98412
3668.09253	0.98371
3666.03873	0.98397
3663.98492	0.98424
3661.93112	0.98433
3659.87732	0.98447
3657.82352	0.98446
3655.76971	0.98359
3653.71591	0.98299
3651.66211	0.98378
3649.60830	0.98470
3647.55450	0.98392
3645.50070	0.98282
3643.44689	0.98230
3641.39309	0.98219
3639.33929	0.98189
3637.28548	0.98102
3635.23168	0.98020
3633.17788	0.98008
3631.12407	0.98017
3629.07027	0.97938
3627.01647	0.97874
3624.96266	0.97911
3622.90886	0.97924
3620.85506	0.97841
3618.80125	0.97721
3616.74745	0.97717
3614.69365	0.97781
3612.63984	0.97766
3610.58604	0.97695
3608.53224	0.97676
3606.47844	0.97677
3604.42463	0.97628
3602.37083	0.97568
3600.31703	0.97554
3598.26322	0.97600
3596.20942	0.97637
3594.15562	0.97605
3592.10181	0.97577
3590.04801	0.97571
3587.99421	0.97530
3585.94040	0.97527
3583.88660	0.97586
3581.83280	0.97612
3579.77899	0.97615
3577.72519	0.97643
3575.67139	0.97629
3573.61758	0.97558
3571.56378	0.97518
3569.50998	0.97487
3567.45617	0.97442
3565.40237	0.97420
3563.34857	0.97395
3561.29476	0.97325
3559.24096	0.97218
3557.18716	0.97158
3555.13335	0.97142
3553.07955	0.97071
3551.02575	0.96988
3548.97195	0.96968
3546.91814	0.96994
3544.86434	0.97033
3542.81054	0.97051
3540.75673	0.97004
3538.70293	0.96936
3536.64913	0.96955
3534.59532	0.97013
3532.54152	0.97024
3530.48772	0.96994
3528.43391	0.96920
3526.38011	0.96840
3524.32631	0.96827
3522.27250	0.96832
3520.21870	0.96766
3518.16490	0.96707
3516.11109	0.96733
3514.05729	0.96772
3512.00349	0.96761
3509.94968	0.96715
3507.89588	0.96662
3505.84208	0.96643
3503.78827	0.96624
3501.73447	0.96572
3499.68067	0.96539
3497.62687	0.96511
3495.57306	0.96499
3493.51926	0.96515
3491.46546	0.96456
3489.41165	0.96327
3487.35785	0.96272
3485.30405	0.96314
3483.25024	0.96359
3481.19644	0.96342
3479.14264	0.96271
3477.08883	0.96223
3475.03503	0.96200
3472.98123	0.96141
3470.92742	0.96071
3468.87362	0.96060
3466.81982	0.96106
3464.76601	0.96148
3462.71221	0.96125
3460.65841	0.96054
3458.60460	0.96004
3456.55080	0.95992
3454.49700	0.95983
3452.44319	0.95946
3450.38939	0.95903
3448.33559	0.95907
3446.28178	0.95913
3444.22798	0.95858
3442.17418	0.95813
3440.12038	0.95809
3438.06657	0.95789
3436.01277	0.95761
3433.95897	0.95752
3431.90516	0.95749
3429.85136	0.95746
3427.79756	0.95781
3425.74375	0.95829
3423.68995	0.95837
3421.63615	0.95811
3419.58234	0.95744
3417.52854	0.95642
3415.47474	0.95556
3413.42093	0.95519
3411.36713	0.95525
3409.31333	0.95562
3407.25952	0.95569
3405.20572	0.95497
3403.15192	0.95428
3401.09811	0.95427
3399.04431	0.95452
3396.99051	0.95458
3394.93670	0.95455
3392.88290	0.95443
3390.82910	0.95422
3388.77529	0.95424
3386.72149	0.95452
3384.66769	0.95469
3382.61389	0.95433
3380.56008	0.95377
3378.50628	0.95359
3376.45248	0.95370
3374.39867	0.95399
3372.34487	0.95453
3370.29107	0.95485
3368.23726	0.95443
3366.18346	0.95374
3364.12966	0.95375
3362.07585	0.95434
3360.02205	0.95453
3357.96825	0.95418
3355.91444	0.95425
3353.86064	0.95500
3351.80684	0.95553
3349.75303	0.95536
3347.69923	0.95504
3345.64543	0.95514
3343.59162	0.95534
3341.53782	0.95523
3339.48402	0.95524
3337.43021	0.95575
3335.37641	0.95612
3333.32261	0.95632
3331.26881	0.95659
3329.21500	0.95659
3327.16120	0.95665
3325.10740	0.95695
3323.05359	0.95696
3320.99979	0.95683
3318.94599	0.95698
3316.89218	0.95758
3314.83838	0.95830
3312.78458	0.95835
3310.73077	0.95791
3308.67697	0.95775
3306.62317	0.95804
3304.56936	0.95870
3302.51556	0.95934
3300.46176	0.95953
3298.40795	0.95924
3296.35415	0.95864
3294.30035	0.95836
3292.24654	0.95916
3290.19274	0.95995
3288.13894	0.95963
3286.08513	0.95926
3284.03133	0.95942
3281.97753	0.95963
3279.92372	0.95978
3277.86992	0.95995
3275.81612	0.96006
3273.76232	0.96002
3271.70851	0.95984
3269.65471	0.95964
3267.60091	0.95986
3265.54710	0.96068
3263.49330	0.96157
3261.43950	0.96176
3259.38569	0.96120
3257.33189	0.96061
3255.27809	0.96052
3253.22428	0.96082
3251.17048	0.96139
3249.11668	0.96218
3247.06287	0.96277
3245.00907	0.96273
3242.95527	0.96275
3240.90146	0.96340
3238.84766	0.96380
3236.79386	0.96347
3234.74005	0.96312
3232.68625	0.96328
3230.63245	0.96360
3228.57864	0.96360
3226.52484	0.96341
3224.47104	0.96346
3222.41724	0.96376
3220.36343	0.96407
3218.30963	0.96435
3216.25583	0.96447
3214.20202	0.96468
3212.14822	0.96546
3210.09442	0.96627
3208.04061	0.96634
3205.98681	0.96603
3203.93301	0.96599
3201.87920	0.96604
3199.82540	0.96628
3197.77160	0.96670
3195.71779	0.96678
3193.66399	0.96691
3191.61019	0.96765
3189.55638	0.96854
3187.50258	0.96880
3185.44878	0.96841
3183.39497	0.96819
3181.34117	0.96828
3179.28737	0.96834
3177.23356	0.96846
3175.17976	0.96879
3173.12596	0.96928
3171.07215	0.96969
3169.01835	0.96989
3166.96455	0.97016
3164.91075	0.97068
3162.85694	0.97118
3160.80314	0.97123
3158.74934	0.97094
3156.69553	0.97081
3154.64173	0.97107
3152.58793	0.97163
3150.53412	0.97202
3148.48032	0.97201
3146.42652	0.97202
3144.37271	0.97242
3142.31891	0.97290
3140.26511	0.97313
3138.21130	0.97313
3136.15750	0.97295
3134.10370	0.97321
3132.04989	0.97423
3129.99609	0.97521
3127.94229	0.97555
3125.88848	0.97539
3123.83468	0.97503
3121.78088	0.97487
3119.72707	0.97504
3117.67327	0.97508
3115.61947	0.97509
3113.56566	0.97526
3111.51186	0.97532
3109.45806	0.97547
3107.40426	0.97579
3105.35045	0.97572
3103.29665	0.97541
3101.24285	0.97534
3099.18904	0.97559
3097.13524	0.97588
3095.08144	0.97567
3093.02763	0.97529
3090.97383	0.97545
3088.92003	0.97575
3086.86622	0.97583
3084.81242	0.97588
3082.75862	0.97582
3080.70481	0.97582
3078.65101	0.97606
3076.59721	0.97638
3074.54340	0.97683
3072.48960	0.97706
3070.43580	0.97706
3068.38199	0.97735
3066.32819	0.97749
3064.27439	0.97738
3062.22058	0.97736
3060.16678	0.97725
3058.11298	0.97721
3056.05918	0.97737
3054.00537	0.97744
3051.95157	0.97728
3049.89777	0.97705
3047.84396	0.97721
3045.79016	0.97754
3043.73636	0.97742
3041.68255	0.97715
3039.62875	0.97737
3037.57495	0.97784
3035.52114	0.97806
3033.46734	0.97825
3031.41354	0.97824
3029.35973	0.97793
3027.30593	0.97827
3025.25213	0.97926
3023.19832	0.97968
3021.14452	0.97946
3019.09072	0.97919
3017.03691	0.97877
3014.98311	0.97844
3012.92931	0.97858
3010.87550	0.97862
3008.82170	0.97826
3006.76790	0.97820
3004.71409	0.97861
3002.66029	0.97915
3000.60649	0.97962
2998.55269	0.97960
2996.49888	0.97917
2994.44508	0.97882
2992.39128	0.97864
2990.33747	0.97838
2988.28367	0.97814
2986.22987	0.97808
2984.17606	0.97808
2982.12226	0.97795
2980.06846	0.97745
2978.01465	0.97669
2975.96085	0.97596
2973.90705	0.97515
2971.85324	0.97432
2969.79944	0.97399
2967.74564	0.97394
2965.69183	0.97337
2963.63803	0.97219
2961.58423	0.97081
2959.53042	0.96912
2957.47662	0.96717
2955.42282	0.96558
2953.36901	0.96423
2951.31521	0.96216
2949.26141	0.95880
2947.20761	0.95441
2945.15380	0.94925
2943.10000	0.94270
2941.04620	0.93422
2938.99239	0.92403
2936.93859	0.91222
2934.88479	0.89868
2932.83098	0.88301
2930.77718	0.86426
2928.72338	0.84155
2926.66957	0.81420
2924.61577	0.78154
2922.56197	0.74358
2920.50816	0.70250
2918.45436	0.66287
2916.40056	0.63090
2914.34675	0.61340
2912.29295	0.61371
2910.23915	0.62843
2908.18534	0.65075
2906.13154	0.67492
2904.07774	0.69738
2902.02393	0.71672
2899.97013	0.73278
2897.91633	0.74642
2895.86252	0.75907
2893.80872	0.77133
2891.75492	0.78338
2889.70112	0.79575
2887.64731	0.80861
2885.59351	0.82188
2883.53971	0.83549
2881.48590	0.84951
2879.43210	0.86398
2877.37830	0.87838
2875.32449	0.89164
2873.27069	0.90269
2871.21689	0.91067
2869.16308	0.91495
2867.10928	0.91570
2865.05548	0.91318
2863.00167	0.90670
2860.94787	0.89487
2858.89407	0.87527
2856.84026	0.84466
2854.78646	0.79973
2852.73266	0.74030
2850.67885	0.67654
2848.62505	0.63016
2846.57125	0.61999
2844.51744	0.64602
2842.46364	0.69224
2840.40984	0.74171
2838.35603	0.78464
2836.30223	0.81834
2834.24843	0.84412
2832.19463	0.86393
2830.14082	0.87962
2828.08702	0.89235
2826.03322	0.90261
2823.97941	0.91101
2821.92561	0.91797
2819.87181	0.92376
2817.81800	0.92875
2815.76420	0.93314
2813.71040	0.93685
2811.65659	0.93982
2809.60279	0.94241
2807.54899	0.94476
2805.49518	0.94668
2803.44138	0.94856
2801.38758	0.95085
2799.33377	0.95306
2797.27997	0.95483
2795.22617	0.95645
2793.17236	0.95788
2791.11856	0.95899
2789.06476	0.96001
2787.01095	0.96100
2784.95715	0.96215
2782.90335	0.96356
2780.84955	0.96478
2778.79574	0.96570
2776.74194	0.96673
2774.68814	0.96769
2772.63433	0.96819
2770.58053	0.96864
2768.52673	0.96940
2766.47292	0.97000
2764.41912	0.97036
2762.36532	0.97094
2760.31151	0.97149
2758.25771	0.97187
2756.20391	0.97237
2754.15010	0.97278
2752.09630	0.97302
2750.04250	0.97336
2747.98869	0.97371
2745.93489	0.97382
2743.88109	0.97368
2741.82728	0.97340
2739.77348	0.97322
2737.71968	0.97344
2735.66587	0.97395
2733.61207	0.97431
2731.55827	0.97454
2729.50446	0.97491
2727.45066	0.97538
2725.39686	0.97570
2723.34306	0.97587
2721.28925	0.97611
2719.23545	0.97639
2717.18165	0.97651
2715.12784	0.97664
2713.07404	0.97669
2711.02024	0.97666
2708.96643	0.97684
2706.91263	0.97696
2704.85883	0.97702
2702.80502	0.97726
2700.75122	0.97739
2698.69742	0.97736
2696.64361	0.97761
2694.58981	0.97812
2692.53601	0.97836
2690.48220	0.97822
2688.42840	0.97811
2686.37460	0.97821
2684.32079	0.97835
2682.26699	0.97839
2680.21319	0.97840
2678.15938	0.97844
2676.10558	0.97826
2674.05178	0.97779
2671.99797	0.97742
2669.94417	0.97734
2667.89037	0.97739
2665.83657	0.97737
2663.78276	0.97712
2661.72896	0.97666
2659.67516	0.97629
2657.62135	0.97627
2655.56755	0.97647
2653.51375	0.97656
2651.45994	0.97648
2649.40614	0.97625
2647.35234	0.97621
2645.29853	0.97644
2643.24473	0.97646
2641.19093	0.97644
2639.13712	0.97663
2637.08332	0.97658
2635.02952	0.97647
2632.97571	0.97678
2630.92191	0.97696
2628.86811	0.97692
2626.81430	0.97711
2624.76050	0.97741
2622.70670	0.97780
2620.65289	0.97818
2618.59909	0.97845
2616.54529	0.97883
2614.49149	0.97918
2612.43768	0.97922
2610.38388	0.97927
2608.33008	0.97952
2606.27627	0.97979
2604.22247	0.97997
2602.16867	0.98037
2600.11486	0.98098
2598.06106	0.98118
2596.00726	0.98112
2593.95345	0.98146
2591.89965	0.98177
2589.84585	0.98172
2587.79204	0.98190
2585.73824	0.98230
2583.68444	0.98250
2581.63063	0.98262
2579.57683	0.98304
2577.52303	0.98336
2575.46922	0.98284
2573.41542	0.98208
2571.36162	0.98203
2569.30781	0.98245
2567.25401	0.98271
2565.20021	0.98291
2563.14640	0.98308
2561.09260	0.98299
2559.03880	0.98292
2556.98500	0.98315
2554.93119	0.98367
2552.87739	0.98418
2550.82359	0.98442
2548.76978	0.98422
2546.71598	0.98371
2544.66218	0.98349
2542.60837	0.98344
2540.55457	0.98352
2538.50077	0.98409
2536.44696	0.98470
2534.39316	0.98479
2532.33936	0.98460
2530.28555	0.98467
2528.23175	0.98489
2526.17795	0.98461
2524.12414	0.98408
2522.07034	0.98420
2520.01654	0.98462
2517.96273	0.98427
2515.90893	0.98362
2513.85513	0.98371
2511.80132	0.98450
2509.74752	0.98532
2507.69372	0.98553
2505.63992	0.98489
2503.58611	0.98392
2501.53231	0.98365
2499.47851	0.98429
2497.42470	0.98510
2495.37090	0.98547
2493.31710	0.98530
2491.26329	0.98488
2489.20949	0.98472
2487.15569	0.98475
2485.10188	0.98447
2483.04808	0.98424
2480.99428	0.98458
2478.94047	0.98488
2476.88667	0.98471
2474.83287	0.98450
2472.77906	0.98481
2470.72526	0.98541
2468.67146	0.98541
2466.61765	0.98542
2464.56385	0.98592
2462.51005	0.98598
2460.45624	0.98535
2458.40244	0.98461
2456.34864	0.98435
2454.29483	0.98444
2452.24103	0.98462
2450.18723	0.98501
2448.13343	0.98557
2446.07962	0.98598
2444.02582	0.98577
2441.97202	0.98516
2439.91821	0.98483
2437.86441	0.98459
2435.81061	0.98437
2433.75680	0.98458
2431.70300	0.98509
2429.64920	0.98530
2427.59539	0.98512
2425.54159	0.98525
2423.48779	0.98568
2421.43398	0.98584
2419.38018	0.98576
2417.32638	0.98551
2415.27257	0.98525
2413.21877	0.98479
2411.16497	0.98440
2409.11116	0.98468
2407.05736	0.98508
2405.00356	0.98555
2402.94975	0.98613
2400.89595	0.98604
2398.84215	0.98559
2396.78834	0.98554
2394.73454	0.98578
2392.68074	0.98589
2390.62694	0.98543
2388.57313	0.98490
2386.51933	0.98522
2384.46553	0.98599
2382.41172	0.98612
2380.35792	0.98545
2378.30412	0.98463
2376.25031	0.98419
2374.19651	0.98401
2372.14271	0.98396
2370.08890	0.98427
2368.03510	0.98487
2365.98130	0.98480
2363.92749	0.98331
2361.87369	0.98216
2359.81989	0.98255
2357.76608	0.98321
2355.71228	0.98365
2353.65848	0.98367
2351.60467	0.98340
2349.55087	0.98372
2347.49707	0.98429
2345.44326	0.98369
2343.38946	0.98252
2341.33566	0.98254
2339.28186	0.98269
2337.22805	0.98267
2335.17425	0.98307
2333.12045	0.98330
2331.06664	0.98304
2329.01284	0.98266
2326.95904	0.98220
2324.90523	0.98165
2322.85143	0.98133
2320.79763	0.98166
2318.74382	0.98229
2316.69002	0.98227
2314.63622	0.98213
2312.58241	0.98239
2310.52861	0.98275
2308.47481	0.98335
2306.42100	0.98348
2304.36720	0.98303
2302.31340	0.98321
2300.25959	0.98339
2298.20579	0.98285
2296.15199	0.98276
2294.09818	0.98314
2292.04438	0.98288
2289.99058	0.98221
2287.93677	0.98198
2285.88297	0.98223
2283.82917	0.98268
2281.77537	0.98267
2279.72156	0.98255
2277.66776	0.98379
2275.61396	0.98512
2273.56015	0.98466
2271.50635	0.98366
2269.45255	0.98388
2267.39874	0.98463
2265.34494	0.98501
2263.29114	0.98546
2261.23733	0.98570
2259.18353	0.98538
2257.12973	0.98497
2255.07592	0.98459
2253.02212	0.98381
2250.96832	0.98287
2248.91451	0.98329
2246.86071	0.98447
2244.80691	0.98447
2242.75310	0.98396
2240.69930	0.98413
2238.64550	0.98440
2236.59169	0.98420
2234.53789	0.98418
2232.48409	0.98446
2230.43029	0.98444
2228.37648	0.98465
2226.32268	0.98508
2224.26888	0.98390
2222.21507	0.98157
2220.16127	0.98075
2218.10747	0.98119
2216.05366	0.98093
2213.99986	0.98065
2211.94606	0.98222
2209.89225	0.98443
2207.83845	0.98410
2205.78465	0.98231
2203.73084	0.98281
2201.67704	0.98503
2199.62324	0.98578
2197.56943	0.98549
2195.51563	0.98594
2193.46183	0.98661
2191.40802	0.98611
2189.35422	0.98469
2187.30042	0.98446
2185.24661	0.98506
2183.19281	0.98506
2181.13901	0.98474
2179.08520	0.98465
2177.03140	0.98524
2174.97760	0.98553
2172.92380	0.98404
2170.86999	0.98103
2168.81619	0.97866
2166.76239	0.97769
2164.70858	0.97724
2162.65478	0.97878
2160.60098	0.98136
2158.54717	0.98272
2156.49337	0.98455
2154.43957	0.98542
2152.38576	0.98475
2150.33196	0.98556
2148.27816	0.98763
2146.22435	0.98840
2144.17055	0.98732
2142.11675	0.98582
2140.06294	0.98454
2138.00914	0.98423
2135.95534	0.98572
2133.90153	0.98731
2131.84773	0.98729
2129.79393	0.98639
2127.74012	0.98582
2125.68632	0.98594
2123.63252	0.98661
2121.57871	0.98673
2119.52491	0.98563
2117.47111	0.98504
2115.41731	0.98561
2113.36350	0.98562
2111.30970	0.98512
2109.25590	0.98476
2107.20209	0.98418
2105.14829	0.98405
2103.09449	0.98455
2101.04068	0.98467
2098.98688	0.98470
2096.93308	0.98517
2094.87927	0.98613
2092.82547	0.98745
2090.77167	0.98764
2088.71786	0.98663
2086.66406	0.98654
2084.61026	0.98762
2082.55645	0.98746
2080.50265	0.98542
2078.44885	0.98363
2076.39504	0.98340
2074.34124	0.98452
2072.28744	0.98570
2070.23363	0.98634
2068.17983	0.98660
2066.12603	0.98618
2064.07223	0.98604
2062.01842	0.98602
2059.96462	0.98528
2057.91082	0.98446
2055.85701	0.98473
2053.80321	0.98599
2051.74941	0.98581
2049.69560	0.98448
2047.64180	0.98477
2045.58800	0.98621
2043.53419	0.98604
2041.48039	0.98354
2039.42659	0.98265
2037.37278	0.98601
2035.31898	0.98971
2033.26518	0.99033
2031.21137	0.98934
2029.15757	0.98842
2027.10377	0.98762
2025.04996	0.98566
2022.99616	0.98270
2020.94236	0.98099
2018.88855	0.98062
2016.83475	0.98087
2014.78095	0.98149
2012.72714	0.98232
2010.67334	0.98419
2008.61954	0.98591
2006.56574	0.98501
2004.51193	0.98341
2002.45813	0.98441
2000.40433	0.98582
1998.35052	0.98482
1996.29672	0.98381
1994.24292	0.98474
1992.18911	0.98537
1990.13531	0.98449
1988.08151	0.98456
1986.02770	0.98723
1983.97390	0.98956
1981.92010	0.98754
1979.86629	0.98421
1977.81249	0.98554
1975.75869	0.98777
1973.70488	0.98566
1971.65108	0.98227
1969.59728	0.98044
1967.54347	0.98035
1965.48967	0.98197
1963.43587	0.98505
1961.38206	0.98728
1959.32826	0.98598
1957.27446	0.98409
1955.22066	0.98475
1953.16685	0.98577
1951.11305	0.98618
1949.05925	0.98656
1947.00544	0.98633
1944.95164	0.98545
1942.89784	0.98491
1940.84403	0.98511
1938.79023	0.98512
1936.73643	0.98536
1934.68262	0.98611
1932.62882	0.98657
1930.57502	0.98631
1928.52121	0.98540
1926.46741	0.98533
1924.41361	0.98671
1922.35980	0.98726
1920.30600	0.98599
1918.25220	0.98501
1916.19839	0.98538
1914.14459	0.98644
1912.09079	0.98774
1910.03698	0.98805
1907.98318	0.98686
1905.92938	0.98574
1903.87557	0.98549
1901.82177	0.98564
1899.76797	0.98542
1897.71417	0.98432
1895.66036	0.98304
1893.60656	0.98309
1891.55276	0.98423
1889.49895	0.98501
1887.44515	0.98561
1885.39135	0.98609
1883.33754	0.98588
1881.28374	0.98557
1879.22994	0.98561
1877.17613	0.98574
1875.12233	0.98540
1873.06853	0.98440
1871.01472	0.98391
1868.96092	0.98502
1866.90712	0.98644
1864.85331	0.98682
1862.79951	0.98654
1860.74571	0.98614
1858.69190	0.98598
1856.63810	0.98572
1854.58430	0.98515
1852.53049	0.98470
1850.47669	0.98451
1848.42289	0.98442
1846.36908	0.98485
1844.31528	0.98551
1842.26148	0.98525
1840.20768	0.98478
1838.15387	0.98488
1836.10007	0.98515
1834.04627	0.98504
1831.99246	0.98471
1829.93866	0.98458
1827.88486	0.98450
1825.83105	0.98450
1823.77725	0.98487
1821.72345	0.98486
1819.66964	0.98413
1817.61584	0.98355
1815.56204	0.98352
1813.50823	0.98361
1811.45443	0.98388
1809.40063	0.98404
1807.34682	0.98366
1805.29302	0.98348
1803.23922	0.98386
1801.18541	0.98427
1799.13161	0.98416
1797.07781	0.98357
1795.02400	0.98317
1792.97020	0.98289
1790.91640	0.98237
1788.86260	0.98246
1786.80879	0.98306
1784.75499	0.98324
1782.70119	0.98300
1780.64738	0.98288
1778.59358	0.98286
1776.53978	0.98265
1774.48597	0.98227
1772.43217	0.98191
1770.37837	0.98181
1768.32456	0.98182
1766.27076	0.98188
1764.21696	0.98207
1762.16315	0.98185
1760.10935	0.98135
1758.05555	0.98129
1756.00174	0.98145
1753.94794	0.98148
1751.89414	0.98137
1749.84033	0.98080
1747.78653	0.97983
1745.73273	0.97928
1743.67892	0.97922
1741.62512	0.97897
1739.57132	0.97865
1737.51751	0.97867
1735.46371	0.97846
1733.40991	0.97767
1731.35611	0.97702
1729.30230	0.97636
1727.24850	0.97541
1725.19470	0.97420
1723.14089	0.97275
1721.08709	0.97176
1719.03329	0.97116
1716.97948	0.97008
1714.92568	0.96917
1712.87188	0.96909
1710.81807	0.96950
1708.76427	0.97020
1706.71047	0.97092
1704.65666	0.97144
1702.60286	0.97196
1700.54906	0.97219
1698.49525	0.97195
1696.44145	0.97222
1694.38765	0.97252
1692.33384	0.97247
1690.28004	0.97244
1688.22624	0.97247
1686.17243	0.97229
1684.11863	0.97139
1682.06483	0.97040
1680.01103	0.96988
1677.95722	0.96939
1675.90342	0.96886
1673.84962	0.96836
1671.79581	0.96803
1669.74201	0.96777
1667.68821	0.96741
1665.63440	0.96700
1663.58060	0.96648
1661.52680	0.96598
1659.47299	0.96564
1657.41919	0.96554
1655.36539	0.96592
1653.31158	0.96641
1651.25778	0.96570
1649.20398	0.96471
1647.15017	0.96362
1645.09637	0.96273
1643.04257	0.96266
1640.98876	0.96304
1638.93496	0.96373
1636.88116	0.96478
1634.82735	0.96544
1632.77355	0.96530
1630.71975	0.96516
1628.66594	0.96516
1626.61214	0.96516
1624.55834	0.96521
1622.50454	0.96571
1620.45073	0.96646
1618.39693	0.96706
1616.34313	0.96759
1614.28932	0.96791
1612.23552	0.96824
1610.18172	0.96869
1608.12791	0.96893
1606.07411	0.96912
1604.02031	0.96963
1601.96650	0.97012
1599.91270	0.97045
1597.85890	0.97083
1595.80509	0.97095
1593.75129	0.97061
1591.69749	0.97052
1589.64368	0.97113
1587.58988	0.97184
1585.53608	0.97235
1583.48227	0.97285
1581.42847	0.97318
1579.37467	0.97298
1577.32086	0.97263
1575.26706	0.97322
1573.21326	0.97432
1571.15945	0.97482
1569.10565	0.97482
1567.05185	0.97499
1564.99805	0.97535
1562.94424	0.97560
1560.89044	0.97553
1558.83664	0.97457
1556.78283	0.97376
1554.72903	0.97388
1552.67523	0.97440
1550.62142	0.97513
1548.56762	0.97580
1546.51382	0.97628
1544.46001	0.97632
1542.40621	0.97588
1540.35241	0.97577
1538.29860	0.97620
1536.24480	0.97632
1534.19100	0.97616
1532.13719	0.97615
1530.08339	0.97649
1528.02959	0.97684
1525.97578	0.97683
1523.92198	0.97665
1521.86818	0.97647
1519.81437	0.97657
1517.76057	0.97681
1515.70677	0.97669
1513.65297	0.97648
1511.59916	0.97651
1509.54536	0.97663
1507.49156	0.97642
1505.43775	0.97613
1503.38395	0.97624
1501.33015	0.97649
1499.27634	0.97644
1497.22254	0.97590
1495.16874	0.97501
1493.11493	0.97416
1491.06113	0.97345
1489.00733	0.97278
1486.95352	0.97180
1484.89972	0.97020
1482.84592	0.96754
1480.79211	0.96206
1478.73831	0.94900
1476.68451	0.91620
1474.63070	0.85456
1472.57690	0.79505
1470.52310	0.79439
1468.46929	0.82706
1466.41549	0.85080
1464.36169	0.85071
1462.30788	0.84763
1460.25408	0.86566
1458.20028	0.90119
1456.14648	0.93236
1454.09267	0.94422
1452.03887	0.94938
1449.98507	0.95306
1447.93126	0.95559
1445.87746	0.95700
1443.82366	0.95778
1441.76985	0.95858
1439.71605	0.95958
1437.66225	0.96078
1435.60844	0.96218
1433.55464	0.96324
1431.50084	0.96407
1429.44703	0.96507
1427.39323	0.96613
1425.33943	0.96682
1423.28562	0.96754
1421.23182	0.96860
1419.17802	0.96958
1417.12421	0.96974
1415.07041	0.96922
1413.01661	0.96865
1410.96280	0.96850
1408.90900	0.96879
1406.85520	0.96904
1404.80139	0.96941
1402.74759	0.97017
1400.69379	0.97105
1398.63999	0.97166
1396.58618	0.97168
1394.53238	0.97132
1392.47858	0.97112
1390.42477	0.97115
1388.37097	0.97125
1386.31717	0.97134
1384.26336	0.97127
1382.20956	0.97108
1380.15576	0.97060
1378.10195	0.96994
1376.04815	0.96958
1373.99435	0.96928
1371.94054	0.96858
1369.88674	0.96781
1367.83294	0.96742
1365.77913	0.96771
1363.72533	0.96861
1361.67153	0.96953
1359.61772	0.96989
1357.56392	0.96995
1355.51012	0.96977
1353.45631	0.96951
1351.40251	0.96971
1349.34871	0.97024
1347.29491	0.97065
1345.24110	0.97085
1343.18730	0.97111
1341.13350	0.97143
1339.07969	0.97144
1337.02589	0.97119
1334.97209	0.97114
1332.91828	0.97139
1330.86448	0.97167
1328.81068	0.97187
1326.75687	0.97175
1324.70307	0.97127
1322.64927	0.97098
1320.59546	0.97103
1318.54166	0.97103
1316.48786	0.97087
1314.43405	0.97057
1312.38025	0.97007
1310.32645	0.96979
1308.27264	0.96991
1306.21884	0.96993
1304.16504	0.96962
1302.11123	0.96937
1300.05743	0.96953
1298.00363	0.96999
1295.94982	0.97021
1293.89602	0.96989
1291.84222	0.96939
1289.78842	0.96918
1287.73461	0.96923
1285.68081	0.96938
1283.62701	0.96944
1281.57320	0.96940
1279.51940	0.96943
1277.46560	0.96945
1275.41179	0.96929
1273.35799	0.96885
1271.30419	0.96831
1269.25038	0.96811
1267.19658	0.96844
1265.14278	0.96886
1263.08897	0.96875
1261.03517	0.96832
1258.98137	0.96810
1256.92756	0.96807
1254.87376	0.96790
1252.81996	0.96757
1250.76615	0.96714
1248.71235	0.96678
1246.65855	0.96688
1244.60474	0.96702
1242.55094	0.96657
1240.49714	0.96607
1238.44334	0.96597
1236.38953	0.96586
1234.33573	0.96527
1232.28193	0.96449
1230.22812	0.96412
1228.17432	0.96399
1226.12052	0.96372
1224.06671	0.96330
1222.01291	0.96286
1219.95911	0.96243
1217.90530	0.96202
1215.85150	0.96159
1213.79770	0.96097
1211.74389	0.96016
1209.69009	0.95942
1207.63629	0.95881
1205.58248	0.95802
1203.52868	0.95703
1201.47488	0.95594
1199.42107	0.95462
1197.36727	0.95338
1195.31347	0.95230
1193.25966	0.95099
1191.20586	0.94948
1189.15206	0.94798
1187.09825	0.94639
1185.04445	0.94471
1182.99065	0.94313
1180.93685	0.94161
1178.88304	0.94014
1176.82924	0.93863
1174.77544	0.93717
1172.72163	0.93611
1170.66783	0.93520
1168.61403	0.93419
1166.56022	0.93342
1164.50642	0.93297
1162.45262	0.93259
1160.39881	0.93219
1158.34501	0.93179
1156.29121	0.93121
1154.23740	0.93042
1152.18360	0.92963
1150.12980	0.92894
1148.07599	0.92803
1146.02219	0.92683
1143.96839	0.92570
1141.91458	0.92473
1139.86078	0.92381
1137.80698	0.92314
1135.75317	0.92260
1133.69937	0.92182
1131.64557	0.92070
1129.59176	0.91960
1127.53796	0.91918
1125.48416	0.91917
1123.43036	0.91869
1121.37655	0.91780
1119.32275	0.91684
1117.26895	0.91590
1115.21514	0.91525
1113.16134	0.91464
1111.10754	0.91366
1109.05373	0.91261
1106.99993	0.91174
1104.94613	0.91100
1102.89232	0.91027
1100.83852	0.90955
1098.78472	0.90910
1096.73091	0.90898
1094.67711	0.90903
1092.62331	0.90920
1090.56950	0.90900
1088.51570	0.90865
1086.46190	0.90900
1084.40809	0.90965
1082.35429	0.90999
1080.30049	0.91025
1078.24668	0.91056
1076.19288	0.91118
1074.13908	0.91222
1072.08528	0.91312
1070.03147	0.91371
1067.97767	0.91405
1065.92387	0.91414
1063.87006	0.91418
1061.81626	0.91441
1059.76246	0.91467
1057.70865	0.91438
1055.65485	0.91365
1053.60105	0.91327
1051.54724	0.91328
1049.49344	0.91306
1047.43964	0.91226
1045.38583	0.91129
1043.33203	0.91075
1041.27823	0.91043
1039.22442	0.90996
1037.17062	0.90959
1035.11682	0.90952
1033.06301	0.90967
1031.00921	0.90999
1028.95541	0.91055
1026.90160	0.91105
1024.84780	0.91124
1022.79400	0.91178
1020.74019	0.91282
1018.68639	0.91356
1016.63259	0.91360
1014.57879	0.91341
1012.52498	0.91349
1010.47118	0.91383
1008.41738	0.91402
1006.36357	0.91414
1004.30977	0.91468
1002.25597	0.91562
1000.20216	0.91675
998.14836	0.91808
996.09456	0.91975
994.04075	0.92146
991.98695	0.92296
989.93315	0.92460
987.87934	0.92650
985.82554	0.92852
983.77174	0.93070
981.71793	0.93255
979.66413	0.93391
977.61033	0.93542
975.55652	0.93732
973.50272	0.93943
971.44892	0.94122
969.39511	0.94235
967.34131	0.94328
965.28751	0.94445
963.23371	0.94556
961.17990	0.94643
959.12610	0.94748
957.07230	0.94866
955.01849	0.94951
952.96469	0.94999
950.91089	0.95047
948.85708	0.95119
946.80328	0.95207
944.74948	0.95266
942.69567	0.95249
940.64187	0.95256
938.58807	0.95347
936.53426	0.95441
934.48046	0.95493
932.42666	0.95489
930.37285	0.95439
928.31905	0.95402
926.26525	0.95440
924.21144	0.95506
922.15764	0.95529
920.10384	0.95537
918.05003	0.95537
915.99623	0.95508
913.94243	0.95476
911.88862	0.95445
909.83482	0.95399
907.78102	0.95383
905.72722	0.95474
903.67341	0.95646
901.61961	0.95800
899.56581	0.95909
897.51200	0.95989
895.45820	0.96005
893.40440	0.95960
891.35059	0.95970
889.29679	0.96040
887.24299	0.96087
885.18918	0.96120
883.13538	0.96161
881.08158	0.96155
879.02777	0.96093
876.97397	0.96038
874.92017	0.96018
872.86636	0.96065
870.81256	0.96188
868.75876	0.96289
866.70495	0.96299
864.65115	0.96278
862.59735	0.96296
860.54354	0.96322
858.48974	0.96326
856.43594	0.96306
854.38213	0.96282
852.32833	0.96296
850.27453	0.96333
848.22073	0.96347
846.16692	0.96362
844.11312	0.96393
842.05932	0.96404
840.00551	0.96389
837.95171	0.96343
835.89791	0.96232
833.84410	0.96102
831.79030	0.96086
829.73650	0.96174
827.68269	0.96210
825.62889	0.96134
823.57509	0.96026
821.52128	0.95941
819.46748	0.95907
817.41368	0.95959
815.35987	0.96018
813.30607	0.95980
811.25227	0.95841
809.19846	0.95699
807.14466	0.95612
805.09086	0.95479
803.03705	0.95243
800.98325	0.95016
798.92945	0.94904
796.87565	0.94895
794.82184	0.94952
792.76804	0.95023
790.71424	0.95075
788.66043	0.95111
786.60663	0.95119
784.55283	0.95103
782.49902	0.95079
780.44522	0.95031
778.39142	0.94941
776.33761	0.94878
774.28381	0.94874
772.23001	0.94911
770.17620	0.95020
768.12240	0.95152
766.06860	0.95222
764.01479	0.95154
761.96099	0.94977
759.90719	0.94870
757.85338	0.94899
755.79958	0.95012
753.74578	0.95134
751.69197	0.95151
749.63817	0.95032
747.58437	0.94876
745.53056	0.94814
743.47676	0.94814
741.42296	0.94723
739.36916	0.94485
737.31535	0.93983
735.26155	0.92552
733.20775	0.89528
731.15394	0.86556
729.10014	0.86336
727.04634	0.88004
724.99253	0.88580
722.93873	0.86589
720.88493	0.82082
718.83112	0.77227
716.77732	0.75406
714.72352	0.77924
712.66971	0.82863
710.61591	0.87148
708.56211	0.89687
706.50830	0.91084
704.45450	0.91867
702.40070	0.92317
700.34689	0.92651
698.29309	0.92870
696.23929	0.92971
694.18548	0.93097
692.13168	0.93271
690.07788	0.93375
688.02408	0.93383
685.97027	0.93414
683.91647	0.93534
681.86267	0.93672
679.80886	0.93766
677.75506	0.93806
675.70126	0.93779
673.64745	0.93689
671.59365	0.93580
669.53985	0.93532
667.48604	0.93629
665.43224	0.93739
663.37844	0.93731
661.32463	0.93639
659.27083	0.93549
657.21703	0.93520
655.16322	0.93540
653.10942	0.93550
651.05562	0.93561
649.00181	0.93559
646.94801	0.93533
644.89421	0.93500
642.84040	0.93456
640.78660	0.93497
638.73280	0.93600
636.67899	0.93608
634.62519	0.93591
632.57139	0.93601
630.51759	0.93555
628.46378	0.93562
626.40998	0.93628
624.35618	0.93557
622.30237	0.93393
620.24857	0.93300
618.19477	0.93308
616.14096	0.93349
614.08716	0.93325
612.03336	0.93249
609.97955	0.93150
607.92575	0.93060
605.87195	0.93042
603.81814	0.93009
601.76434	0.92887
599.71054	0.92730
597.65673	0.92626
595.60293	0.92620
593.54913	0.92676
591.49532	0.92753
589.44152	0.92810
587.38772	0.92845
585.33391	0.92840
583.28011	0.92799
581.22631	0.92801
579.17250	0.92927
577.11870	0.93135
575.06490	0.93243
573.01110	0.93198
570.95729	0.93171
568.90349	0.93181
566.84969	0.93023
564.79588	0.92865
562.74208	0.92951
560.68828	0.92995
558.63447	0.92892
556.58067	0.92946
554.52687	0.93009
552.47306	0.92872
550.41926	0.92819
548.36546	0.92831
546.31165	0.92605
544.25785	0.92297
542.20405	0.92258
540.15024	0.92412
538.09644	0.92522
536.04264	0.92555
533.98883	0.92455
531.93503	0.92271
529.88123	0.92257
527.82742	0.92408
525.77362	0.92543
523.71982	0.92621
521.66602	0.92631
519.61221	0.92515
517.55841	0.92337
515.50461	0.92277
513.45080	0.92364
511.39700	0.92525
509.34320	0.92752
507.28939	0.93018
505.23559	0.93149
503.18179	0.93143
501.12798	0.93086
499.07418	0.92930
497.02038	0.92836
494.96657	0.92841
492.91277	0.92694
490.85897	0.92423
488.80516	0.92294
486.75136	0.92282
484.69756	0.92256
482.64375	0.92241
480.58995	0.92221
478.53615	0.92155
476.48234	0.91979
474.42854	0.91733
472.37474	0.91367
470.32093	0.90892
468.26713	0.90579
466.21333	0.90467
464.15953	0.90449
462.10572	0.90475
460.05192	0.90640
457.99812	0.90842
455.94431	0.90885
453.89051	0.91215
451.83671	0.91824
449.78290	0.92087
447.72910	0.92176
445.67530	0.92353
443.62149	0.92316
441.56769	0.92160
439.51389	0.92232
437.46008	0.92426
435.40628	0.92330
433.35248	0.91858
431.29867	0.91364
429.24487	0.91044
427.19107	0.90832
425.13726	0.90717
423.08346	0.90770
421.02966	0.91095
418.97585	0.91763
416.92205	0.91940
414.86825	0.91402
412.81445	0.91004
410.76064	0.91370
408.70684	0.91888
406.65304	0.91739
404.59923	0.91432
402.54543	0.91222
400.49163	0.90736
398.43782	0.90522
