3996.70104	0.99039
3994.64724	0.99022
3992.59344	0.98973
3990.53964	0.98982
3988.48583	0.99032
3986.43203	0.99016
3984.37823	0.98962
3982.32442	0.98959
3980.27062	0.98955
3978.21682	0.98882
3976.16301	0.98833
3974.10921	0.98873
3972.05541	0.98942
3970.00160	0.98979
3967.94780	0.98981
3965.89400	0.98975
3963.84019	0.98999
3961.78639	0.99006
3959.73259	0.98948
3957.67878	0.98915
3955.62498	0.98936
3953.57118	0.98945
3951.51737	0.98933
3949.46357	0.98929
3947.40977	0.98923
3945.35596	0.98919
3943.30216	0.98963
3941.24836	0.99001
3939.19455	0.98977
3937.14075	0.98940
3935.08695	0.98939
3933.03315	0.98963
3930.97934	0.98955
3928.92554	0.98927
3926.87174	0.98927
3924.81793	0.98930
3922.76413	0.98912
3920.71033	0.98903
3918.65652	0.98928
3916.60272	0.98961
3914.54892	0.98948
3912.49511	0.98918
3910.44131	0.98919
3908.38751	0.98903
3906.33370	0.98876
3904.27990	0.98905
3902.22610	0.98937
3900.17229	0.98942
3898.11849	0.98981
3896.06469	0.98989
3894.01088	0.98953
3891.95708	0.98938
3889.90328	0.98945
3887.84947	0.98962
3885.79567	0.99000
3883.74187	0.99020
3881.68807	0.99009
3879.63426	0.98999
3877.58046	0.98992
3875.52666	0.99005
3873.47285	0.99029
3871.41905	0.99035
3869.36525	0.99069
3867.31144	0.99089
3865.25764	0.99055
3863.20384	0.99021
3861.15003	0.99002
3859.09623	0.98973
3857.04243	0.98945
3854.98862	0.98980
3852.93482	0.99146
3850.88102	0.99208
3848.82721	0.99158
3846.77341	0.99132
3844.71961	0.99113
3842.66580	0.99074
3840.61200	0.99046
3838.55820	0.99023
3836.50439	0.98990
3834.45059	0.98980
3832.39679	0.99000
3830.34298	0.99035
3828.28918	0.99045
3826.23538	0.99006
3824.18158	0.98989
3822.12777	0.99044
3820.07397	0.99118
3818.02017	0.99137
3815.96636	0.99110
3813.91256	0.99066
3811.85876	0.99032
3809.80495	0.99001
3807.75115	0.98984
3805.69735	0.98973
3803.64354	0.98943
3801.58974	0.98955
3799.53594	0.98991
3797.48213	0.98998
3795.42833	0.99011
3793.37453	0.99029
3791.32072	0.99042
3789.26692	0.99029
3787.21312	0.98996
3785.15931	0.98971
3783.10551	0.98969
3781.05171	0.98981
3778.99790	0.99006
3776.94410	0.99026
3774.89030	0.99021
3772.83650	0.98988
3770.78269	0.98980
3768.72889	0.99042
3766.67509	0.99073
3764.62128	0.99046
3762.56748	0.99051
3760.51368	0.99056
3758.45987	0.99006
3756.40607	0.98991
3754.35227	0.99054
3752.29846	0.99146
3750.24466	0.99163
3748.19086	0.99060
3746.13705	0.98992
3744.08325	0.99041
3742.02945	0.99108
3739.97564	0.99117
3737.92184	0.99128
3735.86804	0.99187
3733.81423	0.99245
3731.76043	0.99257
3729.70663	0.99223
3727.65282	0.99127
3725.59902	0.99047
3723.54522	0.99043
3721.49141	0.99048
3719.43761	0.99061
3717.38381	0.99055
3715.33001	0.98964
3713.27620	0.98789
3711.22240	0.98607
3709.16860	0.98434
3707.11479	0.98173
3705.06099	0.97902
3703.00719	0.97711
3700.95338	0.97523
3698.89958	0.97336
3696.84578	0.97261
3694.79197	0.97280
3692.73817	0.97291
3690.68437	0.97300
3688.63056	0.97415
3686.57676	0.97551
3684.52296	0.97650
3682.46915	0.97732
3680.41535	0.97779
3678.36155	0.97789
3676.30774	0.97763
3674.25394	0.97706
3672.20014	0.97654
3670.14633	0.97646
3668.09253	0.97646
3666.03873	0.97566
3663.98492	0.97423
3661.93112	0.97293
3659.87732	0.97243
3657.82352	0.97237
3655.76971	0.97179
3653.71591	0.97079
3651.66211	0.97022
3649.60830	0.97071
3647.55450	0.97164
3645.50070	0.97137
3643.44689	0.97057
3641.39309	0.96975
3639.33929	0.96887
3637.28548	0.96807
3635.23168	0.96755
3633.17788	0.96724
3631.12407	0.96666
3629.07027	0.96541
3627.01647	0.96411
3624.96266	0.96310
3622.90886	0.96220
3620.85506	0.96190
3618.80125	0.96276
3616.74745	0.96395
3614.69365	0.96448
3612.63984	0.96490
3610.58604	0.96578
3608.53224	0.96700
3606.47844	0.96743
3604.42463	0.96684
3602.37083	0.96668
3600.31703	0.96718
3598.26322	0.96709
3596.20942	0.96654
3594.15562	0.96670
3592.10181	0.96735
3590.04801	0.96791
3587.99421	0.96822
3585.94040	0.96740
3583.88660	0.96599
3581.83280	0.96538
3579.77899	0.96567
3577.72519	0.96599
3575.67139	0.96595
3573.61758	0.96568
3571.56378	0.96508
3569.50998	0.96435
3567.45617	0.96401
3565.40237	0.96402
3563.34857	0.96361
3561.29476	0.96320
3559.24096	0.96358
3557.18716	0.96386
3555.13335	0.96360
3553.07955	0.96367
3551.02575	0.96373
3548.97195	0.96326
3546.91814	0.96309
3544.86434	0.96335
3542.81054	0.96319
3540.75673	0.96263
3538.70293	0.96225
3536.64913	0.96222
3534.59532	0.96187
3532.54152	0.96133
3530.48772	0.96124
3528.43391	0.96130
3526.38011	0.96124
3524.32631	0.96096
3522.27250	0.96053
3520.21870	0.96039
3518.16490	0.96067
3516.11109	0.96071
3514.05729	0.96006
3512.00349	0.95972
3509.94968	0.96026
3507.89588	0.96064
3505.84208	0.96024
3503.78827	0.95972
3501.73447	0.95941
3499.68067	0.95904
3497.62687	0.95868
3495.57306	0.95844
3493.51926	0.95839
3491.46546	0.95885
3489.41165	0.95968
3487.35785	0.96000
3485.30405	0.95983
3483.25024	0.95965
3481.19644	0.95913
3479.14264	0.95832
3477.08883	0.95774
3475.03503	0.95744
3472.98123	0.95702
3470.92742	0.95688
3468.87362	0.95751
3466.81982	0.95804
3464.76601	0.95787
3462.71221	0.95738
3460.65841	0.95671
3458.60460	0.95626
3456.55080	0.95643
3454.49700	0.95692
3452.44319	0.95734
3450.38939	0.95719
3448.33559	0.95618
3446.28178	0.95521
3444.22798	0.95516
3442.17418	0.95536
3440.12038	0.95520
3438.06657	0.95491
3436.01277	0.95470
3433.95897	0.95435
3431.90516	0.95389
3429.85136	0.95388
3427.79756	0.95404
3425.74375	0.95387
3423.68995	0.95384
3421.63615	0.95394
3419.58234	0.95359
3417.52854	0.95292
3415.47474	0.95250
3413.42093	0.95224
3411.36713	0.95194
3409.31333	0.95160
3407.25952	0.95119
3405.20572	0.95089
3403.15192	0.95078
3401.09811	0.95082
3399.04431	0.95107
3396.99051	0.95143
3394.93670	0.95152
3392.88290	0.95103
3390.82910	0.95033
3388.77529	0.95023
3386.72149	0.95067
3384.66769	0.95092
3382.61389	0.95097
3380.56008	0.95112
3378.50628	0.95124
3376.45248	0.95145
3374.39867	0.95187
3372.34487	0.95186
3370.29107	0.95129
3368.23726	0.95076
3366.18346	0.95049
3364.12966	0.95054
3362.07585	0.95089
3360.02205	0.95146
3357.96825	0.95206
3355.91444	0.95240
3353.86064	0.95231
3351.80684	0.95197
3349.75303	0.95185
3347.69923	0.95194
3345.64543	0.95213
3343.59162	0.95244
3341.53782	0.95249
3339.48402	0.95234
3337.43021	0.95264
3335.37641	0.95288
3333.32261	0.95235
3331.26881	0.95181
3329.21500	0.95166
3327.16120	0.95159
3325.10740	0.95183
3323.05359	0.95242
3320.99979	0.95281
3318.94599	0.95262
3316.89218	0.95235
3314.83838	0.95259
3312.78458	0.95321
3310.73077	0.95376
3308.67697	0.95393
3306.62317	0.95378
3304.56936	0.95361
3302.51556	0.95378
3300.46176	0.95425
3298.40795	0.95437
3296.35415	0.95403
3294.30035	0.95408
3292.24654	0.95451
3290.19274	0.95476
3288.13894	0.95501
3286.08513	0.95515
3284.03133	0.95485
3281.97753	0.95449
3279.92372	0.95437
3277.86992	0.95415
3275.81612	0.95392
3273.76232	0.95407
3271.70851	0.95456
3269.65471	0.95507
3267.60091	0.95527
3265.54710	0.95495
3263.49330	0.95456
3261.43950	0.95478
3259.38569	0.95532
3257.33189	0.95550
3255.27809	0.95551
3253.22428	0.95594
3251.17048	0.95657
3249.11668	0.95655
3247.06287	0.95613
3245.00907	0.95609
3242.95527	0.95610
3240.90146	0.95592
3238.84766	0.95597
3236.79386	0.95641
3234.74005	0.95693
3232.68625	0.95729
3230.63245	0.95751
3228.57864	0.95753
3226.52484	0.95729
3224.47104	0.95727
3222.41724	0.95778
3220.36343	0.95829
3218.30963	0.95876
3216.25583	0.95928
3214.20202	0.95938
3212.14822	0.95910
3210.09442	0.95908
3208.04061	0.95920
3205.98681	0.95904
3203.93301	0.95903
3201.87920	0.95940
3199.82540	0.95998
3197.77160	0.96057
3195.71779	0.96108
3193.66399	0.96155
3191.61019	0.96168
3189.55638	0.96154
3187.50258	0.96167
3185.44878	0.96182
3183.39497	0.96178
3181.34117	0.96204
3179.28737	0.96271
3177.23356	0.96347
3175.17976	0.96366
3173.12596	0.96335
3171.07215	0.96356
3169.01835	0.96428
3166.96455	0.96456
3164.91075	0.96454
3162.85694	0.96462
3160.80314	0.96464
3158.74934	0.96497
3156.69553	0.96550
3154.64173	0.96578
3152.58793	0.96596
3150.53412	0.96627
3148.48032	0.96644
3146.42652	0.96600
3144.37271	0.96541
3142.31891	0.96559
3140.26511	0.96645
3138.21130	0.96722
3136.15750	0.96770
3134.10370	0.96796
3132.04989	0.96796
3129.99609	0.96807
3127.94229	0.96842
3125.88848	0.96846
3123.83468	0.96802
3121.78088	0.96770
3119.72707	0.96786
3117.67327	0.96834
3115.61947	0.96895
3113.56566	0.96915
3111.51186	0.96886
3109.45806	0.96861
3107.40426	0.96835
3105.35045	0.96830
3103.29665	0.96901
3101.24285	0.96989
3099.18904	0.97028
3097.13524	0.97039
3095.08144	0.97043
3093.02763	0.97057
3090.97383	0.97089
3088.92003	0.97110
3086.86622	0.97109
3084.81242	0.97100
3082.75862	0.97085
3080.70481	0.97066
3078.65101	0.97077
3076.59721	0.97111
3074.54340	0.97133
3072.48960	0.97162
3070.43580	0.97199
3068.38199	0.97217
3066.32819	0.97242
3064.27439	0.97290
3062.22058	0.97330
3060.16678	0.97363
3058.11298	0.97403
3056.05918	0.97423
3054.00537	0.97423
3051.95157	0.97440
3049.89777	0.97466
3047.84396	0.97462
3045.79016	0.97463
3043.73636	0.97491
3041.68255	0.97508
3039.62875	0.97527
3037.57495	0.97587
3035.52114	0.97622
3033.46734	0.97604
3031.41354	0.97633
3029.35973	0.97667
3027.30593	0.97651
3025.25213	0.97657
3023.19832	0.97678
3021.14452	0.97701
3019.09072	0.97724
3017.03691	0.97716
3014.98311	0.97721
3012.92931	0.97740
3010.87550	0.97716
3008.82170	0.97683
3006.76790	0.97681
3004.71409	0.97699
3002.66029	0.97722
3000.60649	0.97740
2998.55269	0.97722
2996.49888	0.97695
2994.44508	0.97720
2992.39128	0.97742
2990.33747	0.97712
2988.28367	0.97680
2986.22987	0.97664
2984.17606	0.97632
2982.12226	0.97594
2980.06846	0.97571
2978.01465	0.97531
2975.96085	0.97462
2973.90705	0.97393
2971.85324	0.97314
2969.79944	0.97160
2967.74564	0.96906
2965.69183	0.96608
2963.63803	0.96323
2961.58423	0.96055
2959.53042	0.95798
2957.47662	0.95586
2955.42282	0.95442
2953.36901	0.95373
2951.31521	0.95398
2949.26141	0.95520
2947.20761	0.95715
2945.15380	0.95947
2943.10000	0.96194
2941.04620	0.96416
2938.99239	0.96586
2936.93859	0.96696
2934.88479	0.96675
2932.83098	0.96472
2930.77718	0.96189
2928.72338	0.95958
2926.66957	0.95785
2924.61577	0.95612
2922.56197	0.95421
2920.50816	0.95244
2918.45436	0.95130
2916.40056	0.95127
2914.34675	0.95273
2912.29295	0.95502
2910.23915	0.95677
2908.18534	0.95764
2906.13154	0.95858
2904.07774	0.96010
2902.02393	0.96163
2899.97013	0.96289
2897.91633	0.96425
2895.86252	0.96586
2893.80872	0.96741
2891.75492	0.96844
2889.70112	0.96870
2887.64731	0.96854
2885.59351	0.96865
2883.53971	0.96886
2881.48590	0.96866
2879.43210	0.96812
2877.37830	0.96765
2875.32449	0.96762
2873.27069	0.96805
2871.21689	0.96827
2869.16308	0.96782
2867.10928	0.96735
2865.05548	0.96779
2863.00167	0.96899
2860.94787	0.97052
2858.89407	0.97234
2856.84026	0.97383
2854.78646	0.97447
2852.73266	0.97440
2850.67885	0.97405
2848.62505	0.97379
2846.57125	0.97361
2844.51744	0.97291
2842.46364	0.97101
2840.40984	0.96845
2838.35603	0.96681
2836.30223	0.96673
2834.24843	0.96804
2832.19463	0.97044
2830.14082	0.97293
2828.08702	0.97488
2826.03322	0.97635
2823.97941	0.97717
2821.92561	0.97752
2819.87181	0.97802
2817.81800	0.97861
2815.76420	0.97892
2813.71040	0.97906
2811.65659	0.97931
2809.60279	0.97962
2807.54899	0.98001
2805.49518	0.98056
2803.44138	0.98090
2801.38758	0.98112
2799.33377	0.98141
2797.27997	0.98139
2795.22617	0.98129
2793.17236	0.98158
2791.11856	0.98195
2789.06476	0.98206
2787.01095	0.98198
2784.95715	0.98213
2782.90335	0.98242
2780.84955	0.98253
2778.79574	0.98271
2776.74194	0.98321
2774.68814	0.98359
2772.63433	0.98360
2770.58053	0.98363
2768.52673	0.98376
2766.47292	0.98384
2764.41912	0.98400
2762.36532	0.98425
2760.31151	0.98454
2758.25771	0.98479
2756.20391	0.98489
2754.15010	0.98468
2752.09630	0.98442
2750.04250	0.98457
2747.98869	0.98468
2745.93489	0.98427
2743.88109	0.98398
2741.82728	0.98432
2739.77348	0.98466
2737.71968	0.98449
2735.66587	0.98410
2733.61207	0.98406
2731.55827	0.98442
2729.50446	0.98450
2727.45066	0.98427
2725.39686	0.98432
2723.34306	0.98451
2721.28925	0.98458
2719.23545	0.98479
2717.18165	0.98490
2715.12784	0.98488
2713.07404	0.98504
2711.02024	0.98500
2708.96643	0.98471
2706.91263	0.98480
2704.85883	0.98495
2702.80502	0.98477
2700.75122	0.98463
2698.69742	0.98464
2696.64361	0.98452
2694.58981	0.98443
2692.53601	0.98449
2690.48220	0.98440
2688.42840	0.98420
2686.37460	0.98434
2684.32079	0.98467
2682.26699	0.98467
2680.21319	0.98446
2678.15938	0.98464
2676.10558	0.98507
2674.05178	0.98510
2671.99797	0.98485
2669.94417	0.98478
2667.89037	0.98475
2665.83657	0.98475
2663.78276	0.98479
2661.72896	0.98458
2659.67516	0.98426
2657.62135	0.98412
2655.56755	0.98434
2653.51375	0.98465
2651.45994	0.98471
2649.40614	0.98473
2647.35234	0.98476
2645.29853	0.98455
2643.24473	0.98435
2641.19093	0.98424
2639.13712	0.98400
2637.08332	0.98416
2635.02952	0.98503
2632.97571	0.98588
2630.92191	0.98611
2628.86811	0.98586
2626.81430	0.98575
2624.76050	0.98621
2622.70670	0.98680
2620.65289	0.98692
2618.59909	0.98656
2616.54529	0.98613
2614.49149	0.98585
2612.43768	0.98589
2610.38388	0.98624
2608.33008	0.98677
2606.27627	0.98706
2604.22247	0.98654
2602.16867	0.98598
2600.11486	0.98625
2598.06106	0.98662
2596.00726	0.98636
2593.95345	0.98566
2591.89965	0.98527
2589.84585	0.98570
2587.79204	0.98622
2585.73824	0.98637
2583.68444	0.98648
2581.63063	0.98649
2579.57683	0.98651
2577.52303	0.98688
2575.46922	0.98731
2573.41542	0.98732
2571.36162	0.98711
2569.30781	0.98689
2567.25401	0.98678
2565.20021	0.98705
2563.14640	0.98697
2561.09260	0.98639
2559.03880	0.98643
2556.98500	0.98666
2554.93119	0.98620
2552.87739	0.98566
2550.82359	0.98604
2548.76978	0.98691
2546.71598	0.98721
2544.66218	0.98708
2542.60837	0.98666
2540.55457	0.98621
2538.50077	0.98626
2536.44696	0.98642
2534.39316	0.98655
2532.33936	0.98687
2530.28555	0.98706
2528.23175	0.98723
2526.17795	0.98737
2524.12414	0.98738
2522.07034	0.98765
2520.01654	0.98788
2517.96273	0.98755
2515.90893	0.98689
2513.85513	0.98661
2511.80132	0.98677
2509.74752	0.98707
2507.69372	0.98733
2505.63992	0.98711
2503.58611	0.98699
2501.53231	0.98769
2499.47851	0.98830
2497.42470	0.98816
2495.37090	0.98790
2493.31710	0.98793
2491.26329	0.98824
2489.20949	0.98872
2487.15569	0.98874
2485.10188	0.98838
2483.04808	0.98859
2480.99428	0.98854
2478.94047	0.98785
2476.88667	0.98793
2474.83287	0.98845
2472.77906	0.98876
2470.72526	0.98931
2468.67146	0.98953
2466.61765	0.98915
2464.56385	0.98876
2462.51005	0.98840
2460.45624	0.98804
2458.40244	0.98787
2456.34864	0.98827
2454.29483	0.98922
2452.24103	0.98993
2450.18723	0.99001
2448.13343	0.98961
2446.07962	0.98915
2444.02582	0.98869
2441.97202	0.98805
2439.91821	0.98778
2437.86441	0.98771
2435.81061	0.98720
2433.75680	0.98680
2431.70300	0.98733
2429.64920	0.98809
2427.59539	0.98814
2425.54159	0.98812
2423.48779	0.98826
2421.43398	0.98808
2419.38018	0.98795
2417.32638	0.98845
2415.27257	0.98927
2413.21877	0.98948
2411.16497	0.98888
2409.11116	0.98837
2407.05736	0.98825
2405.00356	0.98803
2402.94975	0.98771
2400.89595	0.98731
2398.84215	0.98683
2396.78834	0.98648
2394.73454	0.98638
2392.68074	0.98669
2390.62694	0.98720
2388.57313	0.98739
2386.51933	0.98734
2384.46553	0.98775
2382.41172	0.98856
2380.35792	0.98873
2378.30412	0.98830
2376.25031	0.98760
2374.19651	0.98657
2372.14271	0.98596
2370.08890	0.98595
2368.03510	0.98631
2365.98130	0.98678
2363.92749	0.98690
2361.87369	0.98626
2359.81989	0.98496
2357.76608	0.98462
2355.71228	0.98584
2353.65848	0.98754
2351.60467	0.98858
2349.55087	0.98889
2347.49707	0.98898
2345.44326	0.98874
2343.38946	0.98777
2341.33566	0.98725
2339.28186	0.98776
2337.22805	0.98788
2335.17425	0.98758
2333.12045	0.98760
2331.06664	0.98758
2329.01284	0.98746
2326.95904	0.98733
2324.90523	0.98698
2322.85143	0.98697
2320.79763	0.98734
2318.74382	0.98734
2316.69002	0.98737
2314.63622	0.98762
2312.58241	0.98758
2310.52861	0.98776
2308.47481	0.98854
2306.42100	0.98866
2304.36720	0.98780
2302.31340	0.98717
2300.25959	0.98707
2298.20579	0.98722
2296.15199	0.98770
2294.09818	0.98803
2292.04438	0.98784
2289.99058	0.98764
2287.93677	0.98730
2285.88297	0.98672
2283.82917	0.98639
2281.77537	0.98685
2279.72156	0.98770
2277.66776	0.98771
2275.61396	0.98726
2273.56015	0.98758
2271.50635	0.98826
2269.45255	0.98806
2267.39874	0.98731
2265.34494	0.98699
2263.29114	0.98681
2261.23733	0.98600
2259.18353	0.98501
2257.12973	0.98504
2255.07592	0.98620
2253.02212	0.98760
2250.96832	0.98821
2248.91451	0.98728
2246.86071	0.98615
2244.80691	0.98622
2242.75310	0.98627
2240.69930	0.98639
2238.64550	0.98726
2236.59169	0.98747
2234.53789	0.98677
2232.48409	0.98649
2230.43029	0.98664
2228.37648	0.98621
2226.32268	0.98576
2224.26888	0.98677
2222.21507	0.98840
2220.16127	0.98836
2218.10747	0.98735
2216.05366	0.98751
2213.99986	0.98821
2211.94606	0.98909
2209.89225	0.99107
2207.83845	0.99241
2205.78465	0.99117
2203.73084	0.98925
2201.67704	0.98880
2199.62324	0.98921
2197.56943	0.98960
2195.51563	0.98966
2193.46183	0.98994
2191.40802	0.99153
2189.35422	0.99310
2187.30042	0.99312
2185.24661	0.99257
2183.19281	0.99207
2181.13901	0.99136
2179.08520	0.98999
2177.03140	0.98941
2174.97760	0.99220
2172.92380	0.99579
2170.86999	0.99611
2168.81619	0.99333
2166.76239	0.99106
2164.70858	0.99190
2162.65478	0.99235
2160.60098	0.99138
2158.54717	0.99312
2156.49337	0.99648
2154.43957	0.99742
2152.38576	0.99647
2150.33196	0.99468
2148.27816	0.99147
2146.22435	0.98947
2144.17055	0.99011
2142.11675	0.99098
2140.06294	0.99126
2138.00914	0.99154
2135.95534	0.99187
2133.90153	0.99219
2131.84773	0.99221
2129.79393	0.99128
2127.74012	0.98979
2125.68632	0.98896
2123.63252	0.98903
2121.57871	0.98927
2119.52491	0.98982
2117.47111	0.99093
2115.41731	0.99138
2113.36350	0.99098
2111.30970	0.99053
2109.25590	0.98976
2107.20209	0.98899
2105.14829	0.98887
2103.09449	0.98930
2101.04068	0.99011
2098.98688	0.99055
2096.93308	0.98997
2094.87927	0.98923
2092.82547	0.98929
2090.77167	0.98946
2088.71786	0.98908
2086.66406	0.98865
2084.61026	0.98853
2082.55645	0.98818
2080.50265	0.98716
2078.44885	0.98639
2076.39504	0.98681
2074.34124	0.98871
2072.28744	0.99056
2070.23363	0.98994
2068.17983	0.98851
2066.12603	0.98970
2064.07223	0.99228
2062.01842	0.99298
2059.96462	0.99206
2057.91082	0.99168
2055.85701	0.99296
2053.80321	0.99446
2051.74941	0.99389
2049.69560	0.99227
2047.64180	0.99223
2045.58800	0.99434
2043.53419	0.99669
2041.48039	0.99609
2039.42659	0.99358
2037.37278	0.99370
2035.31898	0.99576
2033.26518	0.99726
2031.21137	0.99724
2029.15757	0.99537
2027.10377	0.99302
2025.04996	0.99115
2022.99616	0.99249
2020.94236	0.99603
2018.88855	0.99659
2016.83475	0.99639
2014.78095	0.99816
2012.72714	0.99872
2010.67334	0.99649
2008.61954	0.99467
2006.56574	0.99492
2004.51193	0.99344
2002.45813	0.99040
2000.40433	0.98970
1998.35052	0.99176
1996.29672	0.99365
1994.24292	0.99367
1992.18911	0.99319
1990.13531	0.99215
1988.08151	0.99010
1986.02770	0.98827
1983.97390	0.98815
1981.92010	0.98978
1979.86629	0.99083
1977.81249	0.99052
1975.75869	0.99033
1973.70488	0.99056
1971.65108	0.98977
1969.59728	0.98788
1967.54347	0.98659
1965.48967	0.98627
1963.43587	0.98709
1961.38206	0.98834
1959.32826	0.98864
1957.27446	0.98911
1955.22066	0.99043
1953.16685	0.99110
1951.11305	0.99033
1949.05925	0.98921
1947.00544	0.98900
1944.95164	0.98993
1942.89784	0.99133
1940.84403	0.99128
1938.79023	0.99012
1936.73643	0.99032
1934.68262	0.99176
1932.62882	0.99244
1930.57502	0.99200
1928.52121	0.99146
1926.46741	0.99153
1924.41361	0.99166
1922.35980	0.99068
1920.30600	0.98927
1918.25220	0.98922
1916.19839	0.99060
1914.14459	0.99193
1912.09079	0.99262
1910.03698	0.99305
1907.98318	0.99331
1905.92938	0.99309
1903.87557	0.99231
1901.82177	0.99127
1899.76797	0.99089
1897.71417	0.99114
1895.66036	0.99123
1893.60656	0.99135
1891.55276	0.99149
1889.49895	0.99106
1887.44515	0.99022
1885.39135	0.98956
1883.33754	0.98924
1881.28374	0.98991
1879.22994	0.99107
1877.17613	0.99095
1875.12233	0.99023
1873.06853	0.99002
1871.01472	0.98975
1868.96092	0.98985
1866.90712	0.99053
1864.85331	0.99072
1862.79951	0.99078
1860.74571	0.99086
1858.69190	0.99053
1856.63810	0.99034
1854.58430	0.99043
1852.53049	0.99043
1850.47669	0.99039
1848.42289	0.99032
1846.36908	0.98988
1844.31528	0.98893
1842.26148	0.98859
1840.20768	0.98914
1838.15387	0.98929
1836.10007	0.98894
1834.04627	0.98907
1831.99246	0.98924
1829.93866	0.98879
1827.88486	0.98849
1825.83105	0.98847
1823.77725	0.98834
1821.72345	0.98851
1819.66964	0.98886
1817.61584	0.98928
1815.56204	0.98993
1813.50823	0.99037
1811.45443	0.99022
1809.40063	0.98961
1807.34682	0.98907
1805.29302	0.98919
1803.23922	0.98945
1801.18541	0.98901
1799.13161	0.98861
1797.07781	0.98865
1795.02400	0.98868
1792.97020	0.98897
1790.91640	0.98930
1788.86260	0.98922
1786.80879	0.98916
1784.75499	0.98917
1782.70119	0.98904
1780.64738	0.98880
1778.59358	0.98860
1776.53978	0.98846
1774.48597	0.98840
1772.43217	0.98848
1770.37837	0.98850
1768.32456	0.98846
1766.27076	0.98845
1764.21696	0.98863
1762.16315	0.98905
1760.10935	0.98913
1758.05555	0.98886
1756.00174	0.98872
1753.94794	0.98849
1751.89414	0.98807
1749.84033	0.98784
1747.78653	0.98788
1745.73273	0.98780
1743.67892	0.98733
1741.62512	0.98674
1739.57132	0.98646
1737.51751	0.98643
1735.46371	0.98647
1733.40991	0.98618
1731.35611	0.98550
1729.30230	0.98509
1727.24850	0.98476
1725.19470	0.98443
1723.14089	0.98430
1721.08709	0.98397
1719.03329	0.98325
1716.97948	0.98272
1714.92568	0.98241
1712.87188	0.98190
1710.81807	0.98122
1708.76427	0.98061
1706.71047	0.98028
1704.65666	0.97990
1702.60286	0.97936
1700.54906	0.97902
1698.49525	0.97863
1696.44145	0.97773
1694.38765	0.97668
1692.33384	0.97596
1690.28004	0.97543
1688.22624	0.97465
1686.17243	0.97348
1684.11863	0.97223
1682.06483	0.97137
1680.01103	0.97068
1677.95722	0.96999
1675.90342	0.96919
1673.84962	0.96817
1671.79581	0.96716
1669.74201	0.96639
1667.68821	0.96556
1665.63440	0.96446
1663.58060	0.96364
1661.52680	0.96336
1659.47299	0.96293
1657.41919	0.96217
1655.36539	0.96165
1653.31158	0.96166
1651.25778	0.96111
1649.20398	0.96051
1647.15017	0.96051
1645.09637	0.96023
1643.04257	0.95948
1640.98876	0.95883
1638.93496	0.95856
1636.88116	0.95882
1634.82735	0.95909
1632.77355	0.95884
1630.71975	0.95851
1628.66594	0.95847
1626.61214	0.95873
1624.55834	0.95897
1622.50454	0.95927
1620.45073	0.95961
1618.39693	0.96017
1616.34313	0.96133
1614.28932	0.96225
1612.23552	0.96283
1610.18172	0.96365
1608.12791	0.96433
1606.07411	0.96451
1604.02031	0.96476
1601.96650	0.96532
1599.91270	0.96579
1597.85890	0.96621
1595.80509	0.96699
1593.75129	0.96803
1591.69749	0.96885
1589.64368	0.96928
1587.58988	0.96958
1585.53608	0.96993
1583.48227	0.97014
1581.42847	0.97036
1579.37467	0.97075
1577.32086	0.97111
1575.26706	0.97132
1573.21326	0.97131
1571.15945	0.97137
1569.10565	0.97176
1567.05185	0.97212
1564.99805	0.97229
1562.94424	0.97243
1560.89044	0.97266
1558.83664	0.97348
1556.78283	0.97390
1554.72903	0.97371
1552.67523	0.97384
1550.62142	0.97405
1548.56762	0.97408
1546.51382	0.97418
1544.46001	0.97449
1542.40621	0.97480
1540.35241	0.97506
1538.29860	0.97512
1536.24480	0.97500
1534.19100	0.97547
1532.13719	0.97636
1530.08339	0.97647
1528.02959	0.97630
1525.97578	0.97663
1523.92198	0.97740
1521.86818	0.97817
1519.81437	0.97840
1517.76057	0.97841
1515.70677	0.97881
1513.65297	0.97939
1511.59916	0.97999
1509.54536	0.98065
1507.49156	0.98117
1505.43775	0.98113
1503.38395	0.98104
1501.33015	0.98117
1499.27634	0.98140
1497.22254	0.98161
1495.16874	0.98140
1493.11493	0.98116
1491.06113	0.98135
1489.00733	0.98137
1486.95352	0.98072
1484.89972	0.98001
1482.84592	0.97950
1480.79211	0.97908
1478.73831	0.97847
1476.68451	0.97784
1474.63070	0.97705
1472.57690	0.97509
1470.52310	0.97249
1468.46929	0.97022
1466.41549	0.96773
1464.36169	0.96454
1462.30788	0.96156
1460.25408	0.95961
1458.20028	0.95863
1456.14648	0.95766
1454.09267	0.95636
1452.03887	0.95561
1449.98507	0.95567
1447.93126	0.95741
1445.87746	0.96078
1443.82366	0.96410
1441.76985	0.96667
1439.71605	0.96811
1437.66225	0.96867
1435.60844	0.96916
1433.55464	0.96996
1431.50084	0.97104
1429.44703	0.97236
1427.39323	0.97356
1425.33943	0.97437
1423.28562	0.97476
1421.23182	0.97476
1419.17802	0.97488
1417.12421	0.97510
1415.07041	0.97502
1413.01661	0.97499
1410.96280	0.97518
1408.90900	0.97546
1406.85520	0.97573
1404.80139	0.97599
1402.74759	0.97627
1400.69379	0.97654
1398.63999	0.97678
1396.58618	0.97706
1394.53238	0.97717
1392.47858	0.97683
1390.42477	0.97629
1388.37097	0.97559
1386.31717	0.97418
1384.26336	0.97162
1382.20956	0.96740
1380.15576	0.96064
1378.10195	0.95244
1376.04815	0.94730
1373.99435	0.94939
1371.94054	0.95654
1369.88674	0.96344
1367.83294	0.96834
1365.77913	0.97080
1363.72533	0.97165
1361.67153	0.97203
1359.61772	0.97218
1357.56392	0.97249
1355.51012	0.97354
1353.45631	0.97504
1351.40251	0.97637
1349.34871	0.97744
1347.29491	0.97838
1345.24110	0.97921
1343.18730	0.97978
1341.13350	0.97998
1339.07969	0.98004
1337.02589	0.98016
1334.97209	0.98012
1332.91828	0.98006
1330.86448	0.98000
1328.81068	0.97981
1326.75687	0.97968
1324.70307	0.97981
1322.64927	0.98005
1320.59546	0.98033
1318.54166	0.98049
1316.48786	0.98038
1314.43405	0.98042
1312.38025	0.98072
1310.32645	0.98059
1308.27264	0.97997
1306.21884	0.97948
1304.16504	0.97927
1302.11123	0.97927
1300.05743	0.97948
1298.00363	0.97976
1295.94982	0.98010
1293.89602	0.98035
1291.84222	0.98027
1289.78842	0.98004
1287.73461	0.97991
1285.68081	0.97988
1283.62701	0.97985
1281.57320	0.97973
1279.51940	0.97959
1277.46560	0.97965
1275.41179	0.97987
1273.35799	0.97995
1271.30419	0.97979
1269.25038	0.97942
1267.19658	0.97898
1265.14278	0.97858
1263.08897	0.97813
1261.03517	0.97757
1258.98137	0.97696
1256.92756	0.97637
1254.87376	0.97619
1252.81996	0.97649
1250.76615	0.97685
1248.71235	0.97708
1246.65855	0.97733
1244.60474	0.97757
1242.55094	0.97760
1240.49714	0.97744
1238.44334	0.97740
1236.38953	0.97767
1234.33573	0.97774
1232.28193	0.97730
1230.22812	0.97688
1228.17432	0.97671
1226.12052	0.97655
1224.06671	0.97615
1222.01291	0.97567
1219.95911	0.97543
1217.90530	0.97549
1215.85150	0.97552
1213.79770	0.97528
1211.74389	0.97496
1209.69009	0.97453
1207.63629	0.97369
1205.58248	0.97283
1203.52868	0.97238
1201.47488	0.97205
1199.42107	0.97142
1197.36727	0.97068
1195.31347	0.97014
1193.25966	0.96949
1191.20586	0.96849
1189.15206	0.96741
1187.09825	0.96638
1185.04445	0.96533
1182.99065	0.96411
1180.93685	0.96236
1178.88304	0.96029
1176.82924	0.95845
1174.77544	0.95656
1172.72163	0.95387
1170.66783	0.95002
1168.61403	0.94576
1166.56022	0.94287
1164.50642	0.94232
1162.45262	0.94303
1160.39881	0.94359
1158.34501	0.94371
1156.29121	0.94350
1154.23740	0.94280
1152.18360	0.94145
1150.12980	0.93995
1148.07599	0.93896
1146.02219	0.93834
1143.96839	0.93763
1141.91458	0.93645
1139.86078	0.93477
1137.80698	0.93319
1135.75317	0.93178
1133.69937	0.92992
1131.64557	0.92722
1129.59176	0.92380
1127.53796	0.92028
1125.48416	0.91683
1123.43036	0.91308
1121.37655	0.90920
1119.32275	0.90553
1117.26895	0.90232
1115.21514	0.89979
1113.16134	0.89763
1111.10754	0.89523
1109.05373	0.89289
1106.99993	0.89070
1104.94613	0.88829
1102.89232	0.88604
1100.83852	0.88415
1098.78472	0.88249
1096.73091	0.88102
1094.67711	0.87980
1092.62331	0.87915
1090.56950	0.87896
1088.51570	0.87851
1086.46190	0.87764
1084.40809	0.87658
1082.35429	0.87551
1080.30049	0.87453
1078.24668	0.87322
1076.19288	0.87123
1074.13908	0.86895
1072.08528	0.86686
1070.03147	0.86478
1067.97767	0.86225
1065.92387	0.85934
1063.87006	0.85616
1061.81626	0.85245
1059.76246	0.84828
1057.70865	0.84403
1055.65485	0.83958
1053.60105	0.83483
1051.54724	0.82997
1049.49344	0.82472
1047.43964	0.81878
1045.38583	0.81266
1043.33203	0.80676
1041.27823	0.80133
1039.22442	0.79648
1037.17062	0.79195
1035.11682	0.78739
1033.06301	0.78290
1031.00921	0.77924
1028.95541	0.77696
1026.90160	0.77560
1024.84780	0.77453
1022.79400	0.77368
1020.74019	0.77316
1018.68639	0.77249
1016.63259	0.77131
1014.57879	0.76958
1012.52498	0.76730
1010.47118	0.76489
1008.41738	0.76263
1006.36357	0.76032
1004.30977	0.75817
1002.25597	0.75624
1000.20216	0.75391
998.14836	0.75190
996.09456	0.75241
994.04075	0.75577
991.98695	0.76068
989.93315	0.76621
987.87934	0.77165
985.82554	0.77665
983.77174	0.78116
981.71793	0.78523
979.66413	0.78878
977.61033	0.79129
975.55652	0.79245
973.50272	0.79305
971.44892	0.79531
969.39511	0.80101
967.34131	0.80918
965.28751	0.81705
963.23371	0.82290
961.17990	0.82743
959.12610	0.83164
957.07230	0.83553
955.01849	0.83916
952.96469	0.84200
950.91089	0.84379
948.85708	0.84559
946.80328	0.84777
944.74948	0.84973
942.69567	0.85106
940.64187	0.85208
938.58807	0.85331
936.53426	0.85454
934.48046	0.85563
932.42666	0.85663
930.37285	0.85736
928.31905	0.85785
926.26525	0.85787
924.21144	0.85720
922.15764	0.85608
920.10384	0.85457
918.05003	0.85229
915.99623	0.84930
913.94243	0.84666
911.88862	0.84540
909.83482	0.84584
907.78102	0.84771
905.72722	0.85030
903.67341	0.85281
901.61961	0.85505
899.56581	0.85796
897.51200	0.86229
895.45820	0.86710
893.40440	0.87103
891.35059	0.87440
889.29679	0.87821
887.24299	0.88178
885.18918	0.88394
883.13538	0.88480
881.08158	0.88525
879.02777	0.88578
876.97397	0.88602
874.92017	0.88634
872.86636	0.88802
870.81256	0.89074
868.75876	0.89339
866.70495	0.89574
864.65115	0.89803
862.59735	0.90040
860.54354	0.90225
858.48974	0.90356
856.43594	0.90510
854.38213	0.90710
852.32833	0.90922
850.27453	0.91053
848.22073	0.91037
846.16692	0.90886
844.11312	0.90524
842.05932	0.89934
840.00551	0.89602
837.95171	0.89974
835.89791	0.90634
833.84410	0.91010
831.79030	0.91159
829.73650	0.91270
827.68269	0.91324
825.62889	0.91351
823.57509	0.91392
821.52128	0.91439
819.46748	0.91495
817.41368	0.91517
815.35987	0.91457
813.30607	0.91349
811.25227	0.91250
809.19846	0.91143
807.14466	0.91045
805.09086	0.90987
803.03705	0.90976
800.98325	0.91021
798.92945	0.91038
796.87565	0.90987
794.82184	0.90965
792.76804	0.91000
790.71424	0.91003
788.66043	0.90987
786.60663	0.91046
784.55283	0.91113
782.49902	0.91113
780.44522	0.91112
778.39142	0.91143
776.33761	0.91170
774.28381	0.91167
772.23001	0.91135
770.17620	0.91093
768.12240	0.91046
766.06860	0.90998
764.01479	0.90965
761.96099	0.90929
759.90719	0.90864
757.85338	0.90784
755.79958	0.90691
753.74578	0.90562
751.69197	0.90416
749.63817	0.90308
747.58437	0.90245
745.53056	0.90207
743.47676	0.90271
741.42296	0.90439
739.36916	0.90572
737.31535	0.90699
735.26155	0.90887
733.20775	0.91038
731.15394	0.91051
729.10014	0.90987
727.04634	0.90978
724.99253	0.91023
722.93873	0.91082
720.88493	0.91136
718.83112	0.91171
716.77732	0.91162
714.72352	0.91053
712.66971	0.90849
710.61591	0.90583
708.56211	0.90261
706.50830	0.89924
704.45450	0.89604
702.40070	0.89246
700.34689	0.88873
698.29309	0.88614
696.23929	0.88456
694.18548	0.88293
692.13168	0.88094
690.07788	0.87877
688.02408	0.87721
685.97027	0.87727
683.91647	0.87868
681.86267	0.87966
679.80886	0.87900
677.75506	0.87815
675.70126	0.87802
673.64745	0.87743
671.59365	0.87645
669.53985	0.87600
667.48604	0.87713
665.43224	0.87928
663.37844	0.88093
661.32463	0.88146
659.27083	0.88116
657.21703	0.88134
655.16322	0.88224
653.10942	0.88290
651.05562	0.88287
649.00181	0.88241
646.94801	0.88153
644.89421	0.88060
642.84040	0.88067
640.78660	0.88154
638.73280	0.88189
636.67899	0.88181
634.62519	0.88220
632.57139	0.88234
630.51759	0.88085
628.46378	0.87862
626.40998	0.87797
624.35618	0.87888
622.30237	0.87942
620.24857	0.87870
618.19477	0.87644
616.14096	0.87327
614.08716	0.87127
612.03336	0.87006
609.97955	0.86876
607.92575	0.86824
605.87195	0.86754
603.81814	0.86536
601.76434	0.86251
599.71054	0.85995
597.65673	0.85777
595.60293	0.85594
593.54913	0.85438
591.49532	0.85311
589.44152	0.85227
587.38772	0.85062
585.33391	0.84700
583.28011	0.84298
581.22631	0.83986
579.17250	0.83718
577.11870	0.83547
575.06490	0.83403
573.01110	0.83119
570.95729	0.82708
568.90349	0.82252
566.84969	0.81864
564.79588	0.81596
562.74208	0.81422
560.68828	0.81256
558.63447	0.80946
556.58067	0.80599
554.52687	0.80419
552.47306	0.80240
550.41926	0.79782
548.36546	0.79123
546.31165	0.78557
544.25785	0.78196
542.20405	0.77866
540.15024	0.77310
538.09644	0.76581
536.04264	0.75951
533.98883	0.75588
531.93503	0.75557
529.88123	0.75735
527.82742	0.75804
525.77362	0.75594
523.71982	0.75481
521.66602	0.75777
519.61221	0.76198
517.55841	0.76472
515.50461	0.76740
513.45080	0.77101
511.39700	0.77504
509.34320	0.77859
507.28939	0.78021
505.23559	0.78109
503.18179	0.78276
501.12798	0.78440
499.07418	0.78643
497.02038	0.78897
494.96657	0.79069
492.91277	0.79066
490.85897	0.78912
488.80516	0.78810
486.75136	0.78829
484.69756	0.78580
482.64375	0.77677
480.58995	0.76583
478.53615	0.75794
476.48234	0.74998
474.42854	0.73894
472.37474	0.72682
470.32093	0.71675
468.26713	0.70916
466.21333	0.70421
464.15953	0.70180
462.10572	0.70065
460.05192	0.70168
457.99812	0.70422
455.94431	0.70500
453.89051	0.70620
451.83671	0.71013
449.78290	0.71412
447.72910	0.71698
445.67530	0.71883
443.62149	0.71720
441.56769	0.71220
439.51389	0.70727
437.46008	0.70501
435.40628	0.70482
433.35248	0.70261
431.29867	0.69922
429.24487	0.69660
427.19107	0.69244
425.13726	0.68902
423.08346	0.69028
421.02966	0.69304
418.97585	0.69454
416.92205	0.69638
414.86825	0.69935
412.81445	0.70405
410.76064	0.70886
408.70684	0.71335
406.65304	0.71794
404.59923	0.72102
402.54543	0.72810
400.49163	0.74023
398.43782	0.74561
