3996.70104	0.95399
3994.64724	0.95401
3992.59344	0.95395
3990.53964	0.95417
3988.48583	0.95453
3986.43203	0.95458
3984.37823	0.95450
3982.32442	0.95447
3980.27062	0.95434
3978.21682	0.95409
3976.16301	0.95383
3974.10921	0.95376
3972.05541	0.95370
3970.00160	0.95370
3967.94780	0.95419
3965.89400	0.95467
3963.84019	0.95443
3961.78639	0.95406
3959.73259	0.95429
3957.67878	0.95454
3955.62498	0.95437
3953.57118	0.95428
3951.51737	0.95413
3949.46357	0.95359
3947.40977	0.95358
3945.35596	0.95440
3943.30216	0.95498
3941.24836	0.95500
3939.19455	0.95503
3937.14075	0.95516
3935.08695	0.95503
3933.03315	0.95477
3930.97934	0.95518
3928.92554	0.95581
3926.87174	0.95578
3924.81793	0.95527
3922.76413	0.95455
3920.71033	0.95387
3918.65652	0.95359
3916.60272	0.95404
3914.54892	0.95490
3912.49511	0.95518
3910.44131	0.95498
3908.38751	0.95484
3906.33370	0.95468
3904.27990	0.95443
3902.22610	0.95455
3900.17229	0.95508
3898.11849	0.95507
3896.06469	0.95474
3894.01088	0.95477
3891.95708	0.95468
3889.90328	0.95432
3887.84947	0.95428
3885.79567	0.95449
3883.74187	0.95482
3881.68807	0.95520
3879.63426	0.95542
3877.58046	0.95558
3875.52666	0.95579
3873.47285	0.95549
3871.41905	0.95503
3869.36525	0.95491
3867.31144	0.95478
3865.25764	0.95476
3863.20384	0.95483
3861.15003	0.95481
3859.09623	0.95473
3857.04243	0.95489
3854.98862	0.95531
3852.93482	0.95527
3850.88102	0.95539
3848.82721	0.95587
3846.77341	0.95593
3844.71961	0.95550
3842.66580	0.95479
3840.61200	0.95427
3838.55820	0.95465
3836.50439	0.95549
3834.45059	0.95579
3832.39679	0.95534
3830.34298	0.95474
3828.28918	0.95507
3826.23538	0.95566
3824.18158	0.95577
3822.12777	0.95602
3820.07397	0.95621
3818.02017	0.95635
3815.96636	0.95664
3813.91256	0.95646
3811.85876	0.95629
3809.80495	0.95648
3807.75115	0.95639
3805.69735	0.95589
3803.64354	0.95594
3801.58974	0.95644
3799.53594	0.95651
3797.48213	0.95612
3795.42833	0.95579
3793.37453	0.95596
3791.32072	0.95619
3789.26692	0.95638
3787.21312	0.95683
3785.15931	0.95721
3783.10551	0.95716
3781.05171	0.95704
3778.99790	0.95696
3776.94410	0.95667
3774.89030	0.95635
3772.83650	0.95609
3770.78269	0.95597
3768.72889	0.95606
3766.67509	0.95618
3764.62128	0.95638
3762.56748	0.95664
3760.51368	0.95648
3758.45987	0.95603
3756.40607	0.95606
3754.35227	0.95640
3752.29846	0.95684
3750.24466	0.95690
3748.19086	0.95649
3746.13705	0.95612
3744.08325	0.95589
3742.02945	0.95656
3739.97564	0.95742
3737.92184	0.95761
3735.86804	0.95749
3733.81423	0.95755
3731.76043	0.95731
3729.70663	0.95707
3727.65282	0.95700
3725.59902	0.95729
3723.54522	0.95770
3721.49141	0.95748
3719.43761	0.95662
3717.38381	0.95533
3715.33001	0.95397
3713.27620	0.95314
3711.22240	0.95287
3709.16860	0.95173
3707.11479	0.94935
3705.06099	0.94719
3703.00719	0.94540
3700.95338	0.94283
3698.89958	0.94055
3696.84578	0.93975
3694.79197	0.93964
3692.73817	0.93961
3690.68437	0.93980
3688.63056	0.94082
3686.57676	0.94194
3684.52296	0.94259
3682.46915	0.94324
3680.41535	0.94375
3678.36155	0.94368
3676.30774	0.94248
3674.25394	0.94088
3672.20014	0.94045
3670.14633	0.94025
3668.09253	0.93962
3666.03873	0.93880
3663.98492	0.93774
3661.93112	0.93675
3659.87732	0.93600
3657.82352	0.93523
3655.76971	0.93385
3653.71591	0.93236
3651.66211	0.93155
3649.60830	0.93135
3647.55450	0.93147
3645.50070	0.93094
3643.44689	0.93013
3641.39309	0.92959
3639.33929	0.92899
3637.28548	0.92816
3635.23168	0.92711
3633.17788	0.92582
3631.12407	0.92477
3629.07027	0.92396
3627.01647	0.92302
3624.96266	0.92196
3622.90886	0.92068
3620.85506	0.91991
3618.80125	0.92051
3616.74745	0.92136
3614.69365	0.92129
3612.63984	0.92138
3610.58604	0.92256
3608.53224	0.92376
3606.47844	0.92419
3604.42463	0.92391
3602.37083	0.92335
3600.31703	0.92331
3598.26322	0.92356
3596.20942	0.92330
3594.15562	0.92342
3592.10181	0.92437
3590.04801	0.92504
3587.99421	0.92475
3585.94040	0.92378
3583.88660	0.92343
3581.83280	0.92366
3579.77899	0.92391
3577.72519	0.92432
3575.67139	0.92456
3573.61758	0.92428
3571.56378	0.92401
3569.50998	0.92404
3567.45617	0.92369
3565.40237	0.92238
3563.34857	0.92130
3561.29476	0.92123
3559.24096	0.92160
3557.18716	0.92164
3555.13335	0.92110
3553.07955	0.92024
3551.02575	0.91972
3548.97195	0.91963
3546.91814	0.91946
3544.86434	0.91943
3542.81054	0.91942
3540.75673	0.91896
3538.70293	0.91866
3536.64913	0.91902
3534.59532	0.91953
3532.54152	0.91978
3530.48772	0.92019
3528.43391	0.92081
3526.38011	0.92091
3524.32631	0.92055
3522.27250	0.92018
3520.21870	0.91985
3518.16490	0.91961
3516.11109	0.91961
3514.05729	0.92000
3512.00349	0.92072
3509.94968	0.92105
3507.89588	0.92056
3505.84208	0.92008
3503.78827	0.92000
3501.73447	0.91971
3499.68067	0.91922
3497.62687	0.91899
3495.57306	0.91883
3493.51926	0.91879
3491.46546	0.91906
3489.41165	0.91905
3487.35785	0.91837
3485.30405	0.91765
3483.25024	0.91736
3481.19644	0.91743
3479.14264	0.91755
3477.08883	0.91746
3475.03503	0.91756
3472.98123	0.91778
3470.92742	0.91746
3468.87362	0.91703
3466.81982	0.91723
3464.76601	0.91708
3462.71221	0.91615
3460.65841	0.91581
3458.60460	0.91612
3456.55080	0.91618
3454.49700	0.91594
3452.44319	0.91574
3450.38939	0.91541
3448.33559	0.91489
3446.28178	0.91460
3444.22798	0.91427
3442.17418	0.91330
3440.12038	0.91272
3438.06657	0.91338
3436.01277	0.91417
3433.95897	0.91402
3431.90516	0.91326
3429.85136	0.91272
3427.79756	0.91251
3425.74375	0.91229
3423.68995	0.91224
3421.63615	0.91217
3419.58234	0.91173
3417.52854	0.91130
3415.47474	0.91138
3413.42093	0.91160
3411.36713	0.91133
3409.31333	0.91090
3407.25952	0.91084
3405.20572	0.91114
3403.15192	0.91138
3401.09811	0.91127
3399.04431	0.91134
3396.99051	0.91168
3394.93670	0.91174
3392.88290	0.91138
3390.82910	0.91088
3388.77529	0.91070
3386.72149	0.91087
3384.66769	0.91110
3382.61389	0.91115
3380.56008	0.91105
3378.50628	0.91094
3376.45248	0.91112
3374.39867	0.91155
3372.34487	0.91176
3370.29107	0.91176
3368.23726	0.91177
3366.18346	0.91199
3364.12966	0.91229
3362.07585	0.91219
3360.02205	0.91185
3357.96825	0.91158
3355.91444	0.91157
3353.86064	0.91209
3351.80684	0.91271
3349.75303	0.91268
3347.69923	0.91220
3345.64543	0.91206
3343.59162	0.91250
3341.53782	0.91304
3339.48402	0.91320
3337.43021	0.91304
3335.37641	0.91296
3333.32261	0.91302
3331.26881	0.91346
3329.21500	0.91436
3327.16120	0.91500
3325.10740	0.91491
3323.05359	0.91470
3320.99979	0.91476
3318.94599	0.91466
3316.89218	0.91445
3314.83838	0.91444
3312.78458	0.91451
3310.73077	0.91470
3308.67697	0.91539
3306.62317	0.91613
3304.56936	0.91616
3302.51556	0.91599
3300.46176	0.91647
3298.40795	0.91723
3296.35415	0.91740
3294.30035	0.91712
3292.24654	0.91689
3290.19274	0.91663
3288.13894	0.91665
3286.08513	0.91733
3284.03133	0.91789
3281.97753	0.91793
3279.92372	0.91822
3277.86992	0.91882
3275.81612	0.91920
3273.76232	0.91908
3271.70851	0.91878
3269.65471	0.91893
3267.60091	0.91958
3265.54710	0.91999
3263.49330	0.91965
3261.43950	0.91921
3259.38569	0.91950
3257.33189	0.92018
3255.27809	0.92054
3253.22428	0.92056
3251.17048	0.92054
3249.11668	0.92072
3247.06287	0.92106
3245.00907	0.92161
3242.95527	0.92243
3240.90146	0.92260
3238.84766	0.92185
3236.79386	0.92145
3234.74005	0.92190
3232.68625	0.92216
3230.63245	0.92205
3228.57864	0.92252
3226.52484	0.92350
3224.47104	0.92421
3222.41724	0.92420
3220.36343	0.92373
3218.30963	0.92362
3216.25583	0.92382
3214.20202	0.92404
3212.14822	0.92474
3210.09442	0.92558
3208.04061	0.92566
3205.98681	0.92521
3203.93301	0.92526
3201.87920	0.92573
3199.82540	0.92584
3197.77160	0.92601
3195.71779	0.92702
3193.66399	0.92821
3191.61019	0.92849
3189.55638	0.92816
3187.50258	0.92798
3185.44878	0.92794
3183.39497	0.92808
3181.34117	0.92857
3179.28737	0.92885
3177.23356	0.92875
3175.17976	0.92888
3173.12596	0.92939
3171.07215	0.92999
3169.01835	0.93035
3166.96455	0.93033
3164.91075	0.93020
3162.85694	0.93017
3160.80314	0.93039
3158.74934	0.93113
3156.69553	0.93217
3154.64173	0.93248
3152.58793	0.93197
3150.53412	0.93178
3148.48032	0.93254
3146.42652	0.93366
3144.37271	0.93428
3142.31891	0.93426
3140.26511	0.93420
3138.21130	0.93454
3136.15750	0.93477
3134.10370	0.93463
3132.04989	0.93467
3129.99609	0.93515
3127.94229	0.93540
3125.88848	0.93489
3123.83468	0.93439
3121.78088	0.93465
3119.72707	0.93523
3117.67327	0.93565
3115.61947	0.93612
3113.56566	0.93652
3111.51186	0.93639
3109.45806	0.93612
3107.40426	0.93598
3105.35045	0.93547
3103.29665	0.93502
3101.24285	0.93519
3099.18904	0.93558
3097.13524	0.93608
3095.08144	0.93658
3093.02763	0.93675
3090.97383	0.93635
3088.92003	0.93503
3086.86622	0.93334
3084.81242	0.93226
3082.75862	0.93181
3080.70481	0.93180
3078.65101	0.93260
3076.59721	0.93397
3074.54340	0.93504
3072.48960	0.93555
3070.43580	0.93540
3068.38199	0.93456
3066.32819	0.93348
3064.27439	0.93229
3062.22058	0.93092
3060.16678	0.92994
3058.11298	0.92983
3056.05918	0.93045
3054.00537	0.93176
3051.95157	0.93372
3049.89777	0.93543
3047.84396	0.93637
3045.79016	0.93697
3043.73636	0.93745
3041.68255	0.93751
3039.62875	0.93675
3037.57495	0.93544
3035.52114	0.93399
3033.46734	0.93184
3031.41354	0.92857
3029.35973	0.92450
3027.30593	0.92045
3025.25213	0.91818
3023.19832	0.91891
3021.14452	0.92199
3019.09072	0.92618
3017.03691	0.93020
3014.98311	0.93336
3012.92931	0.93583
3010.87550	0.93756
3008.82170	0.93833
3006.76790	0.93840
3004.71409	0.93821
3002.66029	0.93804
3000.60649	0.93808
2998.55269	0.93844
2996.49888	0.93917
2994.44508	0.94018
2992.39128	0.94130
2990.33747	0.94257
2988.28367	0.94375
2986.22987	0.94431
2984.17606	0.94437
2982.12226	0.94424
2980.06846	0.94410
2978.01465	0.94442
2975.96085	0.94506
2973.90705	0.94543
2971.85324	0.94543
2969.79944	0.94544
2967.74564	0.94574
2965.69183	0.94598
2963.63803	0.94580
2961.58423	0.94564
2959.53042	0.94572
2957.47662	0.94582
2955.42282	0.94591
2953.36901	0.94554
2951.31521	0.94449
2949.26141	0.94343
2947.20761	0.94270
2945.15380	0.94199
2943.10000	0.94098
2941.04620	0.93990
2938.99239	0.93916
2936.93859	0.93838
2934.88479	0.93698
2932.83098	0.93536
2930.77718	0.93382
2928.72338	0.93206
2926.66957	0.93041
2924.61577	0.92921
2922.56197	0.92800
2920.50816	0.92645
2918.45436	0.92501
2916.40056	0.92447
2914.34675	0.92497
2912.29295	0.92577
2910.23915	0.92637
2908.18534	0.92700
2906.13154	0.92795
2904.07774	0.92951
2902.02393	0.93138
2899.97013	0.93304
2897.91633	0.93425
2895.86252	0.93509
2893.80872	0.93595
2891.75492	0.93706
2889.70112	0.93802
2887.64731	0.93832
2885.59351	0.93825
2883.53971	0.93845
2881.48590	0.93879
2879.43210	0.93916
2877.37830	0.93994
2875.32449	0.94093
2873.27069	0.94167
2871.21689	0.94217
2869.16308	0.94262
2867.10928	0.94328
2865.05548	0.94378
2863.00167	0.94391
2860.94787	0.94414
2858.89407	0.94412
2856.84026	0.94329
2854.78646	0.94218
2852.73266	0.94118
2850.67885	0.94027
2848.62505	0.93940
2846.57125	0.93865
2844.51744	0.93839
2842.46364	0.93900
2840.40984	0.94049
2838.35603	0.94209
2836.30223	0.94312
2834.24843	0.94375
2832.19463	0.94447
2830.14082	0.94511
2828.08702	0.94540
2826.03322	0.94573
2823.97941	0.94617
2821.92561	0.94646
2819.87181	0.94666
2817.81800	0.94688
2815.76420	0.94688
2813.71040	0.94677
2811.65659	0.94674
2809.60279	0.94696
2807.54899	0.94757
2805.49518	0.94785
2803.44138	0.94777
2801.38758	0.94792
2799.33377	0.94793
2797.27997	0.94768
2795.22617	0.94748
2793.17236	0.94735
2791.11856	0.94757
2789.06476	0.94816
2787.01095	0.94838
2784.95715	0.94809
2782.90335	0.94793
2780.84955	0.94824
2778.79574	0.94863
2776.74194	0.94876
2774.68814	0.94889
2772.63433	0.94905
2770.58053	0.94917
2768.52673	0.94938
2766.47292	0.94933
2764.41912	0.94883
2762.36532	0.94858
2760.31151	0.94898
2758.25771	0.94957
2756.20391	0.94993
2754.15010	0.94996
2752.09630	0.94989
2750.04250	0.94997
2747.98869	0.95011
2745.93489	0.95019
2743.88109	0.95030
2741.82728	0.95028
2739.77348	0.95003
2737.71968	0.94992
2735.66587	0.95008
2733.61207	0.95030
2731.55827	0.95020
2729.50446	0.94990
2727.45066	0.94988
2725.39686	0.95034
2723.34306	0.95084
2721.28925	0.95083
2719.23545	0.95047
2717.18165	0.95017
2715.12784	0.95009
2713.07404	0.95015
2711.02024	0.95015
2708.96643	0.95008
2706.91263	0.95014
2704.85883	0.95033
2702.80502	0.95053
2700.75122	0.95062
2698.69742	0.95062
2696.64361	0.95072
2694.58981	0.95072
2692.53601	0.95055
2690.48220	0.95045
2688.42840	0.95063
2686.37460	0.95100
2684.32079	0.95130
2682.26699	0.95143
2680.21319	0.95130
2678.15938	0.95104
2676.10558	0.95086
2674.05178	0.95078
2671.99797	0.95093
2669.94417	0.95135
2667.89037	0.95168
2665.83657	0.95169
2663.78276	0.95137
2661.72896	0.95084
2659.67516	0.95033
2657.62135	0.95004
2655.56755	0.95008
2653.51375	0.95030
2651.45994	0.95058
2649.40614	0.95091
2647.35234	0.95090
2645.29853	0.95058
2643.24473	0.95056
2641.19093	0.95083
2639.13712	0.95110
2637.08332	0.95152
2635.02952	0.95201
2632.97571	0.95190
2630.92191	0.95132
2628.86811	0.95116
2626.81430	0.95178
2624.76050	0.95255
2622.70670	0.95290
2620.65289	0.95296
2618.59909	0.95315
2616.54529	0.95374
2614.49149	0.95408
2612.43768	0.95379
2610.38388	0.95324
2608.33008	0.95260
2606.27627	0.95238
2604.22247	0.95270
2602.16867	0.95288
2600.11486	0.95301
2598.06106	0.95339
2596.00726	0.95359
2593.95345	0.95344
2591.89965	0.95337
2589.84585	0.95357
2587.79204	0.95347
2585.73824	0.95291
2583.68444	0.95257
2581.63063	0.95288
2579.57683	0.95361
2577.52303	0.95407
2575.46922	0.95394
2573.41542	0.95346
2571.36162	0.95308
2569.30781	0.95303
2567.25401	0.95331
2565.20021	0.95376
2563.14640	0.95377
2561.09260	0.95317
2559.03880	0.95253
2556.98500	0.95249
2554.93119	0.95305
2552.87739	0.95359
2550.82359	0.95367
2548.76978	0.95348
2546.71598	0.95369
2544.66218	0.95425
2542.60837	0.95420
2540.55457	0.95362
2538.50077	0.95359
2536.44696	0.95376
2534.39316	0.95347
2532.33936	0.95322
2530.28555	0.95345
2528.23175	0.95406
2526.17795	0.95465
2524.12414	0.95523
2522.07034	0.95566
2520.01654	0.95533
2517.96273	0.95471
2515.90893	0.95437
2513.85513	0.95431
2511.80132	0.95447
2509.74752	0.95489
2507.69372	0.95568
2505.63992	0.95589
2503.58611	0.95530
2501.53231	0.95523
2499.47851	0.95601
2497.42470	0.95640
2495.37090	0.95582
2493.31710	0.95530
2491.26329	0.95536
2489.20949	0.95564
2487.15569	0.95591
2485.10188	0.95599
2483.04808	0.95574
2480.99428	0.95579
2478.94047	0.95627
2476.88667	0.95605
2474.83287	0.95501
2472.77906	0.95421
2470.72526	0.95410
2468.67146	0.95462
2466.61765	0.95531
2464.56385	0.95550
2462.51005	0.95554
2460.45624	0.95566
2458.40244	0.95545
2456.34864	0.95520
2454.29483	0.95516
2452.24103	0.95513
2450.18723	0.95510
2448.13343	0.95502
2446.07962	0.95503
2444.02582	0.95540
2441.97202	0.95570
2439.91821	0.95580
2437.86441	0.95606
2435.81061	0.95615
2433.75680	0.95606
2431.70300	0.95631
2429.64920	0.95648
2427.59539	0.95583
2425.54159	0.95514
2423.48779	0.95571
2421.43398	0.95708
2419.38018	0.95735
2417.32638	0.95621
2415.27257	0.95550
2413.21877	0.95596
2411.16497	0.95636
2409.11116	0.95614
2407.05736	0.95573
2405.00356	0.95535
2402.94975	0.95529
2400.89595	0.95560
2398.84215	0.95571
2396.78834	0.95554
2394.73454	0.95541
2392.68074	0.95551
2390.62694	0.95567
2388.57313	0.95583
2386.51933	0.95612
2384.46553	0.95631
2382.41172	0.95643
2380.35792	0.95673
2378.30412	0.95669
2376.25031	0.95628
2374.19651	0.95641
2372.14271	0.95731
2370.08890	0.95774
2368.03510	0.95708
2365.98130	0.95649
2363.92749	0.95594
2361.87369	0.95460
2359.81989	0.95401
2357.76608	0.95523
2355.71228	0.95637
2353.65848	0.95615
2351.60467	0.95572
2349.55087	0.95610
2347.49707	0.95700
2345.44326	0.95746
2343.38946	0.95641
2341.33566	0.95480
2339.28186	0.95415
2337.22805	0.95393
2335.17425	0.95382
2333.12045	0.95430
2331.06664	0.95496
2329.01284	0.95536
2326.95904	0.95532
2324.90523	0.95488
2322.85143	0.95459
2320.79763	0.95454
2318.74382	0.95456
2316.69002	0.95474
2314.63622	0.95536
2312.58241	0.95627
2310.52861	0.95664
2308.47481	0.95654
2306.42100	0.95650
2304.36720	0.95635
2302.31340	0.95608
2300.25959	0.95596
2298.20579	0.95585
2296.15199	0.95563
2294.09818	0.95557
2292.04438	0.95561
2289.99058	0.95531
2287.93677	0.95479
2285.88297	0.95438
2283.82917	0.95401
2281.77537	0.95405
2279.72156	0.95491
2277.66776	0.95659
2275.61396	0.95828
2273.56015	0.95859
2271.50635	0.95793
2269.45255	0.95756
2267.39874	0.95761
2265.34494	0.95786
2263.29114	0.95804
2261.23733	0.95812
2259.18353	0.95790
2257.12973	0.95719
2255.07592	0.95685
2253.02212	0.95697
2250.96832	0.95657
2248.91451	0.95656
2246.86071	0.95833
2244.80691	0.96002
2242.75310	0.96021
2240.69930	0.95994
2238.64550	0.95924
2236.59169	0.95868
2234.53789	0.95918
2232.48409	0.95958
2230.43029	0.95856
2228.37648	0.95681
2226.32268	0.95688
2224.26888	0.95899
2222.21507	0.96004
2220.16127	0.95919
2218.10747	0.95852
2216.05366	0.95886
2213.99986	0.95900
2211.94606	0.95834
2209.89225	0.95771
2207.83845	0.95760
2205.78465	0.95764
2203.73084	0.95725
2201.67704	0.95663
2199.62324	0.95625
2197.56943	0.95702
2195.51563	0.95859
2193.46183	0.95858
2191.40802	0.95896
2189.35422	0.96097
2187.30042	0.96139
2185.24661	0.96021
2183.19281	0.95885
2181.13901	0.95856
2179.08520	0.96011
2177.03140	0.96100
2174.97760	0.96042
2172.92380	0.96029
2170.86999	0.95960
2168.81619	0.95895
2166.76239	0.96030
2164.70858	0.96148
2162.65478	0.96055
2160.60098	0.96007
2158.54717	0.96374
2156.49337	0.96783
2154.43957	0.96910
2152.38576	0.96922
2150.33196	0.96739
2148.27816	0.96484
2146.22435	0.96347
2144.17055	0.96288
2142.11675	0.96383
2140.06294	0.96490
2138.00914	0.96348
2135.95534	0.96166
2133.90153	0.96231
2131.84773	0.96365
2129.79393	0.96297
2127.74012	0.96111
2125.68632	0.95961
2123.63252	0.95836
2121.57871	0.95773
2119.52491	0.95809
2117.47111	0.95829
2115.41731	0.95799
2113.36350	0.95849
2111.30970	0.95967
2109.25590	0.96023
2107.20209	0.95977
2105.14829	0.95907
2103.09449	0.95893
2101.04068	0.95925
2098.98688	0.95974
2096.93308	0.95981
2094.87927	0.95942
2092.82547	0.95965
2090.77167	0.96055
2088.71786	0.96082
2086.66406	0.96087
2084.61026	0.96134
2082.55645	0.96118
2080.50265	0.96098
2078.44885	0.96191
2076.39504	0.96197
2074.34124	0.95977
2072.28744	0.95857
2070.23363	0.96079
2068.17983	0.96321
2066.12603	0.96313
2064.07223	0.96267
2062.01842	0.96275
2059.96462	0.96189
2057.91082	0.96078
2055.85701	0.96057
2053.80321	0.96105
2051.74941	0.96088
2049.69560	0.95975
2047.64180	0.95986
2045.58800	0.96223
2043.53419	0.96495
2041.48039	0.96587
2039.42659	0.96524
2037.37278	0.96478
2035.31898	0.96576
2033.26518	0.96641
2031.21137	0.96405
2029.15757	0.96155
2027.10377	0.96174
2025.04996	0.96263
2022.99616	0.96299
2020.94236	0.96441
2018.88855	0.96605
2016.83475	0.96451
2014.78095	0.96166
2012.72714	0.96233
2010.67334	0.96538
2008.61954	0.96644
2006.56574	0.96477
2004.51193	0.96283
2002.45813	0.96282
2000.40433	0.96450
1998.35052	0.96604
1996.29672	0.96584
1994.24292	0.96402
1992.18911	0.96404
1990.13531	0.96640
1988.08151	0.96669
1986.02770	0.96510
1983.97390	0.96382
1981.92010	0.96185
1979.86629	0.96075
1977.81249	0.96290
1975.75869	0.96551
1973.70488	0.96624
1971.65108	0.96614
1969.59728	0.96621
1967.54347	0.96500
1965.48967	0.96290
1963.43587	0.96320
1961.38206	0.96414
1959.32826	0.96339
1957.27446	0.96206
1955.22066	0.96109
1953.16685	0.96071
1951.11305	0.96091
1949.05925	0.96079
1947.00544	0.96007
1944.95164	0.95984
1942.89784	0.95961
1940.84403	0.95907
1938.79023	0.95884
1936.73643	0.95854
1934.68262	0.95851
1932.62882	0.95930
1930.57502	0.96025
1928.52121	0.96065
1926.46741	0.96082
1924.41361	0.96092
1922.35980	0.96025
1920.30600	0.95924
1918.25220	0.95931
1916.19839	0.96002
1914.14459	0.96047
1912.09079	0.96110
1910.03698	0.96150
1907.98318	0.96115
1905.92938	0.96072
1903.87557	0.96039
1901.82177	0.96001
1899.76797	0.96016
1897.71417	0.96089
1895.66036	0.96116
1893.60656	0.96066
1891.55276	0.96007
1889.49895	0.95912
1887.44515	0.95783
1885.39135	0.95727
1883.33754	0.95777
1881.28374	0.95879
1879.22994	0.95950
1877.17613	0.95909
1875.12233	0.95757
1873.06853	0.95643
1871.01472	0.95689
1868.96092	0.95832
1866.90712	0.95912
1864.85331	0.95864
1862.79951	0.95775
1860.74571	0.95771
1858.69190	0.95868
1856.63810	0.95957
1854.58430	0.95963
1852.53049	0.95921
1850.47669	0.95935
1848.42289	0.96008
1846.36908	0.96061
1844.31528	0.96031
1842.26148	0.95940
1840.20768	0.95928
1838.15387	0.95966
1836.10007	0.95956
1834.04627	0.95920
1831.99246	0.95915
1829.93866	0.95954
1827.88486	0.95993
1825.83105	0.95998
1823.77725	0.95973
1821.72345	0.95918
1819.66964	0.95848
1817.61584	0.95794
1815.56204	0.95786
1813.50823	0.95787
1811.45443	0.95752
1809.40063	0.95707
1807.34682	0.95677
1805.29302	0.95667
1803.23922	0.95671
1801.18541	0.95647
1799.13161	0.95593
1797.07781	0.95553
1795.02400	0.95562
1792.97020	0.95634
1790.91640	0.95707
1788.86260	0.95747
1786.80879	0.95783
1784.75499	0.95784
1782.70119	0.95738
1780.64738	0.95693
1778.59358	0.95683
1776.53978	0.95711
1774.48597	0.95748
1772.43217	0.95787
1770.37837	0.95808
1768.32456	0.95807
1766.27076	0.95799
1764.21696	0.95771
1762.16315	0.95737
1760.10935	0.95730
1758.05555	0.95750
1756.00174	0.95770
1753.94794	0.95789
1751.89414	0.95827
1749.84033	0.95848
1747.78653	0.95795
1745.73273	0.95743
1743.67892	0.95762
1741.62512	0.95812
1739.57132	0.95838
1737.51751	0.95804
1735.46371	0.95706
1733.40991	0.95586
1731.35611	0.95527
1729.30230	0.95524
1727.24850	0.95525
1725.19470	0.95519
1723.14089	0.95526
1721.08709	0.95558
1719.03329	0.95608
1716.97948	0.95623
1714.92568	0.95557
1712.87188	0.95513
1710.81807	0.95507
1708.76427	0.95499
1706.71047	0.95461
1704.65666	0.95367
1702.60286	0.95242
1700.54906	0.95127
1698.49525	0.95046
1696.44145	0.94942
1694.38765	0.94824
1692.33384	0.94756
1690.28004	0.94679
1688.22624	0.94592
1686.17243	0.94548
1684.11863	0.94419
1682.06483	0.94208
1680.01103	0.94102
1677.95722	0.94027
1675.90342	0.93908
1673.84962	0.93761
1671.79581	0.93637
1669.74201	0.93530
1667.68821	0.93463
1665.63440	0.93431
1663.58060	0.93385
1661.52680	0.93314
1659.47299	0.93264
1657.41919	0.93256
1655.36539	0.93255
1653.31158	0.93182
1651.25778	0.93108
1649.20398	0.93117
1647.15017	0.93133
1645.09637	0.93132
1643.04257	0.93125
1640.98876	0.93120
1638.93496	0.93119
1636.88116	0.93096
1634.82735	0.93083
1632.77355	0.93134
1630.71975	0.93198
1628.66594	0.93234
1626.61214	0.93236
1624.55834	0.93231
1622.50454	0.93237
1620.45073	0.93277
1618.39693	0.93350
1616.34313	0.93412
1614.28932	0.93444
1612.23552	0.93485
1610.18172	0.93473
1608.12791	0.93271
1606.07411	0.92841
1604.02031	0.92292
1601.96650	0.91869
1599.91270	0.91853
1597.85890	0.92215
1595.80509	0.92689
1593.75129	0.93098
1591.69749	0.93390
1589.64368	0.93544
1587.58988	0.93556
1585.53608	0.93479
1583.48227	0.93430
1581.42847	0.93523
1579.37467	0.93730
1577.32086	0.93945
1575.26706	0.94089
1573.21326	0.94166
1571.15945	0.94223
1569.10565	0.94251
1567.05185	0.94253
1564.99805	0.94270
1562.94424	0.94311
1560.89044	0.94346
1558.83664	0.94342
1556.78283	0.94349
1554.72903	0.94368
1552.67523	0.94332
1550.62142	0.94257
1548.56762	0.94200
1546.51382	0.94162
1544.46001	0.94103
1542.40621	0.94038
1540.35241	0.94019
1538.29860	0.94048
1536.24480	0.94094
1534.19100	0.94117
1532.13719	0.94087
1530.08339	0.94049
1528.02959	0.94038
1525.97578	0.94050
1523.92198	0.94057
1521.86818	0.94016
1519.81437	0.93951
1517.76057	0.93917
1515.70677	0.93872
1513.65297	0.93796
1511.59916	0.93726
1509.54536	0.93661
1507.49156	0.93560
1505.43775	0.93473
1503.38395	0.93420
1501.33015	0.93259
1499.27634	0.92729
1497.22254	0.91246
1495.16874	0.89022
1493.11493	0.87577
1491.06113	0.87638
1489.00733	0.89069
1486.95352	0.90466
1484.89972	0.91207
1482.84592	0.91621
1480.79211	0.91886
1478.73831	0.92050
1476.68451	0.92163
1474.63070	0.92252
1472.57690	0.92309
1470.52310	0.92352
1468.46929	0.92409
1466.41549	0.92485
1464.36169	0.92545
1462.30788	0.92537
1460.25408	0.92421
1458.20028	0.91772
1456.14648	0.89818
1454.09267	0.87906
1452.03887	0.87057
1449.98507	0.87251
1447.93126	0.88094
1445.87746	0.88935
1443.82366	0.89574
1441.76985	0.90139
1439.71605	0.90652
1437.66225	0.91118
1435.60844	0.91499
1433.55464	0.91735
1431.50084	0.91944
1429.44703	0.92173
1427.39323	0.92356
1425.33943	0.92479
1423.28562	0.92601
1421.23182	0.92750
1419.17802	0.92901
1417.12421	0.93007
1415.07041	0.93115
1413.01661	0.93261
1410.96280	0.93401
1408.90900	0.93518
1406.85520	0.93622
1404.80139	0.93733
1402.74759	0.93841
1400.69379	0.93929
1398.63999	0.94015
1396.58618	0.94093
1394.53238	0.94136
1392.47858	0.94165
1390.42477	0.94191
1388.37097	0.94182
1386.31717	0.94124
1384.26336	0.94067
1382.20956	0.94033
1380.15576	0.93994
1378.10195	0.93949
1376.04815	0.93899
1373.99435	0.93846
1371.94054	0.93828
1369.88674	0.93854
1367.83294	0.93901
1365.77913	0.93949
1363.72533	0.93997
1361.67153	0.94032
1359.61772	0.94052
1357.56392	0.94107
1355.51012	0.94189
1353.45631	0.94248
1351.40251	0.94287
1349.34871	0.94307
1347.29491	0.94316
1345.24110	0.94343
1343.18730	0.94385
1341.13350	0.94410
1339.07969	0.94407
1337.02589	0.94412
1334.97209	0.94423
1332.91828	0.94402
1330.86448	0.94342
1328.81068	0.94295
1326.75687	0.94296
1324.70307	0.94317
1322.64927	0.94324
1320.59546	0.94330
1318.54166	0.94355
1316.48786	0.94361
1314.43405	0.94339
1312.38025	0.94331
1310.32645	0.94356
1308.27264	0.94396
1306.21884	0.94433
1304.16504	0.94462
1302.11123	0.94501
1300.05743	0.94543
1298.00363	0.94565
1295.94982	0.94579
1293.89602	0.94584
1291.84222	0.94569
1289.78842	0.94554
1287.73461	0.94520
1285.68081	0.94465
1283.62701	0.94432
1281.57320	0.94409
1279.51940	0.94369
1277.46560	0.94319
1275.41179	0.94286
1273.35799	0.94282
1271.30419	0.94305
1269.25038	0.94339
1267.19658	0.94358
1265.14278	0.94365
1263.08897	0.94354
1261.03517	0.94347
1258.98137	0.94353
1256.92756	0.94306
1254.87376	0.94209
1252.81996	0.94136
1250.76615	0.94094
1248.71235	0.94060
1246.65855	0.94018
1244.60474	0.93968
1242.55094	0.93921
1240.49714	0.93883
1238.44334	0.93845
1236.38953	0.93792
1234.33573	0.93721
1232.28193	0.93631
1230.22812	0.93545
1228.17432	0.93481
1226.12052	0.93413
1224.06671	0.93288
1222.01291	0.93109
1219.95911	0.92932
1217.90530	0.92747
1215.85150	0.92515
1213.79770	0.92268
1211.74389	0.92039
1209.69009	0.91804
1207.63629	0.91539
1205.58248	0.91215
1203.52868	0.90839
1201.47488	0.90459
1199.42107	0.90101
1197.36727	0.89766
1195.31347	0.89420
1193.25966	0.89050
1191.20586	0.88672
1189.15206	0.88273
1187.09825	0.87831
1185.04445	0.87358
1182.99065	0.86896
1180.93685	0.86470
1178.88304	0.86097
1176.82924	0.85766
1174.77544	0.85432
1172.72163	0.85077
1170.66783	0.84684
1168.61403	0.84268
1166.56022	0.83889
1164.50642	0.83565
1162.45262	0.83298
1160.39881	0.83075
1158.34501	0.82843
1156.29121	0.82560
1154.23740	0.82271
1152.18360	0.82057
1150.12980	0.81899
1148.07599	0.81715
1146.02219	0.81510
1143.96839	0.81317
1141.91458	0.81115
1139.86078	0.80895
1137.80698	0.80666
1135.75317	0.80413
1133.69937	0.80112
1131.64557	0.79752
1129.59176	0.79362
1127.53796	0.78946
1125.48416	0.78458
1123.43036	0.77897
1121.37655	0.77267
1119.32275	0.76564
1117.26895	0.75825
1115.21514	0.75099
1113.16134	0.74430
1111.10754	0.73819
1109.05373	0.73226
1106.99993	0.72672
1104.94613	0.72196
1102.89232	0.71747
1100.83852	0.71285
1098.78472	0.70847
1096.73091	0.70461
1094.67711	0.70101
1092.62331	0.69756
1090.56950	0.69446
1088.51570	0.69146
1086.46190	0.68833
1084.40809	0.68518
1082.35429	0.68211
1080.30049	0.67920
1078.24668	0.67632
1076.19288	0.67350
1074.13908	0.67064
1072.08528	0.66703
1070.03147	0.66221
1067.97767	0.65687
1065.92387	0.65175
1063.87006	0.64674
1061.81626	0.64176
1059.76246	0.63683
1057.70865	0.63148
1055.65485	0.62548
1053.60105	0.61884
1051.54724	0.61119
1049.49344	0.60212
1047.43964	0.59206
1045.38583	0.58154
1043.33203	0.57032
1041.27823	0.55823
1039.22442	0.54561
1037.17062	0.53298
1035.11682	0.52096
1033.06301	0.50955
1031.00921	0.49850
1028.95541	0.48853
1026.90160	0.48064
1024.84780	0.47486
1022.79400	0.47054
1020.74019	0.46690
1018.68639	0.46329
1016.63259	0.45916
1014.57879	0.45451
1012.52498	0.44956
1010.47118	0.44422
1008.41738	0.43906
1006.36357	0.43475
1004.30977	0.43086
1002.25597	0.42770
1000.20216	0.42619
998.14836	0.42636
996.09456	0.42760
994.04075	0.42936
991.98695	0.43153
989.93315	0.43445
987.87934	0.43848
985.82554	0.44324
983.77174	0.44844
981.71793	0.45474
979.66413	0.46248
977.61033	0.47164
975.55652	0.48246
973.50272	0.49471
971.44892	0.50771
969.39511	0.52073
967.34131	0.53329
965.28751	0.54556
963.23371	0.55770
961.17990	0.56942
959.12610	0.58059
957.07230	0.59145
955.01849	0.60181
952.96469	0.61094
950.91089	0.61851
948.85708	0.62498
946.80328	0.63109
944.74948	0.63709
942.69567	0.64268
940.64187	0.64787
938.58807	0.65306
936.53426	0.65841
934.48046	0.66378
932.42666	0.66889
930.37285	0.67373
928.31905	0.67828
926.26525	0.68218
924.21144	0.68501
922.15764	0.68642
920.10384	0.68629
918.05003	0.68519
915.99623	0.68369
913.94243	0.68170
911.88862	0.68022
909.83482	0.68094
907.78102	0.68437
905.72722	0.69073
903.67341	0.70023
901.61961	0.71227
899.56581	0.72552
897.51200	0.73835
895.45820	0.74965
893.40440	0.75906
891.35059	0.76705
889.29679	0.77427
887.24299	0.78042
885.18918	0.78459
883.13538	0.78708
881.08158	0.78913
879.02777	0.79139
876.97397	0.79441
874.92017	0.79882
872.86636	0.80471
870.81256	0.81150
868.75876	0.81756
866.70495	0.82180
864.65115	0.82472
862.59735	0.82718
860.54354	0.83033
858.48974	0.83473
856.43594	0.83939
854.38213	0.84335
852.32833	0.84656
850.27453	0.84877
848.22073	0.84947
846.16692	0.84875
844.11312	0.84725
842.05932	0.84569
840.00551	0.84483
837.95171	0.84404
835.89791	0.84229
833.84410	0.84058
831.79030	0.83987
829.73650	0.83957
827.68269	0.83927
825.62889	0.83987
823.57509	0.84224
821.52128	0.84531
819.46748	0.84756
817.41368	0.84876
815.35987	0.84896
813.30607	0.84765
811.25227	0.84463
809.19846	0.84022
807.14466	0.83388
805.09086	0.82475
803.03705	0.81422
800.98325	0.80598
798.92945	0.80261
796.87565	0.80343
794.82184	0.80616
792.76804	0.80867
790.71424	0.80996
788.66043	0.81049
786.60663	0.81013
784.55283	0.80763
782.49902	0.80313
780.44522	0.79863
778.39142	0.79558
776.33761	0.79379
774.28381	0.79170
772.23001	0.78740
770.17620	0.78034
768.12240	0.77152
766.06860	0.76137
764.01479	0.74960
761.96099	0.73682
759.90719	0.72466
757.85338	0.71486
755.79958	0.70871
753.74578	0.70638
751.69197	0.70647
749.63817	0.70678
747.58437	0.70752
745.53056	0.71217
743.47676	0.72278
741.42296	0.73717
739.36916	0.75247
737.31535	0.76747
735.26155	0.78059
733.20775	0.79079
731.15394	0.79884
729.10014	0.80502
727.04634	0.80901
724.99253	0.81195
722.93873	0.81528
720.88493	0.81899
718.83112	0.82271
716.77732	0.82555
714.72352	0.82578
712.66971	0.82210
710.61591	0.81347
708.56211	0.79709
706.50830	0.76871
704.45450	0.72631
702.40070	0.67221
700.34689	0.61092
698.29309	0.55020
696.23929	0.50816
694.18548	0.50657
692.13168	0.54490
690.07788	0.59761
688.02408	0.64204
685.97027	0.67243
683.91647	0.69237
681.86267	0.70645
679.80886	0.71652
677.75506	0.72315
675.70126	0.72718
673.64745	0.72945
671.59365	0.73184
669.53985	0.73571
667.48604	0.73946
665.43224	0.74154
663.37844	0.74380
661.32463	0.74585
659.27083	0.74570
657.21703	0.74370
655.16322	0.74166
653.10942	0.73972
651.05562	0.73757
649.00181	0.73637
646.94801	0.73730
644.89421	0.73993
642.84040	0.74305
640.78660	0.74601
638.73280	0.74862
636.67899	0.75089
634.62519	0.75288
632.57139	0.75472
630.51759	0.75653
628.46378	0.75683
626.40998	0.75505
624.35618	0.75274
622.30237	0.75063
620.24857	0.74857
618.19477	0.74660
616.14096	0.74441
614.08716	0.74125
612.03336	0.73759
609.97955	0.73414
607.92575	0.73030
605.87195	0.72627
603.81814	0.72250
601.76434	0.71863
599.71054	0.71442
597.65673	0.71004
595.60293	0.70630
593.54913	0.70372
591.49532	0.70200
589.44152	0.69975
587.38772	0.69674
585.33391	0.69525
583.28011	0.69457
581.22631	0.69217
579.17250	0.68912
577.11870	0.68586
575.06490	0.68166
573.01110	0.67700
570.95729	0.67119
568.90349	0.66448
566.84969	0.65815
564.79588	0.65094
562.74208	0.64159
560.68828	0.63181
558.63447	0.62238
556.58067	0.61216
554.52687	0.60277
552.47306	0.59450
550.41926	0.58451
548.36546	0.57258
546.31165	0.55956
544.25785	0.54489
542.20405	0.52909
540.15024	0.51382
538.09644	0.50088
536.04264	0.49096
533.98883	0.48366
531.93503	0.47954
529.88123	0.47950
527.82742	0.48232
525.77362	0.48524
523.71982	0.48784
521.66602	0.49225
519.61221	0.49906
517.55841	0.50582
515.50461	0.51208
513.45080	0.51999
511.39700	0.52795
509.34320	0.53492
507.28939	0.54155
505.23559	0.54689
503.18179	0.55161
501.12798	0.55563
499.07418	0.55652
497.02038	0.55512
494.96657	0.55348
492.91277	0.54999
490.85897	0.54273
488.80516	0.53277
486.75136	0.52127
484.69756	0.50834
482.64375	0.49237
480.58995	0.47238
478.53615	0.45132
476.48234	0.43208
474.42854	0.41441
472.37474	0.39664
470.32093	0.38080
468.26713	0.37096
466.21333	0.36685
464.15953	0.36605
462.10572	0.36804
460.05192	0.37386
457.99812	0.38207
455.94431	0.38854
453.89051	0.39448
451.83671	0.40250
449.78290	0.41091
447.72910	0.41845
445.67530	0.42495
443.62149	0.43036
441.56769	0.43376
439.51389	0.43365
437.46008	0.43172
435.40628	0.42902
433.35248	0.42468
431.29867	0.41865
429.24487	0.41141
427.19107	0.40692
425.13726	0.40835
423.08346	0.41252
421.02966	0.41457
418.97585	0.41582
416.92205	0.42201
414.86825	0.42860
412.81445	0.43415
410.76064	0.44138
408.70684	0.44924
406.65304	0.45688
404.59923	0.46377
402.54543	0.46725
400.49163	0.46762
398.43782	0.46179
