3996.70104	0.93939
3994.64724	0.93907
3992.59344	0.93877
3990.53964	0.93914
3988.48583	0.93985
3986.43203	0.94014
3984.37823	0.94008
3982.32442	0.93988
3980.27062	0.93970
3978.21682	0.93950
3976.16301	0.93957
3974.10921	0.94009
3972.05541	0.94022
3970.00160	0.93981
3967.94780	0.93960
3965.89400	0.93946
3963.84019	0.93906
3961.78639	0.93899
3959.73259	0.93928
3957.67878	0.93918
3955.62498	0.93920
3953.57118	0.93962
3951.51737	0.93961
3949.46357	0.93913
3947.40977	0.93926
3945.35596	0.94006
3943.30216	0.94042
3941.24836	0.94003
3939.19455	0.93968
3937.14075	0.93962
3935.08695	0.93963
3933.03315	0.93976
3930.97934	0.93997
3928.92554	0.94011
3926.87174	0.94029
3924.81793	0.94042
3922.76413	0.94035
3920.71033	0.94033
3918.65652	0.94026
3916.60272	0.93994
3914.54892	0.93977
3912.49511	0.93977
3910.44131	0.93982
3908.38751	0.94010
3906.33370	0.94044
3904.27990	0.94023
3902.22610	0.93986
3900.17229	0.94034
3898.11849	0.94081
3896.06469	0.94054
3894.01088	0.94022
3891.95708	0.94050
3889.90328	0.94072
3887.84947	0.94007
3885.79567	0.93968
3883.74187	0.94033
3881.68807	0.94075
3879.63426	0.94027
3877.58046	0.93994
3875.52666	0.94040
3873.47285	0.94085
3871.41905	0.94043
3869.36525	0.93986
3867.31144	0.93969
3865.25764	0.93950
3863.20384	0.93983
3861.15003	0.94071
3859.09623	0.94113
3857.04243	0.94080
3854.98862	0.93968
3852.93482	0.93914
3850.88102	0.94036
3848.82721	0.94124
3846.77341	0.94134
3844.71961	0.94090
3842.66580	0.94055
3840.61200	0.94037
3838.55820	0.93986
3836.50439	0.93995
3834.45059	0.94078
3832.39679	0.94123
3830.34298	0.94110
3828.28918	0.94076
3826.23538	0.94057
3824.18158	0.94082
3822.12777	0.94161
3820.07397	0.94209
3818.02017	0.94129
3815.96636	0.94015
3813.91256	0.93983
3811.85876	0.94018
3809.80495	0.94060
3807.75115	0.94113
3805.69735	0.94149
3803.64354	0.94142
3801.58974	0.94143
3799.53594	0.94150
3797.48213	0.94131
3795.42833	0.94122
3793.37453	0.94134
3791.32072	0.94147
3789.26692	0.94146
3787.21312	0.94129
3785.15931	0.94128
3783.10551	0.94141
3781.05171	0.94141
3778.99790	0.94140
3776.94410	0.94162
3774.89030	0.94189
3772.83650	0.94198
3770.78269	0.94212
3768.72889	0.94249
3766.67509	0.94280
3764.62128	0.94293
3762.56748	0.94282
3760.51368	0.94216
3758.45987	0.94181
3756.40607	0.94277
3754.35227	0.94388
3752.29846	0.94432
3750.24466	0.94389
3748.19086	0.94328
3746.13705	0.94320
3744.08325	0.94340
3742.02945	0.94312
3739.97564	0.94236
3737.92184	0.94151
3735.86804	0.94166
3733.81423	0.94351
3731.76043	0.94452
3729.70663	0.94427
3727.65282	0.94369
3725.59902	0.94287
3723.54522	0.94231
3721.49141	0.94246
3719.43761	0.94274
3717.38381	0.94266
3715.33001	0.94246
3713.27620	0.94185
3711.22240	0.94022
3709.16860	0.93847
3707.11479	0.93776
3705.06099	0.93746
3703.00719	0.93632
3700.95338	0.93420
3698.89958	0.93267
3696.84578	0.93239
3694.79197	0.93275
3692.73817	0.93278
3690.68437	0.93249
3688.63056	0.93247
3686.57676	0.93283
3684.52296	0.93376
3682.46915	0.93482
3680.41535	0.93512
3678.36155	0.93461
3676.30774	0.93387
3674.25394	0.93355
3672.20014	0.93362
3670.14633	0.93305
3668.09253	0.93213
3666.03873	0.93171
3663.98492	0.93126
3661.93112	0.93080
3659.87732	0.93064
3657.82352	0.93035
3655.76971	0.92976
3653.71591	0.92942
3651.66211	0.92952
3649.60830	0.92990
3647.55450	0.92983
3645.50070	0.92916
3643.44689	0.92846
3641.39309	0.92760
3639.33929	0.92678
3637.28548	0.92627
3635.23168	0.92565
3633.17788	0.92493
3631.12407	0.92477
3629.07027	0.92469
3627.01647	0.92336
3624.96266	0.92225
3622.90886	0.92232
3620.85506	0.92273
3618.80125	0.92247
3616.74745	0.92208
3614.69365	0.92230
3612.63984	0.92279
3610.58604	0.92275
3608.53224	0.92273
3606.47844	0.92382
3604.42463	0.92459
3602.37083	0.92407
3600.31703	0.92322
3598.26322	0.92303
3596.20942	0.92358
3594.15562	0.92424
3592.10181	0.92444
3590.04801	0.92426
3587.99421	0.92374
3585.94040	0.92345
3583.88660	0.92363
3581.83280	0.92389
3579.77899	0.92382
3577.72519	0.92333
3575.67139	0.92324
3573.61758	0.92366
3571.56378	0.92372
3569.50998	0.92348
3567.45617	0.92315
3565.40237	0.92227
3563.34857	0.92169
3561.29476	0.92199
3559.24096	0.92211
3557.18716	0.92167
3555.13335	0.92152
3553.07955	0.92175
3551.02575	0.92204
3548.97195	0.92252
3546.91814	0.92294
3544.86434	0.92257
3542.81054	0.92189
3540.75673	0.92182
3538.70293	0.92184
3536.64913	0.92162
3534.59532	0.92137
3532.54152	0.92119
3530.48772	0.92131
3528.43391	0.92177
3526.38011	0.92242
3524.32631	0.92281
3522.27250	0.92248
3520.21870	0.92177
3518.16490	0.92127
3516.11109	0.92101
3514.05729	0.92094
3512.00349	0.92110
3509.94968	0.92106
3507.89588	0.92043
3505.84208	0.92001
3503.78827	0.92056
3501.73447	0.92116
3499.68067	0.92106
3497.62687	0.92077
3495.57306	0.92059
3493.51926	0.92015
3491.46546	0.91947
3489.41165	0.91912
3487.35785	0.91901
3485.30405	0.91901
3483.25024	0.91945
3481.19644	0.91999
3479.14264	0.91955
3477.08883	0.91839
3475.03503	0.91786
3472.98123	0.91818
3470.92742	0.91838
3468.87362	0.91818
3466.81982	0.91802
3464.76601	0.91804
3462.71221	0.91821
3460.65841	0.91811
3458.60460	0.91750
3456.55080	0.91690
3454.49700	0.91668
3452.44319	0.91692
3450.38939	0.91735
3448.33559	0.91759
3446.28178	0.91762
3444.22798	0.91736
3442.17418	0.91671
3440.12038	0.91617
3438.06657	0.91637
3436.01277	0.91686
3433.95897	0.91672
3431.90516	0.91654
3429.85136	0.91677
3427.79756	0.91671
3425.74375	0.91652
3423.68995	0.91651
3421.63615	0.91628
3419.58234	0.91578
3417.52854	0.91525
3415.47474	0.91518
3413.42093	0.91562
3411.36713	0.91571
3409.31333	0.91520
3407.25952	0.91508
3405.20572	0.91571
3403.15192	0.91611
3401.09811	0.91605
3399.04431	0.91593
3396.99051	0.91583
3394.93670	0.91566
3392.88290	0.91511
3390.82910	0.91472
3388.77529	0.91495
3386.72149	0.91518
3384.66769	0.91511
3382.61389	0.91511
3380.56008	0.91524
3378.50628	0.91514
3376.45248	0.91483
3374.39867	0.91467
3372.34487	0.91479
3370.29107	0.91514
3368.23726	0.91551
3366.18346	0.91548
3364.12966	0.91544
3362.07585	0.91573
3360.02205	0.91586
3357.96825	0.91578
3355.91444	0.91594
3353.86064	0.91639
3351.80684	0.91686
3349.75303	0.91713
3347.69923	0.91696
3345.64543	0.91670
3343.59162	0.91658
3341.53782	0.91624
3339.48402	0.91588
3337.43021	0.91598
3335.37641	0.91611
3333.32261	0.91590
3331.26881	0.91570
3329.21500	0.91550
3327.16120	0.91552
3325.10740	0.91601
3323.05359	0.91649
3320.99979	0.91680
3318.94599	0.91726
3316.89218	0.91780
3314.83838	0.91791
3312.78458	0.91755
3310.73077	0.91727
3308.67697	0.91745
3306.62317	0.91751
3304.56936	0.91714
3302.51556	0.91699
3300.46176	0.91697
3298.40795	0.91665
3296.35415	0.91665
3294.30035	0.91732
3292.24654	0.91760
3290.19274	0.91709
3288.13894	0.91661
3286.08513	0.91692
3284.03133	0.91783
3281.97753	0.91842
3279.92372	0.91846
3277.86992	0.91829
3275.81612	0.91807
3273.76232	0.91792
3271.70851	0.91783
3269.65471	0.91795
3267.60091	0.91825
3265.54710	0.91825
3263.49330	0.91823
3261.43950	0.91850
3259.38569	0.91855
3257.33189	0.91823
3255.27809	0.91803
3253.22428	0.91829
3251.17048	0.91879
3249.11668	0.91895
3247.06287	0.91873
3245.00907	0.91848
3242.95527	0.91832
3240.90146	0.91855
3238.84766	0.91911
3236.79386	0.91929
3234.74005	0.91897
3232.68625	0.91885
3230.63245	0.91917
3228.57864	0.91938
3226.52484	0.91937
3224.47104	0.91950
3222.41724	0.91967
3220.36343	0.91976
3218.30963	0.91984
3216.25583	0.91977
3214.20202	0.91971
3212.14822	0.91984
3210.09442	0.92017
3208.04061	0.92086
3205.98681	0.92147
3203.93301	0.92143
3201.87920	0.92108
3199.82540	0.92116
3197.77160	0.92187
3195.71779	0.92261
3193.66399	0.92281
3191.61019	0.92250
3189.55638	0.92196
3187.50258	0.92173
3185.44878	0.92217
3183.39497	0.92289
3181.34117	0.92335
3179.28737	0.92359
3177.23356	0.92354
3175.17976	0.92296
3173.12596	0.92270
3171.07215	0.92346
3169.01835	0.92440
3166.96455	0.92478
3164.91075	0.92474
3162.85694	0.92451
3160.80314	0.92429
3158.74934	0.92415
3156.69553	0.92415
3154.64173	0.92440
3152.58793	0.92502
3150.53412	0.92572
3148.48032	0.92604
3146.42652	0.92630
3144.37271	0.92665
3142.31891	0.92695
3140.26511	0.92742
3138.21130	0.92763
3136.15750	0.92773
3134.10370	0.92813
3132.04989	0.92829
3129.99609	0.92779
3127.94229	0.92704
3125.88848	0.92670
3123.83468	0.92692
3121.78088	0.92740
3119.72707	0.92800
3117.67327	0.92877
3115.61947	0.92931
3113.56566	0.92897
3111.51186	0.92809
3109.45806	0.92754
3107.40426	0.92716
3105.35045	0.92659
3103.29665	0.92617
3101.24285	0.92614
3099.18904	0.92639
3097.13524	0.92674
3095.08144	0.92684
3093.02763	0.92637
3090.97383	0.92542
3088.92003	0.92396
3086.86622	0.92181
3084.81242	0.91931
3082.75862	0.91723
3080.70481	0.91648
3078.65101	0.91752
3076.59721	0.91955
3074.54340	0.92102
3072.48960	0.92145
3070.43580	0.92129
3068.38199	0.92036
3066.32819	0.91829
3064.27439	0.91565
3062.22058	0.91346
3060.16678	0.91219
3058.11298	0.91224
3056.05918	0.91373
3054.00537	0.91628
3051.95157	0.91897
3049.89777	0.92072
3047.84396	0.92152
3045.79016	0.92232
3043.73636	0.92328
3041.68255	0.92350
3039.62875	0.92266
3037.57495	0.92091
3035.52114	0.91820
3033.46734	0.91394
3031.41354	0.90782
3029.35973	0.90091
3027.30593	0.89490
3025.25213	0.89180
3023.19832	0.89303
3021.14452	0.89796
3019.09072	0.90459
3017.03691	0.91067
3014.98311	0.91538
3012.92931	0.91884
3010.87550	0.92102
3008.82170	0.92198
3006.76790	0.92203
3004.71409	0.92164
3002.66029	0.92139
3000.60649	0.92166
2998.55269	0.92265
2996.49888	0.92430
2994.44508	0.92598
2992.39128	0.92733
2990.33747	0.92826
2988.28367	0.92841
2986.22987	0.92834
2984.17606	0.92868
2982.12226	0.92894
2980.06846	0.92874
2978.01465	0.92804
2975.96085	0.92714
2973.90705	0.92682
2971.85324	0.92685
2969.79944	0.92646
2967.74564	0.92580
2965.69183	0.92471
2963.63803	0.92310
2961.58423	0.92187
2959.53042	0.92112
2957.47662	0.91992
2955.42282	0.91828
2953.36901	0.91731
2951.31521	0.91713
2949.26141	0.91664
2947.20761	0.91519
2945.15380	0.91291
2943.10000	0.91016
2941.04620	0.90684
2938.99239	0.90272
2936.93859	0.89787
2934.88479	0.89224
2932.83098	0.88612
2930.77718	0.87999
2928.72338	0.87388
2926.66957	0.86814
2924.61577	0.86327
2922.56197	0.85937
2920.50816	0.85686
2918.45436	0.85623
2916.40056	0.85811
2914.34675	0.86232
2912.29295	0.86715
2910.23915	0.87169
2908.18534	0.87614
2906.13154	0.88062
2904.07774	0.88477
2902.02393	0.88844
2899.97013	0.89189
2897.91633	0.89513
2895.86252	0.89801
2893.80872	0.90047
2891.75492	0.90268
2889.70112	0.90458
2887.64731	0.90610
2885.59351	0.90772
2883.53971	0.90951
2881.48590	0.91106
2879.43210	0.91235
2877.37830	0.91310
2875.32449	0.91305
2873.27069	0.91289
2871.21689	0.91340
2869.16308	0.91403
2867.10928	0.91392
2865.05548	0.91282
2863.00167	0.91092
2860.94787	0.90857
2858.89407	0.90582
2856.84026	0.90259
2854.78646	0.89899
2852.73266	0.89539
2850.67885	0.89298
2848.62505	0.89311
2846.57125	0.89580
2844.51744	0.89998
2842.46364	0.90449
2840.40984	0.90881
2838.35603	0.91285
2836.30223	0.91637
2834.24843	0.91914
2832.19463	0.92111
2830.14082	0.92252
2828.08702	0.92378
2826.03322	0.92475
2823.97941	0.92528
2821.92561	0.92576
2819.87181	0.92621
2817.81800	0.92658
2815.76420	0.92719
2813.71040	0.92785
2811.65659	0.92830
2809.60279	0.92848
2807.54899	0.92825
2805.49518	0.92796
2803.44138	0.92813
2801.38758	0.92871
2799.33377	0.92942
2797.27997	0.92972
2795.22617	0.92944
2793.17236	0.92912
2791.11856	0.92907
2789.06476	0.92941
2787.01095	0.93000
2784.95715	0.93033
2782.90335	0.93036
2780.84955	0.93046
2778.79574	0.93080
2776.74194	0.93131
2774.68814	0.93175
2772.63433	0.93191
2770.58053	0.93194
2768.52673	0.93192
2766.47292	0.93174
2764.41912	0.93156
2762.36532	0.93175
2760.31151	0.93230
2758.25771	0.93274
2756.20391	0.93265
2754.15010	0.93237
2752.09630	0.93247
2750.04250	0.93280
2747.98869	0.93287
2745.93489	0.93270
2743.88109	0.93268
2741.82728	0.93284
2739.77348	0.93287
2737.71968	0.93299
2735.66587	0.93326
2733.61207	0.93315
2731.55827	0.93272
2729.50446	0.93261
2727.45066	0.93287
2725.39686	0.93297
2723.34306	0.93301
2721.28925	0.93324
2719.23545	0.93340
2717.18165	0.93360
2715.12784	0.93391
2713.07404	0.93406
2711.02024	0.93404
2708.96643	0.93395
2706.91263	0.93372
2704.85883	0.93359
2702.80502	0.93381
2700.75122	0.93406
2698.69742	0.93396
2696.64361	0.93376
2694.58981	0.93382
2692.53601	0.93398
2690.48220	0.93409
2688.42840	0.93418
2686.37460	0.93412
2684.32079	0.93423
2682.26699	0.93456
2680.21319	0.93462
2678.15938	0.93453
2676.10558	0.93440
2674.05178	0.93417
2671.99797	0.93414
2669.94417	0.93430
2667.89037	0.93443
2665.83657	0.93449
2663.78276	0.93451
2661.72896	0.93455
2659.67516	0.93464
2657.62135	0.93468
2655.56755	0.93460
2653.51375	0.93447
2651.45994	0.93437
2649.40614	0.93433
2647.35234	0.93461
2645.29853	0.93534
2643.24473	0.93585
2641.19093	0.93565
2639.13712	0.93537
2637.08332	0.93549
2635.02952	0.93575
2632.97571	0.93586
2630.92191	0.93588
2628.86811	0.93590
2626.81430	0.93600
2624.76050	0.93652
2622.70670	0.93703
2620.65289	0.93701
2618.59909	0.93683
2616.54529	0.93690
2614.49149	0.93701
2612.43768	0.93683
2610.38388	0.93676
2608.33008	0.93733
2606.27627	0.93779
2604.22247	0.93757
2602.16867	0.93748
2600.11486	0.93758
2598.06106	0.93738
2596.00726	0.93735
2593.95345	0.93787
2591.89965	0.93855
2589.84585	0.93887
2587.79204	0.93862
2585.73824	0.93820
2583.68444	0.93815
2581.63063	0.93794
2579.57683	0.93751
2577.52303	0.93770
2575.46922	0.93828
2573.41542	0.93853
2571.36162	0.93864
2569.30781	0.93906
2567.25401	0.93971
2565.20021	0.94019
2563.14640	0.94011
2561.09260	0.93949
2559.03880	0.93906
2556.98500	0.93912
2554.93119	0.93916
2552.87739	0.93882
2550.82359	0.93859
2548.76978	0.93882
2546.71598	0.93902
2544.66218	0.93936
2542.60837	0.93973
2540.55457	0.93948
2538.50077	0.93925
2536.44696	0.93973
2534.39316	0.94010
2532.33936	0.93984
2530.28555	0.93962
2528.23175	0.93945
2526.17795	0.93919
2524.12414	0.93900
2522.07034	0.93923
2520.01654	0.94021
2517.96273	0.94097
2515.90893	0.94058
2513.85513	0.93975
2511.80132	0.93935
2509.74752	0.93931
2507.69372	0.93952
2505.63992	0.94005
2503.58611	0.94028
2501.53231	0.93987
2499.47851	0.93955
2497.42470	0.93975
2495.37090	0.93961
2493.31710	0.93898
2491.26329	0.93886
2489.20949	0.93923
2487.15569	0.93963
2485.10188	0.93998
2483.04808	0.93987
2480.99428	0.93969
2478.94047	0.94028
2476.88667	0.94102
2474.83287	0.94087
2472.77906	0.94019
2470.72526	0.93983
2468.67146	0.94006
2466.61765	0.94059
2464.56385	0.94060
2462.51005	0.93998
2460.45624	0.93952
2458.40244	0.93941
2456.34864	0.93938
2454.29483	0.93957
2452.24103	0.93974
2450.18723	0.93964
2448.13343	0.93980
2446.07962	0.94023
2444.02582	0.94057
2441.97202	0.94117
2439.91821	0.94200
2437.86441	0.94209
2435.81061	0.94148
2433.75680	0.94075
2431.70300	0.94012
2429.64920	0.94028
2427.59539	0.94116
2425.54159	0.94182
2423.48779	0.94195
2421.43398	0.94204
2419.38018	0.94232
2417.32638	0.94255
2415.27257	0.94245
2413.21877	0.94170
2411.16497	0.94089
2409.11116	0.94081
2407.05736	0.94107
2405.00356	0.94126
2402.94975	0.94158
2400.89595	0.94177
2398.84215	0.94170
2396.78834	0.94195
2394.73454	0.94221
2392.68074	0.94198
2390.62694	0.94167
2388.57313	0.94152
2386.51933	0.94131
2384.46553	0.94125
2382.41172	0.94163
2380.35792	0.94191
2378.30412	0.94158
2376.25031	0.94121
2374.19651	0.94134
2372.14271	0.94168
2370.08890	0.94210
2368.03510	0.94254
2365.98130	0.94219
2363.92749	0.94104
2361.87369	0.94095
2359.81989	0.94228
2357.76608	0.94302
2355.71228	0.94276
2353.65848	0.94243
2351.60467	0.94187
2349.55087	0.94131
2347.49707	0.94129
2345.44326	0.94110
2343.38946	0.94027
2341.33566	0.94011
2339.28186	0.94057
2337.22805	0.94037
2335.17425	0.94006
2333.12045	0.94071
2331.06664	0.94154
2329.01284	0.94142
2326.95904	0.94041
2324.90523	0.93941
2322.85143	0.93936
2320.79763	0.94008
2318.74382	0.94069
2316.69002	0.94104
2314.63622	0.94129
2312.58241	0.94152
2310.52861	0.94154
2308.47481	0.94115
2306.42100	0.94094
2304.36720	0.94136
2302.31340	0.94206
2300.25959	0.94241
2298.20579	0.94231
2296.15199	0.94239
2294.09818	0.94250
2292.04438	0.94207
2289.99058	0.94168
2287.93677	0.94188
2285.88297	0.94259
2283.82917	0.94336
2281.77537	0.94324
2279.72156	0.94262
2277.66776	0.94261
2275.61396	0.94280
2273.56015	0.94300
2271.50635	0.94336
2269.45255	0.94360
2267.39874	0.94393
2265.34494	0.94462
2263.29114	0.94474
2261.23733	0.94353
2259.18353	0.94275
2257.12973	0.94333
2255.07592	0.94310
2253.02212	0.94218
2250.96832	0.94246
2248.91451	0.94305
2246.86071	0.94289
2244.80691	0.94278
2242.75310	0.94365
2240.69930	0.94487
2238.64550	0.94557
2236.59169	0.94553
2234.53789	0.94471
2232.48409	0.94410
2230.43029	0.94407
2228.37648	0.94416
2226.32268	0.94504
2224.26888	0.94693
2222.21507	0.94850
2220.16127	0.94835
2218.10747	0.94739
2216.05366	0.94743
2213.99986	0.94729
2211.94606	0.94620
2209.89225	0.94518
2207.83845	0.94438
2205.78465	0.94516
2203.73084	0.94751
2201.67704	0.94831
2199.62324	0.94646
2197.56943	0.94337
2195.51563	0.94163
2193.46183	0.94267
2191.40802	0.94392
2189.35422	0.94399
2187.30042	0.94466
2185.24661	0.94584
2183.19281	0.94693
2181.13901	0.94685
2179.08520	0.94402
2177.03140	0.94157
2174.97760	0.94192
2172.92380	0.94287
2170.86999	0.94271
2168.81619	0.94273
2166.76239	0.94512
2164.70858	0.94730
2162.65478	0.94619
2160.60098	0.94499
2158.54717	0.94626
2156.49337	0.94745
2154.43957	0.94761
2152.38576	0.94790
2150.33196	0.94885
2148.27816	0.95034
2146.22435	0.95120
2144.17055	0.95110
2142.11675	0.95020
2140.06294	0.94839
2138.00914	0.94670
2135.95534	0.94632
2133.90153	0.94760
2131.84773	0.94943
2129.79393	0.95009
2127.74012	0.94944
2125.68632	0.94891
2123.63252	0.94861
2121.57871	0.94715
2119.52491	0.94506
2117.47111	0.94387
2115.41731	0.94346
2113.36350	0.94376
2111.30970	0.94499
2109.25590	0.94609
2107.20209	0.94597
2105.14829	0.94525
2103.09449	0.94541
2101.04068	0.94627
2098.98688	0.94677
2096.93308	0.94717
2094.87927	0.94816
2092.82547	0.94958
2090.77167	0.95049
2088.71786	0.94991
2086.66406	0.94834
2084.61026	0.94738
2082.55645	0.94727
2080.50265	0.94676
2078.44885	0.94616
2076.39504	0.94630
2074.34124	0.94671
2072.28744	0.94797
2070.23363	0.94910
2068.17983	0.94845
2066.12603	0.94743
2064.07223	0.94660
2062.01842	0.94628
2059.96462	0.94771
2057.91082	0.94971
2055.85701	0.95052
2053.80321	0.94934
2051.74941	0.94563
2049.69560	0.94275
2047.64180	0.94410
2045.58800	0.94608
2043.53419	0.94665
2041.48039	0.94770
2039.42659	0.94882
2037.37278	0.95036
2035.31898	0.95154
2033.26518	0.95058
2031.21137	0.94936
2029.15757	0.94948
2027.10377	0.94922
2025.04996	0.94787
2022.99616	0.94717
2020.94236	0.94707
2018.88855	0.94768
2016.83475	0.94959
2014.78095	0.95229
2012.72714	0.95444
2010.67334	0.95435
2008.61954	0.95272
2006.56574	0.95202
2004.51193	0.95288
2002.45813	0.95399
2000.40433	0.95470
1998.35052	0.95398
1996.29672	0.95297
1994.24292	0.95239
1992.18911	0.95003
1990.13531	0.94809
1988.08151	0.94755
1986.02770	0.94642
1983.97390	0.94558
1981.92010	0.94594
1979.86629	0.94764
1977.81249	0.94870
1975.75869	0.94645
1973.70488	0.94456
1971.65108	0.94602
1969.59728	0.94820
1967.54347	0.94967
1965.48967	0.94987
1963.43587	0.94830
1961.38206	0.94669
1959.32826	0.94636
1957.27446	0.94741
1955.22066	0.94908
1953.16685	0.94973
1951.11305	0.94919
1949.05925	0.94766
1947.00544	0.94536
1944.95164	0.94412
1942.89784	0.94425
1940.84403	0.94421
1938.79023	0.94449
1936.73643	0.94655
1934.68262	0.94876
1932.62882	0.94896
1930.57502	0.94848
1928.52121	0.94908
1926.46741	0.94982
1924.41361	0.94978
1922.35980	0.94904
1920.30600	0.94742
1918.25220	0.94638
1916.19839	0.94688
1914.14459	0.94761
1912.09079	0.94779
1910.03698	0.94787
1907.98318	0.94846
1905.92938	0.94872
1903.87557	0.94834
1901.82177	0.94804
1899.76797	0.94779
1897.71417	0.94807
1895.66036	0.94885
1893.60656	0.94853
1891.55276	0.94723
1889.49895	0.94635
1887.44515	0.94598
1885.39135	0.94605
1883.33754	0.94668
1881.28374	0.94652
1879.22994	0.94539
1877.17613	0.94503
1875.12233	0.94549
1873.06853	0.94531
1871.01472	0.94420
1868.96092	0.94284
1866.90712	0.94210
1864.85331	0.94261
1862.79951	0.94415
1860.74571	0.94555
1858.69190	0.94622
1856.63810	0.94682
1854.58430	0.94749
1852.53049	0.94775
1850.47669	0.94767
1848.42289	0.94745
1846.36908	0.94702
1844.31528	0.94679
1842.26148	0.94707
1840.20768	0.94713
1838.15387	0.94725
1836.10007	0.94813
1834.04627	0.94908
1831.99246	0.94938
1829.93866	0.94913
1827.88486	0.94823
1825.83105	0.94726
1823.77725	0.94703
1821.72345	0.94705
1819.66964	0.94661
1817.61584	0.94605
1815.56204	0.94577
1813.50823	0.94558
1811.45443	0.94512
1809.40063	0.94431
1807.34682	0.94377
1805.29302	0.94388
1803.23922	0.94417
1801.18541	0.94431
1799.13161	0.94417
1797.07781	0.94400
1795.02400	0.94419
1792.97020	0.94477
1790.91640	0.94573
1788.86260	0.94655
1786.80879	0.94680
1784.75499	0.94653
1782.70119	0.94613
1780.64738	0.94611
1778.59358	0.94655
1776.53978	0.94693
1774.48597	0.94701
1772.43217	0.94708
1770.37837	0.94715
1768.32456	0.94725
1766.27076	0.94741
1764.21696	0.94737
1762.16315	0.94684
1760.10935	0.94601
1758.05555	0.94509
1756.00174	0.94401
1753.94794	0.94317
1751.89414	0.94251
1749.84033	0.94122
1747.78653	0.93955
1745.73273	0.93873
1743.67892	0.93830
1741.62512	0.93767
1739.57132	0.93731
1737.51751	0.93728
1735.46371	0.93758
1733.40991	0.93853
1731.35611	0.93929
1729.30230	0.93945
1727.24850	0.93927
1725.19470	0.93890
1723.14089	0.93877
1721.08709	0.93905
1719.03329	0.93942
1716.97948	0.93988
1714.92568	0.94040
1712.87188	0.94062
1710.81807	0.94080
1708.76427	0.94099
1706.71047	0.94107
1704.65666	0.94124
1702.60286	0.94122
1700.54906	0.94045
1698.49525	0.93910
1696.44145	0.93813
1694.38765	0.93766
1692.33384	0.93733
1690.28004	0.93683
1688.22624	0.93614
1686.17243	0.93540
1684.11863	0.93430
1682.06483	0.93284
1680.01103	0.93171
1677.95722	0.93101
1675.90342	0.93055
1673.84962	0.92988
1671.79581	0.92896
1669.74201	0.92786
1667.68821	0.92691
1665.63440	0.92619
1663.58060	0.92546
1661.52680	0.92493
1659.47299	0.92464
1657.41919	0.92445
1655.36539	0.92433
1653.31158	0.92407
1651.25778	0.92388
1649.20398	0.92401
1647.15017	0.92394
1645.09637	0.92363
1643.04257	0.92321
1640.98876	0.92257
1638.93496	0.92200
1636.88116	0.92174
1634.82735	0.92153
1632.77355	0.92100
1630.71975	0.92024
1628.66594	0.91943
1626.61214	0.91868
1624.55834	0.91810
1622.50454	0.91796
1620.45073	0.91807
1618.39693	0.91810
1616.34313	0.91766
1614.28932	0.91677
1612.23552	0.91570
1610.18172	0.91381
1608.12791	0.91012
1606.07411	0.90397
1604.02031	0.89609
1601.96650	0.88965
1599.91270	0.88876
1597.85890	0.89337
1595.80509	0.89986
1593.75129	0.90513
1591.69749	0.90843
1589.64368	0.91014
1587.58988	0.90983
1585.53608	0.90734
1583.48227	0.90444
1581.42847	0.90351
1579.37467	0.90447
1577.32086	0.90642
1575.26706	0.90966
1573.21326	0.91243
1571.15945	0.91440
1569.10565	0.91657
1567.05185	0.91851
1564.99805	0.92007
1562.94424	0.92138
1560.89044	0.92244
1558.83664	0.92372
1556.78283	0.92425
1554.72903	0.92380
1552.67523	0.92295
1550.62142	0.92177
1548.56762	0.92036
1546.51382	0.91880
1544.46001	0.91678
1542.40621	0.91457
1540.35241	0.91342
1538.29860	0.91440
1536.24480	0.91593
1534.19100	0.91846
1532.13719	0.92199
1530.08339	0.92418
1528.02959	0.92532
1525.97578	0.92636
1523.92198	0.92721
1521.86818	0.92750
1519.81437	0.92749
1517.76057	0.92752
1515.70677	0.92772
1513.65297	0.92820
1511.59916	0.92879
1509.54536	0.92935
1507.49156	0.92911
1505.43775	0.92740
1503.38395	0.92561
1501.33015	0.92298
1499.27634	0.91608
1497.22254	0.89521
1495.16874	0.86196
1493.11493	0.84040
1491.06113	0.84192
1489.00733	0.86506
1486.95352	0.88652
1484.89972	0.89678
1482.84592	0.90214
1480.79211	0.90519
1478.73831	0.90667
1476.68451	0.90751
1474.63070	0.90808
1472.57690	0.90788
1470.52310	0.90716
1468.46929	0.90654
1466.41549	0.90622
1464.36169	0.90676
1462.30788	0.90754
1460.25408	0.90691
1458.20028	0.89844
1456.14648	0.87015
1454.09267	0.84275
1452.03887	0.83045
1449.98507	0.83327
1447.93126	0.84629
1445.87746	0.85930
1443.82366	0.86882
1441.76985	0.87688
1439.71605	0.88363
1437.66225	0.88983
1435.60844	0.89596
1433.55464	0.90018
1431.50084	0.90330
1429.44703	0.90614
1427.39323	0.90809
1425.33943	0.90896
1423.28562	0.90911
1421.23182	0.90919
1419.17802	0.90938
1417.12421	0.90966
1415.07041	0.91069
1413.01661	0.91254
1410.96280	0.91485
1408.90900	0.91710
1406.85520	0.91887
1404.80139	0.92035
1402.74759	0.92172
1400.69379	0.92300
1398.63999	0.92420
1396.58618	0.92504
1394.53238	0.92533
1392.47858	0.92511
1390.42477	0.92463
1388.37097	0.92414
1386.31717	0.92352
1384.26336	0.92255
1382.20956	0.92146
1380.15576	0.92032
1378.10195	0.91901
1376.04815	0.91788
1373.99435	0.91757
1371.94054	0.91800
1369.88674	0.91837
1367.83294	0.91844
1365.77913	0.91874
1363.72533	0.91972
1361.67153	0.92097
1359.61772	0.92202
1357.56392	0.92296
1355.51012	0.92352
1353.45631	0.92367
1351.40251	0.92384
1349.34871	0.92412
1347.29491	0.92447
1345.24110	0.92492
1343.18730	0.92557
1341.13350	0.92654
1339.07969	0.92752
1337.02589	0.92796
1334.97209	0.92774
1332.91828	0.92688
1330.86448	0.92574
1328.81068	0.92487
1326.75687	0.92429
1324.70307	0.92411
1322.64927	0.92427
1320.59546	0.92440
1318.54166	0.92460
1316.48786	0.92506
1314.43405	0.92550
1312.38025	0.92584
1310.32645	0.92649
1308.27264	0.92740
1306.21884	0.92816
1304.16504	0.92869
1302.11123	0.92904
1300.05743	0.92928
1298.00363	0.92965
1295.94982	0.93013
1293.89602	0.93035
1291.84222	0.93031
1289.78842	0.93033
1287.73461	0.93041
1285.68081	0.93023
1283.62701	0.92969
1281.57320	0.92876
1279.51940	0.92741
1277.46560	0.92586
1275.41179	0.92486
1273.35799	0.92453
1271.30419	0.92440
1269.25038	0.92463
1267.19658	0.92546
1265.14278	0.92664
1263.08897	0.92779
1261.03517	0.92866
1258.98137	0.92919
1256.92756	0.92938
1254.87376	0.92946
1252.81996	0.92951
1250.76615	0.92932
1248.71235	0.92900
1246.65855	0.92894
1244.60474	0.92912
1242.55094	0.92921
1240.49714	0.92923
1238.44334	0.92925
1236.38953	0.92905
1234.33573	0.92865
1232.28193	0.92814
1230.22812	0.92757
1228.17432	0.92711
1226.12052	0.92692
1224.06671	0.92688
1222.01291	0.92655
1219.95911	0.92582
1217.90530	0.92496
1215.85150	0.92387
1213.79770	0.92238
1211.74389	0.92067
1209.69009	0.91897
1207.63629	0.91718
1205.58248	0.91506
1203.52868	0.91275
1201.47488	0.91070
1199.42107	0.90894
1197.36727	0.90701
1195.31347	0.90498
1193.25966	0.90292
1191.20586	0.90057
1189.15206	0.89800
1187.09825	0.89531
1185.04445	0.89205
1182.99065	0.88819
1180.93685	0.88504
1178.88304	0.88361
1176.82924	0.88319
1174.77544	0.88260
1172.72163	0.88140
1170.66783	0.87971
1168.61403	0.87755
1166.56022	0.87529
1164.50642	0.87343
1162.45262	0.87182
1160.39881	0.87013
1158.34501	0.86778
1156.29121	0.86486
1154.23740	0.86241
1152.18360	0.86128
1150.12980	0.86121
1148.07599	0.86100
1146.02219	0.86026
1143.96839	0.85933
1141.91458	0.85837
1139.86078	0.85761
1137.80698	0.85656
1135.75317	0.85433
1133.69937	0.85123
1131.64557	0.84802
1129.59176	0.84474
1127.53796	0.84135
1125.48416	0.83764
1123.43036	0.83292
1121.37655	0.82675
1119.32275	0.81976
1117.26895	0.81325
1115.21514	0.80775
1113.16134	0.80319
1111.10754	0.79907
1109.05373	0.79482
1106.99993	0.79078
1104.94613	0.78758
1102.89232	0.78466
1100.83852	0.78115
1098.78472	0.77756
1096.73091	0.77442
1094.67711	0.77135
1092.62331	0.76819
1090.56950	0.76543
1088.51570	0.76329
1086.46190	0.76130
1084.40809	0.75888
1082.35429	0.75617
1080.30049	0.75361
1078.24668	0.75112
1076.19288	0.74827
1074.13908	0.74486
1072.08528	0.74087
1070.03147	0.73643
1067.97767	0.73182
1065.92387	0.72758
1063.87006	0.72391
1061.81626	0.72059
1059.76246	0.71715
1057.70865	0.71313
1055.65485	0.70841
1053.60105	0.70303
1051.54724	0.69674
1049.49344	0.68933
1047.43964	0.68141
1045.38583	0.67364
1043.33203	0.66564
1041.27823	0.65709
1039.22442	0.64811
1037.17062	0.63885
1035.11682	0.62919
1033.06301	0.61868
1031.00921	0.60775
1028.95541	0.59827
1026.90160	0.59222
1024.84780	0.58985
1022.79400	0.58960
1020.74019	0.58983
1018.68639	0.58959
1016.63259	0.58870
1014.57879	0.58759
1012.52498	0.58651
1010.47118	0.58537
1008.41738	0.58415
1006.36357	0.58310
1004.30977	0.58274
1002.25597	0.58372
1000.20216	0.58662
998.14836	0.59100
996.09456	0.59555
994.04075	0.59977
991.98695	0.60443
989.93315	0.61011
987.87934	0.61627
985.82554	0.62255
983.77174	0.62931
981.71793	0.63702
979.66413	0.64586
977.61033	0.65565
975.55652	0.66598
973.50272	0.67646
971.44892	0.68656
969.39511	0.69572
967.34131	0.70414
965.28751	0.71246
963.23371	0.72075
961.17990	0.72904
959.12610	0.73744
957.07230	0.74552
955.01849	0.75267
952.96469	0.75860
950.91089	0.76356
948.85708	0.76771
946.80328	0.77087
944.74948	0.77304
942.69567	0.77507
940.64187	0.77797
938.58807	0.78143
936.53426	0.78449
934.48046	0.78705
932.42666	0.78974
930.37285	0.79269
928.31905	0.79526
926.26525	0.79688
924.21144	0.79787
922.15764	0.79872
920.10384	0.79881
918.05003	0.79735
915.99623	0.79486
913.94243	0.79219
911.88862	0.78943
909.83482	0.78696
907.78102	0.78650
905.72722	0.78962
903.67341	0.79623
901.61961	0.80528
899.56581	0.81542
897.51200	0.82515
895.45820	0.83311
893.40440	0.83879
891.35059	0.84315
889.29679	0.84744
887.24299	0.85167
885.18918	0.85501
883.13538	0.85684
881.08158	0.85767
879.02777	0.85839
876.97397	0.85946
874.92017	0.86143
872.86636	0.86432
870.81256	0.86728
868.75876	0.86983
866.70495	0.87189
864.65115	0.87349
862.59735	0.87526
860.54354	0.87761
858.48974	0.87998
856.43594	0.88211
854.38213	0.88421
852.32833	0.88597
850.27453	0.88696
848.22073	0.88673
846.16692	0.88520
844.11312	0.88324
842.05932	0.88177
840.00551	0.88113
837.95171	0.88102
835.89791	0.88145
833.84410	0.88244
831.79030	0.88256
829.73650	0.88199
827.68269	0.88241
825.62889	0.88345
823.57509	0.88444
821.52128	0.88586
819.46748	0.88739
817.41368	0.88816
815.35987	0.88822
813.30607	0.88818
811.25227	0.88768
809.19846	0.88576
807.14466	0.88173
805.09086	0.87606
803.03705	0.87065
800.98325	0.86665
798.92945	0.86428
796.87565	0.86417
794.82184	0.86556
792.76804	0.86680
790.71424	0.86726
788.66043	0.86665
786.60663	0.86468
784.55283	0.86141
782.49902	0.85729
780.44522	0.85278
778.39142	0.84806
776.33761	0.84299
774.28381	0.83645
772.23001	0.82734
770.17620	0.81638
768.12240	0.80406
766.06860	0.79045
764.01479	0.77643
761.96099	0.76227
759.90719	0.74852
757.85338	0.73738
755.79958	0.73072
753.74578	0.72866
751.69197	0.72958
749.63817	0.73177
747.58437	0.73588
745.53056	0.74470
743.47676	0.75956
741.42296	0.77809
739.36916	0.79627
737.31535	0.81215
735.26155	0.82662
733.20775	0.83956
731.15394	0.84958
729.10014	0.85676
727.04634	0.86153
724.99253	0.86484
722.93873	0.86801
720.88493	0.87110
718.83112	0.87365
716.77732	0.87474
714.72352	0.87343
712.66971	0.86869
710.61591	0.85705
708.56211	0.83249
706.50830	0.79054
704.45450	0.73018
702.40070	0.65487
700.34689	0.57193
698.29309	0.49344
696.23929	0.44645
694.18548	0.46144
692.13168	0.53166
690.07788	0.61507
688.02408	0.67975
685.97027	0.72063
683.91647	0.74560
681.86267	0.76274
679.80886	0.77521
677.75506	0.78392
675.70126	0.79031
673.64745	0.79557
671.59365	0.79978
669.53985	0.80337
667.48604	0.80815
665.43224	0.81256
663.37844	0.81515
661.32463	0.81635
659.27083	0.81665
657.21703	0.81682
655.16322	0.81716
653.10942	0.81798
651.05562	0.81866
649.00181	0.81807
646.94801	0.81778
644.89421	0.81903
642.84040	0.82061
640.78660	0.82253
638.73280	0.82513
636.67899	0.82680
634.62519	0.82633
632.57139	0.82486
630.51759	0.82358
628.46378	0.82321
626.40998	0.82359
624.35618	0.82221
622.30237	0.81866
620.24857	0.81541
618.19477	0.81363
616.14096	0.81351
614.08716	0.81412
612.03336	0.81341
609.97955	0.81183
607.92575	0.81075
605.87195	0.80919
603.81814	0.80641
601.76434	0.80334
599.71054	0.80099
597.65673	0.79861
595.60293	0.79544
593.54913	0.79255
591.49532	0.78997
589.44152	0.78644
587.38772	0.78298
585.33391	0.78095
583.28011	0.77868
581.22631	0.77488
579.17250	0.77062
577.11870	0.76676
575.06490	0.76293
573.01110	0.75807
570.95729	0.75112
568.90349	0.74222
566.84969	0.73401
564.79588	0.72755
562.74208	0.72071
560.68828	0.71255
558.63447	0.70330
556.58067	0.69359
554.52687	0.68456
552.47306	0.67659
550.41926	0.66930
548.36546	0.66125
546.31165	0.65080
544.25785	0.63750
542.20405	0.62249
540.15024	0.60813
538.09644	0.59667
536.04264	0.58948
533.98883	0.58717
531.93503	0.58915
529.88123	0.59319
527.82742	0.59706
525.77362	0.60105
523.71982	0.60595
521.66602	0.61073
519.61221	0.61604
517.55841	0.62207
515.50461	0.62671
513.45080	0.63181
511.39700	0.63999
509.34320	0.64955
507.28939	0.65737
505.23559	0.66277
503.18179	0.66622
501.12798	0.66697
499.07418	0.66705
497.02038	0.66871
494.96657	0.66952
492.91277	0.66715
490.85897	0.66194
488.80516	0.65498
486.75136	0.64606
484.69756	0.63375
482.64375	0.61857
480.58995	0.60186
478.53615	0.58475
476.48234	0.56881
474.42854	0.55501
472.37474	0.54276
470.32093	0.53082
468.26713	0.51995
466.21333	0.51378
464.15953	0.51598
462.10572	0.52421
460.05192	0.53312
457.99812	0.54326
455.94431	0.55359
453.89051	0.56027
451.83671	0.56677
449.78290	0.57506
447.72910	0.58245
445.67530	0.58633
443.62149	0.58817
441.56769	0.58933
439.51389	0.58915
437.46008	0.58886
435.40628	0.58551
433.35248	0.57938
431.29867	0.57859
429.24487	0.58223
427.19107	0.58095
425.13726	0.57577
423.08346	0.57361
421.02966	0.57401
418.97585	0.57889
416.92205	0.58846
414.86825	0.59731
412.81445	0.60671
410.76064	0.61677
408.70684	0.62539
406.65304	0.63292
404.59923	0.63934
402.54543	0.64194
400.49163	0.64237
398.43782	0.63987
