3996.71440	0.98130
3994.66059	0.98106
3992.60678	0.98079
3990.55297	0.98089
3988.49916	0.98117
3986.44535	0.98132
3984.39154	0.98144
3982.33773	0.98161
3980.28391	0.98171
3978.23010	0.98164
3976.17629	0.98174
3974.12248	0.98204
3972.06867	0.98223
3970.01486	0.98235
3967.96105	0.98237
3965.90724	0.98234
3963.85343	0.98227
3961.79962	0.98200
3959.74581	0.98182
3957.69200	0.98188
3955.63819	0.98193
3953.58438	0.98207
3951.53057	0.98218
3949.47676	0.98196
3947.42295	0.98186
3945.36914	0.98211
3943.31533	0.98256
3941.26152	0.98275
3939.20771	0.98221
3937.15390	0.98168
3935.10009	0.98198
3933.04628	0.98275
3930.99247	0.98308
3928.93866	0.98277
3926.88485	0.98254
3924.83104	0.98270
3922.77723	0.98266
3920.72342	0.98244
3918.66961	0.98271
3916.61580	0.98304
3914.56199	0.98269
3912.50818	0.98215
3910.45437	0.98209
3908.40056	0.98241
3906.34675	0.98288
3904.29294	0.98374
3902.23913	0.98442
3900.18532	0.98422
3898.13151	0.98358
3896.07770	0.98292
3894.02389	0.98272
3891.97008	0.98309
3889.91627	0.98344
3887.86246	0.98375
3885.80865	0.98423
3883.75484	0.98420
3881.70103	0.98379
3879.64722	0.98318
3877.59341	0.98259
3875.53960	0.98286
3873.48579	0.98350
3871.43198	0.98389
3869.37817	0.98405
3867.32436	0.98394
3865.27055	0.98433
3863.21674	0.98464
3861.16293	0.98381
3859.10912	0.98290
3857.05531	0.98316
3855.00150	0.98467
3852.94769	0.98595
3850.89388	0.98535
3848.84007	0.98419
3846.78626	0.98335
3844.73245	0.98337
3842.67864	0.98429
3840.62483	0.98536
3838.57102	0.98598
3836.51721	0.98568
3834.46340	0.98469
3832.40959	0.98390
3830.35578	0.98353
3828.30197	0.98350
3826.24816	0.98396
3824.19435	0.98452
3822.14054	0.98484
3820.08673	0.98462
3818.03292	0.98427
3815.97911	0.98451
3813.92530	0.98437
3811.87149	0.98367
3809.81768	0.98345
3807.76387	0.98388
3805.71006	0.98415
3803.65625	0.98408
3801.60244	0.98417
3799.54863	0.98448
3797.49482	0.98482
3795.44101	0.98464
3793.38720	0.98406
3791.33339	0.98392
3789.27958	0.98396
3787.22577	0.98398
3785.17196	0.98414
3783.11815	0.98414
3781.06434	0.98430
3779.01053	0.98466
3776.95672	0.98447
3774.90291	0.98410
3772.84910	0.98414
3770.79529	0.98452
3768.74148	0.98468
3766.68767	0.98462
3764.63386	0.98480
3762.58005	0.98502
3760.52624	0.98545
3758.47243	0.98591
3756.41862	0.98563
3754.36481	0.98546
3752.31100	0.98616
3750.25719	0.98704
3748.20338	0.98730
3746.14957	0.98748
3744.09576	0.98770
3742.04195	0.98733
3739.98814	0.98711
3737.93433	0.98783
3735.88052	0.98881
3733.82671	0.98836
3731.77290	0.98699
3729.71909	0.98598
3727.66528	0.98556
3725.61147	0.98550
3723.55766	0.98533
3721.50385	0.98521
3719.45004	0.98528
3717.39623	0.98539
3715.34242	0.98566
3713.28861	0.98592
3711.23480	0.98597
3709.18099	0.98562
3707.12718	0.98459
3705.07337	0.98355
3703.01956	0.98357
3700.96575	0.98416
3698.91194	0.98419
3696.85813	0.98410
3694.80432	0.98424
3692.75051	0.98460
3690.69670	0.98534
3688.64289	0.98562
3686.58907	0.98462
3684.53526	0.98355
3682.48145	0.98324
3680.42764	0.98341
3678.37383	0.98371
3676.32002	0.98425
3674.26621	0.98437
3672.21240	0.98414
3670.15859	0.98440
3668.10478	0.98412
3666.05097	0.98304
3663.99716	0.98209
3661.94335	0.98159
3659.88954	0.98151
3657.83573	0.98149
3655.78192	0.98119
3653.72811	0.98119
3651.67430	0.98221
3649.62049	0.98357
3647.56668	0.98264
3645.51287	0.98041
3643.45906	0.97924
3641.40525	0.97919
3639.35144	0.97941
3637.29763	0.97913
3635.24382	0.97858
3633.19001	0.97844
3631.13620	0.97893
3629.08239	0.97935
3627.02858	0.97820
3624.97477	0.97652
3622.92096	0.97583
3620.86715	0.97598
3618.81334	0.97607
3616.75953	0.97571
3614.70572	0.97527
3612.65191	0.97458
3610.59810	0.97389
3608.54429	0.97369
3606.49048	0.97323
3604.43667	0.97234
3602.38286	0.97185
3600.32905	0.97177
3598.27524	0.97148
3596.22143	0.97131
3594.16762	0.97154
3592.11381	0.97150
3590.06000	0.97141
3588.00619	0.97156
3585.95238	0.97077
3583.89857	0.96924
3581.84476	0.96819
3579.79095	0.96764
3577.73714	0.96713
3575.68333	0.96647
3573.62952	0.96593
3571.57571	0.96577
3569.52190	0.96603
3567.46809	0.96646
3565.41428	0.96583
3563.36047	0.96419
3561.30666	0.96274
3559.25285	0.96179
3557.19904	0.96112
3555.14523	0.96088
3553.09142	0.96077
3551.03761	0.96009
3548.98380	0.95940
3546.92999	0.95905
3544.87618	0.95819
3542.82237	0.95666
3540.76856	0.95529
3538.71475	0.95441
3536.66094	0.95376
3534.60713	0.95305
3532.55332	0.95214
3530.49951	0.95134
3528.44570	0.95098
3526.39189	0.95090
3524.33808	0.95075
3522.28427	0.95011
3520.23046	0.94899
3518.17665	0.94802
3516.12284	0.94732
3514.06903	0.94656
3512.01522	0.94576
3509.96141	0.94496
3507.90760	0.94410
3505.85379	0.94348
3503.79998	0.94301
3501.74617	0.94229
3499.69236	0.94132
3497.63855	0.94035
3495.58474	0.93949
3493.53093	0.93863
3491.47712	0.93791
3489.42331	0.93744
3487.36950	0.93668
3485.31569	0.93559
3483.26188	0.93480
3481.20807	0.93436
3479.15426	0.93392
3477.10045	0.93329
3475.04664	0.93266
3472.99283	0.93214
3470.93902	0.93153
3468.88521	0.93073
3466.83140	0.92990
3464.77759	0.92926
3462.72378	0.92866
3460.66997	0.92781
3458.61616	0.92706
3456.56235	0.92671
3454.50854	0.92638
3452.45473	0.92593
3450.40092	0.92538
3448.34711	0.92470
3446.29330	0.92409
3444.23949	0.92356
3442.18568	0.92278
3440.13187	0.92175
3438.07806	0.92069
3436.02425	0.91976
3433.97044	0.91938
3431.91663	0.91945
3429.86282	0.91933
3427.80901	0.91885
3425.75520	0.91818
3423.70139	0.91752
3421.64758	0.91696
3419.59377	0.91661
3417.53996	0.91629
3415.48615	0.91585
3413.43234	0.91538
3411.37853	0.91487
3409.32472	0.91432
3407.27091	0.91391
3405.21710	0.91348
3403.16329	0.91283
3401.10948	0.91233
3399.05567	0.91212
3397.00186	0.91182
3394.94805	0.91139
3392.89424	0.91097
3390.84042	0.91054
3388.78661	0.91015
3386.73280	0.90986
3384.67899	0.90964
3382.62518	0.90930
3380.57137	0.90886
3378.51756	0.90853
3376.46375	0.90827
3374.40994	0.90795
3372.35613	0.90752
3370.30232	0.90701
3368.24851	0.90652
3366.19470	0.90627
3364.14089	0.90624
3362.08708	0.90608
3360.03327	0.90580
3357.97946	0.90555
3355.92565	0.90536
3353.87184	0.90527
3351.81803	0.90501
3349.76422	0.90473
3347.71041	0.90474
3345.65660	0.90466
3343.60279	0.90429
3341.54898	0.90415
3339.49517	0.90427
3337.44136	0.90412
3335.38755	0.90390
3333.33374	0.90387
3331.27993	0.90381
3329.22612	0.90365
3327.17231	0.90359
3325.11850	0.90369
3323.06469	0.90359
3321.01088	0.90323
3318.95707	0.90295
3316.90326	0.90270
3314.84945	0.90237
3312.79564	0.90226
3310.74183	0.90252
3308.68802	0.90292
3306.63421	0.90308
3304.58040	0.90300
3302.52659	0.90305
3300.47278	0.90307
3298.41897	0.90279
3296.36516	0.90236
3294.31135	0.90209
3292.25754	0.90232
3290.20373	0.90262
3288.14992	0.90241
3286.09611	0.90215
3284.04230	0.90233
3281.98849	0.90260
3279.93468	0.90275
3277.88087	0.90318
3275.82706	0.90377
3273.77325	0.90380
3271.71944	0.90334
3269.66563	0.90312
3267.61182	0.90334
3265.55801	0.90366
3263.50420	0.90374
3261.45039	0.90350
3259.39658	0.90346
3257.34277	0.90393
3255.28896	0.90452
3253.23515	0.90479
3251.18134	0.90473
3249.12753	0.90468
3247.07372	0.90464
3245.01991	0.90466
3242.96610	0.90488
3240.91229	0.90505
3238.85848	0.90509
3236.80467	0.90524
3234.75086	0.90560
3232.69705	0.90586
3230.64324	0.90598
3228.58943	0.90629
3226.53562	0.90692
3224.48181	0.90758
3222.42800	0.90792
3220.37419	0.90798
3218.32038	0.90788
3216.26657	0.90802
3214.21276	0.90865
3212.15895	0.90914
3210.10514	0.90932
3208.05133	0.90961
3205.99752	0.91007
3203.94371	0.91040
3201.88990	0.91052
3199.83609	0.91080
3197.78228	0.91129
3195.72847	0.91159
3193.67466	0.91192
3191.62085	0.91243
3189.56704	0.91278
3187.51323	0.91306
3185.45942	0.91358
3183.40561	0.91423
3181.35180	0.91471
3179.29799	0.91501
3177.24418	0.91536
3175.19037	0.91568
3173.13656	0.91598
3171.08275	0.91649
3169.02894	0.91712
3166.97513	0.91766
3164.92132	0.91813
3162.86751	0.91862
3160.81370	0.91913
3158.75989	0.91946
3156.70608	0.91963
3154.65227	0.91997
3152.59846	0.92056
3150.54465	0.92122
3148.49084	0.92190
3146.43703	0.92249
3144.38322	0.92280
3142.32941	0.92311
3140.27560	0.92350
3138.22179	0.92382
3136.16798	0.92427
3134.11417	0.92486
3132.06036	0.92530
3130.00655	0.92554
3127.95274	0.92599
3125.89893	0.92669
3123.84512	0.92718
3121.79131	0.92754
3119.73750	0.92805
3117.68369	0.92858
3115.62988	0.92898
3113.57607	0.92921
3111.52226	0.92951
3109.46845	0.93008
3107.41464	0.93059
3105.36083	0.93086
3103.30702	0.93139
3101.25321	0.93194
3099.19940	0.93200
3097.14559	0.93200
3095.09177	0.93219
3093.03796	0.93239
3090.98415	0.93256
3088.93034	0.93271
3086.87653	0.93298
3084.82272	0.93328
3082.76891	0.93341
3080.71510	0.93370
3078.66129	0.93419
3076.60748	0.93436
3074.55367	0.93449
3072.49986	0.93510
3070.44605	0.93584
3068.39224	0.93634
3066.33843	0.93678
3064.28462	0.93732
3062.23081	0.93791
3060.17700	0.93831
3058.12319	0.93851
3056.06938	0.93883
3054.01557	0.93930
3051.96176	0.93972
3049.90795	0.94004
3047.85414	0.94007
3045.80033	0.93991
3043.74652	0.94009
3041.69271	0.94064
3039.63890	0.94109
3037.58509	0.94132
3035.53128	0.94148
3033.47747	0.94178
3031.42366	0.94220
3029.36985	0.94250
3027.31604	0.94253
3025.26223	0.94238
3023.20842	0.94236
3021.15461	0.94244
3019.10080	0.94248
3017.04699	0.94259
3014.99318	0.94280
3012.93937	0.94295
3010.88556	0.94299
3008.83175	0.94303
3006.77794	0.94289
3004.72413	0.94256
3002.67032	0.94236
3000.61651	0.94220
2998.56270	0.94192
2996.50889	0.94164
2994.45508	0.94138
2992.40127	0.94106
2990.34746	0.94051
2988.29365	0.93970
2986.23984	0.93869
2984.18603	0.93715
2982.13222	0.93522
2980.07841	0.93337
2978.02460	0.93139
2975.97079	0.92904
2973.91698	0.92646
2971.86317	0.92359
2969.80936	0.92037
2967.75555	0.91695
2965.70174	0.91320
2963.64793	0.90896
2961.59412	0.90448
2959.54031	0.90002
2957.48650	0.89574
2955.43269	0.89188
2953.37888	0.88836
2951.32507	0.88477
2949.27126	0.88044
2947.21745	0.87454
2945.16364	0.86652
2943.10983	0.85575
2941.05602	0.84190
2939.00221	0.82528
2936.94840	0.80620
2934.89459	0.78484
2932.84078	0.76127
2930.78697	0.73512
2928.73316	0.70563
2926.67935	0.67168
2924.62554	0.63222
2922.57173	0.58737
2920.51792	0.53969
2918.46411	0.49582
2916.41030	0.46619
2914.35649	0.45952
2912.30268	0.47604
2910.24887	0.50755
2908.19506	0.54378
2906.14125	0.57757
2904.08744	0.60586
2902.03363	0.62859
2899.97982	0.64731
2897.92601	0.66377
2895.87220	0.67913
2893.81839	0.69406
2891.76458	0.70903
2889.71077	0.72430
2887.65696	0.73992
2885.60315	0.75555
2883.54934	0.77080
2881.49553	0.78560
2879.44172	0.79967
2877.38791	0.81220
2875.33410	0.82220
2873.28029	0.82913
2871.22648	0.83311
2869.17267	0.83461
2867.11886	0.83329
2865.06505	0.82782
2863.01124	0.81680
2860.95743	0.79886
2858.90362	0.77242
2856.84981	0.73493
2854.79600	0.68287
2852.74219	0.61565
2850.68838	0.54462
2848.63457	0.49685
2846.58076	0.49665
2844.52695	0.54208
2842.47314	0.60969
2840.41933	0.67670
2838.36552	0.73197
2836.31171	0.77405
2834.25790	0.80550
2832.20409	0.82911
2830.15028	0.84694
2828.09647	0.86067
2826.04266	0.87168
2823.98885	0.88081
2821.93504	0.88838
2819.88123	0.89458
2817.82742	0.89974
2815.77361	0.90403
2813.71980	0.90755
2811.66599	0.91059
2809.61218	0.91345
2807.55837	0.91606
2805.50456	0.91825
2803.45075	0.92025
2801.39693	0.92220
2799.34312	0.92397
2797.28931	0.92562
2795.23550	0.92720
2793.18169	0.92874
2791.12788	0.93032
2789.07407	0.93188
2787.02026	0.93347
2784.96645	0.93483
2782.91264	0.93561
2780.85883	0.93639
2778.80502	0.93751
2776.75121	0.93856
2774.69740	0.93941
2772.64359	0.94014
2770.58978	0.94076
2768.53597	0.94132
2766.48216	0.94184
2764.42835	0.94232
2762.37454	0.94273
2760.32073	0.94312
2758.26692	0.94353
2756.21311	0.94383
2754.15930	0.94402
2752.10549	0.94425
2750.05168	0.94464
2747.99787	0.94509
2745.94406	0.94535
2743.89025	0.94546
2741.83644	0.94554
2739.78263	0.94565
2737.72882	0.94583
2735.67501	0.94599
2733.62120	0.94620
2731.56739	0.94655
2729.51358	0.94689
2727.45977	0.94711
2725.40596	0.94734
2723.35215	0.94765
2721.29834	0.94799
2719.24453	0.94838
2717.19072	0.94888
2715.13691	0.94941
2713.08310	0.94967
2711.02929	0.94950
2708.97548	0.94936
2706.92167	0.94948
2704.86786	0.94961
2702.81405	0.94980
2700.76024	0.95012
2698.70643	0.95059
2696.65262	0.95108
2694.59881	0.95126
2692.54500	0.95126
2690.49119	0.95127
2688.43738	0.95129
2686.38357	0.95127
2684.32976	0.95119
2682.27595	0.95113
2680.22214	0.95114
2678.16833	0.95121
2676.11452	0.95137
2674.06071	0.95145
2672.00690	0.95129
2669.95309	0.95111
2667.89928	0.95099
2665.84547	0.95087
2663.79166	0.95081
2661.73785	0.95073
2659.68404	0.95069
2657.63023	0.95070
2655.57642	0.95071
2653.52261	0.95083
2651.46880	0.95108
2649.41499	0.95141
2647.36118	0.95171
2645.30737	0.95183
2643.25356	0.95190
2641.19975	0.95206
2639.14594	0.95216
2637.09213	0.95201
2635.03832	0.95180
2632.98451	0.95198
2630.93070	0.95254
2628.87689	0.95300
2626.82308	0.95334
2624.76927	0.95393
2622.71546	0.95474
2620.66165	0.95536
2618.60784	0.95565
2616.55403	0.95596
2614.50022	0.95636
2612.44641	0.95654
2610.39260	0.95658
2608.33879	0.95663
2606.28498	0.95669
2604.23117	0.95702
2602.17736	0.95760
2600.12355	0.95821
2598.06974	0.95888
2596.01593	0.95932
2593.96212	0.95941
2591.90831	0.95935
2589.85450	0.95923
2587.80069	0.95931
2585.74688	0.95952
2583.69307	0.95962
2581.63926	0.95984
2579.58545	0.96018
2577.53164	0.96052
2575.47783	0.96089
2573.42402	0.96115
2571.37021	0.96133
2569.31640	0.96148
2567.26259	0.96157
2565.20878	0.96162
2563.15497	0.96139
2561.10116	0.96113
2559.04735	0.96135
2556.99354	0.96196
2554.93973	0.96246
2552.88592	0.96270
2550.83211	0.96288
2548.77830	0.96313
2546.72449	0.96331
2544.67068	0.96323
2542.61687	0.96328
2540.56306	0.96365
2538.50925	0.96393
2536.45544	0.96372
2534.40163	0.96326
2532.34782	0.96325
2530.29401	0.96364
2528.24020	0.96398
2526.18639	0.96425
2524.13258	0.96488
2522.07877	0.96581
2520.02496	0.96606
2517.97115	0.96541
2515.91734	0.96478
2513.86353	0.96458
2511.80972	0.96476
2509.75591	0.96506
2507.70210	0.96501
2505.64828	0.96503
2503.59447	0.96536
2501.54066	0.96553
2499.48685	0.96566
2497.43304	0.96582
2495.37923	0.96587
2493.32542	0.96592
2491.27161	0.96578
2489.21780	0.96559
2487.16399	0.96588
2485.11018	0.96617
2483.05637	0.96589
2481.00256	0.96562
2478.94875	0.96584
2476.89494	0.96627
2474.84113	0.96648
2472.78732	0.96662
2470.73351	0.96677
2468.67970	0.96655
2466.62589	0.96624
2464.57208	0.96600
2462.51827	0.96567
2460.46446	0.96577
2458.41065	0.96642
2456.35684	0.96707
2454.30303	0.96734
2452.24922	0.96765
2450.19541	0.96824
2448.14160	0.96845
2446.08779	0.96816
2444.03398	0.96774
2441.98017	0.96744
2439.92636	0.96741
2437.87255	0.96749
2435.81874	0.96753
2433.76493	0.96767
2431.71112	0.96803
2429.65731	0.96861
2427.60350	0.96901
2425.54969	0.96896
2423.49588	0.96885
2421.44207	0.96876
2419.38826	0.96852
2417.33445	0.96819
2415.28064	0.96800
2413.22683	0.96820
2411.17302	0.96862
2409.11921	0.96891
2407.06540	0.96922
2405.01159	0.96952
2402.95778	0.96961
2400.90397	0.96959
2398.85016	0.96939
2396.79635	0.96916
2394.74254	0.96913
2392.68873	0.96920
2390.63492	0.96901
2388.58111	0.96870
2386.52730	0.96883
2384.47349	0.96934
2382.41968	0.96982
2380.36587	0.97010
2378.31206	0.97004
2376.25825	0.96995
2374.20444	0.97038
2372.15063	0.97038
2370.09682	0.96934
2368.04301	0.96907
2365.98920	0.96992
2363.93539	0.97013
2361.88158	0.96938
2359.82777	0.96887
2357.77396	0.96940
2355.72015	0.97024
2353.66634	0.97024
2351.61253	0.96944
2349.55872	0.96868
2347.50491	0.96813
2345.45110	0.96756
2343.39729	0.96710
2341.34348	0.96668
2339.28967	0.96609
2337.23586	0.96603
2335.18205	0.96671
2333.12824	0.96736
2331.07443	0.96754
2329.02062	0.96743
2326.96681	0.96727
2324.91300	0.96725
2322.85919	0.96779
2320.80538	0.96843
2318.75157	0.96849
2316.69776	0.96841
2314.64395	0.96857
2312.59014	0.96870
2310.53633	0.96852
2308.48252	0.96841
2306.42871	0.96863
2304.37490	0.96914
2302.32109	0.96972
2300.26728	0.96983
2298.21347	0.96959
2296.15966	0.96936
2294.10585	0.96907
2292.05204	0.96882
2289.99823	0.96857
2287.94442	0.96850
2285.89061	0.96885
2283.83680	0.96955
2281.78299	0.97043
2279.72918	0.97108
2277.67537	0.97129
2275.62156	0.97117
2273.56775	0.97094
2271.51394	0.97092
2269.46013	0.97108
2267.40632	0.97102
2265.35251	0.97140
2263.29870	0.97219
2261.24489	0.97205
2259.19108	0.97171
2257.13727	0.97192
2255.08346	0.97214
2253.02965	0.97253
2250.97584	0.97280
2248.92203	0.97272
2246.86822	0.97277
2244.81441	0.97235
2242.76060	0.97130
2240.70679	0.97061
2238.65298	0.97052
2236.59917	0.97076
2234.54536	0.97099
2232.49155	0.97136
2230.43774	0.97229
2228.38393	0.97315
2226.33012	0.97314
2224.27631	0.97222
2222.22250	0.97111
2220.16869	0.97082
2218.11488	0.97123
2216.06107	0.97219
2214.00726	0.97368
2211.95344	0.97437
2209.89963	0.97415
2207.84582	0.97388
2205.79201	0.97362
2203.73820	0.97378
2201.68439	0.97419
2199.63058	0.97433
2197.57677	0.97419
2195.52296	0.97278
2193.46915	0.97098
2191.41534	0.97142
2189.36153	0.97266
2187.30772	0.97205
2185.25391	0.97175
2183.20010	0.97381
2181.14629	0.97578
2179.09248	0.97618
2177.03867	0.97673
2174.98486	0.97750
2172.93105	0.97631
2170.87724	0.97371
2168.82343	0.97168
2166.76962	0.97149
2164.71581	0.97330
2162.66200	0.97569
2160.60819	0.97941
2158.55438	0.98257
2156.50057	0.98150
2154.44676	0.97932
2152.39295	0.97827
2150.33914	0.97695
2148.28533	0.97572
2146.23152	0.97589
2144.17771	0.97629
2142.12390	0.97562
2140.07009	0.97482
2138.01628	0.97524
2135.96247	0.97615
2133.90866	0.97647
2131.85485	0.97653
2129.80104	0.97638
2127.74723	0.97581
2125.69342	0.97504
2123.63961	0.97430
2121.58580	0.97377
2119.53199	0.97369
2117.47818	0.97371
2115.42437	0.97362
2113.37056	0.97381
2111.31675	0.97407
2109.26294	0.97426
2107.20913	0.97427
2105.15532	0.97358
2103.10151	0.97287
2101.04770	0.97315
2098.99389	0.97387
2096.94008	0.97380
2094.88627	0.97342
2092.83246	0.97368
2090.77865	0.97388
2088.72484	0.97367
2086.67103	0.97338
2084.61722	0.97314
2082.56341	0.97292
2080.50960	0.97286
2078.45579	0.97290
2076.40198	0.97227
2074.34817	0.97132
2072.29436	0.97141
2070.24055	0.97252
2068.18674	0.97383
2066.13293	0.97476
2064.07912	0.97443
2062.02531	0.97341
2059.97150	0.97357
2057.91769	0.97405
2055.86388	0.97344
2053.81007	0.97251
2051.75626	0.97187
2049.70245	0.97197
2047.64864	0.97320
2045.59483	0.97476
2043.54102	0.97597
2041.48721	0.97631
2039.43340	0.97639
2037.37959	0.97698
2035.32578	0.97664
2033.27197	0.97557
2031.21816	0.97528
2029.16435	0.97524
2027.11054	0.97586
2025.05673	0.97684
2023.00292	0.97632
2020.94911	0.97569
2018.89530	0.97650
2016.84149	0.97763
2014.78768	0.97912
2012.73387	0.98075
2010.68006	0.98127
2008.62625	0.98116
2006.57244	0.98066
2004.51863	0.97892
2002.46482	0.97687
2000.41101	0.97584
1998.35720	0.97573
1996.30339	0.97605
1994.24958	0.97608
1992.19577	0.97621
1990.14196	0.97732
1988.08815	0.97775
1986.03434	0.97593
1983.98053	0.97445
1981.92672	0.97491
1979.87291	0.97493
1977.81910	0.97469
1975.76529	0.97557
1973.71148	0.97658
1971.65767	0.97678
1969.60386	0.97670
1967.55005	0.97765
1965.49624	0.97822
1963.44243	0.97789
1961.38862	0.97828
1959.33481	0.97868
1957.28100	0.97796
1955.22719	0.97641
1953.17338	0.97534
1951.11957	0.97506
1949.06576	0.97457
1947.01195	0.97440
1944.95814	0.97500
1942.90433	0.97553
1940.85052	0.97605
1938.79671	0.97654
1936.74290	0.97667
1934.68909	0.97704
1932.63528	0.97727
1930.58147	0.97649
1928.52766	0.97550
1926.47385	0.97530
1924.42004	0.97549
1922.36623	0.97553
1920.31242	0.97562
1918.25861	0.97571
1916.20479	0.97587
1914.15098	0.97582
1912.09717	0.97539
1910.04336	0.97468
1907.98955	0.97358
1905.93574	0.97262
1903.88193	0.97207
1901.82812	0.97224
1899.77431	0.97290
1897.72050	0.97322
1895.66669	0.97345
1893.61288	0.97391
1891.55907	0.97455
1889.50526	0.97515
1887.45145	0.97484
1885.39764	0.97383
1883.34383	0.97328
1881.29002	0.97363
1879.23621	0.97435
1877.18240	0.97436
1875.12859	0.97377
1873.07478	0.97363
1871.02097	0.97427
1868.96716	0.97509
1866.91335	0.97501
1864.85954	0.97448
1862.80573	0.97437
1860.75192	0.97426
1858.69811	0.97398
1856.64430	0.97369
1854.59049	0.97335
1852.53668	0.97329
1850.48287	0.97358
1848.42906	0.97381
1846.37525	0.97409
1844.32144	0.97422
1842.26763	0.97360
1840.21382	0.97323
1838.16001	0.97344
1836.10620	0.97354
1834.05239	0.97342
1831.99858	0.97360
1829.94477	0.97400
1827.89096	0.97369
1825.83715	0.97291
1823.78334	0.97214
1821.72953	0.97147
1819.67572	0.97155
1817.62191	0.97214
1815.56810	0.97215
1813.51429	0.97192
1811.46048	0.97201
1809.40667	0.97181
1807.35286	0.97105
1805.29905	0.97029
1803.24524	0.97015
1801.19143	0.97049
1799.13762	0.97055
1797.08381	0.97030
1795.03000	0.97001
1792.97619	0.96967
1790.92238	0.96885
1788.86857	0.96741
1786.81476	0.96620
1784.76095	0.96550
1782.70714	0.96499
1780.65333	0.96467
1778.59952	0.96444
1776.54571	0.96428
1774.49190	0.96457
1772.43809	0.96509
1770.38428	0.96473
1768.33047	0.96358
1766.27666	0.96261
1764.22285	0.96228
1762.16904	0.96214
1760.11523	0.96146
1758.06142	0.96057
1756.00761	0.95974
1753.95380	0.95915
1751.89999	0.95896
1749.84618	0.95808
1747.79237	0.95610
1745.73856	0.95417
1743.68475	0.95244
1741.63094	0.95075
1739.57713	0.94903
1737.52332	0.94770
1735.46951	0.94732
1733.41570	0.94686
1731.36189	0.94531
1729.30808	0.94319
1727.25427	0.94032
1725.20046	0.93654
1723.14665	0.93206
1721.09284	0.92826
1719.03903	0.92627
1716.98522	0.92575
1714.93141	0.92546
1712.87760	0.92546
1710.82379	0.92647
1708.76998	0.92875
1706.71617	0.93198
1704.66236	0.93523
1702.60855	0.93795
1700.55474	0.94119
1698.50093	0.94447
1696.44712	0.94687
1694.39331	0.94861
1692.33950	0.94980
1690.28569	0.95119
1688.23188	0.95250
1686.17807	0.95362
1684.12426	0.95447
1682.07045	0.95405
1680.01664	0.95331
1677.96283	0.95303
1675.90902	0.95343
1673.85521	0.95400
1671.80140	0.95411
1669.74759	0.95382
1667.69378	0.95288
1665.63997	0.95188
1663.58616	0.95143
1661.53235	0.95090
1659.47854	0.95011
1657.42473	0.94988
1655.37092	0.95065
1653.31711	0.95172
1651.26330	0.95119
1649.20949	0.95063
1647.15568	0.95020
1645.10187	0.94873
1643.04806	0.94755
1640.99425	0.94760
1638.94044	0.94869
1636.88663	0.95069
1634.83282	0.95219
1632.77901	0.95222
1630.72520	0.95238
1628.67139	0.95323
1626.61758	0.95431
1624.56377	0.95526
1622.50996	0.95593
1620.45614	0.95631
1618.40233	0.95709
1616.34852	0.95820
1614.29471	0.95851
1612.24090	0.95844
1610.18709	0.95892
1608.13328	0.95980
1606.07947	0.96055
1604.02566	0.96122
1601.97185	0.96187
1599.91804	0.96231
1597.86423	0.96264
1595.81042	0.96310
1593.75661	0.96343
1591.70280	0.96340
1589.64899	0.96327
1587.59518	0.96341
1585.54137	0.96380
1583.48756	0.96409
1581.43375	0.96428
1579.37994	0.96473
1577.32613	0.96564
1575.27232	0.96616
1573.21851	0.96597
1571.16470	0.96611
1569.11089	0.96636
1567.05708	0.96616
1565.00327	0.96587
1562.94946	0.96593
1560.89565	0.96697
1558.84184	0.96853
1556.78803	0.96788
1554.73422	0.96683
1552.68041	0.96633
1550.62660	0.96607
1548.57279	0.96593
1546.51898	0.96611
1544.46517	0.96692
1542.41136	0.96782
1540.35755	0.96779
1538.30374	0.96668
1536.24993	0.96604
1534.19612	0.96626
1532.14231	0.96623
1530.08850	0.96584
1528.03469	0.96623
1525.98088	0.96719
1523.92707	0.96806
1521.87326	0.96862
1519.81945	0.96836
1517.76564	0.96761
1515.71183	0.96667
1513.65802	0.96578
1511.60421	0.96579
1509.55040	0.96689
1507.49659	0.96781
1505.44278	0.96616
1503.38897	0.96406
1501.33516	0.96309
1499.28135	0.96261
1497.22754	0.96173
1495.17373	0.96001
1493.11992	0.95860
1491.06611	0.95786
1489.01230	0.95650
1486.95849	0.95360
1484.90468	0.95003
1482.85087	0.94574
1480.79706	0.93929
1478.74325	0.92696
1476.68944	0.89732
1474.63563	0.84182
1472.58182	0.79003
1470.52801	0.78361
1468.47420	0.79515
1466.42039	0.79319
1464.36658	0.77663
1462.31277	0.77516
1460.25896	0.80039
1458.20515	0.83692
1456.15134	0.86410
1454.09753	0.87591
1452.04372	0.88401
1449.98991	0.89135
1447.93610	0.89675
1445.88229	0.89984
1443.82848	0.90149
1441.77467	0.90277
1439.72086	0.90428
1437.66705	0.90642
1435.61324	0.90842
1433.55943	0.90992
1431.50562	0.91206
1429.45181	0.91457
1427.39800	0.91624
1425.34419	0.91735
1423.29038	0.91833
1421.23657	0.91898
1419.18276	0.91926
1417.12895	0.91824
1415.07514	0.91638
1413.02133	0.91506
1410.96752	0.91477
1408.91371	0.91528
1406.85990	0.91649
1404.80609	0.91806
1402.75228	0.91941
1400.69847	0.92072
1398.64466	0.92194
1396.59085	0.92266
1394.53704	0.92280
1392.48323	0.92251
1390.42942	0.92234
1388.37561	0.92253
1386.32180	0.92205
1384.26799	0.92013
1382.21418	0.91721
1380.16037	0.91391
1378.10656	0.91141
1376.05275	0.91056
1373.99894	0.91068
1371.94513	0.91045
1369.89132	0.90999
1367.83751	0.90996
1365.78370	0.91061
1363.72989	0.91176
1361.67608	0.91270
1359.62227	0.91299
1357.56846	0.91313
1355.51465	0.91339
1353.46084	0.91344
1351.40703	0.91327
1349.35322	0.91316
1347.29941	0.91329
1345.24560	0.91359
1343.19179	0.91398
1341.13798	0.91486
1339.08417	0.91595
1337.03036	0.91636
1334.97655	0.91648
1332.92274	0.91674
1330.86893	0.91688
1328.81512	0.91693
1326.76130	0.91705
1324.70749	0.91713
1322.65368	0.91712
1320.59987	0.91701
1318.54606	0.91675
1316.49225	0.91645
1314.43844	0.91626
1312.38463	0.91622
1310.33082	0.91633
1308.27701	0.91655
1306.22320	0.91655
1304.16939	0.91632
1302.11558	0.91619
1300.06177	0.91613
1298.00796	0.91596
1295.95415	0.91580
1293.90034	0.91567
1291.84653	0.91551
1289.79272	0.91544
1287.73891	0.91537
1285.68510	0.91527
1283.63129	0.91517
1281.57748	0.91496
1279.52367	0.91450
1277.46986	0.91369
1275.41605	0.91281
1273.36224	0.91215
1271.30843	0.91162
1269.25462	0.91117
1267.20081	0.91078
1265.14700	0.91041
1263.09319	0.91008
1261.03938	0.90983
1258.98557	0.90961
1256.93176	0.90927
1254.87795	0.90882
1252.82414	0.90838
1250.77033	0.90790
1248.71652	0.90748
1246.66271	0.90727
1244.60890	0.90724
1242.55509	0.90722
1240.50128	0.90721
1238.44747	0.90725
1236.39366	0.90744
1234.33985	0.90777
1232.28604	0.90801
1230.23223	0.90802
1228.17842	0.90784
1226.12461	0.90740
1224.07080	0.90662
1222.01699	0.90575
1219.96318	0.90522
1217.90937	0.90492
1215.85556	0.90448
1213.80175	0.90421
1211.74794	0.90453
1209.69413	0.90518
1207.64032	0.90572
1205.58651	0.90602
1203.53270	0.90614
1201.47889	0.90592
1199.42508	0.90541
1197.37127	0.90507
1195.31746	0.90477
1193.26365	0.90420
1191.20984	0.90384
1189.15603	0.90388
1187.10222	0.90401
1185.04841	0.90401
1182.99460	0.90383
1180.94079	0.90360
1178.88698	0.90305
1176.83317	0.90200
1174.77936	0.90065
1172.72555	0.89887
1170.67174	0.89687
1168.61793	0.89520
1166.56412	0.89384
1164.51031	0.89255
1162.45650	0.89164
1160.40269	0.89126
1158.34888	0.89119
1156.29507	0.89128
1154.24126	0.89160
1152.18745	0.89173
1150.13364	0.89112
1148.07983	0.89005
1146.02602	0.88852
1143.97221	0.88626
1141.91840	0.88357
1139.86459	0.88099
1137.81078	0.87877
1135.75697	0.87683
1133.70316	0.87502
1131.64935	0.87353
1129.59554	0.87238
1127.54173	0.87134
1125.48792	0.87047
1123.43411	0.86962
1121.38030	0.86865
1119.32649	0.86767
1117.27268	0.86655
1115.21887	0.86535
1113.16506	0.86425
1111.11125	0.86324
1109.05744	0.86227
1107.00363	0.86156
1104.94982	0.86117
1102.89601	0.86101
1100.84220	0.86120
1098.78839	0.86168
1096.73458	0.86215
1094.68077	0.86240
1092.62696	0.86217
1090.57315	0.86135
1088.51934	0.85996
1086.46553	0.85794
1084.41172	0.85520
1082.35791	0.85205
1080.30410	0.84877
1078.25029	0.84534
1076.19648	0.84184
1074.14267	0.83843
1072.08886	0.83514
1070.03505	0.83185
1067.98124	0.82841
1065.92743	0.82478
1063.87362	0.82117
1061.81981	0.81792
1059.76600	0.81501
1057.71219	0.81220
1055.65838	0.80957
1053.60457	0.80717
1051.55076	0.80476
1049.49695	0.80272
1047.44314	0.80124
1045.38933	0.79969
1043.33552	0.79793
1041.28171	0.79636
1039.22790	0.79477
1037.17409	0.79262
1035.12028	0.79024
1033.06647	0.78806
1031.01265	0.78607
1028.95884	0.78413
1026.90503	0.78220
1024.85122	0.78034
1022.79741	0.77879
1020.74360	0.77788
1018.68979	0.77768
1016.63598	0.77828
1014.58217	0.77975
1012.52836	0.78172
1010.47455	0.78411
1008.42074	0.78689
1006.36693	0.78978
1004.31312	0.79263
1002.25931	0.79527
1000.20550	0.79734
998.15169	0.79867
996.09788	0.79937
994.04407	0.79941
991.99026	0.79886
989.93645	0.79866
987.88264	0.79958
985.82883	0.80121
983.77502	0.80310
981.72121	0.80528
979.66740	0.80808
977.61359	0.81197
975.55978	0.81702
973.50597	0.82267
971.45216	0.82831
969.39835	0.83372
967.34454	0.83884
965.29073	0.84363
963.23692	0.84826
961.18311	0.85289
959.12930	0.85692
957.07549	0.85974
955.02168	0.86145
952.96787	0.86213
950.91406	0.86206
948.86025	0.86156
946.80644	0.86053
944.75263	0.85911
942.69882	0.85763
940.64501	0.85627
938.59120	0.85473
936.53739	0.85282
934.48358	0.85103
932.42977	0.84972
930.37596	0.84869
928.32215	0.84787
926.26834	0.84746
924.21453	0.84764
922.16072	0.84816
920.10691	0.84864
918.05310	0.84928
915.99929	0.84980
913.94548	0.84911
911.89167	0.84702
909.83786	0.84499
907.78405	0.84573
905.73024	0.85045
903.67643	0.85709
901.62262	0.86339
899.56881	0.86888
897.51500	0.87330
895.46119	0.87652
893.40738	0.87910
891.35357	0.88140
889.29976	0.88322
887.24595	0.88432
885.19214	0.88473
883.13833	0.88467
881.08452	0.88440
879.03071	0.88413
876.97690	0.88377
874.92309	0.88309
872.86928	0.88204
870.81547	0.88093
868.76166	0.88028
866.70785	0.88033
864.65404	0.88086
862.60023	0.88166
860.54642	0.88268
858.49261	0.88386
856.43880	0.88494
854.38499	0.88579
852.33118	0.88676
850.27737	0.88795
848.22356	0.88888
846.16975	0.88954
844.11594	0.89007
842.06213	0.89008
840.00832	0.88912
837.95451	0.88722
835.90070	0.88497
833.84689	0.88273
831.79308	0.88065
829.73927	0.87915
827.68546	0.87810
825.63165	0.87708
823.57784	0.87642
821.52403	0.87614
819.47022	0.87632
817.41641	0.87710
815.36260	0.87806
813.30879	0.87937
811.25498	0.88114
809.20117	0.88274
807.14736	0.88435
805.09355	0.88644
803.03974	0.88857
800.98593	0.89037
798.93212	0.89172
796.87831	0.89255
794.82450	0.89283
792.77069	0.89236
790.71688	0.89106
788.66307	0.88892
786.60926	0.88633
784.55545	0.88385
782.50164	0.88186
780.44783	0.88090
778.39402	0.88085
776.34021	0.88131
774.28640	0.88270
772.23259	0.88454
770.17878	0.88578
768.12497	0.88648
766.07116	0.88669
764.01735	0.88622
761.96354	0.88537
759.90973	0.88444
757.85592	0.88345
755.80211	0.88238
753.74830	0.88170
751.69449	0.88144
749.64068	0.88075
747.58687	0.87958
745.53306	0.87803
743.47925	0.87600
741.42544	0.87332
739.37163	0.86906
737.31781	0.86158
735.26400	0.84531
733.21019	0.81177
731.15638	0.77129
729.10257	0.75463
727.04876	0.76509
724.99495	0.77178
722.94114	0.75255
720.88733	0.71323
718.83352	0.68840
716.77971	0.70474
714.72590	0.74859
712.67209	0.79172
710.61828	0.81963
708.56447	0.83483
706.51066	0.84370
704.45685	0.84918
702.40304	0.85264
700.34923	0.85460
698.29542	0.85520
696.24161	0.85538
694.18780	0.85547
692.13399	0.85496
690.08018	0.85406
688.02637	0.85344
685.97256	0.85332
683.91875	0.85271
681.86494	0.85177
679.81113	0.85124
677.75732	0.85099
675.70351	0.85104
673.64970	0.85072
671.59589	0.84971
669.54208	0.84940
667.48827	0.85004
665.43446	0.84933
663.38065	0.84824
661.32684	0.84761
659.27303	0.84694
657.21922	0.84627
655.16541	0.84631
653.11160	0.84643
651.05779	0.84590
649.00398	0.84598
646.95017	0.84647
644.89636	0.84547
642.84255	0.84348
640.78874	0.84201
638.73493	0.84098
636.68112	0.83934
634.62731	0.83710
632.57350	0.83543
630.51969	0.83483
628.46588	0.83427
626.41207	0.83288
624.35826	0.83180
622.30445	0.83167
620.25064	0.83149
618.19683	0.83059
616.14302	0.82924
614.08921	0.82801
612.03540	0.82690
609.98159	0.82575
607.92778	0.82451
605.87397	0.82322
603.82016	0.82219
601.76635	0.82095
599.71254	0.81905
597.65873	0.81779
595.60492	0.81735
593.55111	0.81703
591.49730	0.81703
589.44349	0.81696
587.38968	0.81644
585.33587	0.81519
583.28206	0.81403
581.22825	0.81372
579.17444	0.81358
577.12063	0.81472
575.06682	0.81741
573.01301	0.81841
570.95920	0.81706
568.90539	0.81537
566.85158	0.81346
564.79777	0.81166
562.74396	0.81121
560.69015	0.81146
558.63634	0.81117
556.58253	0.81110
554.52872	0.81232
552.47491	0.81410
550.42110	0.81529
548.36729	0.81491
546.31348	0.81261
544.25967	0.80995
542.20586	0.80851
540.15205	0.80803
538.09824	0.80753
536.04443	0.80651
533.99062	0.80549
531.93681	0.80627
529.88300	0.80820
527.82919	0.80921
525.77538	0.80998
523.72157	0.81060
521.66776	0.81103
519.61395	0.81135
517.56014	0.81072
515.50633	0.80969
513.45252	0.80874
511.39871	0.80831
509.34490	0.80954
507.29109	0.81182
505.23728	0.81323
503.18347	0.81413
501.12966	0.81476
499.07585	0.81464
497.02204	0.81385
494.96823	0.81227
492.91442	0.81104
490.86061	0.81040
488.80680	0.80987
486.75299	0.81009
484.69918	0.81106
482.64537	0.81143
480.59156	0.81081
478.53775	0.81120
476.48394	0.81230
474.43013	0.81140
472.37632	0.80839
470.32251	0.80480
468.26870	0.80177
466.21489	0.80028
464.16108	0.79947
462.10727	0.79938
460.05346	0.80152
457.99965	0.80385
455.94584	0.80493
453.89203	0.80632
451.83822	0.80727
449.78441	0.80757
447.73060	0.80773
445.67679	0.80588
443.62298	0.80172
441.56916	0.79822
439.51535	0.79786
437.46154	0.79896
435.40773	0.79875
433.35392	0.79800
431.30011	0.79774
429.24630	0.79933
427.19249	0.80356
425.13868	0.80648
423.08487	0.80594
421.03106	0.80198
418.97725	0.79452
416.92344	0.79215
414.86963	0.79592
412.81582	0.79966
410.76201	0.80093
408.70820	0.79988
406.65439	0.79976
404.60058	0.80154
402.54677	0.80308
400.49296	0.80737
398.43915	0.80903
