3996.70104	0.99103
3994.64724	0.99148
3992.59344	0.99217
3990.53964	0.99200
3988.48583	0.99147
3986.43203	0.99115
3984.37823	0.99087
3982.32442	0.99082
3980.27062	0.99099
3978.21682	0.99103
3976.16301	0.99097
3974.10921	0.99092
3972.05541	0.99099
3970.00160	0.99107
3967.94780	0.99111
3965.89400	0.99133
3963.84019	0.99183
3961.78639	0.99236
3959.73259	0.99227
3957.67878	0.99163
3955.62498	0.99127
3953.57118	0.99134
3951.51737	0.99144
3949.46357	0.99169
3947.40977	0.99223
3945.35596	0.99236
3943.30216	0.99151
3941.24836	0.99054
3939.19455	0.99074
3937.14075	0.99177
3935.08695	0.99242
3933.03315	0.99245
3930.97934	0.99183
3928.92554	0.99076
3926.87174	0.99030
3924.81793	0.99082
3922.76413	0.99154
3920.71033	0.99168
3918.65652	0.99130
3916.60272	0.99087
3914.54892	0.99075
3912.49511	0.99086
3910.44131	0.99080
3908.38751	0.99064
3906.33370	0.99092
3904.27990	0.99161
3902.22610	0.99138
3900.17229	0.99064
3898.11849	0.99072
3896.06469	0.99074
3894.01088	0.99039
3891.95708	0.99040
3889.90328	0.99088
3887.84947	0.99138
3885.79567	0.99191
3883.74187	0.99214
3881.68807	0.99202
3879.63426	0.99200
3877.58046	0.99204
3875.52666	0.99195
3873.47285	0.99176
3871.41905	0.99190
3869.36525	0.99259
3867.31144	0.99320
3865.25764	0.99318
3863.20384	0.99202
3861.15003	0.99050
3859.09623	0.98996
3857.04243	0.99004
3854.98862	0.99004
3852.93482	0.99039
3850.88102	0.99098
3848.82721	0.99122
3846.77341	0.99136
3844.71961	0.99160
3842.66580	0.99176
3840.61200	0.99185
3838.55820	0.99223
3836.50439	0.99242
3834.45059	0.99217
3832.39679	0.99180
3830.34298	0.99161
3828.28918	0.99167
3826.23538	0.99167
3824.18158	0.99144
3822.12777	0.99131
3820.07397	0.99164
3818.02017	0.99237
3815.96636	0.99270
3813.91256	0.99193
3811.85876	0.99100
3809.80495	0.99090
3807.75115	0.99170
3805.69735	0.99242
3803.64354	0.99246
3801.58974	0.99211
3799.53594	0.99136
3797.48213	0.99073
3795.42833	0.99055
3793.37453	0.99085
3791.32072	0.99131
3789.26692	0.99156
3787.21312	0.99196
3785.15931	0.99258
3783.10551	0.99281
3781.05171	0.99250
3778.99790	0.99172
3776.94410	0.99091
3774.89030	0.99075
3772.83650	0.99104
3770.78269	0.99136
3768.72889	0.99193
3766.67509	0.99219
3764.62128	0.99209
3762.56748	0.99259
3760.51368	0.99318
3758.45987	0.99272
3756.40607	0.99212
3754.35227	0.99236
3752.29846	0.99289
3750.24466	0.99330
3748.19086	0.99364
3746.13705	0.99368
3744.08325	0.99300
3742.02945	0.99222
3739.97564	0.99198
3737.92184	0.99204
3735.86804	0.99257
3733.81423	0.99315
3731.76043	0.99284
3729.70663	0.99220
3727.65282	0.99155
3725.59902	0.99097
3723.54522	0.99079
3721.49141	0.99077
3719.43761	0.99121
3717.38381	0.99199
3715.33001	0.99188
3713.27620	0.99113
3711.22240	0.99083
3709.16860	0.99055
3707.11479	0.99000
3705.06099	0.98944
3703.00719	0.98882
3700.95338	0.98853
3698.89958	0.98836
3696.84578	0.98771
3694.79197	0.98743
3692.73817	0.98836
3690.68437	0.98920
3688.63056	0.98846
3686.57676	0.98787
3684.52296	0.98825
3682.46915	0.98863
3680.41535	0.98853
3678.36155	0.98803
3676.30774	0.98763
3674.25394	0.98822
3672.20014	0.98939
3670.14633	0.98971
3668.09253	0.98861
3666.03873	0.98748
3663.98492	0.98690
3661.93112	0.98642
3659.87732	0.98582
3657.82352	0.98564
3655.76971	0.98580
3653.71591	0.98551
3651.66211	0.98501
3649.60830	0.98554
3647.55450	0.98590
3645.50070	0.98454
3643.44689	0.98374
3641.39309	0.98374
3639.33929	0.98365
3637.28548	0.98324
3635.23168	0.98237
3633.17788	0.98127
3631.12407	0.98060
3629.07027	0.98110
3627.01647	0.98164
3624.96266	0.98090
3622.90886	0.98052
3620.85506	0.98112
3618.80125	0.98115
3616.74745	0.98042
3614.69365	0.98056
3612.63984	0.98154
3610.58604	0.98212
3608.53224	0.98179
3606.47844	0.98128
3604.42463	0.98116
3602.37083	0.98124
3600.31703	0.98157
3598.26322	0.98191
3596.20942	0.98175
3594.15562	0.98161
3592.10181	0.98189
3590.04801	0.98224
3587.99421	0.98205
3585.94040	0.98116
3583.88660	0.98085
3581.83280	0.98106
3579.77899	0.98078
3577.72519	0.98006
3575.67139	0.97977
3573.61758	0.98021
3571.56378	0.98084
3569.50998	0.98118
3567.45617	0.98127
3565.40237	0.98087
3563.34857	0.98040
3561.29476	0.98062
3559.24096	0.98103
3557.18716	0.98103
3555.13335	0.98059
3553.07955	0.97978
3551.02575	0.97946
3548.97195	0.98000
3546.91814	0.98049
3544.86434	0.98043
3542.81054	0.98037
3540.75673	0.98033
3538.70293	0.97999
3536.64913	0.97940
3534.59532	0.97889
3532.54152	0.97888
3530.48772	0.97913
3528.43391	0.97939
3526.38011	0.97989
3524.32631	0.98032
3522.27250	0.98044
3520.21870	0.98063
3518.16490	0.98081
3516.11109	0.98082
3514.05729	0.98087
3512.00349	0.98084
3509.94968	0.98077
3507.89588	0.98063
3505.84208	0.98026
3503.78827	0.97978
3501.73447	0.97948
3499.68067	0.97953
3497.62687	0.98017
3495.57306	0.98087
3493.51926	0.98067
3491.46546	0.98020
3489.41165	0.98000
3487.35785	0.97984
3485.30405	0.98029
3483.25024	0.98115
3481.19644	0.98148
3479.14264	0.98124
3477.08883	0.98093
3475.03503	0.98054
3472.98123	0.98000
3470.92742	0.97981
3468.87362	0.97998
3466.81982	0.98002
3464.76601	0.98012
3462.71221	0.98038
3460.65841	0.98023
3458.60460	0.97964
3456.55080	0.97925
3454.49700	0.97937
3452.44319	0.97970
3450.38939	0.97953
3448.33559	0.97912
3446.28178	0.97946
3444.22798	0.98025
3442.17418	0.98050
3440.12038	0.98030
3438.06657	0.98014
3436.01277	0.97971
3433.95897	0.97905
3431.90516	0.97874
3429.85136	0.97894
3427.79756	0.97919
3425.74375	0.97897
3423.68995	0.97858
3421.63615	0.97829
3419.58234	0.97824
3417.52854	0.97843
3415.47474	0.97840
3413.42093	0.97799
3411.36713	0.97776
3409.31333	0.97806
3407.25952	0.97805
3405.20572	0.97763
3403.15192	0.97757
3401.09811	0.97798
3399.04431	0.97850
3396.99051	0.97882
3394.93670	0.97907
3392.88290	0.97928
3390.82910	0.97941
3388.77529	0.97952
3386.72149	0.97934
3384.66769	0.97913
3382.61389	0.97936
3380.56008	0.97992
3378.50628	0.98022
3376.45248	0.98002
3374.39867	0.97977
3372.34487	0.97964
3370.29107	0.97963
3368.23726	0.97956
3366.18346	0.97956
3364.12966	0.97993
3362.07585	0.98014
3360.02205	0.98003
3357.96825	0.97997
3355.91444	0.97988
3353.86064	0.97974
3351.80684	0.97980
3349.75303	0.98009
3347.69923	0.98053
3345.64543	0.98102
3343.59162	0.98127
3341.53782	0.98145
3339.48402	0.98155
3337.43021	0.98124
3335.37641	0.98074
3333.32261	0.98064
3331.26881	0.98112
3329.21500	0.98148
3327.16120	0.98132
3325.10740	0.98125
3323.05359	0.98151
3320.99979	0.98190
3318.94599	0.98225
3316.89218	0.98204
3314.83838	0.98137
3312.78458	0.98120
3310.73077	0.98148
3308.67697	0.98152
3306.62317	0.98119
3304.56936	0.98075
3302.51556	0.98070
3300.46176	0.98124
3298.40795	0.98194
3296.35415	0.98248
3294.30035	0.98278
3292.24654	0.98286
3290.19274	0.98254
3288.13894	0.98224
3286.08513	0.98252
3284.03133	0.98275
3281.97753	0.98257
3279.92372	0.98260
3277.86992	0.98265
3275.81612	0.98237
3273.76232	0.98214
3271.70851	0.98200
3269.65471	0.98211
3267.60091	0.98243
3265.54710	0.98261
3263.49330	0.98290
3261.43950	0.98328
3259.38569	0.98337
3257.33189	0.98312
3255.27809	0.98284
3253.22428	0.98299
3251.17048	0.98326
3249.11668	0.98298
3247.06287	0.98270
3245.00907	0.98294
3242.95527	0.98287
3240.90146	0.98281
3238.84766	0.98341
3236.79386	0.98369
3234.74005	0.98340
3232.68625	0.98332
3230.63245	0.98357
3228.57864	0.98370
3226.52484	0.98373
3224.47104	0.98401
3222.41724	0.98434
3220.36343	0.98455
3218.30963	0.98466
3216.25583	0.98431
3214.20202	0.98378
3212.14822	0.98375
3210.09442	0.98437
3208.04061	0.98530
3205.98681	0.98562
3203.93301	0.98486
3201.87920	0.98389
3199.82540	0.98381
3197.77160	0.98445
3195.71779	0.98495
3193.66399	0.98485
3191.61019	0.98457
3189.55638	0.98472
3187.50258	0.98483
3185.44878	0.98487
3183.39497	0.98520
3181.34117	0.98536
3179.28737	0.98489
3177.23356	0.98436
3175.17976	0.98450
3173.12596	0.98495
3171.07215	0.98513
3169.01835	0.98507
3166.96455	0.98516
3164.91075	0.98545
3162.85694	0.98551
3160.80314	0.98551
3158.74934	0.98592
3156.69553	0.98622
3154.64173	0.98596
3152.58793	0.98594
3150.53412	0.98615
3148.48032	0.98596
3146.42652	0.98592
3144.37271	0.98606
3142.31891	0.98577
3140.26511	0.98539
3138.21130	0.98555
3136.15750	0.98621
3134.10370	0.98673
3132.04989	0.98655
3129.99609	0.98600
3127.94229	0.98592
3125.88848	0.98645
3123.83468	0.98681
3121.78088	0.98691
3119.72707	0.98729
3117.67327	0.98760
3115.61947	0.98756
3113.56566	0.98745
3111.51186	0.98735
3109.45806	0.98752
3107.40426	0.98803
3105.35045	0.98842
3103.29665	0.98825
3101.24285	0.98781
3099.18904	0.98801
3097.13524	0.98842
3095.08144	0.98825
3093.02763	0.98805
3090.97383	0.98808
3088.92003	0.98791
3086.86622	0.98753
3084.81242	0.98751
3082.75862	0.98786
3080.70481	0.98806
3078.65101	0.98797
3076.59721	0.98777
3074.54340	0.98756
3072.48960	0.98748
3070.43580	0.98752
3068.38199	0.98766
3066.32819	0.98806
3064.27439	0.98847
3062.22058	0.98840
3060.16678	0.98796
3058.11298	0.98787
3056.05918	0.98824
3054.00537	0.98833
3051.95157	0.98804
3049.89777	0.98827
3047.84396	0.98899
3045.79016	0.98917
3043.73636	0.98880
3041.68255	0.98853
3039.62875	0.98846
3037.57495	0.98842
3035.52114	0.98834
3033.46734	0.98839
3031.41354	0.98862
3029.35973	0.98872
3027.30593	0.98859
3025.25213	0.98861
3023.19832	0.98896
3021.14452	0.98932
3019.09072	0.98958
3017.03691	0.98976
3014.98311	0.98965
3012.92931	0.98930
3010.87550	0.98900
3008.82170	0.98890
3006.76790	0.98888
3004.71409	0.98895
3002.66029	0.98919
3000.60649	0.98909
2998.55269	0.98848
2996.49888	0.98819
2994.44508	0.98843
2992.39128	0.98853
2990.33747	0.98822
2988.28367	0.98782
2986.22987	0.98745
2984.17606	0.98698
2982.12226	0.98645
2980.06846	0.98561
2978.01465	0.98452
2975.96085	0.98336
2973.90705	0.98183
2971.85324	0.97952
2969.79944	0.97628
2967.74564	0.97241
2965.69183	0.96837
2963.63803	0.96409
2961.58423	0.95976
2959.53042	0.95646
2957.47662	0.95453
2955.42282	0.95292
2953.36901	0.95115
2951.31521	0.94982
2949.26141	0.94990
2947.20761	0.95233
2945.15380	0.95697
2943.10000	0.96196
2941.04620	0.96532
2938.99239	0.96678
2936.93859	0.96689
2934.88479	0.96577
2932.83098	0.96328
2930.77718	0.95962
2928.72338	0.95531
2926.66957	0.95118
2924.61577	0.94782
2922.56197	0.94474
2920.50816	0.94195
2918.45436	0.94033
2916.40056	0.94009
2914.34675	0.94113
2912.29295	0.94333
2910.23915	0.94611
2908.18534	0.94877
2906.13154	0.95094
2904.07774	0.95301
2902.02393	0.95552
2899.97013	0.95830
2897.91633	0.96085
2895.86252	0.96284
2893.80872	0.96440
2891.75492	0.96547
2889.70112	0.96586
2887.64731	0.96598
2885.59351	0.96594
2883.53971	0.96535
2881.48590	0.96426
2879.43210	0.96322
2877.37830	0.96261
2875.32449	0.96235
2873.27069	0.96235
2871.21689	0.96224
2869.16308	0.96188
2867.10928	0.96195
2865.05548	0.96327
2863.00167	0.96601
2860.94787	0.96980
2858.89407	0.97355
2856.84026	0.97592
2854.78646	0.97676
2852.73266	0.97666
2850.67885	0.97616
2848.62505	0.97537
2846.57125	0.97384
2844.51744	0.97142
2842.46364	0.96832
2840.40984	0.96520
2838.35603	0.96291
2836.30223	0.96238
2834.24843	0.96432
2832.19463	0.96821
2830.14082	0.97240
2828.08702	0.97593
2826.03322	0.97862
2823.97941	0.98044
2821.92561	0.98160
2819.87181	0.98216
2817.81800	0.98241
2815.76420	0.98284
2813.71040	0.98342
2811.65659	0.98377
2809.60279	0.98370
2807.54899	0.98350
2805.49518	0.98372
2803.44138	0.98438
2801.38758	0.98497
2799.33377	0.98532
2797.27997	0.98546
2795.22617	0.98551
2793.17236	0.98583
2791.11856	0.98645
2789.06476	0.98701
2787.01095	0.98737
2784.95715	0.98738
2782.90335	0.98713
2780.84955	0.98718
2778.79574	0.98749
2776.74194	0.98755
2774.68814	0.98757
2772.63433	0.98779
2770.58053	0.98775
2768.52673	0.98731
2766.47292	0.98707
2764.41912	0.98738
2762.36532	0.98772
2760.31151	0.98776
2758.25771	0.98777
2756.20391	0.98793
2754.15010	0.98817
2752.09630	0.98827
2750.04250	0.98827
2747.98869	0.98839
2745.93489	0.98839
2743.88109	0.98821
2741.82728	0.98822
2739.77348	0.98840
2737.71968	0.98849
2735.66587	0.98844
2733.61207	0.98823
2731.55827	0.98777
2729.50446	0.98725
2727.45066	0.98698
2725.39686	0.98698
2723.34306	0.98708
2721.28925	0.98714
2719.23545	0.98726
2717.18165	0.98755
2715.12784	0.98788
2713.07404	0.98821
2711.02024	0.98843
2708.96643	0.98848
2706.91263	0.98855
2704.85883	0.98858
2702.80502	0.98849
2700.75122	0.98846
2698.69742	0.98875
2696.64361	0.98906
2694.58981	0.98887
2692.53601	0.98863
2690.48220	0.98868
2688.42840	0.98851
2686.37460	0.98836
2684.32079	0.98872
2682.26699	0.98895
2680.21319	0.98846
2678.15938	0.98790
2676.10558	0.98804
2674.05178	0.98857
2671.99797	0.98883
2669.94417	0.98879
2667.89037	0.98875
2665.83657	0.98874
2663.78276	0.98852
2661.72896	0.98807
2659.67516	0.98783
2657.62135	0.98801
2655.56755	0.98839
2653.51375	0.98883
2651.45994	0.98913
2649.40614	0.98912
2647.35234	0.98900
2645.29853	0.98888
2643.24473	0.98864
2641.19093	0.98845
2639.13712	0.98860
2637.08332	0.98875
2635.02952	0.98865
2632.97571	0.98857
2630.92191	0.98853
2628.86811	0.98842
2626.81430	0.98843
2624.76050	0.98862
2622.70670	0.98881
2620.65289	0.98912
2618.59909	0.98949
2616.54529	0.98939
2614.49149	0.98916
2612.43768	0.98928
2610.38388	0.98939
2608.33008	0.98945
2606.27627	0.98938
2604.22247	0.98891
2602.16867	0.98879
2600.11486	0.98932
2598.06106	0.98950
2596.00726	0.98888
2593.95345	0.98836
2591.89965	0.98863
2589.84585	0.98922
2587.79204	0.98974
2585.73824	0.98988
2583.68444	0.98952
2581.63063	0.98938
2579.57683	0.98975
2577.52303	0.98997
2575.46922	0.98963
2573.41542	0.98900
2571.36162	0.98847
2569.30781	0.98842
2567.25401	0.98891
2565.20021	0.98923
2563.14640	0.98939
2561.09260	0.98984
2559.03880	0.99043
2556.98500	0.99067
2554.93119	0.99026
2552.87739	0.98997
2550.82359	0.99016
2548.76978	0.99020
2546.71598	0.99011
2544.66218	0.99039
2542.60837	0.99065
2540.55457	0.99014
2538.50077	0.98941
2536.44696	0.98952
2534.39316	0.98992
2532.33936	0.98980
2530.28555	0.98984
2528.23175	0.99042
2526.17795	0.99091
2524.12414	0.99116
2522.07034	0.99133
2520.01654	0.99156
2517.96273	0.99160
2515.90893	0.99111
2513.85513	0.99050
2511.80132	0.99007
2509.74752	0.98973
2507.69372	0.98966
2505.63992	0.98982
2503.58611	0.98997
2501.53231	0.99014
2499.47851	0.99040
2497.42470	0.99061
2495.37090	0.99046
2493.31710	0.99012
2491.26329	0.99028
2489.20949	0.99050
2487.15569	0.98993
2485.10188	0.98943
2483.04808	0.99014
2480.99428	0.99109
2478.94047	0.99111
2476.88667	0.99080
2474.83287	0.99073
2472.77906	0.99070
2470.72526	0.99040
2468.67146	0.99004
2466.61765	0.99043
2464.56385	0.99101
2462.51005	0.99049
2460.45624	0.98927
2458.40244	0.98866
2456.34864	0.98880
2454.29483	0.98918
2452.24103	0.98991
2450.18723	0.99076
2448.13343	0.99129
2446.07962	0.99145
2444.02582	0.99122
2441.97202	0.99084
2439.91821	0.99053
2437.86441	0.99047
2435.81061	0.99088
2433.75680	0.99153
2431.70300	0.99172
2429.64920	0.99116
2427.59539	0.99074
2425.54159	0.99080
2423.48779	0.99076
2421.43398	0.99081
2419.38018	0.99091
2417.32638	0.99052
2415.27257	0.98982
2413.21877	0.98946
2411.16497	0.98984
2409.11116	0.99036
2407.05736	0.99041
2405.00356	0.99046
2402.94975	0.99109
2400.89595	0.99188
2398.84215	0.99191
2396.78834	0.99151
2394.73454	0.99167
2392.68074	0.99194
2390.62694	0.99168
2388.57313	0.99151
2386.51933	0.99163
2384.46553	0.99130
2382.41172	0.99075
2380.35792	0.99083
2378.30412	0.99117
2376.25031	0.99097
2374.19651	0.99071
2372.14271	0.99128
2370.08890	0.99159
2368.03510	0.99075
2365.98130	0.99010
2363.92749	0.99048
2361.87369	0.99135
2359.81989	0.99130
2357.76608	0.99034
2355.71228	0.98994
2353.65848	0.99022
2351.60467	0.99038
2349.55087	0.99012
2347.49707	0.99013
2345.44326	0.99069
2343.38946	0.99115
2341.33566	0.99098
2339.28186	0.99059
2337.22805	0.99067
2335.17425	0.99120
2333.12045	0.99144
2331.06664	0.99067
2329.01284	0.98972
2326.95904	0.98962
2324.90523	0.98946
2322.85143	0.98900
2320.79763	0.98921
2318.74382	0.98948
2316.69002	0.98933
2314.63622	0.98969
2312.58241	0.99005
2310.52861	0.98981
2308.47481	0.98979
2306.42100	0.99062
2304.36720	0.99165
2302.31340	0.99175
2300.25959	0.99135
2298.20579	0.99137
2296.15199	0.99147
2294.09818	0.99097
2292.04438	0.98985
2289.99058	0.98893
2287.93677	0.98936
2285.88297	0.99052
2283.82917	0.99083
2281.77537	0.99092
2279.72156	0.99198
2277.66776	0.99312
2275.61396	0.99310
2273.56015	0.99231
2271.50635	0.99175
2269.45255	0.99161
2267.39874	0.99136
2265.34494	0.99111
2263.29114	0.99161
2261.23733	0.99255
2259.18353	0.99283
2257.12973	0.99195
2255.07592	0.99092
2253.02212	0.99060
2250.96832	0.99105
2248.91451	0.99188
2246.86071	0.99174
2244.80691	0.99131
2242.75310	0.99161
2240.69930	0.99081
2238.64550	0.98880
2236.59169	0.98853
2234.53789	0.99072
2232.48409	0.99271
2230.43029	0.99289
2228.37648	0.99240
2226.32268	0.99247
2224.26888	0.99270
2222.21507	0.99258
2220.16127	0.99265
2218.10747	0.99277
2216.05366	0.99266
2213.99986	0.99307
2211.94606	0.99374
2209.89225	0.99342
2207.83845	0.99214
2205.78465	0.99115
2203.73084	0.99149
2201.67704	0.99199
2199.62324	0.99117
2197.56943	0.99017
2195.51563	0.99028
2193.46183	0.99068
2191.40802	0.99022
2189.35422	0.99046
2187.30042	0.99277
2185.24661	0.99423
2183.19281	0.99312
2181.13901	0.99178
2179.08520	0.99187
2177.03140	0.99323
2174.97760	0.99367
2172.92380	0.99225
2170.86999	0.99152
2168.81619	0.99189
2166.76239	0.99247
2164.70858	0.99431
2162.65478	0.99588
2160.60098	0.99555
2158.54717	0.99553
2156.49337	0.99622
2154.43957	0.99517
2152.38576	0.99291
2150.33196	0.99248
2148.27816	0.99357
2146.22435	0.99385
2144.17055	0.99412
2142.11675	0.99422
2140.06294	0.99293
2138.00914	0.99230
2135.95534	0.99304
2133.90153	0.99348
2131.84773	0.99361
2129.79393	0.99393
2127.74012	0.99386
2125.68632	0.99332
2123.63252	0.99280
2121.57871	0.99200
2119.52491	0.99180
2117.47111	0.99287
2115.41731	0.99312
2113.36350	0.99223
2111.30970	0.99229
2109.25590	0.99314
2107.20209	0.99351
2105.14829	0.99370
2103.09449	0.99417
2101.04068	0.99375
2098.98688	0.99207
2096.93308	0.99131
2094.87927	0.99241
2092.82547	0.99349
2090.77167	0.99347
2088.71786	0.99316
2086.66406	0.99324
2084.61026	0.99352
2082.55645	0.99313
2080.50265	0.99202
2078.44885	0.99104
2076.39504	0.99067
2074.34124	0.99102
2072.28744	0.99132
2070.23363	0.99139
2068.17983	0.99249
2066.12603	0.99380
2064.07223	0.99334
2062.01842	0.99176
2059.96462	0.99099
2057.91082	0.99234
2055.85701	0.99438
2053.80321	0.99393
2051.74941	0.99204
2049.69560	0.99206
2047.64180	0.99378
2045.58800	0.99398
2043.53419	0.99224
2041.48039	0.99231
2039.42659	0.99525
2037.37278	0.99820
2035.31898	1.00039
2033.26518	1.00094
2031.21137	0.99785
2029.15757	0.99459
2027.10377	0.99426
2025.04996	0.99399
2022.99616	0.99378
2020.94236	0.99442
2018.88855	0.99354
2016.83475	0.99300
2014.78095	0.99536
2012.72714	0.99769
2010.67334	0.99761
2008.61954	0.99613
2006.56574	0.99432
2004.51193	0.99429
2002.45813	0.99744
2000.40433	0.99994
1998.35052	0.99939
1996.29672	0.99813
1994.24292	0.99617
1992.18911	0.99347
1990.13531	0.99282
1988.08151	0.99314
1986.02770	0.99252
1983.97390	0.99208
1981.92010	0.99187
1979.86629	0.99189
1977.81249	0.99316
1975.75869	0.99533
1973.70488	0.99798
1971.65108	1.00026
1969.59728	1.00005
1967.54347	0.99702
1965.48967	0.99367
1963.43587	0.99329
1961.38206	0.99549
1959.32826	0.99595
1957.27446	0.99399
1955.22066	0.99333
1953.16685	0.99371
1951.11305	0.99342
1949.05925	0.99333
1947.00544	0.99322
1944.95164	0.99328
1942.89784	0.99452
1940.84403	0.99584
1938.79023	0.99560
1936.73643	0.99395
1934.68262	0.99289
1932.62882	0.99330
1930.57502	0.99353
1928.52121	0.99312
1926.46741	0.99269
1924.41361	0.99233
1922.35980	0.99301
1920.30600	0.99406
1918.25220	0.99395
1916.19839	0.99347
1914.14459	0.99317
1912.09079	0.99238
1910.03698	0.99086
1907.98318	0.99025
1905.92938	0.99105
1903.87557	0.99131
1901.82177	0.99124
1899.76797	0.99201
1897.71417	0.99297
1895.66036	0.99314
1893.60656	0.99212
1891.55276	0.99084
1889.49895	0.99037
1887.44515	0.99080
1885.39135	0.99159
1883.33754	0.99177
1881.28374	0.99141
1879.22994	0.99183
1877.17613	0.99256
1875.12233	0.99268
1873.06853	0.99267
1871.01472	0.99251
1868.96092	0.99198
1866.90712	0.99138
1864.85331	0.99127
1862.79951	0.99161
1860.74571	0.99170
1858.69190	0.99170
1856.63810	0.99164
1854.58430	0.99078
1852.53049	0.98980
1850.47669	0.98982
1848.42289	0.99066
1846.36908	0.99152
1844.31528	0.99172
1842.26148	0.99129
1840.20768	0.99114
1838.15387	0.99154
1836.10007	0.99172
1834.04627	0.99137
1831.99246	0.99112
1829.93866	0.99113
1827.88486	0.99119
1825.83105	0.99115
1823.77725	0.99094
1821.72345	0.99073
1819.66964	0.99049
1817.61584	0.99003
1815.56204	0.98978
1813.50823	0.99026
1811.45443	0.99073
1809.40063	0.99032
1807.34682	0.98974
1805.29302	0.98980
1803.23922	0.99021
1801.18541	0.99037
1799.13161	0.99032
1797.07781	0.99039
1795.02400	0.99043
1792.97020	0.99000
1790.91640	0.98948
1788.86260	0.98992
1786.80879	0.99055
1784.75499	0.99043
1782.70119	0.98977
1780.64738	0.98918
1778.59358	0.98904
1776.53978	0.98923
1774.48597	0.98924
1772.43217	0.98895
1770.37837	0.98907
1768.32456	0.98974
1766.27076	0.99012
1764.21696	0.98999
1762.16315	0.98967
1760.10935	0.98951
1758.05555	0.98971
1756.00174	0.98999
1753.94794	0.99008
1751.89414	0.99024
1749.84033	0.99059
1747.78653	0.99041
1745.73273	0.98973
1743.67892	0.98943
1741.62512	0.98933
1739.57132	0.98900
1737.51751	0.98886
1735.46371	0.98897
1733.40991	0.98858
1731.35611	0.98794
1729.30230	0.98786
1727.24850	0.98808
1725.19470	0.98805
1723.14089	0.98779
1721.08709	0.98765
1719.03329	0.98760
1716.97948	0.98735
1714.92568	0.98711
1712.87188	0.98713
1710.81807	0.98727
1708.76427	0.98752
1706.71047	0.98780
1704.65666	0.98792
1702.60286	0.98774
1700.54906	0.98720
1698.49525	0.98651
1696.44145	0.98614
1694.38765	0.98617
1692.33384	0.98624
1690.28004	0.98598
1688.22624	0.98560
1686.17243	0.98536
1684.11863	0.98464
1682.06483	0.98406
1680.01103	0.98432
1677.95722	0.98456
1675.90342	0.98447
1673.84962	0.98413
1671.79581	0.98391
1669.74201	0.98373
1667.68821	0.98342
1665.63440	0.98321
1663.58060	0.98291
1661.52680	0.98230
1659.47299	0.98181
1657.41919	0.98160
1655.36539	0.98155
1653.31158	0.98193
1651.25778	0.98222
1649.20398	0.98224
1647.15017	0.98250
1645.09637	0.98233
1643.04257	0.98195
1640.98876	0.98218
1638.93496	0.98281
1636.88116	0.98334
1634.82735	0.98309
1632.77355	0.98234
1630.71975	0.98181
1628.66594	0.98142
1626.61214	0.98124
1624.55834	0.98134
1622.50454	0.98159
1620.45073	0.98184
1618.39693	0.98224
1616.34313	0.98271
1614.28932	0.98284
1612.23552	0.98295
1610.18172	0.98309
1608.12791	0.98310
1606.07411	0.98311
1604.02031	0.98315
1601.96650	0.98314
1599.91270	0.98305
1597.85890	0.98297
1595.80509	0.98302
1593.75129	0.98319
1591.69749	0.98337
1589.64368	0.98361
1587.58988	0.98400
1585.53608	0.98416
1583.48227	0.98372
1581.42847	0.98304
1579.37467	0.98266
1577.32086	0.98279
1575.26706	0.98347
1573.21326	0.98420
1571.15945	0.98451
1569.10565	0.98438
1567.05185	0.98420
1564.99805	0.98419
1562.94424	0.98399
1560.89044	0.98336
1558.83664	0.98286
1556.78283	0.98308
1554.72903	0.98294
1552.67523	0.98288
1550.62142	0.98314
1548.56762	0.98318
1546.51382	0.98286
1544.46001	0.98228
1542.40621	0.98152
1540.35241	0.98113
1538.29860	0.98112
1536.24480	0.98081
1534.19100	0.98018
1532.13719	0.97972
1530.08339	0.97951
1528.02959	0.97908
1525.97578	0.97843
1523.92198	0.97777
1521.86818	0.97691
1519.81437	0.97596
1517.76057	0.97524
1515.70677	0.97477
1513.65297	0.97444
1511.59916	0.97391
1509.54536	0.97339
1507.49156	0.97301
1505.43775	0.97187
1503.38395	0.97095
1501.33015	0.97041
1499.27634	0.96970
1497.22254	0.96883
1495.16874	0.96823
1493.11493	0.96788
1491.06113	0.96750
1489.00733	0.96680
1486.95352	0.96578
1484.89972	0.96471
1482.84592	0.96383
1480.79211	0.96326
1478.73831	0.96291
1476.68451	0.96273
1474.63070	0.96250
1472.57690	0.96142
1470.52310	0.95918
1468.46929	0.95657
1466.41549	0.95341
1464.36169	0.94931
1462.30788	0.94591
1460.25408	0.94387
1458.20028	0.94238
1456.14648	0.94175
1454.09267	0.94203
1452.03887	0.94266
1449.98507	0.94417
1447.93126	0.94727
1445.87746	0.95124
1443.82366	0.95468
1441.76985	0.95725
1439.71605	0.95878
1437.66225	0.95940
1435.60844	0.95987
1433.55464	0.96132
1431.50084	0.96357
1429.44703	0.96567
1427.39323	0.96701
1425.33943	0.96808
1423.28562	0.96913
1421.23182	0.97013
1419.17802	0.97133
1417.12421	0.97256
1415.07041	0.97350
1413.01661	0.97426
1410.96280	0.97477
1408.90900	0.97522
1406.85520	0.97590
1404.80139	0.97679
1402.74759	0.97752
1400.69379	0.97807
1398.63999	0.97885
1396.58618	0.97972
1394.53238	0.98018
1392.47858	0.98024
1390.42477	0.98018
1388.37097	0.97988
1386.31717	0.97850
1384.26336	0.97513
1382.20956	0.96886
1380.15576	0.95899
1378.10195	0.94813
1376.04815	0.94232
1373.99435	0.94569
1371.94054	0.95485
1369.88674	0.96353
1367.83294	0.96946
1365.77913	0.97233
1363.72533	0.97326
1361.67153	0.97334
1359.61772	0.97321
1357.56392	0.97347
1355.51012	0.97452
1353.45631	0.97612
1351.40251	0.97754
1349.34871	0.97852
1347.29491	0.97931
1345.24110	0.97997
1343.18730	0.98042
1341.13350	0.98076
1339.07969	0.98102
1337.02589	0.98098
1334.97209	0.98085
1332.91828	0.98089
1330.86448	0.98085
1328.81068	0.98073
1326.75687	0.98098
1324.70307	0.98146
1322.64927	0.98153
1320.59546	0.98120
1318.54166	0.98117
1316.48786	0.98153
1314.43405	0.98162
1312.38025	0.98133
1310.32645	0.98121
1308.27264	0.98118
1306.21884	0.98086
1304.16504	0.98048
1302.11123	0.98045
1300.05743	0.98053
1298.00363	0.98025
1295.94982	0.97999
1293.89602	0.98016
1291.84222	0.98044
1289.78842	0.98059
1287.73461	0.98055
1285.68081	0.98037
1283.62701	0.98018
1281.57320	0.98001
1279.51940	0.98004
1277.46560	0.98019
1275.41179	0.98029
1273.35799	0.98037
1271.30419	0.98037
1269.25038	0.98020
1267.19658	0.98000
1265.14278	0.97991
1263.08897	0.97975
1261.03517	0.97939
1258.98137	0.97882
1256.92756	0.97818
1254.87376	0.97783
1252.81996	0.97764
1250.76615	0.97740
1248.71235	0.97728
1246.65855	0.97731
1244.60474	0.97713
1242.55094	0.97668
1240.49714	0.97636
1238.44334	0.97624
1236.38953	0.97605
1234.33573	0.97588
1232.28193	0.97576
1230.22812	0.97535
1228.17432	0.97444
1226.12052	0.97328
1224.06671	0.97230
1222.01291	0.97153
1219.95911	0.97063
1217.90530	0.96955
1215.85150	0.96835
1213.79770	0.96698
1211.74389	0.96555
1209.69009	0.96411
1207.63629	0.96246
1205.58248	0.96067
1203.52868	0.95896
1201.47488	0.95714
1199.42107	0.95493
1197.36727	0.95264
1195.31347	0.95069
1193.25966	0.94884
1191.20586	0.94666
1189.15206	0.94420
1187.09825	0.94165
1185.04445	0.93923
1182.99065	0.93688
1180.93685	0.93419
1178.88304	0.93117
1176.82924	0.92853
1174.77544	0.92616
1172.72163	0.92317
1170.66783	0.91966
1168.61403	0.91663
1166.56022	0.91439
1164.50642	0.91242
1162.45262	0.91072
1160.39881	0.90993
1158.34501	0.90986
1156.29121	0.90948
1154.23740	0.90845
1152.18360	0.90718
1150.12980	0.90608
1148.07599	0.90524
1146.02219	0.90421
1143.96839	0.90289
1141.91458	0.90195
1139.86078	0.90154
1137.80698	0.90096
1135.75317	0.89998
1133.69937	0.89899
1131.64557	0.89792
1129.59176	0.89663
1127.53796	0.89517
1125.48416	0.89335
1123.43036	0.89117
1121.37655	0.88902
1119.32275	0.88682
1117.26895	0.88454
1115.21514	0.88240
1113.16134	0.88003
1111.10754	0.87747
1109.05373	0.87527
1106.99993	0.87322
1104.94613	0.87111
1102.89232	0.86905
1100.83852	0.86709
1098.78472	0.86541
1096.73091	0.86403
1094.67711	0.86272
1092.62331	0.86147
1090.56950	0.86051
1088.51570	0.85981
1086.46190	0.85915
1084.40809	0.85856
1082.35429	0.85816
1080.30049	0.85766
1078.24668	0.85681
1076.19288	0.85600
1074.13908	0.85542
1072.08528	0.85448
1070.03147	0.85305
1067.97767	0.85146
1065.92387	0.84940
1063.87006	0.84649
1061.81626	0.84355
1059.76246	0.84173
1057.70865	0.84041
1055.65485	0.83842
1053.60105	0.83582
1051.54724	0.83260
1049.49344	0.82885
1047.43964	0.82508
1045.38583	0.82125
1043.33203	0.81741
1041.27823	0.81360
1039.22442	0.80977
1037.17062	0.80615
1035.11682	0.80259
1033.06301	0.79900
1031.00921	0.79590
1028.95541	0.79355
1026.90160	0.79174
1024.84780	0.79015
1022.79400	0.78849
1020.74019	0.78682
1018.68639	0.78511
1016.63259	0.78320
1014.57879	0.78149
1012.52498	0.78009
1010.47118	0.77846
1008.41738	0.77683
1006.36357	0.77576
1004.30977	0.77481
1002.25597	0.77364
1000.20216	0.77249
998.14836	0.77141
996.09456	0.77096
994.04075	0.77189
991.98695	0.77364
989.93315	0.77564
987.87934	0.77785
985.82554	0.78003
983.77174	0.78248
981.71793	0.78571
979.66413	0.78912
977.61033	0.79179
975.55652	0.79405
973.50272	0.79671
971.44892	0.80082
969.39511	0.80713
967.34131	0.81434
965.28751	0.82081
963.23371	0.82656
961.17990	0.83217
959.12610	0.83749
957.07230	0.84230
955.01849	0.84651
952.96469	0.84998
950.91089	0.85314
948.85708	0.85641
946.80328	0.85952
944.74948	0.86235
942.69567	0.86488
940.64187	0.86705
938.58807	0.86940
936.53426	0.87217
934.48046	0.87507
932.42666	0.87782
930.37285	0.87987
928.31905	0.88150
926.26525	0.88333
924.21144	0.88481
922.15764	0.88579
920.10384	0.88705
918.05003	0.88863
915.99623	0.88987
913.94243	0.89060
911.88862	0.89135
909.83482	0.89298
907.78102	0.89530
905.72722	0.89760
903.67341	0.89972
901.61961	0.90151
899.56581	0.90334
897.51200	0.90579
895.45820	0.90892
893.40440	0.91253
891.35059	0.91594
889.29679	0.91858
887.24299	0.92037
885.18918	0.92107
883.13538	0.92085
881.08158	0.92075
879.02777	0.92090
876.97397	0.92076
874.92017	0.92130
872.86636	0.92376
870.81256	0.92704
868.75876	0.92923
866.70495	0.93016
864.65115	0.93027
862.59735	0.92997
860.54354	0.93056
858.48974	0.93255
856.43594	0.93514
854.38213	0.93768
852.32833	0.93963
850.27453	0.94086
848.22073	0.94158
846.16692	0.94080
844.11312	0.93788
842.05932	0.93484
840.00551	0.93420
837.95171	0.93589
835.89791	0.93780
833.84410	0.93825
831.79030	0.93784
829.73650	0.93789
827.68269	0.93816
825.62889	0.93827
823.57509	0.93857
821.52128	0.93920
819.46748	0.94002
817.41368	0.94054
815.35987	0.93994
813.30607	0.93786
811.25227	0.93494
809.19846	0.93180
807.14466	0.92758
805.09086	0.92171
803.03705	0.91604
800.98325	0.91223
798.92945	0.91035
796.87565	0.91059
794.82184	0.91295
792.76804	0.91574
790.71424	0.91712
788.66043	0.91715
786.60663	0.91668
784.55283	0.91583
782.49902	0.91480
780.44522	0.91419
778.39142	0.91438
776.33761	0.91565
774.28381	0.91766
772.23001	0.91972
770.17620	0.92112
768.12240	0.92147
766.06860	0.92110
764.01479	0.92020
761.96099	0.91903
759.90719	0.91831
757.85338	0.91881
755.79958	0.91989
753.74578	0.92009
751.69197	0.92005
749.63817	0.92039
747.58437	0.92060
745.53056	0.92086
743.47676	0.92140
741.42296	0.92209
739.36916	0.92289
737.31535	0.92380
735.26155	0.92438
733.20775	0.92434
731.15394	0.92422
729.10014	0.92395
727.04634	0.92294
724.99253	0.92222
722.93873	0.92319
720.88493	0.92544
718.83112	0.92748
716.77732	0.92841
714.72352	0.92866
712.66971	0.92847
710.61591	0.92799
708.56211	0.92768
706.50830	0.92736
704.45450	0.92705
702.40070	0.92669
700.34689	0.92504
698.29309	0.92211
696.23929	0.91987
694.18548	0.91902
692.13168	0.91918
690.07788	0.92043
688.02408	0.92217
685.97027	0.92369
683.91647	0.92415
681.86267	0.92307
679.80886	0.92196
677.75506	0.92187
675.70126	0.92176
673.64745	0.92134
671.59365	0.92139
669.53985	0.92076
667.48604	0.91902
665.43224	0.91967
663.37844	0.92133
661.32463	0.92154
659.27083	0.91972
657.21703	0.91714
655.16322	0.91481
653.10942	0.91235
651.05562	0.91054
649.00181	0.91029
646.94801	0.91090
644.89421	0.91169
642.84040	0.91264
640.78660	0.91379
638.73280	0.91499
636.67899	0.91575
634.62519	0.91581
632.57139	0.91604
630.51759	0.91699
628.46378	0.91762
626.40998	0.91785
624.35618	0.91745
622.30237	0.91559
620.24857	0.91352
618.19477	0.91108
616.14096	0.90615
614.08716	0.90126
612.03336	0.90015
609.97955	0.90072
607.92575	0.89955
605.87195	0.89702
603.81814	0.89503
601.76434	0.89359
599.71054	0.89121
597.65673	0.88764
595.60293	0.88389
593.54913	0.88125
591.49532	0.87960
589.44152	0.87889
587.38772	0.87948
585.33391	0.88002
583.28011	0.88037
581.22631	0.88174
579.17250	0.88333
577.11870	0.88373
575.06490	0.88369
573.01110	0.88322
570.95729	0.88063
568.90349	0.87719
566.84969	0.87559
564.79588	0.87510
562.74208	0.87464
560.68828	0.87428
558.63447	0.87282
556.58067	0.86986
554.52687	0.86660
552.47306	0.86337
550.41926	0.85968
548.36546	0.85532
546.31165	0.85077
544.25785	0.84648
542.20405	0.84261
540.15024	0.83914
538.09644	0.83463
536.04264	0.82903
533.98883	0.82569
531.93503	0.82498
529.88123	0.82329
527.82742	0.82098
525.77362	0.82109
523.71982	0.82378
521.66602	0.82818
519.61221	0.83170
517.55841	0.83070
515.50461	0.82841
513.45080	0.82978
511.39700	0.83367
509.34320	0.83706
507.28939	0.83832
505.23559	0.83887
503.18179	0.84049
501.12798	0.84176
499.07418	0.84217
497.02038	0.84187
494.96657	0.84034
492.91277	0.83765
490.85897	0.83354
488.80516	0.82801
486.75136	0.82064
484.69756	0.81208
482.64375	0.80457
480.58995	0.79737
478.53615	0.78962
476.48234	0.78293
474.42854	0.77670
472.37474	0.77045
470.32093	0.76586
468.26713	0.76322
466.21333	0.76299
464.15953	0.76482
462.10572	0.76730
460.05192	0.76873
457.99812	0.76887
455.94431	0.77091
453.89051	0.77626
451.83671	0.78208
449.78290	0.78438
447.72910	0.78622
445.67530	0.79075
443.62149	0.79324
441.56769	0.79079
439.51389	0.78509
437.46008	0.78069
435.40628	0.77998
433.35248	0.78172
431.29867	0.78551
429.24487	0.78782
427.19107	0.78779
425.13726	0.78848
423.08346	0.78968
421.02966	0.78960
418.97585	0.78601
416.92205	0.78547
414.86825	0.79128
412.81445	0.79715
410.76064	0.80065
408.70684	0.80439
406.65304	0.80993
404.59923	0.81665
402.54543	0.81962
400.49163	0.81373
398.43782	0.79916
