3996.70104	0.98169
3994.64724	0.98203
3992.59344	0.98271
3990.53964	0.98279
3988.48583	0.98209
3986.43203	0.98147
3984.37823	0.98128
3982.32442	0.98113
3980.27062	0.98127
3978.21682	0.98174
3976.16301	0.98206
3974.10921	0.98237
3972.05541	0.98249
3970.00160	0.98193
3967.94780	0.98143
3965.89400	0.98138
3963.84019	0.98160
3961.78639	0.98243
3959.73259	0.98308
3957.67878	0.98298
3955.62498	0.98298
3953.57118	0.98311
3951.51737	0.98292
3949.46357	0.98236
3947.40977	0.98173
3945.35596	0.98187
3943.30216	0.98241
3941.24836	0.98223
3939.19455	0.98187
3937.14075	0.98210
3935.08695	0.98231
3933.03315	0.98226
3930.97934	0.98262
3928.92554	0.98335
3926.87174	0.98372
3924.81793	0.98329
3922.76413	0.98252
3920.71033	0.98196
3918.65652	0.98175
3916.60272	0.98229
3914.54892	0.98309
3912.49511	0.98326
3910.44131	0.98284
3908.38751	0.98269
3906.33370	0.98334
3904.27990	0.98391
3902.22610	0.98372
3900.17229	0.98319
3898.11849	0.98251
3896.06469	0.98214
3894.01088	0.98197
3891.95708	0.98171
3889.90328	0.98186
3887.84947	0.98241
3885.79567	0.98287
3883.74187	0.98301
3881.68807	0.98274
3879.63426	0.98226
3877.58046	0.98228
3875.52666	0.98247
3873.47285	0.98246
3871.41905	0.98258
3869.36525	0.98272
3867.31144	0.98284
3865.25764	0.98290
3863.20384	0.98254
3861.15003	0.98235
3859.09623	0.98233
3857.04243	0.98196
3854.98862	0.98190
3852.93482	0.98255
3850.88102	0.98260
3848.82721	0.98242
3846.77341	0.98235
3844.71961	0.98212
3842.66580	0.98176
3840.61200	0.98165
3838.55820	0.98221
3836.50439	0.98296
3834.45059	0.98293
3832.39679	0.98227
3830.34298	0.98164
3828.28918	0.98158
3826.23538	0.98214
3824.18158	0.98273
3822.12777	0.98286
3820.07397	0.98301
3818.02017	0.98385
3815.96636	0.98453
3813.91256	0.98384
3811.85876	0.98276
3809.80495	0.98231
3807.75115	0.98228
3805.69735	0.98227
3803.64354	0.98217
3801.58974	0.98244
3799.53594	0.98267
3797.48213	0.98227
3795.42833	0.98229
3793.37453	0.98278
3791.32072	0.98291
3789.26692	0.98276
3787.21312	0.98265
3785.15931	0.98248
3783.10551	0.98229
3781.05171	0.98238
3778.99790	0.98267
3776.94410	0.98230
3774.89030	0.98148
3772.83650	0.98107
3770.78269	0.98105
3768.72889	0.98119
3766.67509	0.98147
3764.62128	0.98186
3762.56748	0.98200
3760.51368	0.98151
3758.45987	0.98101
3756.40607	0.98138
3754.35227	0.98244
3752.29846	0.98386
3750.24466	0.98440
3748.19086	0.98353
3746.13705	0.98227
3744.08325	0.98135
3742.02945	0.98121
3739.97564	0.98108
3737.92184	0.98116
3735.86804	0.98139
3733.81423	0.98082
3731.76043	0.98042
3729.70663	0.98101
3727.65282	0.98119
3725.59902	0.97980
3723.54522	0.97781
3721.49141	0.97677
3719.43761	0.97628
3717.38381	0.97523
3715.33001	0.97325
3713.27620	0.96942
3711.22240	0.96294
3709.16860	0.95669
3707.11479	0.95152
3705.06099	0.94606
3703.00719	0.94026
3700.95338	0.93446
3698.89958	0.93054
3696.84578	0.92948
3694.79197	0.93054
3692.73817	0.93284
3690.68437	0.93573
3688.63056	0.93904
3686.57676	0.94233
3684.52296	0.94501
3682.46915	0.94700
3680.41535	0.94804
3678.36155	0.94810
3676.30774	0.94734
3674.25394	0.94671
3672.20014	0.94674
3670.14633	0.94568
3668.09253	0.94325
3666.03873	0.94192
3663.98492	0.94130
3661.93112	0.94002
3659.87732	0.93861
3657.82352	0.93785
3655.76971	0.93701
3653.71591	0.93585
3651.66211	0.93506
3649.60830	0.93453
3647.55450	0.93354
3645.50070	0.93284
3643.44689	0.93236
3641.39309	0.93123
3639.33929	0.92996
3637.28548	0.92964
3635.23168	0.92940
3633.17788	0.92801
3631.12407	0.92605
3629.07027	0.92264
3627.01647	0.91838
3624.96266	0.91642
3622.90886	0.91600
3620.85506	0.91642
3618.80125	0.91762
3616.74745	0.91906
3614.69365	0.92000
3612.63984	0.92122
3610.58604	0.92266
3608.53224	0.92278
3606.47844	0.92242
3604.42463	0.92305
3602.37083	0.92354
3600.31703	0.92334
3598.26322	0.92364
3596.20942	0.92445
3594.15562	0.92447
3592.10181	0.92385
3590.04801	0.92352
3587.99421	0.92317
3585.94040	0.92253
3583.88660	0.92224
3581.83280	0.92218
3579.77899	0.92192
3577.72519	0.92104
3575.67139	0.91962
3573.61758	0.91861
3571.56378	0.91840
3569.50998	0.91817
3567.45617	0.91675
3565.40237	0.91443
3563.34857	0.91314
3561.29476	0.91308
3559.24096	0.91324
3557.18716	0.91277
3555.13335	0.91201
3553.07955	0.91079
3551.02575	0.90939
3548.97195	0.90899
3546.91814	0.90866
3544.86434	0.90772
3542.81054	0.90722
3540.75673	0.90691
3538.70293	0.90630
3536.64913	0.90574
3534.59532	0.90523
3532.54152	0.90454
3530.48772	0.90425
3528.43391	0.90476
3526.38011	0.90517
3524.32631	0.90522
3522.27250	0.90545
3520.21870	0.90585
3518.16490	0.90606
3516.11109	0.90572
3514.05729	0.90527
3512.00349	0.90529
3509.94968	0.90522
3507.89588	0.90493
3505.84208	0.90515
3503.78827	0.90561
3501.73447	0.90545
3499.68067	0.90468
3497.62687	0.90400
3495.57306	0.90375
3493.51926	0.90370
3491.46546	0.90334
3489.41165	0.90243
3487.35785	0.90146
3485.30405	0.90092
3483.25024	0.90079
3481.19644	0.90098
3479.14264	0.90114
3477.08883	0.90068
3475.03503	0.89985
3472.98123	0.89924
3470.92742	0.89896
3468.87362	0.89894
3466.81982	0.89868
3464.76601	0.89803
3462.71221	0.89722
3460.65841	0.89626
3458.60460	0.89543
3456.55080	0.89494
3454.49700	0.89461
3452.44319	0.89427
3450.38939	0.89382
3448.33559	0.89298
3446.28178	0.89195
3444.22798	0.89157
3442.17418	0.89147
3440.12038	0.89117
3438.06657	0.89092
3436.01277	0.89041
3433.95897	0.88943
3431.90516	0.88837
3429.85136	0.88735
3427.79756	0.88657
3425.74375	0.88617
3423.68995	0.88543
3421.63615	0.88429
3419.58234	0.88346
3417.52854	0.88281
3415.47474	0.88198
3413.42093	0.88103
3411.36713	0.88006
3409.31333	0.87927
3407.25952	0.87888
3405.20572	0.87865
3403.15192	0.87801
3401.09811	0.87747
3399.04431	0.87777
3396.99051	0.87828
3394.93670	0.87818
3392.88290	0.87766
3390.82910	0.87736
3388.77529	0.87764
3386.72149	0.87801
3384.66769	0.87805
3382.61389	0.87820
3380.56008	0.87879
3378.50628	0.87948
3376.45248	0.87977
3374.39867	0.87936
3372.34487	0.87907
3370.29107	0.87955
3368.23726	0.88024
3366.18346	0.88068
3364.12966	0.88087
3362.07585	0.88084
3360.02205	0.88055
3357.96825	0.88011
3355.91444	0.87988
3353.86064	0.88015
3351.80684	0.88080
3349.75303	0.88133
3347.69923	0.88159
3345.64543	0.88191
3343.59162	0.88237
3341.53782	0.88240
3339.48402	0.88195
3337.43021	0.88184
3335.37641	0.88233
3333.32261	0.88289
3331.26881	0.88295
3329.21500	0.88272
3327.16120	0.88275
3325.10740	0.88302
3323.05359	0.88339
3320.99979	0.88388
3318.94599	0.88413
3316.89218	0.88400
3314.83838	0.88409
3312.78458	0.88445
3310.73077	0.88448
3308.67697	0.88435
3306.62317	0.88465
3304.56936	0.88542
3302.51556	0.88604
3300.46176	0.88612
3298.40795	0.88618
3296.35415	0.88669
3294.30035	0.88699
3292.24654	0.88668
3290.19274	0.88636
3288.13894	0.88623
3286.08513	0.88632
3284.03133	0.88696
3281.97753	0.88789
3279.92372	0.88844
3277.86992	0.88876
3275.81612	0.88932
3273.76232	0.88949
3271.70851	0.88903
3269.65471	0.88879
3267.60091	0.88942
3265.54710	0.89068
3263.49330	0.89126
3261.43950	0.89092
3259.38569	0.89127
3257.33189	0.89269
3255.27809	0.89375
3253.22428	0.89409
3251.17048	0.89423
3249.11668	0.89423
3247.06287	0.89438
3245.00907	0.89514
3242.95527	0.89620
3240.90146	0.89697
3238.84766	0.89724
3236.79386	0.89719
3234.74005	0.89705
3232.68625	0.89712
3230.63245	0.89774
3228.57864	0.89855
3226.52484	0.89914
3224.47104	0.89994
3222.41724	0.90117
3220.36343	0.90242
3218.30963	0.90330
3216.25583	0.90360
3214.20202	0.90358
3212.14822	0.90386
3210.09442	0.90461
3208.04061	0.90556
3205.98681	0.90634
3203.93301	0.90696
3201.87920	0.90774
3199.82540	0.90870
3197.77160	0.90946
3195.71779	0.90997
3193.66399	0.91062
3191.61019	0.91140
3189.55638	0.91200
3187.50258	0.91206
3185.44878	0.91172
3183.39497	0.91197
3181.34117	0.91305
3179.28737	0.91398
3177.23356	0.91464
3175.17976	0.91578
3173.12596	0.91701
3171.07215	0.91760
3169.01835	0.91798
3166.96455	0.91872
3164.91075	0.91958
3162.85694	0.92024
3160.80314	0.92077
3158.74934	0.92142
3156.69553	0.92237
3154.64173	0.92338
3152.58793	0.92396
3150.53412	0.92404
3148.48032	0.92426
3146.42652	0.92505
3144.37271	0.92605
3142.31891	0.92691
3140.26511	0.92776
3138.21130	0.92847
3136.15750	0.92888
3134.10370	0.92943
3132.04989	0.93005
3129.99609	0.93054
3127.94229	0.93133
3125.88848	0.93229
3123.83468	0.93303
3121.78088	0.93318
3119.72707	0.93283
3117.67327	0.93305
3115.61947	0.93384
3113.56566	0.93442
3111.51186	0.93470
3109.45806	0.93513
3107.40426	0.93581
3105.35045	0.93624
3103.29665	0.93649
3101.24285	0.93674
3099.18904	0.93668
3097.13524	0.93657
3095.08144	0.93692
3093.02763	0.93760
3090.97383	0.93830
3088.92003	0.93878
3086.86622	0.93891
3084.81242	0.93893
3082.75862	0.93913
3080.70481	0.93965
3078.65101	0.94015
3076.59721	0.94023
3074.54340	0.94021
3072.48960	0.94051
3070.43580	0.94104
3068.38199	0.94142
3066.32819	0.94160
3064.27439	0.94187
3062.22058	0.94224
3060.16678	0.94236
3058.11298	0.94240
3056.05918	0.94285
3054.00537	0.94356
3051.95157	0.94399
3049.89777	0.94417
3047.84396	0.94449
3045.79016	0.94503
3043.73636	0.94566
3041.68255	0.94602
3039.62875	0.94602
3037.57495	0.94619
3035.52114	0.94684
3033.46734	0.94766
3031.41354	0.94804
3029.35973	0.94807
3027.30593	0.94852
3025.25213	0.94898
3023.19832	0.94891
3021.14452	0.94886
3019.09072	0.94892
3017.03691	0.94901
3014.98311	0.94950
3012.92931	0.95000
3010.87550	0.94978
3008.82170	0.94949
3006.76790	0.94990
3004.71409	0.95037
3002.66029	0.95058
3000.60649	0.95057
2998.55269	0.94997
2996.49888	0.94911
2994.44508	0.94825
2992.39128	0.94742
2990.33747	0.94696
2988.28367	0.94687
2986.22987	0.94647
2984.17606	0.94539
2982.12226	0.94402
2980.06846	0.94256
2978.01465	0.94104
2975.96085	0.93942
2973.90705	0.93735
2971.85324	0.93467
2969.79944	0.93149
2967.74564	0.92803
2965.69183	0.92435
2963.63803	0.92040
2961.58423	0.91642
2959.53042	0.91284
2957.47662	0.90981
2955.42282	0.90709
2953.36901	0.90459
2951.31521	0.90227
2949.26141	0.89961
2947.20761	0.89596
2945.15380	0.89032
2943.10000	0.88181
2941.04620	0.87049
2938.99239	0.85672
2936.93859	0.84043
2934.88479	0.82153
2932.83098	0.79982
2930.77718	0.77512
2928.72338	0.74739
2926.66957	0.71587
2924.61577	0.67968
2922.56197	0.63916
2920.50816	0.59643
2918.45436	0.55603
2916.40056	0.52540
2914.34675	0.51288
2912.29295	0.52144
2910.23915	0.54548
2908.18534	0.57600
2906.13154	0.60660
2904.07774	0.63430
2902.02393	0.65775
2899.97013	0.67709
2897.91633	0.69368
2895.86252	0.70857
2893.80872	0.72264
2891.75492	0.73738
2889.70112	0.75343
2887.64731	0.76983
2885.59351	0.78564
2883.53971	0.80085
2881.48590	0.81562
2879.43210	0.82977
2877.37830	0.84278
2875.32449	0.85394
2873.27069	0.86272
2871.21689	0.86852
2869.16308	0.87109
2867.10928	0.87054
2865.05548	0.86627
2863.00167	0.85696
2860.94787	0.84067
2858.89407	0.81550
2856.84026	0.77965
2854.78646	0.73033
2852.73266	0.66737
2850.67885	0.60090
2848.62505	0.55328
2846.57125	0.54541
2844.51744	0.57825
2842.46364	0.63401
2840.40984	0.69316
2838.35603	0.74476
2836.30223	0.78575
2834.24843	0.81718
2832.19463	0.84130
2830.14082	0.86016
2828.08702	0.87498
2826.03322	0.88663
2823.97941	0.89618
2821.92561	0.90424
2819.87181	0.91087
2817.81800	0.91636
2815.76420	0.92099
2813.71040	0.92487
2811.65659	0.92816
2809.60279	0.93100
2807.54899	0.93370
2805.49518	0.93618
2803.44138	0.93831
2801.38758	0.94032
2799.33377	0.94209
2797.27997	0.94368
2795.22617	0.94541
2793.17236	0.94716
2791.11856	0.94873
2789.06476	0.95022
2787.01095	0.95167
2784.95715	0.95301
2782.90335	0.95418
2780.84955	0.95504
2778.79574	0.95566
2776.74194	0.95644
2774.68814	0.95743
2772.63433	0.95834
2770.58053	0.95899
2768.52673	0.95952
2766.47292	0.96007
2764.41912	0.96059
2762.36532	0.96113
2760.31151	0.96175
2758.25771	0.96229
2756.20391	0.96270
2754.15010	0.96298
2752.09630	0.96319
2750.04250	0.96340
2747.98869	0.96356
2745.93489	0.96362
2743.88109	0.96373
2741.82728	0.96398
2739.77348	0.96432
2737.71968	0.96455
2735.66587	0.96480
2733.61207	0.96517
2731.55827	0.96546
2729.50446	0.96572
2727.45066	0.96593
2725.39686	0.96606
2723.34306	0.96635
2721.28925	0.96673
2719.23545	0.96675
2717.18165	0.96673
2715.12784	0.96708
2713.07404	0.96730
2711.02024	0.96739
2708.96643	0.96787
2706.91263	0.96829
2704.85883	0.96836
2702.80502	0.96843
2700.75122	0.96859
2698.69742	0.96886
2696.64361	0.96926
2694.58981	0.96954
2692.53601	0.96961
2690.48220	0.96958
2688.42840	0.96945
2686.37460	0.96945
2684.32079	0.96964
2682.26699	0.96973
2680.21319	0.96978
2678.15938	0.96994
2676.10558	0.97007
2674.05178	0.96987
2671.99797	0.96928
2669.94417	0.96883
2667.89037	0.96877
2665.83657	0.96885
2663.78276	0.96884
2661.72896	0.96859
2659.67516	0.96834
2657.62135	0.96846
2655.56755	0.96885
2653.51375	0.96908
2651.45994	0.96915
2649.40614	0.96922
2647.35234	0.96924
2645.29853	0.96932
2643.24473	0.96973
2641.19093	0.97036
2639.13712	0.97051
2637.08332	0.97030
2635.02952	0.97036
2632.97571	0.97054
2630.92191	0.97061
2628.86811	0.97078
2626.81430	0.97101
2624.76050	0.97113
2622.70670	0.97144
2620.65289	0.97192
2618.59909	0.97223
2616.54529	0.97263
2614.49149	0.97304
2612.43768	0.97319
2610.38388	0.97350
2608.33008	0.97418
2606.27627	0.97467
2604.22247	0.97462
2602.16867	0.97472
2600.11486	0.97524
2598.06106	0.97566
2596.00726	0.97611
2593.95345	0.97664
2591.89965	0.97676
2589.84585	0.97669
2587.79204	0.97683
2585.73824	0.97710
2583.68444	0.97722
2581.63063	0.97710
2579.57683	0.97713
2577.52303	0.97741
2575.46922	0.97737
2573.41542	0.97724
2571.36162	0.97778
2569.30781	0.97841
2567.25401	0.97855
2565.20021	0.97863
2563.14640	0.97878
2561.09260	0.97857
2559.03880	0.97818
2556.98500	0.97832
2554.93119	0.97896
2552.87739	0.97954
2550.82359	0.97994
2548.76978	0.98013
2546.71598	0.97979
2544.66218	0.97935
2542.60837	0.97931
2540.55457	0.97943
2538.50077	0.97942
2536.44696	0.97908
2534.39316	0.97881
2532.33936	0.97909
2530.28555	0.97953
2528.23175	0.97959
2526.17795	0.97922
2524.12414	0.97908
2522.07034	0.97964
2520.01654	0.98031
2517.96273	0.98056
2515.90893	0.98058
2513.85513	0.98073
2511.80132	0.98110
2509.74752	0.98131
2507.69372	0.98112
2505.63992	0.98088
2503.58611	0.98096
2501.53231	0.98149
2499.47851	0.98204
2497.42470	0.98216
2495.37090	0.98205
2493.31710	0.98179
2491.26329	0.98149
2489.20949	0.98132
2487.15569	0.98123
2485.10188	0.98144
2483.04808	0.98152
2480.99428	0.98093
2478.94047	0.98028
2476.88667	0.98019
2474.83287	0.98035
2472.77906	0.98048
2470.72526	0.98092
2468.67146	0.98155
2466.61765	0.98169
2464.56385	0.98126
2462.51005	0.98091
2460.45624	0.98144
2458.40244	0.98248
2456.34864	0.98295
2454.29483	0.98283
2452.24103	0.98241
2450.18723	0.98234
2448.13343	0.98270
2446.07962	0.98235
2444.02582	0.98205
2441.97202	0.98237
2439.91821	0.98204
2437.86441	0.98118
2435.81061	0.98099
2433.75680	0.98175
2431.70300	0.98219
2429.64920	0.98176
2427.59539	0.98164
2425.54159	0.98252
2423.48779	0.98355
2421.43398	0.98353
2419.38018	0.98254
2417.32638	0.98206
2415.27257	0.98247
2413.21877	0.98281
2411.16497	0.98264
2409.11116	0.98233
2407.05736	0.98205
2405.00356	0.98186
2402.94975	0.98201
2400.89595	0.98251
2398.84215	0.98287
2396.78834	0.98255
2394.73454	0.98198
2392.68074	0.98217
2390.62694	0.98271
2388.57313	0.98266
2386.51933	0.98254
2384.46553	0.98264
2382.41172	0.98218
2380.35792	0.98189
2378.30412	0.98272
2376.25031	0.98377
2374.19651	0.98457
2372.14271	0.98486
2370.08890	0.98382
2368.03510	0.98274
2365.98130	0.98321
2363.92749	0.98334
2361.87369	0.98206
2359.81989	0.98117
2357.76608	0.98102
2355.71228	0.98078
2353.65848	0.98075
2351.60467	0.98078
2349.55087	0.98043
2347.49707	0.98033
2345.44326	0.98072
2343.38946	0.98086
2341.33566	0.98077
2339.28186	0.98086
2337.22805	0.98078
2335.17425	0.98041
2333.12045	0.98052
2331.06664	0.98115
2329.01284	0.98099
2326.95904	0.98009
2324.90523	0.97955
2322.85143	0.97993
2320.79763	0.98081
2318.74382	0.98129
2316.69002	0.98131
2314.63622	0.98104
2312.58241	0.98078
2310.52861	0.98098
2308.47481	0.98113
2306.42100	0.98086
2304.36720	0.98076
2302.31340	0.98089
2300.25959	0.98085
2298.20579	0.98065
2296.15199	0.98051
2294.09818	0.98089
2292.04438	0.98162
2289.99058	0.98156
2287.93677	0.98088
2285.88297	0.98099
2283.82917	0.98144
2281.77537	0.98147
2279.72156	0.98123
2277.66776	0.98041
2275.61396	0.97965
2273.56015	0.98024
2271.50635	0.98210
2269.45255	0.98342
2267.39874	0.98323
2265.34494	0.98240
2263.29114	0.98202
2261.23733	0.98255
2259.18353	0.98329
2257.12973	0.98343
2255.07592	0.98339
2253.02212	0.98357
2250.96832	0.98340
2248.91451	0.98315
2246.86071	0.98363
2244.80691	0.98398
2242.75310	0.98372
2240.69930	0.98388
2238.64550	0.98364
2236.59169	0.98233
2234.53789	0.98180
2232.48409	0.98213
2230.43029	0.98200
2228.37648	0.98157
2226.32268	0.98162
2224.26888	0.98278
2222.21507	0.98468
2220.16127	0.98602
2218.10747	0.98571
2216.05366	0.98423
2213.99986	0.98349
2211.94606	0.98456
2209.89225	0.98665
2207.83845	0.98780
2205.78465	0.98716
2203.73084	0.98562
2201.67704	0.98440
2199.62324	0.98448
2197.56943	0.98464
2195.51563	0.98410
2193.46183	0.98457
2191.40802	0.98741
2189.35422	0.98997
2187.30042	0.98806
2185.24661	0.98468
2183.19281	0.98514
2181.13901	0.98789
2179.08520	0.98853
2177.03140	0.98694
2174.97760	0.98563
2172.92380	0.98550
2170.86999	0.98576
2168.81619	0.98558
2166.76239	0.98539
2164.70858	0.98451
2162.65478	0.98200
2160.60098	0.98077
2158.54717	0.98322
2156.49337	0.98656
2154.43957	0.98813
2152.38576	0.98728
2150.33196	0.98549
2148.27816	0.98464
2146.22435	0.98441
2144.17055	0.98476
2142.11675	0.98440
2140.06294	0.98336
2138.00914	0.98449
2135.95534	0.98690
2133.90153	0.98855
2131.84773	0.98911
2129.79393	0.98798
2127.74012	0.98652
2125.68632	0.98599
2123.63252	0.98590
2121.57871	0.98585
2119.52491	0.98556
2117.47111	0.98474
2115.41731	0.98388
2113.36350	0.98365
2111.30970	0.98383
2109.25590	0.98419
2107.20209	0.98449
2105.14829	0.98457
2103.09449	0.98462
2101.04068	0.98445
2098.98688	0.98461
2096.93308	0.98491
2094.87927	0.98460
2092.82547	0.98424
2090.77167	0.98396
2088.71786	0.98312
2086.66406	0.98234
2084.61026	0.98238
2082.55645	0.98267
2080.50265	0.98307
2078.44885	0.98446
2076.39504	0.98626
2074.34124	0.98622
2072.28744	0.98427
2070.23363	0.98291
2068.17983	0.98271
2066.12603	0.98245
2064.07223	0.98267
2062.01842	0.98342
2059.96462	0.98385
2057.91082	0.98453
2055.85701	0.98528
2053.80321	0.98485
2051.74941	0.98310
2049.69560	0.98166
2047.64180	0.98200
2045.58800	0.98287
2043.53419	0.98303
2041.48039	0.98321
2039.42659	0.98341
2037.37278	0.98492
2035.31898	0.98832
2033.26518	0.98935
2031.21137	0.98723
2029.15757	0.98593
2027.10377	0.98632
2025.04996	0.98732
2022.99616	0.98804
2020.94236	0.98711
2018.88855	0.98567
2016.83475	0.98507
2014.78095	0.98397
2012.72714	0.98346
2010.67334	0.98438
2008.61954	0.98517
2006.56574	0.98601
2004.51193	0.98703
2002.45813	0.98720
2000.40433	0.98694
1998.35052	0.98746
1996.29672	0.98848
1994.24292	0.98876
1992.18911	0.98859
1990.13531	0.98852
1988.08151	0.98867
1986.02770	0.98902
1983.97390	0.98799
1981.92010	0.98542
1979.86629	0.98282
1977.81249	0.98221
1975.75869	0.98550
1973.70488	0.98903
1971.65108	0.98873
1969.59728	0.98652
1967.54347	0.98591
1965.48967	0.98849
1963.43587	0.99158
1961.38206	0.99181
1959.32826	0.98994
1957.27446	0.98761
1955.22066	0.98438
1953.16685	0.98209
1951.11305	0.98347
1949.05925	0.98664
1947.00544	0.98778
1944.95164	0.98617
1942.89784	0.98448
1940.84403	0.98491
1938.79023	0.98653
1936.73643	0.98778
1934.68262	0.98787
1932.62882	0.98714
1930.57502	0.98639
1928.52121	0.98546
1926.46741	0.98481
1924.41361	0.98580
1922.35980	0.98731
1920.30600	0.98699
1918.25220	0.98514
1916.19839	0.98365
1914.14459	0.98331
1912.09079	0.98364
1910.03698	0.98391
1907.98318	0.98372
1905.92938	0.98361
1903.87557	0.98354
1901.82177	0.98313
1899.76797	0.98266
1897.71417	0.98187
1895.66036	0.98135
1893.60656	0.98211
1891.55276	0.98365
1889.49895	0.98491
1887.44515	0.98470
1885.39135	0.98373
1883.33754	0.98316
1881.28374	0.98301
1879.22994	0.98370
1877.17613	0.98464
1875.12233	0.98477
1873.06853	0.98446
1871.01472	0.98417
1868.96092	0.98408
1866.90712	0.98389
1864.85331	0.98378
1862.79951	0.98415
1860.74571	0.98457
1858.69190	0.98474
1856.63810	0.98432
1854.58430	0.98350
1852.53049	0.98313
1850.47669	0.98300
1848.42289	0.98307
1846.36908	0.98341
1844.31528	0.98316
1842.26148	0.98277
1840.20768	0.98338
1838.15387	0.98433
1836.10007	0.98475
1834.04627	0.98485
1831.99246	0.98502
1829.93866	0.98487
1827.88486	0.98421
1825.83105	0.98366
1823.77725	0.98331
1821.72345	0.98297
1819.66964	0.98293
1817.61584	0.98340
1815.56204	0.98386
1813.50823	0.98378
1811.45443	0.98316
1809.40063	0.98251
1807.34682	0.98264
1805.29302	0.98313
1803.23922	0.98305
1801.18541	0.98258
1799.13161	0.98246
1797.07781	0.98222
1795.02400	0.98158
1792.97020	0.98132
1790.91640	0.98143
1788.86260	0.98118
1786.80879	0.98074
1784.75499	0.98051
1782.70119	0.98026
1780.64738	0.98000
1778.59358	0.98005
1776.53978	0.97995
1774.48597	0.97941
1772.43217	0.97901
1770.37837	0.97884
1768.32456	0.97846
1766.27076	0.97812
1764.21696	0.97778
1762.16315	0.97726
1760.10935	0.97709
1758.05555	0.97697
1756.00174	0.97598
1753.94794	0.97475
1751.89414	0.97394
1749.84033	0.97313
1747.78653	0.97196
1745.73273	0.97053
1743.67892	0.96901
1741.62512	0.96784
1739.57132	0.96690
1737.51751	0.96576
1735.46371	0.96445
1733.40991	0.96321
1731.35611	0.96291
1729.30230	0.96270
1727.24850	0.96184
1725.19470	0.96098
1723.14089	0.96072
1721.08709	0.96073
1719.03329	0.96041
1716.97948	0.95926
1714.92568	0.95766
1712.87188	0.95645
1710.81807	0.95537
1708.76427	0.95424
1706.71047	0.95290
1704.65666	0.95128
1702.60286	0.94957
1700.54906	0.94730
1698.49525	0.94483
1696.44145	0.94249
1694.38765	0.93961
1692.33384	0.93682
1690.28004	0.93356
1688.22624	0.93011
1686.17243	0.92733
1684.11863	0.92352
1682.06483	0.91978
1680.01103	0.91765
1677.95722	0.91557
1675.90342	0.91266
1673.84962	0.90950
1671.79581	0.90731
1669.74201	0.90482
1667.68821	0.90183
1665.63440	0.89965
1663.58060	0.89756
1661.52680	0.89541
1659.47299	0.89387
1657.41919	0.89265
1655.36539	0.89136
1653.31158	0.88945
1651.25778	0.88814
1649.20398	0.88755
1647.15017	0.88605
1645.09637	0.88428
1643.04257	0.88370
1640.98876	0.88392
1638.93496	0.88482
1636.88116	0.88597
1634.82735	0.88641
1632.77355	0.88677
1630.71975	0.88767
1628.66594	0.88864
1626.61214	0.88927
1624.55834	0.88961
1622.50454	0.89037
1620.45073	0.89199
1618.39693	0.89429
1616.34313	0.89758
1614.28932	0.90079
1612.23552	0.90297
1610.18172	0.90452
1608.12791	0.90612
1606.07411	0.90815
1604.02031	0.91049
1601.96650	0.91283
1599.91270	0.91482
1597.85890	0.91650
1595.80509	0.91801
1593.75129	0.91942
1591.69749	0.92085
1589.64368	0.92228
1587.58988	0.92341
1585.53608	0.92438
1583.48227	0.92546
1581.42847	0.92665
1579.37467	0.92780
1577.32086	0.92895
1575.26706	0.93013
1573.21326	0.93110
1571.15945	0.93169
1569.10565	0.93209
1567.05185	0.93245
1564.99805	0.93254
1562.94424	0.93253
1560.89044	0.93252
1558.83664	0.93190
1556.78283	0.93130
1554.72903	0.93137
1552.67523	0.93131
1550.62142	0.93109
1548.56762	0.93093
1546.51382	0.93084
1544.46001	0.93065
1542.40621	0.93071
1540.35241	0.93179
1538.29860	0.93331
1536.24480	0.93438
1534.19100	0.93548
1532.13719	0.93645
1530.08339	0.93702
1528.02959	0.93795
1525.97578	0.93939
1523.92198	0.94064
1521.86818	0.94173
1519.81437	0.94283
1517.76057	0.94376
1515.70677	0.94504
1513.65297	0.94658
1511.59916	0.94783
1509.54536	0.94862
1507.49156	0.94946
1505.43775	0.95064
1503.38395	0.95087
1501.33015	0.95036
1499.27634	0.94952
1497.22254	0.94886
1495.16874	0.94843
1493.11493	0.94807
1491.06113	0.94737
1489.00733	0.94593
1486.95352	0.94408
1484.89972	0.94204
1482.84592	0.93910
1480.79211	0.93371
1478.73831	0.92221
1476.68451	0.89354
1474.63070	0.83655
1472.57690	0.77453
1470.52310	0.76110
1468.46929	0.77718
1466.41549	0.78840
1464.36169	0.78634
1462.30788	0.78812
1460.25408	0.80763
1458.20028	0.84009
1456.14648	0.86851
1454.09267	0.88085
1452.03887	0.88794
1449.98507	0.89355
1447.93126	0.89811
1445.87746	0.90159
1443.82366	0.90372
1441.76985	0.90530
1439.71605	0.90667
1437.66225	0.90786
1435.60844	0.90951
1433.55464	0.91164
1431.50084	0.91391
1429.44703	0.91604
1427.39323	0.91752
1425.33943	0.91877
1423.28562	0.92037
1421.23182	0.92183
1419.17802	0.92271
1417.12421	0.92277
1415.07041	0.92281
1413.01661	0.92364
1410.96280	0.92495
1408.90900	0.92610
1406.85520	0.92707
1404.80139	0.92815
1402.74759	0.92909
1400.69379	0.92987
1398.63999	0.93099
1396.58618	0.93239
1394.53238	0.93335
1392.47858	0.93359
1390.42477	0.93341
1388.37097	0.93314
1386.31717	0.93275
1384.26336	0.93196
1382.20956	0.93063
1380.15576	0.92886
1378.10195	0.92741
1376.04815	0.92692
1373.99435	0.92709
1371.94054	0.92742
1369.88674	0.92782
1367.83294	0.92821
1365.77913	0.92905
1363.72533	0.93100
1361.67153	0.93343
1359.61772	0.93516
1357.56392	0.93644
1355.51012	0.93743
1353.45631	0.93788
1351.40251	0.93816
1349.34871	0.93866
1347.29491	0.93939
1345.24110	0.94023
1343.18730	0.94098
1341.13350	0.94148
1339.07969	0.94200
1337.02589	0.94274
1334.97209	0.94321
1332.91828	0.94335
1330.86448	0.94324
1328.81068	0.94275
1326.75687	0.94181
1324.70307	0.94074
1322.64927	0.94013
1320.59546	0.94015
1318.54166	0.94048
1316.48786	0.94075
1314.43405	0.94071
1312.38025	0.94042
1310.32645	0.94028
1308.27264	0.94050
1306.21884	0.94080
1304.16504	0.94086
1302.11123	0.94073
1300.05743	0.94076
1298.00363	0.94105
1295.94982	0.94118
1293.89602	0.94110
1291.84222	0.94102
1289.78842	0.94081
1287.73461	0.94047
1285.68081	0.93999
1283.62701	0.93921
1281.57320	0.93833
1279.51940	0.93749
1277.46560	0.93639
1275.41179	0.93522
1273.35799	0.93448
1271.30419	0.93404
1269.25038	0.93368
1267.19658	0.93336
1265.14278	0.93290
1263.08897	0.93244
1261.03517	0.93224
1258.98137	0.93205
1256.92756	0.93149
1254.87376	0.93041
1252.81996	0.92912
1250.76615	0.92805
1248.71235	0.92729
1246.65855	0.92673
1244.60474	0.92626
1242.55094	0.92571
1240.49714	0.92499
1238.44334	0.92418
1236.38953	0.92341
1234.33573	0.92282
1232.28193	0.92227
1230.22812	0.92175
1228.17432	0.92139
1226.12052	0.92098
1224.06671	0.92038
1222.01291	0.91949
1219.95911	0.91847
1217.90530	0.91778
1215.85150	0.91691
1213.79770	0.91539
1211.74389	0.91384
1209.69009	0.91237
1207.63629	0.91071
1205.58248	0.90904
1203.52868	0.90725
1201.47488	0.90522
1199.42107	0.90320
1197.36727	0.90100
1195.31347	0.89829
1193.25966	0.89531
1191.20586	0.89252
1189.15206	0.89002
1187.09825	0.88732
1185.04445	0.88375
1182.99065	0.87953
1180.93685	0.87538
1178.88304	0.87106
1176.82924	0.86624
1174.77544	0.86137
1172.72163	0.85664
1170.66783	0.85216
1168.61403	0.84809
1166.56022	0.84409
1164.50642	0.83995
1162.45262	0.83598
1160.39881	0.83255
1158.34501	0.82931
1156.29121	0.82559
1154.23740	0.82163
1152.18360	0.81800
1150.12980	0.81458
1148.07599	0.81110
1146.02219	0.80772
1143.96839	0.80455
1141.91458	0.80140
1139.86078	0.79793
1137.80698	0.79438
1135.75317	0.79117
1133.69937	0.78755
1131.64557	0.78266
1129.59176	0.77673
1127.53796	0.77010
1125.48416	0.76270
1123.43036	0.75469
1121.37655	0.74629
1119.32275	0.73786
1117.26895	0.73034
1115.21514	0.72410
1113.16134	0.71848
1111.10754	0.71293
1109.05373	0.70783
1106.99993	0.70357
1104.94613	0.69965
1102.89232	0.69557
1100.83852	0.69157
1098.78472	0.68814
1096.73091	0.68537
1094.67711	0.68291
1092.62331	0.68032
1090.56950	0.67799
1088.51570	0.67649
1086.46190	0.67544
1084.40809	0.67417
1082.35429	0.67243
1080.30049	0.66997
1078.24668	0.66719
1076.19288	0.66463
1074.13908	0.66193
1072.08528	0.65895
1070.03147	0.65547
1067.97767	0.65095
1065.92387	0.64557
1063.87006	0.63991
1061.81626	0.63391
1059.76246	0.62696
1057.70865	0.61922
1055.65485	0.61112
1053.60105	0.60211
1051.54724	0.59214
1049.49344	0.58209
1047.43964	0.57244
1045.38583	0.56323
1043.33203	0.55393
1041.27823	0.54451
1039.22442	0.53595
1037.17062	0.52847
1035.11682	0.52190
1033.06301	0.51657
1031.00921	0.51274
1028.95541	0.51078
1026.90160	0.51061
1024.84780	0.51144
1022.79400	0.51278
1020.74019	0.51408
1018.68639	0.51473
1016.63259	0.51478
1014.57879	0.51423
1012.52498	0.51310
1010.47118	0.51195
1008.41738	0.51157
1006.36357	0.51241
1004.30977	0.51456
1002.25597	0.51838
1000.20216	0.52418
998.14836	0.53154
996.09456	0.54007
994.04075	0.54963
991.98695	0.55984
989.93315	0.57044
987.87934	0.58158
985.82554	0.59292
983.77174	0.60430
981.71793	0.61608
979.66413	0.62807
977.61033	0.63976
975.55652	0.65114
973.50272	0.66229
971.44892	0.67321
969.39511	0.68389
967.34131	0.69394
965.28751	0.70290
963.23371	0.71102
961.17990	0.71852
959.12610	0.72512
957.07230	0.73125
955.01849	0.73738
952.96469	0.74282
950.91089	0.74738
948.85708	0.75152
946.80328	0.75507
944.74948	0.75797
942.69567	0.76050
940.64187	0.76260
938.58807	0.76437
936.53426	0.76614
934.48046	0.76783
932.42666	0.76942
930.37285	0.77110
928.31905	0.77256
926.26525	0.77305
924.21144	0.77230
922.15764	0.77037
920.10384	0.76734
918.05003	0.76354
915.99623	0.75977
913.94243	0.75699
911.88862	0.75603
909.83482	0.75840
907.78102	0.76497
905.72722	0.77458
903.67341	0.78532
901.61961	0.79560
899.56581	0.80454
897.51200	0.81228
895.45820	0.81928
893.40440	0.82548
891.35059	0.83029
889.29679	0.83355
887.24299	0.83600
885.18918	0.83808
883.13538	0.83949
881.08158	0.84004
879.02777	0.83987
876.97397	0.83976
874.92017	0.84126
872.86636	0.84475
870.81256	0.84906
868.75876	0.85328
866.70495	0.85745
864.65115	0.86173
862.59735	0.86576
860.54354	0.86911
858.48974	0.87191
856.43594	0.87446
854.38213	0.87693
852.32833	0.87920
850.27453	0.88104
848.22073	0.88247
846.16692	0.88358
844.11312	0.88437
842.05932	0.88476
840.00551	0.88508
837.95171	0.88522
835.89791	0.88452
833.84410	0.88323
831.79030	0.88157
829.73650	0.88016
827.68269	0.87961
825.62889	0.87910
823.57509	0.87828
821.52128	0.87761
819.46748	0.87706
817.41368	0.87645
815.35987	0.87606
813.30607	0.87578
811.25227	0.87475
809.19846	0.87242
807.14466	0.86933
805.09086	0.86618
803.03705	0.86271
800.98325	0.85923
798.92945	0.85682
796.87565	0.85577
794.82184	0.85549
792.76804	0.85523
790.71424	0.85483
788.66043	0.85486
786.60663	0.85527
784.55283	0.85487
782.49902	0.85351
780.44522	0.85234
778.39142	0.85202
776.33761	0.85250
774.28381	0.85338
772.23001	0.85416
770.17620	0.85428
768.12240	0.85289
766.06860	0.85022
764.01479	0.84782
761.96099	0.84628
759.90719	0.84501
757.85338	0.84350
755.79958	0.84193
753.74578	0.84071
751.69197	0.83955
749.63817	0.83858
747.58437	0.83838
745.53056	0.83883
743.47676	0.83940
741.42296	0.83972
739.36916	0.83970
737.31535	0.83805
735.26155	0.82802
733.20775	0.80140
731.15394	0.77025
729.10014	0.76095
727.04634	0.77006
724.99253	0.77020
722.93873	0.74612
720.88493	0.69930
718.83112	0.65307
716.77732	0.64029
714.72352	0.66943
712.66971	0.71879
710.61591	0.75952
708.56211	0.78162
706.50830	0.79083
704.45450	0.79393
702.40070	0.79415
700.34689	0.79277
698.29309	0.79038
696.23929	0.78763
694.18548	0.78552
692.13168	0.78484
690.07788	0.78585
688.02408	0.78712
685.97027	0.78744
683.91647	0.78760
681.86267	0.78828
679.80886	0.78934
677.75506	0.79043
675.70126	0.79056
673.64745	0.79002
671.59365	0.78999
669.53985	0.79014
667.48604	0.79207
665.43224	0.79691
663.37844	0.80098
661.32463	0.80300
659.27083	0.80408
657.21703	0.80531
655.16322	0.80634
653.10942	0.80607
651.05562	0.80450
649.00181	0.80325
646.94801	0.80272
644.89421	0.80233
642.84040	0.80201
640.78660	0.80225
638.73280	0.80304
636.67899	0.80309
634.62519	0.80204
632.57139	0.80121
630.51759	0.80142
628.46378	0.80235
626.40998	0.80248
624.35618	0.80040
622.30237	0.79708
620.24857	0.79417
618.19477	0.79216
616.14096	0.79031
614.08716	0.78738
612.03336	0.78378
609.97955	0.78036
607.92575	0.77698
605.87195	0.77344
603.81814	0.77039
601.76434	0.76871
599.71054	0.76749
597.65673	0.76499
595.60293	0.76236
593.54913	0.76190
591.49532	0.76210
589.44152	0.75959
587.38772	0.75505
585.33391	0.75243
583.28011	0.75225
581.22631	0.75100
579.17250	0.74804
577.11870	0.74493
575.06490	0.74155
573.01110	0.73810
570.95729	0.73510
568.90349	0.73210
566.84969	0.72874
564.79588	0.72519
562.74208	0.72175
560.68828	0.71777
558.63447	0.71293
556.58067	0.70809
554.52687	0.70414
552.47306	0.70060
550.41926	0.69535
548.36546	0.68880
546.31165	0.68242
544.25785	0.67545
542.20405	0.66815
540.15024	0.66134
538.09644	0.65476
536.04264	0.64946
533.98883	0.64708
531.93503	0.64693
529.88123	0.64796
527.82742	0.64960
525.77362	0.65142
523.71982	0.65340
521.66602	0.65519
519.61221	0.65696
517.55841	0.65978
515.50461	0.66466
513.45080	0.67105
511.39700	0.67821
509.34320	0.68466
507.28939	0.68831
505.23559	0.69045
503.18179	0.69273
501.12798	0.69396
499.07418	0.69362
497.02038	0.69238
494.96657	0.69150
492.91277	0.69119
490.85897	0.69046
488.80516	0.68828
486.75136	0.68301
484.69756	0.67581
482.64375	0.66790
480.58995	0.65644
478.53615	0.64192
476.48234	0.62871
474.42854	0.61698
472.37474	0.60419
470.32093	0.59293
468.26713	0.58505
466.21333	0.57999
464.15953	0.58076
462.10572	0.58749
460.05192	0.59483
457.99812	0.60040
455.94431	0.60641
453.89051	0.61409
451.83671	0.62437
449.78290	0.63425
447.72910	0.63931
445.67530	0.64071
443.62149	0.64093
441.56769	0.64034
439.51389	0.63937
437.46008	0.63846
435.40628	0.63758
433.35248	0.63540
431.29867	0.63240
429.24487	0.63380
427.19107	0.63947
425.13726	0.64198
423.08346	0.64092
421.02966	0.64349
418.97585	0.65414
416.92205	0.66465
414.86825	0.66911
412.81445	0.67242
410.76064	0.67856
408.70684	0.68793
406.65304	0.69465
404.59923	0.70057
402.54543	0.71080
400.49163	0.71891
398.43782	0.72244
