3996.70104	0.99334
3994.64724	0.99308
3992.59344	0.99325
3990.53964	0.99375
3988.48583	0.99406
3986.43203	0.99383
3984.37823	0.99307
3982.32442	0.99227
3980.27062	0.99205
3978.21682	0.99261
3976.16301	0.99349
3974.10921	0.99381
3972.05541	0.99324
3970.00160	0.99250
3967.94780	0.99228
3965.89400	0.99229
3963.84019	0.99216
3961.78639	0.99227
3959.73259	0.99265
3957.67878	0.99320
3955.62498	0.99401
3953.57118	0.99444
3951.51737	0.99415
3949.46357	0.99366
3947.40977	0.99319
3945.35596	0.99272
3943.30216	0.99259
3941.24836	0.99279
3939.19455	0.99313
3937.14075	0.99328
3935.08695	0.99279
3933.03315	0.99235
3930.97934	0.99291
3928.92554	0.99353
3926.87174	0.99348
3924.81793	0.99297
3922.76413	0.99230
3920.71033	0.99223
3918.65652	0.99282
3916.60272	0.99320
3914.54892	0.99275
3912.49511	0.99211
3910.44131	0.99199
3908.38751	0.99224
3906.33370	0.99260
3904.27990	0.99286
3902.22610	0.99293
3900.17229	0.99300
3898.11849	0.99315
3896.06469	0.99308
3894.01088	0.99279
3891.95708	0.99286
3889.90328	0.99312
3887.84947	0.99298
3885.79567	0.99293
3883.74187	0.99331
3881.68807	0.99349
3879.63426	0.99322
3877.58046	0.99292
3875.52666	0.99299
3873.47285	0.99313
3871.41905	0.99283
3869.36525	0.99261
3867.31144	0.99292
3865.25764	0.99313
3863.20384	0.99313
3861.15003	0.99319
3859.09623	0.99307
3857.04243	0.99278
3854.98862	0.99309
3852.93482	0.99385
3850.88102	0.99339
3848.82721	0.99274
3846.77341	0.99268
3844.71961	0.99288
3842.66580	0.99294
3840.61200	0.99297
3838.55820	0.99330
3836.50439	0.99365
3834.45059	0.99368
3832.39679	0.99375
3830.34298	0.99360
3828.28918	0.99298
3826.23538	0.99262
3824.18158	0.99280
3822.12777	0.99266
3820.07397	0.99183
3818.02017	0.99170
3815.96636	0.99255
3813.91256	0.99293
3811.85876	0.99278
3809.80495	0.99289
3807.75115	0.99289
3805.69735	0.99221
3803.64354	0.99153
3801.58974	0.99172
3799.53594	0.99244
3797.48213	0.99247
3795.42833	0.99198
3793.37453	0.99198
3791.32072	0.99246
3789.26692	0.99271
3787.21312	0.99279
3785.15931	0.99305
3783.10551	0.99345
3781.05171	0.99395
3778.99790	0.99392
3776.94410	0.99299
3774.89030	0.99252
3772.83650	0.99293
3770.78269	0.99341
3768.72889	0.99339
3766.67509	0.99275
3764.62128	0.99198
3762.56748	0.99157
3760.51368	0.99113
3758.45987	0.99134
3756.40607	0.99304
3754.35227	0.99453
3752.29846	0.99426
3750.24466	0.99289
3748.19086	0.99236
3746.13705	0.99202
3744.08325	0.99177
3742.02945	0.99219
3739.97564	0.99234
3737.92184	0.99235
3735.86804	0.99260
3733.81423	0.99249
3731.76043	0.99228
3729.70663	0.99224
3727.65282	0.99208
3725.59902	0.99286
3723.54522	0.99493
3721.49141	0.99589
3719.43761	0.99516
3717.38381	0.99406
3715.33001	0.99298
3713.27620	0.99206
3711.22240	0.99167
3709.16860	0.99196
3707.11479	0.99232
3705.06099	0.99227
3703.00719	0.99263
3700.95338	0.99345
3698.89958	0.99302
3696.84578	0.99173
3694.79197	0.99117
3692.73817	0.99137
3690.68437	0.99170
3688.63056	0.99179
3686.57676	0.99144
3684.52296	0.99115
3682.46915	0.99119
3680.41535	0.99152
3678.36155	0.99197
3676.30774	0.99265
3674.25394	0.99268
3672.20014	0.99164
3670.14633	0.99106
3668.09253	0.99159
3666.03873	0.99231
3663.98492	0.99283
3661.93112	0.99291
3659.87732	0.99266
3657.82352	0.99246
3655.76971	0.99194
3653.71591	0.99121
3651.66211	0.99083
3649.60830	0.99101
3647.55450	0.99145
3645.50070	0.99154
3643.44689	0.99150
3641.39309	0.99142
3639.33929	0.99112
3637.28548	0.99106
3635.23168	0.99151
3633.17788	0.99157
3631.12407	0.99102
3629.07027	0.99040
3627.01647	0.98997
3624.96266	0.99003
3622.90886	0.99022
3620.85506	0.99017
3618.80125	0.99015
3616.74745	0.98987
3614.69365	0.98964
3612.63984	0.98999
3610.58604	0.99024
3608.53224	0.99063
3606.47844	0.99118
3604.42463	0.99106
3602.37083	0.99050
3600.31703	0.99002
3598.26322	0.98987
3596.20942	0.99010
3594.15562	0.99057
3592.10181	0.99071
3590.04801	0.99017
3587.99421	0.98955
3585.94040	0.98965
3583.88660	0.99030
3581.83280	0.99078
3579.77899	0.99064
3577.72519	0.99047
3575.67139	0.99063
3573.61758	0.99053
3571.56378	0.99018
3569.50998	0.99006
3567.45617	0.99017
3565.40237	0.99014
3563.34857	0.98999
3561.29476	0.99004
3559.24096	0.99007
3557.18716	0.99015
3555.13335	0.99060
3553.07955	0.99103
3551.02575	0.99115
3548.97195	0.99092
3546.91814	0.98992
3544.86434	0.98884
3542.81054	0.98875
3540.75673	0.98917
3538.70293	0.98953
3536.64913	0.98950
3534.59532	0.98929
3532.54152	0.98937
3530.48772	0.98947
3528.43391	0.98957
3526.38011	0.98930
3524.32631	0.98864
3522.27250	0.98882
3520.21870	0.98943
3518.16490	0.98947
3516.11109	0.98909
3514.05729	0.98894
3512.00349	0.98937
3509.94968	0.98975
3507.89588	0.98935
3505.84208	0.98874
3503.78827	0.98856
3501.73447	0.98850
3499.68067	0.98816
3497.62687	0.98769
3495.57306	0.98762
3493.51926	0.98799
3491.46546	0.98791
3489.41165	0.98732
3487.35785	0.98704
3485.30405	0.98742
3483.25024	0.98776
3481.19644	0.98749
3479.14264	0.98747
3477.08883	0.98771
3475.03503	0.98743
3472.98123	0.98696
3470.92742	0.98692
3468.87362	0.98710
3466.81982	0.98695
3464.76601	0.98647
3462.71221	0.98596
3460.65841	0.98601
3458.60460	0.98662
3456.55080	0.98706
3454.49700	0.98739
3452.44319	0.98778
3450.38939	0.98754
3448.33559	0.98700
3446.28178	0.98708
3444.22798	0.98720
3442.17418	0.98730
3440.12038	0.98754
3438.06657	0.98738
3436.01277	0.98716
3433.95897	0.98705
3431.90516	0.98667
3429.85136	0.98646
3427.79756	0.98679
3425.74375	0.98706
3423.68995	0.98691
3421.63615	0.98680
3419.58234	0.98683
3417.52854	0.98652
3415.47474	0.98623
3413.42093	0.98625
3411.36713	0.98608
3409.31333	0.98597
3407.25952	0.98613
3405.20572	0.98615
3403.15192	0.98570
3401.09811	0.98524
3399.04431	0.98527
3396.99051	0.98528
3394.93670	0.98497
3392.88290	0.98484
3390.82910	0.98535
3388.77529	0.98602
3386.72149	0.98595
3384.66769	0.98499
3382.61389	0.98402
3380.56008	0.98397
3378.50628	0.98492
3376.45248	0.98610
3374.39867	0.98648
3372.34487	0.98618
3370.29107	0.98582
3368.23726	0.98557
3366.18346	0.98541
3364.12966	0.98536
3362.07585	0.98530
3360.02205	0.98511
3357.96825	0.98509
3355.91444	0.98567
3353.86064	0.98652
3351.80684	0.98672
3349.75303	0.98621
3347.69923	0.98589
3345.64543	0.98598
3343.59162	0.98586
3341.53782	0.98559
3339.48402	0.98535
3337.43021	0.98525
3335.37641	0.98556
3333.32261	0.98585
3331.26881	0.98592
3329.21500	0.98578
3327.16120	0.98518
3325.10740	0.98498
3323.05359	0.98581
3320.99979	0.98618
3318.94599	0.98537
3316.89218	0.98485
3314.83838	0.98508
3312.78458	0.98539
3310.73077	0.98563
3308.67697	0.98562
3306.62317	0.98536
3304.56936	0.98537
3302.51556	0.98561
3300.46176	0.98583
3298.40795	0.98605
3296.35415	0.98604
3294.30035	0.98562
3292.24654	0.98500
3290.19274	0.98460
3288.13894	0.98477
3286.08513	0.98535
3284.03133	0.98574
3281.97753	0.98577
3279.92372	0.98596
3277.86992	0.98643
3275.81612	0.98664
3273.76232	0.98647
3271.70851	0.98635
3269.65471	0.98638
3267.60091	0.98607
3265.54710	0.98550
3263.49330	0.98515
3261.43950	0.98512
3259.38569	0.98543
3257.33189	0.98576
3255.27809	0.98590
3253.22428	0.98601
3251.17048	0.98619
3249.11668	0.98644
3247.06287	0.98659
3245.00907	0.98641
3242.95527	0.98613
3240.90146	0.98606
3238.84766	0.98605
3236.79386	0.98605
3234.74005	0.98607
3232.68625	0.98600
3230.63245	0.98582
3228.57864	0.98548
3226.52484	0.98518
3224.47104	0.98535
3222.41724	0.98573
3220.36343	0.98613
3218.30963	0.98658
3216.25583	0.98671
3214.20202	0.98648
3212.14822	0.98632
3210.09442	0.98636
3208.04061	0.98652
3205.98681	0.98680
3203.93301	0.98702
3201.87920	0.98696
3199.82540	0.98658
3197.77160	0.98616
3195.71779	0.98634
3193.66399	0.98686
3191.61019	0.98697
3189.55638	0.98693
3187.50258	0.98693
3185.44878	0.98674
3183.39497	0.98651
3181.34117	0.98632
3179.28737	0.98636
3177.23356	0.98667
3175.17976	0.98699
3173.12596	0.98739
3171.07215	0.98782
3169.01835	0.98818
3166.96455	0.98816
3164.91075	0.98749
3162.85694	0.98695
3160.80314	0.98715
3158.74934	0.98747
3156.69553	0.98749
3154.64173	0.98754
3152.58793	0.98772
3150.53412	0.98772
3148.48032	0.98760
3146.42652	0.98774
3144.37271	0.98801
3142.31891	0.98819
3140.26511	0.98840
3138.21130	0.98829
3136.15750	0.98768
3134.10370	0.98739
3132.04989	0.98788
3129.99609	0.98834
3127.94229	0.98819
3125.88848	0.98793
3123.83468	0.98778
3121.78088	0.98770
3119.72707	0.98778
3117.67327	0.98769
3115.61947	0.98739
3113.56566	0.98731
3111.51186	0.98751
3109.45806	0.98788
3107.40426	0.98832
3105.35045	0.98846
3103.29665	0.98831
3101.24285	0.98807
3099.18904	0.98747
3097.13524	0.98665
3095.08144	0.98624
3093.02763	0.98661
3090.97383	0.98735
3088.92003	0.98764
3086.86622	0.98726
3084.81242	0.98683
3082.75862	0.98665
3080.70481	0.98650
3078.65101	0.98628
3076.59721	0.98626
3074.54340	0.98664
3072.48960	0.98716
3070.43580	0.98756
3068.38199	0.98777
3066.32819	0.98765
3064.27439	0.98752
3062.22058	0.98801
3060.16678	0.98877
3058.11298	0.98868
3056.05918	0.98776
3054.00537	0.98708
3051.95157	0.98691
3049.89777	0.98689
3047.84396	0.98711
3045.79016	0.98721
3043.73636	0.98699
3041.68255	0.98686
3039.62875	0.98669
3037.57495	0.98644
3035.52114	0.98638
3033.46734	0.98644
3031.41354	0.98681
3029.35973	0.98743
3027.30593	0.98771
3025.25213	0.98733
3023.19832	0.98671
3021.14452	0.98651
3019.09072	0.98692
3017.03691	0.98731
3014.98311	0.98711
3012.92931	0.98691
3010.87550	0.98714
3008.82170	0.98736
3006.76790	0.98738
3004.71409	0.98735
3002.66029	0.98703
3000.60649	0.98638
2998.55269	0.98601
2996.49888	0.98597
2994.44508	0.98586
2992.39128	0.98573
2990.33747	0.98575
2988.28367	0.98577
2986.22987	0.98578
2984.17606	0.98564
2982.12226	0.98501
2980.06846	0.98445
2978.01465	0.98424
2975.96085	0.98409
2973.90705	0.98405
2971.85324	0.98422
2969.79944	0.98450
2967.74564	0.98442
2965.69183	0.98342
2963.63803	0.98193
2961.58423	0.98089
2959.53042	0.98015
2957.47662	0.97929
2955.42282	0.97853
2953.36901	0.97760
2951.31521	0.97582
2949.26141	0.97359
2947.20761	0.97127
2945.15380	0.96812
2943.10000	0.96414
2941.04620	0.95970
2938.99239	0.95418
2936.93859	0.94711
2934.88479	0.93870
2932.83098	0.92904
2930.77718	0.91808
2928.72338	0.90514
2926.66957	0.88910
2924.61577	0.86945
2922.56197	0.84655
2920.50816	0.82205
2918.45436	0.79896
2916.40056	0.78110
2914.34675	0.77229
2912.29295	0.77410
2910.23915	0.78400
2908.18534	0.79756
2906.13154	0.81139
2904.07774	0.82384
2902.02393	0.83465
2899.97013	0.84393
2897.91633	0.85194
2895.86252	0.85935
2893.80872	0.86662
2891.75492	0.87376
2889.70112	0.88091
2887.64731	0.88835
2885.59351	0.89583
2883.53971	0.90337
2881.48590	0.91117
2879.43210	0.91921
2877.37830	0.92751
2875.32449	0.93519
2873.27069	0.94122
2871.21689	0.94554
2869.16308	0.94814
2867.10928	0.94875
2865.05548	0.94707
2863.00167	0.94287
2860.94787	0.93568
2858.89407	0.92396
2856.84026	0.90545
2854.78646	0.87846
2852.73266	0.84374
2850.67885	0.80776
2848.62505	0.78264
2846.57125	0.77844
2844.51744	0.79481
2842.46364	0.82258
2840.40984	0.85170
2838.35603	0.87618
2836.30223	0.89495
2834.24843	0.90961
2832.19463	0.92112
2830.14082	0.93005
2828.08702	0.93727
2826.03322	0.94305
2823.97941	0.94753
2821.92561	0.95123
2819.87181	0.95448
2817.81800	0.95737
2815.76420	0.95970
2813.71040	0.96173
2811.65659	0.96389
2809.60279	0.96577
2807.54899	0.96701
2805.49518	0.96802
2803.44138	0.96923
2801.38758	0.97054
2799.33377	0.97168
2797.27997	0.97257
2795.22617	0.97332
2793.17236	0.97399
2791.11856	0.97466
2789.06476	0.97533
2787.01095	0.97588
2784.95715	0.97638
2782.90335	0.97693
2780.84955	0.97754
2778.79574	0.97833
2776.74194	0.97916
2774.68814	0.97966
2772.63433	0.98007
2770.58053	0.98072
2768.52673	0.98126
2766.47292	0.98143
2764.41912	0.98151
2762.36532	0.98157
2760.31151	0.98180
2758.25771	0.98218
2756.20391	0.98251
2754.15010	0.98290
2752.09630	0.98298
2750.04250	0.98284
2747.98869	0.98301
2745.93489	0.98306
2743.88109	0.98280
2741.82728	0.98271
2739.77348	0.98278
2737.71968	0.98289
2735.66587	0.98309
2733.61207	0.98325
2731.55827	0.98332
2729.50446	0.98350
2727.45066	0.98379
2725.39686	0.98402
2723.34306	0.98411
2721.28925	0.98418
2719.23545	0.98445
2717.18165	0.98479
2715.12784	0.98489
2713.07404	0.98481
2711.02024	0.98494
2708.96643	0.98544
2706.91263	0.98576
2704.85883	0.98566
2702.80502	0.98555
2700.75122	0.98560
2698.69742	0.98570
2696.64361	0.98587
2694.58981	0.98596
2692.53601	0.98582
2690.48220	0.98594
2688.42840	0.98639
2686.37460	0.98658
2684.32079	0.98636
2682.26699	0.98618
2680.21319	0.98614
2678.15938	0.98613
2676.10558	0.98621
2674.05178	0.98614
2671.99797	0.98586
2669.94417	0.98554
2667.89037	0.98502
2665.83657	0.98447
2663.78276	0.98427
2661.72896	0.98427
2659.67516	0.98439
2657.62135	0.98459
2655.56755	0.98452
2653.51375	0.98432
2651.45994	0.98447
2649.40614	0.98500
2647.35234	0.98534
2645.29853	0.98530
2643.24473	0.98504
2641.19093	0.98484
2639.13712	0.98473
2637.08332	0.98437
2635.02952	0.98415
2632.97571	0.98446
2630.92191	0.98472
2628.86811	0.98476
2626.81430	0.98490
2624.76050	0.98510
2622.70670	0.98541
2620.65289	0.98567
2618.59909	0.98590
2616.54529	0.98630
2614.49149	0.98643
2612.43768	0.98615
2610.38388	0.98622
2608.33008	0.98702
2606.27627	0.98778
2604.22247	0.98806
2602.16867	0.98808
2600.11486	0.98767
2598.06106	0.98712
2596.00726	0.98698
2593.95345	0.98744
2591.89965	0.98819
2589.84585	0.98831
2587.79204	0.98743
2585.73824	0.98698
2583.68444	0.98756
2581.63063	0.98797
2579.57683	0.98812
2577.52303	0.98837
2575.46922	0.98857
2573.41542	0.98888
2571.36162	0.98899
2569.30781	0.98837
2567.25401	0.98758
2565.20021	0.98732
2563.14640	0.98769
2561.09260	0.98868
2559.03880	0.98953
2556.98500	0.98984
2554.93119	0.99000
2552.87739	0.98971
2550.82359	0.98917
2548.76978	0.98931
2546.71598	0.98993
2544.66218	0.99036
2542.60837	0.99061
2540.55457	0.99063
2538.50077	0.99034
2536.44696	0.99024
2534.39316	0.99033
2532.33936	0.99016
2530.28555	0.99009
2528.23175	0.99017
2526.17795	0.98990
2524.12414	0.98991
2522.07034	0.99059
2520.01654	0.99103
2517.96273	0.99092
2515.90893	0.99072
2513.85513	0.99039
2511.80132	0.99008
2509.74752	0.98999
2507.69372	0.98986
2505.63992	0.98976
2503.58611	0.98975
2501.53231	0.98965
2499.47851	0.98971
2497.42470	0.98986
2495.37090	0.98985
2493.31710	0.99007
2491.26329	0.99042
2489.20949	0.99033
2487.15569	0.99027
2485.10188	0.99052
2483.04808	0.99085
2480.99428	0.99121
2478.94047	0.99118
2476.88667	0.99081
2474.83287	0.99041
2472.77906	0.98991
2470.72526	0.98979
2468.67146	0.99047
2466.61765	0.99148
2464.56385	0.99207
2462.51005	0.99186
2460.45624	0.99151
2458.40244	0.99142
2456.34864	0.99123
2454.29483	0.99079
2452.24103	0.99013
2450.18723	0.98972
2448.13343	0.98990
2446.07962	0.99011
2444.02582	0.99001
2441.97202	0.98985
2439.91821	0.99011
2437.86441	0.99091
2435.81061	0.99149
2433.75680	0.99139
2431.70300	0.99108
2429.64920	0.99100
2427.59539	0.99109
2425.54159	0.99109
2423.48779	0.99099
2421.43398	0.99103
2419.38018	0.99126
2417.32638	0.99106
2415.27257	0.99037
2413.21877	0.99014
2411.16497	0.99072
2409.11116	0.99115
2407.05736	0.99060
2405.00356	0.98986
2402.94975	0.98973
2400.89595	0.99005
2398.84215	0.99070
2396.78834	0.99109
2394.73454	0.99099
2392.68074	0.99114
2390.62694	0.99143
2388.57313	0.99114
2386.51933	0.99078
2384.46553	0.99099
2382.41172	0.99121
2380.35792	0.99092
2378.30412	0.99056
2376.25031	0.99029
2374.19651	0.98980
2372.14271	0.98956
2370.08890	0.99059
2368.03510	0.99199
2365.98130	0.99165
2363.92749	0.99001
2361.87369	0.98919
2359.81989	0.98993
2357.76608	0.99091
2355.71228	0.99065
2353.65848	0.98974
2351.60467	0.98902
2349.55087	0.98873
2347.49707	0.98897
2345.44326	0.98952
2343.38946	0.98969
2341.33566	0.98913
2339.28186	0.98866
2337.22805	0.98886
2335.17425	0.98915
2333.12045	0.98919
2331.06664	0.98937
2329.01284	0.98963
2326.95904	0.98950
2324.90523	0.98912
2322.85143	0.98912
2320.79763	0.98967
2318.74382	0.98974
2316.69002	0.98934
2314.63622	0.98936
2312.58241	0.98971
2310.52861	0.99010
2308.47481	0.99012
2306.42100	0.98983
2304.36720	0.98988
2302.31340	0.98979
2300.25959	0.98901
2298.20579	0.98844
2296.15199	0.98859
2294.09818	0.98911
2292.04438	0.98983
2289.99058	0.99042
2287.93677	0.99043
2285.88297	0.98992
2283.82917	0.98929
2281.77537	0.98908
2279.72156	0.98945
2277.66776	0.98990
2275.61396	0.99020
2273.56015	0.99056
2271.50635	0.99100
2269.45255	0.99111
2267.39874	0.99075
2265.34494	0.99039
2263.29114	0.99001
2261.23733	0.99066
2259.18353	0.99302
2257.12973	0.99427
2255.07592	0.99274
2253.02212	0.99066
2250.96832	0.98935
2248.91451	0.98893
2246.86071	0.98985
2244.80691	0.99119
2242.75310	0.99180
2240.69930	0.99158
2238.64550	0.99151
2236.59169	0.99274
2234.53789	0.99377
2232.48409	0.99322
2230.43029	0.99207
2228.37648	0.99063
2226.32268	0.98983
2224.26888	0.99120
2222.21507	0.99343
2220.16127	0.99410
2218.10747	0.99346
2216.05366	0.99249
2213.99986	0.99129
2211.94606	0.99089
2209.89225	0.99138
2207.83845	0.99078
2205.78465	0.98979
2203.73084	0.99079
2201.67704	0.99227
2199.62324	0.99246
2197.56943	0.99159
2195.51563	0.98998
2193.46183	0.98861
2191.40802	0.98872
2189.35422	0.99165
2187.30042	0.99498
2185.24661	0.99459
2183.19281	0.99209
2181.13901	0.99142
2179.08520	0.99306
2177.03140	0.99514
2174.97760	0.99617
2172.92380	0.99588
2170.86999	0.99421
2168.81619	0.99215
2166.76239	0.99225
2164.70858	0.99306
2162.65478	0.99038
2160.60098	0.98755
2158.54717	0.98963
2156.49337	0.99327
2154.43957	0.99426
2152.38576	0.99315
2150.33196	0.99234
2148.27816	0.99303
2146.22435	0.99437
2144.17055	0.99469
2142.11675	0.99345
2140.06294	0.99186
2138.00914	0.99164
2135.95534	0.99321
2133.90153	0.99478
2131.84773	0.99513
2129.79393	0.99458
2127.74012	0.99263
2125.68632	0.99052
2123.63252	0.99047
2121.57871	0.99122
2119.52491	0.99152
2117.47111	0.99164
2115.41731	0.99100
2113.36350	0.99036
2111.30970	0.99137
2109.25590	0.99328
2107.20209	0.99392
2105.14829	0.99262
2103.09449	0.99088
2101.04068	0.99022
2098.98688	0.99006
2096.93308	0.98974
2094.87927	0.98982
2092.82547	0.98987
2090.77167	0.98945
2088.71786	0.98932
2086.66406	0.98979
2084.61026	0.99059
2082.55645	0.99104
2080.50265	0.99041
2078.44885	0.98969
2076.39504	0.99002
2074.34124	0.99065
2072.28744	0.99017
2070.23363	0.98924
2068.17983	0.98969
2066.12603	0.99162
2064.07223	0.99342
2062.01842	0.99357
2059.96462	0.99209
2057.91082	0.98987
2055.85701	0.98850
2053.80321	0.98891
2051.74941	0.99022
2049.69560	0.99159
2047.64180	0.99269
2045.58800	0.99173
2043.53419	0.98825
2041.48039	0.98678
2039.42659	0.98947
2037.37278	0.99226
2035.31898	0.99294
2033.26518	0.99366
2031.21137	0.99506
2029.15757	0.99500
2027.10377	0.99236
2025.04996	0.98946
2022.99616	0.98959
2020.94236	0.99133
2018.88855	0.99291
2016.83475	0.99466
2014.78095	0.99494
2012.72714	0.99366
2010.67334	0.99306
2008.61954	0.99296
2006.56574	0.99254
2004.51193	0.99201
2002.45813	0.99115
2000.40433	0.99170
1998.35052	0.99267
1996.29672	0.99169
1994.24292	0.99117
1992.18911	0.99236
1990.13531	0.99254
1988.08151	0.99034
1986.02770	0.98868
1983.97390	0.99050
1981.92010	0.99396
1979.86629	0.99477
1977.81249	0.99377
1975.75869	0.99434
1973.70488	0.99362
1971.65108	0.99127
1969.59728	0.99069
1967.54347	0.99107
1965.48967	0.99150
1963.43587	0.99184
1961.38206	0.99146
1959.32826	0.99111
1957.27446	0.99170
1955.22066	0.99241
1953.16685	0.99202
1951.11305	0.99233
1949.05925	0.99404
1947.00544	0.99430
1944.95164	0.99281
1942.89784	0.99106
1940.84403	0.99007
1938.79023	0.99083
1936.73643	0.99271
1934.68262	0.99360
1932.62882	0.99251
1930.57502	0.99153
1928.52121	0.99202
1926.46741	0.99226
1924.41361	0.99219
1922.35980	0.99286
1920.30600	0.99287
1918.25220	0.99161
1916.19839	0.99104
1914.14459	0.99156
1912.09079	0.99140
1910.03698	0.99097
1907.98318	0.99126
1905.92938	0.99123
1903.87557	0.99111
1901.82177	0.99097
1899.76797	0.99051
1897.71417	0.99070
1895.66036	0.99134
1893.60656	0.99133
1891.55276	0.99094
1889.49895	0.99126
1887.44515	0.99214
1885.39135	0.99257
1883.33754	0.99202
1881.28374	0.99088
1879.22994	0.99034
1877.17613	0.99066
1875.12233	0.99103
1873.06853	0.99129
1871.01472	0.99160
1868.96092	0.99172
1866.90712	0.99189
1864.85331	0.99233
1862.79951	0.99237
1860.74571	0.99198
1858.69190	0.99193
1856.63810	0.99232
1854.58430	0.99229
1852.53049	0.99115
1850.47669	0.99009
1848.42289	0.99022
1846.36908	0.99069
1844.31528	0.99095
1842.26148	0.99111
1840.20768	0.99109
1838.15387	0.99112
1836.10007	0.99143
1834.04627	0.99162
1831.99246	0.99126
1829.93866	0.99067
1827.88486	0.99030
1825.83105	0.99027
1823.77725	0.99054
1821.72345	0.99083
1819.66964	0.99078
1817.61584	0.99029
1815.56204	0.99011
1813.50823	0.99063
1811.45443	0.99111
1809.40063	0.99081
1807.34682	0.99002
1805.29302	0.98974
1803.23922	0.99038
1801.18541	0.99118
1799.13161	0.99110
1797.07781	0.99043
1795.02400	0.98999
1792.97020	0.98988
1790.91640	0.98983
1788.86260	0.98973
1786.80879	0.98965
1784.75499	0.98984
1782.70119	0.99029
1780.64738	0.99046
1778.59358	0.99000
1776.53978	0.98930
1774.48597	0.98911
1772.43217	0.98961
1770.37837	0.98976
1768.32456	0.98940
1766.27076	0.98914
1764.21696	0.98897
1762.16315	0.98881
1760.10935	0.98879
1758.05555	0.98888
1756.00174	0.98883
1753.94794	0.98839
1751.89414	0.98744
1749.84033	0.98646
1747.78653	0.98606
1745.73273	0.98616
1743.67892	0.98629
1741.62512	0.98599
1739.57132	0.98569
1737.51751	0.98586
1735.46371	0.98613
1733.40991	0.98601
1731.35611	0.98546
1729.30230	0.98490
1727.24850	0.98451
1725.19470	0.98420
1723.14089	0.98345
1721.08709	0.98235
1719.03329	0.98135
1716.97948	0.98048
1714.92568	0.98008
1712.87188	0.98007
1710.81807	0.98032
1708.76427	0.98101
1706.71047	0.98210
1704.65666	0.98289
1702.60286	0.98299
1700.54906	0.98280
1698.49525	0.98289
1696.44145	0.98343
1694.38765	0.98414
1692.33384	0.98441
1690.28004	0.98416
1688.22624	0.98364
1686.17243	0.98304
1684.11863	0.98271
1682.06483	0.98307
1680.01103	0.98340
1677.95722	0.98352
1675.90342	0.98337
1673.84962	0.98288
1671.79581	0.98245
1669.74201	0.98215
1667.68821	0.98186
1665.63440	0.98162
1663.58060	0.98131
1661.52680	0.98106
1659.47299	0.98112
1657.41919	0.98138
1655.36539	0.98169
1653.31158	0.98182
1651.25778	0.98172
1649.20398	0.98194
1647.15017	0.98226
1645.09637	0.98187
1643.04257	0.98103
1640.98876	0.98047
1638.93496	0.98028
1636.88116	0.98026
1634.82735	0.98013
1632.77355	0.97978
1630.71975	0.97966
1628.66594	0.97982
1626.61214	0.97982
1624.55834	0.97949
1622.50454	0.97904
1620.45073	0.97879
1618.39693	0.97859
1616.34313	0.97814
1614.28932	0.97770
1612.23552	0.97758
1610.18172	0.97773
1608.12791	0.97764
1606.07411	0.97730
1604.02031	0.97710
1601.96650	0.97709
1599.91270	0.97733
1597.85890	0.97761
1595.80509	0.97775
1593.75129	0.97799
1591.69749	0.97832
1589.64368	0.97837
1587.58988	0.97824
1585.53608	0.97858
1583.48227	0.97934
1581.42847	0.97986
1579.37467	0.98002
1577.32086	0.98023
1575.26706	0.98096
1573.21326	0.98183
1571.15945	0.98231
1569.10565	0.98266
1567.05185	0.98319
1564.99805	0.98343
1562.94424	0.98302
1560.89044	0.98225
1558.83664	0.98221
1556.78283	0.98312
1554.72903	0.98356
1552.67523	0.98389
1550.62142	0.98401
1548.56762	0.98391
1546.51382	0.98399
1544.46001	0.98404
1542.40621	0.98377
1540.35241	0.98375
1538.29860	0.98452
1536.24480	0.98526
1534.19100	0.98538
1532.13719	0.98490
1530.08339	0.98474
1528.02959	0.98495
1525.97578	0.98494
1523.92198	0.98471
1521.86818	0.98475
1519.81437	0.98508
1517.76057	0.98499
1515.70677	0.98470
1513.65297	0.98470
1511.59916	0.98471
1509.54536	0.98474
1507.49156	0.98496
1505.43775	0.98513
1503.38395	0.98506
1501.33015	0.98488
1499.27634	0.98447
1497.22254	0.98392
1495.16874	0.98352
1493.11493	0.98314
1491.06113	0.98236
1489.00733	0.98137
1486.95352	0.98080
1484.89972	0.97996
1482.84592	0.97820
1480.79211	0.97501
1478.73831	0.96778
1476.68451	0.94904
1474.63070	0.91405
1472.57690	0.88145
1470.52310	0.88089
1468.46929	0.89723
1466.41549	0.90894
1464.36169	0.90976
1462.30788	0.91065
1460.25408	0.92237
1458.20028	0.94204
1456.14648	0.95869
1454.09267	0.96536
1452.03887	0.96852
1449.98507	0.97085
1447.93126	0.97251
1445.87746	0.97364
1443.82366	0.97437
1441.76985	0.97488
1439.71605	0.97536
1437.66225	0.97576
1435.60844	0.97588
1433.55464	0.97603
1431.50084	0.97639
1429.44703	0.97684
1427.39323	0.97729
1425.33943	0.97777
1423.28562	0.97840
1421.23182	0.97886
1419.17802	0.97887
1417.12421	0.97864
1415.07041	0.97855
1413.01661	0.97855
1410.96280	0.97859
1408.90900	0.97876
1406.85520	0.97900
1404.80139	0.97931
1402.74759	0.97973
1400.69379	0.98027
1398.63999	0.98083
1396.58618	0.98115
1394.53238	0.98128
1392.47858	0.98142
1390.42477	0.98138
1388.37097	0.98128
1386.31717	0.98150
1384.26336	0.98173
1382.20956	0.98168
1380.15576	0.98151
1378.10195	0.98119
1376.04815	0.98072
1373.99435	0.98032
1371.94054	0.97990
1369.88674	0.97955
1367.83294	0.97962
1365.77913	0.98003
1363.72533	0.98034
1361.67153	0.98064
1359.61772	0.98098
1357.56392	0.98101
1355.51012	0.98097
1353.45631	0.98125
1351.40251	0.98173
1349.34871	0.98210
1347.29491	0.98232
1345.24110	0.98249
1343.18730	0.98255
1341.13350	0.98255
1339.07969	0.98276
1337.02589	0.98329
1334.97209	0.98380
1332.91828	0.98395
1330.86448	0.98373
1328.81068	0.98336
1326.75687	0.98301
1324.70307	0.98276
1322.64927	0.98246
1320.59546	0.98210
1318.54166	0.98172
1316.48786	0.98129
1314.43405	0.98107
1312.38025	0.98113
1310.32645	0.98128
1308.27264	0.98148
1306.21884	0.98154
1304.16504	0.98140
1302.11123	0.98129
1300.05743	0.98123
1298.00363	0.98113
1295.94982	0.98113
1293.89602	0.98117
1291.84222	0.98098
1289.78842	0.98063
1287.73461	0.98034
1285.68081	0.98019
1283.62701	0.98016
1281.57320	0.98012
1279.51940	0.98025
1277.46560	0.98047
1275.41179	0.98051
1273.35799	0.98063
1271.30419	0.98067
1269.25038	0.98041
1267.19658	0.98034
1265.14278	0.98056
1263.08897	0.98076
1261.03517	0.98073
1258.98137	0.98037
1256.92756	0.98020
1254.87376	0.98039
1252.81996	0.98060
1250.76615	0.98065
1248.71235	0.98057
1246.65855	0.98055
1244.60474	0.98063
1242.55094	0.98063
1240.49714	0.98038
1238.44334	0.98018
1236.38953	0.98031
1234.33573	0.98046
1232.28193	0.98052
1230.22812	0.98042
1228.17432	0.97994
1226.12052	0.97940
1224.06671	0.97921
1222.01291	0.97918
1219.95911	0.97908
1217.90530	0.97892
1215.85150	0.97864
1213.79770	0.97826
1211.74389	0.97813
1209.69009	0.97811
1207.63629	0.97760
1205.58248	0.97659
1203.52868	0.97576
1201.47488	0.97549
1199.42107	0.97532
1197.36727	0.97497
1195.31347	0.97433
1193.25966	0.97336
1191.20586	0.97256
1189.15206	0.97214
1187.09825	0.97168
1185.04445	0.97114
1182.99065	0.97082
1180.93685	0.97037
1178.88304	0.96954
1176.82924	0.96891
1174.77544	0.96859
1172.72163	0.96821
1170.66783	0.96767
1168.61403	0.96680
1166.56022	0.96595
1164.50642	0.96576
1162.45262	0.96599
1160.39881	0.96591
1158.34501	0.96557
1156.29121	0.96535
1154.23740	0.96490
1152.18360	0.96418
1150.12980	0.96392
1148.07599	0.96418
1146.02219	0.96406
1143.96839	0.96352
1141.91458	0.96320
1139.86078	0.96289
1137.80698	0.96272
1135.75317	0.96286
1133.69937	0.96257
1131.64557	0.96176
1129.59176	0.96092
1127.53796	0.95996
1125.48416	0.95890
1123.43036	0.95804
1121.37655	0.95765
1119.32275	0.95789
1117.26895	0.95840
1115.21514	0.95845
1113.16134	0.95800
1111.10754	0.95739
1109.05373	0.95673
1106.99993	0.95618
1104.94613	0.95577
1102.89232	0.95531
1100.83852	0.95496
1098.78472	0.95516
1096.73091	0.95563
1094.67711	0.95574
1092.62331	0.95558
1090.56950	0.95523
1088.51570	0.95507
1086.46190	0.95571
1084.40809	0.95655
1082.35429	0.95690
1080.30049	0.95715
1078.24668	0.95735
1076.19288	0.95753
1074.13908	0.95824
1072.08528	0.95895
1070.03147	0.95900
1067.97767	0.95887
1065.92387	0.95880
1063.87006	0.95860
1061.81626	0.95831
1059.76246	0.95826
1057.70865	0.95830
1055.65485	0.95806
1053.60105	0.95768
1051.54724	0.95725
1049.49344	0.95677
1047.43964	0.95629
1045.38583	0.95613
1043.33203	0.95643
1041.27823	0.95691
1039.22442	0.95714
1037.17062	0.95700
1035.11682	0.95696
1033.06301	0.95729
1031.00921	0.95772
1028.95541	0.95797
1026.90160	0.95798
1024.84780	0.95792
1022.79400	0.95805
1020.74019	0.95814
1018.68639	0.95792
1016.63259	0.95789
1014.57879	0.95824
1012.52498	0.95836
1010.47118	0.95829
1008.41738	0.95846
1006.36357	0.95878
1004.30977	0.95942
1002.25597	0.96039
1000.20216	0.96111
998.14836	0.96147
996.09456	0.96173
994.04075	0.96214
991.98695	0.96288
989.93315	0.96392
987.87934	0.96503
985.82554	0.96575
983.77174	0.96617
981.71793	0.96689
979.66413	0.96788
977.61033	0.96864
975.55652	0.96894
973.50272	0.96943
971.44892	0.97048
969.39511	0.97127
967.34131	0.97160
965.28751	0.97194
963.23371	0.97212
961.17990	0.97207
959.12610	0.97240
957.07230	0.97330
955.01849	0.97396
952.96469	0.97409
950.91089	0.97453
948.85708	0.97544
946.80328	0.97588
944.74948	0.97567
942.69567	0.97564
940.64187	0.97589
938.58807	0.97604
936.53426	0.97614
934.48046	0.97645
932.42666	0.97698
930.37285	0.97722
928.31905	0.97698
926.26525	0.97692
924.21144	0.97747
922.15764	0.97809
920.10384	0.97814
918.05003	0.97763
915.99623	0.97700
913.94243	0.97705
911.88862	0.97763
909.83482	0.97773
907.78102	0.97756
905.72722	0.97821
903.67341	0.97960
901.61961	0.98047
899.56581	0.98045
897.51200	0.98007
895.45820	0.97988
893.40440	0.98024
891.35059	0.98046
889.29679	0.98000
887.24299	0.97945
885.18918	0.97920
883.13538	0.97926
881.08158	0.97964
879.02777	0.98014
876.97397	0.98017
874.92017	0.97934
872.86636	0.97860
870.81256	0.97886
868.75876	0.97934
866.70495	0.97937
864.65115	0.97975
862.59735	0.98054
860.54354	0.98084
858.48974	0.98074
856.43594	0.98111
854.38213	0.98185
852.32833	0.98216
850.27453	0.98225
848.22073	0.98256
846.16692	0.98263
844.11312	0.98212
842.05932	0.98176
840.00551	0.98215
837.95171	0.98233
835.89791	0.98180
833.84410	0.98099
831.79030	0.98056
829.73650	0.98102
827.68269	0.98159
825.62889	0.98173
823.57509	0.98161
821.52128	0.98102
819.46748	0.97983
817.41368	0.97884
815.35987	0.97868
813.30607	0.97882
811.25227	0.97923
809.19846	0.97940
807.14466	0.97835
805.09086	0.97670
803.03705	0.97559
800.98325	0.97567
798.92945	0.97641
796.87565	0.97675
794.82184	0.97665
792.76804	0.97630
790.71424	0.97599
788.66043	0.97594
786.60663	0.97572
784.55283	0.97535
782.49902	0.97493
780.44522	0.97457
778.39142	0.97484
776.33761	0.97546
774.28381	0.97562
772.23001	0.97563
770.17620	0.97574
768.12240	0.97550
766.06860	0.97536
764.01479	0.97580
761.96099	0.97615
759.90719	0.97586
757.85338	0.97554
755.79958	0.97605
753.74578	0.97710
751.69197	0.97742
749.63817	0.97675
747.58437	0.97599
745.53056	0.97544
743.47676	0.97494
741.42296	0.97434
739.36916	0.97318
737.31535	0.97034
735.26155	0.96259
733.20775	0.94661
731.15394	0.93064
729.10014	0.92834
727.04634	0.93483
724.99253	0.93523
722.93873	0.92296
720.88493	0.89854
718.83112	0.87367
716.77732	0.86634
714.72352	0.88199
712.66971	0.90915
710.61591	0.93239
708.56211	0.94679
706.50830	0.95529
704.45450	0.96083
702.40070	0.96483
700.34689	0.96723
698.29309	0.96785
696.23929	0.96791
694.18548	0.96866
692.13168	0.96993
690.07788	0.97086
688.02408	0.97071
685.97027	0.97024
683.91647	0.97046
681.86267	0.97032
679.80886	0.96981
677.75506	0.97028
675.70126	0.97067
673.64745	0.97057
671.59365	0.97153
669.53985	0.97374
667.48604	0.97527
665.43224	0.97387
663.37844	0.97190
661.32463	0.97118
659.27083	0.97163
657.21703	0.97144
655.16322	0.96992
653.10942	0.96865
651.05562	0.96795
649.00181	0.96729
646.94801	0.96789
644.89421	0.96982
642.84040	0.97097
640.78660	0.97094
638.73280	0.97021
636.67899	0.96923
634.62519	0.96941
632.57139	0.97058
630.51759	0.97179
628.46378	0.97256
626.40998	0.97212
624.35618	0.97125
622.30237	0.97145
620.24857	0.97184
618.19477	0.97127
616.14096	0.97038
614.08716	0.96920
612.03336	0.96789
609.97955	0.96786
607.92575	0.96848
605.87195	0.96744
603.81814	0.96515
601.76434	0.96397
599.71054	0.96366
597.65673	0.96319
595.60293	0.96365
593.54913	0.96504
591.49532	0.96616
589.44152	0.96705
587.38772	0.96774
585.33391	0.96782
583.28011	0.96720
581.22631	0.96665
579.17250	0.96691
577.11870	0.96728
575.06490	0.96701
573.01110	0.96627
570.95729	0.96569
568.90349	0.96579
566.84969	0.96716
564.79588	0.96818
562.74208	0.96688
560.68828	0.96576
558.63447	0.96653
556.58067	0.96700
554.52687	0.96577
552.47306	0.96440
550.41926	0.96570
548.36546	0.96834
546.31165	0.96825
544.25785	0.96646
542.20405	0.96590
540.15024	0.96589
538.09644	0.96579
536.04264	0.96551
533.98883	0.96452
531.93503	0.96365
529.88123	0.96383
527.82742	0.96542
525.77362	0.96822
523.71982	0.96996
521.66602	0.96958
519.61221	0.96911
517.55841	0.96871
515.50461	0.96699
513.45080	0.96549
511.39700	0.96538
509.34320	0.96549
507.28939	0.96535
505.23559	0.96548
503.18179	0.96534
501.12798	0.96533
499.07418	0.96619
497.02038	0.96689
494.96657	0.96698
492.91277	0.96630
490.85897	0.96514
488.80516	0.96492
486.75136	0.96510
484.69756	0.96376
482.64375	0.96211
480.58995	0.96217
478.53615	0.96273
476.48234	0.96259
474.42854	0.96186
472.37474	0.95926
470.32093	0.95662
468.26713	0.95780
466.21333	0.96032
464.15953	0.96024
462.10572	0.95937
460.05192	0.96044
457.99812	0.96192
455.94431	0.96257
453.89051	0.96391
451.83671	0.96488
449.78290	0.96265
447.72910	0.95942
445.67530	0.96030
443.62149	0.96407
441.56769	0.96520
439.51389	0.96425
437.46008	0.96319
435.40628	0.96130
433.35248	0.96045
431.29867	0.96042
429.24487	0.95876
427.19107	0.95775
425.13726	0.95961
423.08346	0.96180
421.02966	0.96442
418.97585	0.96679
416.92205	0.96187
414.86825	0.95598
412.81445	0.95564
410.76064	0.96006
408.70684	0.96391
406.65304	0.96452
404.59923	0.96606
402.54543	0.96670
400.49163	0.95920
398.43782	0.94656
