3996.71440	0.98855
3994.66059	0.98843
3992.60678	0.98866
3990.55297	0.98926
3988.49916	0.98963
3986.44535	0.98959
3984.39154	0.98915
3982.33773	0.98867
3980.28391	0.98867
3978.23010	0.98902
3976.17629	0.98934
3974.12248	0.98957
3972.06867	0.98964
3970.01486	0.98938
3967.96105	0.98911
3965.90724	0.98919
3963.85343	0.98930
3961.79962	0.98920
3959.74581	0.98902
3957.69200	0.98891
3955.63819	0.98888
3953.58438	0.98890
3951.53057	0.98904
3949.47676	0.98934
3947.42295	0.98933
3945.36914	0.98904
3943.31533	0.98931
3941.26152	0.98984
3939.20771	0.98982
3937.15390	0.98982
3935.10009	0.99009
3933.04628	0.98994
3930.99247	0.98933
3928.93866	0.98888
3926.88485	0.98866
3924.83104	0.98847
3922.77723	0.98840
3920.72342	0.98861
3918.66961	0.98900
3916.61580	0.98927
3914.56199	0.98921
3912.50818	0.98908
3910.45437	0.98918
3908.40056	0.98926
3906.34675	0.98904
3904.29294	0.98881
3902.23913	0.98896
3900.18532	0.98919
3898.13151	0.98939
3896.07770	0.98956
3894.02389	0.98956
3891.97008	0.98935
3889.91627	0.98897
3887.86246	0.98877
3885.80865	0.98904
3883.75484	0.98936
3881.70103	0.98925
3879.64722	0.98898
3877.59341	0.98879
3875.53960	0.98886
3873.48579	0.98926
3871.43198	0.98971
3869.37817	0.99008
3867.32436	0.99004
3865.27055	0.98945
3863.21674	0.98914
3861.16293	0.98960
3859.10912	0.98995
3857.05531	0.98976
3855.00150	0.98910
3852.94769	0.98859
3850.89388	0.98890
3848.84007	0.98923
3846.78626	0.98959
3844.73245	0.99011
3842.67864	0.99037
3840.62483	0.99009
3838.57102	0.98974
3836.51721	0.98960
3834.46340	0.98956
3832.40959	0.98950
3830.35578	0.98920
3828.30197	0.98895
3826.24816	0.98916
3824.19435	0.98949
3822.14054	0.98970
3820.08673	0.99001
3818.03292	0.99010
3815.97911	0.98993
3813.92530	0.98982
3811.87149	0.98980
3809.81768	0.98981
3807.76387	0.98982
3805.71006	0.98977
3803.65625	0.98981
3801.60244	0.99003
3799.54863	0.99015
3797.49482	0.99007
3795.44101	0.98996
3793.38720	0.98982
3791.33339	0.98975
3789.27958	0.98986
3787.22577	0.98989
3785.17196	0.98959
3783.11815	0.98935
3781.06434	0.98933
3779.01053	0.98949
3776.95672	0.98974
3774.90291	0.98976
3772.84910	0.98949
3770.79529	0.98916
3768.74148	0.98901
3766.68767	0.98915
3764.63386	0.98939
3762.58005	0.98934
3760.52624	0.98904
3758.47243	0.98883
3756.41862	0.98895
3754.36481	0.98914
3752.31100	0.98931
3750.25719	0.98980
3748.20338	0.99007
3746.14957	0.98998
3744.09576	0.99014
3742.04195	0.99030
3739.98814	0.99013
3737.93433	0.98978
3735.88052	0.98910
3733.82671	0.98862
3731.77290	0.98901
3729.71909	0.98930
3727.66528	0.98915
3725.61147	0.98917
3723.55766	0.98925
3721.50385	0.98899
3719.45004	0.98867
3717.39623	0.98849
3715.34242	0.98839
3713.28861	0.98824
3711.23480	0.98763
3709.18099	0.98642
3707.12718	0.98565
3705.07337	0.98541
3703.01956	0.98484
3700.96575	0.98409
3698.91194	0.98401
3696.85813	0.98420
3694.80432	0.98393
3692.75051	0.98337
3690.69670	0.98351
3688.64289	0.98467
3686.58907	0.98549
3684.53526	0.98538
3682.48145	0.98471
3680.42764	0.98361
3678.37383	0.98222
3676.32002	0.98165
3674.26621	0.98276
3672.21240	0.98355
3670.15859	0.98355
3668.10478	0.98369
3666.05097	0.98394
3663.99716	0.98382
3661.94335	0.98325
3659.88954	0.98256
3657.83573	0.98214
3655.78192	0.98194
3653.72811	0.98187
3651.67430	0.98161
3649.62049	0.98091
3647.56668	0.98060
3645.51287	0.98051
3643.45906	0.98017
3641.40525	0.98012
3639.35144	0.98029
3637.29763	0.98027
3635.24382	0.98010
3633.19001	0.97941
3631.13620	0.97820
3629.08239	0.97745
3627.02858	0.97747
3624.97477	0.97751
3622.92096	0.97751
3620.86715	0.97753
3618.81334	0.97724
3616.75953	0.97654
3614.70572	0.97602
3612.65191	0.97616
3610.59810	0.97638
3608.54429	0.97587
3606.49048	0.97512
3604.43667	0.97469
3602.38286	0.97434
3600.32905	0.97405
3598.27524	0.97409
3596.22143	0.97404
3594.16762	0.97372
3592.11381	0.97370
3590.06000	0.97413
3588.00619	0.97434
3585.95238	0.97379
3583.89857	0.97310
3581.84476	0.97282
3579.79095	0.97281
3577.73714	0.97246
3575.68333	0.97176
3573.62952	0.97125
3571.57571	0.97081
3569.52190	0.97033
3567.46809	0.96997
3565.41428	0.96977
3563.36047	0.96953
3561.30666	0.96899
3559.25285	0.96850
3557.19904	0.96846
3555.14523	0.96863
3553.09142	0.96866
3551.03761	0.96833
3548.98380	0.96777
3546.92999	0.96726
3544.87618	0.96697
3542.82237	0.96685
3540.76856	0.96655
3538.71475	0.96602
3536.66094	0.96560
3534.60713	0.96526
3532.55332	0.96474
3530.49951	0.96423
3528.44570	0.96380
3526.39189	0.96334
3524.33808	0.96298
3522.28427	0.96266
3520.23046	0.96222
3518.17665	0.96193
3516.12284	0.96160
3514.06903	0.96097
3512.01522	0.96028
3509.96141	0.95966
3507.90760	0.95910
3505.85379	0.95881
3503.79998	0.95873
3501.74617	0.95852
3499.69236	0.95813
3497.63855	0.95754
3495.58474	0.95674
3493.53093	0.95598
3491.47712	0.95548
3489.42331	0.95501
3487.36950	0.95423
3485.31569	0.95348
3483.26188	0.95300
3481.20807	0.95252
3479.15426	0.95217
3477.10045	0.95208
3475.04664	0.95196
3472.99283	0.95149
3470.93902	0.95073
3468.88521	0.95018
3466.83140	0.94993
3464.77759	0.94957
3462.72378	0.94914
3460.66997	0.94881
3458.61616	0.94828
3456.56235	0.94758
3454.50854	0.94718
3452.45473	0.94705
3450.40092	0.94691
3448.34711	0.94686
3446.29330	0.94682
3444.23949	0.94656
3442.18568	0.94616
3440.13187	0.94570
3438.07806	0.94515
3436.02425	0.94473
3433.97044	0.94447
3431.91663	0.94405
3429.86282	0.94348
3427.80901	0.94324
3425.75520	0.94334
3423.70139	0.94332
3421.64758	0.94298
3419.59377	0.94246
3417.53996	0.94226
3415.48615	0.94243
3413.43234	0.94250
3411.37853	0.94216
3409.32472	0.94164
3407.27091	0.94161
3405.21710	0.94189
3403.16329	0.94173
3401.10948	0.94129
3399.05567	0.94117
3397.00186	0.94112
3394.94805	0.94093
3392.89424	0.94086
3390.84042	0.94064
3388.78661	0.94014
3386.73280	0.93981
3384.67899	0.93978
3382.62518	0.93975
3380.57137	0.93953
3378.51756	0.93918
3376.46375	0.93875
3374.40994	0.93838
3372.35613	0.93831
3370.30232	0.93818
3368.24851	0.93761
3366.19470	0.93708
3364.14089	0.93705
3362.08708	0.93721
3360.03327	0.93722
3357.97946	0.93702
3355.92565	0.93675
3353.87184	0.93664
3351.81803	0.93645
3349.76422	0.93609
3347.71041	0.93594
3345.65660	0.93606
3343.60279	0.93628
3341.54898	0.93638
3339.49517	0.93621
3337.44136	0.93618
3335.38755	0.93654
3333.33374	0.93674
3331.27993	0.93652
3329.22612	0.93634
3327.17231	0.93645
3325.11850	0.93662
3323.06469	0.93667
3321.01088	0.93676
3318.95707	0.93684
3316.90326	0.93678
3314.84945	0.93675
3312.79564	0.93670
3310.74183	0.93647
3308.68802	0.93636
3306.63421	0.93636
3304.58040	0.93618
3302.52659	0.93586
3300.47278	0.93567
3298.41897	0.93569
3296.36516	0.93573
3294.31135	0.93577
3292.25754	0.93586
3290.20373	0.93601
3288.14992	0.93622
3286.09611	0.93634
3284.04230	0.93646
3281.98849	0.93657
3279.93468	0.93661
3277.88087	0.93667
3275.82706	0.93662
3273.77325	0.93648
3271.71944	0.93652
3269.66563	0.93689
3267.61182	0.93745
3265.55801	0.93783
3263.50420	0.93787
3261.45039	0.93796
3259.39658	0.93821
3257.34277	0.93835
3255.28896	0.93860
3253.23515	0.93903
3251.18134	0.93925
3249.12753	0.93921
3247.07372	0.93937
3245.01991	0.93987
3242.96610	0.94044
3240.91229	0.94073
3238.85848	0.94054
3236.80467	0.94049
3234.75086	0.94107
3232.69705	0.94141
3230.64324	0.94114
3228.58943	0.94123
3226.53562	0.94192
3224.48181	0.94241
3222.42800	0.94242
3220.37419	0.94229
3218.32038	0.94236
3216.26657	0.94258
3214.21276	0.94270
3212.15895	0.94267
3210.10514	0.94256
3208.05133	0.94253
3205.99752	0.94251
3203.94371	0.94242
3201.88990	0.94241
3199.83609	0.94271
3197.78228	0.94337
3195.72847	0.94403
3193.67466	0.94444
3191.62085	0.94480
3189.56704	0.94517
3187.51323	0.94527
3185.45942	0.94535
3183.40561	0.94579
3181.35180	0.94634
3179.29799	0.94692
3177.24418	0.94735
3175.19037	0.94747
3173.13656	0.94760
3171.08275	0.94789
3169.02894	0.94818
3166.97513	0.94835
3164.92132	0.94847
3162.86751	0.94876
3160.81370	0.94909
3158.75989	0.94919
3156.70608	0.94942
3154.65227	0.94996
3152.59846	0.95051
3150.54465	0.95083
3148.49084	0.95093
3146.43703	0.95117
3144.38322	0.95166
3142.32941	0.95185
3140.27560	0.95169
3138.22179	0.95186
3136.16798	0.95232
3134.11417	0.95253
3132.06036	0.95256
3130.00655	0.95283
3127.95274	0.95342
3125.89893	0.95394
3123.84512	0.95405
3121.79131	0.95391
3119.73750	0.95388
3117.68369	0.95410
3115.62988	0.95427
3113.57607	0.95415
3111.52226	0.95387
3109.46845	0.95381
3107.41464	0.95419
3105.36083	0.95478
3103.30702	0.95531
3101.25321	0.95544
3099.19940	0.95518
3097.14559	0.95494
3095.09177	0.95477
3093.03796	0.95467
3090.98415	0.95466
3088.93034	0.95466
3086.87653	0.95457
3084.82272	0.95438
3082.76891	0.95419
3080.71510	0.95409
3078.66129	0.95406
3076.60748	0.95402
3074.55367	0.95405
3072.49986	0.95433
3070.44605	0.95476
3068.39224	0.95494
3066.33843	0.95495
3064.28462	0.95511
3062.23081	0.95513
3060.17700	0.95499
3058.12319	0.95495
3056.06938	0.95488
3054.01557	0.95475
3051.96176	0.95473
3049.90795	0.95484
3047.85414	0.95499
3045.80033	0.95512
3043.74652	0.95503
3041.69271	0.95475
3039.63890	0.95477
3037.58509	0.95512
3035.53128	0.95525
3033.47747	0.95509
3031.42366	0.95488
3029.36985	0.95467
3027.31604	0.95441
3025.26223	0.95407
3023.20842	0.95377
3021.15461	0.95349
3019.10080	0.95326
3017.04699	0.95315
3014.99318	0.95275
3012.93937	0.95193
3010.88556	0.95117
3008.83175	0.95072
3006.77794	0.95047
3004.72413	0.95023
3002.67032	0.94993
3000.61651	0.94959
2998.56270	0.94912
2996.50889	0.94844
2994.45508	0.94763
2992.40127	0.94668
2990.34746	0.94550
2988.29365	0.94401
2986.23984	0.94220
2984.18603	0.94008
2982.13222	0.93778
2980.07841	0.93516
2978.02460	0.93203
2975.97079	0.92840
2973.91698	0.92417
2971.86317	0.91929
2969.80936	0.91368
2967.75555	0.90708
2965.70174	0.89990
2963.64793	0.89278
2961.59412	0.88600
2959.54031	0.88002
2957.48650	0.87529
2955.43269	0.87175
2953.37888	0.86905
2951.32507	0.86653
2949.27126	0.86294
2947.21745	0.85715
2945.16364	0.84819
2943.10983	0.83540
2941.05602	0.81882
2939.00221	0.79867
2936.94840	0.77515
2934.89459	0.74850
2932.84078	0.71893
2930.78697	0.68654
2928.73316	0.65100
2926.67935	0.61176
2924.62554	0.56841
2922.57173	0.52154
2920.51792	0.47407
2918.46411	0.43277
2916.41030	0.40885
2914.35649	0.41228
2912.30268	0.44172
2910.24887	0.48451
2908.19506	0.52755
2906.14125	0.56452
2904.08744	0.59438
2902.03363	0.61839
2899.97982	0.63838
2897.92601	0.65596
2895.87220	0.67242
2893.81839	0.68866
2891.76458	0.70513
2889.71077	0.72180
2887.65696	0.73844
2885.60315	0.75483
2883.54934	0.77066
2881.49553	0.78543
2879.44172	0.79848
2877.38791	0.80911
2875.33410	0.81689
2873.28029	0.82182
2871.22648	0.82429
2869.17267	0.82459
2867.11886	0.82175
2865.06505	0.81391
2863.01124	0.79928
2860.95743	0.77633
2858.90362	0.74347
2856.84981	0.69849
2854.79600	0.63978
2852.74219	0.57059
2850.68838	0.50515
2848.63457	0.46825
2846.58076	0.47787
2844.52695	0.52810
2842.47314	0.59688
2840.41933	0.66500
2838.36552	0.72286
2836.31171	0.76814
2834.25790	0.80252
2832.20409	0.82869
2830.15028	0.84876
2828.09647	0.86435
2826.04266	0.87681
2823.98885	0.88708
2821.93504	0.89571
2819.88123	0.90289
2817.82742	0.90868
2815.77361	0.91333
2813.71980	0.91738
2811.66599	0.92111
2809.61218	0.92437
2807.55837	0.92716
2805.50456	0.92974
2803.45075	0.93213
2801.39693	0.93440
2799.34312	0.93652
2797.28931	0.93842
2795.23550	0.94014
2793.18169	0.94167
2791.12788	0.94323
2789.07407	0.94503
2787.02026	0.94675
2784.96645	0.94801
2782.91264	0.94905
2780.85883	0.95018
2778.80502	0.95121
2776.75121	0.95189
2774.69740	0.95242
2772.64359	0.95323
2770.58978	0.95421
2768.53597	0.95515
2766.48216	0.95602
2764.42835	0.95659
2762.37454	0.95677
2760.32073	0.95691
2758.26692	0.95744
2756.21311	0.95821
2754.15930	0.95872
2752.10549	0.95889
2750.05168	0.95905
2747.99787	0.95935
2745.94406	0.95962
2743.89025	0.95967
2741.83644	0.95955
2739.78263	0.95947
2737.72882	0.95964
2735.67501	0.95996
2733.62120	0.96025
2731.56739	0.96050
2729.51358	0.96064
2727.45977	0.96075
2725.40596	0.96099
2723.35215	0.96141
2721.29834	0.96190
2719.24453	0.96219
2717.19072	0.96236
2715.13691	0.96268
2713.08310	0.96289
2711.02929	0.96289
2708.97548	0.96318
2706.92167	0.96359
2704.86786	0.96368
2702.81405	0.96369
2700.76024	0.96382
2698.70643	0.96388
2696.65262	0.96400
2694.59881	0.96433
2692.54500	0.96468
2690.49119	0.96478
2688.43738	0.96466
2686.38357	0.96460
2684.32976	0.96471
2682.27595	0.96472
2680.22214	0.96441
2678.16833	0.96408
2676.11452	0.96402
2674.06071	0.96408
2672.00690	0.96416
2669.95309	0.96418
2667.89928	0.96398
2665.84547	0.96375
2663.79166	0.96374
2661.73785	0.96381
2659.68404	0.96390
2657.63023	0.96405
2655.57642	0.96422
2653.52261	0.96431
2651.46880	0.96440
2649.41499	0.96474
2647.36118	0.96517
2645.30737	0.96522
2643.25356	0.96498
2641.19975	0.96506
2639.14594	0.96534
2637.09213	0.96548
2635.03832	0.96563
2632.98451	0.96594
2630.93070	0.96649
2628.87689	0.96705
2626.82308	0.96728
2624.76927	0.96737
2622.71546	0.96766
2620.66165	0.96809
2618.60784	0.96844
2616.55403	0.96890
2614.50022	0.96951
2612.44641	0.96985
2610.39260	0.97003
2608.33879	0.97015
2606.28498	0.96995
2604.23117	0.96962
2602.17736	0.96978
2600.12355	0.97028
2598.06974	0.97062
2596.01593	0.97088
2593.96212	0.97122
2591.90831	0.97181
2589.85450	0.97240
2587.80069	0.97249
2585.74688	0.97239
2583.69307	0.97273
2581.63926	0.97329
2579.58545	0.97350
2577.53164	0.97355
2575.47783	0.97359
2573.42402	0.97364
2571.37021	0.97377
2569.31640	0.97381
2567.26259	0.97382
2565.20878	0.97400
2563.15497	0.97404
2561.10116	0.97393
2559.04735	0.97413
2556.99354	0.97454
2554.93973	0.97489
2552.88592	0.97501
2550.83211	0.97481
2548.77830	0.97452
2546.72449	0.97440
2544.67068	0.97462
2542.61687	0.97513
2540.56306	0.97567
2538.50925	0.97609
2536.45544	0.97640
2534.40163	0.97660
2532.34782	0.97668
2530.29401	0.97669
2528.24020	0.97674
2526.18639	0.97682
2524.13258	0.97694
2522.07877	0.97708
2520.02496	0.97703
2517.97115	0.97692
2515.91734	0.97704
2513.86353	0.97723
2511.80972	0.97724
2509.75591	0.97713
2507.70210	0.97703
2505.64828	0.97726
2503.59447	0.97793
2501.54066	0.97843
2499.48685	0.97849
2497.43304	0.97856
2495.37923	0.97871
2493.32542	0.97873
2491.27161	0.97885
2489.21780	0.97915
2487.16399	0.97923
2485.11018	0.97914
2483.05637	0.97906
2481.00256	0.97889
2478.94875	0.97896
2476.89494	0.97949
2474.84113	0.98004
2472.78732	0.98025
2470.73351	0.98008
2468.67970	0.97992
2466.62589	0.98010
2464.57208	0.98026
2462.51827	0.97998
2460.46446	0.97955
2458.41065	0.97964
2456.35684	0.98029
2454.30303	0.98078
2452.24922	0.98082
2450.19541	0.98070
2448.14160	0.98065
2446.08779	0.98046
2444.03398	0.98021
2441.98017	0.98060
2439.92636	0.98141
2437.87255	0.98147
2435.81874	0.98077
2433.76493	0.98037
2431.71112	0.98050
2429.65731	0.98057
2427.60350	0.98069
2425.54969	0.98094
2423.49588	0.98099
2421.44207	0.98121
2419.38826	0.98175
2417.33445	0.98220
2415.28064	0.98218
2413.22683	0.98175
2411.17302	0.98135
2409.11921	0.98129
2407.06540	0.98173
2405.01159	0.98255
2402.95778	0.98311
2400.90397	0.98285
2398.85016	0.98223
2396.79635	0.98209
2394.74254	0.98218
2392.68873	0.98205
2390.63492	0.98219
2388.58111	0.98267
2386.52730	0.98270
2384.47349	0.98219
2382.41968	0.98180
2380.36587	0.98178
2378.31206	0.98201
2376.25825	0.98242
2374.20444	0.98261
2372.15063	0.98217
2370.09682	0.98154
2368.04301	0.98189
2365.98920	0.98288
2363.93539	0.98281
2361.88158	0.98233
2359.82777	0.98222
2357.77396	0.98199
2355.72015	0.98188
2353.66634	0.98152
2351.61253	0.98102
2349.55872	0.98121
2347.50491	0.98167
2345.45110	0.98172
2343.39729	0.98143
2341.34348	0.98090
2339.28967	0.98025
2337.23586	0.97995
2335.18205	0.97976
2333.12824	0.97980
2331.07443	0.98045
2329.02062	0.98085
2326.96681	0.98046
2324.91300	0.97973
2322.85919	0.97958
2320.80538	0.97998
2318.75157	0.98030
2316.69776	0.98078
2314.64395	0.98134
2312.59014	0.98188
2310.53633	0.98230
2308.48252	0.98213
2306.42871	0.98163
2304.37490	0.98157
2302.32109	0.98202
2300.26728	0.98258
2298.21347	0.98289
2296.15966	0.98288
2294.10585	0.98274
2292.05204	0.98261
2289.99823	0.98243
2287.94442	0.98208
2285.89061	0.98178
2283.83680	0.98174
2281.78299	0.98190
2279.72918	0.98232
2277.67537	0.98282
2275.62156	0.98296
2273.56775	0.98302
2271.51394	0.98347
2269.46013	0.98408
2267.40632	0.98465
2265.35251	0.98502
2263.29870	0.98512
2261.24489	0.98492
2259.19108	0.98457
2257.13727	0.98452
2255.08346	0.98460
2253.02965	0.98446
2250.97584	0.98399
2248.92203	0.98357
2246.86822	0.98370
2244.81441	0.98397
2242.76060	0.98400
2240.70679	0.98374
2238.65298	0.98338
2236.59917	0.98359
2234.54536	0.98440
2232.49155	0.98508
2230.43774	0.98545
2228.38393	0.98608
2226.33012	0.98665
2224.27631	0.98596
2222.22250	0.98456
2220.16869	0.98433
2218.11488	0.98519
2216.06107	0.98574
2214.00726	0.98600
2211.95344	0.98576
2209.89963	0.98470
2207.84582	0.98453
2205.79201	0.98600
2203.73820	0.98673
2201.68439	0.98619
2199.63058	0.98641
2197.57677	0.98677
2195.52296	0.98581
2193.46915	0.98452
2191.41534	0.98451
2189.36153	0.98564
2187.30772	0.98643
2185.25391	0.98619
2183.20010	0.98575
2181.14629	0.98645
2179.09248	0.98748
2177.03867	0.98728
2174.98486	0.98675
2172.93105	0.98659
2170.87724	0.98560
2168.82343	0.98409
2166.76962	0.98368
2164.71581	0.98432
2162.66200	0.98544
2160.60819	0.98884
2158.55438	0.99356
2156.50057	0.99409
2154.44676	0.99135
2152.39295	0.98957
2150.33914	0.98879
2148.28533	0.98781
2146.23152	0.98700
2144.17771	0.98631
2142.12390	0.98578
2140.07009	0.98624
2138.01628	0.98726
2135.96247	0.98794
2133.90866	0.98795
2131.85485	0.98767
2129.80104	0.98782
2127.74723	0.98750
2125.69342	0.98617
2123.63961	0.98505
2121.58580	0.98480
2119.53199	0.98510
2117.47818	0.98548
2115.42437	0.98576
2113.37056	0.98602
2111.31675	0.98615
2109.26294	0.98614
2107.20913	0.98641
2105.15532	0.98690
2103.10151	0.98706
2101.04770	0.98667
2098.99389	0.98576
2096.94008	0.98501
2094.88627	0.98512
2092.83246	0.98568
2090.77865	0.98589
2088.72484	0.98600
2086.67103	0.98667
2084.61722	0.98720
2082.56341	0.98666
2080.50960	0.98582
2078.45579	0.98544
2076.40198	0.98519
2074.34817	0.98508
2072.29436	0.98473
2070.24055	0.98393
2068.18674	0.98389
2066.13293	0.98482
2064.07912	0.98554
2062.02531	0.98531
2059.97150	0.98469
2057.91769	0.98456
2055.86388	0.98470
2053.81007	0.98454
2051.75626	0.98395
2049.70245	0.98354
2047.64864	0.98389
2045.59483	0.98492
2043.54102	0.98596
2041.48721	0.98608
2039.43340	0.98555
2037.37959	0.98506
2035.32578	0.98452
2033.27197	0.98389
2031.21816	0.98336
2029.16435	0.98320
2027.11054	0.98382
2025.05673	0.98453
2023.00292	0.98490
2020.94911	0.98584
2018.89530	0.98699
2016.84149	0.98740
2014.78768	0.98680
2012.73387	0.98611
2010.68006	0.98623
2008.62625	0.98644
2006.57244	0.98610
2004.51863	0.98557
2002.46482	0.98575
2000.41101	0.98687
1998.35720	0.98795
1996.30339	0.98840
1994.24958	0.98854
1992.19577	0.98894
1990.14196	0.98902
1988.08815	0.98734
1986.03434	0.98458
1983.98053	0.98304
1981.92672	0.98307
1979.87291	0.98363
1977.81910	0.98429
1975.76529	0.98538
1973.71148	0.98701
1971.65767	0.98735
1969.60386	0.98623
1967.55005	0.98624
1965.49624	0.98644
1963.44243	0.98569
1961.38862	0.98595
1959.33481	0.98652
1957.28100	0.98595
1955.22719	0.98482
1953.17338	0.98389
1951.11957	0.98424
1949.06576	0.98526
1947.01195	0.98545
1944.95814	0.98535
1942.90433	0.98546
1940.85052	0.98496
1938.79671	0.98429
1936.74290	0.98422
1934.68909	0.98469
1932.63528	0.98546
1930.58147	0.98553
1928.52766	0.98459
1926.47385	0.98379
1924.42004	0.98386
1922.36623	0.98463
1920.31242	0.98481
1918.25861	0.98424
1916.20479	0.98401
1914.15098	0.98410
1912.09717	0.98409
1910.04336	0.98407
1907.98955	0.98396
1905.93574	0.98353
1903.88193	0.98293
1901.82812	0.98272
1899.77431	0.98308
1897.72050	0.98342
1895.66669	0.98336
1893.61288	0.98344
1891.55907	0.98372
1889.50526	0.98385
1887.45145	0.98381
1885.39764	0.98353
1883.34383	0.98314
1881.29002	0.98306
1879.23621	0.98321
1877.18240	0.98326
1875.12859	0.98329
1873.07478	0.98340
1871.02097	0.98336
1868.96716	0.98299
1866.91335	0.98274
1864.85954	0.98266
1862.80573	0.98276
1860.75192	0.98327
1858.69811	0.98370
1856.64430	0.98362
1854.59049	0.98322
1852.53668	0.98298
1850.48287	0.98302
1848.42906	0.98301
1846.37525	0.98278
1844.32144	0.98256
1842.26763	0.98243
1840.21382	0.98243
1838.16001	0.98271
1836.10620	0.98287
1834.05239	0.98282
1831.99858	0.98283
1829.94477	0.98255
1827.89096	0.98184
1825.83715	0.98138
1823.78334	0.98141
1821.72953	0.98150
1819.67572	0.98127
1817.62191	0.98103
1815.56810	0.98102
1813.51429	0.98106
1811.46048	0.98091
1809.40667	0.98035
1807.35286	0.97972
1805.29905	0.97933
1803.24524	0.97912
1801.19143	0.97869
1799.13762	0.97776
1797.08381	0.97682
1795.03000	0.97621
1792.97619	0.97538
1790.92238	0.97425
1788.86857	0.97360
1786.81476	0.97315
1784.76095	0.97241
1782.70714	0.97168
1780.65333	0.97122
1778.59952	0.97077
1776.54571	0.97028
1774.49190	0.96967
1772.43809	0.96861
1770.38428	0.96737
1768.33047	0.96626
1766.27666	0.96514
1764.22285	0.96388
1762.16904	0.96198
1760.11523	0.95926
1758.06142	0.95610
1756.00761	0.95245
1753.95380	0.94843
1751.89999	0.94341
1749.84618	0.93722
1747.79237	0.93138
1745.73856	0.92638
1743.68475	0.92202
1741.63094	0.91826
1739.57713	0.91554
1737.52332	0.91487
1735.46951	0.91605
1733.41570	0.91775
1731.36189	0.91797
1729.30808	0.91631
1727.25427	0.91270
1725.20046	0.90720
1723.14665	0.90075
1721.09284	0.89531
1719.03903	0.89051
1716.98522	0.88462
1714.93141	0.87999
1712.87760	0.87875
1710.82379	0.88037
1708.76998	0.88402
1706.71617	0.88905
1704.66236	0.89439
1702.60855	0.89830
1700.55474	0.90144
1698.50093	0.90426
1696.44712	0.90667
1694.39331	0.90898
1692.33950	0.91042
1690.28569	0.91104
1688.23188	0.91087
1686.17807	0.91006
1684.12426	0.90825
1682.07045	0.90593
1680.01664	0.90397
1677.96283	0.90219
1675.90902	0.90039
1673.85521	0.89851
1671.80140	0.89685
1669.74759	0.89490
1667.69378	0.89257
1665.63997	0.89061
1663.58616	0.88882
1661.53235	0.88709
1659.47854	0.88569
1657.42473	0.88438
1655.37092	0.88301
1653.31711	0.88191
1651.26330	0.88167
1649.20949	0.88164
1647.15568	0.88139
1645.10187	0.88096
1643.04806	0.88046
1640.99425	0.87996
1638.94044	0.87935
1636.88663	0.87837
1634.83282	0.87698
1632.77901	0.87593
1630.72520	0.87511
1628.67139	0.87423
1626.61758	0.87362
1624.56377	0.87347
1622.50996	0.87328
1620.45614	0.87286
1618.40233	0.87247
1616.34852	0.87192
1614.29471	0.87114
1612.24090	0.87030
1610.18709	0.86934
1608.13328	0.86819
1606.07947	0.86683
1604.02566	0.86537
1601.97185	0.86408
1599.91804	0.86315
1597.86423	0.86248
1595.81042	0.86184
1593.75661	0.86135
1591.70280	0.86132
1589.64899	0.86168
1587.59518	0.86213
1585.54137	0.86274
1583.48756	0.86392
1581.43375	0.86559
1579.37994	0.86723
1577.32613	0.86896
1575.27232	0.87151
1573.21851	0.87434
1571.16470	0.87730
1569.11089	0.88079
1567.05708	0.88373
1565.00327	0.88605
1562.94946	0.88797
1560.89565	0.88949
1558.84184	0.89150
1556.78803	0.89347
1554.73422	0.89478
1552.68041	0.89605
1550.62660	0.89728
1548.57279	0.89843
1546.51898	0.89967
1544.46517	0.90112
1542.41136	0.90263
1540.35755	0.90512
1538.30374	0.90834
1536.24993	0.91050
1534.19612	0.91260
1532.14231	0.91501
1530.08850	0.91685
1528.03469	0.91827
1525.98088	0.91973
1523.92707	0.92116
1521.87326	0.92249
1519.81945	0.92349
1517.76564	0.92405
1515.71183	0.92475
1513.65802	0.92565
1511.60421	0.92637
1509.55040	0.92688
1507.49659	0.92744
1505.44278	0.92819
1503.38897	0.92837
1501.33516	0.92801
1499.28135	0.92733
1497.22754	0.92651
1495.17373	0.92538
1493.11992	0.92394
1491.06611	0.92215
1489.01230	0.91964
1486.95849	0.91661
1484.90468	0.91349
1482.85087	0.90940
1480.79706	0.90273
1478.74325	0.89026
1476.68944	0.86165
1474.63563	0.80864
1472.58182	0.75329
1470.52801	0.73279
1468.47420	0.73149
1466.42039	0.72396
1464.36658	0.71031
1462.31277	0.71193
1460.25896	0.73403
1458.20515	0.76454
1456.15134	0.79000
1454.09753	0.80476
1452.04372	0.81587
1449.98991	0.82569
1447.93610	0.83376
1445.88229	0.83979
1443.82848	0.84397
1441.77467	0.84710
1439.72086	0.84941
1437.66705	0.85154
1435.61324	0.85397
1433.55943	0.85623
1431.50562	0.85842
1429.45181	0.86075
1427.39800	0.86262
1425.34419	0.86379
1423.29038	0.86443
1421.23657	0.86448
1419.18276	0.86415
1417.12895	0.86404
1415.07514	0.86438
1413.02133	0.86508
1410.96752	0.86643
1408.91371	0.86860
1406.85990	0.87149
1404.80609	0.87501
1402.75228	0.87850
1400.69847	0.88139
1398.64466	0.88392
1396.59085	0.88620
1394.53704	0.88809
1392.48323	0.88952
1390.42942	0.89047
1388.37561	0.89074
1386.32180	0.88963
1384.26799	0.88694
1382.21418	0.88290
1380.16037	0.87814
1378.10656	0.87473
1376.05275	0.87454
1373.99894	0.87692
1371.94513	0.87930
1369.89132	0.88068
1367.83751	0.88180
1365.78370	0.88318
1363.72989	0.88505
1361.67608	0.88740
1359.62227	0.88969
1357.56846	0.89165
1355.51465	0.89325
1353.46084	0.89469
1351.40703	0.89627
1349.35322	0.89816
1347.29941	0.90015
1345.24560	0.90192
1343.19179	0.90351
1341.13798	0.90512
1339.08417	0.90670
1337.03036	0.90798
1334.97655	0.90888
1332.92274	0.90939
1330.86893	0.90952
1328.81512	0.90932
1326.76130	0.90860
1324.70749	0.90742
1322.65368	0.90599
1320.59987	0.90439
1318.54606	0.90285
1316.49225	0.90184
1314.43844	0.90139
1312.38463	0.90131
1310.33082	0.90138
1308.27701	0.90145
1306.22320	0.90152
1304.16939	0.90168
1302.11558	0.90188
1300.06177	0.90208
1298.00796	0.90227
1295.95415	0.90245
1293.90034	0.90258
1291.84653	0.90253
1289.79272	0.90225
1287.73891	0.90175
1285.68510	0.90113
1283.63129	0.90048
1281.57748	0.89965
1279.52367	0.89859
1277.46986	0.89739
1275.41605	0.89617
1273.36224	0.89502
1271.30843	0.89381
1269.25462	0.89255
1267.20081	0.89149
1265.14700	0.89079
1263.09319	0.89052
1261.03938	0.89064
1258.98557	0.89111
1256.93176	0.89173
1254.87795	0.89219
1252.82414	0.89251
1250.77033	0.89273
1248.71652	0.89287
1246.66271	0.89324
1244.60890	0.89385
1242.55509	0.89434
1240.50128	0.89460
1238.44747	0.89487
1236.39366	0.89536
1234.33985	0.89608
1232.28604	0.89681
1230.23223	0.89735
1228.17842	0.89773
1226.12461	0.89812
1224.07080	0.89861
1222.01699	0.89914
1219.96318	0.89962
1217.90937	0.90018
1215.85556	0.90082
1213.80175	0.90130
1211.74794	0.90136
1209.69413	0.90097
1207.64032	0.90046
1205.58651	0.90012
1203.53270	0.89989
1201.47889	0.89963
1199.42508	0.89929
1197.37127	0.89873
1195.31746	0.89793
1193.26365	0.89713
1191.20984	0.89646
1189.15603	0.89559
1187.10222	0.89439
1185.04841	0.89304
1182.99460	0.89155
1180.94079	0.88987
1178.88698	0.88820
1176.83317	0.88648
1174.77936	0.88445
1172.72555	0.88242
1170.67174	0.88079
1168.61793	0.87950
1166.56412	0.87852
1164.51031	0.87780
1162.45650	0.87724
1160.40269	0.87693
1158.34888	0.87690
1156.29507	0.87694
1154.24126	0.87695
1152.18745	0.87679
1150.13364	0.87637
1148.07983	0.87578
1146.02602	0.87510
1143.97221	0.87428
1141.91840	0.87306
1139.86459	0.87121
1137.81078	0.86859
1135.75697	0.86510
1133.70316	0.86094
1131.64935	0.85643
1129.59554	0.85180
1127.54173	0.84738
1125.48792	0.84325
1123.43411	0.83949
1121.38030	0.83636
1119.32649	0.83399
1117.27268	0.83252
1115.21887	0.83209
1113.16506	0.83218
1111.11125	0.83208
1109.05744	0.83165
1107.00363	0.83103
1104.94982	0.83010
1102.89601	0.82871
1100.84220	0.82716
1098.78839	0.82587
1096.73458	0.82466
1094.68077	0.82336
1092.62696	0.82215
1090.57315	0.82120
1088.51934	0.82051
1086.46553	0.81982
1084.41172	0.81904
1082.35791	0.81856
1080.30410	0.81844
1078.25029	0.81821
1076.19648	0.81781
1074.14267	0.81751
1072.08886	0.81707
1070.03505	0.81617
1067.98124	0.81498
1065.92743	0.81345
1063.87362	0.81143
1061.81981	0.80896
1059.76600	0.80600
1057.71219	0.80253
1055.65838	0.79819
1053.60457	0.79260
1051.55076	0.78618
1049.49695	0.77991
1047.44314	0.77452
1045.38933	0.77009
1043.33552	0.76649
1041.28171	0.76388
1039.22790	0.76218
1037.17409	0.76108
1035.12028	0.76062
1033.06647	0.76075
1031.01265	0.76112
1028.95884	0.76172
1026.90503	0.76241
1024.85122	0.76253
1022.79741	0.76197
1020.74360	0.76143
1018.68979	0.76191
1016.63598	0.76408
1014.58217	0.76775
1012.52836	0.77234
1010.47455	0.77746
1008.42074	0.78275
1006.36693	0.78803
1004.31312	0.79319
1002.25931	0.79810
1000.20550	0.80299
998.15169	0.80818
996.09788	0.81366
994.04407	0.81927
991.99026	0.82481
989.93645	0.82999
987.88264	0.83474
985.82883	0.83945
983.77502	0.84410
981.72121	0.84839
979.66740	0.85254
977.61359	0.85670
975.55978	0.86054
973.50597	0.86387
971.45216	0.86693
969.39835	0.86992
967.34454	0.87268
965.29073	0.87506
963.23692	0.87730
961.18311	0.87965
959.12930	0.88181
957.07549	0.88358
955.02168	0.88533
952.96787	0.88723
950.91406	0.88901
948.86025	0.89044
946.80644	0.89172
944.75263	0.89296
942.69882	0.89392
940.64501	0.89471
938.59120	0.89536
936.53739	0.89551
934.48358	0.89549
932.42977	0.89574
930.37596	0.89616
928.32215	0.89675
926.26834	0.89731
924.21453	0.89753
922.16072	0.89760
920.10691	0.89750
918.05310	0.89719
915.99929	0.89701
913.94548	0.89720
911.89167	0.89770
909.83786	0.89831
907.78405	0.89930
905.73024	0.90119
903.67643	0.90373
901.62262	0.90626
899.56881	0.90837
897.51500	0.91007
895.46119	0.91127
893.40738	0.91225
891.35357	0.91330
889.29976	0.91394
887.24595	0.91424
885.19214	0.91451
883.13833	0.91429
881.08452	0.91311
879.03071	0.91105
876.97690	0.90885
874.92309	0.90718
872.86928	0.90665
870.81547	0.90790
868.76166	0.91023
866.70785	0.91210
864.65404	0.91296
862.60023	0.91320
860.54642	0.91314
858.49261	0.91337
856.43880	0.91441
854.38499	0.91583
852.33118	0.91704
850.27737	0.91807
848.22356	0.91937
846.16975	0.92094
844.11594	0.92233
842.06213	0.92336
840.00832	0.92377
837.95451	0.92319
835.90070	0.92223
833.84689	0.92187
831.79308	0.92194
829.73927	0.92181
827.68546	0.92132
825.63165	0.92059
823.57784	0.92005
821.52403	0.91999
819.47022	0.91987
817.41641	0.91947
815.36260	0.91914
813.30879	0.91882
811.25498	0.91821
809.20117	0.91711
807.14736	0.91567
805.09355	0.91410
803.03974	0.91220
800.98593	0.91021
798.93212	0.90898
796.87831	0.90869
794.82450	0.90881
792.77069	0.90901
790.71688	0.90888
788.66307	0.90784
786.60926	0.90636
784.55545	0.90507
782.50164	0.90355
780.44783	0.90196
778.39402	0.90131
776.34021	0.90193
774.28640	0.90308
772.23259	0.90401
770.17878	0.90480
768.12497	0.90547
766.07116	0.90581
764.01735	0.90586
761.96354	0.90581
759.90973	0.90562
757.85592	0.90512
755.80211	0.90435
753.74830	0.90344
751.69449	0.90232
749.64068	0.90098
747.58687	0.89978
745.53306	0.89886
743.47925	0.89776
741.42544	0.89595
739.37163	0.89278
737.31781	0.88665
735.26400	0.87234
733.21019	0.84104
731.15638	0.80008
729.10257	0.77849
727.04876	0.78221
724.99495	0.78215
722.94114	0.75583
720.88733	0.71090
718.83352	0.68858
716.77971	0.71706
714.72590	0.77043
712.67209	0.81386
710.61828	0.84007
708.56447	0.85576
706.51066	0.86516
704.45685	0.87013
702.40304	0.87295
700.34923	0.87478
698.29542	0.87565
696.24161	0.87596
694.18780	0.87618
692.13399	0.87671
690.08018	0.87745
688.02637	0.87775
685.97256	0.87702
683.91875	0.87567
681.86494	0.87468
679.81113	0.87415
677.75732	0.87392
675.70351	0.87361
673.64970	0.87302
671.59589	0.87293
669.54208	0.87342
667.48827	0.87373
665.43446	0.87426
663.38065	0.87510
661.32684	0.87603
659.27303	0.87701
657.21922	0.87784
655.16541	0.87844
653.11160	0.87882
651.05779	0.87895
649.00398	0.87847
646.95017	0.87734
644.89636	0.87631
642.84255	0.87590
640.78874	0.87576
638.73493	0.87539
636.68112	0.87483
634.62731	0.87419
632.57350	0.87341
630.51969	0.87226
628.46588	0.87084
626.41207	0.86981
624.35826	0.86954
622.30445	0.86987
620.25064	0.87005
618.19683	0.86957
616.14302	0.86919
614.08921	0.86928
612.03540	0.86890
609.98159	0.86797
607.92778	0.86763
605.87397	0.86785
603.82016	0.86743
601.76635	0.86586
599.71254	0.86404
597.65873	0.86296
595.60492	0.86254
593.55111	0.86256
591.49730	0.86235
589.44349	0.86115
587.38968	0.85947
585.33587	0.85776
583.28206	0.85634
581.22825	0.85527
579.17444	0.85458
577.12063	0.85505
575.06682	0.85613
573.01301	0.85626
570.95920	0.85481
568.90539	0.85224
566.85158	0.85024
564.79777	0.84927
562.74396	0.84794
560.69015	0.84602
558.63634	0.84431
556.58253	0.84272
554.52872	0.84134
552.47491	0.84045
550.42110	0.83888
548.36729	0.83599
546.31348	0.83327
544.25967	0.83138
542.20586	0.82968
540.15205	0.82787
538.09824	0.82624
536.04443	0.82547
533.99062	0.82532
531.93681	0.82534
529.88300	0.82607
527.82919	0.82765
525.77538	0.82948
523.72157	0.83094
521.66776	0.83186
519.61395	0.83250
517.56014	0.83311
515.50633	0.83419
513.45252	0.83671
511.39871	0.83985
509.34490	0.84156
507.29109	0.84217
505.23728	0.84277
503.18347	0.84292
501.12966	0.84302
499.07585	0.84347
497.02204	0.84354
494.96823	0.84312
492.91442	0.84184
490.86061	0.83956
488.80680	0.83767
486.75299	0.83617
484.69918	0.83362
482.64537	0.82943
480.59156	0.82385
478.53775	0.81761
476.48394	0.81161
474.43013	0.80635
472.37632	0.80079
470.32251	0.79478
468.26870	0.79015
466.21489	0.78824
464.16108	0.79036
462.10727	0.79608
460.05346	0.80281
457.99965	0.80812
455.94584	0.81040
453.89203	0.81103
451.83822	0.81182
449.78441	0.81315
447.73060	0.81587
445.67679	0.81852
443.62298	0.81826
441.56916	0.81820
439.51535	0.82046
437.46154	0.82106
435.40773	0.82048
433.35392	0.82214
431.30011	0.82484
429.24630	0.82647
427.19249	0.82829
425.13868	0.83241
423.08487	0.83709
421.03106	0.84085
418.97725	0.84472
416.92344	0.84767
414.86963	0.85023
412.81582	0.85405
410.76201	0.85718
408.70820	0.85686
406.65439	0.85503
404.60058	0.85614
402.54677	0.86143
400.49296	0.86594
398.43915	0.86504
