3996.71440	0.99428
3994.66059	0.99448
3992.60678	0.99404
3990.55297	0.99332
3988.49916	0.99283
3986.44535	0.99269
3984.39154	0.99270
3982.33773	0.99280
3980.28391	0.99293
3978.23010	0.99317
3976.17629	0.99348
3974.12248	0.99367
3972.06867	0.99382
3970.01486	0.99395
3967.96105	0.99384
3965.90724	0.99361
3963.85343	0.99380
3961.79962	0.99414
3959.74581	0.99407
3957.69200	0.99387
3955.63819	0.99367
3953.58438	0.99345
3951.53057	0.99339
3949.47676	0.99339
3947.42295	0.99333
3945.36914	0.99344
3943.31533	0.99376
3941.26152	0.99391
3939.20771	0.99392
3937.15390	0.99383
3935.10009	0.99369
3933.04628	0.99376
3930.99247	0.99392
3928.93866	0.99387
3926.88485	0.99372
3924.83104	0.99355
3922.77723	0.99347
3920.72342	0.99365
3918.66961	0.99382
3916.61580	0.99368
3914.56199	0.99341
3912.50818	0.99304
3910.45437	0.99281
3908.40056	0.99307
3906.34675	0.99356
3904.29294	0.99366
3902.23913	0.99338
3900.18532	0.99333
3898.13151	0.99367
3896.07770	0.99422
3894.02389	0.99454
3891.97008	0.99421
3889.91627	0.99395
3887.86246	0.99431
3885.80865	0.99453
3883.75484	0.99439
3881.70103	0.99436
3879.64722	0.99416
3877.59341	0.99386
3875.53960	0.99378
3873.48579	0.99359
3871.43198	0.99342
3869.37817	0.99377
3867.32436	0.99420
3865.27055	0.99416
3863.21674	0.99374
3861.16293	0.99335
3859.10912	0.99333
3857.05531	0.99373
3855.00150	0.99421
3852.94769	0.99408
3850.89388	0.99356
3848.84007	0.99341
3846.78626	0.99366
3844.73245	0.99390
3842.67864	0.99373
3840.62483	0.99360
3838.57102	0.99380
3836.51721	0.99379
3834.46340	0.99353
3832.40959	0.99341
3830.35578	0.99341
3828.30197	0.99335
3826.24816	0.99321
3824.19435	0.99338
3822.14054	0.99398
3820.08673	0.99434
3818.03292	0.99444
3815.97911	0.99455
3813.92530	0.99429
3811.87149	0.99388
3809.81768	0.99369
3807.76387	0.99360
3805.71006	0.99353
3803.65625	0.99361
3801.60244	0.99354
3799.54863	0.99339
3797.49482	0.99353
3795.44101	0.99376
3793.38720	0.99381
3791.33339	0.99372
3789.27958	0.99371
3787.22577	0.99382
3785.17196	0.99394
3783.11815	0.99391
3781.06434	0.99366
3779.01053	0.99356
3776.95672	0.99383
3774.90291	0.99394
3772.84910	0.99379
3770.79529	0.99364
3768.74148	0.99358
3766.68767	0.99380
3764.63386	0.99394
3762.58005	0.99369
3760.52624	0.99341
3758.47243	0.99327
3756.41862	0.99338
3754.36481	0.99381
3752.31100	0.99447
3750.25719	0.99509
3748.20338	0.99542
3746.14957	0.99569
3744.09576	0.99531
3742.04195	0.99448
3739.98814	0.99448
3737.93433	0.99496
3735.88052	0.99512
3733.82671	0.99487
3731.77290	0.99466
3729.71909	0.99454
3727.66528	0.99436
3725.61147	0.99414
3723.55766	0.99413
3721.50385	0.99443
3719.45004	0.99457
3717.39623	0.99431
3715.34242	0.99414
3713.28861	0.99394
3711.23480	0.99319
3709.18099	0.99289
3707.12718	0.99337
3705.07337	0.99374
3703.01956	0.99378
3700.96575	0.99370
3698.91194	0.99355
3696.85813	0.99334
3694.80432	0.99329
3692.75051	0.99361
3690.69670	0.99430
3688.64289	0.99464
3686.58907	0.99403
3684.53526	0.99330
3682.48145	0.99295
3680.42764	0.99313
3678.37383	0.99377
3676.32002	0.99430
3674.26621	0.99407
3672.21240	0.99378
3670.15859	0.99388
3668.10478	0.99386
3666.05097	0.99359
3663.99716	0.99325
3661.94335	0.99287
3659.88954	0.99271
3657.83573	0.99308
3655.78192	0.99365
3653.72811	0.99381
3651.67430	0.99368
3649.62049	0.99376
3647.56668	0.99386
3645.51287	0.99327
3643.45906	0.99274
3641.40525	0.99275
3639.35144	0.99305
3637.29763	0.99316
3635.24382	0.99300
3633.19001	0.99285
3631.13620	0.99283
3629.08239	0.99274
3627.02858	0.99250
3624.97477	0.99261
3622.92096	0.99313
3620.86715	0.99351
3618.81334	0.99323
3616.75953	0.99262
3614.70572	0.99221
3612.65191	0.99204
3610.59810	0.99209
3608.54429	0.99198
3606.49048	0.99153
3604.43667	0.99140
3602.38286	0.99182
3600.32905	0.99239
3598.27524	0.99254
3596.22143	0.99202
3594.16762	0.99136
3592.11381	0.99119
3590.06000	0.99137
3588.00619	0.99159
3585.95238	0.99164
3583.89857	0.99173
3581.84476	0.99185
3579.79095	0.99164
3577.73714	0.99132
3575.68333	0.99126
3573.62952	0.99106
3571.57571	0.99045
3569.52190	0.99007
3567.46809	0.99040
3565.41428	0.99079
3563.36047	0.99077
3561.30666	0.99054
3559.25285	0.99023
3557.19904	0.99005
3555.14523	0.98993
3553.09142	0.98987
3551.03761	0.99008
3548.98380	0.99038
3546.92999	0.99030
3544.87618	0.98991
3542.82237	0.98962
3540.76856	0.98949
3538.71475	0.98959
3536.66094	0.98975
3534.60713	0.98965
3532.55332	0.98940
3530.49951	0.98953
3528.44570	0.99006
3526.39189	0.99023
3524.33808	0.98991
3522.28427	0.98959
3520.23046	0.98935
3518.17665	0.98898
3516.12284	0.98855
3514.06903	0.98837
3512.01522	0.98852
3509.96141	0.98867
3507.90760	0.98865
3505.85379	0.98866
3503.79998	0.98871
3501.74617	0.98864
3499.69236	0.98839
3497.63855	0.98827
3495.58474	0.98841
3493.53093	0.98848
3491.47712	0.98816
3489.42331	0.98776
3487.36950	0.98768
3485.31569	0.98770
3483.26188	0.98754
3481.20807	0.98729
3479.15426	0.98719
3477.10045	0.98725
3475.04664	0.98740
3472.99283	0.98772
3470.93902	0.98812
3468.88521	0.98817
3466.83140	0.98778
3464.77759	0.98738
3462.72378	0.98725
3460.66997	0.98724
3458.61616	0.98730
3456.56235	0.98732
3454.50854	0.98705
3452.45473	0.98655
3450.40092	0.98614
3448.34711	0.98619
3446.29330	0.98665
3444.23949	0.98673
3442.18568	0.98655
3440.13187	0.98664
3438.07806	0.98662
3436.02425	0.98630
3433.97044	0.98609
3431.91663	0.98612
3429.86282	0.98624
3427.80901	0.98633
3425.75520	0.98645
3423.70139	0.98664
3421.64758	0.98662
3419.59377	0.98623
3417.53996	0.98576
3415.48615	0.98548
3413.43234	0.98558
3411.37853	0.98595
3409.32472	0.98627
3407.27091	0.98641
3405.21710	0.98649
3403.16329	0.98660
3401.10948	0.98653
3399.05567	0.98632
3397.00186	0.98607
3394.94805	0.98567
3392.89424	0.98543
3390.84042	0.98531
3388.78661	0.98512
3386.73280	0.98537
3384.67899	0.98602
3382.62518	0.98633
3380.57137	0.98605
3378.51756	0.98549
3376.46375	0.98518
3374.40994	0.98520
3372.35613	0.98519
3370.30232	0.98523
3368.24851	0.98535
3366.19470	0.98521
3364.14089	0.98485
3362.08708	0.98474
3360.03327	0.98509
3357.97946	0.98540
3355.92565	0.98528
3353.87184	0.98517
3351.81803	0.98531
3349.76422	0.98534
3347.71041	0.98523
3345.65660	0.98536
3343.60279	0.98550
3341.54898	0.98527
3339.49517	0.98510
3337.44136	0.98522
3335.38755	0.98519
3333.33374	0.98500
3331.27993	0.98495
3329.22612	0.98504
3327.17231	0.98514
3325.11850	0.98525
3323.06469	0.98543
3321.01088	0.98568
3318.95707	0.98581
3316.90326	0.98560
3314.84945	0.98525
3312.79564	0.98520
3310.74183	0.98540
3308.68802	0.98543
3306.63421	0.98518
3304.58040	0.98491
3302.52659	0.98480
3300.47278	0.98486
3298.41897	0.98481
3296.36516	0.98465
3294.31135	0.98472
3292.25754	0.98499
3290.20373	0.98519
3288.14992	0.98525
3286.09611	0.98524
3284.04230	0.98529
3281.98849	0.98547
3279.93468	0.98557
3277.88087	0.98555
3275.82706	0.98559
3273.77325	0.98572
3271.71944	0.98563
3269.66563	0.98529
3267.61182	0.98499
3265.55801	0.98481
3263.50420	0.98468
3261.45039	0.98467
3259.39658	0.98488
3257.34277	0.98515
3255.28896	0.98541
3253.23515	0.98576
3251.18134	0.98590
3249.12753	0.98563
3247.07372	0.98550
3245.01991	0.98568
3242.96610	0.98574
3240.91229	0.98561
3238.85848	0.98557
3236.80467	0.98576
3234.75086	0.98603
3232.69705	0.98614
3230.64324	0.98594
3228.58943	0.98572
3226.53562	0.98583
3224.48181	0.98581
3222.42800	0.98553
3220.37419	0.98559
3218.32038	0.98583
3216.26657	0.98591
3214.21276	0.98589
3212.15895	0.98582
3210.10514	0.98578
3208.05133	0.98581
3205.99752	0.98577
3203.94371	0.98570
3201.88990	0.98566
3199.83609	0.98573
3197.78228	0.98607
3195.72847	0.98646
3193.67466	0.98660
3191.62085	0.98644
3189.56704	0.98630
3187.51323	0.98648
3185.45942	0.98672
3183.40561	0.98699
3181.35180	0.98725
3179.29799	0.98712
3177.24418	0.98686
3175.19037	0.98684
3173.13656	0.98687
3171.08275	0.98693
3169.02894	0.98706
3166.97513	0.98717
3164.92132	0.98740
3162.86751	0.98760
3160.81370	0.98752
3158.75989	0.98752
3156.70608	0.98777
3154.65227	0.98814
3152.59846	0.98840
3150.54465	0.98829
3148.49084	0.98800
3146.43703	0.98799
3144.38322	0.98821
3142.32941	0.98848
3140.27560	0.98875
3138.22179	0.98883
3136.16798	0.98891
3134.11417	0.98905
3132.06036	0.98894
3130.00655	0.98901
3127.95274	0.98935
3125.89893	0.98927
3123.84512	0.98893
3121.79131	0.98890
3119.73750	0.98900
3117.68369	0.98897
3115.62988	0.98886
3113.57607	0.98884
3111.52226	0.98900
3109.46845	0.98909
3107.41464	0.98910
3105.36083	0.98917
3103.30702	0.98902
3101.25321	0.98892
3099.19940	0.98918
3097.14559	0.98933
3095.09177	0.98941
3093.03796	0.98968
3090.98415	0.98982
3088.93034	0.98978
3086.87653	0.98973
3084.82272	0.98965
3082.76891	0.98978
3080.71510	0.99002
3078.66129	0.98978
3076.60748	0.98937
3074.55367	0.98948
3072.49986	0.98986
3070.44605	0.98997
3068.39224	0.98995
3066.33843	0.98981
3064.28462	0.98955
3062.23081	0.98948
3060.17700	0.98962
3058.12319	0.98968
3056.06938	0.98967
3054.01557	0.98983
3051.96176	0.98997
3049.90795	0.98994
3047.85414	0.98999
3045.80033	0.99029
3043.74652	0.99074
3041.69271	0.99090
3039.63890	0.99066
3037.58509	0.99035
3035.53128	0.99028
3033.47747	0.99054
3031.42366	0.99079
3029.36985	0.99086
3027.31604	0.99082
3025.26223	0.99039
3023.20842	0.98983
3021.15461	0.98969
3019.10080	0.98986
3017.04699	0.99004
3014.99318	0.99011
3012.93937	0.98999
3010.88556	0.98979
3008.83175	0.98969
3006.77794	0.98964
3004.72413	0.98945
3002.67032	0.98938
3000.61651	0.98947
2998.56270	0.98935
2996.50889	0.98912
2994.45508	0.98886
2992.40127	0.98838
2990.34746	0.98777
2988.29365	0.98730
2986.23984	0.98678
2984.18603	0.98585
2982.13222	0.98453
2980.07841	0.98299
2978.02460	0.98105
2975.97079	0.97849
2973.91698	0.97533
2971.86317	0.97146
2969.80936	0.96664
2967.75555	0.96090
2965.70174	0.95461
2963.64793	0.94841
2961.59412	0.94298
2959.54031	0.93888
2957.48650	0.93583
2955.43269	0.93281
2953.37888	0.92937
2951.32507	0.92648
2949.27126	0.92578
2947.21745	0.92851
2945.16364	0.93457
2943.10983	0.94199
2941.05602	0.94794
2939.00221	0.95084
2936.94840	0.95066
2934.89459	0.94788
2932.84078	0.94326
2930.78697	0.93748
2928.73316	0.93108
2926.67935	0.92468
2924.62554	0.91875
2922.57173	0.91331
2920.51792	0.90847
2918.46411	0.90497
2916.41030	0.90395
2914.35649	0.90601
2912.30268	0.91054
2910.24887	0.91591
2908.19506	0.92071
2906.14125	0.92472
2904.08744	0.92846
2902.03363	0.93239
2899.97982	0.93667
2897.92601	0.94093
2895.87220	0.94453
2893.81839	0.94708
2891.76458	0.94882
2889.71077	0.94991
2887.65696	0.95023
2885.60315	0.94982
2883.54934	0.94878
2881.49553	0.94732
2879.44172	0.94562
2877.38791	0.94410
2875.33410	0.94341
2873.28029	0.94336
2871.22648	0.94306
2869.17267	0.94229
2867.11886	0.94192
2865.06505	0.94353
2863.01124	0.94795
2860.95743	0.95396
2858.90362	0.95939
2856.84981	0.96292
2854.79600	0.96436
2852.74219	0.96432
2850.68838	0.96360
2848.63457	0.96224
2846.58076	0.96000
2844.52695	0.95683
2842.47314	0.95261
2840.41933	0.94788
2838.36552	0.94442
2836.31171	0.94428
2834.25790	0.94822
2832.20409	0.95508
2830.15028	0.96235
2828.09647	0.96808
2826.04266	0.97194
2823.98885	0.97446
2821.93504	0.97621
2819.88123	0.97762
2817.82742	0.97901
2815.77361	0.98027
2813.71980	0.98104
2811.66599	0.98129
2809.61218	0.98149
2807.55837	0.98207
2805.50456	0.98292
2803.45075	0.98354
2801.39693	0.98382
2799.34312	0.98401
2797.28931	0.98443
2795.23550	0.98503
2793.18169	0.98543
2791.12788	0.98564
2789.07407	0.98589
2787.02026	0.98614
2784.96645	0.98630
2782.91264	0.98645
2780.85883	0.98665
2778.80502	0.98697
2776.75121	0.98737
2774.69740	0.98760
2772.64359	0.98761
2770.58978	0.98758
2768.53597	0.98762
2766.48216	0.98776
2764.42835	0.98797
2762.37454	0.98814
2760.32073	0.98831
2758.26692	0.98854
2756.21311	0.98864
2754.15930	0.98862
2752.10549	0.98877
2750.05168	0.98900
2747.99787	0.98902
2745.94406	0.98888
2743.89025	0.98867
2741.83644	0.98852
2739.78263	0.98851
2737.72882	0.98849
2735.67501	0.98839
2733.62120	0.98830
2731.56739	0.98816
2729.51358	0.98783
2727.45977	0.98743
2725.40596	0.98714
2723.35215	0.98704
2721.29834	0.98717
2719.24453	0.98742
2717.19072	0.98776
2715.13691	0.98815
2713.08310	0.98829
2711.02929	0.98824
2708.97548	0.98827
2706.92167	0.98847
2704.86786	0.98877
2702.81405	0.98891
2700.76024	0.98898
2698.70643	0.98911
2696.65262	0.98913
2694.59881	0.98913
2692.54500	0.98927
2690.49119	0.98940
2688.43738	0.98943
2686.38357	0.98940
2684.32976	0.98930
2682.27595	0.98916
2680.22214	0.98918
2678.16833	0.98936
2676.11452	0.98939
2674.06071	0.98925
2672.00690	0.98915
2669.95309	0.98913
2667.89928	0.98909
2665.84547	0.98889
2663.79166	0.98873
2661.73785	0.98878
2659.68404	0.98877
2657.63023	0.98878
2655.57642	0.98906
2653.52261	0.98935
2651.46880	0.98941
2649.41499	0.98934
2647.36118	0.98922
2645.30737	0.98909
2643.25356	0.98921
2641.19975	0.98965
2639.14594	0.98989
2637.09213	0.98987
2635.03832	0.98987
2632.98451	0.98974
2630.93070	0.98945
2628.87689	0.98929
2626.82308	0.98949
2624.76927	0.98974
2622.71546	0.98972
2620.66165	0.98961
2618.60784	0.98963
2616.55403	0.98976
2614.50022	0.98995
2612.44641	0.99009
2610.39260	0.99021
2608.33879	0.99045
2606.28498	0.99070
2604.23117	0.99071
2602.17736	0.99049
2600.12355	0.99028
2598.06974	0.99038
2596.01593	0.99061
2593.96212	0.99062
2591.90831	0.99047
2589.85450	0.99045
2587.80069	0.99058
2585.74688	0.99054
2583.69307	0.99042
2581.63926	0.99040
2579.58545	0.99030
2577.53164	0.99026
2575.47783	0.99036
2573.42402	0.99044
2571.37021	0.99061
2569.31640	0.99082
2567.26259	0.99089
2565.20878	0.99080
2563.15497	0.99071
2561.10116	0.99091
2559.04735	0.99116
2556.99354	0.99112
2554.93973	0.99096
2552.88592	0.99079
2550.83211	0.99070
2548.77830	0.99074
2546.72449	0.99089
2544.67068	0.99112
2542.61687	0.99109
2540.56306	0.99090
2538.50925	0.99103
2536.45544	0.99123
2534.40163	0.99115
2532.34782	0.99107
2530.29401	0.99121
2528.24020	0.99118
2526.18639	0.99112
2524.13258	0.99129
2522.07877	0.99138
2520.02496	0.99145
2517.97115	0.99152
2515.91734	0.99141
2513.86353	0.99161
2511.80972	0.99219
2509.75591	0.99226
2507.70210	0.99173
2505.64828	0.99124
2503.59447	0.99105
2501.54066	0.99123
2499.48685	0.99157
2497.43304	0.99169
2495.37923	0.99154
2493.32542	0.99128
2491.27161	0.99100
2489.21780	0.99099
2487.16399	0.99132
2485.11018	0.99165
2483.05637	0.99198
2481.00256	0.99235
2478.94875	0.99243
2476.89494	0.99222
2474.84113	0.99208
2472.78732	0.99212
2470.73351	0.99217
2468.67970	0.99203
2466.62589	0.99196
2464.57208	0.99200
2462.51827	0.99197
2460.46446	0.99205
2458.41065	0.99205
2456.35684	0.99171
2454.30303	0.99162
2452.24922	0.99190
2450.19541	0.99203
2448.14160	0.99209
2446.08779	0.99230
2444.03398	0.99246
2441.98017	0.99267
2439.92636	0.99275
2437.87255	0.99229
2435.81874	0.99164
2433.76493	0.99136
2431.71112	0.99150
2429.65731	0.99180
2427.60350	0.99207
2425.54969	0.99213
2423.49588	0.99194
2421.44207	0.99181
2419.38826	0.99189
2417.33445	0.99208
2415.28064	0.99210
2413.22683	0.99201
2411.17302	0.99220
2409.11921	0.99267
2407.06540	0.99302
2405.01159	0.99294
2402.95778	0.99265
2400.90397	0.99241
2398.85016	0.99224
2396.79635	0.99225
2394.74254	0.99225
2392.68873	0.99203
2390.63492	0.99185
2388.58111	0.99190
2386.52730	0.99206
2384.47349	0.99221
2382.41968	0.99233
2380.36587	0.99249
2378.31206	0.99285
2376.25825	0.99343
2374.20444	0.99334
2372.15063	0.99262
2370.09682	0.99236
2368.04301	0.99233
2365.98920	0.99303
2363.93539	0.99443
2361.88158	0.99440
2359.82777	0.99312
2357.77396	0.99178
2355.72015	0.99104
2353.66634	0.99137
2351.61253	0.99170
2349.55872	0.99180
2347.50491	0.99217
2345.45110	0.99243
2343.39729	0.99214
2341.34348	0.99195
2339.28967	0.99245
2337.23586	0.99309
2335.18205	0.99295
2333.12824	0.99243
2331.07443	0.99208
2329.02062	0.99153
2326.96681	0.99072
2324.91300	0.99018
2322.85919	0.99015
2320.80538	0.99026
2318.75157	0.99039
2316.69776	0.99085
2314.64395	0.99133
2312.59014	0.99149
2310.53633	0.99154
2308.48252	0.99165
2306.42871	0.99170
2304.37490	0.99164
2302.32109	0.99156
2300.26728	0.99131
2298.21347	0.99105
2296.15966	0.99090
2294.10585	0.99091
2292.05204	0.99106
2289.99823	0.99133
2287.94442	0.99194
2285.89061	0.99256
2283.83680	0.99254
2281.78299	0.99199
2279.72918	0.99164
2277.67537	0.99199
2275.62156	0.99249
2273.56775	0.99251
2271.51394	0.99230
2269.46013	0.99198
2267.40632	0.99165
2265.35251	0.99167
2263.29870	0.99196
2261.24489	0.99235
2259.19108	0.99235
2257.13727	0.99186
2255.08346	0.99178
2253.02965	0.99222
2250.97584	0.99284
2248.92203	0.99345
2246.86822	0.99357
2244.81441	0.99309
2242.76060	0.99239
2240.70679	0.99192
2238.65298	0.99161
2236.59917	0.99126
2234.54536	0.99117
2232.49155	0.99133
2230.43774	0.99111
2228.38393	0.99083
2226.33012	0.99151
2224.27631	0.99264
2222.22250	0.99281
2220.16869	0.99250
2218.11488	0.99271
2216.06107	0.99293
2214.00726	0.99258
2211.95344	0.99176
2209.89963	0.99117
2207.84582	0.99149
2205.79201	0.99214
2203.73820	0.99287
2201.68439	0.99393
2199.63058	0.99403
2197.57677	0.99316
2195.52296	0.99297
2193.46915	0.99321
2191.41534	0.99313
2189.36153	0.99344
2187.30772	0.99434
2185.25391	0.99428
2183.20010	0.99290
2181.14629	0.99185
2179.09248	0.99187
2177.03867	0.99245
2174.98486	0.99313
2172.93105	0.99308
2170.87724	0.99179
2168.82343	0.99026
2166.76962	0.98923
2164.71581	0.98820
2162.66200	0.98760
2160.60819	0.98857
2158.55438	0.99099
2156.50057	0.99480
2154.44676	0.99821
2152.39295	0.99778
2150.33914	0.99474
2148.28533	0.99288
2146.23152	0.99280
2144.17771	0.99359
2142.12390	0.99444
2140.07009	0.99472
2138.01628	0.99467
2135.96247	0.99440
2133.90866	0.99374
2131.85485	0.99315
2129.80104	0.99302
2127.74723	0.99309
2125.69342	0.99302
2123.63961	0.99329
2121.58580	0.99383
2119.53199	0.99353
2117.47818	0.99265
2115.42437	0.99245
2113.37056	0.99278
2111.31675	0.99263
2109.26294	0.99195
2107.20913	0.99160
2105.15532	0.99186
2103.10151	0.99256
2101.04770	0.99331
2098.99389	0.99352
2096.94008	0.99359
2094.88627	0.99340
2092.83246	0.99251
2090.77865	0.99203
2088.72484	0.99273
2086.67103	0.99347
2084.61722	0.99342
2082.56341	0.99338
2080.50960	0.99340
2078.45579	0.99283
2076.40198	0.99195
2074.34817	0.99110
2072.29436	0.99106
2070.24055	0.99217
2068.18674	0.99252
2066.13293	0.99171
2064.07912	0.99158
2062.02531	0.99229
2059.97150	0.99325
2057.91769	0.99394
2055.86388	0.99373
2053.81007	0.99292
2051.75626	0.99202
2049.70245	0.99154
2047.64864	0.99158
2045.59483	0.99242
2043.54102	0.99420
2041.48721	0.99478
2039.43340	0.99307
2037.37959	0.99115
2035.32578	0.99101
2033.27197	0.99283
2031.21816	0.99455
2029.16435	0.99460
2027.11054	0.99374
2025.05673	0.99344
2023.00292	0.99419
2020.94911	0.99477
2018.89530	0.99416
2016.84149	0.99313
2014.78768	0.99276
2012.73387	0.99283
2010.68006	0.99255
2008.62625	0.99260
2006.57244	0.99413
2004.51863	0.99548
2002.46482	0.99568
2000.41101	0.99566
1998.35720	0.99462
1996.30339	0.99266
1994.24958	0.99151
1992.19577	0.99127
1990.14196	0.99161
1988.08815	0.99240
1986.03434	0.99331
1983.98053	0.99409
1981.92672	0.99384
1979.87291	0.99241
1977.81910	0.99117
1975.76529	0.99043
1973.71148	0.99052
1971.65767	0.99213
1969.60386	0.99352
1967.55005	0.99401
1965.49624	0.99462
1963.44243	0.99468
1961.38862	0.99440
1959.33481	0.99467
1957.28100	0.99502
1955.22719	0.99464
1953.17338	0.99364
1951.11957	0.99313
1949.06576	0.99319
1947.01195	0.99312
1944.95814	0.99327
1942.90433	0.99372
1940.85052	0.99353
1938.79671	0.99283
1936.74290	0.99248
1934.68909	0.99226
1932.63528	0.99191
1930.58147	0.99222
1928.52766	0.99301
1926.47385	0.99370
1924.42004	0.99448
1922.36623	0.99492
1920.31242	0.99452
1918.25861	0.99414
1916.20479	0.99406
1914.15098	0.99353
1912.09717	0.99300
1910.04336	0.99293
1907.98955	0.99305
1905.93574	0.99310
1903.88193	0.99281
1901.82812	0.99256
1899.77431	0.99286
1897.72050	0.99319
1895.66669	0.99318
1893.61288	0.99327
1891.55907	0.99321
1889.50526	0.99275
1887.45145	0.99259
1885.39764	0.99275
1883.34383	0.99285
1881.29002	0.99285
1879.23621	0.99269
1877.18240	0.99251
1875.12859	0.99266
1873.07478	0.99293
1871.02097	0.99307
1868.96716	0.99319
1866.91335	0.99328
1864.85954	0.99316
1862.80573	0.99304
1860.75192	0.99302
1858.69811	0.99294
1856.64430	0.99284
1854.59049	0.99298
1852.53668	0.99331
1850.48287	0.99336
1848.42906	0.99312
1846.37525	0.99302
1844.32144	0.99310
1842.26763	0.99311
1840.21382	0.99283
1838.16001	0.99252
1836.10620	0.99246
1834.05239	0.99238
1831.99858	0.99209
1829.94477	0.99200
1827.89096	0.99239
1825.83715	0.99255
1823.78334	0.99224
1821.72953	0.99218
1819.67572	0.99235
1817.62191	0.99243
1815.56810	0.99238
1813.51429	0.99213
1811.46048	0.99196
1809.40667	0.99200
1807.35286	0.99196
1805.29905	0.99178
1803.24524	0.99161
1801.19143	0.99161
1799.13762	0.99156
1797.08381	0.99131
1795.03000	0.99121
1792.97619	0.99122
1790.92238	0.99123
1788.86857	0.99110
1786.81476	0.99065
1784.76095	0.99024
1782.70714	0.99009
1780.65333	0.99000
1778.59952	0.99007
1776.54571	0.99029
1774.49190	0.99048
1772.43809	0.99055
1770.38428	0.99055
1768.33047	0.99059
1766.27666	0.99052
1764.22285	0.99039
1762.16904	0.99030
1760.11523	0.99001
1758.06142	0.98959
1756.00761	0.98923
1753.95380	0.98897
1751.89999	0.98894
1749.84618	0.98900
1747.79237	0.98858
1745.73856	0.98789
1743.68475	0.98741
1741.63094	0.98712
1739.57713	0.98688
1737.52332	0.98682
1735.46951	0.98690
1733.41570	0.98683
1731.36189	0.98690
1729.30808	0.98718
1727.25427	0.98719
1725.20046	0.98684
1723.14665	0.98647
1721.09284	0.98631
1719.03903	0.98631
1716.98522	0.98623
1714.93141	0.98607
1712.87760	0.98601
1710.82379	0.98595
1708.76998	0.98582
1706.71617	0.98553
1704.66236	0.98513
1702.60855	0.98509
1700.55474	0.98558
1698.50093	0.98593
1696.44712	0.98571
1694.39331	0.98522
1692.33950	0.98479
1690.28569	0.98440
1688.23188	0.98385
1686.17807	0.98328
1684.12426	0.98284
1682.07045	0.98242
1680.01664	0.98194
1677.96283	0.98160
1675.90902	0.98154
1673.85521	0.98140
1671.80140	0.98089
1669.74759	0.98021
1667.69378	0.97977
1665.63997	0.97953
1663.58616	0.97926
1661.53235	0.97889
1659.47854	0.97854
1657.42473	0.97837
1655.37092	0.97844
1653.31711	0.97875
1651.26330	0.97878
1649.20949	0.97851
1647.15568	0.97837
1645.10187	0.97832
1643.04806	0.97818
1640.99425	0.97811
1638.94044	0.97810
1636.88663	0.97795
1634.83282	0.97770
1632.77901	0.97764
1630.72520	0.97775
1628.67139	0.97773
1626.61758	0.97740
1624.56377	0.97717
1622.50996	0.97714
1620.45614	0.97709
1618.40233	0.97714
1616.34852	0.97729
1614.29471	0.97738
1612.24090	0.97749
1610.18709	0.97766
1608.13328	0.97783
1606.07947	0.97811
1604.02566	0.97845
1601.97185	0.97861
1599.91804	0.97865
1597.86423	0.97886
1595.81042	0.97925
1593.75661	0.97942
1591.70280	0.97929
1589.64899	0.97921
1587.59518	0.97909
1585.54137	0.97877
1583.48756	0.97839
1581.43375	0.97784
1579.37994	0.97716
1577.32613	0.97685
1575.27232	0.97733
1573.21851	0.97794
1571.16470	0.97838
1569.11089	0.97880
1567.05708	0.97905
1565.00327	0.97924
1562.94946	0.97944
1560.89565	0.97959
1558.84184	0.97988
1556.78803	0.97990
1554.73422	0.97929
1552.68041	0.97854
1550.62660	0.97795
1548.57279	0.97738
1546.51898	0.97684
1544.46517	0.97632
1542.41136	0.97567
1540.35755	0.97510
1538.30374	0.97491
1536.24993	0.97495
1534.19612	0.97512
1532.14231	0.97505
1530.08850	0.97474
1528.03469	0.97463
1525.98088	0.97466
1523.92707	0.97452
1521.87326	0.97401
1519.81945	0.97313
1517.76564	0.97252
1515.71183	0.97242
1513.65802	0.97245
1511.60421	0.97229
1509.55040	0.97195
1507.49659	0.97146
1505.44278	0.97078
1503.38897	0.97029
1501.33516	0.96999
1499.28135	0.96970
1497.22754	0.96909
1495.17373	0.96810
1493.11992	0.96725
1491.06611	0.96676
1489.01230	0.96636
1486.95849	0.96567
1484.90468	0.96484
1482.85087	0.96401
1480.79706	0.96303
1478.74325	0.96184
1476.68944	0.96038
1474.63563	0.95828
1472.58182	0.95470
1470.52801	0.95006
1468.47420	0.94563
1466.42039	0.94053
1464.36658	0.93430
1462.31277	0.92927
1460.25896	0.92627
1458.20515	0.92417
1456.15134	0.92291
1454.09753	0.92287
1452.04372	0.92373
1449.98991	0.92621
1447.93610	0.93144
1445.88229	0.93841
1443.82848	0.94456
1441.77467	0.94894
1439.72086	0.95117
1437.66705	0.95171
1435.61324	0.95242
1433.55943	0.95482
1431.50562	0.95825
1429.45181	0.96142
1427.39800	0.96331
1425.34419	0.96433
1423.29038	0.96490
1421.23657	0.96516
1419.18276	0.96556
1417.12895	0.96616
1415.07514	0.96686
1413.02133	0.96781
1410.96752	0.96892
1408.91371	0.97006
1406.85990	0.97132
1404.80609	0.97258
1402.75228	0.97360
1400.69847	0.97442
1398.64466	0.97513
1396.59085	0.97560
1394.53704	0.97584
1392.48323	0.97566
1390.42942	0.97506
1388.37561	0.97399
1386.32180	0.97126
1384.26799	0.96530
1382.21418	0.95463
1380.16037	0.93820
1378.10656	0.91964
1376.05275	0.90846
1373.99894	0.91274
1371.94513	0.92822
1369.89132	0.94395
1367.83751	0.95509
1365.78370	0.96060
1363.72989	0.96208
1361.67608	0.96150
1359.62227	0.96074
1357.56846	0.96142
1355.51465	0.96395
1353.46084	0.96736
1351.40703	0.97056
1349.35322	0.97301
1347.29941	0.97452
1345.24560	0.97549
1343.19179	0.97639
1341.13798	0.97717
1339.08417	0.97770
1337.03036	0.97794
1334.97655	0.97789
1332.92274	0.97751
1330.86893	0.97698
1328.81512	0.97673
1326.76130	0.97670
1324.70749	0.97676
1322.65368	0.97700
1320.59987	0.97744
1318.54606	0.97810
1316.49225	0.97873
1314.43844	0.97907
1312.38463	0.97928
1310.33082	0.97936
1308.27701	0.97889
1306.22320	0.97791
1304.16939	0.97724
1302.11558	0.97737
1300.06177	0.97770
1298.00796	0.97779
1295.95415	0.97774
1293.90034	0.97787
1291.84653	0.97837
1289.79272	0.97888
1287.73891	0.97905
1285.68510	0.97916
1283.63129	0.97937
1281.57748	0.97940
1279.52367	0.97906
1277.46986	0.97840
1275.41605	0.97794
1273.36224	0.97790
1271.30843	0.97787
1269.25462	0.97778
1267.20081	0.97794
1265.14700	0.97811
1263.09319	0.97797
1261.03938	0.97763
1258.98557	0.97724
1256.93176	0.97690
1254.87795	0.97680
1252.82414	0.97712
1250.77033	0.97765
1248.71652	0.97806
1246.66271	0.97826
1244.60890	0.97834
1242.55509	0.97841
1240.50128	0.97833
1238.44747	0.97805
1236.39366	0.97777
1234.33985	0.97763
1232.28604	0.97757
1230.23223	0.97748
1228.17842	0.97747
1226.12461	0.97748
1224.07080	0.97723
1222.01699	0.97675
1219.96318	0.97628
1217.90937	0.97609
1215.85556	0.97619
1213.80175	0.97633
1211.74794	0.97647
1209.69413	0.97653
1207.64032	0.97640
1205.58651	0.97629
1203.53270	0.97625
1201.47889	0.97600
1199.42508	0.97569
1197.37127	0.97557
1195.31746	0.97549
1193.26365	0.97534
1191.20984	0.97513
1189.15603	0.97482
1187.10222	0.97451
1185.04841	0.97418
1182.99460	0.97373
1180.94079	0.97328
1178.88698	0.97263
1176.83317	0.97144
1174.77936	0.96968
1172.72555	0.96718
1170.67174	0.96410
1168.61793	0.96155
1166.56412	0.96061
1164.51031	0.96122
1162.45650	0.96247
1160.40269	0.96370
1158.34888	0.96461
1156.29507	0.96509
1154.24126	0.96530
1152.18745	0.96550
1150.13364	0.96603
1148.07983	0.96689
1146.02602	0.96771
1143.97221	0.96818
1141.91840	0.96851
1139.86459	0.96893
1137.81078	0.96935
1135.75697	0.96956
1133.70316	0.96929
1131.64935	0.96885
1129.59554	0.96876
1127.54173	0.96884
1125.48792	0.96877
1123.43411	0.96840
1121.38030	0.96754
1119.32649	0.96659
1117.27268	0.96618
1115.21887	0.96618
1113.16506	0.96621
1111.11125	0.96607
1109.05744	0.96562
1107.00363	0.96478
1104.94982	0.96385
1102.89601	0.96330
1100.84220	0.96313
1098.78839	0.96327
1096.73458	0.96370
1094.68077	0.96394
1092.62696	0.96375
1090.57315	0.96382
1088.51934	0.96431
1086.46553	0.96462
1084.41172	0.96472
1082.35791	0.96496
1080.30410	0.96529
1078.25029	0.96558
1076.19648	0.96604
1074.14267	0.96660
1072.08886	0.96679
1070.03505	0.96666
1067.98124	0.96651
1065.92743	0.96652
1063.87362	0.96673
1061.81981	0.96679
1059.76600	0.96656
1057.71219	0.96624
1055.65838	0.96582
1053.60457	0.96501
1051.55076	0.96406
1049.49695	0.96346
1047.44314	0.96303
1045.38933	0.96261
1043.33552	0.96239
1041.28171	0.96235
1039.22790	0.96253
1037.17409	0.96282
1035.12028	0.96302
1033.06647	0.96339
1031.01265	0.96388
1028.95884	0.96416
1026.90503	0.96449
1024.85122	0.96493
1022.79741	0.96524
1020.74360	0.96534
1018.68979	0.96524
1016.63598	0.96536
1014.58217	0.96582
1012.52836	0.96629
1010.47455	0.96657
1008.42074	0.96661
1006.36693	0.96619
1004.31312	0.96507
1002.25931	0.96297
1000.20550	0.95998
998.15169	0.95793
996.09788	0.95912
994.04407	0.96294
991.99026	0.96686
989.93645	0.96952
987.88264	0.97093
985.82883	0.97164
983.77502	0.97192
981.72121	0.97127
979.66740	0.96908
977.61359	0.96534
975.55978	0.96104
973.50597	0.95844
971.45216	0.95972
969.39835	0.96419
967.34454	0.96869
965.29073	0.97144
963.23692	0.97313
961.18311	0.97432
959.12930	0.97502
957.07549	0.97544
955.02168	0.97570
952.96787	0.97590
950.91406	0.97614
948.86025	0.97622
946.80644	0.97598
944.75263	0.97574
942.69882	0.97560
940.64501	0.97542
938.59120	0.97563
936.53739	0.97627
934.48358	0.97666
932.42977	0.97678
930.37596	0.97713
928.32215	0.97752
926.26834	0.97772
924.21453	0.97779
922.16072	0.97775
920.10691	0.97773
918.05310	0.97764
915.99929	0.97747
913.94548	0.97734
911.89167	0.97697
909.83786	0.97638
907.78405	0.97607
905.73024	0.97583
903.67643	0.97452
901.62262	0.97202
899.56881	0.97033
897.51500	0.97095
895.46119	0.97277
893.40738	0.97441
891.35357	0.97566
889.29976	0.97651
887.24595	0.97694
885.19214	0.97663
883.13833	0.97528
881.08452	0.97348
879.03071	0.97209
876.97690	0.97172
874.92309	0.97233
872.86928	0.97317
870.81547	0.97388
868.76166	0.97412
866.70785	0.97348
864.65404	0.97253
862.60023	0.97176
860.54642	0.97128
858.49261	0.97129
856.43880	0.97160
854.38499	0.97238
852.33118	0.97376
850.27737	0.97470
848.22356	0.97429
846.16975	0.97214
844.11594	0.96794
842.06213	0.96383
840.00832	0.96381
837.95451	0.96772
835.90070	0.97164
833.84689	0.97376
831.79308	0.97473
829.73927	0.97502
827.68546	0.97486
825.63165	0.97468
823.57784	0.97461
821.52403	0.97432
819.47022	0.97403
817.41641	0.97399
815.36260	0.97301
813.30879	0.97046
811.25498	0.96800
809.20117	0.96714
807.14736	0.96752
805.09355	0.96855
803.03974	0.96975
800.98593	0.97069
798.93212	0.97168
796.87831	0.97280
794.82450	0.97347
792.77069	0.97350
790.71688	0.97357
788.66307	0.97398
786.60926	0.97426
784.55545	0.97417
782.50164	0.97368
780.44783	0.97328
778.39402	0.97338
776.34021	0.97374
774.28640	0.97404
772.23259	0.97407
770.17878	0.97390
768.12497	0.97382
766.07116	0.97371
764.01735	0.97328
761.96354	0.97278
759.90973	0.97255
757.85592	0.97257
755.80211	0.97274
753.74830	0.97313
751.69449	0.97343
749.64068	0.97340
747.58687	0.97338
745.53306	0.97334
743.47925	0.97302
741.42544	0.97258
739.37163	0.97224
737.31781	0.97180
735.26400	0.97160
733.21019	0.97207
731.15638	0.97223
729.10257	0.97183
727.04876	0.97149
724.99495	0.97120
722.94114	0.97128
720.88733	0.97157
718.83352	0.97166
716.77971	0.97179
714.72590	0.97170
712.67209	0.97126
710.61828	0.97097
708.56447	0.97119
706.51066	0.97159
704.45685	0.97132
702.40304	0.97068
700.34923	0.97051
698.29542	0.97067
696.24161	0.97081
694.18780	0.97084
692.13399	0.97076
690.08018	0.97015
688.02637	0.96913
685.97256	0.96881
683.91875	0.96966
681.86494	0.97068
679.81113	0.97096
677.75732	0.97085
675.70351	0.97061
673.64970	0.97018
671.59589	0.96957
669.54208	0.96892
667.48827	0.96820
665.43446	0.96774
663.38065	0.96790
661.32684	0.96812
659.27303	0.96798
657.21922	0.96781
655.16541	0.96772
653.11160	0.96778
651.05779	0.96776
649.00398	0.96750
646.95017	0.96746
644.89636	0.96768
642.84255	0.96805
640.78874	0.96847
638.73493	0.96872
636.68112	0.96877
634.62731	0.96846
632.57350	0.96776
630.51969	0.96657
628.46588	0.96532
626.41207	0.96519
624.35826	0.96561
622.30445	0.96549
620.25064	0.96493
618.19683	0.96462
616.14302	0.96542
614.08921	0.96642
612.03540	0.96654
609.98159	0.96605
607.92778	0.96553
605.87397	0.96532
603.82016	0.96453
601.76635	0.96326
599.71254	0.96356
597.65873	0.96520
595.60492	0.96623
593.55111	0.96639
591.49730	0.96543
589.44349	0.96368
587.38968	0.96336
585.33587	0.96444
583.28206	0.96450
581.22825	0.96353
579.17444	0.96307
577.12063	0.96284
575.06682	0.96251
573.01301	0.96239
570.95920	0.96217
568.90539	0.96148
566.85158	0.96011
564.79777	0.95864
562.74396	0.95806
560.69015	0.95857
558.63634	0.95977
556.58253	0.96088
554.52872	0.96129
552.47491	0.96143
550.42110	0.96144
548.36729	0.96062
546.31348	0.95946
544.25967	0.95924
542.20586	0.96015
540.15205	0.96160
538.09824	0.96228
536.04443	0.96176
533.99062	0.96097
531.93681	0.96062
529.88300	0.96151
527.82919	0.96230
525.77538	0.96100
523.72157	0.95951
521.66776	0.95969
519.61395	0.96054
517.56014	0.96172
515.50633	0.96304
513.45252	0.96311
511.39871	0.96263
509.34490	0.96313
507.29109	0.96388
505.23728	0.96389
503.18347	0.96367
501.12966	0.96341
499.07585	0.96198
497.02204	0.96011
494.96823	0.96019
492.91442	0.96162
490.86061	0.96157
488.80680	0.95983
486.75299	0.95916
484.69918	0.96039
482.64537	0.96072
480.59156	0.95992
478.53775	0.95985
476.48394	0.95961
474.43013	0.95785
472.37632	0.95561
470.32251	0.95385
468.26870	0.95231
466.21489	0.95246
464.16108	0.95436
462.10727	0.95621
460.05346	0.95695
457.99965	0.95695
455.94584	0.95775
453.89203	0.95890
451.83822	0.95944
449.78441	0.95966
447.73060	0.95930
445.67679	0.95797
443.62298	0.95810
441.56916	0.95991
439.51535	0.96000
437.46154	0.95903
435.40773	0.95892
433.35392	0.95885
431.30011	0.95827
429.24630	0.95854
427.19249	0.95961
425.13868	0.95925
423.08487	0.95812
421.03106	0.95847
418.97725	0.96075
416.92344	0.96273
414.86963	0.96311
412.81582	0.96271
410.76201	0.96132
408.70820	0.96118
406.65439	0.96252
404.60058	0.96129
402.54677	0.95817
400.49296	0.95689
398.43915	0.95918
