3996.70104	0.98307
3994.64724	0.98282
3992.59344	0.98238
3990.53964	0.98225
3988.48583	0.98245
3986.43203	0.98256
3984.37823	0.98246
3982.32442	0.98251
3980.27062	0.98294
3978.21682	0.98319
3976.16301	0.98325
3974.10921	0.98310
3972.05541	0.98264
3970.00160	0.98269
3967.94780	0.98333
3965.89400	0.98349
3963.84019	0.98295
3961.78639	0.98284
3959.73259	0.98335
3957.67878	0.98363
3955.62498	0.98361
3953.57118	0.98335
3951.51737	0.98277
3949.46357	0.98205
3947.40977	0.98191
3945.35596	0.98238
3943.30216	0.98264
3941.24836	0.98280
3939.19455	0.98328
3937.14075	0.98339
3935.08695	0.98294
3933.03315	0.98289
3930.97934	0.98317
3928.92554	0.98298
3926.87174	0.98283
3924.81793	0.98300
3922.76413	0.98308
3920.71033	0.98325
3918.65652	0.98347
3916.60272	0.98357
3914.54892	0.98337
3912.49511	0.98291
3910.44131	0.98304
3908.38751	0.98356
3906.33370	0.98341
3904.27990	0.98277
3902.22610	0.98278
3900.17229	0.98306
3898.11849	0.98278
3896.06469	0.98240
3894.01088	0.98246
3891.95708	0.98309
3889.90328	0.98342
3887.84947	0.98312
3885.79567	0.98271
3883.74187	0.98224
3881.68807	0.98201
3879.63426	0.98260
3877.58046	0.98336
3875.52666	0.98331
3873.47285	0.98252
3871.41905	0.98211
3869.36525	0.98259
3867.31144	0.98290
3865.25764	0.98299
3863.20384	0.98323
3861.15003	0.98347
3859.09623	0.98370
3857.04243	0.98359
3854.98862	0.98280
3852.93482	0.98220
3850.88102	0.98232
3848.82721	0.98213
3846.77341	0.98207
3844.71961	0.98255
3842.66580	0.98335
3840.61200	0.98343
3838.55820	0.98268
3836.50439	0.98260
3834.45059	0.98292
3832.39679	0.98307
3830.34298	0.98320
3828.28918	0.98295
3826.23538	0.98238
3824.18158	0.98201
3822.12777	0.98207
3820.07397	0.98260
3818.02017	0.98279
3815.96636	0.98288
3813.91256	0.98355
3811.85876	0.98398
3809.80495	0.98364
3807.75115	0.98294
3805.69735	0.98303
3803.64354	0.98375
3801.58974	0.98399
3799.53594	0.98365
3797.48213	0.98380
3795.42833	0.98458
3793.37453	0.98488
3791.32072	0.98452
3789.26692	0.98409
3787.21312	0.98371
3785.15931	0.98365
3783.10551	0.98411
3781.05171	0.98429
3778.99790	0.98357
3776.94410	0.98299
3774.89030	0.98311
3772.83650	0.98316
3770.78269	0.98296
3768.72889	0.98324
3766.67509	0.98383
3764.62128	0.98404
3762.56748	0.98420
3760.51368	0.98454
3758.45987	0.98451
3756.40607	0.98413
3754.35227	0.98377
3752.29846	0.98325
3750.24466	0.98288
3748.19086	0.98315
3746.13705	0.98311
3744.08325	0.98271
3742.02945	0.98292
3739.97564	0.98329
3737.92184	0.98369
3735.86804	0.98507
3733.81423	0.98712
3731.76043	0.98738
3729.70663	0.98575
3727.65282	0.98391
3725.59902	0.98280
3723.54522	0.98205
3721.49141	0.98176
3719.43761	0.98230
3717.38381	0.98251
3715.33001	0.98195
3713.27620	0.98133
3711.22240	0.98095
3709.16860	0.98086
3707.11479	0.98080
3705.06099	0.98041
3703.00719	0.97946
3700.95338	0.97825
3698.89958	0.97789
3696.84578	0.97815
3694.79197	0.97807
3692.73817	0.97748
3690.68437	0.97707
3688.63056	0.97772
3686.57676	0.97901
3684.52296	0.97991
3682.46915	0.98006
3680.41535	0.97934
3678.36155	0.97804
3676.30774	0.97706
3674.25394	0.97735
3672.20014	0.97814
3670.14633	0.97810
3668.09253	0.97727
3666.03873	0.97666
3663.98492	0.97628
3661.93112	0.97555
3659.87732	0.97472
3657.82352	0.97448
3655.76971	0.97408
3653.71591	0.97300
3651.66211	0.97190
3649.60830	0.97167
3647.55450	0.97204
3645.50070	0.97154
3643.44689	0.97084
3641.39309	0.97014
3639.33929	0.96911
3637.28548	0.96844
3635.23168	0.96856
3633.17788	0.96843
3631.12407	0.96747
3629.07027	0.96590
3627.01647	0.96427
3624.96266	0.96351
3622.90886	0.96349
3620.85506	0.96366
3618.80125	0.96366
3616.74745	0.96355
3614.69365	0.96322
3612.63984	0.96307
3610.58604	0.96340
3608.53224	0.96326
3606.47844	0.96233
3604.42463	0.96172
3602.37083	0.96177
3600.31703	0.96170
3598.26322	0.96111
3596.20942	0.96057
3594.15562	0.95997
3592.10181	0.95917
3590.04801	0.95856
3587.99421	0.95788
3585.94040	0.95703
3583.88660	0.95663
3581.83280	0.95645
3579.77899	0.95612
3577.72519	0.95597
3575.67139	0.95607
3573.61758	0.95585
3571.56378	0.95521
3569.50998	0.95438
3567.45617	0.95325
3565.40237	0.95220
3563.34857	0.95199
3561.29476	0.95230
3559.24096	0.95251
3557.18716	0.95213
3555.13335	0.95120
3553.07955	0.95055
3551.02575	0.95060
3548.97195	0.95050
3546.91814	0.94997
3544.86434	0.94940
3542.81054	0.94880
3540.75673	0.94801
3538.70293	0.94717
3536.64913	0.94650
3534.59532	0.94602
3532.54152	0.94563
3530.48772	0.94505
3528.43391	0.94449
3526.38011	0.94412
3524.32631	0.94368
3522.27250	0.94317
3520.21870	0.94264
3518.16490	0.94235
3516.11109	0.94204
3514.05729	0.94156
3512.00349	0.94145
3509.94968	0.94145
3507.89588	0.94115
3505.84208	0.94083
3503.78827	0.94059
3501.73447	0.94014
3499.68067	0.93956
3497.62687	0.93916
3495.57306	0.93907
3493.51926	0.93938
3491.46546	0.93952
3489.41165	0.93896
3487.35785	0.93803
3485.30405	0.93730
3483.25024	0.93693
3481.19644	0.93653
3479.14264	0.93617
3477.08883	0.93584
3475.03503	0.93512
3472.98123	0.93435
3470.92742	0.93393
3468.87362	0.93328
3466.81982	0.93231
3464.76601	0.93156
3462.71221	0.93126
3460.65841	0.93114
3458.60460	0.93100
3456.55080	0.93100
3454.49700	0.93076
3452.44319	0.93014
3450.38939	0.92966
3448.33559	0.92919
3446.28178	0.92831
3444.22798	0.92760
3442.17418	0.92758
3440.12038	0.92755
3438.06657	0.92659
3436.01277	0.92508
3433.95897	0.92424
3431.90516	0.92438
3429.85136	0.92483
3427.79756	0.92502
3425.74375	0.92482
3423.68995	0.92469
3421.63615	0.92464
3419.58234	0.92417
3417.52854	0.92363
3415.47474	0.92329
3413.42093	0.92285
3411.36713	0.92224
3409.31333	0.92176
3407.25952	0.92151
3405.20572	0.92137
3403.15192	0.92127
3401.09811	0.92116
3399.04431	0.92092
3396.99051	0.92063
3394.93670	0.92063
3392.88290	0.92055
3390.82910	0.92034
3388.77529	0.92037
3386.72149	0.92028
3384.66769	0.92025
3382.61389	0.92046
3380.56008	0.92041
3378.50628	0.92005
3376.45248	0.91980
3374.39867	0.91994
3372.34487	0.92011
3370.29107	0.91998
3368.23726	0.91971
3366.18346	0.91942
3364.12966	0.91897
3362.07585	0.91857
3360.02205	0.91861
3357.96825	0.91890
3355.91444	0.91912
3353.86064	0.91919
3351.80684	0.91896
3349.75303	0.91851
3347.69923	0.91788
3345.64543	0.91693
3343.59162	0.91640
3341.53782	0.91705
3339.48402	0.91793
3337.43021	0.91828
3335.37641	0.91857
3333.32261	0.91872
3331.26881	0.91851
3329.21500	0.91814
3327.16120	0.91782
3325.10740	0.91775
3323.05359	0.91778
3320.99979	0.91756
3318.94599	0.91763
3316.89218	0.91833
3314.83838	0.91912
3312.78458	0.91958
3310.73077	0.91978
3308.67697	0.91960
3306.62317	0.91881
3304.56936	0.91819
3302.51556	0.91859
3300.46176	0.91925
3298.40795	0.91919
3296.35415	0.91896
3294.30035	0.91911
3292.24654	0.91918
3290.19274	0.91919
3288.13894	0.91945
3286.08513	0.91983
3284.03133	0.92013
3281.97753	0.92026
3279.92372	0.92028
3277.86992	0.92030
3275.81612	0.92037
3273.76232	0.92023
3271.70851	0.91964
3269.65471	0.91943
3267.60091	0.91989
3265.54710	0.92006
3263.49330	0.91993
3261.43950	0.92029
3259.38569	0.92089
3257.33189	0.92107
3255.27809	0.92134
3253.22428	0.92218
3251.17048	0.92261
3249.11668	0.92228
3247.06287	0.92195
3245.00907	0.92197
3242.95527	0.92205
3240.90146	0.92222
3238.84766	0.92262
3236.79386	0.92326
3234.74005	0.92410
3232.68625	0.92466
3230.63245	0.92474
3228.57864	0.92436
3226.52484	0.92371
3224.47104	0.92351
3222.41724	0.92389
3220.36343	0.92454
3218.30963	0.92537
3216.25583	0.92604
3214.20202	0.92616
3212.14822	0.92590
3210.09442	0.92572
3208.04061	0.92581
3205.98681	0.92630
3203.93301	0.92710
3201.87920	0.92768
3199.82540	0.92793
3197.77160	0.92822
3195.71779	0.92821
3193.66399	0.92792
3191.61019	0.92837
3189.55638	0.92952
3187.50258	0.93053
3185.44878	0.93111
3183.39497	0.93147
3181.34117	0.93183
3179.28737	0.93201
3177.23356	0.93183
3175.17976	0.93187
3173.12596	0.93230
3171.07215	0.93240
3169.01835	0.93238
3166.96455	0.93299
3164.91075	0.93381
3162.85694	0.93421
3160.80314	0.93419
3158.74934	0.93404
3156.69553	0.93399
3154.64173	0.93438
3152.58793	0.93545
3150.53412	0.93674
3148.48032	0.93732
3146.42652	0.93704
3144.37271	0.93682
3142.31891	0.93727
3140.26511	0.93799
3138.21130	0.93837
3136.15750	0.93845
3134.10370	0.93851
3132.04989	0.93894
3129.99609	0.93961
3127.94229	0.93989
3125.88848	0.93986
3123.83468	0.94016
3121.78088	0.94088
3119.72707	0.94147
3117.67327	0.94177
3115.61947	0.94203
3113.56566	0.94237
3111.51186	0.94278
3109.45806	0.94303
3107.40426	0.94291
3105.35045	0.94265
3103.29665	0.94269
3101.24285	0.94307
3099.18904	0.94374
3097.13524	0.94466
3095.08144	0.94528
3093.02763	0.94511
3090.97383	0.94458
3088.92003	0.94444
3086.86622	0.94511
3084.81242	0.94613
3082.75862	0.94655
3080.70481	0.94643
3078.65101	0.94657
3076.59721	0.94690
3074.54340	0.94710
3072.48960	0.94747
3070.43580	0.94789
3068.38199	0.94797
3066.32819	0.94791
3064.27439	0.94801
3062.22058	0.94830
3060.16678	0.94866
3058.11298	0.94924
3056.05918	0.95002
3054.00537	0.95036
3051.95157	0.95033
3049.89777	0.95050
3047.84396	0.95069
3045.79016	0.95067
3043.73636	0.95088
3041.68255	0.95126
3039.62875	0.95142
3037.57495	0.95161
3035.52114	0.95201
3033.46734	0.95240
3031.41354	0.95252
3029.35973	0.95246
3027.30593	0.95267
3025.25213	0.95286
3023.19832	0.95298
3021.14452	0.95346
3019.09072	0.95391
3017.03691	0.95388
3014.98311	0.95373
3012.92931	0.95372
3010.87550	0.95369
3008.82170	0.95359
3006.76790	0.95353
3004.71409	0.95330
3002.66029	0.95293
3000.60649	0.95269
2998.55269	0.95250
2996.49888	0.95215
2994.44508	0.95169
2992.39128	0.95133
2990.33747	0.95110
2988.28367	0.95058
2986.22987	0.94968
2984.17606	0.94886
2982.12226	0.94844
2980.06846	0.94797
2978.01465	0.94715
2975.96085	0.94645
2973.90705	0.94559
2971.85324	0.94390
2969.79944	0.94175
2967.74564	0.93965
2965.69183	0.93759
2963.63803	0.93590
2961.58423	0.93452
2959.53042	0.93269
2957.47662	0.93063
2955.42282	0.92899
2953.36901	0.92727
2951.31521	0.92475
2949.26141	0.92177
2947.20761	0.91887
2945.15380	0.91597
2943.10000	0.91287
2941.04620	0.90939
2938.99239	0.90544
2936.93859	0.90141
2934.88479	0.89765
2932.83098	0.89369
2930.77718	0.88922
2928.72338	0.88484
2926.66957	0.88052
2924.61577	0.87550
2922.56197	0.87010
2920.50816	0.86568
2918.45436	0.86409
2916.40056	0.86715
2914.34675	0.87478
2912.29295	0.88415
2910.23915	0.89216
2908.18534	0.89781
2906.13154	0.90177
2904.07774	0.90492
2902.02393	0.90767
2899.97013	0.91028
2897.91633	0.91308
2895.86252	0.91600
2893.80872	0.91857
2891.75492	0.92082
2889.70112	0.92308
2887.64731	0.92523
2885.59351	0.92721
2883.53971	0.92891
2881.48590	0.93001
2879.43210	0.93047
2877.37830	0.93053
2875.32449	0.93052
2873.27069	0.93020
2871.21689	0.92929
2869.16308	0.92817
2867.10928	0.92677
2865.05548	0.92460
2863.00167	0.92183
2860.94787	0.91863
2858.89407	0.91453
2856.84026	0.90941
2854.78646	0.90345
2852.73266	0.89707
2850.67885	0.89298
2848.62505	0.89541
2846.57125	0.90499
2844.51744	0.91694
2842.46364	0.92629
2840.40984	0.93234
2838.35603	0.93671
2836.30223	0.94039
2834.24843	0.94342
2832.19463	0.94571
2830.14082	0.94774
2828.08702	0.94961
2826.03322	0.95071
2823.97941	0.95115
2821.92561	0.95196
2819.87181	0.95314
2817.81800	0.95394
2815.76420	0.95465
2813.71040	0.95543
2811.65659	0.95598
2809.60279	0.95638
2807.54899	0.95684
2805.49518	0.95745
2803.44138	0.95811
2801.38758	0.95852
2799.33377	0.95847
2797.27997	0.95850
2795.22617	0.95907
2793.17236	0.95963
2791.11856	0.95978
2789.06476	0.96001
2787.01095	0.96053
2784.95715	0.96072
2782.90335	0.96048
2780.84955	0.96035
2778.79574	0.96062
2776.74194	0.96124
2774.68814	0.96176
2772.63433	0.96210
2770.58053	0.96254
2768.52673	0.96305
2766.47292	0.96339
2764.41912	0.96328
2762.36532	0.96291
2760.31151	0.96288
2758.25771	0.96324
2756.20391	0.96360
2754.15010	0.96381
2752.09630	0.96385
2750.04250	0.96379
2747.98869	0.96376
2745.93489	0.96376
2743.88109	0.96360
2741.82728	0.96352
2739.77348	0.96394
2737.71968	0.96452
2735.66587	0.96483
2733.61207	0.96480
2731.55827	0.96453
2729.50446	0.96458
2727.45066	0.96500
2725.39686	0.96515
2723.34306	0.96491
2721.28925	0.96456
2719.23545	0.96434
2717.18165	0.96447
2715.12784	0.96465
2713.07404	0.96455
2711.02024	0.96453
2708.96643	0.96478
2706.91263	0.96513
2704.85883	0.96541
2702.80502	0.96541
2700.75122	0.96541
2698.69742	0.96588
2696.64361	0.96635
2694.58981	0.96631
2692.53601	0.96612
2690.48220	0.96600
2688.42840	0.96596
2686.37460	0.96620
2684.32079	0.96649
2682.26699	0.96640
2680.21319	0.96609
2678.15938	0.96619
2676.10558	0.96673
2674.05178	0.96716
2671.99797	0.96721
2669.94417	0.96711
2667.89037	0.96700
2665.83657	0.96682
2663.78276	0.96654
2661.72896	0.96641
2659.67516	0.96658
2657.62135	0.96695
2655.56755	0.96731
2653.51375	0.96724
2651.45994	0.96678
2649.40614	0.96637
2647.35234	0.96615
2645.29853	0.96646
2643.24473	0.96736
2641.19093	0.96790
2639.13712	0.96750
2637.08332	0.96687
2635.02952	0.96680
2632.97571	0.96700
2630.92191	0.96713
2628.86811	0.96717
2626.81430	0.96733
2624.76050	0.96778
2622.70670	0.96796
2620.65289	0.96782
2618.59909	0.96803
2616.54529	0.96871
2614.49149	0.96957
2612.43768	0.97020
2610.38388	0.97029
2608.33008	0.96999
2606.27627	0.96964
2604.22247	0.96923
2602.16867	0.96895
2600.11486	0.96904
2598.06106	0.96940
2596.00726	0.96984
2593.95345	0.97035
2591.89965	0.97095
2589.84585	0.97131
2587.79204	0.97127
2585.73824	0.97085
2583.68444	0.97029
2581.63063	0.97058
2579.57683	0.97168
2577.52303	0.97183
2575.46922	0.97098
2573.41542	0.97061
2571.36162	0.97063
2569.30781	0.97040
2567.25401	0.97034
2565.20021	0.97069
2563.14640	0.97087
2561.09260	0.97055
2559.03880	0.97058
2556.98500	0.97141
2554.93119	0.97208
2552.87739	0.97206
2550.82359	0.97182
2548.76978	0.97178
2546.71598	0.97179
2544.66218	0.97170
2542.60837	0.97174
2540.55457	0.97199
2538.50077	0.97253
2536.44696	0.97275
2534.39316	0.97194
2532.33936	0.97126
2530.28555	0.97154
2528.23175	0.97184
2526.17795	0.97207
2524.12414	0.97297
2522.07034	0.97379
2520.01654	0.97365
2517.96273	0.97332
2515.90893	0.97332
2513.85513	0.97329
2511.80132	0.97315
2509.74752	0.97304
2507.69372	0.97302
2505.63992	0.97311
2503.58611	0.97306
2501.53231	0.97310
2499.47851	0.97381
2497.42470	0.97446
2495.37090	0.97438
2493.31710	0.97442
2491.26329	0.97480
2489.20949	0.97491
2487.15569	0.97483
2485.10188	0.97490
2483.04808	0.97505
2480.99428	0.97502
2478.94047	0.97460
2476.88667	0.97411
2474.83287	0.97417
2472.77906	0.97462
2470.72526	0.97493
2468.67146	0.97488
2466.61765	0.97457
2464.56385	0.97420
2462.51005	0.97396
2460.45624	0.97409
2458.40244	0.97422
2456.34864	0.97393
2454.29483	0.97354
2452.24103	0.97349
2450.18723	0.97428
2448.13343	0.97532
2446.07962	0.97550
2444.02582	0.97545
2441.97202	0.97605
2439.91821	0.97656
2437.86441	0.97593
2435.81061	0.97494
2433.75680	0.97479
2431.70300	0.97505
2429.64920	0.97499
2427.59539	0.97516
2425.54159	0.97583
2423.48779	0.97609
2421.43398	0.97554
2419.38018	0.97497
2417.32638	0.97543
2415.27257	0.97634
2413.21877	0.97628
2411.16497	0.97546
2409.11116	0.97521
2407.05736	0.97568
2405.00356	0.97585
2402.94975	0.97558
2400.89595	0.97551
2398.84215	0.97568
2396.78834	0.97567
2394.73454	0.97584
2392.68074	0.97619
2390.62694	0.97584
2388.57313	0.97526
2386.51933	0.97530
2384.46553	0.97566
2382.41172	0.97571
2380.35792	0.97547
2378.30412	0.97569
2376.25031	0.97594
2374.19651	0.97506
2372.14271	0.97395
2370.08890	0.97421
2368.03510	0.97568
2365.98130	0.97676
2363.92749	0.97609
2361.87369	0.97422
2359.81989	0.97342
2357.76608	0.97423
2355.71228	0.97501
2353.65848	0.97532
2351.60467	0.97546
2349.55087	0.97560
2347.49707	0.97549
2345.44326	0.97507
2343.38946	0.97498
2341.33566	0.97515
2339.28186	0.97516
2337.22805	0.97506
2335.17425	0.97530
2333.12045	0.97614
2331.06664	0.97711
2329.01284	0.97706
2326.95904	0.97581
2324.90523	0.97447
2322.85143	0.97389
2320.79763	0.97421
2318.74382	0.97453
2316.69002	0.97464
2314.63622	0.97501
2312.58241	0.97524
2310.52861	0.97504
2308.47481	0.97481
2306.42100	0.97504
2304.36720	0.97589
2302.31340	0.97651
2300.25959	0.97628
2298.20579	0.97594
2296.15199	0.97592
2294.09818	0.97632
2292.04438	0.97719
2289.99058	0.97752
2287.93677	0.97688
2285.88297	0.97647
2283.82917	0.97684
2281.77537	0.97669
2279.72156	0.97529
2277.66776	0.97450
2275.61396	0.97580
2273.56015	0.97778
2271.50635	0.97839
2269.45255	0.97756
2267.39874	0.97664
2265.34494	0.97642
2263.29114	0.97713
2261.23733	0.97758
2259.18353	0.97662
2257.12973	0.97548
2255.07592	0.97572
2253.02212	0.97685
2250.96832	0.97751
2248.91451	0.97724
2246.86071	0.97663
2244.80691	0.97628
2242.75310	0.97651
2240.69930	0.97730
2238.64550	0.97773
2236.59169	0.97786
2234.53789	0.97851
2232.48409	0.97926
2230.43029	0.97917
2228.37648	0.97801
2226.32268	0.97740
2224.26888	0.97776
2222.21507	0.97757
2220.16127	0.97728
2218.10747	0.97676
2216.05366	0.97593
2213.99986	0.97648
2211.94606	0.97783
2209.89225	0.97852
2207.83845	0.97904
2205.78465	0.97993
2203.73084	0.97988
2201.67704	0.97854
2199.62324	0.97790
2197.56943	0.97783
2195.51563	0.97753
2193.46183	0.97781
2191.40802	0.97819
2189.35422	0.97807
2187.30042	0.97795
2185.24661	0.97760
2183.19281	0.97646
2181.13901	0.97558
2179.08520	0.97563
2177.03140	0.97595
2174.97760	0.97829
2172.92380	0.98275
2170.86999	0.98397
2168.81619	0.98011
2166.76239	0.97594
2164.70858	0.97412
2162.65478	0.97439
2160.60098	0.97764
2158.54717	0.98195
2156.49337	0.98390
2154.43957	0.98387
2152.38576	0.98397
2150.33196	0.98478
2148.27816	0.98443
2146.22435	0.98292
2144.17055	0.98184
2142.11675	0.98108
2140.06294	0.98035
2138.00914	0.98068
2135.95534	0.98212
2133.90153	0.98253
2131.84773	0.98098
2129.79393	0.97916
2127.74012	0.97858
2125.68632	0.97939
2123.63252	0.97994
2121.57871	0.97873
2119.52491	0.97728
2117.47111	0.97712
2115.41731	0.97788
2113.36350	0.97834
2111.30970	0.97758
2109.25590	0.97693
2107.20209	0.97746
2105.14829	0.97783
2103.09449	0.97696
2101.04068	0.97548
2098.98688	0.97496
2096.93308	0.97637
2094.87927	0.97817
2092.82547	0.97890
2090.77167	0.97893
2088.71786	0.97862
2086.66406	0.97850
2084.61026	0.97876
2082.55645	0.97886
2080.50265	0.97906
2078.44885	0.97963
2076.39504	0.98014
2074.34124	0.98018
2072.28744	0.97912
2070.23363	0.97749
2068.17983	0.97692
2066.12603	0.97807
2064.07223	0.97978
2062.01842	0.97920
2059.96462	0.97590
2057.91082	0.97290
2055.85701	0.97220
2053.80321	0.97221
2051.74941	0.97247
2049.69560	0.97496
2047.64180	0.97751
2045.58800	0.97764
2043.53419	0.97837
2041.48039	0.97960
2039.42659	0.97828
2037.37278	0.97539
2035.31898	0.97394
2033.26518	0.97646
2031.21137	0.98048
2029.15757	0.98071
2027.10377	0.97918
2025.04996	0.98010
2022.99616	0.98144
2020.94236	0.98040
2018.88855	0.97783
2016.83475	0.97638
2014.78095	0.97734
2012.72714	0.97942
2010.67334	0.98108
2008.61954	0.98182
2006.56574	0.98206
2004.51193	0.98241
2002.45813	0.98377
2000.40433	0.98557
1998.35052	0.98473
1996.29672	0.98069
1994.24292	0.97682
1992.18911	0.97624
1990.13531	0.97784
1988.08151	0.97790
1986.02770	0.97700
1983.97390	0.97744
1981.92010	0.97723
1979.86629	0.97631
1977.81249	0.97878
1975.75869	0.98214
1973.70488	0.98118
1971.65108	0.97984
1969.59728	0.98102
1967.54347	0.98148
1965.48967	0.98010
1963.43587	0.97911
1961.38206	0.98118
1959.32826	0.98388
1957.27446	0.98274
1955.22066	0.98047
1953.16685	0.98015
1951.11305	0.98082
1949.05925	0.98124
1947.00544	0.98136
1944.95164	0.98173
1942.89784	0.98129
1940.84403	0.98064
1938.79023	0.98108
1936.73643	0.98098
1934.68262	0.98015
1932.62882	0.97997
1930.57502	0.98144
1928.52121	0.98343
1926.46741	0.98325
1924.41361	0.98137
1922.35980	0.98017
1920.30600	0.97974
1918.25220	0.97947
1916.19839	0.97987
1914.14459	0.98029
1912.09079	0.97990
1910.03698	0.97978
1907.98318	0.98035
1905.92938	0.98078
1903.87557	0.98119
1901.82177	0.98123
1899.76797	0.98048
1897.71417	0.97974
1895.66036	0.97936
1893.60656	0.97917
1891.55276	0.97945
1889.49895	0.97969
1887.44515	0.97960
1885.39135	0.97999
1883.33754	0.98014
1881.28374	0.97958
1879.22994	0.97965
1877.17613	0.97995
1875.12233	0.97933
1873.06853	0.97880
1871.01472	0.97936
1868.96092	0.98015
1866.90712	0.98029
1864.85331	0.98035
1862.79951	0.98027
1860.74571	0.97994
1858.69190	0.97990
1856.63810	0.97994
1854.58430	0.97992
1852.53049	0.97994
1850.47669	0.97949
1848.42289	0.97886
1846.36908	0.97882
1844.31528	0.97929
1842.26148	0.97946
1840.20768	0.97936
1838.15387	0.97942
1836.10007	0.97929
1834.04627	0.97914
1831.99246	0.97954
1829.93866	0.97981
1827.88486	0.97911
1825.83105	0.97815
1823.77725	0.97772
1821.72345	0.97812
1819.66964	0.97886
1817.61584	0.97929
1815.56204	0.97932
1813.50823	0.97900
1811.45443	0.97849
1809.40063	0.97802
1807.34682	0.97780
1805.29302	0.97795
1803.23922	0.97829
1801.18541	0.97853
1799.13161	0.97847
1797.07781	0.97814
1795.02400	0.97780
1792.97020	0.97760
1790.91640	0.97763
1788.86260	0.97765
1786.80879	0.97755
1784.75499	0.97749
1782.70119	0.97737
1780.64738	0.97695
1778.59358	0.97636
1776.53978	0.97592
1774.48597	0.97546
1772.43217	0.97495
1770.37837	0.97492
1768.32456	0.97518
1766.27076	0.97506
1764.21696	0.97441
1762.16315	0.97353
1760.10935	0.97272
1758.05555	0.97175
1756.00174	0.97020
1753.94794	0.96845
1751.89414	0.96635
1749.84033	0.96327
1747.78653	0.95960
1745.73273	0.95527
1743.67892	0.94941
1741.62512	0.94214
1739.57132	0.93406
1737.51751	0.92717
1735.46371	0.92208
1733.40991	0.91772
1731.35611	0.91613
1729.30230	0.91697
1727.24850	0.91834
1725.19470	0.91969
1723.14089	0.92126
1721.08709	0.92292
1719.03329	0.92475
1716.97948	0.92658
1714.92568	0.92764
1712.87188	0.92857
1710.81807	0.92953
1708.76427	0.93042
1706.71047	0.93156
1704.65666	0.93285
1702.60286	0.93378
1700.54906	0.93418
1698.49525	0.93394
1696.44145	0.93279
1694.38765	0.93073
1692.33384	0.92903
1690.28004	0.92765
1688.22624	0.92637
1686.17243	0.92552
1684.11863	0.92516
1682.06483	0.92560
1680.01103	0.92632
1677.95722	0.92657
1675.90342	0.92596
1673.84962	0.92509
1671.79581	0.92456
1669.74201	0.92363
1667.68821	0.92219
1665.63440	0.92090
1663.58060	0.91936
1661.52680	0.91748
1659.47299	0.91593
1657.41919	0.91472
1655.36539	0.91359
1653.31158	0.91178
1651.25778	0.91004
1649.20398	0.90913
1647.15017	0.90779
1645.09637	0.90605
1643.04257	0.90468
1640.98876	0.90354
1638.93496	0.90284
1636.88116	0.90218
1634.82735	0.90068
1632.77355	0.89934
1630.71975	0.89836
1628.66594	0.89740
1626.61214	0.89637
1624.55834	0.89524
1622.50454	0.89445
1620.45073	0.89434
1618.39693	0.89429
1616.34313	0.89382
1614.28932	0.89361
1612.23552	0.89395
1610.18172	0.89458
1608.12791	0.89538
1606.07411	0.89627
1604.02031	0.89731
1601.96650	0.89847
1599.91270	0.89968
1597.85890	0.90096
1595.80509	0.90248
1593.75129	0.90423
1591.69749	0.90606
1589.64368	0.90791
1587.58988	0.90959
1585.53608	0.91129
1583.48227	0.91312
1581.42847	0.91470
1579.37467	0.91592
1577.32086	0.91741
1575.26706	0.91920
1573.21326	0.92018
1571.15945	0.92062
1569.10565	0.92114
1567.05185	0.92178
1564.99805	0.92245
1562.94424	0.92294
1560.89044	0.92299
1558.83664	0.92300
1556.78283	0.92355
1554.72903	0.92371
1552.67523	0.92361
1550.62142	0.92378
1548.56762	0.92411
1546.51382	0.92409
1544.46001	0.92393
1542.40621	0.92395
1540.35241	0.92353
1538.29860	0.92309
1536.24480	0.92311
1534.19100	0.92321
1532.13719	0.92376
1530.08339	0.92447
1528.02959	0.92489
1525.97578	0.92530
1523.92198	0.92538
1521.86818	0.92430
1519.81437	0.92316
1517.76057	0.92330
1515.70677	0.92432
1513.65297	0.92557
1511.59916	0.92675
1509.54536	0.92796
1507.49156	0.92940
1505.43775	0.93077
1503.38395	0.93142
1501.33015	0.93179
1499.27634	0.93227
1497.22254	0.93337
1495.16874	0.93480
1493.11493	0.93563
1491.06113	0.93602
1489.00733	0.93604
1486.95352	0.93565
1484.89972	0.93550
1482.84592	0.93546
1480.79211	0.93480
1478.73831	0.93327
1476.68451	0.93064
1474.63070	0.92646
1472.57690	0.92131
1470.52310	0.91726
1468.46929	0.91431
1466.41549	0.91110
1464.36169	0.90791
1462.30788	0.90634
1460.25408	0.90624
1458.20028	0.90634
1456.14648	0.90607
1454.09267	0.90617
1452.03887	0.90657
1449.98507	0.90689
1447.93126	0.90706
1445.87746	0.90704
1443.82366	0.90677
1441.76985	0.90646
1439.71605	0.90636
1437.66225	0.90653
1435.60844	0.90672
1433.55464	0.90675
1431.50084	0.90690
1429.44703	0.90760
1427.39323	0.90860
1425.33943	0.90934
1423.28562	0.90974
1421.23182	0.90989
1419.17802	0.90978
1417.12421	0.90942
1415.07041	0.90918
1413.01661	0.90938
1410.96280	0.91013
1408.90900	0.91114
1406.85520	0.91193
1404.80139	0.91250
1402.74759	0.91311
1400.69379	0.91361
1398.63999	0.91365
1396.58618	0.91313
1394.53238	0.91235
1392.47858	0.91148
1390.42477	0.91054
1388.37097	0.90968
1386.31717	0.90913
1384.26336	0.90874
1382.20956	0.90820
1380.15576	0.90752
1378.10195	0.90664
1376.04815	0.90590
1373.99435	0.90580
1371.94054	0.90611
1369.88674	0.90638
1367.83294	0.90640
1365.77913	0.90644
1363.72533	0.90716
1361.67153	0.90825
1359.61772	0.90878
1357.56392	0.90890
1355.51012	0.90923
1353.45631	0.90992
1351.40251	0.91067
1349.34871	0.91102
1347.29491	0.91087
1345.24110	0.91090
1343.18730	0.91151
1341.13350	0.91215
1339.07969	0.91228
1337.02589	0.91218
1334.97209	0.91201
1332.91828	0.91171
1330.86448	0.91138
1328.81068	0.91117
1326.75687	0.91093
1324.70307	0.91048
1322.64927	0.90990
1320.59546	0.90928
1318.54166	0.90859
1316.48786	0.90795
1314.43405	0.90749
1312.38025	0.90717
1310.32645	0.90689
1308.27264	0.90662
1306.21884	0.90643
1304.16504	0.90630
1302.11123	0.90604
1300.05743	0.90570
1298.00363	0.90541
1295.94982	0.90508
1293.89602	0.90458
1291.84222	0.90409
1289.78842	0.90356
1287.73461	0.90265
1285.68081	0.90168
1283.62701	0.90096
1281.57320	0.90028
1279.51940	0.89944
1277.46560	0.89837
1275.41179	0.89734
1273.35799	0.89676
1271.30419	0.89642
1269.25038	0.89596
1267.19658	0.89547
1265.14278	0.89493
1263.08897	0.89415
1261.03517	0.89333
1258.98137	0.89272
1256.92756	0.89209
1254.87376	0.89142
1252.81996	0.89094
1250.76615	0.89063
1248.71235	0.89049
1246.65855	0.89033
1244.60474	0.88995
1242.55094	0.88971
1240.49714	0.88983
1238.44334	0.88998
1236.38953	0.88992
1234.33573	0.89002
1232.28193	0.89071
1230.22812	0.89174
1228.17432	0.89246
1226.12052	0.89272
1224.06671	0.89283
1222.01291	0.89291
1219.95911	0.89291
1217.90530	0.89282
1215.85150	0.89258
1213.79770	0.89227
1211.74389	0.89207
1209.69009	0.89179
1207.63629	0.89113
1205.58248	0.89021
1203.52868	0.88923
1201.47488	0.88793
1199.42107	0.88634
1197.36727	0.88498
1195.31347	0.88398
1193.25966	0.88294
1191.20586	0.88161
1189.15206	0.87991
1187.09825	0.87794
1185.04445	0.87591
1182.99065	0.87411
1180.93685	0.87232
1178.88304	0.87006
1176.82924	0.86759
1174.77544	0.86516
1172.72163	0.86276
1170.66783	0.86071
1168.61403	0.85896
1166.56022	0.85730
1164.50642	0.85562
1162.45262	0.85405
1160.39881	0.85323
1158.34501	0.85304
1156.29121	0.85249
1154.23740	0.85120
1152.18360	0.84974
1150.12980	0.84864
1148.07599	0.84785
1146.02219	0.84706
1143.96839	0.84645
1141.91458	0.84604
1139.86078	0.84578
1137.80698	0.84591
1135.75317	0.84598
1133.69937	0.84542
1131.64557	0.84448
1129.59176	0.84332
1127.53796	0.84168
1125.48416	0.83944
1123.43036	0.83675
1121.37655	0.83376
1119.32275	0.83064
1117.26895	0.82737
1115.21514	0.82366
1113.16134	0.81955
1111.10754	0.81567
1109.05373	0.81223
1106.99993	0.80886
1104.94613	0.80564
1102.89232	0.80291
1100.83852	0.80045
1098.78472	0.79827
1096.73091	0.79668
1094.67711	0.79511
1092.62331	0.79336
1090.56950	0.79228
1088.51570	0.79196
1086.46190	0.79156
1084.40809	0.79087
1082.35429	0.79019
1080.30049	0.78934
1078.24668	0.78788
1076.19288	0.78610
1074.13908	0.78444
1072.08528	0.78263
1070.03147	0.78074
1067.97767	0.77900
1065.92387	0.77716
1063.87006	0.77495
1061.81626	0.77262
1059.76246	0.77042
1057.70865	0.76813
1055.65485	0.76577
1053.60105	0.76362
1051.54724	0.76137
1049.49344	0.75835
1047.43964	0.75461
1045.38583	0.75090
1043.33203	0.74754
1041.27823	0.74395
1039.22442	0.73998
1037.17062	0.73597
1035.11682	0.73215
1033.06301	0.72879
1031.00921	0.72588
1028.95541	0.72349
1026.90160	0.72168
1024.84780	0.72002
1022.79400	0.71822
1020.74019	0.71659
1018.68639	0.71549
1016.63259	0.71464
1014.57879	0.71355
1012.52498	0.71223
1010.47118	0.71081
1008.41738	0.70971
1006.36357	0.70965
1004.30977	0.71055
1002.25597	0.71179
1000.20216	0.71307
998.14836	0.71426
996.09456	0.71563
994.04075	0.71755
991.98695	0.71978
989.93315	0.72215
987.87934	0.72493
985.82554	0.72818
983.77174	0.73155
981.71793	0.73486
979.66413	0.73820
977.61033	0.74155
975.55652	0.74524
973.50272	0.74964
971.44892	0.75461
969.39511	0.75944
967.34131	0.76358
965.28751	0.76741
963.23371	0.77137
961.17990	0.77513
959.12610	0.77865
957.07230	0.78227
955.01849	0.78570
952.96469	0.78894
950.91089	0.79265
948.85708	0.79671
946.80328	0.80024
944.74948	0.80321
942.69567	0.80619
940.64187	0.80922
938.58807	0.81249
936.53426	0.81616
934.48046	0.81952
932.42666	0.82195
930.37285	0.82384
928.31905	0.82570
926.26525	0.82732
924.21144	0.82849
922.15764	0.82938
920.10384	0.83049
918.05003	0.83179
915.99623	0.83247
913.94243	0.83280
911.88862	0.83392
909.83482	0.83594
907.78102	0.83836
905.72722	0.84064
903.67341	0.84274
901.61961	0.84505
899.56581	0.84750
897.51200	0.84940
895.45820	0.85016
893.40440	0.85103
891.35059	0.85272
889.29679	0.85388
887.24299	0.85438
885.18918	0.85489
883.13538	0.85509
881.08158	0.85551
879.02777	0.85685
876.97397	0.85863
874.92017	0.86064
872.86636	0.86281
870.81256	0.86480
868.75876	0.86644
866.70495	0.86769
864.65115	0.86873
862.59735	0.86970
860.54354	0.87061
858.48974	0.87137
856.43594	0.87212
854.38213	0.87326
852.32833	0.87420
850.27453	0.87462
848.22073	0.87511
846.16692	0.87518
844.11312	0.87436
842.05932	0.87356
840.00551	0.87259
837.95171	0.87069
835.89791	0.86828
833.84410	0.86623
831.79030	0.86486
829.73650	0.86386
827.68269	0.86320
825.62889	0.86318
823.57509	0.86337
821.52128	0.86275
819.46748	0.86167
817.41368	0.86133
815.35987	0.86145
813.30607	0.86137
811.25227	0.86050
809.19846	0.85848
807.14466	0.85627
805.09086	0.85439
803.03705	0.85234
800.98325	0.85012
798.92945	0.84817
796.87565	0.84725
794.82184	0.84772
792.76804	0.84900
790.71424	0.85032
788.66043	0.85043
786.60663	0.84862
784.55283	0.84644
782.49902	0.84509
780.44522	0.84369
778.39142	0.84231
776.33761	0.84197
774.28381	0.84262
772.23001	0.84336
770.17620	0.84332
768.12240	0.84244
766.06860	0.84131
764.01479	0.84073
761.96099	0.84045
759.90719	0.83973
757.85338	0.83908
755.79958	0.83869
753.74578	0.83840
751.69197	0.83861
749.63817	0.83900
747.58437	0.83893
745.53056	0.83835
743.47676	0.83779
741.42296	0.83781
739.36916	0.83801
737.31535	0.83796
735.26155	0.83746
733.20775	0.83628
731.15394	0.83440
729.10014	0.83207
727.04634	0.83052
724.99253	0.82988
722.93873	0.82908
720.88493	0.82829
718.83112	0.82819
716.77732	0.82893
714.72352	0.82972
712.66971	0.82993
710.61591	0.82972
708.56211	0.82882
706.50830	0.82793
704.45450	0.82774
702.40070	0.82709
700.34689	0.82538
698.29309	0.82328
696.23929	0.82158
694.18548	0.82074
692.13168	0.82045
690.07788	0.82066
688.02408	0.82105
685.97027	0.82020
683.91647	0.81867
681.86267	0.81765
679.80886	0.81690
677.75506	0.81632
675.70126	0.81572
673.64745	0.81485
671.59365	0.81373
669.53985	0.81192
667.48604	0.81006
665.43224	0.80918
663.37844	0.80806
661.32463	0.80695
659.27083	0.80633
657.21703	0.80598
655.16322	0.80545
653.10942	0.80422
651.05562	0.80251
649.00181	0.80069
646.94801	0.79957
644.89421	0.79928
642.84040	0.79878
640.78660	0.79781
638.73280	0.79774
636.67899	0.79862
634.62519	0.79856
632.57139	0.79767
630.51759	0.79653
628.46378	0.79515
626.40998	0.79414
624.35618	0.79350
622.30237	0.79341
620.24857	0.79309
618.19477	0.79102
616.14096	0.78846
614.08716	0.78707
612.03336	0.78595
609.97955	0.78454
607.92575	0.78314
605.87195	0.78181
603.81814	0.78059
601.76434	0.77909
599.71054	0.77730
597.65673	0.77559
595.60293	0.77407
593.54913	0.77235
591.49532	0.76954
589.44152	0.76689
587.38772	0.76586
585.33391	0.76546
583.28011	0.76484
581.22631	0.76448
579.17250	0.76464
577.11870	0.76483
575.06490	0.76483
573.01110	0.76432
570.95729	0.76314
568.90349	0.76094
566.84969	0.75821
564.79588	0.75643
562.74208	0.75500
560.68828	0.75371
558.63447	0.75206
556.58067	0.74900
554.52687	0.74584
552.47306	0.74285
550.41926	0.74015
548.36546	0.73827
546.31165	0.73631
544.25785	0.73353
542.20405	0.72965
540.15024	0.72609
538.09644	0.72350
536.04264	0.72101
533.98883	0.71819
531.93503	0.71585
529.88123	0.71555
527.82742	0.71578
525.77362	0.71536
523.71982	0.71541
521.66602	0.71536
519.61221	0.71496
517.55841	0.71575
515.50461	0.71708
513.45080	0.71780
511.39700	0.71924
509.34320	0.72091
507.28939	0.72205
505.23559	0.72326
503.18179	0.72323
501.12798	0.72140
499.07418	0.71943
497.02038	0.71769
494.96657	0.71587
492.91277	0.71421
490.85897	0.71376
488.80516	0.71399
486.75136	0.71119
484.69756	0.70529
482.64375	0.69958
480.58995	0.69477
478.53615	0.69025
476.48234	0.68524
474.42854	0.67930
472.37474	0.67361
470.32093	0.67050
468.26713	0.67012
466.21333	0.67093
464.15953	0.67135
462.10572	0.67014
460.05192	0.66844
457.99812	0.66925
455.94431	0.67195
453.89051	0.67437
451.83671	0.67623
449.78290	0.67735
447.72910	0.67990
445.67530	0.68303
443.62149	0.68360
441.56769	0.68196
439.51389	0.67979
437.46008	0.67840
435.40628	0.67750
433.35248	0.67703
431.29867	0.67749
429.24487	0.67670
427.19107	0.67399
425.13726	0.67198
423.08346	0.67323
421.02966	0.67628
418.97585	0.67599
416.92205	0.67449
414.86825	0.67446
412.81445	0.67528
410.76064	0.67863
408.70684	0.68412
406.65304	0.68921
404.59923	0.68922
402.54543	0.68629
400.49163	0.68497
398.43782	0.68336
