3996.70104	0.96973
3994.64724	0.96961
3992.59344	0.96958
3990.53964	0.97026
3988.48583	0.97091
3986.43203	0.97085
3984.37823	0.97035
3982.32442	0.96972
3980.27062	0.96922
3978.21682	0.96910
3976.16301	0.96908
3974.10921	0.96893
3972.05541	0.96924
3970.00160	0.97001
3967.94780	0.97027
3965.89400	0.96958
3963.84019	0.96863
3961.78639	0.96874
3959.73259	0.96982
3957.67878	0.97043
3955.62498	0.97047
3953.57118	0.97029
3951.51737	0.96976
3949.46357	0.96928
3947.40977	0.96918
3945.35596	0.96930
3943.30216	0.96944
3941.24836	0.96945
3939.19455	0.96954
3937.14075	0.96995
3935.08695	0.97039
3933.03315	0.97047
3930.97934	0.97046
3928.92554	0.97052
3926.87174	0.97019
3924.81793	0.96975
3922.76413	0.96993
3920.71033	0.97030
3918.65652	0.97039
3916.60272	0.97050
3914.54892	0.97053
3912.49511	0.97000
3910.44131	0.96925
3908.38751	0.96902
3906.33370	0.96932
3904.27990	0.96949
3902.22610	0.96923
3900.17229	0.96962
3898.11849	0.97044
3896.06469	0.97066
3894.01088	0.97068
3891.95708	0.97104
3889.90328	0.97125
3887.84947	0.97065
3885.79567	0.96975
3883.74187	0.96968
3881.68807	0.97046
3879.63426	0.97105
3877.58046	0.97088
3875.52666	0.97035
3873.47285	0.97014
3871.41905	0.97035
3869.36525	0.97031
3867.31144	0.97011
3865.25764	0.97011
3863.20384	0.97045
3861.15003	0.97089
3859.09623	0.97081
3857.04243	0.97041
3854.98862	0.97015
3852.93482	0.97080
3850.88102	0.97199
3848.82721	0.97212
3846.77341	0.97130
3844.71961	0.97012
3842.66580	0.96950
3840.61200	0.96991
3838.55820	0.97065
3836.50439	0.97042
3834.45059	0.96969
3832.39679	0.96986
3830.34298	0.97061
3828.28918	0.97092
3826.23538	0.97073
3824.18158	0.97069
3822.12777	0.97107
3820.07397	0.97131
3818.02017	0.97110
3815.96636	0.97084
3813.91256	0.97088
3811.85876	0.97125
3809.80495	0.97151
3807.75115	0.97171
3805.69735	0.97205
3803.64354	0.97207
3801.58974	0.97173
3799.53594	0.97111
3797.48213	0.97072
3795.42833	0.97126
3793.37453	0.97179
3791.32072	0.97141
3789.26692	0.97091
3787.21312	0.97093
3785.15931	0.97114
3783.10551	0.97121
3781.05171	0.97096
3778.99790	0.97059
3776.94410	0.97050
3774.89030	0.97054
3772.83650	0.97033
3770.78269	0.96983
3768.72889	0.96938
3766.67509	0.96930
3764.62128	0.96982
3762.56748	0.97067
3760.51368	0.97123
3758.45987	0.97174
3756.40607	0.97269
3754.35227	0.97332
3752.29846	0.97298
3750.24466	0.97255
3748.19086	0.97275
3746.13705	0.97277
3744.08325	0.97249
3742.02945	0.97199
3739.97564	0.97174
3737.92184	0.97234
3735.86804	0.97301
3733.81423	0.97238
3731.76043	0.97162
3729.70663	0.97107
3727.65282	0.97032
3725.59902	0.96978
3723.54522	0.96932
3721.49141	0.96883
3719.43761	0.96810
3717.38381	0.96642
3715.33001	0.96447
3713.27620	0.96234
3711.22240	0.95876
3709.16860	0.95468
3707.11479	0.95131
3705.06099	0.94814
3703.00719	0.94429
3700.95338	0.93975
3698.89958	0.93676
3696.84578	0.93570
3694.79197	0.93567
3692.73817	0.93660
3690.68437	0.93925
3688.63056	0.94376
3686.57676	0.94662
3684.52296	0.94730
3682.46915	0.94744
3680.41535	0.94742
3678.36155	0.94700
3676.30774	0.94582
3674.25394	0.94439
3672.20014	0.94387
3670.14633	0.94404
3668.09253	0.94419
3666.03873	0.94395
3663.98492	0.94319
3661.93112	0.94185
3659.87732	0.94046
3657.82352	0.93912
3655.76971	0.93756
3653.71591	0.93655
3651.66211	0.93601
3649.60830	0.93596
3647.55450	0.93594
3645.50070	0.93463
3643.44689	0.93335
3641.39309	0.93272
3639.33929	0.93219
3637.28548	0.93121
3635.23168	0.92982
3633.17788	0.92816
3631.12407	0.92625
3629.07027	0.92369
3627.01647	0.92153
3624.96266	0.92048
3622.90886	0.91956
3620.85506	0.91904
3618.80125	0.91966
3616.74745	0.92102
3614.69365	0.92201
3612.63984	0.92269
3610.58604	0.92344
3608.53224	0.92354
3606.47844	0.92286
3604.42463	0.92257
3602.37083	0.92266
3600.31703	0.92274
3598.26322	0.92265
3596.20942	0.92197
3594.15562	0.92115
3592.10181	0.92078
3590.04801	0.92056
3587.99421	0.91972
3585.94040	0.91804
3583.88660	0.91707
3581.83280	0.91721
3579.77899	0.91741
3577.72519	0.91694
3575.67139	0.91595
3573.61758	0.91463
3571.56378	0.91362
3569.50998	0.91338
3567.45617	0.91322
3565.40237	0.91209
3563.34857	0.91062
3561.29476	0.90922
3559.24096	0.90785
3557.18716	0.90696
3555.13335	0.90634
3553.07955	0.90503
3551.02575	0.90326
3548.97195	0.90233
3546.91814	0.90218
3544.86434	0.90180
3542.81054	0.90096
3540.75673	0.90038
3538.70293	0.90005
3536.64913	0.89970
3534.59532	0.89959
3532.54152	0.89961
3530.48772	0.89965
3528.43391	0.89999
3526.38011	0.90018
3524.32631	0.90018
3522.27250	0.90028
3520.21870	0.90038
3518.16490	0.90062
3516.11109	0.90088
3514.05729	0.90099
3512.00349	0.90133
3509.94968	0.90205
3507.89588	0.90277
3505.84208	0.90310
3503.78827	0.90270
3501.73447	0.90205
3499.68067	0.90197
3497.62687	0.90165
3495.57306	0.90084
3493.51926	0.90050
3491.46546	0.90089
3489.41165	0.90107
3487.35785	0.90054
3485.30405	0.90030
3483.25024	0.90043
3481.19644	0.90008
3479.14264	0.89936
3477.08883	0.89869
3475.03503	0.89840
3472.98123	0.89844
3470.92742	0.89836
3468.87362	0.89803
3466.81982	0.89779
3464.76601	0.89808
3462.71221	0.89846
3460.65841	0.89801
3458.60460	0.89697
3456.55080	0.89599
3454.49700	0.89512
3452.44319	0.89460
3450.38939	0.89421
3448.33559	0.89346
3446.28178	0.89249
3444.22798	0.89157
3442.17418	0.89103
3440.12038	0.89109
3438.06657	0.89105
3436.01277	0.89052
3433.95897	0.89009
3431.90516	0.88982
3429.85136	0.88911
3427.79756	0.88790
3425.74375	0.88666
3423.68995	0.88584
3421.63615	0.88508
3419.58234	0.88374
3417.52854	0.88234
3415.47474	0.88179
3413.42093	0.88171
3411.36713	0.88098
3409.31333	0.87984
3407.25952	0.87920
3405.20572	0.87889
3403.15192	0.87835
3401.09811	0.87788
3399.04431	0.87816
3396.99051	0.87883
3394.93670	0.87934
3392.88290	0.87983
3390.82910	0.88040
3388.77529	0.88083
3386.72149	0.88111
3384.66769	0.88151
3382.61389	0.88202
3380.56008	0.88245
3378.50628	0.88297
3376.45248	0.88358
3374.39867	0.88383
3372.34487	0.88395
3370.29107	0.88447
3368.23726	0.88470
3366.18346	0.88429
3364.12966	0.88440
3362.07585	0.88532
3360.02205	0.88601
3357.96825	0.88638
3355.91444	0.88698
3353.86064	0.88757
3351.80684	0.88791
3349.75303	0.88834
3347.69923	0.88870
3345.64543	0.88866
3343.59162	0.88882
3341.53782	0.88951
3339.48402	0.88996
3337.43021	0.88989
3335.37641	0.89006
3333.32261	0.89050
3331.26881	0.89086
3329.21500	0.89125
3327.16120	0.89142
3325.10740	0.89148
3323.05359	0.89180
3320.99979	0.89196
3318.94599	0.89205
3316.89218	0.89244
3314.83838	0.89295
3312.78458	0.89328
3310.73077	0.89357
3308.67697	0.89383
3306.62317	0.89382
3304.56936	0.89377
3302.51556	0.89425
3300.46176	0.89499
3298.40795	0.89498
3296.35415	0.89475
3294.30035	0.89549
3292.24654	0.89632
3290.19274	0.89664
3288.13894	0.89706
3286.08513	0.89757
3284.03133	0.89783
3281.97753	0.89795
3279.92372	0.89818
3277.86992	0.89845
3275.81612	0.89879
3273.76232	0.89915
3271.70851	0.89911
3269.65471	0.89881
3267.60091	0.89899
3265.54710	0.89986
3263.49330	0.90087
3261.43950	0.90154
3259.38569	0.90186
3257.33189	0.90206
3255.27809	0.90221
3253.22428	0.90231
3251.17048	0.90271
3249.11668	0.90329
3247.06287	0.90322
3245.00907	0.90261
3242.95527	0.90251
3240.90146	0.90310
3238.84766	0.90392
3236.79386	0.90470
3234.74005	0.90542
3232.68625	0.90652
3230.63245	0.90783
3228.57864	0.90855
3226.52484	0.90879
3224.47104	0.90902
3222.41724	0.90924
3220.36343	0.90942
3218.30963	0.90976
3216.25583	0.91037
3214.20202	0.91116
3212.14822	0.91197
3210.09442	0.91252
3208.04061	0.91287
3205.98681	0.91351
3203.93301	0.91451
3201.87920	0.91552
3199.82540	0.91593
3197.77160	0.91581
3195.71779	0.91596
3193.66399	0.91665
3191.61019	0.91755
3189.55638	0.91823
3187.50258	0.91863
3185.44878	0.91917
3183.39497	0.91982
3181.34117	0.92035
3179.28737	0.92107
3177.23356	0.92200
3175.17976	0.92250
3173.12596	0.92272
3171.07215	0.92296
3169.01835	0.92307
3166.96455	0.92336
3164.91075	0.92398
3162.85694	0.92486
3160.80314	0.92568
3158.74934	0.92602
3156.69553	0.92640
3154.64173	0.92727
3152.58793	0.92823
3150.53412	0.92883
3148.48032	0.92925
3146.42652	0.92999
3144.37271	0.93051
3142.31891	0.93026
3140.26511	0.93013
3138.21130	0.93078
3136.15750	0.93185
3134.10370	0.93262
3132.04989	0.93271
3129.99609	0.93276
3127.94229	0.93306
3125.88848	0.93344
3123.83468	0.93421
3121.78088	0.93498
3119.72707	0.93517
3117.67327	0.93534
3115.61947	0.93581
3113.56566	0.93629
3111.51186	0.93656
3109.45806	0.93662
3107.40426	0.93669
3105.35045	0.93704
3103.29665	0.93775
3101.24285	0.93846
3099.18904	0.93868
3097.13524	0.93845
3095.08144	0.93827
3093.02763	0.93854
3090.97383	0.93903
3088.92003	0.93944
3086.86622	0.93981
3084.81242	0.94021
3082.75862	0.94054
3080.70481	0.94059
3078.65101	0.94075
3076.59721	0.94118
3074.54340	0.94139
3072.48960	0.94195
3070.43580	0.94291
3068.38199	0.94347
3066.32819	0.94385
3064.27439	0.94402
3062.22058	0.94371
3060.16678	0.94361
3058.11298	0.94413
3056.05918	0.94486
3054.00537	0.94513
3051.95157	0.94491
3049.89777	0.94486
3047.84396	0.94519
3045.79016	0.94577
3043.73636	0.94638
3041.68255	0.94662
3039.62875	0.94659
3037.57495	0.94669
3035.52114	0.94693
3033.46734	0.94713
3031.41354	0.94755
3029.35973	0.94815
3027.30593	0.94855
3025.25213	0.94888
3023.19832	0.94917
3021.14452	0.94916
3019.09072	0.94904
3017.03691	0.94923
3014.98311	0.94956
3012.92931	0.94995
3010.87550	0.95012
3008.82170	0.94987
3006.76790	0.94977
3004.71409	0.94988
3002.66029	0.95004
3000.60649	0.95048
2998.55269	0.95083
2996.49888	0.95072
2994.44508	0.95040
2992.39128	0.95009
2990.33747	0.94965
2988.28367	0.94922
2986.22987	0.94919
2984.17606	0.94926
2982.12226	0.94883
2980.06846	0.94788
2978.01465	0.94688
2975.96085	0.94613
2973.90705	0.94528
2971.85324	0.94403
2969.79944	0.94271
2967.74564	0.94128
2965.69183	0.93923
2963.63803	0.93682
2961.58423	0.93461
2959.53042	0.93286
2957.47662	0.93178
2955.42282	0.93097
2953.36901	0.92974
2951.31521	0.92797
2949.26141	0.92551
2947.20761	0.92214
2945.15380	0.91800
2943.10000	0.91238
2941.04620	0.90450
2938.99239	0.89491
2936.93859	0.88356
2934.88479	0.86958
2932.83098	0.85294
2930.77718	0.83378
2928.72338	0.81138
2926.66957	0.78421
2924.61577	0.75121
2922.56197	0.71262
2920.50816	0.67002
2918.45436	0.62789
2916.40056	0.59517
2914.34675	0.58243
2912.29295	0.59360
2910.23915	0.62179
2908.18534	0.65538
2906.13154	0.68577
2904.07774	0.70993
2902.02393	0.72863
2899.97013	0.74355
2897.91633	0.75617
2895.86252	0.76737
2893.80872	0.77783
2891.75492	0.78851
2889.70112	0.79962
2887.64731	0.81090
2885.59351	0.82245
2883.53971	0.83428
2881.48590	0.84632
2879.43210	0.85820
2877.37830	0.86926
2875.32449	0.87873
2873.27069	0.88617
2871.21689	0.89182
2869.16308	0.89531
2867.10928	0.89571
2865.05548	0.89300
2863.00167	0.88710
2860.94787	0.87614
2858.89407	0.85751
2856.84026	0.82867
2854.78646	0.78658
2852.73266	0.73035
2850.67885	0.66878
2848.62505	0.62340
2846.57125	0.61437
2844.51744	0.64173
2842.46364	0.68811
2840.40984	0.73609
2838.35603	0.77707
2836.30223	0.80923
2834.24843	0.83379
2832.19463	0.85270
2830.14082	0.86752
2828.08702	0.87930
2826.03322	0.88883
2823.97941	0.89654
2821.92561	0.90288
2819.87181	0.90796
2817.81800	0.91207
2815.76420	0.91585
2813.71040	0.91925
2811.65659	0.92221
2809.60279	0.92517
2807.54899	0.92791
2805.49518	0.93008
2803.44138	0.93188
2801.38758	0.93362
2799.33377	0.93520
2797.27997	0.93647
2795.22617	0.93751
2793.17236	0.93860
2791.11856	0.93996
2789.06476	0.94131
2787.01095	0.94244
2784.95715	0.94366
2782.90335	0.94500
2780.84955	0.94606
2778.79574	0.94679
2776.74194	0.94734
2774.68814	0.94768
2772.63433	0.94827
2770.58053	0.94947
2768.52673	0.95056
2766.47292	0.95108
2764.41912	0.95146
2762.36532	0.95182
2760.31151	0.95196
2758.25771	0.95216
2756.20391	0.95268
2754.15010	0.95336
2752.09630	0.95393
2750.04250	0.95418
2747.98869	0.95423
2745.93489	0.95431
2743.88109	0.95436
2741.82728	0.95425
2739.77348	0.95427
2737.71968	0.95477
2735.66587	0.95532
2733.61207	0.95558
2731.55827	0.95581
2729.50446	0.95614
2727.45066	0.95640
2725.39686	0.95651
2723.34306	0.95662
2721.28925	0.95669
2719.23545	0.95673
2717.18165	0.95696
2715.12784	0.95728
2713.07404	0.95748
2711.02024	0.95781
2708.96643	0.95823
2706.91263	0.95826
2704.85883	0.95816
2702.80502	0.95838
2700.75122	0.95878
2698.69742	0.95927
2696.64361	0.95968
2694.58981	0.95983
2692.53601	0.95999
2690.48220	0.96027
2688.42840	0.96047
2686.37460	0.96053
2684.32079	0.96054
2682.26699	0.96058
2680.21319	0.96058
2678.15938	0.96032
2676.10558	0.95983
2674.05178	0.95951
2671.99797	0.95948
2669.94417	0.95963
2667.89037	0.95960
2665.83657	0.95917
2663.78276	0.95889
2661.72896	0.95906
2659.67516	0.95933
2657.62135	0.95955
2655.56755	0.95978
2653.51375	0.95997
2651.45994	0.96016
2649.40614	0.96031
2647.35234	0.96029
2645.29853	0.96034
2643.24473	0.96056
2641.19093	0.96058
2639.13712	0.96036
2637.08332	0.96035
2635.02952	0.96056
2632.97571	0.96079
2630.92191	0.96095
2628.86811	0.96115
2626.81430	0.96168
2624.76050	0.96230
2622.70670	0.96237
2620.65289	0.96206
2618.59909	0.96221
2616.54529	0.96289
2614.49149	0.96356
2612.43768	0.96426
2610.38388	0.96459
2608.33008	0.96423
2606.27627	0.96406
2604.22247	0.96419
2602.16867	0.96425
2600.11486	0.96445
2598.06106	0.96485
2596.00726	0.96542
2593.95345	0.96580
2591.89965	0.96590
2589.84585	0.96594
2587.79204	0.96594
2585.73824	0.96600
2583.68444	0.96628
2581.63063	0.96660
2579.57683	0.96654
2577.52303	0.96631
2575.46922	0.96618
2573.41542	0.96602
2571.36162	0.96612
2569.30781	0.96657
2567.25401	0.96685
2565.20021	0.96662
2563.14640	0.96632
2561.09260	0.96631
2559.03880	0.96642
2556.98500	0.96677
2554.93119	0.96742
2552.87739	0.96775
2550.82359	0.96775
2548.76978	0.96814
2546.71598	0.96884
2544.66218	0.96906
2542.60837	0.96882
2540.55457	0.96846
2538.50077	0.96811
2536.44696	0.96822
2534.39316	0.96872
2532.33936	0.96913
2530.28555	0.96927
2528.23175	0.96869
2526.17795	0.96782
2524.12414	0.96788
2522.07034	0.96830
2520.01654	0.96836
2517.96273	0.96852
2515.90893	0.96871
2513.85513	0.96881
2511.80132	0.96903
2509.74752	0.96932
2507.69372	0.96990
2505.63992	0.97037
2503.58611	0.97012
2501.53231	0.96992
2499.47851	0.96974
2497.42470	0.96910
2495.37090	0.96895
2493.31710	0.96960
2491.26329	0.97013
2489.20949	0.97007
2487.15569	0.96978
2485.10188	0.96977
2483.04808	0.96993
2480.99428	0.96974
2478.94047	0.96937
2476.88667	0.96932
2474.83287	0.96970
2472.77906	0.97011
2470.72526	0.97013
2468.67146	0.96984
2466.61765	0.96977
2464.56385	0.97022
2462.51005	0.97083
2460.45624	0.97123
2458.40244	0.97146
2456.34864	0.97166
2454.29483	0.97168
2452.24103	0.97111
2450.18723	0.97039
2448.13343	0.97046
2446.07962	0.97083
2444.02582	0.97079
2441.97202	0.97037
2439.91821	0.96992
2437.86441	0.97016
2435.81061	0.97094
2433.75680	0.97131
2431.70300	0.97073
2429.64920	0.96971
2427.59539	0.96943
2425.54159	0.96982
2423.48779	0.97002
2421.43398	0.96981
2419.38018	0.96955
2417.32638	0.96949
2415.27257	0.96967
2413.21877	0.97040
2411.16497	0.97122
2409.11116	0.97113
2407.05736	0.97051
2405.00356	0.97037
2402.94975	0.97067
2400.89595	0.97088
2398.84215	0.97072
2396.78834	0.97035
2394.73454	0.97039
2392.68074	0.97088
2390.62694	0.97152
2388.57313	0.97202
2386.51933	0.97196
2384.46553	0.97129
2382.41172	0.97028
2380.35792	0.96971
2378.30412	0.97002
2376.25031	0.97044
2374.19651	0.97058
2372.14271	0.97045
2370.08890	0.96979
2368.03510	0.96904
2365.98130	0.96890
2363.92749	0.96903
2361.87369	0.96899
2359.81989	0.96921
2357.76608	0.96970
2355.71228	0.96985
2353.65848	0.96951
2351.60467	0.96891
2349.55087	0.96862
2347.49707	0.96890
2345.44326	0.96910
2343.38946	0.96841
2341.33566	0.96749
2339.28186	0.96686
2337.22805	0.96659
2335.17425	0.96734
2333.12045	0.96806
2331.06664	0.96791
2329.01284	0.96830
2326.95904	0.96898
2324.90523	0.96872
2322.85143	0.96812
2320.79763	0.96786
2318.74382	0.96808
2316.69002	0.96891
2314.63622	0.96952
2312.58241	0.96984
2310.52861	0.97013
2308.47481	0.96952
2306.42100	0.96848
2304.36720	0.96826
2302.31340	0.96851
2300.25959	0.96872
2298.20579	0.96911
2296.15199	0.96955
2294.09818	0.96968
2292.04438	0.96985
2289.99058	0.97032
2287.93677	0.97018
2285.88297	0.96935
2283.82917	0.96948
2281.77537	0.97079
2279.72156	0.97153
2277.66776	0.97087
2275.61396	0.96972
2273.56015	0.96897
2271.50635	0.96936
2269.45255	0.97048
2267.39874	0.97086
2265.34494	0.97040
2263.29114	0.97034
2261.23733	0.97083
2259.18353	0.97132
2257.12973	0.97186
2255.07592	0.97192
2253.02212	0.97176
2250.96832	0.97192
2248.91451	0.97146
2246.86071	0.97050
2244.80691	0.97008
2242.75310	0.97031
2240.69930	0.97141
2238.64550	0.97261
2236.59169	0.97240
2234.53789	0.97149
2232.48409	0.97149
2230.43029	0.97147
2228.37648	0.97130
2226.32268	0.97275
2224.26888	0.97416
2222.21507	0.97348
2220.16127	0.97259
2218.10747	0.97324
2216.05366	0.97390
2213.99986	0.97304
2211.94606	0.97199
2209.89225	0.97192
2207.83845	0.97220
2205.78465	0.97187
2203.73084	0.97195
2201.67704	0.97399
2199.62324	0.97497
2197.56943	0.97198
2195.51563	0.96957
2193.46183	0.97087
2191.40802	0.97231
2189.35422	0.97235
2187.30042	0.97207
2185.24661	0.97082
2183.19281	0.96844
2181.13901	0.96732
2179.08520	0.96785
2177.03140	0.96933
2174.97760	0.97150
2172.92380	0.97244
2170.86999	0.97154
2168.81619	0.96946
2166.76239	0.96733
2164.70858	0.96675
2162.65478	0.96749
2160.60098	0.96872
2158.54717	0.97073
2156.49337	0.97269
2154.43957	0.97343
2152.38576	0.97438
2150.33196	0.97581
2148.27816	0.97592
2146.22435	0.97524
2144.17055	0.97474
2142.11675	0.97420
2140.06294	0.97494
2138.00914	0.97667
2135.95534	0.97657
2133.90153	0.97503
2131.84773	0.97441
2129.79393	0.97433
2127.74012	0.97376
2125.68632	0.97288
2123.63252	0.97286
2121.57871	0.97438
2119.52491	0.97575
2117.47111	0.97515
2115.41731	0.97333
2113.36350	0.97251
2111.30970	0.97291
2109.25590	0.97290
2107.20209	0.97265
2105.14829	0.97305
2103.09449	0.97356
2101.04068	0.97402
2098.98688	0.97463
2096.93308	0.97509
2094.87927	0.97478
2092.82547	0.97406
2090.77167	0.97380
2088.71786	0.97282
2086.66406	0.97113
2084.61026	0.97100
2082.55645	0.97280
2080.50265	0.97416
2078.44885	0.97406
2076.39504	0.97408
2074.34124	0.97408
2072.28744	0.97358
2070.23363	0.97406
2068.17983	0.97477
2066.12603	0.97484
2064.07223	0.97586
2062.01842	0.97688
2059.96462	0.97618
2057.91082	0.97472
2055.85701	0.97446
2053.80321	0.97584
2051.74941	0.97655
2049.69560	0.97528
2047.64180	0.97354
2045.58800	0.97292
2043.53419	0.97282
2041.48039	0.97231
2039.42659	0.97143
2037.37278	0.97100
2035.31898	0.97318
2033.26518	0.97611
2031.21137	0.97417
2029.15757	0.96969
2027.10377	0.96869
2025.04996	0.97102
2022.99616	0.97371
2020.94236	0.97482
2018.88855	0.97414
2016.83475	0.97364
2014.78095	0.97600
2012.72714	0.97948
2010.67334	0.97993
2008.61954	0.97753
2006.56574	0.97518
2004.51193	0.97545
2002.45813	0.97761
2000.40433	0.97733
1998.35052	0.97437
1996.29672	0.97231
1994.24292	0.97210
1992.18911	0.97393
1990.13531	0.97593
1988.08151	0.97665
1986.02770	0.97773
1983.97390	0.97795
1981.92010	0.97650
1979.86629	0.97459
1977.81249	0.97336
1975.75869	0.97474
1973.70488	0.97646
1971.65108	0.97520
1969.59728	0.97428
1967.54347	0.97580
1965.48967	0.97663
1963.43587	0.97588
1961.38206	0.97554
1959.32826	0.97604
1957.27446	0.97602
1955.22066	0.97573
1953.16685	0.97598
1951.11305	0.97601
1949.05925	0.97548
1947.00544	0.97490
1944.95164	0.97502
1942.89784	0.97587
1940.84403	0.97641
1938.79023	0.97662
1936.73643	0.97702
1934.68262	0.97697
1932.62882	0.97664
1930.57502	0.97635
1928.52121	0.97539
1926.46741	0.97424
1924.41361	0.97404
1922.35980	0.97470
1920.30600	0.97517
1918.25220	0.97474
1916.19839	0.97323
1914.14459	0.97177
1912.09079	0.97180
1910.03698	0.97332
1907.98318	0.97459
1905.92938	0.97481
1903.87557	0.97477
1901.82177	0.97463
1899.76797	0.97427
1897.71417	0.97411
1895.66036	0.97435
1893.60656	0.97418
1891.55276	0.97348
1889.49895	0.97348
1887.44515	0.97453
1885.39135	0.97504
1883.33754	0.97432
1881.28374	0.97389
1879.22994	0.97426
1877.17613	0.97410
1875.12233	0.97337
1873.06853	0.97310
1871.01472	0.97338
1868.96092	0.97364
1866.90712	0.97410
1864.85331	0.97465
1862.79951	0.97478
1860.74571	0.97475
1858.69190	0.97491
1856.63810	0.97509
1854.58430	0.97469
1852.53049	0.97386
1850.47669	0.97333
1848.42289	0.97328
1846.36908	0.97377
1844.31528	0.97441
1842.26148	0.97418
1840.20768	0.97414
1838.15387	0.97475
1836.10007	0.97483
1834.04627	0.97441
1831.99246	0.97420
1829.93866	0.97424
1827.88486	0.97417
1825.83105	0.97361
1823.77725	0.97287
1821.72345	0.97288
1819.66964	0.97373
1817.61584	0.97462
1815.56204	0.97463
1813.50823	0.97381
1811.45443	0.97311
1809.40063	0.97305
1807.34682	0.97308
1805.29302	0.97281
1803.23922	0.97258
1801.18541	0.97293
1799.13161	0.97351
1797.07781	0.97364
1795.02400	0.97366
1792.97020	0.97303
1790.91640	0.97153
1788.86260	0.97079
1786.80879	0.97069
1784.75499	0.97064
1782.70119	0.97068
1780.64738	0.97081
1778.59358	0.97086
1776.53978	0.97073
1774.48597	0.97039
1772.43217	0.96985
1770.37837	0.96946
1768.32456	0.96913
1766.27076	0.96873
1764.21696	0.96848
1762.16315	0.96851
1760.10935	0.96860
1758.05555	0.96808
1756.00174	0.96669
1753.94794	0.96511
1751.89414	0.96371
1749.84033	0.96241
1747.78653	0.96093
1745.73273	0.95892
1743.67892	0.95654
1741.62512	0.95449
1739.57132	0.95287
1737.51751	0.95151
1735.46371	0.95045
1733.40991	0.94960
1731.35611	0.94927
1729.30230	0.94920
1727.24850	0.94904
1725.19470	0.94853
1723.14089	0.94755
1721.08709	0.94654
1719.03329	0.94566
1716.97948	0.94463
1714.92568	0.94391
1712.87188	0.94366
1710.81807	0.94323
1708.76427	0.94266
1706.71047	0.94232
1704.65666	0.94224
1702.60286	0.94208
1700.54906	0.94094
1698.49525	0.93857
1696.44145	0.93574
1694.38765	0.93309
1692.33384	0.93146
1690.28004	0.92960
1688.22624	0.92724
1686.17243	0.92519
1684.11863	0.92221
1682.06483	0.91898
1680.01103	0.91730
1677.95722	0.91623
1675.90342	0.91483
1673.84962	0.91282
1671.79581	0.91075
1669.74201	0.90823
1667.68821	0.90585
1665.63440	0.90454
1663.58060	0.90314
1661.52680	0.90107
1659.47299	0.89940
1657.41919	0.89865
1655.36539	0.89833
1653.31158	0.89715
1651.25778	0.89542
1649.20398	0.89450
1647.15017	0.89370
1645.09637	0.89340
1643.04257	0.89336
1640.98876	0.89323
1638.93496	0.89313
1636.88116	0.89292
1634.82735	0.89291
1632.77355	0.89323
1630.71975	0.89343
1628.66594	0.89330
1626.61214	0.89267
1624.55834	0.89200
1622.50454	0.89201
1620.45073	0.89300
1618.39693	0.89488
1616.34313	0.89839
1614.28932	0.90212
1612.23552	0.90474
1610.18172	0.90702
1608.12791	0.90905
1606.07411	0.91093
1604.02031	0.91257
1601.96650	0.91351
1599.91270	0.91408
1597.85890	0.91485
1595.80509	0.91602
1593.75129	0.91743
1591.69749	0.91862
1589.64368	0.91956
1587.58988	0.92059
1585.53608	0.92176
1583.48227	0.92299
1581.42847	0.92418
1579.37467	0.92507
1577.32086	0.92561
1575.26706	0.92592
1573.21326	0.92634
1571.15945	0.92671
1569.10565	0.92674
1567.05185	0.92686
1564.99805	0.92714
1562.94424	0.92726
1560.89044	0.92736
1558.83664	0.92729
1556.78283	0.92690
1554.72903	0.92712
1552.67523	0.92778
1550.62142	0.92839
1548.56762	0.92848
1546.51382	0.92841
1544.46001	0.92886
1542.40621	0.92955
1540.35241	0.92998
1538.29860	0.93071
1536.24480	0.93142
1534.19100	0.93230
1532.13719	0.93374
1530.08339	0.93521
1528.02959	0.93649
1525.97578	0.93750
1523.92198	0.93819
1521.86818	0.93905
1519.81437	0.94016
1517.76057	0.94089
1515.70677	0.94140
1513.65297	0.94211
1511.59916	0.94302
1509.54536	0.94398
1507.49156	0.94484
1505.43775	0.94552
1503.38395	0.94624
1501.33015	0.94711
1499.27634	0.94782
1497.22254	0.94810
1495.16874	0.94793
1493.11493	0.94780
1491.06113	0.94792
1489.00733	0.94799
1486.95352	0.94746
1484.89972	0.94629
1482.84592	0.94414
1480.79211	0.93998
1478.73831	0.93079
1476.68451	0.90671
1474.63070	0.85953
1472.57690	0.81451
1470.52310	0.81233
1468.46929	0.82723
1466.41549	0.83105
1464.36169	0.81718
1462.30788	0.80888
1460.25408	0.82379
1458.20028	0.85523
1456.14648	0.88387
1454.09267	0.89561
1452.03887	0.90195
1449.98507	0.90667
1447.93126	0.90999
1445.87746	0.91259
1443.82366	0.91450
1441.76985	0.91584
1439.71605	0.91693
1437.66225	0.91799
1435.60844	0.91923
1433.55464	0.92076
1431.50084	0.92244
1429.44703	0.92392
1427.39323	0.92495
1425.33943	0.92582
1423.28562	0.92675
1421.23182	0.92741
1419.17802	0.92762
1417.12421	0.92768
1415.07041	0.92803
1413.01661	0.92836
1410.96280	0.92867
1408.90900	0.92926
1406.85520	0.92981
1404.80139	0.93028
1402.74759	0.93100
1400.69379	0.93169
1398.63999	0.93204
1396.58618	0.93243
1394.53238	0.93276
1392.47858	0.93263
1390.42477	0.93219
1388.37097	0.93176
1386.31717	0.93161
1384.26336	0.93159
1382.20956	0.93118
1380.15576	0.93037
1378.10195	0.92968
1376.04815	0.92945
1373.99435	0.92971
1371.94054	0.92975
1369.88674	0.92920
1367.83294	0.92864
1365.77913	0.92881
1363.72533	0.92994
1361.67153	0.93174
1359.61772	0.93314
1357.56392	0.93387
1355.51012	0.93423
1353.45631	0.93433
1351.40251	0.93459
1349.34871	0.93541
1347.29491	0.93659
1345.24110	0.93736
1343.18730	0.93772
1341.13350	0.93819
1339.07969	0.93868
1337.02589	0.93879
1334.97209	0.93869
1332.91828	0.93874
1330.86448	0.93885
1328.81068	0.93869
1326.75687	0.93829
1324.70307	0.93793
1322.64927	0.93768
1320.59546	0.93744
1318.54166	0.93718
1316.48786	0.93707
1314.43405	0.93693
1312.38025	0.93656
1310.32645	0.93629
1308.27264	0.93625
1306.21884	0.93608
1304.16504	0.93580
1302.11123	0.93571
1300.05743	0.93579
1298.00363	0.93572
1295.94982	0.93534
1293.89602	0.93495
1291.84222	0.93474
1289.78842	0.93448
1287.73461	0.93405
1285.68081	0.93362
1283.62701	0.93317
1281.57320	0.93264
1279.51940	0.93215
1277.46560	0.93157
1275.41179	0.93073
1273.35799	0.92986
1271.30419	0.92931
1269.25038	0.92860
1267.19658	0.92698
1265.14278	0.92503
1263.08897	0.92369
1261.03517	0.92316
1258.98137	0.92307
1256.92756	0.92294
1254.87376	0.92258
1252.81996	0.92212
1250.76615	0.92162
1248.71235	0.92089
1246.65855	0.91983
1244.60474	0.91863
1242.55094	0.91766
1240.49714	0.91698
1238.44334	0.91628
1236.38953	0.91549
1234.33573	0.91468
1232.28193	0.91368
1230.22812	0.91251
1228.17432	0.91156
1226.12052	0.91101
1224.06671	0.91057
1222.01291	0.91002
1219.95911	0.90931
1217.90530	0.90838
1215.85150	0.90728
1213.79770	0.90617
1211.74389	0.90502
1209.69009	0.90366
1207.63629	0.90223
1205.58248	0.90073
1203.52868	0.89907
1201.47488	0.89726
1199.42107	0.89522
1197.36727	0.89290
1195.31347	0.89018
1193.25966	0.88710
1191.20586	0.88388
1189.15206	0.88045
1187.09825	0.87651
1185.04445	0.87217
1182.99065	0.86776
1180.93685	0.86298
1178.88304	0.85738
1176.82924	0.85142
1174.77544	0.84561
1172.72163	0.84000
1170.66783	0.83473
1168.61403	0.82970
1166.56022	0.82497
1164.50642	0.82072
1162.45262	0.81684
1160.39881	0.81336
1158.34501	0.81008
1156.29121	0.80694
1154.23740	0.80396
1152.18360	0.80064
1150.12980	0.79697
1148.07599	0.79352
1146.02219	0.79047
1143.96839	0.78756
1141.91458	0.78462
1139.86078	0.78184
1137.80698	0.77944
1135.75317	0.77717
1133.69937	0.77402
1131.64557	0.76950
1129.59176	0.76438
1127.53796	0.75918
1125.48416	0.75315
1123.43036	0.74573
1121.37655	0.73759
1119.32275	0.72941
1117.26895	0.72181
1115.21514	0.71505
1113.16134	0.70884
1111.10754	0.70302
1109.05373	0.69743
1106.99993	0.69233
1104.94613	0.68818
1102.89232	0.68495
1100.83852	0.68249
1098.78472	0.68081
1096.73091	0.67978
1094.67711	0.67874
1092.62331	0.67722
1090.56950	0.67594
1088.51570	0.67531
1086.46190	0.67476
1084.40809	0.67403
1082.35429	0.67302
1080.30049	0.67125
1078.24668	0.66885
1076.19288	0.66647
1074.13908	0.66406
1072.08528	0.66097
1070.03147	0.65706
1067.97767	0.65289
1065.92387	0.64852
1063.87006	0.64335
1061.81626	0.63726
1059.76246	0.63042
1057.70865	0.62281
1055.65485	0.61467
1053.60105	0.60592
1051.54724	0.59622
1049.49344	0.58589
1047.43964	0.57543
1045.38583	0.56531
1043.33203	0.55566
1041.27823	0.54638
1039.22442	0.53775
1037.17062	0.53012
1035.11682	0.52369
1033.06301	0.51889
1031.00921	0.51611
1028.95541	0.51512
1026.90160	0.51548
1024.84780	0.51697
1022.79400	0.51875
1020.74019	0.51961
1018.68639	0.51986
1016.63259	0.52039
1014.57879	0.52088
1012.52498	0.52079
1010.47118	0.52101
1008.41738	0.52292
1006.36357	0.52651
1004.30977	0.53168
1002.25597	0.53906
1000.20216	0.54872
998.14836	0.56032
996.09456	0.57370
994.04075	0.58775
991.98695	0.60142
989.93315	0.61498
987.87934	0.62872
985.82554	0.64253
983.77174	0.65648
981.71793	0.67035
979.66413	0.68350
977.61033	0.69582
975.55652	0.70756
973.50272	0.71878
971.44892	0.72966
969.39511	0.73993
967.34131	0.74899
965.28751	0.75706
963.23371	0.76475
961.17990	0.77179
959.12610	0.77768
957.07230	0.78264
955.01849	0.78714
952.96469	0.79126
950.91089	0.79510
948.85708	0.79851
946.80328	0.80096
944.74948	0.80276
942.69567	0.80441
940.64187	0.80575
938.58807	0.80718
936.53426	0.80899
934.48046	0.81073
932.42666	0.81232
930.37285	0.81376
928.31905	0.81443
926.26525	0.81413
924.21144	0.81338
922.15764	0.81194
920.10384	0.80929
918.05003	0.80574
915.99623	0.80225
913.94243	0.79988
911.88862	0.79987
909.83482	0.80366
907.78102	0.81119
905.72722	0.82033
903.67341	0.82894
901.61961	0.83665
899.56581	0.84380
897.51200	0.84987
895.45820	0.85472
893.40440	0.85879
891.35059	0.86210
889.29679	0.86477
887.24299	0.86691
885.18918	0.86847
883.13538	0.86956
881.08158	0.87055
879.02777	0.87175
876.97397	0.87337
874.92017	0.87570
872.86636	0.87793
870.81256	0.87958
868.75876	0.88190
866.70495	0.88499
864.65115	0.88748
862.59735	0.88870
860.54354	0.88967
858.48974	0.89137
856.43594	0.89329
854.38213	0.89502
852.32833	0.89649
850.27453	0.89725
848.22073	0.89740
846.16692	0.89775
844.11312	0.89829
842.05932	0.89820
840.00551	0.89737
837.95171	0.89633
835.89791	0.89503
833.84410	0.89353
831.79030	0.89232
829.73650	0.89148
827.68269	0.89029
825.62889	0.88839
823.57509	0.88645
821.52128	0.88499
819.46748	0.88391
817.41368	0.88315
815.35987	0.88274
813.30607	0.88193
811.25227	0.87975
809.19846	0.87641
807.14466	0.87258
805.09086	0.86868
803.03705	0.86511
800.98325	0.86235
798.92945	0.86083
796.87565	0.86001
794.82184	0.85941
792.76804	0.85943
790.71424	0.85976
788.66043	0.85998
786.60663	0.86041
784.55283	0.86043
782.49902	0.85953
780.44522	0.85867
778.39142	0.85858
776.33761	0.85955
774.28381	0.86107
772.23001	0.86179
770.17620	0.86152
768.12240	0.86058
766.06860	0.85872
764.01479	0.85630
761.96099	0.85439
759.90719	0.85302
757.85338	0.85162
755.79958	0.85020
753.74578	0.84898
751.69197	0.84813
749.63817	0.84770
747.58437	0.84781
745.53056	0.84832
743.47676	0.84878
741.42296	0.84919
739.36916	0.84892
737.31535	0.84532
735.26155	0.83297
733.20775	0.80467
731.15394	0.77086
729.10014	0.76050
727.04634	0.77339
724.99253	0.77939
722.93873	0.75953
720.88493	0.71579
718.83112	0.67916
716.77732	0.68326
714.72352	0.71996
712.66971	0.75899
710.61591	0.78354
708.56211	0.79439
706.50830	0.79732
704.45450	0.79667
702.40070	0.79518
700.34689	0.79395
698.29309	0.79259
696.23929	0.79087
694.18548	0.78980
692.13168	0.78995
690.07788	0.79088
688.02408	0.79235
685.97027	0.79390
683.91647	0.79473
681.86267	0.79502
679.80886	0.79503
677.75506	0.79419
675.70126	0.79220
673.64745	0.78966
671.59365	0.78759
669.53985	0.78743
667.48604	0.79170
665.43224	0.79722
663.37844	0.80127
661.32463	0.80462
659.27083	0.80689
657.21703	0.80770
655.16322	0.80746
653.10942	0.80707
651.05562	0.80692
649.00181	0.80634
646.94801	0.80555
644.89421	0.80519
642.84040	0.80496
640.78660	0.80484
638.73280	0.80454
636.67899	0.80323
634.62519	0.80159
632.57139	0.80135
630.51759	0.80192
628.46378	0.80155
626.40998	0.80040
624.35618	0.79968
622.30237	0.79871
620.24857	0.79560
618.19477	0.79153
616.14096	0.78856
614.08716	0.78536
612.03336	0.78123
609.97955	0.77753
607.92575	0.77424
605.87195	0.77086
603.81814	0.76806
601.76434	0.76602
599.71054	0.76428
597.65673	0.76340
595.60293	0.76359
593.54913	0.76342
591.49532	0.76192
589.44152	0.75979
587.38772	0.75807
585.33391	0.75626
583.28011	0.75386
581.22631	0.75184
579.17250	0.75011
577.11870	0.74804
575.06490	0.74571
573.01110	0.74295
570.95729	0.73954
568.90349	0.73591
566.84969	0.73299
564.79588	0.73076
562.74208	0.72845
560.68828	0.72519
558.63447	0.72043
556.58067	0.71499
554.52687	0.71058
552.47306	0.70772
550.41926	0.70420
548.36546	0.69768
546.31165	0.68942
544.25785	0.68202
542.20405	0.67490
540.15024	0.66663
538.09644	0.65928
536.04264	0.65437
533.98883	0.65099
531.93503	0.65005
529.88123	0.65131
527.82742	0.65327
525.77362	0.65722
523.71982	0.66370
521.66602	0.66992
519.61221	0.67439
517.55841	0.67849
515.50461	0.68298
513.45080	0.68793
511.39700	0.69336
509.34320	0.69703
507.28939	0.69811
505.23559	0.69877
503.18179	0.70058
501.12798	0.70271
499.07418	0.70311
497.02038	0.70265
494.96657	0.70237
492.91277	0.70165
490.85897	0.70029
488.80516	0.69649
486.75136	0.68963
484.69756	0.68011
482.64375	0.66843
480.58995	0.65653
478.53615	0.64289
476.48234	0.62727
474.42854	0.61212
472.37474	0.59641
470.32093	0.58294
468.26713	0.57466
466.21333	0.57055
464.15953	0.57325
462.10572	0.58259
460.05192	0.59254
457.99812	0.59963
455.94431	0.60583
453.89051	0.61405
451.83671	0.62376
449.78290	0.63183
447.72910	0.63699
445.67530	0.63868
443.62149	0.63795
441.56769	0.64025
439.51389	0.64496
437.46008	0.64567
435.40628	0.64219
433.35248	0.63795
431.29867	0.63462
429.24487	0.63460
427.19107	0.63826
425.13726	0.64345
423.08346	0.64973
421.02966	0.65626
418.97585	0.66240
416.92205	0.66895
414.86825	0.67840
412.81445	0.69382
410.76064	0.71047
408.70684	0.72058
406.65304	0.72660
404.59923	0.73008
402.54543	0.72868
400.49163	0.72612
398.43782	0.72543
