3996.70104	0.99127
3994.64724	0.99135
3992.59344	0.99139
3990.53964	0.99191
3988.48583	0.99242
3986.43203	0.99263
3984.37823	0.99264
3982.32442	0.99241
3980.27062	0.99202
3978.21682	0.99173
3976.16301	0.99156
3974.10921	0.99154
3972.05541	0.99149
3970.00160	0.99130
3967.94780	0.99153
3965.89400	0.99198
3963.84019	0.99181
3961.78639	0.99151
3959.73259	0.99195
3957.67878	0.99260
3955.62498	0.99261
3953.57118	0.99203
3951.51737	0.99171
3949.46357	0.99189
3947.40977	0.99195
3945.35596	0.99169
3943.30216	0.99124
3941.24836	0.99117
3939.19455	0.99183
3937.14075	0.99228
3935.08695	0.99167
3933.03315	0.99064
3930.97934	0.99044
3928.92554	0.99106
3926.87174	0.99188
3924.81793	0.99245
3922.76413	0.99238
3920.71033	0.99206
3918.65652	0.99198
3916.60272	0.99166
3914.54892	0.99085
3912.49511	0.99046
3910.44131	0.99091
3908.38751	0.99176
3906.33370	0.99200
3904.27990	0.99119
3902.22610	0.99055
3900.17229	0.99080
3898.11849	0.99126
3896.06469	0.99161
3894.01088	0.99182
3891.95708	0.99176
3889.90328	0.99149
3887.84947	0.99123
3885.79567	0.99118
3883.74187	0.99182
3881.68807	0.99281
3879.63426	0.99300
3877.58046	0.99239
3875.52666	0.99181
3873.47285	0.99122
3871.41905	0.99068
3869.36525	0.99053
3867.31144	0.99053
3865.25764	0.99051
3863.20384	0.99093
3861.15003	0.99182
3859.09623	0.99216
3857.04243	0.99154
3854.98862	0.99014
3852.93482	0.98877
3850.88102	0.98908
3848.82721	0.98988
3846.77341	0.99030
3844.71961	0.99073
3842.66580	0.99132
3840.61200	0.99176
3838.55820	0.99207
3836.50439	0.99199
3834.45059	0.99142
3832.39679	0.99114
3830.34298	0.99144
3828.28918	0.99149
3826.23538	0.99109
3824.18158	0.99106
3822.12777	0.99111
3820.07397	0.99095
3818.02017	0.99136
3815.96636	0.99189
3813.91256	0.99192
3811.85876	0.99156
3809.80495	0.99140
3807.75115	0.99183
3805.69735	0.99177
3803.64354	0.99068
3801.58974	0.98973
3799.53594	0.98979
3797.48213	0.99044
3795.42833	0.99099
3793.37453	0.99111
3791.32072	0.99096
3789.26692	0.99076
3787.21312	0.99078
3785.15931	0.99118
3783.10551	0.99128
3781.05171	0.99084
3778.99790	0.99132
3776.94410	0.99280
3774.89030	0.99331
3772.83650	0.99265
3770.78269	0.99174
3768.72889	0.99131
3766.67509	0.99123
3764.62128	0.99096
3762.56748	0.99079
3760.51368	0.99114
3758.45987	0.99167
3756.40607	0.99166
3754.35227	0.99116
3752.29846	0.99051
3750.24466	0.99018
3748.19086	0.99024
3746.13705	0.98991
3744.08325	0.98950
3742.02945	0.98996
3739.97564	0.99070
3737.92184	0.99110
3735.86804	0.99168
3733.81423	0.99245
3731.76043	0.99207
3729.70663	0.99154
3727.65282	0.99172
3725.59902	0.99195
3723.54522	0.99149
3721.49141	0.99093
3719.43761	0.99094
3717.38381	0.99088
3715.33001	0.99065
3713.27620	0.99083
3711.22240	0.99157
3709.16860	0.99218
3707.11479	0.99227
3705.06099	0.99213
3703.00719	0.99187
3700.95338	0.99184
3698.89958	0.99233
3696.84578	0.99247
3694.79197	0.99201
3692.73817	0.99196
3690.68437	0.99247
3688.63056	0.99227
3686.57676	0.99163
3684.52296	0.99135
3682.46915	0.99108
3680.41535	0.99060
3678.36155	0.99065
3676.30774	0.99179
3674.25394	0.99246
3672.20014	0.99224
3670.14633	0.99253
3668.09253	0.99259
3666.03873	0.99154
3663.98492	0.99032
3661.93112	0.99025
3659.87732	0.99135
3657.82352	0.99219
3655.76971	0.99210
3653.71591	0.99166
3651.66211	0.99119
3649.60830	0.99102
3647.55450	0.99100
3645.50070	0.99079
3643.44689	0.99092
3641.39309	0.99079
3639.33929	0.98988
3637.28548	0.98918
3635.23168	0.98923
3633.17788	0.98980
3631.12407	0.99029
3629.07027	0.99035
3627.01647	0.99056
3624.96266	0.99084
3622.90886	0.99097
3620.85506	0.99133
3618.80125	0.99156
3616.74745	0.99093
3614.69365	0.99044
3612.63984	0.99095
3610.58604	0.99160
3608.53224	0.99124
3606.47844	0.99037
3604.42463	0.99021
3602.37083	0.99056
3600.31703	0.99090
3598.26322	0.99108
3596.20942	0.99090
3594.15562	0.99078
3592.10181	0.99087
3590.04801	0.99049
3587.99421	0.99005
3585.94040	0.98967
3583.88660	0.98919
3581.83280	0.98913
3579.77899	0.98926
3577.72519	0.98935
3575.67139	0.98980
3573.61758	0.99032
3571.56378	0.99039
3569.50998	0.99071
3567.45617	0.99143
3565.40237	0.99112
3563.34857	0.99028
3561.29476	0.98981
3559.24096	0.98966
3557.18716	0.98974
3555.13335	0.98967
3553.07955	0.98947
3551.02575	0.98939
3548.97195	0.98959
3546.91814	0.98998
3544.86434	0.98972
3542.81054	0.98885
3540.75673	0.98841
3538.70293	0.98885
3536.64913	0.98959
3534.59532	0.98945
3532.54152	0.98896
3530.48772	0.98912
3528.43391	0.98943
3526.38011	0.98941
3524.32631	0.98933
3522.27250	0.98914
3520.21870	0.98888
3518.16490	0.98892
3516.11109	0.98901
3514.05729	0.98872
3512.00349	0.98816
3509.94968	0.98790
3507.89588	0.98826
3505.84208	0.98887
3503.78827	0.98916
3501.73447	0.98891
3499.68067	0.98841
3497.62687	0.98812
3495.57306	0.98823
3493.51926	0.98850
3491.46546	0.98849
3489.41165	0.98837
3487.35785	0.98851
3485.30405	0.98888
3483.25024	0.98917
3481.19644	0.98896
3479.14264	0.98861
3477.08883	0.98852
3475.03503	0.98843
3472.98123	0.98837
3470.92742	0.98823
3468.87362	0.98804
3466.81982	0.98811
3464.76601	0.98827
3462.71221	0.98840
3460.65841	0.98833
3458.60460	0.98794
3456.55080	0.98767
3454.49700	0.98771
3452.44319	0.98789
3450.38939	0.98816
3448.33559	0.98846
3446.28178	0.98829
3444.22798	0.98779
3442.17418	0.98787
3440.12038	0.98824
3438.06657	0.98808
3436.01277	0.98792
3433.95897	0.98842
3431.90516	0.98877
3429.85136	0.98820
3427.79756	0.98748
3425.74375	0.98746
3423.68995	0.98753
3421.63615	0.98737
3419.58234	0.98764
3417.52854	0.98805
3415.47474	0.98824
3413.42093	0.98817
3411.36713	0.98790
3409.31333	0.98785
3407.25952	0.98813
3405.20572	0.98825
3403.15192	0.98788
3401.09811	0.98754
3399.04431	0.98761
3396.99051	0.98781
3394.93670	0.98792
3392.88290	0.98780
3390.82910	0.98739
3388.77529	0.98727
3386.72149	0.98791
3384.66769	0.98862
3382.61389	0.98873
3380.56008	0.98841
3378.50628	0.98797
3376.45248	0.98776
3374.39867	0.98809
3372.34487	0.98843
3370.29107	0.98828
3368.23726	0.98813
3366.18346	0.98811
3364.12966	0.98772
3362.07585	0.98720
3360.02205	0.98721
3357.96825	0.98762
3355.91444	0.98789
3353.86064	0.98792
3351.80684	0.98798
3349.75303	0.98804
3347.69923	0.98786
3345.64543	0.98772
3343.59162	0.98777
3341.53782	0.98769
3339.48402	0.98753
3337.43021	0.98762
3335.37641	0.98766
3333.32261	0.98752
3331.26881	0.98733
3329.21500	0.98694
3327.16120	0.98648
3325.10740	0.98642
3323.05359	0.98690
3320.99979	0.98720
3318.94599	0.98703
3316.89218	0.98694
3314.83838	0.98709
3312.78458	0.98757
3310.73077	0.98822
3308.67697	0.98837
3306.62317	0.98780
3304.56936	0.98720
3302.51556	0.98722
3300.46176	0.98768
3298.40795	0.98790
3296.35415	0.98769
3294.30035	0.98764
3292.24654	0.98761
3290.19274	0.98706
3288.13894	0.98666
3286.08513	0.98712
3284.03133	0.98789
3281.97753	0.98832
3279.92372	0.98847
3277.86992	0.98835
3275.81612	0.98785
3273.76232	0.98746
3271.70851	0.98763
3269.65471	0.98815
3267.60091	0.98837
3265.54710	0.98802
3263.49330	0.98742
3261.43950	0.98697
3259.38569	0.98711
3257.33189	0.98734
3255.27809	0.98720
3253.22428	0.98733
3251.17048	0.98757
3249.11668	0.98757
3247.06287	0.98792
3245.00907	0.98843
3242.95527	0.98839
3240.90146	0.98800
3238.84766	0.98746
3236.79386	0.98686
3234.74005	0.98661
3232.68625	0.98687
3230.63245	0.98739
3228.57864	0.98764
3226.52484	0.98762
3224.47104	0.98787
3222.41724	0.98816
3220.36343	0.98808
3218.30963	0.98799
3216.25583	0.98791
3214.20202	0.98769
3212.14822	0.98750
3210.09442	0.98745
3208.04061	0.98749
3205.98681	0.98739
3203.93301	0.98725
3201.87920	0.98729
3199.82540	0.98749
3197.77160	0.98798
3195.71779	0.98839
3193.66399	0.98813
3191.61019	0.98776
3189.55638	0.98793
3187.50258	0.98821
3185.44878	0.98814
3183.39497	0.98772
3181.34117	0.98730
3179.28737	0.98749
3177.23356	0.98806
3175.17976	0.98809
3173.12596	0.98773
3171.07215	0.98761
3169.01835	0.98763
3166.96455	0.98788
3164.91075	0.98833
3162.85694	0.98857
3160.80314	0.98851
3158.74934	0.98823
3156.69553	0.98794
3154.64173	0.98782
3152.58793	0.98818
3150.53412	0.98868
3148.48032	0.98865
3146.42652	0.98847
3144.37271	0.98862
3142.31891	0.98891
3140.26511	0.98900
3138.21130	0.98893
3136.15750	0.98887
3134.10370	0.98877
3132.04989	0.98846
3129.99609	0.98836
3127.94229	0.98879
3125.88848	0.98892
3123.83468	0.98853
3121.78088	0.98827
3119.72707	0.98833
3117.67327	0.98862
3115.61947	0.98908
3113.56566	0.98932
3111.51186	0.98913
3109.45806	0.98879
3107.40426	0.98851
3105.35045	0.98860
3103.29665	0.98889
3101.24285	0.98888
3099.18904	0.98862
3097.13524	0.98845
3095.08144	0.98848
3093.02763	0.98823
3090.97383	0.98773
3088.92003	0.98794
3086.86622	0.98862
3084.81242	0.98857
3082.75862	0.98824
3080.70481	0.98820
3078.65101	0.98827
3076.59721	0.98861
3074.54340	0.98888
3072.48960	0.98880
3070.43580	0.98887
3068.38199	0.98908
3066.32819	0.98911
3064.27439	0.98914
3062.22058	0.98936
3060.16678	0.98948
3058.11298	0.98910
3056.05918	0.98861
3054.00537	0.98860
3051.95157	0.98885
3049.89777	0.98904
3047.84396	0.98935
3045.79016	0.98970
3043.73636	0.98967
3041.68255	0.98955
3039.62875	0.98940
3037.57495	0.98920
3035.52114	0.98936
3033.46734	0.98943
3031.41354	0.98903
3029.35973	0.98871
3027.30593	0.98845
3025.25213	0.98830
3023.19832	0.98865
3021.14452	0.98914
3019.09072	0.98924
3017.03691	0.98903
3014.98311	0.98884
3012.92931	0.98885
3010.87550	0.98907
3008.82170	0.98936
3006.76790	0.98921
3004.71409	0.98869
3002.66029	0.98858
3000.60649	0.98889
2998.55269	0.98920
2996.49888	0.98911
2994.44508	0.98885
2992.39128	0.98892
2990.33747	0.98909
2988.28367	0.98917
2986.22987	0.98931
2984.17606	0.98942
2982.12226	0.98939
2980.06846	0.98934
2978.01465	0.98923
2975.96085	0.98887
2973.90705	0.98870
2971.85324	0.98912
2969.79944	0.98978
2967.74564	0.99011
2965.69183	0.98968
2963.63803	0.98899
2961.58423	0.98913
2959.53042	0.98956
2957.47662	0.98944
2955.42282	0.98930
2953.36901	0.98964
2951.31521	0.99005
2949.26141	0.99005
2947.20761	0.98977
2945.15380	0.98951
2943.10000	0.98950
2941.04620	0.98972
2938.99239	0.99005
2936.93859	0.99040
2934.88479	0.99049
2932.83098	0.99025
2930.77718	0.99011
2928.72338	0.99081
2926.66957	0.99186
2924.61577	0.99223
2922.56197	0.99188
2920.50816	0.99135
2918.45436	0.99092
2916.40056	0.99042
2914.34675	0.99003
2912.29295	0.98999
2910.23915	0.98984
2908.18534	0.98972
2906.13154	0.98988
2904.07774	0.98994
2902.02393	0.98979
2899.97013	0.98963
2897.91633	0.98977
2895.86252	0.99024
2893.80872	0.99066
2891.75492	0.99091
2889.70112	0.99102
2887.64731	0.99077
2885.59351	0.99033
2883.53971	0.99031
2881.48590	0.99083
2879.43210	0.99110
2877.37830	0.99049
2875.32449	0.98970
2873.27069	0.98978
2871.21689	0.99033
2869.16308	0.99049
2867.10928	0.99050
2865.05548	0.99062
2863.00167	0.99085
2860.94787	0.99116
2858.89407	0.99132
2856.84026	0.99138
2854.78646	0.99125
2852.73266	0.99090
2850.67885	0.99073
2848.62505	0.99087
2846.57125	0.99112
2844.51744	0.99103
2842.46364	0.99063
2840.40984	0.99062
2838.35603	0.99071
2836.30223	0.99037
2834.24843	0.99002
2832.19463	0.99000
2830.14082	0.99029
2828.08702	0.99052
2826.03322	0.99043
2823.97941	0.99038
2821.92561	0.99051
2819.87181	0.99070
2817.81800	0.99080
2815.76420	0.99056
2813.71040	0.99028
2811.65659	0.99022
2809.60279	0.99032
2807.54899	0.99038
2805.49518	0.99039
2803.44138	0.99055
2801.38758	0.99070
2799.33377	0.99071
2797.27997	0.99080
2795.22617	0.99105
2793.17236	0.99139
2791.11856	0.99144
2789.06476	0.99103
2787.01095	0.99065
2784.95715	0.99064
2782.90335	0.99072
2780.84955	0.99079
2778.79574	0.99084
2776.74194	0.99080
2774.68814	0.99066
2772.63433	0.99054
2770.58053	0.99059
2768.52673	0.99073
2766.47292	0.99074
2764.41912	0.99080
2762.36532	0.99097
2760.31151	0.99080
2758.25771	0.99060
2756.20391	0.99077
2754.15010	0.99108
2752.09630	0.99126
2750.04250	0.99130
2747.98869	0.99127
2745.93489	0.99124
2743.88109	0.99126
2741.82728	0.99132
2739.77348	0.99133
2737.71968	0.99141
2735.66587	0.99158
2733.61207	0.99171
2731.55827	0.99178
2729.50446	0.99174
2727.45066	0.99166
2725.39686	0.99174
2723.34306	0.99187
2721.28925	0.99181
2719.23545	0.99157
2717.18165	0.99126
2715.12784	0.99119
2713.07404	0.99158
2711.02024	0.99187
2708.96643	0.99157
2706.91263	0.99104
2704.85883	0.99098
2702.80502	0.99128
2700.75122	0.99136
2698.69742	0.99130
2696.64361	0.99141
2694.58981	0.99155
2692.53601	0.99146
2690.48220	0.99142
2688.42840	0.99161
2686.37460	0.99167
2684.32079	0.99159
2682.26699	0.99153
2680.21319	0.99163
2678.15938	0.99193
2676.10558	0.99202
2674.05178	0.99171
2671.99797	0.99168
2669.94417	0.99202
2667.89037	0.99204
2665.83657	0.99160
2663.78276	0.99111
2661.72896	0.99079
2659.67516	0.99060
2657.62135	0.99053
2655.56755	0.99059
2653.51375	0.99056
2651.45994	0.99027
2649.40614	0.99013
2647.35234	0.99036
2645.29853	0.99051
2643.24473	0.99022
2641.19093	0.98984
2639.13712	0.98997
2637.08332	0.99029
2635.02952	0.99032
2632.97571	0.99036
2630.92191	0.99050
2628.86811	0.99027
2626.81430	0.98981
2624.76050	0.98965
2622.70670	0.98979
2620.65289	0.98992
2618.59909	0.98985
2616.54529	0.98996
2614.49149	0.99027
2612.43768	0.99012
2610.38388	0.98970
2608.33008	0.98929
2606.27627	0.98916
2604.22247	0.98986
2602.16867	0.99060
2600.11486	0.99056
2598.06106	0.99062
2596.00726	0.99116
2593.95345	0.99126
2591.89965	0.99066
2589.84585	0.99011
2587.79204	0.98993
2585.73824	0.98980
2583.68444	0.98968
2581.63063	0.98958
2579.57683	0.98963
2577.52303	0.99011
2575.46922	0.99048
2573.41542	0.99012
2571.36162	0.98980
2569.30781	0.98989
2567.25401	0.98949
2565.20021	0.98879
2563.14640	0.98857
2561.09260	0.98876
2559.03880	0.98909
2556.98500	0.98939
2554.93119	0.98944
2552.87739	0.98913
2550.82359	0.98868
2548.76978	0.98827
2546.71598	0.98807
2544.66218	0.98806
2542.60837	0.98823
2540.55457	0.98856
2538.50077	0.98860
2536.44696	0.98826
2534.39316	0.98782
2532.33936	0.98783
2530.28555	0.98850
2528.23175	0.98873
2526.17795	0.98817
2524.12414	0.98777
2522.07034	0.98789
2520.01654	0.98802
2517.96273	0.98783
2515.90893	0.98776
2513.85513	0.98800
2511.80132	0.98817
2509.74752	0.98833
2507.69372	0.98871
2505.63992	0.98920
2503.58611	0.98911
2501.53231	0.98826
2499.47851	0.98789
2497.42470	0.98823
2495.37090	0.98806
2493.31710	0.98767
2491.26329	0.98799
2489.20949	0.98877
2487.15569	0.98954
2485.10188	0.99025
2483.04808	0.99067
2480.99428	0.99021
2478.94047	0.98925
2476.88667	0.98921
2474.83287	0.98990
2472.77906	0.99014
2470.72526	0.99028
2468.67146	0.99052
2466.61765	0.99056
2464.56385	0.99067
2462.51005	0.99070
2460.45624	0.99084
2458.40244	0.99125
2456.34864	0.99105
2454.29483	0.99030
2452.24103	0.99010
2450.18723	0.99071
2448.13343	0.99133
2446.07962	0.99135
2444.02582	0.99109
2441.97202	0.99127
2439.91821	0.99179
2437.86441	0.99205
2435.81061	0.99223
2433.75680	0.99206
2431.70300	0.99144
2429.64920	0.99163
2427.59539	0.99252
2425.54159	0.99291
2423.48779	0.99283
2421.43398	0.99293
2419.38018	0.99309
2417.32638	0.99285
2415.27257	0.99238
2413.21877	0.99219
2411.16497	0.99234
2409.11116	0.99258
2407.05736	0.99290
2405.00356	0.99323
2402.94975	0.99318
2400.89595	0.99275
2398.84215	0.99238
2396.78834	0.99250
2394.73454	0.99270
2392.68074	0.99244
2390.62694	0.99196
2388.57313	0.99171
2386.51933	0.99181
2384.46553	0.99193
2382.41172	0.99175
2380.35792	0.99163
2378.30412	0.99155
2376.25031	0.99120
2374.19651	0.99104
2372.14271	0.99117
2370.08890	0.99126
2368.03510	0.99143
2365.98130	0.99166
2363.92749	0.99149
2361.87369	0.99095
2359.81989	0.99017
2357.76608	0.98916
2355.71228	0.98869
2353.65848	0.98937
2351.60467	0.99074
2349.55087	0.99192
2347.49707	0.99232
2345.44326	0.99185
2343.38946	0.99155
2341.33566	0.99195
2339.28186	0.99194
2337.22805	0.99171
2335.17425	0.99175
2333.12045	0.99132
2331.06664	0.99082
2329.01284	0.99062
2326.95904	0.99009
2324.90523	0.98963
2322.85143	0.98990
2320.79763	0.99044
2318.74382	0.99029
2316.69002	0.99013
2314.63622	0.99061
2312.58241	0.99101
2310.52861	0.99153
2308.47481	0.99252
2306.42100	0.99301
2304.36720	0.99263
2302.31340	0.99204
2300.25959	0.99162
2298.20579	0.99148
2296.15199	0.99193
2294.09818	0.99245
2292.04438	0.99196
2289.99058	0.99096
2287.93677	0.99045
2285.88297	0.99009
2283.82917	0.98994
2281.77537	0.99062
2279.72156	0.99156
2277.66776	0.99201
2275.61396	0.99233
2273.56015	0.99289
2271.50635	0.99337
2269.45255	0.99284
2267.39874	0.99140
2265.34494	0.99058
2263.29114	0.99067
2261.23733	0.99119
2259.18353	0.99206
2257.12973	0.99271
2255.07592	0.99305
2253.02212	0.99302
2250.96832	0.99266
2248.91451	0.99325
2246.86071	0.99399
2244.80691	0.99316
2242.75310	0.99196
2240.69930	0.99220
2238.64550	0.99323
2236.59169	0.99340
2234.53789	0.99346
2232.48409	0.99314
2230.43029	0.99193
2228.37648	0.99185
2226.32268	0.99313
2224.26888	0.99465
2222.21507	0.99543
2220.16127	0.99496
2218.10747	0.99376
2216.05366	0.99307
2213.99986	0.99301
2211.94606	0.99285
2209.89225	0.99313
2207.83845	0.99424
2205.78465	0.99502
2203.73084	0.99448
2201.67704	0.99423
2199.62324	0.99494
2197.56943	0.99447
2195.51563	0.99286
2193.46183	0.99348
2191.40802	0.99636
2189.35422	0.99739
2187.30042	0.99588
2185.24661	0.99377
2183.19281	0.99258
2181.13901	0.99249
2179.08520	0.99264
2177.03140	0.99526
2174.97760	0.99961
2172.92380	0.99924
2170.86999	0.99508
2168.81619	0.99280
2166.76239	0.99147
2164.70858	0.99022
2162.65478	0.99101
2160.60098	0.99304
2158.54717	0.99468
2156.49337	0.99630
2154.43957	0.99819
2152.38576	0.99965
2150.33196	0.99939
2148.27816	0.99685
2146.22435	0.99480
2144.17055	0.99471
2142.11675	0.99454
2140.06294	0.99348
2138.00914	0.99215
2135.95534	0.99128
2133.90153	0.99139
2131.84773	0.99220
2129.79393	0.99355
2127.74012	0.99515
2125.68632	0.99524
2123.63252	0.99368
2121.57871	0.99362
2119.52491	0.99532
2117.47111	0.99526
2115.41731	0.99331
2113.36350	0.99217
2111.30970	0.99259
2109.25590	0.99333
2107.20209	0.99270
2105.14829	0.99125
2103.09449	0.99106
2101.04068	0.99189
2098.98688	0.99288
2096.93308	0.99383
2094.87927	0.99381
2092.82547	0.99301
2090.77167	0.99288
2088.71786	0.99352
2086.66406	0.99445
2084.61026	0.99537
2082.55645	0.99549
2080.50265	0.99507
2078.44885	0.99467
2076.39504	0.99370
2074.34124	0.99288
2072.28744	0.99350
2070.23363	0.99459
2068.17983	0.99513
2066.12603	0.99490
2064.07223	0.99406
2062.01842	0.99359
2059.96462	0.99354
2057.91082	0.99370
2055.85701	0.99406
2053.80321	0.99344
2051.74941	0.99153
2049.69560	0.99078
2047.64180	0.99269
2045.58800	0.99424
2043.53419	0.99340
2041.48039	0.99284
2039.42659	0.99460
2037.37278	0.99661
2035.31898	0.99505
2033.26518	0.99124
2031.21137	0.99048
2029.15757	0.99304
2027.10377	0.99645
2025.04996	0.99924
2022.99616	0.99990
2020.94236	0.99822
2018.88855	0.99653
2016.83475	0.99711
2014.78095	0.99845
2012.72714	0.99764
2010.67334	0.99579
2008.61954	0.99555
2006.56574	0.99484
2004.51193	0.99334
2002.45813	0.99467
2000.40433	0.99738
1998.35052	0.99794
1996.29672	0.99735
1994.24292	0.99758
1992.18911	0.99703
1990.13531	0.99534
1988.08151	0.99416
1986.02770	0.99297
1983.97390	0.99315
1981.92010	0.99515
1979.86629	0.99517
1977.81249	0.99313
1975.75869	0.99383
1973.70488	0.99736
1971.65108	0.99938
1969.59728	0.99776
1967.54347	0.99517
1965.48967	0.99469
1963.43587	0.99486
1961.38206	0.99548
1959.32826	0.99733
1957.27446	0.99890
1955.22066	0.99947
1953.16685	0.99969
1951.11305	1.00013
1949.05925	0.99978
1947.00544	0.99737
1944.95164	0.99409
1942.89784	0.99371
1940.84403	0.99647
1938.79023	0.99831
1936.73643	0.99856
1934.68262	0.99826
1932.62882	0.99735
1930.57502	0.99600
1928.52121	0.99485
1926.46741	0.99405
1924.41361	0.99456
1922.35980	0.99621
1920.30600	0.99593
1918.25220	0.99456
1916.19839	0.99515
1914.14459	0.99599
1912.09079	0.99556
1910.03698	0.99542
1907.98318	0.99570
1905.92938	0.99529
1903.87557	0.99494
1901.82177	0.99548
1899.76797	0.99641
1897.71417	0.99724
1895.66036	0.99774
1893.60656	0.99746
1891.55276	0.99629
1889.49895	0.99560
1887.44515	0.99631
1885.39135	0.99699
1883.33754	0.99690
1881.28374	0.99662
1879.22994	0.99623
1877.17613	0.99603
1875.12233	0.99633
1873.06853	0.99615
1871.01472	0.99542
1868.96092	0.99501
1866.90712	0.99508
1864.85331	0.99560
1862.79951	0.99621
1860.74571	0.99642
1858.69190	0.99639
1856.63810	0.99631
1854.58430	0.99602
1852.53049	0.99569
1850.47669	0.99596
1848.42289	0.99688
1846.36908	0.99766
1844.31528	0.99793
1842.26148	0.99740
1840.20768	0.99617
1838.15387	0.99529
1836.10007	0.99536
1834.04627	0.99569
1831.99246	0.99562
1829.93866	0.99514
1827.88486	0.99480
1825.83105	0.99505
1823.77725	0.99570
1821.72345	0.99621
1819.66964	0.99623
1817.61584	0.99592
1815.56204	0.99603
1813.50823	0.99675
1811.45443	0.99705
1809.40063	0.99626
1807.34682	0.99519
1805.29302	0.99458
1803.23922	0.99448
1801.18541	0.99435
1799.13161	0.99340
1797.07781	0.99189
1795.02400	0.99053
1792.97020	0.98893
1790.91640	0.98673
1788.86260	0.98490
1786.80879	0.98383
1784.75499	0.98340
1782.70119	0.98372
1780.64738	0.98505
1778.59358	0.98720
1776.53978	0.98962
1774.48597	0.99188
1772.43217	0.99353
1770.37837	0.99415
1768.32456	0.99415
1766.27076	0.99409
1764.21696	0.99413
1762.16315	0.99444
1760.10935	0.99499
1758.05555	0.99530
1756.00174	0.99517
1753.94794	0.99513
1751.89414	0.99547
1749.84033	0.99540
1747.78653	0.99467
1745.73273	0.99430
1743.67892	0.99453
1741.62512	0.99503
1739.57132	0.99543
1737.51751	0.99547
1735.46371	0.99564
1733.40991	0.99598
1731.35611	0.99569
1729.30230	0.99507
1727.24850	0.99465
1725.19470	0.99449
1723.14089	0.99448
1721.08709	0.99467
1719.03329	0.99461
1716.97948	0.99394
1714.92568	0.99366
1712.87188	0.99395
1710.81807	0.99417
1708.76427	0.99416
1706.71047	0.99390
1704.65666	0.99356
1702.60286	0.99342
1700.54906	0.99307
1698.49525	0.99202
1696.44145	0.99094
1694.38765	0.99042
1692.33384	0.99028
1690.28004	0.99027
1688.22624	0.99034
1686.17243	0.99020
1684.11863	0.98998
1682.06483	0.99008
1680.01103	0.99015
1677.95722	0.99004
1675.90342	0.98989
1673.84962	0.98996
1671.79581	0.99002
1669.74201	0.98966
1667.68821	0.98921
1665.63440	0.98890
1663.58060	0.98864
1661.52680	0.98863
1659.47299	0.98857
1657.41919	0.98834
1655.36539	0.98821
1653.31158	0.98801
1651.25778	0.98759
1649.20398	0.98756
1647.15017	0.98785
1645.09637	0.98803
1643.04257	0.98792
1640.98876	0.98785
1638.93496	0.98810
1636.88116	0.98847
1634.82735	0.98830
1632.77355	0.98803
1630.71975	0.98825
1628.66594	0.98840
1626.61214	0.98792
1624.55834	0.98734
1622.50454	0.98746
1620.45073	0.98776
1618.39693	0.98754
1616.34313	0.98712
1614.28932	0.98688
1612.23552	0.98655
1610.18172	0.98618
1608.12791	0.98599
1606.07411	0.98583
1604.02031	0.98565
1601.96650	0.98540
1599.91270	0.98488
1597.85890	0.98405
1595.80509	0.98325
1593.75129	0.98271
1591.69749	0.98219
1589.64368	0.98120
1587.58988	0.97975
1585.53608	0.97824
1583.48227	0.97641
1581.42847	0.97431
1579.37467	0.97226
1577.32086	0.96898
1575.26706	0.96373
1573.21326	0.95984
1571.15945	0.95687
1569.10565	0.95303
1567.05185	0.94971
1564.99805	0.94736
1562.94424	0.94560
1560.89044	0.94393
1558.83664	0.93938
1556.78283	0.93386
1554.72903	0.93049
1552.67523	0.92711
1550.62142	0.92338
1548.56762	0.91958
1546.51382	0.91619
1544.46001	0.91234
1542.40621	0.90747
1540.35241	0.90036
1538.29860	0.89440
1536.24480	0.89236
1534.19100	0.88940
1532.13719	0.88443
1530.08339	0.88051
1528.02959	0.87687
1525.97578	0.87232
1523.92198	0.86821
1521.86818	0.86354
1519.81437	0.85838
1517.76057	0.85381
1515.70677	0.84920
1513.65297	0.84562
1511.59916	0.84285
1509.54536	0.83995
1507.49156	0.83378
1505.43775	0.82510
1503.38395	0.82127
1501.33015	0.81866
1499.27634	0.81462
1497.22254	0.80911
1495.16874	0.80375
1493.11493	0.79991
1491.06113	0.79561
1489.00733	0.78925
1486.95352	0.78291
1484.89972	0.77807
1482.84592	0.77385
1480.79211	0.76933
1478.73831	0.76505
1476.68451	0.76103
1474.63070	0.75648
1472.57690	0.75091
1470.52310	0.74677
1468.46929	0.74557
1466.41549	0.74517
1464.36169	0.74435
1462.30788	0.74427
1460.25408	0.74529
1458.20028	0.74532
1456.14648	0.74305
1454.09267	0.74194
1452.03887	0.74166
1449.98507	0.74098
1447.93126	0.74041
1445.87746	0.74094
1443.82366	0.74252
1441.76985	0.74466
1439.71605	0.74741
1437.66225	0.75042
1435.60844	0.75349
1433.55464	0.75710
1431.50084	0.76080
1429.44703	0.76400
1427.39323	0.76690
1425.33943	0.76960
1423.28562	0.77216
1421.23182	0.77493
1419.17802	0.77771
1417.12421	0.78015
1415.07041	0.78262
1413.01661	0.78507
1410.96280	0.78740
1408.90900	0.78991
1406.85520	0.79258
1404.80139	0.79509
1402.74759	0.79745
1400.69379	0.79977
1398.63999	0.80205
1396.58618	0.80446
1394.53238	0.80695
1392.47858	0.80912
1390.42477	0.81117
1388.37097	0.81338
1386.31717	0.81573
1384.26336	0.81830
1382.20956	0.82119
1380.15576	0.82419
1378.10195	0.82695
1376.04815	0.82942
1373.99435	0.83185
1371.94054	0.83437
1369.88674	0.83682
1367.83294	0.83924
1365.77913	0.84175
1363.72533	0.84427
1361.67153	0.84658
1359.61772	0.84896
1357.56392	0.85168
1355.51012	0.85427
1353.45631	0.85646
1351.40251	0.85855
1349.34871	0.86093
1347.29491	0.86366
1345.24110	0.86622
1343.18730	0.86832
1341.13350	0.87027
1339.07969	0.87225
1337.02589	0.87430
1334.97209	0.87641
1332.91828	0.87858
1330.86448	0.88056
1328.81068	0.88230
1326.75687	0.88403
1324.70307	0.88595
1322.64927	0.88779
1320.59546	0.88933
1318.54166	0.89076
1316.48786	0.89221
1314.43405	0.89372
1312.38025	0.89526
1310.32645	0.89675
1308.27264	0.89812
1306.21884	0.89944
1304.16504	0.90068
1302.11123	0.90188
1300.05743	0.90326
1298.00363	0.90485
1295.94982	0.90640
1293.89602	0.90761
1291.84222	0.90838
1289.78842	0.90891
1287.73461	0.90959
1285.68081	0.91057
1283.62701	0.91167
1281.57320	0.91268
1279.51940	0.91357
1277.46560	0.91440
1275.41179	0.91532
1273.35799	0.91646
1271.30419	0.91742
1269.25038	0.91826
1267.19658	0.91945
1265.14278	0.92048
1263.08897	0.92108
1261.03517	0.92192
1258.98137	0.92291
1256.92756	0.92371
1254.87376	0.92457
1252.81996	0.92537
1250.76615	0.92595
1248.71235	0.92649
1246.65855	0.92710
1244.60474	0.92773
1242.55094	0.92834
1240.49714	0.92888
1238.44334	0.92963
1236.38953	0.93061
1234.33573	0.93146
1232.28193	0.93206
1230.22812	0.93249
1228.17432	0.93286
1226.12052	0.93339
1224.06671	0.93409
1222.01291	0.93477
1219.95911	0.93528
1217.90530	0.93596
1215.85150	0.93694
1213.79770	0.93767
1211.74389	0.93804
1209.69009	0.93849
1207.63629	0.93905
1205.58248	0.93960
1203.52868	0.94016
1201.47488	0.94057
1199.42107	0.94081
1197.36727	0.94108
1195.31347	0.94140
1193.25966	0.94166
1191.20586	0.94177
1189.15206	0.94200
1187.09825	0.94249
1185.04445	0.94281
1182.99065	0.94294
1180.93685	0.94346
1178.88304	0.94406
1176.82924	0.94431
1174.77544	0.94452
1172.72163	0.94468
1170.66783	0.94482
1168.61403	0.94520
1166.56022	0.94582
1164.50642	0.94655
1162.45262	0.94718
1160.39881	0.94755
1158.34501	0.94776
1156.29121	0.94803
1154.23740	0.94840
1152.18360	0.94867
1150.12980	0.94887
1148.07599	0.94925
1146.02219	0.94973
1143.96839	0.95007
1141.91458	0.95046
1139.86078	0.95101
1137.80698	0.95142
1135.75317	0.95162
1133.69937	0.95200
1131.64557	0.95268
1129.59176	0.95331
1127.53796	0.95388
1125.48416	0.95451
1123.43036	0.95502
1121.37655	0.95537
1119.32275	0.95544
1117.26895	0.95547
1115.21514	0.95597
1113.16134	0.95681
1111.10754	0.95767
1109.05373	0.95803
1106.99993	0.95784
1104.94613	0.95787
1102.89232	0.95824
1100.83852	0.95855
1098.78472	0.95879
1096.73091	0.95897
1094.67711	0.95930
1092.62331	0.95970
1090.56950	0.95915
1088.51570	0.95623
1086.46190	0.94787
1084.40809	0.93372
1082.35429	0.92497
1080.30049	0.93017
1078.24668	0.94069
1076.19288	0.94726
1074.13908	0.95055
1072.08528	0.95296
1070.03147	0.95470
1067.97767	0.95574
1065.92387	0.95646
1063.87006	0.95720
1061.81626	0.95815
1059.76246	0.95894
1057.70865	0.95953
1055.65485	0.96026
1053.60105	0.96112
1051.54724	0.96186
1049.49344	0.96232
1047.43964	0.96270
1045.38583	0.96317
1043.33203	0.96380
1041.27823	0.96440
1039.22442	0.96490
1037.17062	0.96545
1035.11682	0.96579
1033.06301	0.96571
1031.00921	0.96572
1028.95541	0.96604
1026.90160	0.96629
1024.84780	0.96649
1022.79400	0.96668
1020.74019	0.96679
1018.68639	0.96697
1016.63259	0.96728
1014.57879	0.96754
1012.52498	0.96776
1010.47118	0.96820
1008.41738	0.96892
1006.36357	0.96930
1004.30977	0.96898
1002.25597	0.96862
1000.20216	0.96875
998.14836	0.96907
996.09456	0.96919
994.04075	0.96938
991.98695	0.96979
989.93315	0.97012
987.87934	0.97046
985.82554	0.97081
983.77174	0.97101
981.71793	0.97137
979.66413	0.97185
977.61033	0.97180
975.55652	0.97119
973.50272	0.97082
971.44892	0.97110
969.39511	0.97181
967.34131	0.97239
965.28751	0.97241
963.23371	0.97224
961.17990	0.97242
959.12610	0.97263
957.07230	0.97250
955.01849	0.97268
952.96469	0.97336
950.91089	0.97388
948.85708	0.97417
946.80328	0.97444
944.74948	0.97445
942.69567	0.97437
940.64187	0.97459
938.58807	0.97470
936.53426	0.97456
934.48046	0.97467
932.42666	0.97500
930.37285	0.97510
928.31905	0.97510
926.26525	0.97561
924.21144	0.97637
922.15764	0.97682
920.10384	0.97716
918.05003	0.97743
915.99623	0.97764
913.94243	0.97758
911.88862	0.97693
909.83482	0.97643
907.78102	0.97666
905.72722	0.97682
903.67341	0.97656
901.61961	0.97702
899.56581	0.97808
897.51200	0.97834
895.45820	0.97819
893.40440	0.97834
891.35059	0.97793
889.29679	0.97695
887.24299	0.97596
885.18918	0.97437
883.13538	0.97244
881.08158	0.97068
879.02777	0.96811
876.97397	0.96354
874.92017	0.95480
872.86636	0.93895
870.81256	0.91579
868.75876	0.88847
866.70495	0.86039
864.65115	0.83391
862.59735	0.81087
860.54354	0.79296
858.48974	0.78068
856.43594	0.77431
854.38213	0.77640
852.32833	0.78876
850.27453	0.80838
848.22073	0.82924
846.16692	0.84455
844.11312	0.85244
842.05932	0.86007
840.00551	0.87197
837.95171	0.88461
835.89791	0.89526
833.84410	0.90435
831.79030	0.91256
829.73650	0.91947
827.68269	0.92497
825.62889	0.93003
823.57509	0.93471
821.52128	0.93838
819.46748	0.94172
817.41368	0.94504
815.35987	0.94769
813.30607	0.95008
811.25227	0.95229
809.19846	0.95378
807.14466	0.95470
805.09086	0.95534
803.03705	0.95644
800.98325	0.95818
798.92945	0.95943
796.87565	0.95975
794.82184	0.96008
792.76804	0.96125
790.71424	0.96260
788.66043	0.96345
786.60663	0.96413
784.55283	0.96467
782.49902	0.96510
780.44522	0.96558
778.39142	0.96573
776.33761	0.96575
774.28381	0.96624
772.23001	0.96722
770.17620	0.96831
768.12240	0.96897
766.06860	0.96876
764.01479	0.96822
761.96099	0.96810
759.90719	0.96826
757.85338	0.96893
755.79958	0.97001
753.74578	0.97045
751.69197	0.96981
749.63817	0.96920
747.58437	0.96947
745.53056	0.96992
743.47676	0.97012
741.42296	0.97014
739.36916	0.97009
737.31535	0.97029
735.26155	0.97094
733.20775	0.97184
731.15394	0.97210
729.10014	0.97102
727.04634	0.96985
724.99253	0.96949
722.93873	0.96862
720.88493	0.96652
718.83112	0.96104
716.77732	0.94474
714.72352	0.91537
712.66971	0.89454
710.61591	0.90414
708.56211	0.92934
706.50830	0.94593
704.45450	0.94844
702.40070	0.93758
700.34689	0.92413
698.29309	0.92603
696.23929	0.94057
694.18548	0.95214
692.13168	0.95701
690.07788	0.95876
688.02408	0.95996
685.97027	0.96138
683.91647	0.96275
681.86267	0.96366
679.80886	0.96422
677.75506	0.96509
675.70126	0.96661
673.64745	0.96811
671.59365	0.96842
669.53985	0.96747
667.48604	0.96662
665.43224	0.96832
663.37844	0.97087
661.32463	0.97163
659.27083	0.97072
657.21703	0.97052
655.16322	0.97114
653.10942	0.97095
651.05562	0.97012
649.00181	0.96971
646.94801	0.97002
644.89421	0.97113
642.84040	0.97242
640.78660	0.97313
638.73280	0.97310
636.67899	0.97252
634.62519	0.97191
632.57139	0.97157
630.51759	0.97126
628.46378	0.97136
626.40998	0.97208
624.35618	0.97234
622.30237	0.97166
620.24857	0.97073
618.19477	0.97066
616.14096	0.97181
614.08716	0.97243
612.03336	0.97162
609.97955	0.97074
607.92575	0.97081
605.87195	0.97140
603.81814	0.97186
601.76434	0.97205
599.71054	0.97179
597.65673	0.97129
595.60293	0.97113
593.54913	0.97240
591.49532	0.97511
589.44152	0.97592
587.38772	0.97428
585.33391	0.97372
583.28011	0.97517
581.22631	0.97580
579.17250	0.97375
577.11870	0.97175
575.06490	0.97247
573.01110	0.97480
570.95729	0.97621
568.90349	0.97618
566.84969	0.97595
564.79588	0.97561
562.74208	0.97550
560.68828	0.97586
558.63447	0.97602
556.58067	0.97607
554.52687	0.97677
552.47306	0.97777
550.41926	0.97792
548.36546	0.97777
546.31165	0.97741
544.25785	0.97606
542.20405	0.97488
540.15024	0.97545
538.09644	0.97700
536.04264	0.97739
533.98883	0.97745
531.93503	0.97925
529.88123	0.98047
527.82742	0.97900
525.77362	0.97765
523.71982	0.97712
521.66602	0.97532
519.61221	0.97351
517.55841	0.97367
515.50461	0.97498
513.45080	0.97595
511.39700	0.97663
509.34320	0.97729
507.28939	0.97726
505.23559	0.97567
503.18179	0.97405
501.12798	0.97525
499.07418	0.97767
497.02038	0.97863
494.96657	0.97835
492.91277	0.97677
490.85897	0.97559
488.80516	0.97696
486.75136	0.97925
484.69756	0.97946
482.64375	0.97666
480.58995	0.97388
478.53615	0.97519
476.48234	0.97942
474.42854	0.98058
472.37474	0.97733
470.32093	0.97416
468.26713	0.97432
466.21333	0.97750
464.15953	0.97890
462.10572	0.97702
460.05192	0.97697
457.99812	0.97968
455.94431	0.98019
453.89051	0.97874
451.83671	0.97860
449.78290	0.97940
447.72910	0.97818
445.67530	0.97556
443.62149	0.97422
441.56769	0.97454
439.51389	0.97749
437.46008	0.97947
435.40628	0.97558
433.35248	0.97167
431.29867	0.97229
429.24487	0.97360
427.19107	0.97308
425.13726	0.97161
423.08346	0.97184
421.02966	0.97174
418.97585	0.97026
416.92205	0.97339
414.86825	0.97725
412.81445	0.97577
410.76064	0.97177
408.70684	0.97321
406.65304	0.97756
404.59923	0.97657
402.54543	0.96960
400.49163	0.96300
398.43782	0.96378
