3996.71440	0.99099
3994.66059	0.99090
3992.60678	0.99103
3990.55297	0.99106
3988.49916	0.99078
3986.44535	0.99041
3984.39154	0.99014
3982.33773	0.99020
3980.28391	0.99062
3978.23010	0.99090
3976.17629	0.99088
3974.12248	0.99095
3972.06867	0.99117
3970.01486	0.99127
3967.96105	0.99121
3965.90724	0.99135
3963.85343	0.99182
3961.79962	0.99205
3959.74581	0.99170
3957.69200	0.99124
3955.63819	0.99085
3953.58438	0.99064
3951.53057	0.99087
3949.47676	0.99115
3947.42295	0.99100
3945.36914	0.99073
3943.31533	0.99067
3941.26152	0.99089
3939.20771	0.99112
3937.15390	0.99101
3935.10009	0.99074
3933.04628	0.99067
3930.99247	0.99077
3928.93866	0.99080
3926.88485	0.99088
3924.83104	0.99111
3922.77723	0.99115
3920.72342	0.99091
3918.66961	0.99091
3916.61580	0.99103
3914.56199	0.99074
3912.50818	0.99034
3910.45437	0.99018
3908.40056	0.99018
3906.34675	0.99042
3904.29294	0.99109
3902.23913	0.99171
3900.18532	0.99166
3898.13151	0.99119
3896.07770	0.99089
3894.02389	0.99086
3891.97008	0.99091
3889.91627	0.99101
3887.86246	0.99092
3885.80865	0.99046
3883.75484	0.99016
3881.70103	0.99034
3879.64722	0.99065
3877.59341	0.99092
3875.53960	0.99106
3873.48579	0.99115
3871.43198	0.99138
3869.37817	0.99148
3867.32436	0.99140
3865.27055	0.99129
3863.21674	0.99095
3861.16293	0.99053
3859.10912	0.99055
3857.05531	0.99093
3855.00150	0.99130
3852.94769	0.99147
3850.89388	0.99112
3848.84007	0.99058
3846.78626	0.99042
3844.73245	0.99073
3842.67864	0.99103
3840.62483	0.99115
3838.57102	0.99117
3836.51721	0.99090
3834.46340	0.99083
3832.40959	0.99102
3830.35578	0.99096
3828.30197	0.99090
3826.24816	0.99122
3824.19435	0.99157
3822.14054	0.99174
3820.08673	0.99165
3818.03292	0.99134
3815.97911	0.99113
3813.92530	0.99108
3811.87149	0.99114
3809.81768	0.99121
3807.76387	0.99104
3805.71006	0.99072
3803.65625	0.99061
3801.60244	0.99090
3799.54863	0.99126
3797.49482	0.99121
3795.44101	0.99104
3793.38720	0.99114
3791.33339	0.99127
3789.27958	0.99100
3787.22577	0.99052
3785.17196	0.99040
3783.11815	0.99039
3781.06434	0.99016
3779.01053	0.99021
3776.95672	0.99066
3774.90291	0.99108
3772.84910	0.99115
3770.79529	0.99085
3768.74148	0.99056
3766.68767	0.99053
3764.63386	0.99074
3762.58005	0.99101
3760.52624	0.99107
3758.47243	0.99123
3756.41862	0.99171
3754.36481	0.99185
3752.31100	0.99151
3750.25719	0.99112
3748.20338	0.99074
3746.14957	0.99027
3744.09576	0.98992
3742.04195	0.99020
3739.98814	0.99073
3737.93433	0.99078
3735.88052	0.99007
3733.82671	0.98974
3731.77290	0.99034
3729.71909	0.99045
3727.66528	0.98999
3725.61147	0.98998
3723.55766	0.99025
3721.50385	0.98992
3719.45004	0.98945
3717.39623	0.98924
3715.34242	0.98882
3713.28861	0.98809
3711.23480	0.98739
3709.18099	0.98660
3707.12718	0.98584
3705.07337	0.98520
3703.01956	0.98443
3700.96575	0.98343
3698.91194	0.98230
3696.85813	0.98129
3694.80432	0.98080
3692.75051	0.98089
3690.69670	0.98144
3688.64289	0.98223
3686.58907	0.98271
3684.53526	0.98282
3682.48145	0.98269
3680.42764	0.98251
3678.37383	0.98229
3676.32002	0.98173
3674.26621	0.98107
3672.21240	0.98082
3670.15859	0.98085
3668.10478	0.98085
3666.05097	0.98030
3663.99716	0.97955
3661.94335	0.97907
3659.88954	0.97837
3657.83573	0.97729
3655.78192	0.97648
3653.72811	0.97608
3651.67430	0.97563
3649.62049	0.97493
3647.56668	0.97418
3645.51287	0.97357
3643.45906	0.97309
3641.40525	0.97260
3639.35144	0.97194
3637.29763	0.97119
3635.24382	0.97034
3633.19001	0.96938
3631.13620	0.96836
3629.08239	0.96750
3627.02858	0.96702
3624.97477	0.96656
3622.92096	0.96578
3620.86715	0.96469
3618.81334	0.96408
3616.75953	0.96429
3614.70572	0.96437
3612.65191	0.96392
3610.59810	0.96313
3608.54429	0.96230
3606.49048	0.96179
3604.43667	0.96140
3602.38286	0.96091
3600.32905	0.96049
3598.27524	0.95984
3596.22143	0.95908
3594.16762	0.95873
3592.11381	0.95854
3590.06000	0.95825
3588.00619	0.95799
3585.95238	0.95781
3583.89857	0.95749
3581.84476	0.95683
3579.79095	0.95587
3577.73714	0.95504
3575.68333	0.95437
3573.62952	0.95379
3571.57571	0.95325
3569.52190	0.95227
3567.46809	0.95120
3565.41428	0.95089
3563.36047	0.95074
3561.30666	0.95012
3559.25285	0.94921
3557.19904	0.94858
3555.14523	0.94805
3553.09142	0.94718
3551.03761	0.94644
3548.98380	0.94585
3546.92999	0.94498
3544.87618	0.94421
3542.82237	0.94384
3540.76856	0.94361
3538.71475	0.94314
3536.66094	0.94218
3534.60713	0.94103
3532.55332	0.94011
3530.49951	0.93939
3528.44570	0.93882
3526.39189	0.93830
3524.33808	0.93760
3522.28427	0.93707
3520.23046	0.93671
3518.17665	0.93598
3516.12284	0.93504
3514.06903	0.93444
3512.01522	0.93405
3509.96141	0.93350
3507.90760	0.93275
3505.85379	0.93192
3503.79998	0.93103
3501.74617	0.93014
3499.69236	0.92927
3497.63855	0.92831
3495.58474	0.92728
3493.53093	0.92648
3491.47712	0.92603
3489.42331	0.92561
3487.36950	0.92497
3485.31569	0.92426
3483.26188	0.92372
3481.20807	0.92315
3479.15426	0.92243
3477.10045	0.92166
3475.04664	0.92100
3472.99283	0.92057
3470.93902	0.91993
3468.88521	0.91905
3466.83140	0.91829
3464.77759	0.91756
3462.72378	0.91687
3460.66997	0.91629
3458.61616	0.91567
3456.56235	0.91518
3454.50854	0.91514
3452.45473	0.91513
3450.40092	0.91447
3448.34711	0.91352
3446.29330	0.91293
3444.23949	0.91270
3442.18568	0.91224
3440.13187	0.91140
3438.07806	0.91070
3436.02425	0.91033
3433.97044	0.91017
3431.91663	0.91017
3429.86282	0.90992
3427.80901	0.90930
3425.75520	0.90869
3423.70139	0.90848
3421.64758	0.90860
3419.59377	0.90853
3417.53996	0.90814
3415.48615	0.90781
3413.43234	0.90757
3411.37853	0.90728
3409.32472	0.90707
3407.27091	0.90671
3405.21710	0.90626
3403.16329	0.90614
3401.10948	0.90619
3399.05567	0.90589
3397.00186	0.90514
3394.94805	0.90447
3392.89424	0.90436
3390.84042	0.90448
3388.78661	0.90450
3386.73280	0.90450
3384.67899	0.90443
3382.62518	0.90423
3380.57137	0.90404
3378.51756	0.90402
3376.46375	0.90401
3374.40994	0.90361
3372.35613	0.90295
3370.30232	0.90276
3368.24851	0.90309
3366.19470	0.90324
3364.14089	0.90308
3362.08708	0.90281
3360.03327	0.90263
3357.97946	0.90270
3355.92565	0.90290
3353.87184	0.90295
3351.81803	0.90275
3349.76422	0.90251
3347.71041	0.90246
3345.65660	0.90252
3343.60279	0.90237
3341.54898	0.90203
3339.49517	0.90188
3337.44136	0.90201
3335.38755	0.90214
3333.33374	0.90222
3331.27993	0.90242
3329.22612	0.90268
3327.17231	0.90283
3325.11850	0.90278
3323.06469	0.90285
3321.01088	0.90313
3318.95707	0.90312
3316.90326	0.90285
3314.84945	0.90275
3312.79564	0.90276
3310.74183	0.90291
3308.68802	0.90323
3306.63421	0.90321
3304.58040	0.90281
3302.52659	0.90256
3300.47278	0.90233
3298.41897	0.90194
3296.36516	0.90196
3294.31135	0.90241
3292.25754	0.90269
3290.20373	0.90274
3288.14992	0.90281
3286.09611	0.90285
3284.04230	0.90275
3281.98849	0.90247
3279.93468	0.90207
3277.88087	0.90202
3275.82706	0.90266
3273.77325	0.90355
3271.71944	0.90408
3269.66563	0.90415
3267.61182	0.90419
3265.55801	0.90442
3263.50420	0.90470
3261.45039	0.90504
3259.39658	0.90558
3257.34277	0.90601
3255.28896	0.90619
3253.23515	0.90660
3251.18134	0.90741
3249.12753	0.90830
3247.07372	0.90879
3245.01991	0.90885
3242.96610	0.90894
3240.91229	0.90916
3238.85848	0.90960
3236.80467	0.91023
3234.75086	0.91074
3232.69705	0.91114
3230.64324	0.91143
3228.58943	0.91160
3226.53562	0.91216
3224.48181	0.91306
3222.42800	0.91350
3220.37419	0.91353
3218.32038	0.91372
3216.26657	0.91390
3214.21276	0.91397
3212.15895	0.91423
3210.10514	0.91481
3208.05133	0.91547
3205.99752	0.91593
3203.94371	0.91625
3201.88990	0.91641
3199.83609	0.91664
3197.78228	0.91727
3195.72847	0.91799
3193.67466	0.91861
3191.62085	0.91920
3189.56704	0.91982
3187.51323	0.92054
3185.45942	0.92115
3183.40561	0.92158
3181.35180	0.92199
3179.29799	0.92245
3177.24418	0.92304
3175.19037	0.92361
3173.13656	0.92387
3171.08275	0.92417
3169.02894	0.92482
3166.97513	0.92556
3164.92132	0.92619
3162.86751	0.92676
3160.81370	0.92741
3158.75989	0.92817
3156.70608	0.92877
3154.65227	0.92923
3152.59846	0.92986
3150.54465	0.93051
3148.49084	0.93078
3146.43703	0.93096
3144.38322	0.93146
3142.32941	0.93212
3140.27560	0.93254
3138.22179	0.93269
3136.16798	0.93308
3134.11417	0.93397
3132.06036	0.93488
3130.00655	0.93542
3127.95274	0.93572
3125.89893	0.93599
3123.84512	0.93626
3121.79131	0.93654
3119.73750	0.93696
3117.68369	0.93737
3115.62988	0.93752
3113.57607	0.93753
3111.52226	0.93777
3109.46845	0.93823
3107.41464	0.93872
3105.36083	0.93897
3103.30702	0.93884
3101.25321	0.93859
3099.19940	0.93865
3097.14559	0.93884
3095.09177	0.93882
3093.03796	0.93872
3090.98415	0.93867
3088.93034	0.93877
3086.87653	0.93911
3084.82272	0.93945
3082.76891	0.93963
3080.71510	0.93977
3078.66129	0.93985
3076.60748	0.93979
3074.55367	0.93992
3072.49986	0.94031
3070.44605	0.94052
3068.39224	0.94050
3066.33843	0.94052
3064.28462	0.94075
3062.23081	0.94124
3060.17700	0.94158
3058.12319	0.94151
3056.06938	0.94150
3054.01557	0.94178
3051.96176	0.94208
3049.90795	0.94239
3047.85414	0.94274
3045.80033	0.94291
3043.74652	0.94295
3041.69271	0.94302
3039.63890	0.94329
3037.58509	0.94383
3035.53128	0.94427
3033.47747	0.94446
3031.42366	0.94479
3029.36985	0.94532
3027.31604	0.94586
3025.26223	0.94628
3023.20842	0.94632
3021.15461	0.94614
3019.10080	0.94614
3017.04699	0.94626
3014.99318	0.94651
3012.93937	0.94688
3010.88556	0.94722
3008.83175	0.94746
3006.77794	0.94755
3004.72413	0.94752
3002.67032	0.94737
3000.61651	0.94724
2998.56270	0.94727
2996.50889	0.94711
2994.45508	0.94646
2992.40127	0.94582
2990.34746	0.94556
2988.29365	0.94538
2986.23984	0.94495
2984.18603	0.94426
2982.13222	0.94346
2980.07841	0.94255
2978.02460	0.94156
2975.97079	0.94075
2973.91698	0.93993
2971.86317	0.93859
2969.80936	0.93685
2967.75555	0.93509
2965.70174	0.93328
2963.64793	0.93131
2961.59412	0.92936
2959.54031	0.92774
2957.48650	0.92635
2955.43269	0.92487
2953.37888	0.92322
2951.32507	0.92121
2949.27126	0.91842
2947.21745	0.91468
2945.16364	0.90960
2943.10983	0.90298
2941.05602	0.89470
2939.00221	0.88413
2936.94840	0.87104
2934.89459	0.85567
2932.84078	0.83790
2930.78697	0.81758
2928.73316	0.79441
2926.67935	0.76731
2924.62554	0.73507
2922.57173	0.69775
2920.51792	0.65745
2918.46411	0.61896
2916.41030	0.59057
2914.35649	0.58124
2912.30268	0.59238
2910.24887	0.61597
2908.19506	0.64268
2906.14125	0.66751
2904.08744	0.68878
2902.03363	0.70631
2899.97982	0.72062
2897.92601	0.73277
2895.87220	0.74396
2893.81839	0.75506
2891.76458	0.76645
2889.71077	0.77826
2887.65696	0.79048
2885.60315	0.80300
2883.54934	0.81570
2881.49553	0.82853
2879.44172	0.84151
2877.38791	0.85422
2875.33410	0.86582
2873.28029	0.87547
2871.22648	0.88247
2869.17267	0.88650
2867.11886	0.88737
2865.06505	0.88459
2863.01124	0.87745
2860.95743	0.86478
2858.90362	0.84443
2856.84981	0.81363
2854.79600	0.77022
2852.74219	0.71553
2850.68838	0.65937
2848.63457	0.62040
2846.58076	0.61407
2844.52695	0.63921
2842.47314	0.68187
2840.41933	0.72785
2838.36552	0.76857
2836.31171	0.80140
2834.25790	0.82711
2832.20409	0.84718
2830.15028	0.86299
2828.09647	0.87568
2826.04266	0.88598
2823.98885	0.89452
2821.93504	0.90174
2819.88123	0.90783
2817.82742	0.91299
2815.77361	0.91739
2813.71980	0.92111
2811.66599	0.92434
2809.61218	0.92737
2807.55837	0.93027
2805.50456	0.93290
2803.45075	0.93521
2801.39693	0.93728
2799.34312	0.93917
2797.28931	0.94090
2795.23550	0.94257
2793.18169	0.94424
2791.12788	0.94600
2789.07407	0.94776
2787.02026	0.94910
2784.96645	0.95016
2782.91264	0.95147
2780.85883	0.95276
2778.80502	0.95375
2776.75121	0.95473
2774.69740	0.95571
2772.64359	0.95645
2770.58978	0.95727
2768.53597	0.95823
2766.48216	0.95895
2764.42835	0.95944
2762.37454	0.95994
2760.32073	0.96047
2758.26692	0.96099
2756.21311	0.96135
2754.15930	0.96155
2752.10549	0.96175
2750.05168	0.96197
2747.99787	0.96221
2745.94406	0.96245
2743.89025	0.96264
2741.83644	0.96285
2739.78263	0.96320
2737.72882	0.96370
2735.67501	0.96405
2733.62120	0.96422
2731.56739	0.96464
2729.51358	0.96524
2727.45977	0.96567
2725.40596	0.96589
2723.35215	0.96592
2721.29834	0.96593
2719.24453	0.96620
2717.19072	0.96672
2715.13691	0.96706
2713.08310	0.96719
2711.02929	0.96755
2708.97548	0.96800
2706.92167	0.96814
2704.86786	0.96816
2702.81405	0.96827
2700.76024	0.96850
2698.70643	0.96878
2696.65262	0.96901
2694.59881	0.96929
2692.54500	0.96971
2690.49119	0.97003
2688.43738	0.97011
2686.38357	0.97013
2684.32976	0.97027
2682.27595	0.97052
2680.22214	0.97063
2678.16833	0.97048
2676.11452	0.97024
2674.06071	0.97017
2672.00690	0.97020
2669.95309	0.97000
2667.89928	0.96950
2665.84547	0.96905
2663.79166	0.96886
2661.73785	0.96888
2659.68404	0.96909
2657.63023	0.96950
2655.57642	0.96989
2653.52261	0.97009
2651.46880	0.97008
2649.41499	0.96997
2647.36118	0.97004
2645.30737	0.97037
2643.25356	0.97049
2641.19975	0.97030
2639.14594	0.97019
2637.09213	0.97016
2635.03832	0.97015
2632.98451	0.97029
2630.93070	0.97069
2628.87689	0.97121
2626.82308	0.97162
2624.76927	0.97185
2622.71546	0.97215
2620.66165	0.97271
2618.60784	0.97340
2616.55403	0.97395
2614.50022	0.97412
2612.44641	0.97420
2610.39260	0.97454
2608.33879	0.97507
2606.28498	0.97543
2604.23117	0.97536
2602.17736	0.97523
2600.12355	0.97553
2598.06974	0.97607
2596.01593	0.97647
2593.96212	0.97684
2591.90831	0.97716
2589.85450	0.97719
2587.80069	0.97727
2585.74688	0.97748
2583.69307	0.97743
2581.63926	0.97741
2579.58545	0.97778
2577.53164	0.97841
2575.47783	0.97881
2573.42402	0.97869
2571.37021	0.97868
2569.31640	0.97892
2567.26259	0.97873
2565.20878	0.97828
2563.15497	0.97847
2561.10116	0.97941
2559.04735	0.98028
2556.99354	0.98046
2554.93973	0.98031
2552.88592	0.98040
2550.83211	0.98059
2548.77830	0.98053
2546.72449	0.98045
2544.67068	0.98054
2542.61687	0.98059
2540.56306	0.98056
2538.50925	0.98047
2536.45544	0.98015
2534.40163	0.97992
2532.34782	0.98022
2530.29401	0.98087
2528.24020	0.98119
2526.18639	0.98108
2524.13258	0.98120
2522.07877	0.98152
2520.02496	0.98149
2517.97115	0.98137
2515.91734	0.98142
2513.86353	0.98145
2511.80972	0.98178
2509.75591	0.98240
2507.70210	0.98273
2505.64828	0.98286
2503.59447	0.98285
2501.54066	0.98250
2499.48685	0.98226
2497.43304	0.98245
2495.37923	0.98285
2493.32542	0.98307
2491.27161	0.98305
2489.21780	0.98312
2487.16399	0.98328
2485.11018	0.98334
2483.05637	0.98350
2481.00256	0.98363
2478.94875	0.98330
2476.89494	0.98287
2474.84113	0.98301
2472.78732	0.98344
2470.73351	0.98366
2468.67970	0.98380
2466.62589	0.98390
2464.57208	0.98412
2462.51827	0.98457
2460.46446	0.98472
2458.41065	0.98444
2456.35684	0.98418
2454.30303	0.98401
2452.24922	0.98388
2450.19541	0.98388
2448.14160	0.98396
2446.08779	0.98416
2444.03398	0.98438
2441.98017	0.98446
2439.92636	0.98443
2437.87255	0.98445
2435.81874	0.98464
2433.76493	0.98477
2431.71112	0.98464
2429.65731	0.98436
2427.60350	0.98410
2425.54969	0.98395
2423.49588	0.98399
2421.44207	0.98436
2419.38826	0.98488
2417.33445	0.98507
2415.28064	0.98486
2413.22683	0.98465
2411.17302	0.98472
2409.11921	0.98501
2407.06540	0.98521
2405.01159	0.98511
2402.95778	0.98508
2400.90397	0.98532
2398.85016	0.98552
2396.79635	0.98551
2394.74254	0.98503
2392.68873	0.98445
2390.63492	0.98450
2388.58111	0.98476
2386.52730	0.98483
2384.47349	0.98476
2382.41968	0.98450
2380.36587	0.98414
2378.31206	0.98396
2376.25825	0.98439
2374.20444	0.98518
2372.15063	0.98546
2370.09682	0.98527
2368.04301	0.98527
2365.98920	0.98531
2363.93539	0.98444
2361.88158	0.98372
2359.82777	0.98409
2357.77396	0.98354
2355.72015	0.98223
2353.66634	0.98199
2351.61253	0.98229
2349.55872	0.98240
2347.50491	0.98227
2345.45110	0.98170
2343.39729	0.98083
2341.34348	0.98058
2339.28967	0.98105
2337.23586	0.98156
2335.18205	0.98172
2333.12824	0.98144
2331.07443	0.98135
2329.02062	0.98167
2326.96681	0.98150
2324.91300	0.98114
2322.85919	0.98167
2320.80538	0.98221
2318.75157	0.98209
2316.69776	0.98234
2314.64395	0.98298
2312.59014	0.98312
2310.53633	0.98268
2308.48252	0.98251
2306.42871	0.98299
2304.37490	0.98359
2302.32109	0.98383
2300.26728	0.98408
2298.21347	0.98456
2296.15966	0.98453
2294.10585	0.98414
2292.05204	0.98392
2289.99823	0.98362
2287.94442	0.98338
2285.89061	0.98333
2283.83680	0.98363
2281.78299	0.98407
2279.72918	0.98396
2277.67537	0.98354
2275.62156	0.98344
2273.56775	0.98377
2271.51394	0.98395
2269.46013	0.98366
2267.40632	0.98359
2265.35251	0.98432
2263.29870	0.98553
2261.24489	0.98629
2259.19108	0.98619
2257.13727	0.98577
2255.08346	0.98588
2253.02965	0.98626
2250.97584	0.98639
2248.92203	0.98668
2246.86822	0.98692
2244.81441	0.98669
2242.76060	0.98640
2240.70679	0.98644
2238.65298	0.98617
2236.59917	0.98548
2234.54536	0.98567
2232.49155	0.98666
2230.43774	0.98654
2228.38393	0.98498
2226.33012	0.98445
2224.27631	0.98623
2222.22250	0.98784
2220.16869	0.98736
2218.11488	0.98644
2216.06107	0.98654
2214.00726	0.98657
2211.95344	0.98534
2209.89963	0.98418
2207.84582	0.98465
2205.79201	0.98627
2203.73820	0.98736
2201.68439	0.98730
2199.63058	0.98757
2197.57677	0.98801
2195.52296	0.98741
2193.46915	0.98658
2191.41534	0.98642
2189.36153	0.98700
2187.30772	0.98690
2185.25391	0.98531
2183.20010	0.98465
2181.14629	0.98548
2179.09248	0.98636
2177.03867	0.98742
2174.98486	0.98780
2172.93105	0.98719
2170.87724	0.98656
2168.82343	0.98626
2166.76962	0.98624
2164.71581	0.98591
2162.66200	0.98555
2160.60819	0.98666
2158.55438	0.98929
2156.50057	0.99105
2154.44676	0.99064
2152.39295	0.98897
2150.33914	0.98778
2148.28533	0.98771
2146.23152	0.98816
2144.17771	0.98847
2142.12390	0.98766
2140.07009	0.98652
2138.01628	0.98688
2135.96247	0.98790
2133.90866	0.98821
2131.85485	0.98798
2129.80104	0.98701
2127.74723	0.98606
2125.69342	0.98635
2123.63961	0.98699
2121.58580	0.98675
2119.53199	0.98590
2117.47818	0.98547
2115.42437	0.98580
2113.37056	0.98607
2111.31675	0.98581
2109.26294	0.98532
2107.20913	0.98513
2105.15532	0.98533
2103.10151	0.98547
2101.04770	0.98575
2098.99389	0.98599
2096.94008	0.98574
2094.88627	0.98534
2092.83246	0.98497
2090.77865	0.98481
2088.72484	0.98508
2086.67103	0.98504
2084.61722	0.98436
2082.56341	0.98416
2080.50960	0.98453
2078.45579	0.98450
2076.40198	0.98451
2074.34817	0.98478
2072.29436	0.98461
2070.24055	0.98461
2068.18674	0.98546
2066.13293	0.98653
2064.07912	0.98748
2062.02531	0.98798
2059.97150	0.98751
2057.91769	0.98627
2055.86388	0.98543
2053.81007	0.98547
2051.75626	0.98542
2049.70245	0.98542
2047.64864	0.98590
2045.59483	0.98569
2043.54102	0.98538
2041.48721	0.98646
2039.43340	0.98801
2037.37959	0.98770
2035.32578	0.98517
2033.27197	0.98424
2031.21816	0.98600
2029.16435	0.98725
2027.11054	0.98770
2025.05673	0.98904
2023.00292	0.99144
2020.94911	0.99309
2018.89530	0.99270
2016.84149	0.99070
2014.78768	0.98824
2012.73387	0.98696
2010.68006	0.98742
2008.62625	0.98889
2006.57244	0.99042
2004.51863	0.99108
2002.46482	0.99057
2000.41101	0.98909
1998.35720	0.98742
1996.30339	0.98648
1994.24958	0.98641
1992.19577	0.98704
1990.14196	0.98777
1988.08815	0.98741
1986.03434	0.98668
1983.98053	0.98705
1981.92672	0.98773
1979.87291	0.98821
1977.81910	0.98911
1975.76529	0.98883
1973.71148	0.98686
1971.65767	0.98598
1969.60386	0.98705
1967.55005	0.98864
1965.49624	0.98968
1963.44243	0.98980
1961.38862	0.98939
1959.33481	0.98859
1957.28100	0.98733
1955.22719	0.98654
1953.17338	0.98675
1951.11957	0.98689
1949.06576	0.98685
1947.01195	0.98703
1944.95814	0.98628
1942.90433	0.98540
1940.85052	0.98597
1938.79671	0.98632
1936.74290	0.98605
1934.68909	0.98642
1932.63528	0.98699
1930.58147	0.98701
1928.52766	0.98666
1926.47385	0.98649
1924.42004	0.98652
1922.36623	0.98650
1920.31242	0.98609
1918.25861	0.98536
1916.20479	0.98525
1914.15098	0.98545
1912.09717	0.98537
1910.04336	0.98556
1907.98955	0.98621
1905.93574	0.98711
1903.88193	0.98743
1901.82812	0.98670
1899.77431	0.98604
1897.72050	0.98583
1895.66669	0.98554
1893.61288	0.98520
1891.55907	0.98490
1889.50526	0.98507
1887.45145	0.98579
1885.39764	0.98618
1883.34383	0.98618
1881.29002	0.98598
1879.23621	0.98551
1877.18240	0.98537
1875.12859	0.98580
1873.07478	0.98626
1871.02097	0.98637
1868.96716	0.98606
1866.91335	0.98550
1864.85954	0.98528
1862.80573	0.98565
1860.75192	0.98600
1858.69811	0.98585
1856.64430	0.98583
1854.59049	0.98604
1852.53668	0.98588
1850.48287	0.98544
1848.42906	0.98535
1846.37525	0.98568
1844.32144	0.98574
1842.26763	0.98568
1840.21382	0.98582
1838.16001	0.98579
1836.10620	0.98565
1834.05239	0.98555
1831.99858	0.98534
1829.94477	0.98497
1827.89096	0.98466
1825.83715	0.98452
1823.78334	0.98428
1821.72953	0.98392
1819.67572	0.98389
1817.62191	0.98425
1815.56810	0.98441
1813.51429	0.98420
1811.46048	0.98409
1809.40667	0.98397
1807.35286	0.98354
1805.29905	0.98306
1803.24524	0.98274
1801.19143	0.98258
1799.13762	0.98262
1797.08381	0.98267
1795.03000	0.98258
1792.97619	0.98252
1790.92238	0.98260
1788.86857	0.98244
1786.81476	0.98199
1784.76095	0.98175
1782.70714	0.98192
1780.65333	0.98205
1778.59952	0.98186
1776.54571	0.98163
1774.49190	0.98150
1772.43809	0.98118
1770.38428	0.98080
1768.33047	0.98059
1766.27666	0.98025
1764.22285	0.97959
1762.16904	0.97892
1760.11523	0.97866
1758.06142	0.97838
1756.00761	0.97759
1753.95380	0.97661
1751.89999	0.97579
1749.84618	0.97494
1747.79237	0.97377
1745.73856	0.97234
1743.68475	0.97082
1741.63094	0.96936
1739.57713	0.96806
1737.52332	0.96688
1735.46951	0.96559
1733.41570	0.96364
1731.36189	0.96156
1729.30808	0.95979
1727.25427	0.95828
1725.20046	0.95701
1723.14665	0.95612
1721.09284	0.95597
1719.03903	0.95648
1716.98522	0.95723
1714.93141	0.95747
1712.87760	0.95717
1710.82379	0.95647
1708.76998	0.95565
1706.71617	0.95447
1704.66236	0.95246
1702.60855	0.94992
1700.55474	0.94697
1698.50093	0.94409
1696.44712	0.94098
1694.39331	0.93717
1692.33950	0.93369
1690.28569	0.93008
1688.23188	0.92631
1686.17807	0.92290
1684.12426	0.91838
1682.07045	0.91339
1680.01664	0.90957
1677.96283	0.90631
1675.90902	0.90290
1673.85521	0.89923
1671.80140	0.89599
1669.74759	0.89260
1667.69378	0.88908
1665.63997	0.88622
1663.58616	0.88351
1661.53235	0.88040
1659.47854	0.87722
1657.42473	0.87431
1655.37092	0.87173
1653.31711	0.86936
1651.26330	0.86730
1649.20949	0.86578
1647.15568	0.86462
1645.10187	0.86367
1643.04806	0.86286
1640.99425	0.86225
1638.94044	0.86183
1636.88663	0.86167
1634.83282	0.86194
1632.77901	0.86201
1630.72520	0.86194
1628.67139	0.86233
1626.61758	0.86303
1624.56377	0.86384
1622.50996	0.86504
1620.45614	0.86603
1618.40233	0.86689
1616.34852	0.86843
1614.29471	0.86992
1612.24090	0.87076
1610.18709	0.87135
1608.13328	0.87173
1606.07947	0.87173
1604.02566	0.87150
1601.97185	0.87115
1599.91804	0.87068
1597.86423	0.87018
1595.81042	0.86985
1593.75661	0.86973
1591.70280	0.86967
1589.64899	0.86954
1587.59518	0.86947
1585.54137	0.86960
1583.48756	0.86989
1581.43375	0.87022
1579.37994	0.87075
1577.32613	0.87204
1575.27232	0.87403
1573.21851	0.87533
1571.16470	0.87654
1569.11089	0.87877
1567.05708	0.88100
1565.00327	0.88257
1562.94946	0.88354
1560.89565	0.88422
1558.84184	0.88567
1556.78803	0.88653
1554.73422	0.88655
1552.68041	0.88691
1550.62660	0.88742
1548.57279	0.88775
1546.51898	0.88799
1544.46517	0.88821
1542.41136	0.88854
1540.35755	0.88985
1538.30374	0.89176
1536.24993	0.89267
1534.19612	0.89356
1532.14231	0.89499
1530.08850	0.89626
1528.03469	0.89747
1525.98088	0.89872
1523.92707	0.89975
1521.87326	0.90086
1519.81945	0.90169
1517.76564	0.90227
1515.71183	0.90350
1513.65802	0.90505
1511.60421	0.90649
1509.55040	0.90805
1507.49659	0.91099
1505.44278	0.91481
1503.38897	0.91642
1501.33516	0.91718
1499.28135	0.91800
1497.22754	0.91904
1495.17373	0.91999
1493.11992	0.92043
1491.06611	0.92052
1489.01230	0.92044
1486.95849	0.91986
1484.90468	0.91846
1482.85087	0.91577
1480.79706	0.91055
1478.74325	0.89896
1476.68944	0.87001
1474.63563	0.81660
1472.58182	0.76614
1470.52801	0.76021
1468.47420	0.77759
1466.42039	0.78768
1464.36658	0.78255
1462.31277	0.78132
1460.25896	0.80079
1458.20515	0.83448
1456.15134	0.86307
1454.09753	0.87538
1452.04372	0.88209
1449.98991	0.88773
1447.93610	0.89247
1445.88229	0.89606
1443.82848	0.89848
1441.77467	0.90026
1439.72086	0.90167
1437.66705	0.90300
1435.61324	0.90416
1433.55943	0.90457
1431.50562	0.90472
1429.45181	0.90498
1427.39800	0.90509
1425.34419	0.90479
1423.29038	0.90408
1421.23657	0.90311
1419.18276	0.90229
1417.12895	0.90162
1415.07514	0.90095
1413.02133	0.90058
1410.96752	0.90074
1408.91371	0.90144
1406.85990	0.90247
1404.80609	0.90372
1402.75228	0.90490
1400.69847	0.90599
1398.64466	0.90728
1396.59085	0.90863
1394.53704	0.90989
1392.48323	0.91089
1390.42942	0.91170
1388.37561	0.91269
1386.32180	0.91382
1384.26799	0.91464
1382.21418	0.91495
1380.16037	0.91485
1378.10656	0.91475
1376.05275	0.91514
1373.99894	0.91589
1371.94513	0.91622
1369.89132	0.91606
1367.83751	0.91610
1365.78370	0.91663
1363.72989	0.91770
1361.67608	0.91908
1359.62227	0.92013
1357.56846	0.92084
1355.51465	0.92151
1353.46084	0.92220
1351.40703	0.92297
1349.35322	0.92376
1347.29941	0.92464
1345.24560	0.92572
1343.19179	0.92673
1341.13798	0.92739
1339.08417	0.92794
1337.03036	0.92863
1334.97655	0.92921
1332.92274	0.92940
1330.86893	0.92932
1328.81512	0.92915
1326.76130	0.92898
1324.70749	0.92868
1322.65368	0.92791
1320.59987	0.92681
1318.54606	0.92578
1316.49225	0.92503
1314.43844	0.92472
1312.38463	0.92479
1310.33082	0.92503
1308.27701	0.92534
1306.22320	0.92562
1304.16939	0.92595
1302.11558	0.92653
1300.06177	0.92721
1298.00796	0.92777
1295.95415	0.92825
1293.90034	0.92878
1291.84653	0.92908
1289.79272	0.92901
1287.73891	0.92872
1285.68510	0.92813
1283.63129	0.92714
1281.57748	0.92592
1279.52367	0.92454
1277.46986	0.92294
1275.41605	0.92120
1273.36224	0.91943
1271.30843	0.91768
1269.25462	0.91622
1267.20081	0.91546
1265.14700	0.91549
1263.09319	0.91612
1261.03938	0.91703
1258.98557	0.91783
1256.93176	0.91830
1254.87795	0.91840
1252.82414	0.91815
1250.77033	0.91756
1248.71652	0.91698
1246.66271	0.91695
1244.60890	0.91756
1242.55509	0.91842
1240.50128	0.91915
1238.44747	0.91972
1236.39366	0.92036
1234.33985	0.92119
1232.28604	0.92203
1230.23223	0.92289
1228.17842	0.92369
1226.12461	0.92419
1224.07080	0.92459
1222.01699	0.92511
1219.96318	0.92552
1217.90937	0.92575
1215.85556	0.92590
1213.80175	0.92600
1211.74794	0.92613
1209.69413	0.92619
1207.64032	0.92626
1205.58651	0.92642
1203.53270	0.92647
1201.47889	0.92637
1199.42508	0.92623
1197.37127	0.92609
1195.31746	0.92582
1193.26365	0.92540
1191.20984	0.92502
1189.15603	0.92456
1187.10222	0.92385
1185.04841	0.92308
1182.99460	0.92222
1180.94079	0.92119
1178.88698	0.92007
1176.83317	0.91883
1174.77936	0.91758
1172.72555	0.91643
1170.67174	0.91536
1168.61793	0.91438
1166.56412	0.91357
1164.51031	0.91281
1162.45650	0.91220
1160.40269	0.91205
1158.34888	0.91191
1156.29507	0.91117
1154.24126	0.91002
1152.18745	0.90881
1150.13364	0.90769
1148.07983	0.90668
1146.02602	0.90566
1143.97221	0.90434
1141.91840	0.90263
1139.86459	0.90047
1137.81078	0.89767
1135.75697	0.89417
1133.70316	0.89008
1131.64935	0.88556
1129.59554	0.88072
1127.54173	0.87585
1125.48792	0.87139
1123.43411	0.86745
1121.38030	0.86395
1119.32649	0.86123
1117.27268	0.85962
1115.21887	0.85896
1113.16506	0.85881
1111.11125	0.85854
1109.05744	0.85784
1107.00363	0.85680
1104.94982	0.85541
1102.89601	0.85384
1100.84220	0.85262
1098.78839	0.85185
1096.73458	0.85116
1094.68077	0.85031
1092.62696	0.84938
1090.57315	0.84848
1088.51934	0.84756
1086.46553	0.84671
1084.41172	0.84620
1082.35791	0.84597
1080.30410	0.84580
1078.25029	0.84576
1076.19648	0.84588
1074.14267	0.84608
1072.08886	0.84620
1070.03505	0.84587
1067.98124	0.84512
1065.92743	0.84431
1063.87362	0.84333
1061.81981	0.84210
1059.76600	0.84068
1057.71219	0.83885
1055.65838	0.83646
1053.60457	0.83352
1051.55076	0.83006
1049.49695	0.82639
1047.44314	0.82295
1045.38933	0.81999
1043.33552	0.81749
1041.28171	0.81538
1039.22790	0.81380
1037.17409	0.81281
1035.12028	0.81235
1033.06647	0.81260
1031.01265	0.81336
1028.95884	0.81421
1026.90503	0.81518
1024.85122	0.81624
1022.79741	0.81715
1020.74360	0.81770
1018.68979	0.81860
1016.63598	0.82067
1014.58217	0.82321
1012.52836	0.82549
1010.47455	0.82750
1008.42074	0.82940
1006.36693	0.83159
1004.31312	0.83409
1002.25931	0.83674
1000.20550	0.83976
998.15169	0.84310
996.09788	0.84668
994.04407	0.85046
991.99026	0.85410
989.93645	0.85754
987.88264	0.86101
985.82883	0.86457
983.77502	0.86826
981.72121	0.87185
979.66740	0.87514
977.61359	0.87834
975.55978	0.88141
973.50597	0.88427
971.45216	0.88697
969.39835	0.88960
967.34454	0.89225
965.29073	0.89460
963.23692	0.89654
961.18311	0.89837
959.12930	0.90018
957.07549	0.90193
955.02168	0.90355
952.96787	0.90496
950.91406	0.90626
948.86025	0.90737
946.80644	0.90813
944.75263	0.90868
942.69882	0.90918
940.64501	0.90960
938.59120	0.90984
936.53739	0.90973
934.48358	0.90936
932.42977	0.90895
930.37596	0.90859
928.32215	0.90843
926.26834	0.90834
924.21453	0.90816
922.16072	0.90801
920.10691	0.90786
918.05310	0.90765
915.99929	0.90719
913.94548	0.90636
911.89167	0.90560
909.83786	0.90533
907.78405	0.90603
905.73024	0.90794
903.67643	0.91055
901.62262	0.91330
899.56881	0.91581
897.51500	0.91786
895.46119	0.91952
893.40738	0.92080
891.35357	0.92165
889.29976	0.92209
887.24595	0.92247
885.19214	0.92304
883.13833	0.92350
881.08452	0.92338
879.03071	0.92257
876.97690	0.92185
874.92309	0.92168
872.86928	0.92165
870.81547	0.92162
868.76166	0.92159
866.70785	0.92140
864.65404	0.92089
862.60023	0.91999
860.54642	0.91909
858.49261	0.91873
856.43880	0.91872
854.38499	0.91891
852.33118	0.91961
850.27737	0.92073
848.22356	0.92169
846.16975	0.92258
844.11594	0.92359
842.06213	0.92405
840.00832	0.92355
837.95451	0.92271
835.90070	0.92183
833.84689	0.92094
831.79308	0.92024
829.73927	0.91992
827.68546	0.91984
825.63165	0.91942
823.57784	0.91845
821.52403	0.91746
819.47022	0.91702
817.41641	0.91716
815.36260	0.91699
813.30879	0.91578
811.25498	0.91368
809.20117	0.91144
807.14736	0.90929
805.09355	0.90690
803.03974	0.90446
800.98593	0.90258
798.93212	0.90119
796.87831	0.90016
794.82450	0.90003
792.77069	0.90060
790.71688	0.90080
788.66307	0.90043
786.60926	0.89989
784.55545	0.89889
782.50164	0.89752
780.44783	0.89657
778.39402	0.89637
776.34021	0.89670
774.28640	0.89722
772.23259	0.89792
770.17878	0.89871
768.12497	0.89942
766.07116	0.90004
764.01735	0.90014
761.96354	0.89952
759.90973	0.89862
757.85592	0.89803
755.80211	0.89803
753.74830	0.89805
751.69449	0.89725
749.64068	0.89604
747.58687	0.89545
745.53306	0.89521
743.47925	0.89470
741.42544	0.89374
739.37163	0.89150
737.31781	0.88610
735.26400	0.87255
733.21019	0.84446
731.15638	0.81299
729.10257	0.80383
727.04876	0.81468
724.99495	0.81802
722.94114	0.79811
720.88733	0.75767
718.83352	0.72041
716.77971	0.71453
714.72590	0.74254
712.67209	0.78446
710.61828	0.81807
708.56447	0.83698
706.51066	0.84693
704.45685	0.85278
702.40304	0.85621
700.34923	0.85808
698.29542	0.85862
696.24161	0.85867
694.18780	0.85935
692.13399	0.85980
690.08018	0.85954
688.02637	0.85973
685.97256	0.86023
683.91875	0.86047
681.86494	0.86079
679.81113	0.86115
677.75732	0.86123
675.70351	0.86105
673.64970	0.86067
671.59589	0.85967
669.54208	0.85863
667.48827	0.85913
665.43446	0.85999
663.38065	0.86017
661.32684	0.86009
659.27303	0.86015
657.21922	0.86058
655.16541	0.86098
653.11160	0.86160
651.05779	0.86240
649.00398	0.86234
646.95017	0.86178
644.89636	0.86161
642.84255	0.86164
640.78874	0.86114
638.73493	0.86001
636.68112	0.85934
634.62731	0.85920
632.57350	0.85841
630.51969	0.85743
628.46588	0.85732
626.41207	0.85700
624.35826	0.85598
622.30445	0.85538
620.25064	0.85512
618.19683	0.85486
616.14302	0.85460
614.08921	0.85374
612.03540	0.85315
609.98159	0.85331
607.92778	0.85312
605.87397	0.85282
603.82016	0.85265
601.76635	0.85192
599.71254	0.85084
597.65873	0.85042
595.60492	0.85010
593.55111	0.84882
591.49730	0.84702
589.44349	0.84522
587.38968	0.84394
585.33587	0.84292
583.28206	0.84162
581.22825	0.83990
579.17444	0.83795
577.12063	0.83684
575.06682	0.83676
573.01301	0.83619
570.95920	0.83493
568.90539	0.83455
566.85158	0.83416
564.79777	0.83192
562.74396	0.82895
560.69015	0.82666
558.63634	0.82524
556.58253	0.82434
554.52872	0.82301
552.47491	0.82122
550.42110	0.82013
548.36729	0.81925
546.31348	0.81666
544.25967	0.81299
542.20586	0.80992
540.15205	0.80753
538.09824	0.80597
536.04443	0.80529
533.99062	0.80508
531.93681	0.80479
529.88300	0.80447
527.82919	0.80451
525.77538	0.80515
523.72157	0.80676
521.66776	0.80827
519.61395	0.80873
517.56014	0.80930
515.50633	0.81102
513.45252	0.81331
511.39871	0.81524
509.34490	0.81647
507.29109	0.81710
505.23728	0.81767
503.18347	0.81874
501.12966	0.82001
499.07585	0.82101
497.02204	0.82109
494.96823	0.82037
492.91442	0.81978
490.86061	0.81901
488.80680	0.81794
486.75299	0.81714
484.69918	0.81512
482.64537	0.81084
480.59156	0.80549
478.53775	0.79963
476.48394	0.79408
474.43013	0.78893
472.37632	0.78341
470.32251	0.77873
468.26870	0.77509
466.21489	0.77280
464.16108	0.77319
462.10727	0.77573
460.05346	0.77962
457.99965	0.78322
455.94584	0.78470
453.89203	0.78704
451.83822	0.79131
449.78441	0.79404
447.73060	0.79599
445.67679	0.79923
443.62298	0.80166
441.56916	0.80165
439.51535	0.79949
437.46154	0.79640
435.40773	0.79653
433.35392	0.80095
431.30011	0.80529
429.24630	0.80811
427.19249	0.80924
425.13868	0.80872
423.08487	0.80995
421.03106	0.81373
418.97725	0.81633
416.92344	0.81782
414.86963	0.82047
412.81582	0.82384
410.76201	0.82702
408.70820	0.82989
406.65439	0.83418
404.60058	0.83946
402.54677	0.84214
400.49296	0.83976
398.43915	0.83387
