3996.70104	0.96052
3994.64724	0.96019
3992.59344	0.95997
3990.53964	0.95989
3988.48583	0.95997
3986.43203	0.96004
3984.37823	0.95975
3982.32442	0.95957
3980.27062	0.96007
3978.21682	0.96095
3976.16301	0.96140
3974.10921	0.96087
3972.05541	0.95996
3970.00160	0.95979
3967.94780	0.96036
3965.89400	0.96092
3963.84019	0.96104
3961.78639	0.96088
3959.73259	0.96079
3957.67878	0.96070
3955.62498	0.96092
3953.57118	0.96147
3951.51737	0.96161
3949.46357	0.96151
3947.40977	0.96129
3945.35596	0.96086
3943.30216	0.96060
3941.24836	0.96059
3939.19455	0.96073
3937.14075	0.96079
3935.08695	0.96072
3933.03315	0.96096
3930.97934	0.96156
3928.92554	0.96203
3926.87174	0.96228
3924.81793	0.96247
3922.76413	0.96258
3920.71033	0.96227
3918.65652	0.96157
3916.60272	0.96088
3914.54892	0.96072
3912.49511	0.96098
3910.44131	0.96105
3908.38751	0.96115
3906.33370	0.96159
3904.27990	0.96229
3902.22610	0.96259
3900.17229	0.96179
3898.11849	0.96092
3896.06469	0.96088
3894.01088	0.96116
3891.95708	0.96136
3889.90328	0.96161
3887.84947	0.96171
3885.79567	0.96143
3883.74187	0.96130
3881.68807	0.96175
3879.63426	0.96195
3877.58046	0.96165
3875.52666	0.96161
3873.47285	0.96209
3871.41905	0.96242
3869.36525	0.96212
3867.31144	0.96218
3865.25764	0.96248
3863.20384	0.96204
3861.15003	0.96177
3859.09623	0.96211
3857.04243	0.96231
3854.98862	0.96217
3852.93482	0.96174
3850.88102	0.96155
3848.82721	0.96172
3846.77341	0.96226
3844.71961	0.96300
3842.66580	0.96336
3840.61200	0.96373
3838.55820	0.96367
3836.50439	0.96238
3834.45059	0.96218
3832.39679	0.96319
3830.34298	0.96347
3828.28918	0.96290
3826.23538	0.96234
3824.18158	0.96201
3822.12777	0.96171
3820.07397	0.96168
3818.02017	0.96209
3815.96636	0.96229
3813.91256	0.96254
3811.85876	0.96314
3809.80495	0.96370
3807.75115	0.96390
3805.69735	0.96331
3803.64354	0.96250
3801.58974	0.96215
3799.53594	0.96236
3797.48213	0.96279
3795.42833	0.96279
3793.37453	0.96242
3791.32072	0.96214
3789.26692	0.96210
3787.21312	0.96217
3785.15931	0.96238
3783.10551	0.96271
3781.05171	0.96288
3778.99790	0.96279
3776.94410	0.96281
3774.89030	0.96327
3772.83650	0.96380
3770.78269	0.96390
3768.72889	0.96376
3766.67509	0.96377
3764.62128	0.96365
3762.56748	0.96320
3760.51368	0.96284
3758.45987	0.96310
3756.40607	0.96393
3754.35227	0.96486
3752.29846	0.96541
3750.24466	0.96536
3748.19086	0.96478
3746.13705	0.96366
3744.08325	0.96288
3742.02945	0.96324
3739.97564	0.96381
3737.92184	0.96416
3735.86804	0.96374
3733.81423	0.96307
3731.76043	0.96342
3729.70663	0.96409
3727.65282	0.96427
3725.59902	0.96372
3723.54522	0.96301
3721.49141	0.96308
3719.43761	0.96352
3717.38381	0.96346
3715.33001	0.96305
3713.27620	0.96306
3711.22240	0.96365
3709.16860	0.96339
3707.11479	0.96237
3705.06099	0.96190
3703.00719	0.96160
3700.95338	0.96073
3698.89958	0.95999
3696.84578	0.96003
3694.79197	0.96075
3692.73817	0.96160
3690.68437	0.96195
3688.63056	0.96195
3686.57676	0.96195
3684.52296	0.96209
3682.46915	0.96228
3680.41535	0.96203
3678.36155	0.96164
3676.30774	0.96080
3674.25394	0.95902
3672.20014	0.95780
3670.14633	0.95755
3668.09253	0.95863
3666.03873	0.95968
3663.98492	0.95945
3661.93112	0.95842
3659.87732	0.95737
3657.82352	0.95648
3655.76971	0.95595
3653.71591	0.95614
3651.66211	0.95669
3649.60830	0.95635
3647.55450	0.95522
3645.50070	0.95489
3643.44689	0.95479
3641.39309	0.95454
3639.33929	0.95403
3637.28548	0.95289
3635.23168	0.95128
3633.17788	0.95011
3631.12407	0.94989
3629.07027	0.94944
3627.01647	0.94845
3624.96266	0.94836
3622.90886	0.94843
3620.85506	0.94757
3618.80125	0.94660
3616.74745	0.94670
3614.69365	0.94668
3612.63984	0.94632
3610.58604	0.94625
3608.53224	0.94579
3606.47844	0.94525
3604.42463	0.94506
3602.37083	0.94450
3600.31703	0.94398
3598.26322	0.94378
3596.20942	0.94335
3594.15562	0.94276
3592.10181	0.94240
3590.04801	0.94220
3587.99421	0.94181
3585.94040	0.94143
3583.88660	0.94138
3581.83280	0.94103
3579.77899	0.93995
3577.72519	0.93856
3575.67139	0.93789
3573.61758	0.93821
3571.56378	0.93811
3569.50998	0.93693
3567.45617	0.93579
3565.40237	0.93545
3563.34857	0.93528
3561.29476	0.93481
3559.24096	0.93422
3557.18716	0.93362
3555.13335	0.93312
3553.07955	0.93273
3551.02575	0.93233
3548.97195	0.93198
3546.91814	0.93145
3544.86434	0.93060
3542.81054	0.92991
3540.75673	0.92950
3538.70293	0.92911
3536.64913	0.92838
3534.59532	0.92729
3532.54152	0.92655
3530.48772	0.92649
3528.43391	0.92635
3526.38011	0.92585
3524.32631	0.92554
3522.27250	0.92539
3520.21870	0.92499
3518.16490	0.92418
3516.11109	0.92339
3514.05729	0.92289
3512.00349	0.92200
3509.94968	0.92079
3507.89588	0.92005
3505.84208	0.91993
3503.78827	0.91990
3501.73447	0.91933
3499.68067	0.91830
3497.62687	0.91755
3495.57306	0.91719
3493.51926	0.91667
3491.46546	0.91630
3489.41165	0.91607
3487.35785	0.91530
3485.30405	0.91442
3483.25024	0.91387
3481.19644	0.91347
3479.14264	0.91291
3477.08883	0.91223
3475.03503	0.91162
3472.98123	0.91105
3470.92742	0.91058
3468.87362	0.90988
3466.81982	0.90890
3464.76601	0.90835
3462.71221	0.90790
3460.65841	0.90707
3458.60460	0.90628
3456.55080	0.90574
3454.49700	0.90527
3452.44319	0.90476
3450.38939	0.90412
3448.33559	0.90362
3446.28178	0.90341
3444.22798	0.90305
3442.17418	0.90207
3440.12038	0.90094
3438.06657	0.90034
3436.01277	0.89973
3433.95897	0.89902
3431.90516	0.89884
3429.85136	0.89875
3427.79756	0.89805
3425.74375	0.89705
3423.68995	0.89630
3421.63615	0.89554
3419.58234	0.89478
3417.52854	0.89447
3415.47474	0.89417
3413.42093	0.89345
3411.36713	0.89289
3409.31333	0.89305
3407.25952	0.89300
3405.20572	0.89199
3403.15192	0.89107
3401.09811	0.89070
3399.04431	0.89055
3396.99051	0.89051
3394.93670	0.89024
3392.88290	0.88981
3390.82910	0.88956
3388.77529	0.88942
3386.72149	0.88910
3384.66769	0.88842
3382.61389	0.88750
3380.56008	0.88680
3378.50628	0.88646
3376.45248	0.88611
3374.39867	0.88597
3372.34487	0.88599
3370.29107	0.88542
3368.23726	0.88453
3366.18346	0.88419
3364.12966	0.88426
3362.07585	0.88429
3360.02205	0.88442
3357.96825	0.88465
3355.91444	0.88460
3353.86064	0.88413
3351.80684	0.88339
3349.75303	0.88276
3347.69923	0.88258
3345.64543	0.88250
3343.59162	0.88209
3341.53782	0.88178
3339.48402	0.88183
3337.43021	0.88193
3335.37641	0.88215
3333.32261	0.88239
3331.26881	0.88258
3329.21500	0.88285
3327.16120	0.88309
3325.10740	0.88343
3323.05359	0.88363
3320.99979	0.88343
3318.94599	0.88307
3316.89218	0.88244
3314.83838	0.88188
3312.78458	0.88236
3310.73077	0.88314
3308.67697	0.88283
3306.62317	0.88216
3304.56936	0.88210
3302.51556	0.88236
3300.46176	0.88274
3298.40795	0.88330
3296.35415	0.88363
3294.30035	0.88357
3292.24654	0.88352
3290.19274	0.88375
3288.13894	0.88407
3286.08513	0.88426
3284.03133	0.88434
3281.97753	0.88443
3279.92372	0.88484
3277.86992	0.88540
3275.81612	0.88570
3273.76232	0.88574
3271.70851	0.88558
3269.65471	0.88549
3267.60091	0.88605
3265.54710	0.88704
3263.49330	0.88774
3261.43950	0.88824
3259.38569	0.88857
3257.33189	0.88848
3255.27809	0.88825
3253.22428	0.88843
3251.17048	0.88908
3249.11668	0.88969
3247.06287	0.89017
3245.00907	0.89065
3242.95527	0.89092
3240.90146	0.89098
3238.84766	0.89105
3236.79386	0.89148
3234.74005	0.89251
3232.68625	0.89367
3230.63245	0.89435
3228.57864	0.89446
3226.52484	0.89422
3224.47104	0.89429
3222.41724	0.89501
3220.36343	0.89583
3218.30963	0.89637
3216.25583	0.89661
3214.20202	0.89657
3212.14822	0.89689
3210.09442	0.89769
3208.04061	0.89836
3205.98681	0.89909
3203.93301	0.90002
3201.87920	0.90067
3199.82540	0.90093
3197.77160	0.90114
3195.71779	0.90158
3193.66399	0.90228
3191.61019	0.90293
3189.55638	0.90318
3187.50258	0.90335
3185.44878	0.90379
3183.39497	0.90410
3181.34117	0.90442
3179.28737	0.90516
3177.23356	0.90573
3175.17976	0.90584
3173.12596	0.90618
3171.07215	0.90709
3169.01835	0.90792
3166.96455	0.90831
3164.91075	0.90879
3162.85694	0.90952
3160.80314	0.91034
3158.74934	0.91111
3156.69553	0.91146
3154.64173	0.91162
3152.58793	0.91213
3150.53412	0.91280
3148.48032	0.91343
3146.42652	0.91397
3144.37271	0.91417
3142.31891	0.91417
3140.26511	0.91448
3138.21130	0.91513
3136.15750	0.91589
3134.10370	0.91678
3132.04989	0.91752
3129.99609	0.91784
3127.94229	0.91790
3125.88848	0.91796
3123.83468	0.91836
3121.78088	0.91864
3119.72707	0.91866
3117.67327	0.91914
3115.61947	0.91999
3113.56566	0.92035
3111.51186	0.92007
3109.45806	0.92011
3107.40426	0.92118
3105.35045	0.92218
3103.29665	0.92208
3101.24285	0.92203
3099.18904	0.92270
3097.13524	0.92297
3095.08144	0.92269
3093.02763	0.92286
3090.97383	0.92357
3088.92003	0.92415
3086.86622	0.92440
3084.81242	0.92469
3082.75862	0.92540
3080.70481	0.92600
3078.65101	0.92613
3076.59721	0.92618
3074.54340	0.92652
3072.48960	0.92720
3070.43580	0.92790
3068.38199	0.92835
3066.32819	0.92839
3064.27439	0.92824
3062.22058	0.92831
3060.16678	0.92859
3058.11298	0.92888
3056.05918	0.92925
3054.00537	0.92985
3051.95157	0.93050
3049.89777	0.93096
3047.84396	0.93130
3045.79016	0.93162
3043.73636	0.93190
3041.68255	0.93201
3039.62875	0.93187
3037.57495	0.93206
3035.52114	0.93293
3033.46734	0.93364
3031.41354	0.93374
3029.35973	0.93350
3027.30593	0.93315
3025.25213	0.93292
3023.19832	0.93322
3021.14452	0.93403
3019.09072	0.93460
3017.03691	0.93478
3014.98311	0.93509
3012.92931	0.93539
3010.87550	0.93556
3008.82170	0.93597
3006.76790	0.93650
3004.71409	0.93653
3002.66029	0.93610
3000.60649	0.93573
2998.55269	0.93565
2996.49888	0.93586
2994.44508	0.93616
2992.39128	0.93628
2990.33747	0.93604
2988.28367	0.93558
2986.22987	0.93528
2984.17606	0.93513
2982.12226	0.93510
2980.06846	0.93524
2978.01465	0.93538
2975.96085	0.93530
2973.90705	0.93482
2971.85324	0.93391
2969.79944	0.93294
2967.74564	0.93272
2965.69183	0.93315
2963.63803	0.93310
2961.58423	0.93258
2959.53042	0.93240
2957.47662	0.93246
2955.42282	0.93228
2953.36901	0.93184
2951.31521	0.93132
2949.26141	0.93093
2947.20761	0.93084
2945.15380	0.93053
2943.10000	0.92979
2941.04620	0.92930
2938.99239	0.92916
2936.93859	0.92889
2934.88479	0.92843
2932.83098	0.92823
2930.77718	0.92840
2928.72338	0.92868
2926.66957	0.92879
2924.61577	0.92868
2922.56197	0.92874
2920.50816	0.92901
2918.45436	0.92897
2916.40056	0.92860
2914.34675	0.92840
2912.29295	0.92866
2910.23915	0.92908
2908.18534	0.92922
2906.13154	0.92923
2904.07774	0.92950
2902.02393	0.92997
2899.97013	0.93028
2897.91633	0.93015
2895.86252	0.92978
2893.80872	0.92978
2891.75492	0.93024
2889.70112	0.93071
2887.64731	0.93098
2885.59351	0.93123
2883.53971	0.93150
2881.48590	0.93171
2879.43210	0.93197
2877.37830	0.93231
2875.32449	0.93252
2873.27069	0.93261
2871.21689	0.93286
2869.16308	0.93352
2867.10928	0.93419
2865.05548	0.93451
2863.00167	0.93448
2860.94787	0.93437
2858.89407	0.93456
2856.84026	0.93489
2854.78646	0.93499
2852.73266	0.93479
2850.67885	0.93478
2848.62505	0.93530
2846.57125	0.93598
2844.51744	0.93655
2842.46364	0.93705
2840.40984	0.93731
2838.35603	0.93755
2836.30223	0.93818
2834.24843	0.93887
2832.19463	0.93920
2830.14082	0.93961
2828.08702	0.94041
2826.03322	0.94136
2823.97941	0.94204
2821.92561	0.94211
2819.87181	0.94194
2817.81800	0.94196
2815.76420	0.94187
2813.71040	0.94189
2811.65659	0.94255
2809.60279	0.94337
2807.54899	0.94369
2805.49518	0.94381
2803.44138	0.94423
2801.38758	0.94456
2799.33377	0.94443
2797.27997	0.94416
2795.22617	0.94405
2793.17236	0.94435
2791.11856	0.94479
2789.06476	0.94492
2787.01095	0.94494
2784.95715	0.94504
2782.90335	0.94534
2780.84955	0.94588
2778.79574	0.94632
2776.74194	0.94637
2774.68814	0.94626
2772.63433	0.94641
2770.58053	0.94683
2768.52673	0.94713
2766.47292	0.94744
2764.41912	0.94781
2762.36532	0.94749
2760.31151	0.94691
2758.25771	0.94704
2756.20391	0.94744
2754.15010	0.94762
2752.09630	0.94768
2750.04250	0.94760
2747.98869	0.94745
2745.93489	0.94736
2743.88109	0.94750
2741.82728	0.94786
2739.77348	0.94802
2737.71968	0.94802
2735.66587	0.94806
2733.61207	0.94801
2731.55827	0.94781
2729.50446	0.94767
2727.45066	0.94782
2725.39686	0.94811
2723.34306	0.94820
2721.28925	0.94814
2719.23545	0.94823
2717.18165	0.94851
2715.12784	0.94890
2713.07404	0.94937
2711.02024	0.94964
2708.96643	0.94953
2706.91263	0.94945
2704.85883	0.94960
2702.80502	0.94951
2700.75122	0.94930
2698.69742	0.94957
2696.64361	0.95008
2694.58981	0.95021
2692.53601	0.95013
2690.48220	0.95015
2688.42840	0.95029
2686.37460	0.95038
2684.32079	0.95021
2682.26699	0.95013
2680.21319	0.95026
2678.15938	0.95016
2676.10558	0.95004
2674.05178	0.95025
2671.99797	0.95036
2669.94417	0.95024
2667.89037	0.95035
2665.83657	0.95088
2663.78276	0.95143
2661.72896	0.95157
2659.67516	0.95139
2657.62135	0.95123
2655.56755	0.95116
2653.51375	0.95093
2651.45994	0.95059
2649.40614	0.95076
2647.35234	0.95142
2645.29853	0.95186
2643.24473	0.95185
2641.19093	0.95181
2639.13712	0.95174
2637.08332	0.95162
2635.02952	0.95169
2632.97571	0.95220
2630.92191	0.95261
2628.86811	0.95234
2626.81430	0.95185
2624.76050	0.95149
2622.70670	0.95158
2620.65289	0.95207
2618.59909	0.95254
2616.54529	0.95292
2614.49149	0.95303
2612.43768	0.95313
2610.38388	0.95350
2608.33008	0.95383
2606.27627	0.95382
2604.22247	0.95359
2602.16867	0.95334
2600.11486	0.95308
2598.06106	0.95287
2596.00726	0.95308
2593.95345	0.95372
2591.89965	0.95428
2589.84585	0.95440
2587.79204	0.95418
2585.73824	0.95403
2583.68444	0.95436
2581.63063	0.95510
2579.57683	0.95562
2577.52303	0.95536
2575.46922	0.95479
2573.41542	0.95464
2571.36162	0.95451
2569.30781	0.95413
2567.25401	0.95426
2565.20021	0.95511
2563.14640	0.95569
2561.09260	0.95537
2559.03880	0.95462
2556.98500	0.95426
2554.93119	0.95471
2552.87739	0.95508
2550.82359	0.95494
2548.76978	0.95479
2546.71598	0.95484
2544.66218	0.95529
2542.60837	0.95575
2540.55457	0.95581
2538.50077	0.95579
2536.44696	0.95593
2534.39316	0.95595
2532.33936	0.95560
2530.28555	0.95531
2528.23175	0.95567
2526.17795	0.95656
2524.12414	0.95742
2522.07034	0.95775
2520.01654	0.95722
2517.96273	0.95634
2515.90893	0.95640
2513.85513	0.95744
2511.80132	0.95791
2509.74752	0.95713
2507.69372	0.95592
2505.63992	0.95544
2503.58611	0.95603
2501.53231	0.95705
2499.47851	0.95760
2497.42470	0.95738
2495.37090	0.95717
2493.31710	0.95722
2491.26329	0.95732
2489.20949	0.95760
2487.15569	0.95805
2485.10188	0.95825
2483.04808	0.95803
2480.99428	0.95782
2478.94047	0.95803
2476.88667	0.95839
2474.83287	0.95838
2472.77906	0.95804
2470.72526	0.95784
2468.67146	0.95773
2466.61765	0.95729
2464.56385	0.95710
2462.51005	0.95752
2460.45624	0.95771
2458.40244	0.95754
2456.34864	0.95742
2454.29483	0.95748
2452.24103	0.95779
2450.18723	0.95850
2448.13343	0.95905
2446.07962	0.95875
2444.02582	0.95801
2441.97202	0.95746
2439.91821	0.95735
2437.86441	0.95790
2435.81061	0.95857
2433.75680	0.95853
2431.70300	0.95822
2429.64920	0.95803
2427.59539	0.95740
2425.54159	0.95674
2423.48779	0.95683
2421.43398	0.95731
2419.38018	0.95790
2417.32638	0.95825
2415.27257	0.95799
2413.21877	0.95756
2411.16497	0.95756
2409.11116	0.95797
2407.05736	0.95850
2405.00356	0.95899
2402.94975	0.95916
2400.89595	0.95889
2398.84215	0.95865
2396.78834	0.95868
2394.73454	0.95858
2392.68074	0.95840
2390.62694	0.95851
2388.57313	0.95906
2386.51933	0.95980
2384.46553	0.95998
2382.41172	0.95968
2380.35792	0.95995
2378.30412	0.96135
2376.25031	0.96268
2374.19651	0.96224
2372.14271	0.96056
2370.08890	0.95936
2368.03510	0.95906
2365.98130	0.95875
2363.92749	0.95799
2361.87369	0.95753
2359.81989	0.95793
2357.76608	0.95879
2355.71228	0.95972
2353.65848	0.95998
2351.60467	0.95945
2349.55087	0.95907
2347.49707	0.95904
2345.44326	0.95918
2343.38946	0.95977
2341.33566	0.96030
2339.28186	0.95987
2337.22805	0.95886
2335.17425	0.95807
2333.12045	0.95805
2331.06664	0.95885
2329.01284	0.95949
2326.95904	0.95886
2324.90523	0.95768
2322.85143	0.95760
2320.79763	0.95830
2318.74382	0.95860
2316.69002	0.95901
2314.63622	0.95987
2312.58241	0.96040
2310.52861	0.96057
2308.47481	0.96060
2306.42100	0.96061
2304.36720	0.96090
2302.31340	0.96088
2300.25959	0.96045
2298.20579	0.95991
2296.15199	0.95924
2294.09818	0.95864
2292.04438	0.95822
2289.99058	0.95810
2287.93677	0.95823
2285.88297	0.95863
2283.82917	0.95924
2281.77537	0.95961
2279.72156	0.95954
2277.66776	0.95897
2275.61396	0.95864
2273.56015	0.95905
2271.50635	0.95960
2269.45255	0.95963
2267.39874	0.95941
2265.34494	0.95959
2263.29114	0.96021
2261.23733	0.96099
2259.18353	0.96131
2257.12973	0.96129
2255.07592	0.96136
2253.02212	0.96092
2250.96832	0.95971
2248.91451	0.95932
2246.86071	0.96053
2244.80691	0.96197
2242.75310	0.96238
2240.69930	0.96146
2238.64550	0.96048
2236.59169	0.96008
2234.53789	0.96004
2232.48409	0.96075
2230.43029	0.96183
2228.37648	0.96196
2226.32268	0.96098
2224.26888	0.96102
2222.21507	0.96228
2220.16127	0.96292
2218.10747	0.96238
2216.05366	0.96115
2213.99986	0.96038
2211.94606	0.96075
2209.89225	0.96127
2207.83845	0.96108
2205.78465	0.96100
2203.73084	0.96127
2201.67704	0.96153
2199.62324	0.96154
2197.56943	0.96175
2195.51563	0.96283
2193.46183	0.96196
2191.40802	0.95928
2189.35422	0.95905
2187.30042	0.96014
2185.24661	0.95990
2183.19281	0.95937
2181.13901	0.95992
2179.08520	0.96076
2177.03140	0.96141
2174.97760	0.96222
2172.92380	0.96179
2170.86999	0.96101
2168.81619	0.96251
2166.76239	0.96460
2164.70858	0.96419
2162.65478	0.96306
2160.60098	0.96406
2158.54717	0.96538
2156.49337	0.96380
2154.43957	0.96132
2152.38576	0.96164
2150.33196	0.96339
2148.27816	0.96434
2146.22435	0.96467
2144.17055	0.96430
2142.11675	0.96369
2140.06294	0.96335
2138.00914	0.96299
2135.95534	0.96335
2133.90153	0.96579
2131.84773	0.96791
2129.79393	0.96695
2127.74012	0.96508
2125.68632	0.96428
2123.63252	0.96302
2121.57871	0.96170
2119.52491	0.96198
2117.47111	0.96226
2115.41731	0.96172
2113.36350	0.96163
2111.30970	0.96210
2109.25590	0.96204
2107.20209	0.96200
2105.14829	0.96376
2103.09449	0.96554
2101.04068	0.96447
2098.98688	0.96217
2096.93308	0.96182
2094.87927	0.96324
2092.82547	0.96441
2090.77167	0.96394
2088.71786	0.96175
2086.66406	0.95976
2084.61026	0.95989
2082.55645	0.96139
2080.50265	0.96276
2078.44885	0.96376
2076.39504	0.96446
2074.34124	0.96497
2072.28744	0.96465
2070.23363	0.96377
2068.17983	0.96334
2066.12603	0.96328
2064.07223	0.96384
2062.01842	0.96364
2059.96462	0.96203
2057.91082	0.96182
2055.85701	0.96340
2053.80321	0.96331
2051.74941	0.96131
2049.69560	0.96165
2047.64180	0.96484
2045.58800	0.96653
2043.53419	0.96705
2041.48039	0.96862
2039.42659	0.96877
2037.37278	0.96750
2035.31898	0.96675
2033.26518	0.96618
2031.21137	0.96541
2029.15757	0.96491
2027.10377	0.96475
2025.04996	0.96258
2022.99616	0.95966
2020.94236	0.96009
2018.88855	0.96295
2016.83475	0.96609
2014.78095	0.96811
2012.72714	0.96840
2010.67334	0.96821
2008.61954	0.96746
2006.56574	0.96607
2004.51193	0.96550
2002.45813	0.96602
2000.40433	0.96587
1998.35052	0.96581
1996.29672	0.96796
1994.24292	0.96950
1992.18911	0.96819
1990.13531	0.96664
1988.08151	0.96604
1986.02770	0.96539
1983.97390	0.96553
1981.92010	0.96748
1979.86629	0.96899
1977.81249	0.96809
1975.75869	0.96597
1973.70488	0.96387
1971.65108	0.96229
1969.59728	0.96206
1967.54347	0.96427
1965.48967	0.96691
1963.43587	0.96804
1961.38206	0.96811
1959.32826	0.96719
1957.27446	0.96687
1955.22066	0.96805
1953.16685	0.96903
1951.11305	0.96894
1949.05925	0.96965
1947.00544	0.97148
1944.95164	0.97123
1942.89784	0.96864
1940.84403	0.96627
1938.79023	0.96507
1936.73643	0.96574
1934.68262	0.96757
1932.62882	0.96839
1930.57502	0.96801
1928.52121	0.96789
1926.46741	0.96864
1924.41361	0.96919
1922.35980	0.96884
1920.30600	0.96797
1918.25220	0.96731
1916.19839	0.96747
1914.14459	0.96786
1912.09079	0.96797
1910.03698	0.96869
1907.98318	0.96985
1905.92938	0.97027
1903.87557	0.96999
1901.82177	0.96905
1899.76797	0.96801
1897.71417	0.96833
1895.66036	0.96963
1893.60656	0.97002
1891.55276	0.96944
1889.49895	0.96875
1887.44515	0.96792
1885.39135	0.96728
1883.33754	0.96737
1881.28374	0.96811
1879.22994	0.96869
1877.17613	0.96897
1875.12233	0.96917
1873.06853	0.96892
1871.01472	0.96869
1868.96092	0.96887
1866.90712	0.96875
1864.85331	0.96827
1862.79951	0.96813
1860.74571	0.96832
1858.69190	0.96847
1856.63810	0.96858
1854.58430	0.96844
1852.53049	0.96800
1850.47669	0.96809
1848.42289	0.96893
1846.36908	0.96955
1844.31528	0.96955
1842.26148	0.96929
1840.20768	0.96891
1838.15387	0.96848
1836.10007	0.96819
1834.04627	0.96810
1831.99246	0.96839
1829.93866	0.96876
1827.88486	0.96863
1825.83105	0.96868
1823.77725	0.96928
1821.72345	0.96948
1819.66964	0.96914
1817.61584	0.96904
1815.56204	0.96910
1813.50823	0.96887
1811.45443	0.96857
1809.40063	0.96847
1807.34682	0.96854
1805.29302	0.96834
1803.23922	0.96779
1801.18541	0.96778
1799.13161	0.96862
1797.07781	0.96909
1795.02400	0.96922
1792.97020	0.96947
1790.91640	0.96937
1788.86260	0.96940
1786.80879	0.96968
1784.75499	0.96963
1782.70119	0.96930
1780.64738	0.96897
1778.59358	0.96861
1776.53978	0.96854
1774.48597	0.96881
1772.43217	0.96864
1770.37837	0.96796
1768.32456	0.96769
1766.27076	0.96773
1764.21696	0.96756
1762.16315	0.96727
1760.10935	0.96712
1758.05555	0.96684
1756.00174	0.96609
1753.94794	0.96537
1751.89414	0.96503
1749.84033	0.96481
1747.78653	0.96437
1745.73273	0.96343
1743.67892	0.96230
1741.62512	0.96171
1739.57132	0.96155
1737.51751	0.96103
1735.46371	0.96033
1733.40991	0.96013
1731.35611	0.96017
1729.30230	0.95967
1727.24850	0.95916
1725.19470	0.95904
1723.14089	0.95874
1721.08709	0.95830
1719.03329	0.95826
1716.97948	0.95853
1714.92568	0.95826
1712.87188	0.95784
1710.81807	0.95749
1708.76427	0.95716
1706.71047	0.95675
1704.65666	0.95600
1702.60286	0.95528
1700.54906	0.95438
1698.49525	0.95288
1696.44145	0.95110
1694.38765	0.94884
1692.33384	0.94665
1690.28004	0.94440
1688.22624	0.94238
1686.17243	0.94118
1684.11863	0.93910
1682.06483	0.93559
1680.01103	0.93268
1677.95722	0.93030
1675.90342	0.92776
1673.84962	0.92496
1671.79581	0.92277
1669.74201	0.92054
1667.68821	0.91787
1665.63440	0.91552
1663.58060	0.91295
1661.52680	0.91015
1659.47299	0.90797
1657.41919	0.90660
1655.36539	0.90604
1653.31158	0.90485
1651.25778	0.90224
1649.20398	0.90071
1647.15017	0.89939
1645.09637	0.89829
1643.04257	0.89783
1640.98876	0.89730
1638.93496	0.89692
1636.88116	0.89673
1634.82735	0.89580
1632.77355	0.89498
1630.71975	0.89505
1628.66594	0.89567
1626.61214	0.89624
1624.55834	0.89641
1622.50454	0.89673
1620.45073	0.89739
1618.39693	0.89765
1616.34313	0.89731
1614.28932	0.89713
1612.23552	0.89722
1610.18172	0.89718
1608.12791	0.89679
1606.07411	0.89622
1604.02031	0.89574
1601.96650	0.89521
1599.91270	0.89457
1597.85890	0.89404
1595.80509	0.89372
1593.75129	0.89377
1591.69749	0.89461
1589.64368	0.89628
1587.58988	0.89834
1585.53608	0.90066
1583.48227	0.90322
1581.42847	0.90578
1579.37467	0.90811
1577.32086	0.91037
1575.26706	0.91274
1573.21326	0.91497
1571.15945	0.91705
1569.10565	0.91863
1567.05185	0.91943
1564.99805	0.92008
1562.94424	0.92081
1560.89044	0.92163
1558.83664	0.92248
1556.78283	0.92290
1554.72903	0.92325
1552.67523	0.92378
1550.62142	0.92410
1548.56762	0.92401
1546.51382	0.92418
1544.46001	0.92504
1542.40621	0.92629
1540.35241	0.92712
1538.29860	0.92726
1536.24480	0.92771
1534.19100	0.92846
1532.13719	0.92895
1530.08339	0.92938
1528.02959	0.92987
1525.97578	0.92967
1523.92198	0.92858
1521.86818	0.92665
1519.81437	0.92385
1517.76057	0.92045
1515.70677	0.91653
1513.65297	0.91352
1511.59916	0.91162
1509.54536	0.91029
1507.49156	0.90928
1505.43775	0.90909
1503.38395	0.91031
1501.33015	0.91254
1499.27634	0.91557
1497.22254	0.91898
1495.16874	0.92211
1493.11493	0.92464
1491.06113	0.92730
1489.00733	0.92994
1486.95352	0.93128
1484.89972	0.93192
1482.84592	0.93222
1480.79211	0.93185
1478.73831	0.93098
1476.68451	0.92951
1474.63070	0.92688
1472.57690	0.92253
1470.52310	0.91797
1468.46929	0.91494
1466.41549	0.91245
1464.36169	0.90987
1462.30788	0.90827
1460.25408	0.90799
1458.20028	0.90800
1456.14648	0.90731
1454.09267	0.90696
1452.03887	0.90753
1449.98507	0.90856
1447.93126	0.90976
1445.87746	0.91111
1443.82366	0.91253
1441.76985	0.91358
1439.71605	0.91386
1437.66225	0.91298
1435.60844	0.91062
1433.55464	0.90813
1431.50084	0.90568
1429.44703	0.90272
1427.39323	0.89987
1425.33943	0.89755
1423.28562	0.89601
1421.23182	0.89541
1419.17802	0.89540
1417.12421	0.89631
1415.07041	0.89786
1413.01661	0.89944
1410.96280	0.90116
1408.90900	0.90310
1406.85520	0.90504
1404.80139	0.90666
1402.74759	0.90767
1400.69379	0.90848
1398.63999	0.90982
1396.58618	0.91134
1394.53238	0.91212
1392.47858	0.91232
1390.42477	0.91245
1388.37097	0.91246
1386.31717	0.91221
1384.26336	0.91183
1382.20956	0.91129
1380.15576	0.91071
1378.10195	0.91038
1376.04815	0.91023
1373.99435	0.90998
1371.94054	0.90966
1369.88674	0.90976
1367.83294	0.91027
1365.77913	0.91074
1363.72533	0.91123
1361.67153	0.91190
1359.61772	0.91248
1357.56392	0.91306
1355.51012	0.91377
1353.45631	0.91433
1351.40251	0.91458
1349.34871	0.91471
1347.29491	0.91459
1345.24110	0.91406
1343.18730	0.91335
1341.13350	0.91250
1339.07969	0.91109
1337.02589	0.90938
1334.97209	0.90809
1332.91828	0.90744
1330.86448	0.90722
1328.81068	0.90721
1326.75687	0.90731
1324.70307	0.90742
1322.64927	0.90748
1320.59546	0.90757
1318.54166	0.90778
1316.48786	0.90834
1314.43405	0.90937
1312.38025	0.91073
1310.32645	0.91214
1308.27264	0.91340
1306.21884	0.91470
1304.16504	0.91615
1302.11123	0.91743
1300.05743	0.91839
1298.00363	0.91901
1295.94982	0.91917
1293.89602	0.91881
1291.84222	0.91825
1289.78842	0.91786
1287.73461	0.91743
1285.68081	0.91623
1283.62701	0.91436
1281.57320	0.91238
1279.51940	0.91030
1277.46560	0.90797
1275.41179	0.90558
1273.35799	0.90325
1271.30419	0.90096
1269.25038	0.89893
1267.19658	0.89752
1265.14278	0.89699
1263.08897	0.89716
1261.03517	0.89754
1258.98137	0.89799
1256.92756	0.89856
1254.87376	0.89931
1252.81996	0.90009
1250.76615	0.90057
1248.71235	0.90064
1246.65855	0.90054
1244.60474	0.90039
1242.55094	0.90007
1240.49714	0.89978
1238.44334	0.89960
1236.38953	0.89918
1234.33573	0.89839
1232.28193	0.89762
1230.22812	0.89695
1228.17432	0.89625
1226.12052	0.89578
1224.06671	0.89561
1222.01291	0.89558
1219.95911	0.89569
1217.90530	0.89596
1215.85150	0.89652
1213.79770	0.89743
1211.74389	0.89831
1209.69009	0.89895
1207.63629	0.89959
1205.58248	0.90069
1203.52868	0.90228
1201.47488	0.90396
1199.42107	0.90512
1197.36727	0.90559
1195.31347	0.90593
1193.25966	0.90624
1191.20586	0.90617
1189.15206	0.90559
1187.09825	0.90466
1185.04445	0.90353
1182.99065	0.90206
1180.93685	0.90021
1178.88304	0.89802
1176.82924	0.89517
1174.77544	0.89145
1172.72163	0.88689
1170.66783	0.88141
1168.61403	0.87512
1166.56022	0.86876
1164.50642	0.86314
1162.45262	0.85885
1160.39881	0.85594
1158.34501	0.85389
1156.29121	0.85233
1154.23740	0.85125
1152.18360	0.85062
1150.12980	0.84986
1148.07599	0.84853
1146.02219	0.84696
1143.96839	0.84531
1141.91458	0.84331
1139.86078	0.84085
1137.80698	0.83806
1135.75317	0.83495
1133.69937	0.83141
1131.64557	0.82741
1129.59176	0.82287
1127.53796	0.81791
1125.48416	0.81319
1123.43036	0.80922
1121.37655	0.80601
1119.32275	0.80307
1117.26895	0.79981
1115.21514	0.79618
1113.16134	0.79265
1111.10754	0.78919
1109.05373	0.78569
1106.99993	0.78273
1104.94613	0.78100
1102.89232	0.78000
1100.83852	0.77850
1098.78472	0.77667
1096.73091	0.77531
1094.67711	0.77386
1092.62331	0.77220
1090.56950	0.77073
1088.51570	0.76907
1086.46190	0.76713
1084.40809	0.76537
1082.35429	0.76345
1080.30049	0.76100
1078.24668	0.75839
1076.19288	0.75578
1074.13908	0.75308
1072.08528	0.75014
1070.03147	0.74644
1067.97767	0.74179
1065.92387	0.73636
1063.87006	0.73015
1061.81626	0.72356
1059.76246	0.71734
1057.70865	0.71160
1055.65485	0.70612
1053.60105	0.70096
1051.54724	0.69622
1049.49344	0.69163
1047.43964	0.68710
1045.38583	0.68260
1043.33203	0.67757
1041.27823	0.67156
1039.22442	0.66497
1037.17062	0.65830
1035.11682	0.65222
1033.06301	0.64708
1031.00921	0.64320
1028.95541	0.64152
1026.90160	0.64169
1024.84780	0.64243
1022.79400	0.64328
1020.74019	0.64425
1018.68639	0.64532
1016.63259	0.64676
1014.57879	0.64844
1012.52498	0.64979
1010.47118	0.65076
1008.41738	0.65172
1006.36357	0.65259
1004.30977	0.65340
1002.25597	0.65490
1000.20216	0.65758
998.14836	0.66085
996.09456	0.66408
994.04075	0.66685
991.98695	0.66885
989.93315	0.67101
987.87934	0.67453
985.82554	0.67892
983.77174	0.68355
981.71793	0.68887
979.66413	0.69496
977.61033	0.70147
975.55652	0.70835
973.50272	0.71511
971.44892	0.72119
969.39511	0.72707
967.34131	0.73310
965.28751	0.73929
963.23371	0.74547
961.17990	0.75120
959.12610	0.75654
957.07230	0.76187
955.01849	0.76725
952.96469	0.77256
950.91089	0.77759
948.85708	0.78225
946.80328	0.78693
944.74948	0.79153
942.69567	0.79551
940.64187	0.79893
938.58807	0.80212
936.53426	0.80534
934.48046	0.80859
932.42666	0.81125
930.37285	0.81307
928.31905	0.81453
926.26525	0.81590
924.21144	0.81731
922.15764	0.81878
920.10384	0.81975
918.05003	0.81994
915.99623	0.82001
913.94243	0.82083
911.88862	0.82203
909.83482	0.82281
907.78102	0.82384
905.72722	0.82562
903.67341	0.82707
901.61961	0.82805
899.56581	0.82932
897.51200	0.83117
895.45820	0.83367
893.40440	0.83675
891.35059	0.84049
889.29679	0.84427
887.24299	0.84735
885.18918	0.84993
883.13538	0.85179
881.08158	0.85284
879.02777	0.85364
876.97397	0.85461
874.92017	0.85622
872.86636	0.85855
870.81256	0.86076
868.75876	0.86224
866.70495	0.86338
864.65115	0.86425
862.59735	0.86480
860.54354	0.86574
858.48974	0.86702
856.43594	0.86834
854.38213	0.86989
852.32833	0.87090
850.27453	0.87107
848.22073	0.87117
846.16692	0.87136
844.11312	0.87153
842.05932	0.87160
840.00551	0.87093
837.95171	0.86956
835.89791	0.86834
833.84410	0.86766
831.79030	0.86742
829.73650	0.86746
827.68269	0.86732
825.62889	0.86681
823.57509	0.86644
821.52128	0.86670
819.46748	0.86746
817.41368	0.86768
815.35987	0.86660
813.30607	0.86504
811.25227	0.86391
809.19846	0.86317
807.14466	0.86153
805.09086	0.85846
803.03705	0.85539
800.98325	0.85305
798.92945	0.85117
796.87565	0.84980
794.82184	0.84913
792.76804	0.84928
790.71424	0.84973
788.66043	0.84972
786.60663	0.84932
784.55283	0.84861
782.49902	0.84706
780.44522	0.84495
778.39142	0.84356
776.33761	0.84294
774.28381	0.84254
772.23001	0.84272
770.17620	0.84306
768.12240	0.84248
766.06860	0.84092
764.01479	0.83925
761.96099	0.83814
759.90719	0.83747
757.85338	0.83698
755.79958	0.83668
753.74578	0.83630
751.69197	0.83574
749.63817	0.83513
747.58437	0.83423
745.53056	0.83341
743.47676	0.83321
741.42296	0.83367
739.36916	0.83458
737.31535	0.83542
735.26155	0.83584
733.20775	0.83553
731.15394	0.83451
729.10014	0.83347
727.04634	0.83237
724.99253	0.83130
722.93873	0.83127
720.88493	0.83118
718.83112	0.82947
716.77732	0.82763
714.72352	0.82729
712.66971	0.82787
710.61591	0.82780
708.56211	0.82648
706.50830	0.82475
704.45450	0.82290
702.40070	0.82039
700.34689	0.81758
698.29309	0.81526
696.23929	0.81403
694.18548	0.81330
692.13168	0.81189
690.07788	0.81061
688.02408	0.81057
685.97027	0.81066
683.91647	0.80993
681.86267	0.80888
679.80886	0.80741
677.75506	0.80542
675.70126	0.80343
673.64745	0.80161
671.59365	0.79990
669.53985	0.79752
667.48604	0.79472
665.43224	0.79432
663.37844	0.79445
661.32463	0.79296
659.27083	0.79050
657.21703	0.78867
655.16322	0.78752
653.10942	0.78596
651.05562	0.78383
649.00181	0.78199
646.94801	0.78137
644.89421	0.78230
642.84040	0.78309
640.78660	0.78208
638.73280	0.78048
636.67899	0.77960
634.62519	0.77931
632.57139	0.77945
630.51759	0.78023
628.46378	0.78107
626.40998	0.78108
624.35618	0.78003
622.30237	0.77753
620.24857	0.77454
618.19477	0.77217
616.14096	0.76998
614.08716	0.76816
612.03336	0.76634
609.97955	0.76363
607.92575	0.76137
605.87195	0.76045
603.81814	0.76008
601.76434	0.75928
599.71054	0.75676
597.65673	0.75271
595.60293	0.74913
593.54913	0.74720
591.49532	0.74651
589.44152	0.74674
587.38772	0.74755
585.33391	0.74734
583.28011	0.74550
581.22631	0.74404
579.17250	0.74349
577.11870	0.74240
575.06490	0.74173
573.01110	0.74182
570.95729	0.73995
568.90349	0.73604
566.84969	0.73228
564.79588	0.72901
562.74208	0.72569
560.68828	0.72233
558.63447	0.72019
556.58067	0.71993
554.52687	0.71890
552.47306	0.71533
550.41926	0.71092
548.36546	0.70794
546.31165	0.70598
544.25785	0.70247
542.20405	0.69686
540.15024	0.69141
538.09644	0.68701
536.04264	0.68244
533.98883	0.67855
531.93503	0.67650
529.88123	0.67562
527.82742	0.67516
525.77362	0.67527
523.71982	0.67611
521.66602	0.67639
519.61221	0.67623
517.55841	0.67757
515.50461	0.67981
513.45080	0.68151
511.39700	0.68342
509.34320	0.68595
507.28939	0.68788
505.23559	0.68778
503.18179	0.68713
501.12798	0.68816
499.07418	0.68935
497.02038	0.68947
494.96657	0.68836
492.91277	0.68528
490.85897	0.68147
488.80516	0.67744
486.75136	0.67246
484.69756	0.66806
482.64375	0.66448
480.58995	0.65926
478.53615	0.65074
476.48234	0.64028
474.42854	0.63249
472.37474	0.62879
470.32093	0.62533
468.26713	0.61965
466.21333	0.61564
464.15953	0.61606
462.10572	0.61753
460.05192	0.61925
457.99812	0.62138
455.94431	0.62242
453.89051	0.62340
451.83671	0.62623
449.78290	0.63132
447.72910	0.63432
445.67530	0.63444
443.62149	0.63652
441.56769	0.63894
439.51389	0.63917
437.46008	0.63915
435.40628	0.63794
433.35248	0.63361
431.29867	0.62828
429.24487	0.62658
427.19107	0.62813
425.13726	0.62769
423.08346	0.62535
421.02966	0.62562
418.97585	0.62978
416.92205	0.63210
414.86825	0.62994
412.81445	0.62999
410.76064	0.63787
408.70684	0.64726
406.65304	0.64908
404.59923	0.64781
402.54543	0.64844
400.49163	0.64706
398.43782	0.64313
