3996.71440	0.99401
3994.66059	0.99414
3992.60678	0.99446
3990.55297	0.99463
3988.49916	0.99452
3986.44535	0.99427
3984.39154	0.99414
3982.33773	0.99439
3980.28391	0.99472
3978.23010	0.99460
3976.17629	0.99425
3974.12248	0.99415
3972.06867	0.99429
3970.01486	0.99456
3967.96105	0.99492
3965.90724	0.99493
3963.85343	0.99429
3961.79962	0.99361
3959.74581	0.99358
3957.69200	0.99395
3955.63819	0.99420
3953.58438	0.99427
3951.53057	0.99426
3949.47676	0.99413
3947.42295	0.99384
3945.36914	0.99360
3943.31533	0.99363
3941.26152	0.99379
3939.20771	0.99399
3937.15390	0.99420
3935.10009	0.99413
3933.04628	0.99389
3930.99247	0.99386
3928.93866	0.99387
3926.88485	0.99379
3924.83104	0.99377
3922.77723	0.99408
3920.72342	0.99454
3918.66961	0.99463
3916.61580	0.99439
3914.56199	0.99427
3912.50818	0.99414
3910.45437	0.99401
3908.40056	0.99404
3906.34675	0.99408
3904.29294	0.99394
3902.23913	0.99372
3900.18532	0.99363
3898.13151	0.99361
3896.07770	0.99362
3894.02389	0.99373
3891.97008	0.99379
3889.91627	0.99355
3887.86246	0.99329
3885.80865	0.99347
3883.75484	0.99409
3881.70103	0.99445
3879.64722	0.99432
3877.59341	0.99427
3875.53960	0.99436
3873.48579	0.99430
3871.43198	0.99405
3869.37817	0.99369
3867.32436	0.99356
3865.27055	0.99376
3863.21674	0.99403
3861.16293	0.99401
3859.10912	0.99384
3857.05531	0.99377
3855.00150	0.99360
3852.94769	0.99334
3850.89388	0.99367
3848.84007	0.99425
3846.78626	0.99473
3844.73245	0.99478
3842.67864	0.99428
3840.62483	0.99390
3838.57102	0.99406
3836.51721	0.99406
3834.46340	0.99352
3832.40959	0.99326
3830.35578	0.99372
3828.30197	0.99416
3826.24816	0.99414
3824.19435	0.99415
3822.14054	0.99410
3820.08673	0.99383
3818.03292	0.99383
3815.97911	0.99387
3813.92530	0.99386
3811.87149	0.99382
3809.81768	0.99356
3807.76387	0.99327
3805.71006	0.99329
3803.65625	0.99324
3801.60244	0.99282
3799.54863	0.99285
3797.49482	0.99358
3795.44101	0.99417
3793.38720	0.99419
3791.33339	0.99405
3789.27958	0.99415
3787.22577	0.99439
3785.17196	0.99451
3783.11815	0.99438
3781.06434	0.99416
3779.01053	0.99406
3776.95672	0.99404
3774.90291	0.99394
3772.84910	0.99380
3770.79529	0.99366
3768.74148	0.99365
3766.68767	0.99389
3764.63386	0.99425
3762.58005	0.99442
3760.52624	0.99424
3758.47243	0.99406
3756.41862	0.99412
3754.36481	0.99411
3752.31100	0.99390
3750.25719	0.99354
3748.20338	0.99341
3746.14957	0.99383
3744.09576	0.99411
3742.04195	0.99373
3739.98814	0.99380
3737.93433	0.99440
3735.88052	0.99469
3733.82671	0.99443
3731.77290	0.99421
3729.71909	0.99406
3727.66528	0.99403
3725.61147	0.99425
3723.55766	0.99416
3721.50385	0.99358
3719.45004	0.99320
3717.39623	0.99349
3715.34242	0.99388
3713.28861	0.99339
3711.23480	0.99230
3709.18099	0.99184
3707.12718	0.99176
3705.07337	0.99162
3703.01956	0.99138
3700.96575	0.99064
3698.91194	0.98962
3696.85813	0.98914
3694.80432	0.98938
3692.75051	0.98989
3690.69670	0.99028
3688.64289	0.99067
3686.58907	0.99073
3684.53526	0.99062
3682.48145	0.99066
3680.42764	0.99076
3678.37383	0.99104
3676.32002	0.99115
3674.26621	0.99086
3672.21240	0.99070
3670.15859	0.99036
3668.10478	0.99015
3666.05097	0.99035
3663.99716	0.99041
3661.94335	0.99044
3659.88954	0.99075
3657.83573	0.99099
3655.78192	0.99080
3653.72811	0.99058
3651.67430	0.99054
3649.62049	0.99014
3647.56668	0.98969
3645.51287	0.98975
3643.45906	0.98969
3641.40525	0.98929
3639.35144	0.98880
3637.29763	0.98851
3635.24382	0.98823
3633.19001	0.98795
3631.13620	0.98787
3629.08239	0.98770
3627.02858	0.98746
3624.97477	0.98742
3622.92096	0.98768
3620.86715	0.98816
3618.81334	0.98821
3616.75953	0.98797
3614.70572	0.98808
3612.65191	0.98833
3610.59810	0.98843
3608.54429	0.98857
3606.49048	0.98887
3604.43667	0.98913
3602.38286	0.98926
3600.32905	0.98922
3598.27524	0.98912
3596.22143	0.98904
3594.16762	0.98868
3592.11381	0.98841
3590.06000	0.98860
3588.00619	0.98876
3585.95238	0.98872
3583.89857	0.98877
3581.84476	0.98891
3579.79095	0.98889
3577.73714	0.98879
3575.68333	0.98882
3573.62952	0.98891
3571.57571	0.98881
3569.52190	0.98847
3567.46809	0.98820
3565.41428	0.98828
3563.36047	0.98839
3561.30666	0.98842
3559.25285	0.98823
3557.19904	0.98788
3555.14523	0.98771
3553.09142	0.98762
3551.03761	0.98755
3548.98380	0.98757
3546.92999	0.98768
3544.87618	0.98799
3542.82237	0.98834
3540.76856	0.98831
3538.71475	0.98795
3536.66094	0.98758
3534.60713	0.98717
3532.55332	0.98682
3530.49951	0.98674
3528.44570	0.98681
3526.39189	0.98676
3524.33808	0.98661
3522.28427	0.98649
3520.23046	0.98640
3518.17665	0.98642
3516.12284	0.98656
3514.06903	0.98683
3512.01522	0.98713
3509.96141	0.98716
3507.90760	0.98690
3505.85379	0.98659
3503.79998	0.98629
3501.74617	0.98612
3499.69236	0.98611
3497.63855	0.98617
3495.58474	0.98631
3493.53093	0.98668
3491.47712	0.98696
3489.42331	0.98678
3487.36950	0.98654
3485.31569	0.98651
3483.26188	0.98629
3481.20807	0.98583
3479.15426	0.98542
3477.10045	0.98514
3475.04664	0.98487
3472.99283	0.98472
3470.93902	0.98487
3468.88521	0.98514
3466.83140	0.98513
3464.77759	0.98480
3462.72378	0.98450
3460.66997	0.98450
3458.61616	0.98478
3456.56235	0.98487
3454.50854	0.98468
3452.45473	0.98455
3450.40092	0.98449
3448.34711	0.98460
3446.29330	0.98470
3444.23949	0.98458
3442.18568	0.98425
3440.13187	0.98387
3438.07806	0.98382
3436.02425	0.98387
3433.97044	0.98368
3431.91663	0.98362
3429.86282	0.98384
3427.80901	0.98406
3425.75520	0.98401
3423.70139	0.98376
3421.64758	0.98344
3419.59377	0.98302
3417.53996	0.98268
3415.48615	0.98265
3413.43234	0.98281
3411.37853	0.98284
3409.32472	0.98283
3407.27091	0.98290
3405.21710	0.98294
3403.16329	0.98286
3401.10948	0.98266
3399.05567	0.98272
3397.00186	0.98315
3394.94805	0.98341
3392.89424	0.98323
3390.84042	0.98304
3388.78661	0.98304
3386.73280	0.98303
3384.67899	0.98292
3382.62518	0.98281
3380.57137	0.98284
3378.51756	0.98284
3376.46375	0.98268
3374.40994	0.98252
3372.35613	0.98257
3370.30232	0.98274
3368.24851	0.98260
3366.19470	0.98216
3364.14089	0.98199
3362.08708	0.98223
3360.03327	0.98253
3357.97946	0.98265
3355.92565	0.98248
3353.87184	0.98222
3351.81803	0.98221
3349.76422	0.98223
3347.71041	0.98210
3345.65660	0.98192
3343.60279	0.98164
3341.54898	0.98150
3339.49517	0.98168
3337.44136	0.98185
3335.38755	0.98180
3333.33374	0.98186
3331.27993	0.98210
3329.22612	0.98211
3327.17231	0.98183
3325.11850	0.98174
3323.06469	0.98201
3321.01088	0.98217
3318.95707	0.98198
3316.90326	0.98202
3314.84945	0.98228
3312.79564	0.98210
3310.74183	0.98178
3308.68802	0.98168
3306.63421	0.98168
3304.58040	0.98175
3302.52659	0.98194
3300.47278	0.98206
3298.41897	0.98200
3296.36516	0.98195
3294.31135	0.98191
3292.25754	0.98184
3290.20373	0.98177
3288.14992	0.98170
3286.09611	0.98183
3284.04230	0.98206
3281.98849	0.98214
3279.93468	0.98220
3277.88087	0.98230
3275.82706	0.98227
3273.77325	0.98219
3271.71944	0.98213
3269.66563	0.98212
3267.61182	0.98214
3265.55801	0.98216
3263.50420	0.98208
3261.45039	0.98203
3259.39658	0.98240
3257.34277	0.98282
3255.28896	0.98287
3253.23515	0.98296
3251.18134	0.98337
3249.12753	0.98357
3247.07372	0.98331
3245.01991	0.98289
3242.96610	0.98243
3240.91229	0.98238
3238.85848	0.98289
3236.80467	0.98325
3234.75086	0.98321
3232.69705	0.98329
3230.64324	0.98356
3228.58943	0.98359
3226.53562	0.98323
3224.48181	0.98287
3222.42800	0.98281
3220.37419	0.98305
3218.32038	0.98328
3216.26657	0.98333
3214.21276	0.98347
3212.15895	0.98365
3210.10514	0.98357
3208.05133	0.98334
3205.99752	0.98323
3203.94371	0.98331
3201.88990	0.98342
3199.83609	0.98351
3197.78228	0.98374
3195.72847	0.98408
3193.67466	0.98421
3191.62085	0.98414
3189.56704	0.98409
3187.51323	0.98421
3185.45942	0.98437
3183.40561	0.98439
3181.35180	0.98434
3179.29799	0.98428
3177.24418	0.98437
3175.19037	0.98478
3173.13656	0.98522
3171.08275	0.98517
3169.02894	0.98483
3166.97513	0.98480
3164.92132	0.98513
3162.86751	0.98535
3160.81370	0.98518
3158.75989	0.98497
3156.70608	0.98497
3154.65227	0.98511
3152.59846	0.98537
3150.54465	0.98554
3148.49084	0.98571
3146.43703	0.98582
3144.38322	0.98565
3142.32941	0.98564
3140.27560	0.98582
3138.22179	0.98583
3136.16798	0.98577
3134.11417	0.98576
3132.06036	0.98579
3130.00655	0.98576
3127.95274	0.98579
3125.89893	0.98613
3123.84512	0.98667
3121.79131	0.98699
3119.73750	0.98685
3117.68369	0.98656
3115.62988	0.98648
3113.57607	0.98651
3111.52226	0.98643
3109.46845	0.98639
3107.41464	0.98647
3105.36083	0.98656
3103.30702	0.98661
3101.25321	0.98672
3099.19940	0.98688
3097.14559	0.98700
3095.09177	0.98710
3093.03796	0.98724
3090.98415	0.98718
3088.93034	0.98686
3086.87653	0.98673
3084.82272	0.98683
3082.76891	0.98696
3080.71510	0.98708
3078.66129	0.98703
3076.60748	0.98684
3074.55367	0.98681
3072.49986	0.98684
3070.44605	0.98682
3068.39224	0.98702
3066.33843	0.98733
3064.28462	0.98742
3062.23081	0.98749
3060.17700	0.98766
3058.12319	0.98758
3056.06938	0.98728
3054.01557	0.98725
3051.96176	0.98736
3049.90795	0.98730
3047.85414	0.98717
3045.80033	0.98725
3043.74652	0.98769
3041.69271	0.98796
3039.63890	0.98746
3037.58509	0.98692
3035.53128	0.98714
3033.47747	0.98751
3031.42366	0.98755
3029.36985	0.98747
3027.31604	0.98721
3025.26223	0.98694
3023.20842	0.98704
3021.15461	0.98730
3019.10080	0.98732
3017.04699	0.98720
3014.99318	0.98710
3012.93937	0.98698
3010.88556	0.98698
3008.83175	0.98696
3006.77794	0.98671
3004.72413	0.98648
3002.67032	0.98645
3000.61651	0.98639
2998.56270	0.98615
2996.50889	0.98580
2994.45508	0.98541
2992.40127	0.98490
2990.34746	0.98431
2988.29365	0.98379
2986.23984	0.98312
2984.18603	0.98214
2982.13222	0.98087
2980.07841	0.97922
2978.02460	0.97727
2975.97079	0.97478
2973.91698	0.97118
2971.86317	0.96674
2969.80936	0.96197
2967.75555	0.95660
2965.70174	0.95049
2963.64793	0.94413
2961.59412	0.93822
2959.54031	0.93349
2957.48650	0.93013
2955.43269	0.92744
2953.37888	0.92501
2951.32507	0.92340
2949.27126	0.92354
2947.21745	0.92658
2945.16364	0.93246
2943.10983	0.93888
2941.05602	0.94355
2939.00221	0.94549
2936.94840	0.94444
2934.89459	0.94093
2932.84078	0.93579
2930.78697	0.92969
2928.73316	0.92319
2926.67935	0.91686
2924.62554	0.91141
2922.57173	0.90694
2920.51792	0.90325
2918.46411	0.90091
2916.41030	0.90106
2914.35649	0.90395
2912.30268	0.90845
2910.24887	0.91317
2908.19506	0.91749
2906.14125	0.92152
2904.08744	0.92555
2902.03363	0.92969
2899.97982	0.93396
2897.92601	0.93824
2895.87220	0.94207
2893.81839	0.94495
2891.76458	0.94681
2889.71077	0.94803
2887.65696	0.94879
2885.60315	0.94887
2883.54934	0.94815
2881.49553	0.94669
2879.44172	0.94495
2877.38791	0.94359
2875.33410	0.94296
2873.28029	0.94283
2871.22648	0.94264
2869.17267	0.94213
2867.11886	0.94208
2865.06505	0.94405
2863.01124	0.94826
2860.95743	0.95314
2858.90362	0.95694
2856.84981	0.95894
2854.79600	0.95930
2852.74219	0.95886
2850.68838	0.95840
2848.63457	0.95790
2846.58076	0.95684
2844.52695	0.95461
2842.47314	0.95101
2840.41933	0.94713
2838.36552	0.94489
2836.31171	0.94580
2834.25790	0.95038
2832.20409	0.95734
2830.15028	0.96403
2828.09647	0.96905
2826.04266	0.97260
2823.98885	0.97517
2821.93504	0.97710
2819.88123	0.97858
2817.82742	0.97956
2815.77361	0.98011
2813.71980	0.98066
2811.66599	0.98128
2809.61218	0.98186
2807.55837	0.98247
2805.50456	0.98318
2803.45075	0.98382
2801.39693	0.98415
2799.34312	0.98425
2797.28931	0.98456
2795.23550	0.98513
2793.18169	0.98560
2791.12788	0.98592
2789.07407	0.98630
2787.02026	0.98657
2784.96645	0.98662
2782.91264	0.98671
2780.85883	0.98700
2778.80502	0.98746
2776.75121	0.98776
2774.69740	0.98786
2772.64359	0.98794
2770.58978	0.98802
2768.53597	0.98807
2766.48216	0.98804
2764.42835	0.98807
2762.37454	0.98826
2760.32073	0.98833
2758.26692	0.98839
2756.21311	0.98874
2754.15930	0.98911
2752.10549	0.98920
2750.05168	0.98901
2747.99787	0.98881
2745.94406	0.98880
2743.89025	0.98873
2741.83644	0.98852
2739.78263	0.98841
2737.72882	0.98841
2735.67501	0.98847
2733.62120	0.98856
2731.56739	0.98849
2729.51358	0.98815
2727.45977	0.98761
2725.40596	0.98717
2723.35215	0.98719
2721.29834	0.98749
2719.24453	0.98776
2717.19072	0.98801
2715.13691	0.98825
2713.08310	0.98836
2711.02929	0.98834
2708.97548	0.98838
2706.92167	0.98854
2704.86786	0.98877
2702.81405	0.98917
2700.76024	0.98954
2698.70643	0.98947
2696.65262	0.98914
2694.59881	0.98904
2692.54500	0.98928
2690.49119	0.98954
2688.43738	0.98968
2686.38357	0.98978
2684.32976	0.98974
2682.27595	0.98953
2680.22214	0.98935
2678.16833	0.98930
2676.11452	0.98925
2674.06071	0.98916
2672.00690	0.98920
2669.95309	0.98937
2667.89928	0.98947
2665.84547	0.98943
2663.79166	0.98936
2661.73785	0.98934
2659.68404	0.98943
2657.63023	0.98952
2655.57642	0.98947
2653.52261	0.98952
2651.46880	0.98976
2649.41499	0.99006
2647.36118	0.99018
2645.30737	0.99000
2643.25356	0.98971
2641.19975	0.98950
2639.14594	0.98952
2637.09213	0.98979
2635.03832	0.98999
2632.98451	0.98981
2630.93070	0.98948
2628.87689	0.98932
2626.82308	0.98935
2624.76927	0.98945
2622.71546	0.98963
2620.66165	0.98990
2618.60784	0.99009
2616.55403	0.99013
2614.50022	0.99013
2612.44641	0.99021
2610.39260	0.99025
2608.33879	0.99025
2606.28498	0.99050
2604.23117	0.99083
2602.17736	0.99093
2600.12355	0.99084
2598.06974	0.99085
2596.01593	0.99083
2593.96212	0.99063
2591.90831	0.99057
2589.85450	0.99079
2587.80069	0.99091
2585.74688	0.99082
2583.69307	0.99071
2581.63926	0.99038
2579.58545	0.99007
2577.53164	0.99020
2575.47783	0.99049
2573.42402	0.99061
2571.37021	0.99068
2569.31640	0.99082
2567.26259	0.99102
2565.20878	0.99144
2563.15497	0.99166
2561.10116	0.99128
2559.04735	0.99075
2556.99354	0.99060
2554.93973	0.99068
2552.88592	0.99086
2550.83211	0.99125
2548.77830	0.99179
2546.72449	0.99228
2544.67068	0.99227
2542.61687	0.99179
2540.56306	0.99148
2538.50925	0.99160
2536.45544	0.99191
2534.40163	0.99201
2532.34782	0.99196
2530.29401	0.99191
2528.24020	0.99174
2526.18639	0.99151
2524.13258	0.99142
2522.07877	0.99149
2520.02496	0.99157
2517.97115	0.99154
2515.91734	0.99167
2513.86353	0.99207
2511.80972	0.99242
2509.75591	0.99246
2507.70210	0.99233
2505.64828	0.99217
2503.59447	0.99189
2501.54066	0.99165
2499.48685	0.99183
2497.43304	0.99215
2495.37923	0.99210
2493.32542	0.99202
2491.27161	0.99218
2489.21780	0.99210
2487.16399	0.99193
2485.11018	0.99207
2483.05637	0.99232
2481.00256	0.99254
2478.94875	0.99257
2476.89494	0.99237
2474.84113	0.99230
2472.78732	0.99248
2470.73351	0.99252
2468.67970	0.99252
2466.62589	0.99293
2464.57208	0.99340
2462.51827	0.99342
2460.46446	0.99325
2458.41065	0.99318
2456.35684	0.99315
2454.30303	0.99290
2452.24922	0.99251
2450.19541	0.99236
2448.14160	0.99254
2446.08779	0.99277
2444.03398	0.99271
2441.98017	0.99220
2439.92636	0.99173
2437.87255	0.99186
2435.81874	0.99234
2433.76493	0.99271
2431.71112	0.99302
2429.65731	0.99316
2427.60350	0.99290
2425.54969	0.99246
2423.49588	0.99230
2421.44207	0.99235
2419.38826	0.99235
2417.33445	0.99230
2415.28064	0.99244
2413.22683	0.99274
2411.17302	0.99267
2409.11921	0.99236
2407.06540	0.99240
2405.01159	0.99257
2402.95778	0.99255
2400.90397	0.99258
2398.85016	0.99271
2396.79635	0.99271
2394.74254	0.99268
2392.68873	0.99271
2390.63492	0.99278
2388.58111	0.99282
2386.52730	0.99274
2384.47349	0.99257
2382.41968	0.99230
2380.36587	0.99227
2378.31206	0.99266
2376.25825	0.99291
2374.20444	0.99296
2372.15063	0.99319
2370.09682	0.99329
2368.04301	0.99323
2365.98920	0.99321
2363.93539	0.99330
2361.88158	0.99368
2359.82777	0.99326
2357.77396	0.99215
2355.72015	0.99243
2353.66634	0.99310
2351.61253	0.99293
2349.55872	0.99299
2347.50491	0.99305
2345.45110	0.99261
2343.39729	0.99257
2341.34348	0.99277
2339.28967	0.99252
2337.23586	0.99247
2335.18205	0.99245
2333.12824	0.99215
2331.07443	0.99194
2329.02062	0.99191
2326.96681	0.99158
2324.91300	0.99109
2322.85919	0.99091
2320.80538	0.99096
2318.75157	0.99133
2316.69776	0.99196
2314.64395	0.99234
2312.59014	0.99249
2310.53633	0.99268
2308.48252	0.99294
2306.42871	0.99303
2304.37490	0.99265
2302.32109	0.99200
2300.26728	0.99156
2298.21347	0.99167
2296.15966	0.99217
2294.10585	0.99255
2292.05204	0.99264
2289.99823	0.99244
2287.94442	0.99198
2285.89061	0.99156
2283.83680	0.99148
2281.78299	0.99165
2279.72918	0.99165
2277.67537	0.99131
2275.62156	0.99136
2273.56775	0.99188
2271.51394	0.99221
2269.46013	0.99256
2267.40632	0.99298
2265.35251	0.99328
2263.29870	0.99340
2261.24489	0.99312
2259.19108	0.99267
2257.13727	0.99233
2255.08346	0.99178
2253.02965	0.99121
2250.97584	0.99139
2248.92203	0.99213
2246.86822	0.99262
2244.81441	0.99240
2242.76060	0.99229
2240.70679	0.99275
2238.65298	0.99337
2236.59917	0.99432
2234.54536	0.99435
2232.49155	0.99306
2230.43774	0.99273
2228.38393	0.99385
2226.33012	0.99458
2224.27631	0.99420
2222.22250	0.99339
2220.16869	0.99277
2218.11488	0.99270
2216.06107	0.99250
2214.00726	0.99183
2211.95344	0.99153
2209.89963	0.99203
2207.84582	0.99264
2205.79201	0.99273
2203.73820	0.99282
2201.68439	0.99378
2199.63058	0.99457
2197.57677	0.99400
2195.52296	0.99314
2193.46915	0.99272
2191.41534	0.99267
2189.36153	0.99239
2187.30772	0.99144
2185.25391	0.99106
2183.20010	0.99239
2181.14629	0.99468
2179.09248	0.99516
2177.03867	0.99299
2174.98486	0.99091
2172.93105	0.99093
2170.87724	0.99226
2168.82343	0.99344
2166.76962	0.99353
2164.71581	0.99195
2162.66200	0.99017
2160.60819	0.99107
2158.55438	0.99354
2156.50057	0.99407
2154.44676	0.99384
2152.39295	0.99498
2150.33914	0.99601
2148.28533	0.99512
2146.23152	0.99364
2144.17771	0.99357
2142.12390	0.99393
2140.07009	0.99356
2138.01628	0.99401
2135.96247	0.99511
2133.90866	0.99535
2131.85485	0.99561
2129.80104	0.99612
2127.74723	0.99596
2125.69342	0.99525
2123.63961	0.99471
2121.58580	0.99428
2119.53199	0.99354
2117.47818	0.99326
2115.42437	0.99341
2113.37056	0.99305
2111.31675	0.99261
2109.26294	0.99288
2107.20913	0.99344
2105.15532	0.99336
2103.10151	0.99290
2101.04770	0.99283
2098.99389	0.99289
2096.94008	0.99294
2094.88627	0.99313
2092.83246	0.99283
2090.77865	0.99223
2088.72484	0.99236
2086.67103	0.99299
2084.61722	0.99302
2082.56341	0.99232
2080.50960	0.99211
2078.45579	0.99283
2076.40198	0.99368
2074.34817	0.99346
2072.29436	0.99197
2070.24055	0.99111
2068.18674	0.99207
2066.13293	0.99319
2064.07912	0.99313
2062.02531	0.99284
2059.97150	0.99289
2057.91769	0.99233
2055.86388	0.99094
2053.81007	0.99033
2051.75626	0.99074
2049.70245	0.99126
2047.64864	0.99195
2045.59483	0.99266
2043.54102	0.99360
2041.48721	0.99384
2039.43340	0.99273
2037.37959	0.99188
2035.32578	0.99159
2033.27197	0.99119
2031.21816	0.99155
2029.16435	0.99368
2027.11054	0.99556
2025.05673	0.99493
2023.00292	0.99383
2020.94911	0.99347
2018.89530	0.99261
2016.84149	0.99151
2014.78768	0.99128
2012.73387	0.99232
2010.68006	0.99337
2008.62625	0.99399
2006.57244	0.99455
2004.51863	0.99425
2002.46482	0.99313
2000.41101	0.99224
1998.35720	0.99224
1996.30339	0.99293
1994.24958	0.99365
1992.19577	0.99408
1990.14196	0.99413
1988.08815	0.99377
1986.03434	0.99345
1983.98053	0.99300
1981.92672	0.99215
1979.87291	0.99233
1977.81910	0.99421
1975.76529	0.99525
1973.71148	0.99412
1971.65767	0.99356
1969.60386	0.99419
1967.55005	0.99424
1965.49624	0.99353
1963.44243	0.99341
1961.38862	0.99459
1959.33481	0.99560
1957.28100	0.99595
1955.22719	0.99583
1953.17338	0.99449
1951.11957	0.99331
1949.06576	0.99360
1947.01195	0.99427
1944.95814	0.99460
1942.90433	0.99465
1940.85052	0.99436
1938.79671	0.99422
1936.74290	0.99432
1934.68909	0.99425
1932.63528	0.99409
1930.58147	0.99394
1928.52766	0.99397
1926.47385	0.99412
1924.42004	0.99383
1922.36623	0.99350
1920.31242	0.99352
1918.25861	0.99341
1916.20479	0.99333
1914.15098	0.99358
1912.09717	0.99384
1910.04336	0.99395
1907.98955	0.99412
1905.93574	0.99443
1903.88193	0.99439
1901.82812	0.99384
1899.77431	0.99351
1897.72050	0.99365
1895.66669	0.99347
1893.61288	0.99301
1891.55907	0.99264
1889.50526	0.99257
1887.45145	0.99310
1885.39764	0.99340
1883.34383	0.99316
1881.29002	0.99310
1879.23621	0.99290
1877.18240	0.99236
1875.12859	0.99246
1873.07478	0.99319
1871.02097	0.99354
1868.96716	0.99339
1866.91335	0.99323
1864.85954	0.99309
1862.80573	0.99294
1860.75192	0.99291
1858.69811	0.99316
1856.64430	0.99330
1854.59049	0.99304
1852.53668	0.99298
1850.48287	0.99316
1848.42906	0.99317
1846.37525	0.99329
1844.32144	0.99343
1842.26763	0.99307
1840.21382	0.99269
1838.16001	0.99281
1836.10620	0.99301
1834.05239	0.99288
1831.99858	0.99306
1829.94477	0.99379
1827.89096	0.99416
1825.83715	0.99391
1823.78334	0.99350
1821.72953	0.99308
1819.67572	0.99287
1817.62191	0.99304
1815.56810	0.99313
1813.51429	0.99297
1811.46048	0.99297
1809.40667	0.99311
1807.35286	0.99298
1805.29905	0.99265
1803.24524	0.99271
1801.19143	0.99317
1799.13762	0.99329
1797.08381	0.99293
1795.03000	0.99264
1792.97619	0.99241
1790.92238	0.99215
1788.86857	0.99208
1786.81476	0.99200
1784.76095	0.99177
1782.70714	0.99162
1780.65333	0.99167
1778.59952	0.99170
1776.54571	0.99158
1774.49190	0.99154
1772.43809	0.99144
1770.38428	0.99092
1768.33047	0.99050
1766.27666	0.99058
1764.22285	0.99085
1762.16904	0.99093
1760.11523	0.99055
1758.06142	0.98976
1756.00761	0.98874
1753.95380	0.98767
1751.89999	0.98677
1749.84618	0.98616
1747.79237	0.98564
1745.73856	0.98500
1743.68475	0.98446
1741.63094	0.98439
1739.57713	0.98479
1737.52332	0.98512
1735.46951	0.98499
1733.41570	0.98484
1731.36189	0.98522
1729.30808	0.98559
1727.25427	0.98583
1725.20046	0.98594
1723.14665	0.98571
1721.09284	0.98528
1719.03903	0.98475
1716.98522	0.98408
1714.93141	0.98371
1712.87760	0.98376
1710.82379	0.98387
1708.76998	0.98384
1706.71617	0.98386
1704.66236	0.98433
1702.60855	0.98477
1700.55474	0.98451
1698.50093	0.98406
1696.44712	0.98407
1694.39331	0.98396
1692.33950	0.98362
1690.28569	0.98314
1688.23188	0.98276
1686.17807	0.98268
1684.12426	0.98244
1682.07045	0.98195
1680.01664	0.98148
1677.96283	0.98088
1675.90902	0.98007
1673.85521	0.97941
1671.80140	0.97904
1669.74759	0.97849
1667.69378	0.97799
1665.63997	0.97771
1663.58616	0.97724
1661.53235	0.97676
1659.47854	0.97654
1657.42473	0.97646
1655.37092	0.97650
1653.31711	0.97611
1651.26330	0.97550
1649.20949	0.97557
1647.15568	0.97571
1645.10187	0.97581
1643.04806	0.97616
1640.99425	0.97667
1638.94044	0.97702
1636.88663	0.97679
1634.83282	0.97640
1632.77901	0.97664
1630.72520	0.97723
1628.67139	0.97791
1626.61758	0.97834
1624.56377	0.97854
1622.50996	0.97884
1620.45614	0.97919
1618.40233	0.97948
1616.34852	0.97971
1614.29471	0.98002
1612.24090	0.98049
1610.18709	0.98097
1608.13328	0.98126
1606.07947	0.98129
1604.02566	0.98131
1601.97185	0.98150
1599.91804	0.98165
1597.86423	0.98166
1595.81042	0.98180
1593.75661	0.98223
1591.70280	0.98261
1589.64899	0.98281
1587.59518	0.98293
1585.54137	0.98284
1583.48756	0.98275
1581.43375	0.98297
1579.37994	0.98330
1577.32613	0.98348
1575.27232	0.98348
1573.21851	0.98356
1571.16470	0.98371
1569.11089	0.98382
1567.05708	0.98394
1565.00327	0.98392
1562.94946	0.98374
1560.89565	0.98345
1558.84184	0.98309
1556.78803	0.98323
1554.73422	0.98346
1552.68041	0.98338
1550.62660	0.98316
1548.57279	0.98305
1546.51898	0.98312
1544.46517	0.98318
1542.41136	0.98292
1540.35755	0.98258
1538.30374	0.98296
1536.24993	0.98341
1534.19612	0.98362
1532.14231	0.98398
1530.08850	0.98456
1528.03469	0.98484
1525.98088	0.98462
1523.92707	0.98451
1521.87326	0.98461
1519.81945	0.98465
1517.76564	0.98487
1515.71183	0.98535
1513.65802	0.98571
1511.60421	0.98586
1509.55040	0.98584
1507.49659	0.98566
1505.44278	0.98585
1503.38897	0.98632
1501.33516	0.98656
1499.28135	0.98649
1497.22754	0.98633
1495.17373	0.98641
1493.11992	0.98664
1491.06611	0.98663
1489.01230	0.98620
1486.95849	0.98555
1484.90468	0.98499
1482.85087	0.98436
1480.79706	0.98348
1478.74325	0.98238
1476.68944	0.98075
1474.63563	0.97813
1472.58182	0.97391
1470.52801	0.96868
1468.47420	0.96365
1466.42039	0.95807
1464.36658	0.95184
1462.31277	0.94724
1460.25896	0.94471
1458.20515	0.94267
1456.15134	0.94105
1454.09753	0.94114
1452.04372	0.94263
1449.98991	0.94570
1447.93610	0.95068
1445.88229	0.95648
1443.82848	0.96155
1441.77467	0.96524
1439.72086	0.96700
1437.66705	0.96739
1435.61324	0.96829
1433.55943	0.97069
1431.50562	0.97364
1429.45181	0.97627
1427.39800	0.97799
1425.34419	0.97889
1423.29038	0.97932
1421.23657	0.97954
1419.18276	0.97969
1417.12895	0.97992
1415.07514	0.98019
1413.02133	0.98047
1410.96752	0.98077
1408.91371	0.98110
1406.85990	0.98139
1404.80609	0.98165
1402.75228	0.98190
1400.69847	0.98184
1398.64466	0.98146
1396.59085	0.98137
1394.53704	0.98162
1392.48323	0.98154
1390.42942	0.98082
1388.37561	0.97920
1386.32180	0.97617
1384.26799	0.97075
1382.21418	0.96120
1380.16037	0.94678
1378.10656	0.93151
1376.05275	0.92392
1373.99894	0.92971
1371.94513	0.94356
1369.89132	0.95608
1367.83751	0.96437
1365.78370	0.96856
1363.72989	0.96972
1361.67608	0.96896
1359.62227	0.96809
1357.56846	0.96864
1355.51465	0.97074
1353.46084	0.97346
1351.40703	0.97570
1349.35322	0.97724
1347.29941	0.97839
1345.24560	0.97924
1343.19179	0.97993
1341.13798	0.98056
1339.08417	0.98095
1337.03036	0.98113
1334.97655	0.98116
1332.92274	0.98096
1330.86893	0.98065
1328.81512	0.98061
1326.76130	0.98079
1324.70749	0.98101
1322.65368	0.98124
1320.59987	0.98131
1318.54606	0.98118
1316.49225	0.98121
1314.43844	0.98148
1312.38463	0.98154
1310.33082	0.98122
1308.27701	0.98065
1306.22320	0.97989
1304.16939	0.97951
1302.11558	0.97966
1300.06177	0.97970
1298.00796	0.97953
1295.95415	0.97946
1293.90034	0.97949
1291.84653	0.97955
1289.79272	0.97964
1287.73891	0.97972
1285.68510	0.97973
1283.63129	0.97969
1281.57748	0.97964
1279.52367	0.97956
1277.46986	0.97936
1275.41605	0.97909
1273.36224	0.97888
1271.30843	0.97857
1269.25462	0.97796
1267.20081	0.97726
1265.14700	0.97678
1263.09319	0.97635
1261.03938	0.97566
1258.98557	0.97476
1256.93176	0.97387
1254.87795	0.97325
1252.82414	0.97314
1250.77033	0.97329
1248.71652	0.97332
1246.66271	0.97319
1244.60890	0.97289
1242.55509	0.97254
1240.50128	0.97233
1238.44747	0.97212
1236.39366	0.97183
1234.33985	0.97153
1232.28604	0.97133
1230.23223	0.97113
1228.17842	0.97065
1226.12461	0.96988
1224.07080	0.96906
1222.01699	0.96832
1219.96318	0.96761
1217.90937	0.96708
1215.85556	0.96674
1213.80175	0.96649
1211.74794	0.96620
1209.69413	0.96574
1207.64032	0.96514
1205.58651	0.96463
1203.53270	0.96425
1201.47889	0.96381
1199.42508	0.96327
1197.37127	0.96279
1195.31746	0.96244
1193.26365	0.96227
1191.20984	0.96195
1189.15603	0.96129
1187.10222	0.96060
1185.04841	0.95993
1182.99460	0.95919
1180.94079	0.95827
1178.88698	0.95715
1176.83317	0.95568
1174.77936	0.95356
1172.72555	0.95094
1170.67174	0.94822
1168.61793	0.94588
1166.56412	0.94443
1164.51031	0.94406
1162.45650	0.94449
1160.40269	0.94505
1158.34888	0.94522
1156.29507	0.94490
1154.24126	0.94432
1152.18745	0.94380
1150.13364	0.94354
1148.07983	0.94353
1146.02602	0.94349
1143.97221	0.94335
1141.91840	0.94325
1139.86459	0.94302
1137.81078	0.94248
1135.75697	0.94193
1133.70316	0.94163
1131.64935	0.94124
1129.59554	0.94033
1127.54173	0.93898
1125.48792	0.93746
1123.43411	0.93608
1121.38030	0.93508
1119.32649	0.93422
1117.27268	0.93317
1115.21887	0.93235
1113.16506	0.93173
1111.11125	0.93057
1109.05744	0.92893
1107.00363	0.92754
1104.94982	0.92639
1102.89601	0.92506
1100.84220	0.92380
1098.78839	0.92316
1096.73458	0.92296
1094.68077	0.92279
1092.62696	0.92247
1090.57315	0.92225
1088.51934	0.92225
1086.46553	0.92208
1084.41172	0.92171
1082.35791	0.92149
1080.30410	0.92149
1078.25029	0.92158
1076.19648	0.92140
1074.14267	0.92097
1072.08886	0.92067
1070.03505	0.92039
1067.98124	0.91968
1065.92743	0.91864
1063.87362	0.91760
1061.81981	0.91665
1059.76600	0.91592
1057.71219	0.91526
1055.65838	0.91423
1053.60457	0.91278
1051.55076	0.91107
1049.49695	0.90933
1047.44314	0.90781
1045.38933	0.90640
1043.33552	0.90509
1041.28171	0.90411
1039.22790	0.90351
1037.17409	0.90315
1035.12028	0.90272
1033.06647	0.90218
1031.01265	0.90179
1028.95884	0.90184
1026.90503	0.90229
1024.85122	0.90281
1022.79741	0.90320
1020.74360	0.90336
1018.68979	0.90327
1016.63598	0.90331
1014.58217	0.90380
1012.52836	0.90451
1010.47455	0.90514
1008.42074	0.90552
1006.36693	0.90568
1004.31312	0.90574
1002.25931	0.90535
1000.20550	0.90432
998.15169	0.90383
996.09788	0.90563
994.04407	0.90948
991.99026	0.91360
989.93645	0.91708
987.88264	0.91974
985.82883	0.92177
983.77502	0.92346
981.72121	0.92454
979.66740	0.92450
977.61359	0.92312
975.55978	0.92126
973.50597	0.92081
971.45216	0.92292
969.39835	0.92686
967.34454	0.93077
965.29073	0.93373
963.23692	0.93598
961.18311	0.93782
959.12930	0.93951
957.07549	0.94120
955.02168	0.94285
952.96787	0.94414
950.91406	0.94496
948.86025	0.94570
946.80644	0.94641
944.75263	0.94692
942.69882	0.94735
940.64501	0.94784
938.59120	0.94850
936.53739	0.94933
934.48358	0.95017
932.42977	0.95097
930.37596	0.95160
928.32215	0.95195
926.26834	0.95205
924.21453	0.95196
922.16072	0.95173
920.10691	0.95149
918.05310	0.95136
915.99929	0.95132
913.94548	0.95127
911.89167	0.95155
909.83786	0.95245
907.78405	0.95353
905.73024	0.95436
903.67643	0.95459
901.62262	0.95422
899.56881	0.95414
897.51500	0.95546
895.46119	0.95803
893.40738	0.96048
891.35357	0.96218
889.29976	0.96318
887.24595	0.96364
885.19214	0.96416
883.13833	0.96479
881.08452	0.96511
879.03071	0.96510
876.97690	0.96509
874.92309	0.96553
872.86928	0.96635
870.81547	0.96740
868.76166	0.96856
866.70785	0.96913
864.65404	0.96927
862.60023	0.96982
860.54642	0.97039
858.49261	0.97036
856.43880	0.97027
854.38499	0.97054
852.33118	0.97068
850.27737	0.97025
848.22356	0.96946
846.16975	0.96817
844.11594	0.96525
842.06213	0.96184
840.00832	0.96170
837.95451	0.96516
835.90070	0.96884
833.84689	0.97098
831.79308	0.97167
829.73927	0.97166
827.68546	0.97187
825.63165	0.97211
823.57784	0.97218
821.52403	0.97202
819.47022	0.97125
817.41641	0.97024
815.36260	0.96942
813.30879	0.96823
811.25498	0.96622
809.20117	0.96417
807.14736	0.96335
805.09355	0.96368
803.03974	0.96378
800.98593	0.96321
798.93212	0.96271
796.87831	0.96267
794.82450	0.96283
792.77069	0.96334
790.71688	0.96465
788.66307	0.96599
786.60926	0.96635
784.55545	0.96628
782.50164	0.96645
780.44783	0.96664
778.39402	0.96688
776.34021	0.96743
774.28640	0.96782
772.23259	0.96762
770.17878	0.96762
768.12497	0.96835
766.07116	0.96885
764.01735	0.96845
761.96354	0.96782
759.90973	0.96781
757.85592	0.96829
755.80211	0.96853
753.74830	0.96815
751.69449	0.96741
749.64068	0.96696
747.58687	0.96697
745.53306	0.96711
743.47925	0.96712
741.42544	0.96716
739.37163	0.96706
737.31781	0.96666
735.26400	0.96639
733.21019	0.96648
731.15638	0.96670
729.10257	0.96661
727.04876	0.96630
724.99495	0.96629
722.94114	0.96652
720.88733	0.96643
718.83352	0.96578
716.77971	0.96540
714.72590	0.96556
712.67209	0.96563
710.61828	0.96565
708.56447	0.96534
706.51066	0.96426
704.45685	0.96333
702.40304	0.96281
700.34923	0.96194
698.29542	0.96090
696.24161	0.96000
694.18780	0.95924
692.13399	0.95903
690.08018	0.95928
688.02637	0.95935
685.97256	0.95917
683.91875	0.95926
681.86494	0.95972
679.81113	0.95964
677.75732	0.95882
675.70351	0.95832
673.64970	0.95833
671.59589	0.95841
669.54208	0.95879
667.48827	0.95988
665.43446	0.96037
663.38065	0.95977
661.32684	0.95887
659.27303	0.95852
657.21922	0.95901
655.16541	0.95981
653.11160	0.96024
651.05779	0.95974
649.00398	0.95822
646.95017	0.95690
644.89636	0.95644
642.84255	0.95628
640.78874	0.95564
638.73493	0.95451
636.68112	0.95408
634.62731	0.95402
632.57350	0.95359
630.51969	0.95362
628.46588	0.95426
626.41207	0.95458
624.35826	0.95421
622.30445	0.95344
620.25064	0.95286
618.19683	0.95229
616.14302	0.95093
614.08921	0.94932
612.03540	0.94868
609.98159	0.94898
607.92778	0.94939
605.87397	0.94963
603.82016	0.94969
601.76635	0.94923
599.71254	0.94826
597.65873	0.94744
595.60492	0.94650
593.55111	0.94480
591.49730	0.94332
589.44349	0.94305
587.38968	0.94303
585.33587	0.94217
583.28206	0.94177
581.22825	0.94199
579.17444	0.94139
577.12063	0.94043
575.06682	0.93956
573.01301	0.93890
570.95920	0.93876
568.90539	0.93833
566.85158	0.93733
564.79777	0.93689
562.74396	0.93756
560.69015	0.93859
558.63634	0.93911
556.58253	0.93954
554.52872	0.93963
552.47491	0.93844
550.42110	0.93652
548.36729	0.93390
546.31348	0.93117
544.25967	0.92975
542.20586	0.92957
540.15205	0.92941
538.09824	0.92903
536.04443	0.92871
533.99062	0.92776
531.93681	0.92711
529.88300	0.92763
527.82919	0.92879
525.77538	0.93033
523.72157	0.93153
521.66776	0.93238
519.61395	0.93280
517.56014	0.93207
515.50633	0.93117
513.45252	0.93168
511.39871	0.93305
509.34490	0.93383
507.29109	0.93416
505.23728	0.93423
503.18347	0.93353
501.12966	0.93374
499.07585	0.93440
497.02204	0.93236
494.96823	0.92903
492.91442	0.92784
490.86061	0.92897
488.80680	0.92986
486.75299	0.92887
484.69918	0.92738
482.64537	0.92648
480.59156	0.92443
478.53775	0.92105
476.48394	0.91858
474.43013	0.91723
472.37632	0.91531
470.32251	0.91284
468.26870	0.91154
466.21489	0.91172
464.16108	0.91183
462.10727	0.91155
460.05346	0.91261
457.99965	0.91455
455.94584	0.91552
453.89203	0.91681
451.83822	0.91942
449.78441	0.92153
447.73060	0.92073
445.67679	0.91786
443.62298	0.91637
441.56916	0.91694
439.51535	0.91830
437.46154	0.91908
435.40773	0.91909
433.35392	0.91868
431.30011	0.91522
429.24630	0.91030
427.19249	0.90996
425.13868	0.91328
423.08487	0.91544
421.03106	0.91644
418.97725	0.92045
416.92344	0.92595
414.86963	0.92686
412.81582	0.92449
410.76201	0.92182
408.70820	0.92227
406.65439	0.92781
404.60058	0.93244
402.54677	0.93166
400.49296	0.93024
398.43915	0.93102
