3996.70104	0.98993
3994.64724	0.98929
3992.59344	0.98885
3990.53964	0.98902
3988.48583	0.98885
3986.43203	0.98849
3984.37823	0.98853
3982.32442	0.98849
3980.27062	0.98796
3978.21682	0.98771
3976.16301	0.98839
3974.10921	0.98934
3972.05541	0.98985
3970.00160	0.98966
3967.94780	0.98893
3965.89400	0.98836
3963.84019	0.98814
3961.78639	0.98816
3959.73259	0.98856
3957.67878	0.98902
3955.62498	0.98917
3953.57118	0.98907
3951.51737	0.98909
3949.46357	0.98922
3947.40977	0.98918
3945.35596	0.98921
3943.30216	0.98939
3941.24836	0.98950
3939.19455	0.98937
3937.14075	0.98912
3935.08695	0.98911
3933.03315	0.98962
3930.97934	0.99013
3928.92554	0.98988
3926.87174	0.98967
3924.81793	0.99003
3922.76413	0.99012
3920.71033	0.98973
3918.65652	0.98938
3916.60272	0.98923
3914.54892	0.98903
3912.49511	0.98860
3910.44131	0.98850
3908.38751	0.98887
3906.33370	0.98896
3904.27990	0.98887
3902.22610	0.98873
3900.17229	0.98841
3898.11849	0.98864
3896.06469	0.98903
3894.01088	0.98918
3891.95708	0.98964
3889.90328	0.99011
3887.84947	0.99006
3885.79567	0.99006
3883.74187	0.99026
3881.68807	0.99031
3879.63426	0.98991
3877.58046	0.98936
3875.52666	0.98900
3873.47285	0.98863
3871.41905	0.98802
3869.36525	0.98775
3867.31144	0.98814
3865.25764	0.98806
3863.20384	0.98760
3861.15003	0.98790
3859.09623	0.98849
3857.04243	0.98899
3854.98862	0.98955
3852.93482	0.98928
3850.88102	0.98889
3848.82721	0.98916
3846.77341	0.98944
3844.71961	0.98947
3842.66580	0.98919
3840.61200	0.98909
3838.55820	0.98960
3836.50439	0.99068
3834.45059	0.99167
3832.39679	0.99183
3830.34298	0.99120
3828.28918	0.99066
3826.23538	0.99054
3824.18158	0.99055
3822.12777	0.99096
3820.07397	0.99155
3818.02017	0.99121
3815.96636	0.99058
3813.91256	0.99043
3811.85876	0.99039
3809.80495	0.99026
3807.75115	0.99052
3805.69735	0.99106
3803.64354	0.99131
3801.58974	0.99167
3799.53594	0.99158
3797.48213	0.99078
3795.42833	0.99026
3793.37453	0.99010
3791.32072	0.99000
3789.26692	0.99004
3787.21312	0.99011
3785.15931	0.98995
3783.10551	0.98966
3781.05171	0.98928
3778.99790	0.98905
3776.94410	0.98938
3774.89030	0.98998
3772.83650	0.99055
3770.78269	0.99104
3768.72889	0.99108
3766.67509	0.99060
3764.62128	0.99012
3762.56748	0.98974
3760.51368	0.98983
3758.45987	0.99068
3756.40607	0.99096
3754.35227	0.99050
3752.29846	0.99024
3750.24466	0.99019
3748.19086	0.99000
3746.13705	0.98990
3744.08325	0.99061
3742.02945	0.99138
3739.97564	0.99092
3737.92184	0.98942
3735.86804	0.98793
3733.81423	0.98787
3731.76043	0.98787
3729.70663	0.98745
3727.65282	0.98777
3725.59902	0.98856
3723.54522	0.98807
3721.49141	0.98645
3719.43761	0.98494
3717.38381	0.98344
3715.33001	0.98184
3713.27620	0.97979
3711.22240	0.97590
3709.16860	0.97057
3707.11479	0.96594
3705.06099	0.96202
3703.00719	0.95780
3700.95338	0.95357
3698.89958	0.95114
3696.84578	0.95062
3694.79197	0.95152
3692.73817	0.95358
3690.68437	0.95608
3688.63056	0.95793
3686.57676	0.95933
3684.52296	0.96056
3682.46915	0.96124
3680.41535	0.96130
3678.36155	0.96121
3676.30774	0.96099
3674.25394	0.96084
3672.20014	0.96077
3670.14633	0.95943
3668.09253	0.95796
3666.03873	0.95765
3663.98492	0.95745
3661.93112	0.95722
3659.87732	0.95668
3657.82352	0.95565
3655.76971	0.95450
3653.71591	0.95368
3651.66211	0.95283
3649.60830	0.95049
3647.55450	0.94828
3645.50070	0.94849
3643.44689	0.94873
3641.39309	0.94808
3639.33929	0.94756
3637.28548	0.94731
3635.23168	0.94640
3633.17788	0.94512
3631.12407	0.94395
3629.07027	0.94160
3627.01647	0.93845
3624.96266	0.93635
3622.90886	0.93510
3620.85506	0.93513
3618.80125	0.93579
3616.74745	0.93583
3614.69365	0.93621
3612.63984	0.93736
3610.58604	0.93873
3608.53224	0.93959
3606.47844	0.93932
3604.42463	0.93913
3602.37083	0.93946
3600.31703	0.93968
3598.26322	0.93957
3596.20942	0.93937
3594.15562	0.93919
3592.10181	0.93916
3590.04801	0.93927
3587.99421	0.93892
3585.94040	0.93788
3583.88660	0.93683
3581.83280	0.93617
3579.77899	0.93582
3577.72519	0.93500
3575.67139	0.93354
3573.61758	0.93253
3571.56378	0.93245
3569.50998	0.93265
3567.45617	0.93170
3565.40237	0.92909
3563.34857	0.92735
3561.29476	0.92690
3559.24096	0.92665
3557.18716	0.92614
3555.13335	0.92536
3553.07955	0.92438
3551.02575	0.92341
3548.97195	0.92281
3546.91814	0.92240
3544.86434	0.92162
3542.81054	0.92064
3540.75673	0.91981
3538.70293	0.91903
3536.64913	0.91835
3534.59532	0.91787
3532.54152	0.91759
3530.48772	0.91751
3528.43391	0.91748
3526.38011	0.91703
3524.32631	0.91656
3522.27250	0.91658
3520.21870	0.91675
3518.16490	0.91707
3516.11109	0.91775
3514.05729	0.91814
3512.00349	0.91769
3509.94968	0.91704
3507.89588	0.91683
3505.84208	0.91686
3503.78827	0.91648
3501.73447	0.91588
3499.68067	0.91583
3497.62687	0.91602
3495.57306	0.91597
3493.51926	0.91596
3491.46546	0.91608
3489.41165	0.91593
3487.35785	0.91533
3485.30405	0.91481
3483.25024	0.91481
3481.19644	0.91496
3479.14264	0.91487
3477.08883	0.91472
3475.03503	0.91455
3472.98123	0.91416
3470.92742	0.91343
3468.87362	0.91271
3466.81982	0.91237
3464.76601	0.91208
3462.71221	0.91162
3460.65841	0.91130
3458.60460	0.91118
3456.55080	0.91062
3454.49700	0.90946
3452.44319	0.90866
3450.38939	0.90857
3448.33559	0.90849
3446.28178	0.90772
3444.22798	0.90675
3442.17418	0.90626
3440.12038	0.90592
3438.06657	0.90536
3436.01277	0.90506
3433.95897	0.90526
3431.90516	0.90501
3429.85136	0.90417
3427.79756	0.90324
3425.74375	0.90198
3423.68995	0.90097
3421.63615	0.90052
3419.58234	0.89963
3417.52854	0.89813
3415.47474	0.89668
3413.42093	0.89582
3411.36713	0.89555
3409.31333	0.89534
3407.25952	0.89492
3405.20572	0.89439
3403.15192	0.89395
3401.09811	0.89346
3399.04431	0.89293
3396.99051	0.89279
3394.93670	0.89290
3392.88290	0.89290
3390.82910	0.89284
3388.77529	0.89314
3386.72149	0.89386
3384.66769	0.89450
3382.61389	0.89498
3380.56008	0.89545
3378.50628	0.89559
3376.45248	0.89553
3374.39867	0.89583
3372.34487	0.89638
3370.29107	0.89688
3368.23726	0.89737
3366.18346	0.89800
3364.12966	0.89840
3362.07585	0.89862
3360.02205	0.89909
3357.96825	0.89952
3355.91444	0.89952
3353.86064	0.89955
3351.80684	0.90008
3349.75303	0.90035
3347.69923	0.90003
3345.64543	0.89997
3343.59162	0.90025
3341.53782	0.90060
3339.48402	0.90121
3337.43021	0.90201
3335.37641	0.90271
3333.32261	0.90314
3331.26881	0.90349
3329.21500	0.90388
3327.16120	0.90381
3325.10740	0.90365
3323.05359	0.90409
3320.99979	0.90457
3318.94599	0.90468
3316.89218	0.90484
3314.83838	0.90547
3312.78458	0.90616
3310.73077	0.90655
3308.67697	0.90658
3306.62317	0.90621
3304.56936	0.90602
3302.51556	0.90664
3300.46176	0.90768
3298.40795	0.90834
3296.35415	0.90840
3294.30035	0.90824
3292.24654	0.90852
3290.19274	0.90929
3288.13894	0.90982
3286.08513	0.90997
3284.03133	0.91011
3281.97753	0.91048
3279.92372	0.91107
3277.86992	0.91164
3275.81612	0.91203
3273.76232	0.91239
3271.70851	0.91279
3269.65471	0.91282
3267.60091	0.91250
3265.54710	0.91268
3263.49330	0.91346
3261.43950	0.91379
3259.38569	0.91346
3257.33189	0.91351
3255.27809	0.91426
3253.22428	0.91485
3251.17048	0.91523
3249.11668	0.91578
3247.06287	0.91616
3245.00907	0.91641
3242.95527	0.91695
3240.90146	0.91764
3238.84766	0.91815
3236.79386	0.91851
3234.74005	0.91870
3232.68625	0.91879
3230.63245	0.91926
3228.57864	0.92006
3226.52484	0.92093
3224.47104	0.92159
3222.41724	0.92166
3220.36343	0.92165
3218.30963	0.92215
3216.25583	0.92257
3214.20202	0.92281
3212.14822	0.92344
3210.09442	0.92398
3208.04061	0.92430
3205.98681	0.92472
3203.93301	0.92523
3201.87920	0.92607
3199.82540	0.92697
3197.77160	0.92764
3195.71779	0.92841
3193.66399	0.92907
3191.61019	0.92947
3189.55638	0.92976
3187.50258	0.93004
3185.44878	0.93028
3183.39497	0.93063
3181.34117	0.93156
3179.28737	0.93272
3177.23356	0.93366
3175.17976	0.93433
3173.12596	0.93447
3171.07215	0.93461
3169.01835	0.93554
3166.96455	0.93694
3164.91075	0.93776
3162.85694	0.93814
3160.80314	0.93902
3158.74934	0.94001
3156.69553	0.94016
3154.64173	0.93991
3152.58793	0.94041
3150.53412	0.94148
3148.48032	0.94223
3146.42652	0.94251
3144.37271	0.94273
3142.31891	0.94315
3140.26511	0.94359
3138.21130	0.94413
3136.15750	0.94478
3134.10370	0.94526
3132.04989	0.94582
3129.99609	0.94672
3127.94229	0.94762
3125.88848	0.94811
3123.83468	0.94825
3121.78088	0.94829
3119.72707	0.94833
3117.67327	0.94848
3115.61947	0.94885
3113.56566	0.94941
3111.51186	0.94990
3109.45806	0.95009
3107.40426	0.95032
3105.35045	0.95105
3103.29665	0.95170
3101.24285	0.95196
3099.18904	0.95226
3097.13524	0.95272
3095.08144	0.95339
3093.02763	0.95388
3090.97383	0.95399
3088.92003	0.95432
3086.86622	0.95469
3084.81242	0.95454
3082.75862	0.95422
3080.70481	0.95426
3078.65101	0.95463
3076.59721	0.95512
3074.54340	0.95560
3072.48960	0.95609
3070.43580	0.95673
3068.38199	0.95742
3066.32819	0.95775
3064.27439	0.95768
3062.22058	0.95770
3060.16678	0.95806
3058.11298	0.95858
3056.05918	0.95911
3054.00537	0.95948
3051.95157	0.95974
3049.89777	0.96003
3047.84396	0.96022
3045.79016	0.96035
3043.73636	0.96063
3041.68255	0.96108
3039.62875	0.96178
3037.57495	0.96211
3035.52114	0.96170
3033.46734	0.96161
3031.41354	0.96221
3029.35973	0.96278
3027.30593	0.96299
3025.25213	0.96299
3023.19832	0.96309
3021.14452	0.96337
3019.09072	0.96355
3017.03691	0.96349
3014.98311	0.96338
3012.92931	0.96332
3010.87550	0.96344
3008.82170	0.96379
3006.76790	0.96397
3004.71409	0.96403
3002.66029	0.96421
3000.60649	0.96418
2998.55269	0.96380
2996.49888	0.96347
2994.44508	0.96342
2992.39128	0.96342
2990.33747	0.96324
2988.28367	0.96275
2986.22987	0.96199
2984.17606	0.96140
2982.12226	0.96101
2980.06846	0.96057
2978.01465	0.95990
2975.96085	0.95855
2973.90705	0.95655
2971.85324	0.95449
2969.79944	0.95252
2967.74564	0.95030
2965.69183	0.94768
2963.63803	0.94503
2961.58423	0.94241
2959.53042	0.93987
2957.47662	0.93749
2955.42282	0.93518
2953.36901	0.93322
2951.31521	0.93167
2949.26141	0.93032
2947.20761	0.92888
2945.15380	0.92631
2943.10000	0.92170
2941.04620	0.91499
2938.99239	0.90606
2936.93859	0.89483
2934.88479	0.88156
2932.83098	0.86594
2930.77718	0.84770
2928.72338	0.82668
2926.66957	0.80231
2924.61577	0.77367
2922.56197	0.74078
2920.50816	0.70554
2918.45436	0.67170
2916.40056	0.64643
2914.34675	0.63828
2912.29295	0.64939
2910.23915	0.67301
2908.18534	0.70007
2906.13154	0.72491
2904.07774	0.74537
2902.02393	0.76161
2899.97013	0.77514
2897.91633	0.78721
2895.86252	0.79808
2893.80872	0.80812
2891.75492	0.81836
2889.70112	0.82884
2887.64731	0.83898
2885.59351	0.84920
2883.53971	0.85998
2881.48590	0.87077
2879.43210	0.88066
2877.37830	0.88948
2875.32449	0.89744
2873.27069	0.90394
2871.21689	0.90832
2869.16308	0.91059
2867.10928	0.91059
2865.05548	0.90799
2863.00167	0.90222
2860.94787	0.89149
2858.89407	0.87335
2856.84026	0.84568
2854.78646	0.80648
2852.73266	0.75688
2850.67885	0.70685
2848.62505	0.67468
2846.57125	0.67427
2844.51744	0.70268
2842.46364	0.74468
2840.40984	0.78648
2838.35603	0.82175
2836.30223	0.84942
2834.24843	0.87093
2832.19463	0.88817
2830.14082	0.90215
2828.08702	0.91339
2826.03322	0.92237
2823.97941	0.92925
2821.92561	0.93449
2819.87181	0.93903
2817.81800	0.94322
2815.76420	0.94651
2813.71040	0.94889
2811.65659	0.95122
2809.60279	0.95363
2807.54899	0.95553
2805.49518	0.95690
2803.44138	0.95825
2801.38758	0.95999
2799.33377	0.96176
2797.27997	0.96301
2795.22617	0.96383
2793.17236	0.96462
2791.11856	0.96577
2789.06476	0.96727
2787.01095	0.96853
2784.95715	0.96914
2782.90335	0.96974
2780.84955	0.97070
2778.79574	0.97132
2776.74194	0.97154
2774.68814	0.97200
2772.63433	0.97273
2770.58053	0.97317
2768.52673	0.97342
2766.47292	0.97403
2764.41912	0.97441
2762.36532	0.97429
2760.31151	0.97459
2758.25771	0.97541
2756.20391	0.97591
2754.15010	0.97581
2752.09630	0.97557
2750.04250	0.97558
2747.98869	0.97555
2745.93489	0.97557
2743.88109	0.97593
2741.82728	0.97648
2739.77348	0.97704
2737.71968	0.97736
2735.66587	0.97730
2733.61207	0.97725
2731.55827	0.97755
2729.50446	0.97794
2727.45066	0.97816
2725.39686	0.97817
2723.34306	0.97812
2721.28925	0.97833
2719.23545	0.97879
2717.18165	0.97914
2715.12784	0.97903
2713.07404	0.97886
2711.02024	0.97893
2708.96643	0.97913
2706.91263	0.97943
2704.85883	0.97968
2702.80502	0.97978
2700.75122	0.97992
2698.69742	0.98039
2696.64361	0.98081
2694.58981	0.98067
2692.53601	0.98058
2690.48220	0.98097
2688.42840	0.98122
2686.37460	0.98129
2684.32079	0.98163
2682.26699	0.98198
2680.21319	0.98183
2678.15938	0.98133
2676.10558	0.98102
2674.05178	0.98092
2671.99797	0.98066
2669.94417	0.98039
2667.89037	0.98037
2665.83657	0.98047
2663.78276	0.98061
2661.72896	0.98071
2659.67516	0.98074
2657.62135	0.98077
2655.56755	0.98051
2653.51375	0.98016
2651.45994	0.98012
2649.40614	0.98035
2647.35234	0.98062
2645.29853	0.98102
2643.24473	0.98161
2641.19093	0.98185
2639.13712	0.98136
2637.08332	0.98064
2635.02952	0.98047
2632.97571	0.98098
2630.92191	0.98163
2628.86811	0.98195
2626.81430	0.98190
2624.76050	0.98189
2622.70670	0.98214
2620.65289	0.98215
2618.59909	0.98201
2616.54529	0.98243
2614.49149	0.98300
2612.43768	0.98317
2610.38388	0.98350
2608.33008	0.98408
2606.27627	0.98407
2604.22247	0.98363
2602.16867	0.98396
2600.11486	0.98525
2598.06106	0.98612
2596.00726	0.98601
2593.95345	0.98562
2591.89965	0.98541
2589.84585	0.98570
2587.79204	0.98654
2585.73824	0.98697
2583.68444	0.98657
2581.63063	0.98641
2579.57683	0.98668
2577.52303	0.98654
2575.46922	0.98623
2573.41542	0.98610
2571.36162	0.98627
2569.30781	0.98706
2567.25401	0.98771
2565.20021	0.98772
2563.14640	0.98774
2561.09260	0.98795
2559.03880	0.98816
2556.98500	0.98841
2554.93119	0.98860
2552.87739	0.98845
2550.82359	0.98821
2548.76978	0.98819
2546.71598	0.98811
2544.66218	0.98810
2542.60837	0.98837
2540.55457	0.98847
2538.50077	0.98819
2536.44696	0.98791
2534.39316	0.98755
2532.33936	0.98700
2530.28555	0.98676
2528.23175	0.98692
2526.17795	0.98695
2524.12414	0.98666
2522.07034	0.98641
2520.01654	0.98642
2517.96273	0.98682
2515.90893	0.98778
2513.85513	0.98871
2511.80132	0.98896
2509.74752	0.98893
2507.69372	0.98891
2505.63992	0.98888
2503.58611	0.98902
2501.53231	0.98922
2499.47851	0.98942
2497.42470	0.98951
2495.37090	0.98941
2493.31710	0.98924
2491.26329	0.98885
2489.20949	0.98839
2487.15569	0.98864
2485.10188	0.98964
2483.04808	0.99047
2480.99428	0.99056
2478.94047	0.98970
2476.88667	0.98854
2474.83287	0.98818
2472.77906	0.98880
2470.72526	0.98990
2468.67146	0.99057
2466.61765	0.99031
2464.56385	0.98946
2462.51005	0.98902
2460.45624	0.98933
2458.40244	0.98942
2456.34864	0.98899
2454.29483	0.98870
2452.24103	0.98874
2450.18723	0.98883
2448.13343	0.98896
2446.07962	0.98942
2444.02582	0.98984
2441.97202	0.98962
2439.91821	0.98899
2437.86441	0.98854
2435.81061	0.98862
2433.75680	0.98911
2431.70300	0.98954
2429.64920	0.98983
2427.59539	0.98991
2425.54159	0.98972
2423.48779	0.98954
2421.43398	0.98913
2419.38018	0.98856
2417.32638	0.98841
2415.27257	0.98879
2413.21877	0.98955
2411.16497	0.99004
2409.11116	0.98986
2407.05736	0.98982
2405.00356	0.99032
2402.94975	0.99028
2400.89595	0.98947
2398.84215	0.98928
2396.78834	0.98989
2394.73454	0.99011
2392.68074	0.98993
2390.62694	0.98968
2388.57313	0.98924
2386.51933	0.98899
2384.46553	0.98899
2382.41172	0.98901
2380.35792	0.98900
2378.30412	0.98884
2376.25031	0.98902
2374.19651	0.98931
2372.14271	0.98873
2370.08890	0.98759
2368.03510	0.98691
2365.98130	0.98723
2363.92749	0.98783
2361.87369	0.98789
2359.81989	0.98780
2357.76608	0.98788
2355.71228	0.98829
2353.65848	0.98894
2351.60467	0.98901
2349.55087	0.98859
2347.49707	0.98827
2345.44326	0.98762
2343.38946	0.98585
2341.33566	0.98416
2339.28186	0.98420
2337.22805	0.98550
2335.17425	0.98667
2333.12045	0.98697
2331.06664	0.98703
2329.01284	0.98741
2326.95904	0.98719
2324.90523	0.98596
2322.85143	0.98537
2320.79763	0.98650
2318.74382	0.98737
2316.69002	0.98682
2314.63622	0.98631
2312.58241	0.98640
2310.52861	0.98668
2308.47481	0.98755
2306.42100	0.98843
2304.36720	0.98861
2302.31340	0.98865
2300.25959	0.98877
2298.20579	0.98873
2296.15199	0.98833
2294.09818	0.98793
2292.04438	0.98800
2289.99058	0.98831
2287.93677	0.98815
2285.88297	0.98714
2283.82917	0.98571
2281.77537	0.98521
2279.72156	0.98638
2277.66776	0.98788
2275.61396	0.98825
2273.56015	0.98819
2271.50635	0.98869
2269.45255	0.98862
2267.39874	0.98847
2265.34494	0.98989
2263.29114	0.99100
2261.23733	0.99044
2259.18353	0.98949
2257.12973	0.98875
2255.07592	0.98874
2253.02212	0.98974
2250.96832	0.99058
2248.91451	0.99020
2246.86071	0.98914
2244.80691	0.98875
2242.75310	0.98844
2240.69930	0.98744
2238.64550	0.98738
2236.59169	0.98891
2234.53789	0.99044
2232.48409	0.99033
2230.43029	0.98899
2228.37648	0.98844
2226.32268	0.98887
2224.26888	0.98920
2222.21507	0.98971
2220.16127	0.99005
2218.10747	0.99001
2216.05366	0.99022
2213.99986	0.99002
2211.94606	0.98885
2209.89225	0.98810
2207.83845	0.98916
2205.78465	0.99053
2203.73084	0.99079
2201.67704	0.99087
2199.62324	0.99074
2197.56943	0.99007
2195.51563	0.98984
2193.46183	0.99095
2191.40802	0.99230
2189.35422	0.99197
2187.30042	0.99033
2185.24661	0.98832
2183.19281	0.98650
2181.13901	0.98664
2179.08520	0.98904
2177.03140	0.99212
2174.97760	0.99520
2172.92380	0.99616
2170.86999	0.99197
2168.81619	0.98670
2166.76239	0.98621
2164.70858	0.98930
2162.65478	0.99205
2160.60098	0.99433
2158.54717	0.99782
2156.49337	0.99848
2154.43957	0.99500
2152.38576	0.99268
2150.33196	0.99314
2148.27816	0.99348
2146.22435	0.99338
2144.17055	0.99454
2142.11675	0.99530
2140.06294	0.99388
2138.00914	0.99144
2135.95534	0.98967
2133.90153	0.98869
2131.84773	0.98849
2129.79393	0.98927
2127.74012	0.99026
2125.68632	0.99076
2123.63252	0.99069
2121.57871	0.99074
2119.52491	0.99111
2117.47111	0.99131
2115.41731	0.99162
2113.36350	0.99128
2111.30970	0.99002
2109.25590	0.98937
2107.20209	0.98948
2105.14829	0.98970
2103.09449	0.98975
2101.04068	0.99011
2098.98688	0.99097
2096.93308	0.99152
2094.87927	0.99179
2092.82547	0.99154
2090.77167	0.99064
2088.71786	0.99011
2086.66406	0.99044
2084.61026	0.99008
2082.55645	0.98882
2080.50265	0.98876
2078.44885	0.98929
2076.39504	0.98866
2074.34124	0.98760
2072.28744	0.98764
2070.23363	0.98932
2068.17983	0.99140
2066.12603	0.99219
2064.07223	0.99217
2062.01842	0.99226
2059.96462	0.99238
2057.91082	0.99244
2055.85701	0.99150
2053.80321	0.98934
2051.74941	0.98756
2049.69560	0.98854
2047.64180	0.99181
2045.58800	0.99316
2043.53419	0.99169
2041.48039	0.98986
2039.42659	0.98996
2037.37278	0.99215
2035.31898	0.99373
2033.26518	0.99369
2031.21137	0.99381
2029.15757	0.99324
2027.10377	0.99157
2025.04996	0.99236
2022.99616	0.99449
2020.94236	0.99341
2018.88855	0.98981
2016.83475	0.98819
2014.78095	0.98977
2012.72714	0.99116
2010.67334	0.99093
2008.61954	0.99038
2006.56574	0.99037
2004.51193	0.99133
2002.45813	0.99321
2000.40433	0.99482
1998.35052	0.99454
1996.29672	0.99374
1994.24292	0.99517
1992.18911	0.99619
1990.13531	0.99408
1988.08151	0.99225
1986.02770	0.99210
1983.97390	0.99267
1981.92010	0.99346
1979.86629	0.99349
1977.81249	0.99323
1975.75869	0.99297
1973.70488	0.99276
1971.65108	0.99299
1969.59728	0.99258
1967.54347	0.99178
1965.48967	0.99209
1963.43587	0.99356
1961.38206	0.99528
1959.32826	0.99622
1957.27446	0.99578
1955.22066	0.99432
1953.16685	0.99326
1951.11305	0.99321
1949.05925	0.99332
1947.00544	0.99325
1944.95164	0.99295
1942.89784	0.99210
1940.84403	0.99074
1938.79023	0.98987
1936.73643	0.99016
1934.68262	0.99101
1932.62882	0.99174
1930.57502	0.99198
1928.52121	0.99184
1926.46741	0.99173
1924.41361	0.99094
1922.35980	0.98961
1920.30600	0.98942
1918.25220	0.99056
1916.19839	0.99196
1914.14459	0.99238
1912.09079	0.99128
1910.03698	0.98989
1907.98318	0.98987
1905.92938	0.99026
1903.87557	0.98952
1901.82177	0.98875
1899.76797	0.98911
1897.71417	0.98968
1895.66036	0.99006
1893.60656	0.99081
1891.55276	0.99122
1889.49895	0.99097
1887.44515	0.99117
1885.39135	0.99190
1883.33754	0.99178
1881.28374	0.99067
1879.22994	0.98981
1877.17613	0.98969
1875.12233	0.98997
1873.06853	0.99040
1871.01472	0.99050
1868.96092	0.98957
1866.90712	0.98873
1864.85331	0.98924
1862.79951	0.98995
1860.74571	0.99004
1858.69190	0.98993
1856.63810	0.99017
1854.58430	0.99055
1852.53049	0.99072
1850.47669	0.99048
1848.42289	0.98987
1846.36908	0.98966
1844.31528	0.99022
1842.26148	0.99054
1840.20768	0.99042
1838.15387	0.99005
1836.10007	0.98942
1834.04627	0.98919
1831.99246	0.98986
1829.93866	0.99084
1827.88486	0.99115
1825.83105	0.99099
1823.77725	0.99073
1821.72345	0.99040
1819.66964	0.98987
1817.61584	0.98926
1815.56204	0.98905
1813.50823	0.98933
1811.45443	0.98964
1809.40063	0.98978
1807.34682	0.99013
1805.29302	0.99053
1803.23922	0.99047
1801.18541	0.98992
1799.13161	0.98946
1797.07781	0.98934
1795.02400	0.98910
1792.97020	0.98866
1790.91640	0.98878
1788.86260	0.98902
1786.80879	0.98852
1784.75499	0.98790
1782.70119	0.98786
1780.64738	0.98817
1778.59358	0.98810
1776.53978	0.98753
1774.48597	0.98694
1772.43217	0.98673
1770.37837	0.98681
1768.32456	0.98673
1766.27076	0.98666
1764.21696	0.98660
1762.16315	0.98601
1760.10935	0.98551
1758.05555	0.98555
1756.00174	0.98503
1753.94794	0.98411
1751.89414	0.98346
1749.84033	0.98295
1747.78653	0.98187
1745.73273	0.98014
1743.67892	0.97853
1741.62512	0.97728
1739.57132	0.97634
1737.51751	0.97576
1735.46371	0.97533
1733.40991	0.97492
1731.35611	0.97465
1729.30230	0.97418
1727.24850	0.97364
1725.19470	0.97330
1723.14089	0.97313
1721.08709	0.97309
1719.03329	0.97305
1716.97948	0.97263
1714.92568	0.97187
1712.87188	0.97139
1710.81807	0.97108
1708.76427	0.97065
1706.71047	0.96965
1704.65666	0.96841
1702.60286	0.96774
1700.54906	0.96659
1698.49525	0.96440
1696.44145	0.96215
1694.38765	0.95952
1692.33384	0.95735
1690.28004	0.95521
1688.22624	0.95284
1686.17243	0.95069
1684.11863	0.94780
1682.06483	0.94537
1680.01103	0.94420
1677.95722	0.94323
1675.90342	0.94214
1673.84962	0.94119
1671.79581	0.94064
1669.74201	0.93938
1667.68821	0.93748
1665.63440	0.93621
1663.58060	0.93483
1661.52680	0.93304
1659.47299	0.93196
1657.41919	0.93166
1655.36539	0.93162
1653.31158	0.93062
1651.25778	0.92909
1649.20398	0.92872
1647.15017	0.92792
1645.09637	0.92678
1643.04257	0.92625
1640.98876	0.92578
1638.93496	0.92558
1636.88116	0.92518
1634.82735	0.92352
1632.77355	0.92248
1630.71975	0.92220
1628.66594	0.92166
1626.61214	0.92092
1624.55834	0.91984
1622.50454	0.91860
1620.45073	0.91877
1618.39693	0.92035
1616.34313	0.92286
1614.28932	0.92575
1612.23552	0.92849
1610.18172	0.93094
1608.12791	0.93300
1606.07411	0.93491
1604.02031	0.93663
1601.96650	0.93820
1599.91270	0.93964
1597.85890	0.94061
1595.80509	0.94152
1593.75129	0.94279
1591.69749	0.94389
1589.64368	0.94498
1587.58988	0.94640
1585.53608	0.94766
1583.48227	0.94863
1581.42847	0.94957
1579.37467	0.95051
1577.32086	0.95160
1575.26706	0.95295
1573.21326	0.95389
1571.15945	0.95441
1569.10565	0.95515
1567.05185	0.95607
1564.99805	0.95661
1562.94424	0.95709
1560.89044	0.95778
1558.83664	0.95780
1556.78283	0.95740
1554.72903	0.95767
1552.67523	0.95806
1550.62142	0.95841
1548.56762	0.95843
1546.51382	0.95832
1544.46001	0.95862
1542.40621	0.95937
1540.35241	0.96028
1538.29860	0.96114
1536.24480	0.96175
1534.19100	0.96248
1532.13719	0.96354
1530.08339	0.96452
1528.02959	0.96536
1525.97578	0.96584
1523.92198	0.96581
1521.86818	0.96607
1519.81437	0.96720
1517.76057	0.96809
1515.70677	0.96842
1513.65297	0.96879
1511.59916	0.96943
1509.54536	0.97017
1507.49156	0.97059
1505.43775	0.97035
1503.38395	0.97017
1501.33015	0.97015
1499.27634	0.97005
1497.22254	0.96975
1495.16874	0.96922
1493.11493	0.96872
1491.06113	0.96827
1489.00733	0.96749
1486.95352	0.96602
1484.89972	0.96416
1482.84592	0.96152
1480.79211	0.95708
1478.73831	0.94817
1476.68451	0.92632
1474.63070	0.88481
1472.57690	0.84236
1470.52310	0.83485
1468.46929	0.84660
1466.41549	0.85423
1464.36169	0.85278
1462.30788	0.85549
1460.25408	0.87057
1458.20028	0.89310
1456.14648	0.91220
1454.09267	0.92097
1452.03887	0.92645
1449.98507	0.93091
1447.93126	0.93441
1445.87746	0.93699
1443.82366	0.93875
1441.76985	0.94026
1439.71605	0.94169
1437.66225	0.94281
1435.60844	0.94387
1433.55464	0.94537
1431.50084	0.94702
1429.44703	0.94861
1427.39323	0.95025
1425.33943	0.95169
1423.28562	0.95259
1421.23182	0.95338
1419.17802	0.95451
1417.12421	0.95517
1415.07041	0.95535
1413.01661	0.95545
1410.96280	0.95559
1408.90900	0.95608
1406.85520	0.95666
1404.80139	0.95706
1402.74759	0.95736
1400.69379	0.95767
1398.63999	0.95798
1396.58618	0.95819
1394.53238	0.95818
1392.47858	0.95810
1390.42477	0.95816
1388.37097	0.95795
1386.31717	0.95686
1384.26336	0.95498
1382.20956	0.95210
1380.15576	0.94780
1378.10195	0.94347
1376.04815	0.94233
1373.99435	0.94555
1371.94054	0.94948
1369.88674	0.95163
1367.83294	0.95287
1365.77913	0.95392
1363.72533	0.95510
1361.67153	0.95644
1359.61772	0.95753
1357.56392	0.95837
1355.51012	0.95911
1353.45631	0.95989
1351.40251	0.96077
1349.34871	0.96158
1347.29491	0.96225
1345.24110	0.96282
1343.18730	0.96326
1341.13350	0.96340
1339.07969	0.96336
1337.02589	0.96360
1334.97209	0.96391
1332.91828	0.96407
1330.86448	0.96414
1328.81068	0.96399
1326.75687	0.96360
1324.70307	0.96334
1322.64927	0.96314
1320.59546	0.96283
1318.54166	0.96263
1316.48786	0.96250
1314.43405	0.96229
1312.38025	0.96211
1310.32645	0.96197
1308.27264	0.96179
1306.21884	0.96164
1304.16504	0.96162
1302.11123	0.96158
1300.05743	0.96146
1298.00363	0.96158
1295.94982	0.96179
1293.89602	0.96179
1291.84222	0.96151
1289.78842	0.96098
1287.73461	0.96053
1285.68081	0.96025
1283.62701	0.95983
1281.57320	0.95941
1279.51940	0.95908
1277.46560	0.95851
1275.41179	0.95767
1273.35799	0.95675
1271.30419	0.95607
1269.25038	0.95572
1267.19658	0.95513
1265.14278	0.95432
1263.08897	0.95377
1261.03517	0.95341
1258.98137	0.95303
1256.92756	0.95266
1254.87376	0.95218
1252.81996	0.95150
1250.76615	0.95118
1248.71235	0.95129
1246.65855	0.95121
1244.60474	0.95090
1242.55094	0.95056
1240.49714	0.94986
1238.44334	0.94878
1236.38953	0.94784
1234.33573	0.94733
1232.28193	0.94699
1230.22812	0.94650
1228.17432	0.94598
1226.12052	0.94538
1224.06671	0.94444
1222.01291	0.94321
1219.95911	0.94217
1217.90530	0.94159
1215.85150	0.94082
1213.79770	0.93942
1211.74389	0.93811
1209.69009	0.93717
1207.63629	0.93601
1205.58248	0.93461
1203.52868	0.93313
1201.47488	0.93128
1199.42107	0.92922
1197.36727	0.92730
1195.31347	0.92528
1193.25966	0.92302
1191.20586	0.92050
1189.15206	0.91770
1187.09825	0.91473
1185.04445	0.91133
1182.99065	0.90771
1180.93685	0.90443
1178.88304	0.90104
1176.82924	0.89717
1174.77544	0.89300
1172.72163	0.88855
1170.66783	0.88379
1168.61403	0.87921
1166.56022	0.87506
1164.50642	0.87126
1162.45262	0.86810
1160.39881	0.86531
1158.34501	0.86215
1156.29121	0.85874
1154.23740	0.85535
1152.18360	0.85194
1150.12980	0.84863
1148.07599	0.84549
1146.02219	0.84239
1143.96839	0.83922
1141.91458	0.83591
1139.86078	0.83252
1137.80698	0.82907
1135.75317	0.82555
1133.69937	0.82179
1131.64557	0.81744
1129.59176	0.81239
1127.53796	0.80692
1125.48416	0.80111
1123.43036	0.79491
1121.37655	0.78857
1119.32275	0.78240
1117.26895	0.77665
1115.21514	0.77143
1113.16134	0.76664
1111.10754	0.76234
1109.05373	0.75869
1106.99993	0.75555
1104.94613	0.75240
1102.89232	0.74897
1100.83852	0.74581
1098.78472	0.74339
1096.73091	0.74166
1094.67711	0.74057
1092.62331	0.73992
1090.56950	0.73934
1088.51570	0.73870
1086.46190	0.73811
1084.40809	0.73738
1082.35429	0.73638
1080.30049	0.73526
1078.24668	0.73391
1076.19288	0.73207
1074.13908	0.73008
1072.08528	0.72823
1070.03147	0.72624
1067.97767	0.72378
1065.92387	0.72061
1063.87006	0.71685
1061.81626	0.71270
1059.76246	0.70795
1057.70865	0.70265
1055.65485	0.69686
1053.60105	0.69046
1051.54724	0.68352
1049.49344	0.67611
1047.43964	0.66833
1045.38583	0.66050
1043.33203	0.65308
1041.27823	0.64631
1039.22442	0.64003
1037.17062	0.63431
1035.11682	0.62915
1033.06301	0.62465
1031.00921	0.62138
1028.95541	0.61943
1026.90160	0.61835
1024.84780	0.61802
1022.79400	0.61810
1020.74019	0.61805
1018.68639	0.61774
1016.63259	0.61733
1014.57879	0.61700
1012.52498	0.61663
1010.47118	0.61595
1008.41738	0.61515
1006.36357	0.61496
1004.30977	0.61589
1002.25597	0.61812
1000.20216	0.62170
998.14836	0.62634
996.09456	0.63186
994.04075	0.63850
991.98695	0.64622
989.93315	0.65419
987.87934	0.66201
985.82554	0.67024
983.77174	0.67900
981.71793	0.68773
979.66413	0.69606
977.61033	0.70423
975.55652	0.71265
973.50272	0.72126
971.44892	0.72995
969.39511	0.73861
967.34131	0.74678
965.28751	0.75409
963.23371	0.76095
961.17990	0.76755
959.12610	0.77347
957.07230	0.77854
955.01849	0.78295
952.96469	0.78713
950.91089	0.79102
948.85708	0.79425
946.80328	0.79704
944.74948	0.79958
942.69567	0.80156
940.64187	0.80303
938.58807	0.80468
936.53426	0.80661
934.48046	0.80840
932.42666	0.80980
930.37285	0.81098
928.31905	0.81197
926.26525	0.81227
924.21144	0.81143
922.15764	0.80952
920.10384	0.80699
918.05003	0.80437
915.99623	0.80199
913.94243	0.79986
911.88862	0.79831
909.83482	0.79930
907.78102	0.80449
905.72722	0.81203
903.67341	0.81929
901.61961	0.82610
899.56581	0.83326
897.51200	0.84041
895.45820	0.84618
893.40440	0.85062
891.35059	0.85479
889.29679	0.85871
887.24299	0.86177
885.18918	0.86377
883.13538	0.86519
881.08158	0.86648
879.02777	0.86736
876.97397	0.86816
874.92017	0.86983
872.86636	0.87241
870.81256	0.87520
868.75876	0.87783
866.70495	0.88031
864.65115	0.88254
862.59735	0.88477
860.54354	0.88730
858.48974	0.89003
856.43594	0.89245
854.38213	0.89411
852.32833	0.89531
850.27453	0.89647
848.22073	0.89769
846.16692	0.89906
844.11312	0.89973
842.05932	0.89928
840.00551	0.89885
837.95171	0.89891
835.89791	0.89935
833.84410	0.89994
831.79030	0.89988
829.73650	0.89868
827.68269	0.89727
825.62889	0.89640
823.57509	0.89540
821.52128	0.89465
819.46748	0.89494
817.41368	0.89515
815.35987	0.89441
813.30607	0.89317
811.25227	0.89144
809.19846	0.88931
807.14466	0.88733
805.09086	0.88519
803.03705	0.88239
800.98325	0.87968
798.92945	0.87769
796.87565	0.87595
794.82184	0.87489
792.76804	0.87511
790.71424	0.87557
788.66043	0.87567
786.60663	0.87553
784.55283	0.87509
782.49902	0.87433
780.44522	0.87355
778.39142	0.87403
776.33761	0.87581
774.28381	0.87679
772.23001	0.87608
770.17620	0.87424
768.12240	0.87238
766.06860	0.87150
764.01479	0.87105
761.96099	0.86999
759.90719	0.86820
757.85338	0.86636
755.79958	0.86479
753.74578	0.86337
751.69197	0.86259
749.63817	0.86201
747.58437	0.86105
745.53056	0.86019
743.47676	0.85991
741.42296	0.86043
739.36916	0.86091
737.31535	0.85974
735.26155	0.85317
733.20775	0.83673
731.15394	0.81747
729.10014	0.81091
727.04634	0.81532
724.99253	0.81416
722.93873	0.79793
720.88493	0.76801
718.83112	0.74028
716.77732	0.73536
714.72352	0.75516
712.66971	0.78362
710.61591	0.80428
708.56211	0.81375
706.50830	0.81691
704.45450	0.81696
702.40070	0.81500
700.34689	0.81205
698.29309	0.80881
696.23929	0.80635
694.18548	0.80464
692.13168	0.80296
690.07788	0.80203
688.02408	0.80182
685.97027	0.80113
683.91647	0.79993
681.86267	0.79872
679.80886	0.79748
677.75506	0.79590
675.70126	0.79379
673.64745	0.79166
671.59365	0.79001
669.53985	0.78888
667.48604	0.78992
665.43224	0.79360
663.37844	0.79765
661.32463	0.80111
659.27083	0.80364
657.21703	0.80546
655.16322	0.80673
653.10942	0.80787
651.05562	0.80852
649.00181	0.80794
646.94801	0.80708
644.89421	0.80733
642.84040	0.80830
640.78660	0.80877
638.73280	0.80846
636.67899	0.80799
634.62519	0.80730
632.57139	0.80658
630.51759	0.80653
628.46378	0.80669
626.40998	0.80686
624.35618	0.80684
622.30237	0.80589
620.24857	0.80461
618.19477	0.80294
616.14096	0.79977
614.08716	0.79622
612.03336	0.79273
609.97955	0.78831
607.92575	0.78431
605.87195	0.78130
603.81814	0.77793
601.76434	0.77444
599.71054	0.77209
597.65673	0.77168
595.60293	0.77230
593.54913	0.77213
591.49532	0.77087
589.44152	0.76953
587.38772	0.76908
585.33391	0.76944
583.28011	0.76916
581.22631	0.76711
579.17250	0.76391
577.11870	0.76097
575.06490	0.75919
573.01110	0.75876
570.95729	0.75859
568.90349	0.75697
566.84969	0.75322
564.79588	0.74805
562.74208	0.74342
560.68828	0.74101
558.63447	0.73899
556.58067	0.73563
554.52687	0.73404
552.47306	0.73388
550.41926	0.72998
548.36546	0.72294
546.31165	0.71657
544.25785	0.71142
542.20405	0.70685
540.15024	0.70167
538.09644	0.69643
536.04264	0.69268
533.98883	0.68994
531.93503	0.68886
529.88123	0.68974
527.82742	0.69084
525.77362	0.69264
523.71982	0.69542
521.66602	0.69759
519.61221	0.70024
517.55841	0.70343
515.50461	0.70585
513.45080	0.70884
511.39700	0.71205
509.34320	0.71494
507.28939	0.71896
505.23559	0.72297
503.18179	0.72476
501.12798	0.72540
499.07418	0.72621
497.02038	0.72693
494.96657	0.72766
492.91277	0.72605
490.85897	0.72154
488.80516	0.71877
486.75136	0.71801
484.69756	0.71559
482.64375	0.70938
480.58995	0.69968
478.53615	0.68840
476.48234	0.67614
474.42854	0.66300
472.37474	0.65162
470.32093	0.64580
468.26713	0.64343
466.21333	0.63984
464.15953	0.63563
462.10572	0.63512
460.05192	0.64122
457.99812	0.65198
455.94431	0.65986
453.89051	0.66160
451.83671	0.66060
449.78290	0.66234
447.72910	0.66805
445.67530	0.67087
443.62149	0.66905
441.56769	0.67013
439.51389	0.67465
437.46008	0.67542
435.40628	0.67223
433.35248	0.66958
431.29867	0.66612
429.24487	0.66205
427.19107	0.65979
425.13726	0.66036
423.08346	0.66408
421.02966	0.66844
418.97585	0.67536
416.92205	0.68573
414.86825	0.69160
412.81445	0.69297
410.76064	0.69458
408.70684	0.69989
406.65304	0.70629
404.59923	0.70844
402.54543	0.70743
400.49163	0.70761
398.43782	0.70912
