3996.70104	0.95154
3994.64724	0.95107
3992.59344	0.95166
3990.53964	0.95234
3988.48583	0.95249
3986.43203	0.95260
3984.37823	0.95260
3982.32442	0.95257
3980.27062	0.95274
3978.21682	0.95299
3976.16301	0.95307
3974.10921	0.95276
3972.05541	0.95228
3970.00160	0.95181
3967.94780	0.95150
3965.89400	0.95179
3963.84019	0.95259
3961.78639	0.95313
3959.73259	0.95289
3957.67878	0.95224
3955.62498	0.95182
3953.57118	0.95195
3951.51737	0.95216
3949.46357	0.95215
3947.40977	0.95236
3945.35596	0.95252
3943.30216	0.95260
3941.24836	0.95269
3939.19455	0.95231
3937.14075	0.95172
3935.08695	0.95170
3933.03315	0.95238
3930.97934	0.95296
3928.92554	0.95290
3926.87174	0.95296
3924.81793	0.95362
3922.76413	0.95395
3920.71033	0.95350
3918.65652	0.95315
3916.60272	0.95336
3914.54892	0.95351
3912.49511	0.95356
3910.44131	0.95385
3908.38751	0.95413
3906.33370	0.95403
3904.27990	0.95348
3902.22610	0.95337
3900.17229	0.95418
3898.11849	0.95468
3896.06469	0.95418
3894.01088	0.95350
3891.95708	0.95359
3889.90328	0.95399
3887.84947	0.95386
3885.79567	0.95359
3883.74187	0.95368
3881.68807	0.95407
3879.63426	0.95433
3877.58046	0.95401
3875.52666	0.95375
3873.47285	0.95372
3871.41905	0.95345
3869.36525	0.95337
3867.31144	0.95356
3865.25764	0.95381
3863.20384	0.95377
3861.15003	0.95344
3859.09623	0.95335
3857.04243	0.95310
3854.98862	0.95262
3852.93482	0.95288
3850.88102	0.95345
3848.82721	0.95344
3846.77341	0.95320
3844.71961	0.95306
3842.66580	0.95300
3840.61200	0.95322
3838.55820	0.95398
3836.50439	0.95431
3834.45059	0.95374
3832.39679	0.95315
3830.34298	0.95288
3828.28918	0.95276
3826.23538	0.95304
3824.18158	0.95389
3822.12777	0.95445
3820.07397	0.95398
3818.02017	0.95331
3815.96636	0.95324
3813.91256	0.95375
3811.85876	0.95437
3809.80495	0.95492
3807.75115	0.95514
3805.69735	0.95480
3803.64354	0.95423
3801.58974	0.95411
3799.53594	0.95461
3797.48213	0.95502
3795.42833	0.95498
3793.37453	0.95449
3791.32072	0.95392
3789.26692	0.95365
3787.21312	0.95404
3785.15931	0.95480
3783.10551	0.95488
3781.05171	0.95430
3778.99790	0.95411
3776.94410	0.95438
3774.89030	0.95454
3772.83650	0.95433
3770.78269	0.95405
3768.72889	0.95423
3766.67509	0.95403
3764.62128	0.95338
3762.56748	0.95304
3760.51368	0.95314
3758.45987	0.95361
3756.40607	0.95411
3754.35227	0.95448
3752.29846	0.95460
3750.24466	0.95425
3748.19086	0.95412
3746.13705	0.95448
3744.08325	0.95529
3742.02945	0.95568
3739.97564	0.95536
3737.92184	0.95548
3735.86804	0.95673
3733.81423	0.95775
3731.76043	0.95748
3729.70663	0.95653
3727.65282	0.95558
3725.59902	0.95530
3723.54522	0.95514
3721.49141	0.95436
3719.43761	0.95348
3717.38381	0.95293
3715.33001	0.95277
3713.27620	0.95284
3711.22240	0.95283
3709.16860	0.95189
3707.11479	0.95003
3705.06099	0.94850
3703.00719	0.94763
3700.95338	0.94654
3698.89958	0.94526
3696.84578	0.94484
3694.79197	0.94499
3692.73817	0.94485
3690.68437	0.94442
3688.63056	0.94422
3686.57676	0.94461
3684.52296	0.94516
3682.46915	0.94555
3680.41535	0.94578
3678.36155	0.94594
3676.30774	0.94607
3674.25394	0.94643
3672.20014	0.94646
3670.14633	0.94551
3668.09253	0.94453
3666.03873	0.94448
3663.98492	0.94464
3661.93112	0.94446
3659.87732	0.94382
3657.82352	0.94274
3655.76971	0.94168
3653.71591	0.94143
3651.66211	0.94159
3649.60830	0.94079
3647.55450	0.93907
3645.50070	0.93775
3643.44689	0.93724
3641.39309	0.93761
3639.33929	0.93767
3637.28548	0.93642
3635.23168	0.93500
3633.17788	0.93458
3631.12407	0.93452
3629.07027	0.93391
3627.01647	0.93291
3624.96266	0.93218
3622.90886	0.93173
3620.85506	0.93131
3618.80125	0.93059
3616.74745	0.93013
3614.69365	0.93070
3612.63984	0.93182
3610.58604	0.93286
3608.53224	0.93374
3606.47844	0.93394
3604.42463	0.93340
3602.37083	0.93285
3600.31703	0.93226
3598.26322	0.93158
3596.20942	0.93163
3594.15562	0.93263
3592.10181	0.93354
3590.04801	0.93391
3587.99421	0.93404
3585.94040	0.93367
3583.88660	0.93301
3581.83280	0.93264
3579.77899	0.93236
3577.72519	0.93195
3575.67139	0.93191
3573.61758	0.93180
3571.56378	0.93108
3569.50998	0.93102
3567.45617	0.93198
3565.40237	0.93226
3563.34857	0.93177
3561.29476	0.93140
3559.24096	0.93137
3557.18716	0.93142
3555.13335	0.93096
3553.07955	0.93003
3551.02575	0.92951
3548.97195	0.92963
3546.91814	0.92992
3544.86434	0.93004
3542.81054	0.92982
3540.75673	0.92935
3538.70293	0.92901
3536.64913	0.92904
3534.59532	0.92912
3532.54152	0.92897
3530.48772	0.92888
3528.43391	0.92870
3526.38011	0.92840
3524.32631	0.92844
3522.27250	0.92814
3520.21870	0.92735
3518.16490	0.92678
3516.11109	0.92689
3514.05729	0.92755
3512.00349	0.92801
3509.94968	0.92778
3507.89588	0.92723
3505.84208	0.92707
3503.78827	0.92757
3501.73447	0.92832
3499.68067	0.92837
3497.62687	0.92773
3495.57306	0.92718
3493.51926	0.92694
3491.46546	0.92659
3489.41165	0.92616
3487.35785	0.92609
3485.30405	0.92622
3483.25024	0.92591
3481.19644	0.92514
3479.14264	0.92440
3477.08883	0.92412
3475.03503	0.92409
3472.98123	0.92383
3470.92742	0.92401
3468.87362	0.92467
3466.81982	0.92491
3464.76601	0.92466
3462.71221	0.92401
3460.65841	0.92324
3458.60460	0.92267
3456.55080	0.92268
3454.49700	0.92308
3452.44319	0.92290
3450.38939	0.92212
3448.33559	0.92175
3446.28178	0.92215
3444.22798	0.92227
3442.17418	0.92188
3440.12038	0.92156
3438.06657	0.92118
3436.01277	0.92071
3433.95897	0.92050
3431.90516	0.92057
3429.85136	0.92097
3427.79756	0.92120
3425.74375	0.92098
3423.68995	0.92066
3421.63615	0.92036
3419.58234	0.92015
3417.52854	0.91999
3415.47474	0.91995
3413.42093	0.91997
3411.36713	0.91981
3409.31333	0.91965
3407.25952	0.91949
3405.20572	0.91907
3403.15192	0.91889
3401.09811	0.91941
3399.04431	0.91986
3396.99051	0.91967
3394.93670	0.91951
3392.88290	0.91938
3390.82910	0.91905
3388.77529	0.91881
3386.72149	0.91856
3384.66769	0.91867
3382.61389	0.91930
3380.56008	0.91952
3378.50628	0.91879
3376.45248	0.91786
3374.39867	0.91786
3372.34487	0.91846
3370.29107	0.91863
3368.23726	0.91866
3366.18346	0.91907
3364.12966	0.91926
3362.07585	0.91904
3360.02205	0.91879
3357.96825	0.91891
3355.91444	0.91940
3353.86064	0.91950
3351.80684	0.91890
3349.75303	0.91822
3347.69923	0.91812
3345.64543	0.91842
3343.59162	0.91885
3341.53782	0.91927
3339.48402	0.91921
3337.43021	0.91900
3335.37641	0.91921
3333.32261	0.91944
3331.26881	0.91928
3329.21500	0.91897
3327.16120	0.91871
3325.10740	0.91867
3323.05359	0.91894
3320.99979	0.91952
3318.94599	0.92028
3316.89218	0.92057
3314.83838	0.92017
3312.78458	0.91959
3310.73077	0.91944
3308.67697	0.91949
3306.62317	0.91930
3304.56936	0.91910
3302.51556	0.91894
3300.46176	0.91890
3298.40795	0.91930
3296.35415	0.91952
3294.30035	0.91903
3292.24654	0.91895
3290.19274	0.91963
3288.13894	0.92017
3286.08513	0.92030
3284.03133	0.92019
3281.97753	0.92038
3279.92372	0.92076
3277.86992	0.92081
3275.81612	0.92103
3273.76232	0.92159
3271.70851	0.92177
3269.65471	0.92158
3267.60091	0.92143
3265.54710	0.92110
3263.49330	0.92102
3261.43950	0.92152
3259.38569	0.92203
3257.33189	0.92216
3255.27809	0.92196
3253.22428	0.92196
3251.17048	0.92229
3249.11668	0.92231
3247.06287	0.92233
3245.00907	0.92289
3242.95527	0.92333
3240.90146	0.92345
3238.84766	0.92363
3236.79386	0.92376
3234.74005	0.92378
3232.68625	0.92366
3230.63245	0.92351
3228.57864	0.92391
3226.52484	0.92493
3224.47104	0.92582
3222.41724	0.92635
3220.36343	0.92667
3218.30963	0.92629
3216.25583	0.92542
3214.20202	0.92513
3212.14822	0.92566
3210.09442	0.92650
3208.04061	0.92712
3205.98681	0.92733
3203.93301	0.92751
3201.87920	0.92770
3199.82540	0.92763
3197.77160	0.92748
3195.71779	0.92753
3193.66399	0.92775
3191.61019	0.92789
3189.55638	0.92796
3187.50258	0.92819
3185.44878	0.92836
3183.39497	0.92862
3181.34117	0.92903
3179.28737	0.92915
3177.23356	0.92929
3175.17976	0.92965
3173.12596	0.92969
3171.07215	0.92956
3169.01835	0.92992
3166.96455	0.93043
3164.91075	0.93043
3162.85694	0.93016
3160.80314	0.93013
3158.74934	0.93041
3156.69553	0.93105
3154.64173	0.93176
3152.58793	0.93215
3150.53412	0.93220
3148.48032	0.93216
3146.42652	0.93261
3144.37271	0.93330
3142.31891	0.93344
3140.26511	0.93329
3138.21130	0.93342
3136.15750	0.93430
3134.10370	0.93517
3132.04989	0.93509
3129.99609	0.93480
3127.94229	0.93494
3125.88848	0.93509
3123.83468	0.93535
3121.78088	0.93572
3119.72707	0.93560
3117.67327	0.93515
3115.61947	0.93495
3113.56566	0.93504
3111.51186	0.93512
3109.45806	0.93503
3107.40426	0.93502
3105.35045	0.93503
3103.29665	0.93475
3101.24285	0.93448
3099.18904	0.93460
3097.13524	0.93455
3095.08144	0.93390
3093.02763	0.93356
3090.97383	0.93362
3088.92003	0.93295
3086.86622	0.93131
3084.81242	0.92947
3082.75862	0.92802
3080.70481	0.92725
3078.65101	0.92762
3076.59721	0.92900
3074.54340	0.93049
3072.48960	0.93137
3070.43580	0.93139
3068.38199	0.93051
3066.32819	0.92888
3064.27439	0.92691
3062.22058	0.92523
3060.16678	0.92435
3058.11298	0.92476
3056.05918	0.92650
3054.00537	0.92855
3051.95157	0.93007
3049.89777	0.93134
3047.84396	0.93252
3045.79016	0.93331
3043.73636	0.93361
3041.68255	0.93344
3039.62875	0.93269
3037.57495	0.93126
3035.52114	0.92937
3033.46734	0.92703
3031.41354	0.92362
3029.35973	0.91917
3027.30593	0.91483
3025.25213	0.91218
3023.19832	0.91273
3021.14452	0.91647
3019.09072	0.92144
3017.03691	0.92552
3014.98311	0.92848
3012.92931	0.93090
3010.87550	0.93255
3008.82170	0.93371
3006.76790	0.93471
3004.71409	0.93514
3002.66029	0.93484
3000.60649	0.93429
2998.55269	0.93439
2996.49888	0.93529
2994.44508	0.93618
2992.39128	0.93681
2990.33747	0.93771
2988.28367	0.93865
2986.22987	0.93885
2984.17606	0.93860
2982.12226	0.93853
2980.06846	0.93868
2978.01465	0.93888
2975.96085	0.93888
2973.90705	0.93879
2971.85324	0.93876
2969.79944	0.93846
2967.74564	0.93813
2965.69183	0.93809
2963.63803	0.93791
2961.58423	0.93784
2959.53042	0.93792
2957.47662	0.93735
2955.42282	0.93637
2953.36901	0.93562
2951.31521	0.93491
2949.26141	0.93381
2947.20761	0.93235
2945.15380	0.93099
2943.10000	0.92957
2941.04620	0.92776
2938.99239	0.92583
2936.93859	0.92344
2934.88479	0.92020
2932.83098	0.91705
2930.77718	0.91445
2928.72338	0.91165
2926.66957	0.90865
2924.61577	0.90635
2922.56197	0.90497
2920.50816	0.90397
2918.45436	0.90356
2916.40056	0.90413
2914.34675	0.90543
2912.29295	0.90727
2910.23915	0.90961
2908.18534	0.91206
2906.13154	0.91403
2904.07774	0.91566
2902.02393	0.91750
2899.97013	0.91975
2897.91633	0.92198
2895.86252	0.92363
2893.80872	0.92475
2891.75492	0.92565
2889.70112	0.92636
2887.64731	0.92704
2885.59351	0.92799
2883.53971	0.92916
2881.48590	0.93024
2879.43210	0.93102
2877.37830	0.93156
2875.32449	0.93204
2873.27069	0.93248
2871.21689	0.93302
2869.16308	0.93345
2867.10928	0.93324
2865.05548	0.93270
2863.00167	0.93231
2860.94787	0.93193
2858.89407	0.93103
2856.84026	0.92969
2854.78646	0.92827
2852.73266	0.92656
2850.67885	0.92501
2848.62505	0.92433
2846.57125	0.92480
2844.51744	0.92642
2842.46364	0.92862
2840.40984	0.93090
2838.35603	0.93305
2836.30223	0.93470
2834.24843	0.93588
2832.19463	0.93689
2830.14082	0.93780
2828.08702	0.93860
2826.03322	0.93917
2823.97941	0.93948
2821.92561	0.93959
2819.87181	0.93982
2817.81800	0.94042
2815.76420	0.94112
2813.71040	0.94140
2811.65659	0.94130
2809.60279	0.94137
2807.54899	0.94184
2805.49518	0.94253
2803.44138	0.94294
2801.38758	0.94292
2799.33377	0.94293
2797.27997	0.94310
2795.22617	0.94306
2793.17236	0.94294
2791.11856	0.94317
2789.06476	0.94351
2787.01095	0.94369
2784.95715	0.94375
2782.90335	0.94394
2780.84955	0.94412
2778.79574	0.94410
2776.74194	0.94421
2774.68814	0.94457
2772.63433	0.94489
2770.58053	0.94488
2768.52673	0.94467
2766.47292	0.94462
2764.41912	0.94486
2762.36532	0.94507
2760.31151	0.94500
2758.25771	0.94497
2756.20391	0.94520
2754.15010	0.94535
2752.09630	0.94524
2750.04250	0.94511
2747.98869	0.94500
2745.93489	0.94493
2743.88109	0.94494
2741.82728	0.94516
2739.77348	0.94554
2737.71968	0.94591
2735.66587	0.94615
2733.61207	0.94614
2731.55827	0.94590
2729.50446	0.94572
2727.45066	0.94582
2725.39686	0.94590
2723.34306	0.94579
2721.28925	0.94567
2719.23545	0.94569
2717.18165	0.94595
2715.12784	0.94636
2713.07404	0.94672
2711.02024	0.94681
2708.96643	0.94663
2706.91263	0.94640
2704.85883	0.94623
2702.80502	0.94613
2700.75122	0.94607
2698.69742	0.94624
2696.64361	0.94664
2694.58981	0.94686
2692.53601	0.94663
2690.48220	0.94633
2688.42840	0.94631
2686.37460	0.94627
2684.32079	0.94622
2682.26699	0.94650
2680.21319	0.94682
2678.15938	0.94694
2676.10558	0.94701
2674.05178	0.94696
2671.99797	0.94683
2669.94417	0.94692
2667.89037	0.94720
2665.83657	0.94731
2663.78276	0.94720
2661.72896	0.94698
2659.67516	0.94695
2657.62135	0.94725
2655.56755	0.94758
2653.51375	0.94767
2651.45994	0.94743
2649.40614	0.94712
2647.35234	0.94716
2645.29853	0.94737
2643.24473	0.94746
2641.19093	0.94742
2639.13712	0.94741
2637.08332	0.94752
2635.02952	0.94773
2632.97571	0.94784
2630.92191	0.94762
2628.86811	0.94738
2626.81430	0.94738
2624.76050	0.94725
2622.70670	0.94708
2620.65289	0.94731
2618.59909	0.94771
2616.54529	0.94805
2614.49149	0.94811
2612.43768	0.94773
2610.38388	0.94756
2608.33008	0.94782
2606.27627	0.94775
2604.22247	0.94774
2602.16867	0.94824
2600.11486	0.94833
2598.06106	0.94795
2596.00726	0.94799
2593.95345	0.94839
2591.89965	0.94859
2589.84585	0.94859
2587.79204	0.94836
2585.73824	0.94810
2583.68444	0.94817
2581.63063	0.94832
2579.57683	0.94886
2577.52303	0.94985
2575.46922	0.95021
2573.41542	0.95002
2571.36162	0.94993
2569.30781	0.94960
2567.25401	0.94916
2565.20021	0.94913
2563.14640	0.94938
2561.09260	0.94991
2559.03880	0.95058
2556.98500	0.95063
2554.93119	0.94998
2552.87739	0.94942
2550.82359	0.94919
2548.76978	0.94911
2546.71598	0.94938
2544.66218	0.94990
2542.60837	0.95017
2540.55457	0.95007
2538.50077	0.94994
2536.44696	0.95020
2534.39316	0.95052
2532.33936	0.95043
2530.28555	0.94997
2528.23175	0.94934
2526.17795	0.94888
2524.12414	0.94923
2522.07034	0.95017
2520.01654	0.95018
2517.96273	0.94909
2515.90893	0.94850
2513.85513	0.94901
2511.80132	0.94972
2509.74752	0.94996
2507.69372	0.94962
2505.63992	0.94944
2503.58611	0.95011
2501.53231	0.95060
2499.47851	0.95041
2497.42470	0.95058
2495.37090	0.95109
2493.31710	0.95100
2491.26329	0.95074
2489.20949	0.95090
2487.15569	0.95090
2485.10188	0.95064
2483.04808	0.95068
2480.99428	0.95099
2478.94047	0.95124
2476.88667	0.95130
2474.83287	0.95118
2472.77906	0.95114
2470.72526	0.95131
2468.67146	0.95117
2466.61765	0.95067
2464.56385	0.95050
2462.51005	0.95066
2460.45624	0.95085
2458.40244	0.95122
2456.34864	0.95151
2454.29483	0.95136
2452.24103	0.95114
2450.18723	0.95095
2448.13343	0.95057
2446.07962	0.95012
2444.02582	0.95024
2441.97202	0.95124
2439.91821	0.95233
2437.86441	0.95265
2435.81061	0.95231
2433.75680	0.95186
2431.70300	0.95192
2429.64920	0.95228
2427.59539	0.95234
2425.54159	0.95232
2423.48779	0.95226
2421.43398	0.95180
2419.38018	0.95125
2417.32638	0.95125
2415.27257	0.95161
2413.21877	0.95152
2411.16497	0.95113
2409.11116	0.95109
2407.05736	0.95143
2405.00356	0.95189
2402.94975	0.95209
2400.89595	0.95221
2398.84215	0.95271
2396.78834	0.95322
2394.73454	0.95357
2392.68074	0.95378
2390.62694	0.95340
2388.57313	0.95261
2386.51933	0.95237
2384.46553	0.95281
2382.41172	0.95312
2380.35792	0.95304
2378.30412	0.95294
2376.25031	0.95327
2374.19651	0.95414
2372.14271	0.95479
2370.08890	0.95442
2368.03510	0.95336
2365.98130	0.95270
2363.92749	0.95297
2361.87369	0.95372
2359.81989	0.95378
2357.76608	0.95340
2355.71228	0.95304
2353.65848	0.95224
2351.60467	0.95200
2349.55087	0.95260
2347.49707	0.95317
2345.44326	0.95330
2343.38946	0.95311
2341.33566	0.95264
2339.28186	0.95220
2337.22805	0.95209
2335.17425	0.95188
2333.12045	0.95175
2331.06664	0.95195
2329.01284	0.95167
2326.95904	0.95068
2324.90523	0.94999
2322.85143	0.95030
2320.79763	0.95114
2318.74382	0.95201
2316.69002	0.95301
2314.63622	0.95345
2312.58241	0.95292
2310.52861	0.95213
2308.47481	0.95178
2306.42100	0.95195
2304.36720	0.95223
2302.31340	0.95219
2300.25959	0.95171
2298.20579	0.95132
2296.15199	0.95159
2294.09818	0.95227
2292.04438	0.95286
2289.99058	0.95320
2287.93677	0.95327
2285.88297	0.95328
2283.82917	0.95320
2281.77537	0.95316
2279.72156	0.95343
2277.66776	0.95353
2275.61396	0.95356
2273.56015	0.95362
2271.50635	0.95316
2269.45255	0.95239
2267.39874	0.95185
2265.34494	0.95247
2263.29114	0.95405
2261.23733	0.95494
2259.18353	0.95433
2257.12973	0.95306
2255.07592	0.95282
2253.02212	0.95354
2250.96832	0.95427
2248.91451	0.95475
2246.86071	0.95454
2244.80691	0.95371
2242.75310	0.95328
2240.69930	0.95403
2238.64550	0.95466
2236.59169	0.95362
2234.53789	0.95234
2232.48409	0.95264
2230.43029	0.95417
2228.37648	0.95575
2226.32268	0.95591
2224.26888	0.95501
2222.21507	0.95453
2220.16127	0.95371
2218.10747	0.95291
2216.05366	0.95396
2213.99986	0.95644
2211.94606	0.95857
2209.89225	0.95822
2207.83845	0.95546
2205.78465	0.95362
2203.73084	0.95393
2201.67704	0.95460
2199.62324	0.95476
2197.56943	0.95402
2195.51563	0.95252
2193.46183	0.95201
2191.40802	0.95293
2189.35422	0.95434
2187.30042	0.95631
2185.24661	0.95799
2183.19281	0.95690
2181.13901	0.95415
2179.08520	0.95367
2177.03140	0.95501
2174.97760	0.95627
2172.92380	0.95725
2170.86999	0.95745
2168.81619	0.95646
2166.76239	0.95422
2164.70858	0.95171
2162.65478	0.95024
2160.60098	0.95107
2158.54717	0.95507
2156.49337	0.95879
2154.43957	0.95922
2152.38576	0.95799
2150.33196	0.95706
2148.27816	0.95717
2146.22435	0.95736
2144.17055	0.95590
2142.11675	0.95405
2140.06294	0.95426
2138.00914	0.95609
2135.95534	0.95782
2133.90153	0.95934
2131.84773	0.96066
2129.79393	0.96064
2127.74012	0.95929
2125.68632	0.95797
2123.63252	0.95714
2121.57871	0.95671
2119.52491	0.95684
2117.47111	0.95671
2115.41731	0.95592
2113.36350	0.95610
2111.30970	0.95760
2109.25590	0.95870
2107.20209	0.95841
2105.14829	0.95702
2103.09449	0.95545
2101.04068	0.95450
2098.98688	0.95459
2096.93308	0.95581
2094.87927	0.95737
2092.82547	0.95780
2090.77167	0.95657
2088.71786	0.95526
2086.66406	0.95535
2084.61026	0.95596
2082.55645	0.95649
2080.50265	0.95671
2078.44885	0.95562
2076.39504	0.95402
2074.34124	0.95331
2072.28744	0.95405
2070.23363	0.95566
2068.17983	0.95717
2066.12603	0.95851
2064.07223	0.95875
2062.01842	0.95721
2059.96462	0.95619
2057.91082	0.95759
2055.85701	0.95984
2053.80321	0.96053
2051.74941	0.95920
2049.69560	0.95785
2047.64180	0.95655
2045.58800	0.95474
2043.53419	0.95472
2041.48039	0.95502
2039.42659	0.95377
2037.37278	0.95267
2035.31898	0.95312
2033.26518	0.95540
2031.21137	0.95697
2029.15757	0.95730
2027.10377	0.95843
2025.04996	0.95783
2022.99616	0.95599
2020.94236	0.95784
2018.88855	0.96228
2016.83475	0.96493
2014.78095	0.96473
2012.72714	0.96413
2010.67334	0.96338
2008.61954	0.96008
2006.56574	0.95636
2004.51193	0.95576
2002.45813	0.95694
2000.40433	0.95707
1998.35052	0.95693
1996.29672	0.95856
1994.24292	0.96084
1992.18911	0.96218
1990.13531	0.96229
1988.08151	0.96169
1986.02770	0.96134
1983.97390	0.96064
1981.92010	0.95848
1979.86629	0.95560
1977.81249	0.95411
1975.75869	0.95487
1973.70488	0.95631
1971.65108	0.95763
1969.59728	0.95851
1967.54347	0.95836
1965.48967	0.95723
1963.43587	0.95632
1961.38206	0.95713
1959.32826	0.95870
1957.27446	0.95999
1955.22066	0.96057
1953.16685	0.95970
1951.11305	0.95818
1949.05925	0.95650
1947.00544	0.95543
1944.95164	0.95640
1942.89784	0.95849
1940.84403	0.95880
1938.79023	0.95716
1936.73643	0.95561
1934.68262	0.95524
1932.62882	0.95599
1930.57502	0.95623
1928.52121	0.95537
1926.46741	0.95525
1924.41361	0.95711
1922.35980	0.95929
1920.30600	0.95944
1918.25220	0.95801
1916.19839	0.95627
1914.14459	0.95514
1912.09079	0.95500
1910.03698	0.95572
1907.98318	0.95674
1905.92938	0.95691
1903.87557	0.95618
1901.82177	0.95588
1899.76797	0.95616
1897.71417	0.95640
1895.66036	0.95653
1893.60656	0.95671
1891.55276	0.95674
1889.49895	0.95657
1887.44515	0.95629
1885.39135	0.95552
1883.33754	0.95481
1881.28374	0.95468
1879.22994	0.95460
1877.17613	0.95472
1875.12233	0.95492
1873.06853	0.95448
1871.01472	0.95352
1868.96092	0.95257
1866.90712	0.95244
1864.85331	0.95326
1862.79951	0.95376
1860.74571	0.95386
1858.69190	0.95438
1856.63810	0.95503
1854.58430	0.95524
1852.53049	0.95522
1850.47669	0.95520
1848.42289	0.95522
1846.36908	0.95553
1844.31528	0.95617
1842.26148	0.95671
1840.20768	0.95694
1838.15387	0.95704
1836.10007	0.95689
1834.04627	0.95656
1831.99246	0.95638
1829.93866	0.95638
1827.88486	0.95648
1825.83105	0.95652
1823.77725	0.95610
1821.72345	0.95544
1819.66964	0.95512
1817.61584	0.95512
1815.56204	0.95492
1813.50823	0.95439
1811.45443	0.95405
1809.40063	0.95380
1807.34682	0.95312
1805.29302	0.95254
1803.23922	0.95236
1801.18541	0.95208
1799.13161	0.95163
1797.07781	0.95141
1795.02400	0.95134
1792.97020	0.95143
1790.91640	0.95224
1788.86260	0.95322
1786.80879	0.95361
1784.75499	0.95377
1782.70119	0.95417
1780.64738	0.95459
1778.59358	0.95471
1776.53978	0.95472
1774.48597	0.95473
1772.43217	0.95441
1770.37837	0.95402
1768.32456	0.95388
1766.27076	0.95390
1764.21696	0.95425
1762.16315	0.95457
1760.10935	0.95427
1758.05555	0.95375
1756.00174	0.95334
1753.94794	0.95308
1751.89414	0.95305
1749.84033	0.95278
1747.78653	0.95205
1745.73273	0.95147
1743.67892	0.95106
1741.62512	0.95058
1739.57132	0.95012
1737.51751	0.94992
1735.46371	0.95034
1733.40991	0.95096
1731.35611	0.95062
1729.30230	0.95015
1727.24850	0.95002
1725.19470	0.94990
1723.14089	0.94941
1721.08709	0.94884
1719.03329	0.94878
1716.97948	0.94914
1714.92568	0.94944
1712.87188	0.94963
1710.81807	0.94971
1708.76427	0.94942
1706.71047	0.94870
1704.65666	0.94796
1702.60286	0.94734
1700.54906	0.94633
1698.49525	0.94533
1696.44145	0.94454
1694.38765	0.94317
1692.33384	0.94193
1690.28004	0.94084
1688.22624	0.93972
1686.17243	0.93907
1684.11863	0.93796
1682.06483	0.93560
1680.01103	0.93384
1677.95722	0.93295
1675.90342	0.93206
1673.84962	0.93080
1671.79581	0.92975
1669.74201	0.92835
1667.68821	0.92652
1665.63440	0.92540
1663.58060	0.92483
1661.52680	0.92422
1659.47299	0.92338
1657.41919	0.92248
1655.36539	0.92142
1653.31158	0.91945
1651.25778	0.91816
1649.20398	0.91838
1647.15017	0.91864
1645.09637	0.91864
1643.04257	0.91877
1640.98876	0.91885
1638.93496	0.91881
1636.88116	0.91904
1634.82735	0.91969
1632.77355	0.91988
1630.71975	0.91985
1628.66594	0.92012
1626.61214	0.92062
1624.55834	0.92121
1622.50454	0.92196
1620.45073	0.92260
1618.39693	0.92299
1616.34313	0.92324
1614.28932	0.92337
1612.23552	0.92323
1610.18172	0.92235
1608.12791	0.92014
1606.07411	0.91605
1604.02031	0.91046
1601.96650	0.90588
1599.91270	0.90549
1597.85890	0.90909
1595.80509	0.91372
1593.75129	0.91741
1591.69749	0.92009
1589.64368	0.92188
1587.58988	0.92223
1585.53608	0.92106
1583.48227	0.92009
1581.42847	0.92108
1579.37467	0.92301
1577.32086	0.92461
1575.26706	0.92606
1573.21326	0.92712
1571.15945	0.92767
1569.10565	0.92800
1567.05185	0.92809
1564.99805	0.92772
1562.94424	0.92719
1560.89044	0.92701
1558.83664	0.92685
1556.78283	0.92618
1554.72903	0.92528
1552.67523	0.92388
1550.62142	0.92201
1548.56762	0.92004
1546.51382	0.91860
1544.46001	0.91752
1542.40621	0.91634
1540.35241	0.91439
1538.29860	0.91182
1536.24480	0.91020
1534.19100	0.90883
1532.13719	0.90722
1530.08339	0.90589
1528.02959	0.90477
1525.97578	0.90337
1523.92198	0.90181
1521.86818	0.90011
1519.81437	0.89823
1517.76057	0.89644
1515.70677	0.89452
1513.65297	0.89285
1511.59916	0.89179
1509.54536	0.89099
1507.49156	0.88894
1505.43775	0.88613
1503.38395	0.88508
1501.33015	0.88363
1499.27634	0.87872
1497.22254	0.86509
1495.16874	0.84398
1493.11493	0.82917
1491.06113	0.82808
1489.00733	0.83964
1486.95352	0.85112
1484.89972	0.85688
1482.84592	0.85993
1480.79211	0.86165
1478.73831	0.86237
1476.68451	0.86258
1474.63070	0.86235
1472.57690	0.86141
1470.52310	0.86059
1468.46929	0.86027
1466.41549	0.86008
1464.36169	0.85989
1462.30788	0.85956
1460.25408	0.85853
1458.20028	0.85300
1456.14648	0.83583
1454.09267	0.81774
1452.03887	0.80803
1449.98507	0.80758
1447.93126	0.81364
1445.87746	0.82030
1443.82366	0.82546
1441.76985	0.82999
1439.71605	0.83391
1437.66225	0.83751
1435.60844	0.84095
1433.55464	0.84338
1431.50084	0.84528
1429.44703	0.84702
1427.39323	0.84829
1425.33943	0.84946
1423.28562	0.85055
1421.23182	0.85117
1419.17802	0.85193
1417.12421	0.85360
1415.07041	0.85586
1413.01661	0.85850
1410.96280	0.86139
1408.90900	0.86432
1406.85520	0.86743
1404.80139	0.87079
1402.74759	0.87371
1400.69379	0.87630
1398.63999	0.87936
1396.58618	0.88247
1394.53238	0.88521
1392.47858	0.88759
1390.42477	0.88961
1388.37097	0.89147
1386.31717	0.89290
1384.26336	0.89379
1382.20956	0.89466
1380.15576	0.89566
1378.10195	0.89678
1376.04815	0.89802
1373.99435	0.89919
1371.94054	0.90028
1369.88674	0.90138
1367.83294	0.90256
1365.77913	0.90398
1363.72533	0.90560
1361.67153	0.90728
1359.61772	0.90888
1357.56392	0.91023
1355.51012	0.91137
1353.45631	0.91227
1351.40251	0.91287
1349.34871	0.91345
1347.29491	0.91442
1345.24110	0.91573
1343.18730	0.91695
1341.13350	0.91776
1339.07969	0.91831
1337.02589	0.91873
1334.97209	0.91891
1332.91828	0.91897
1330.86448	0.91897
1328.81068	0.91889
1326.75687	0.91892
1324.70307	0.91936
1322.64927	0.92006
1320.59546	0.92089
1318.54166	0.92168
1316.48786	0.92183
1314.43405	0.92136
1312.38025	0.92085
1310.32645	0.92090
1308.27264	0.92169
1306.21884	0.92272
1304.16504	0.92342
1302.11123	0.92376
1300.05743	0.92408
1298.00363	0.92446
1295.94982	0.92465
1293.89602	0.92475
1291.84222	0.92486
1289.78842	0.92497
1287.73461	0.92508
1285.68081	0.92477
1283.62701	0.92425
1281.57320	0.92420
1279.51940	0.92455
1277.46560	0.92459
1275.41179	0.92421
1273.35799	0.92384
1271.30419	0.92364
1269.25038	0.92352
1267.19658	0.92354
1265.14278	0.92390
1263.08897	0.92468
1261.03517	0.92542
1258.98137	0.92547
1256.92756	0.92494
1254.87376	0.92447
1252.81996	0.92440
1250.76615	0.92432
1248.71235	0.92391
1246.65855	0.92354
1244.60474	0.92343
1242.55094	0.92336
1240.49714	0.92321
1238.44334	0.92303
1236.38953	0.92272
1234.33573	0.92236
1232.28193	0.92212
1230.22812	0.92197
1228.17432	0.92154
1226.12052	0.92070
1224.06671	0.91976
1222.01291	0.91895
1219.95911	0.91810
1217.90530	0.91702
1215.85150	0.91570
1213.79770	0.91409
1211.74389	0.91227
1209.69009	0.91048
1207.63629	0.90864
1205.58248	0.90620
1203.52868	0.90315
1201.47488	0.90028
1199.42107	0.89789
1197.36727	0.89548
1195.31347	0.89274
1193.25966	0.88970
1191.20586	0.88629
1189.15206	0.88275
1187.09825	0.87918
1185.04445	0.87506
1182.99065	0.87064
1180.93685	0.86664
1178.88304	0.86357
1176.82924	0.86141
1174.77544	0.85955
1172.72163	0.85739
1170.66783	0.85468
1168.61403	0.85156
1166.56022	0.84852
1164.50642	0.84579
1162.45262	0.84362
1160.39881	0.84205
1158.34501	0.84016
1156.29121	0.83738
1154.23740	0.83460
1152.18360	0.83297
1150.12980	0.83217
1148.07599	0.83140
1146.02219	0.83046
1143.96839	0.82918
1141.91458	0.82773
1139.86078	0.82604
1137.80698	0.82396
1135.75317	0.82186
1133.69937	0.81984
1131.64557	0.81753
1129.59176	0.81430
1127.53796	0.81029
1125.48416	0.80636
1123.43036	0.80241
1121.37655	0.79777
1119.32275	0.79273
1117.26895	0.78776
1115.21514	0.78255
1113.16134	0.77709
1111.10754	0.77218
1109.05373	0.76793
1106.99993	0.76384
1104.94613	0.76016
1102.89232	0.75702
1100.83852	0.75402
1098.78472	0.75084
1096.73091	0.74757
1094.67711	0.74471
1092.62331	0.74247
1090.56950	0.74065
1088.51570	0.73887
1086.46190	0.73695
1084.40809	0.73493
1082.35429	0.73303
1080.30049	0.73119
1078.24668	0.72906
1076.19288	0.72628
1074.13908	0.72269
1072.08528	0.71899
1070.03147	0.71552
1067.97767	0.71200
1065.92387	0.70837
1063.87006	0.70462
1061.81626	0.70088
1059.76246	0.69717
1057.70865	0.69290
1055.65485	0.68787
1053.60105	0.68238
1051.54724	0.67634
1049.49344	0.66967
1047.43964	0.66254
1045.38583	0.65469
1043.33203	0.64589
1041.27823	0.63688
1039.22442	0.62802
1037.17062	0.61882
1035.11682	0.60923
1033.06301	0.59958
1031.00921	0.59056
1028.95541	0.58300
1026.90160	0.57762
1024.84780	0.57452
1022.79400	0.57278
1020.74019	0.57164
1018.68639	0.57052
1016.63259	0.56876
1014.57879	0.56664
1012.52498	0.56443
1010.47118	0.56197
1008.41738	0.55951
1006.36357	0.55744
1004.30977	0.55601
1002.25597	0.55584
1000.20216	0.55726
998.14836	0.55978
996.09456	0.56312
994.04075	0.56713
991.98695	0.57144
989.93315	0.57582
987.87934	0.58055
985.82554	0.58585
983.77174	0.59169
981.71793	0.59850
979.66413	0.60692
977.61033	0.61686
975.55652	0.62761
973.50272	0.63874
971.44892	0.64988
969.39511	0.66054
967.34131	0.67047
965.28751	0.67989
963.23371	0.68930
961.17990	0.69878
959.12610	0.70779
957.07230	0.71595
955.01849	0.72318
952.96469	0.72966
950.91089	0.73564
948.85708	0.74080
946.80328	0.74508
944.74948	0.74896
942.69567	0.75265
940.64187	0.75650
938.58807	0.76043
936.53426	0.76409
934.48046	0.76803
932.42666	0.77194
930.37285	0.77486
928.31905	0.77739
926.26525	0.78026
924.21144	0.78288
922.15764	0.78452
920.10384	0.78503
918.05003	0.78469
915.99623	0.78365
913.94243	0.78216
911.88862	0.78098
909.83482	0.78082
907.78102	0.78231
905.72722	0.78623
903.67341	0.79279
901.61961	0.80103
899.56581	0.80992
897.51200	0.81885
895.45820	0.82714
893.40440	0.83398
891.35059	0.83921
889.29679	0.84323
887.24299	0.84606
885.18918	0.84716
883.13538	0.84552
881.08158	0.84033
879.02777	0.83174
876.97397	0.82030
874.92017	0.80791
872.86636	0.80126
870.81256	0.80838
868.75876	0.82591
866.70495	0.84175
864.65115	0.85129
862.59735	0.85718
860.54354	0.86173
858.48974	0.86630
856.43594	0.87110
854.38213	0.87513
852.32833	0.87766
850.27453	0.87836
848.22073	0.87752
846.16692	0.87662
844.11312	0.87651
842.05932	0.87646
840.00551	0.87595
837.95171	0.87550
835.89791	0.87536
833.84410	0.87515
831.79030	0.87530
829.73650	0.87609
827.68269	0.87674
825.62889	0.87726
823.57509	0.87795
821.52128	0.87849
819.46748	0.87946
817.41368	0.88054
815.35987	0.88077
813.30607	0.88031
811.25227	0.87850
809.19846	0.87435
807.14466	0.86824
805.09086	0.86087
803.03705	0.85371
800.98325	0.84868
798.92945	0.84608
796.87565	0.84558
794.82184	0.84695
792.76804	0.84883
790.71424	0.84966
788.66043	0.84934
786.60663	0.84805
784.55283	0.84564
782.49902	0.84232
780.44522	0.83878
778.39142	0.83571
776.33761	0.83285
774.28381	0.82974
772.23001	0.82540
770.17620	0.81871
768.12240	0.81012
766.06860	0.80049
764.01479	0.79003
761.96099	0.77911
759.90719	0.76891
757.85338	0.76096
755.79958	0.75627
753.74578	0.75454
751.69197	0.75458
749.63817	0.75504
747.58437	0.75660
745.53056	0.76214
743.47676	0.77274
741.42296	0.78593
739.36916	0.79887
737.31535	0.81066
735.26155	0.82121
733.20775	0.83067
731.15394	0.83807
729.10014	0.84258
727.04634	0.84565
724.99253	0.84871
722.93873	0.85134
720.88493	0.85319
718.83112	0.85425
716.77732	0.85290
714.72352	0.84882
712.66971	0.84391
710.61591	0.83713
708.56211	0.82308
706.50830	0.79651
704.45450	0.75588
702.40070	0.70350
700.34689	0.64392
698.29309	0.58661
696.23929	0.55169
694.18548	0.55982
692.13168	0.60573
690.07788	0.66109
688.02408	0.70472
685.97027	0.73300
683.91647	0.75090
681.86267	0.76335
679.80886	0.77219
677.75506	0.77834
675.70126	0.78311
673.64745	0.78678
671.59365	0.78904
669.53985	0.79069
667.48604	0.79326
665.43224	0.79547
663.37844	0.79626
661.32463	0.79713
659.27083	0.79813
657.21703	0.79767
655.16322	0.79563
653.10942	0.79365
651.05562	0.79267
649.00181	0.79192
646.94801	0.79220
644.89421	0.79395
642.84040	0.79588
640.78660	0.79815
638.73280	0.80030
636.67899	0.80089
634.62519	0.80095
632.57139	0.80141
630.51759	0.80125
628.46378	0.80100
626.40998	0.80150
624.35618	0.80121
622.30237	0.79925
620.24857	0.79682
618.19477	0.79460
616.14096	0.79205
614.08716	0.78862
612.03336	0.78504
609.97955	0.78231
607.92575	0.78066
605.87195	0.77922
603.81814	0.77602
601.76434	0.77150
599.71054	0.76769
597.65673	0.76395
595.60293	0.75972
593.54913	0.75651
591.49532	0.75479
589.44152	0.75381
587.38772	0.75273
585.33391	0.75111
583.28011	0.74945
581.22631	0.74732
579.17250	0.74458
577.11870	0.74278
575.06490	0.74146
573.01110	0.73908
570.95729	0.73541
568.90349	0.73040
566.84969	0.72419
564.79588	0.71734
562.74208	0.70996
560.68828	0.70219
558.63447	0.69501
556.58067	0.68893
554.52687	0.68345
552.47306	0.67674
550.41926	0.66713
548.36546	0.65549
546.31165	0.64357
544.25785	0.63139
542.20405	0.61807
540.15024	0.60425
538.09644	0.59218
536.04264	0.58429
533.98883	0.58109
531.93503	0.58170
529.88123	0.58489
527.82742	0.58902
525.77362	0.59359
523.71982	0.59850
521.66602	0.60388
519.61221	0.61026
517.55841	0.61697
515.50461	0.62367
513.45080	0.63056
511.39700	0.63658
509.34320	0.64065
507.28939	0.64365
505.23559	0.64793
503.18179	0.65373
501.12798	0.65700
499.07418	0.65625
497.02038	0.65461
494.96657	0.65115
492.91277	0.64372
490.85897	0.63538
488.80516	0.62656
486.75136	0.61436
484.69756	0.60029
482.64375	0.58511
480.58995	0.56875
478.53615	0.55265
476.48234	0.53645
474.42854	0.52211
472.37474	0.51071
470.32093	0.50144
468.26713	0.49596
466.21333	0.49406
464.15953	0.49497
462.10572	0.49901
460.05192	0.50630
457.99812	0.51738
455.94431	0.52851
453.89051	0.53533
451.83671	0.54055
449.78290	0.54819
447.72910	0.55795
445.67530	0.56523
443.62149	0.56706
441.56769	0.56469
439.51389	0.56227
437.46008	0.56252
435.40628	0.56147
433.35248	0.55625
431.29867	0.55053
429.24487	0.54530
427.19107	0.54193
425.13726	0.54462
423.08346	0.55362
421.02966	0.56591
418.97585	0.57350
416.92205	0.57097
414.86825	0.57170
412.81445	0.57843
410.76064	0.58569
408.70684	0.59242
406.65304	0.59925
404.59923	0.60383
402.54543	0.60471
400.49163	0.60190
398.43782	0.59779
