3996.70104	0.95289
3994.64724	0.95195
3992.59344	0.95148
3990.53964	0.95136
3988.48583	0.95149
3986.43203	0.95184
3984.37823	0.95213
3982.32442	0.95214
3980.27062	0.95227
3978.21682	0.95246
3976.16301	0.95227
3974.10921	0.95223
3972.05541	0.95260
3970.00160	0.95274
3967.94780	0.95243
3965.89400	0.95193
3963.84019	0.95172
3961.78639	0.95179
3959.73259	0.95164
3957.67878	0.95166
3955.62498	0.95203
3953.57118	0.95213
3951.51737	0.95195
3949.46357	0.95174
3947.40977	0.95165
3945.35596	0.95180
3943.30216	0.95205
3941.24836	0.95218
3939.19455	0.95272
3937.14075	0.95347
3935.08695	0.95340
3933.03315	0.95291
3930.97934	0.95270
3928.92554	0.95248
3926.87174	0.95215
3924.81793	0.95177
3922.76413	0.95167
3920.71033	0.95180
3918.65652	0.95161
3916.60272	0.95146
3914.54892	0.95161
3912.49511	0.95181
3910.44131	0.95223
3908.38751	0.95268
3906.33370	0.95307
3904.27990	0.95345
3902.22610	0.95293
3900.17229	0.95193
3898.11849	0.95199
3896.06469	0.95277
3894.01088	0.95323
3891.95708	0.95338
3889.90328	0.95348
3887.84947	0.95309
3885.79567	0.95241
3883.74187	0.95252
3881.68807	0.95321
3879.63426	0.95377
3877.58046	0.95408
3875.52666	0.95383
3873.47285	0.95295
3871.41905	0.95241
3869.36525	0.95233
3867.31144	0.95216
3865.25764	0.95211
3863.20384	0.95239
3861.15003	0.95285
3859.09623	0.95332
3857.04243	0.95394
3854.98862	0.95480
3852.93482	0.95503
3850.88102	0.95413
3848.82721	0.95331
3846.77341	0.95284
3844.71961	0.95275
3842.66580	0.95279
3840.61200	0.95280
3838.55820	0.95251
3836.50439	0.95196
3834.45059	0.95228
3832.39679	0.95322
3830.34298	0.95362
3828.28918	0.95354
3826.23538	0.95373
3824.18158	0.95394
3822.12777	0.95395
3820.07397	0.95394
3818.02017	0.95347
3815.96636	0.95310
3813.91256	0.95349
3811.85876	0.95393
3809.80495	0.95408
3807.75115	0.95424
3805.69735	0.95447
3803.64354	0.95423
3801.58974	0.95388
3799.53594	0.95416
3797.48213	0.95445
3795.42833	0.95441
3793.37453	0.95453
3791.32072	0.95483
3789.26692	0.95454
3787.21312	0.95400
3785.15931	0.95405
3783.10551	0.95428
3781.05171	0.95432
3778.99790	0.95409
3776.94410	0.95359
3774.89030	0.95333
3772.83650	0.95313
3770.78269	0.95297
3768.72889	0.95338
3766.67509	0.95385
3764.62128	0.95405
3762.56748	0.95406
3760.51368	0.95408
3758.45987	0.95429
3756.40607	0.95432
3754.35227	0.95458
3752.29846	0.95562
3750.24466	0.95607
3748.19086	0.95510
3746.13705	0.95457
3744.08325	0.95457
3742.02945	0.95475
3739.97564	0.95532
3737.92184	0.95589
3735.86804	0.95628
3733.81423	0.95660
3731.76043	0.95648
3729.70663	0.95617
3727.65282	0.95593
3725.59902	0.95542
3723.54522	0.95473
3721.49141	0.95423
3719.43761	0.95371
3717.38381	0.95339
3715.33001	0.95355
3713.27620	0.95386
3711.22240	0.95361
3709.16860	0.95256
3707.11479	0.95141
3705.06099	0.95059
3703.00719	0.94973
3700.95338	0.94813
3698.89958	0.94641
3696.84578	0.94556
3694.79197	0.94543
3692.73817	0.94589
3690.68437	0.94683
3688.63056	0.94680
3686.57676	0.94628
3684.52296	0.94712
3682.46915	0.94836
3680.41535	0.94843
3678.36155	0.94753
3676.30774	0.94652
3674.25394	0.94598
3672.20014	0.94673
3670.14633	0.94765
3668.09253	0.94753
3666.03873	0.94706
3663.98492	0.94641
3661.93112	0.94569
3659.87732	0.94549
3657.82352	0.94564
3655.76971	0.94562
3653.71591	0.94545
3651.66211	0.94537
3649.60830	0.94497
3647.55450	0.94453
3645.50070	0.94443
3643.44689	0.94398
3641.39309	0.94351
3639.33929	0.94360
3637.28548	0.94387
3635.23168	0.94375
3633.17788	0.94293
3631.12407	0.94159
3629.07027	0.94092
3627.01647	0.94088
3624.96266	0.94013
3622.90886	0.93901
3620.85506	0.93782
3618.80125	0.93689
3616.74745	0.93716
3614.69365	0.93826
3612.63984	0.93924
3610.58604	0.93983
3608.53224	0.94010
3606.47844	0.94008
3604.42463	0.94028
3602.37083	0.94066
3600.31703	0.94064
3598.26322	0.94049
3596.20942	0.94042
3594.15562	0.94009
3592.10181	0.93966
3590.04801	0.93926
3587.99421	0.93920
3585.94040	0.93974
3583.88660	0.93969
3581.83280	0.93919
3579.77899	0.93878
3577.72519	0.93841
3575.67139	0.93842
3573.61758	0.93880
3571.56378	0.93916
3569.50998	0.93902
3567.45617	0.93812
3565.40237	0.93748
3563.34857	0.93725
3561.29476	0.93700
3559.24096	0.93710
3557.18716	0.93727
3555.13335	0.93703
3553.07955	0.93656
3551.02575	0.93629
3548.97195	0.93626
3546.91814	0.93616
3544.86434	0.93624
3542.81054	0.93664
3540.75673	0.93655
3538.70293	0.93596
3536.64913	0.93567
3534.59532	0.93581
3532.54152	0.93597
3530.48772	0.93616
3528.43391	0.93591
3526.38011	0.93511
3524.32631	0.93477
3522.27250	0.93477
3520.21870	0.93445
3518.16490	0.93427
3516.11109	0.93451
3514.05729	0.93448
3512.00349	0.93389
3509.94968	0.93339
3507.89588	0.93348
3505.84208	0.93380
3503.78827	0.93388
3501.73447	0.93341
3499.68067	0.93271
3497.62687	0.93280
3495.57306	0.93347
3493.51926	0.93346
3491.46546	0.93269
3489.41165	0.93199
3487.35785	0.93195
3485.30405	0.93211
3483.25024	0.93177
3481.19644	0.93146
3479.14264	0.93158
3477.08883	0.93158
3475.03503	0.93141
3472.98123	0.93154
3470.92742	0.93180
3468.87362	0.93151
3466.81982	0.93093
3464.76601	0.93038
3462.71221	0.92935
3460.65841	0.92817
3458.60460	0.92782
3456.55080	0.92843
3454.49700	0.92938
3452.44319	0.92983
3450.38939	0.92967
3448.33559	0.92938
3446.28178	0.92914
3444.22798	0.92907
3442.17418	0.92908
3440.12038	0.92869
3438.06657	0.92800
3436.01277	0.92752
3433.95897	0.92761
3431.90516	0.92807
3429.85136	0.92823
3427.79756	0.92804
3425.74375	0.92779
3423.68995	0.92765
3421.63615	0.92758
3419.58234	0.92721
3417.52854	0.92652
3415.47474	0.92617
3413.42093	0.92647
3411.36713	0.92668
3409.31333	0.92624
3407.25952	0.92563
3405.20572	0.92531
3403.15192	0.92538
3401.09811	0.92571
3399.04431	0.92604
3396.99051	0.92634
3394.93670	0.92637
3392.88290	0.92618
3390.82910	0.92633
3388.77529	0.92648
3386.72149	0.92634
3384.66769	0.92613
3382.61389	0.92596
3380.56008	0.92576
3378.50628	0.92554
3376.45248	0.92566
3374.39867	0.92593
3372.34487	0.92582
3370.29107	0.92533
3368.23726	0.92491
3366.18346	0.92522
3364.12966	0.92591
3362.07585	0.92626
3360.02205	0.92628
3357.96825	0.92609
3355.91444	0.92613
3353.86064	0.92643
3351.80684	0.92654
3349.75303	0.92664
3347.69923	0.92693
3345.64543	0.92699
3343.59162	0.92670
3341.53782	0.92636
3339.48402	0.92629
3337.43021	0.92677
3335.37641	0.92728
3333.32261	0.92728
3331.26881	0.92727
3329.21500	0.92724
3327.16120	0.92696
3325.10740	0.92676
3323.05359	0.92678
3320.99979	0.92694
3318.94599	0.92725
3316.89218	0.92758
3314.83838	0.92787
3312.78458	0.92793
3310.73077	0.92784
3308.67697	0.92822
3306.62317	0.92874
3304.56936	0.92879
3302.51556	0.92856
3300.46176	0.92854
3298.40795	0.92868
3296.35415	0.92832
3294.30035	0.92792
3292.24654	0.92826
3290.19274	0.92868
3288.13894	0.92840
3286.08513	0.92792
3284.03133	0.92804
3281.97753	0.92852
3279.92372	0.92903
3277.86992	0.92946
3275.81612	0.92953
3273.76232	0.92944
3271.70851	0.92961
3269.65471	0.93016
3267.60091	0.93051
3265.54710	0.93028
3263.49330	0.92996
3261.43950	0.92964
3259.38569	0.92962
3257.33189	0.93023
3255.27809	0.93075
3253.22428	0.93114
3251.17048	0.93179
3249.11668	0.93252
3247.06287	0.93274
3245.00907	0.93238
3242.95527	0.93216
3240.90146	0.93194
3238.84766	0.93168
3236.79386	0.93199
3234.74005	0.93233
3232.68625	0.93205
3230.63245	0.93194
3228.57864	0.93243
3226.52484	0.93292
3224.47104	0.93301
3222.41724	0.93294
3220.36343	0.93321
3218.30963	0.93355
3216.25583	0.93342
3214.20202	0.93342
3212.14822	0.93361
3210.09442	0.93354
3208.04061	0.93365
3205.98681	0.93380
3203.93301	0.93370
3201.87920	0.93398
3199.82540	0.93468
3197.77160	0.93525
3195.71779	0.93576
3193.66399	0.93621
3191.61019	0.93630
3189.55638	0.93627
3187.50258	0.93659
3185.44878	0.93691
3183.39497	0.93679
3181.34117	0.93665
3179.28737	0.93676
3177.23356	0.93672
3175.17976	0.93646
3173.12596	0.93633
3171.07215	0.93670
3169.01835	0.93721
3166.96455	0.93731
3164.91075	0.93722
3162.85694	0.93732
3160.80314	0.93720
3158.74934	0.93697
3156.69553	0.93757
3154.64173	0.93838
3152.58793	0.93850
3150.53412	0.93842
3148.48032	0.93844
3146.42652	0.93841
3144.37271	0.93835
3142.31891	0.93849
3140.26511	0.93924
3138.21130	0.94038
3136.15750	0.94092
3134.10370	0.94088
3132.04989	0.94106
3129.99609	0.94137
3127.94229	0.94130
3125.88848	0.94110
3123.83468	0.94127
3121.78088	0.94134
3119.72707	0.94087
3117.67327	0.94061
3115.61947	0.94086
3113.56566	0.94089
3111.51186	0.94051
3109.45806	0.93991
3107.40426	0.93910
3105.35045	0.93859
3103.29665	0.93879
3101.24285	0.93913
3099.18904	0.93904
3097.13524	0.93875
3095.08144	0.93867
3093.02763	0.93878
3090.97383	0.93840
3088.92003	0.93715
3086.86622	0.93516
3084.81242	0.93275
3082.75862	0.93098
3080.70481	0.93084
3078.65101	0.93199
3076.59721	0.93356
3074.54340	0.93482
3072.48960	0.93541
3070.43580	0.93507
3068.38199	0.93359
3066.32819	0.93141
3064.27439	0.92906
3062.22058	0.92709
3060.16678	0.92620
3058.11298	0.92665
3056.05918	0.92829
3054.00537	0.93057
3051.95157	0.93271
3049.89777	0.93444
3047.84396	0.93582
3045.79016	0.93671
3043.73636	0.93722
3041.68255	0.93741
3039.62875	0.93668
3037.57495	0.93465
3035.52114	0.93163
3033.46734	0.92774
3031.41354	0.92260
3029.35973	0.91636
3027.30593	0.91060
3025.25213	0.90753
3023.19832	0.90880
3021.14452	0.91408
3019.09072	0.92103
3017.03691	0.92692
3014.98311	0.93081
3012.92931	0.93380
3010.87550	0.93609
3008.82170	0.93709
3006.76790	0.93717
3004.71409	0.93683
3002.66029	0.93654
3000.60649	0.93686
2998.55269	0.93786
2996.49888	0.93917
2994.44508	0.94069
2992.39128	0.94205
2990.33747	0.94297
2988.28367	0.94381
2986.22987	0.94468
2984.17606	0.94496
2982.12226	0.94467
2980.06846	0.94452
2978.01465	0.94437
2975.96085	0.94413
2973.90705	0.94425
2971.85324	0.94473
2969.79944	0.94490
2967.74564	0.94449
2965.69183	0.94395
2963.63803	0.94353
2961.58423	0.94345
2959.53042	0.94341
2957.47662	0.94298
2955.42282	0.94227
2953.36901	0.94137
2951.31521	0.94045
2949.26141	0.93935
2947.20761	0.93760
2945.15380	0.93530
2943.10000	0.93281
2941.04620	0.93031
2938.99239	0.92770
2936.93859	0.92487
2934.88479	0.92181
2932.83098	0.91843
2930.77718	0.91500
2928.72338	0.91182
2926.66957	0.90870
2924.61577	0.90587
2922.56197	0.90405
2920.50816	0.90321
2918.45436	0.90275
2916.40056	0.90320
2914.34675	0.90501
2912.29295	0.90724
2910.23915	0.90956
2908.18534	0.91226
2906.13154	0.91488
2904.07774	0.91706
2902.02393	0.91915
2899.97013	0.92142
2897.91633	0.92384
2895.86252	0.92622
2893.80872	0.92824
2891.75492	0.92949
2889.70112	0.93021
2887.64731	0.93122
2885.59351	0.93238
2883.53971	0.93319
2881.48590	0.93381
2879.43210	0.93465
2877.37830	0.93571
2875.32449	0.93661
2873.27069	0.93723
2871.21689	0.93780
2869.16308	0.93829
2867.10928	0.93823
2865.05548	0.93775
2863.00167	0.93727
2860.94787	0.93660
2858.89407	0.93563
2856.84026	0.93447
2854.78646	0.93296
2852.73266	0.93104
2850.67885	0.92942
2848.62505	0.92894
2846.57125	0.92957
2844.51744	0.93093
2842.46364	0.93272
2840.40984	0.93490
2838.35603	0.93745
2836.30223	0.93988
2834.24843	0.94170
2832.19463	0.94280
2830.14082	0.94343
2828.08702	0.94389
2826.03322	0.94426
2823.97941	0.94474
2821.92561	0.94542
2819.87181	0.94585
2817.81800	0.94579
2815.76420	0.94571
2813.71040	0.94602
2811.65659	0.94642
2809.60279	0.94648
2807.54899	0.94638
2805.49518	0.94624
2803.44138	0.94604
2801.38758	0.94617
2799.33377	0.94664
2797.27997	0.94704
2795.22617	0.94722
2793.17236	0.94729
2791.11856	0.94749
2789.06476	0.94770
2787.01095	0.94778
2784.95715	0.94792
2782.90335	0.94827
2780.84955	0.94872
2778.79574	0.94901
2776.74194	0.94923
2774.68814	0.94954
2772.63433	0.94961
2770.58053	0.94942
2768.52673	0.94932
2766.47292	0.94930
2764.41912	0.94937
2762.36532	0.94960
2760.31151	0.94973
2758.25771	0.94961
2756.20391	0.94940
2754.15010	0.94930
2752.09630	0.94934
2750.04250	0.94960
2747.98869	0.95021
2745.93489	0.95057
2743.88109	0.95037
2741.82728	0.95009
2739.77348	0.95001
2737.71968	0.95010
2735.66587	0.95029
2733.61207	0.95040
2731.55827	0.95033
2729.50446	0.95026
2727.45066	0.95025
2725.39686	0.95023
2723.34306	0.95047
2721.28925	0.95083
2719.23545	0.95079
2717.18165	0.95054
2715.12784	0.95051
2713.07404	0.95065
2711.02024	0.95082
2708.96643	0.95098
2706.91263	0.95106
2704.85883	0.95101
2702.80502	0.95092
2700.75122	0.95087
2698.69742	0.95076
2696.64361	0.95069
2694.58981	0.95083
2692.53601	0.95100
2690.48220	0.95100
2688.42840	0.95108
2686.37460	0.95126
2684.32079	0.95139
2682.26699	0.95156
2680.21319	0.95166
2678.15938	0.95149
2676.10558	0.95121
2674.05178	0.95118
2671.99797	0.95145
2669.94417	0.95161
2667.89037	0.95167
2665.83657	0.95190
2663.78276	0.95199
2661.72896	0.95162
2659.67516	0.95111
2657.62135	0.95096
2655.56755	0.95096
2653.51375	0.95067
2651.45994	0.95031
2649.40614	0.95028
2647.35234	0.95063
2645.29853	0.95121
2643.24473	0.95168
2641.19093	0.95173
2639.13712	0.95153
2637.08332	0.95134
2635.02952	0.95123
2632.97571	0.95138
2630.92191	0.95167
2628.86811	0.95168
2626.81430	0.95175
2624.76050	0.95200
2622.70670	0.95207
2620.65289	0.95215
2618.59909	0.95239
2616.54529	0.95269
2614.49149	0.95281
2612.43768	0.95264
2610.38388	0.95257
2608.33008	0.95272
2606.27627	0.95289
2604.22247	0.95282
2602.16867	0.95256
2600.11486	0.95248
2598.06106	0.95241
2596.00726	0.95263
2593.95345	0.95349
2591.89965	0.95437
2589.84585	0.95482
2587.79204	0.95451
2585.73824	0.95371
2583.68444	0.95316
2581.63063	0.95281
2579.57683	0.95261
2577.52303	0.95273
2575.46922	0.95267
2573.41542	0.95263
2571.36162	0.95320
2569.30781	0.95374
2567.25401	0.95384
2565.20021	0.95378
2563.14640	0.95365
2561.09260	0.95336
2559.03880	0.95297
2556.98500	0.95285
2554.93119	0.95347
2552.87739	0.95453
2550.82359	0.95482
2548.76978	0.95434
2546.71598	0.95389
2544.66218	0.95354
2542.60837	0.95370
2540.55457	0.95429
2538.50077	0.95440
2536.44696	0.95425
2534.39316	0.95411
2532.33936	0.95376
2530.28555	0.95356
2528.23175	0.95399
2526.17795	0.95457
2524.12414	0.95446
2522.07034	0.95404
2520.01654	0.95428
2517.96273	0.95458
2515.90893	0.95403
2513.85513	0.95368
2511.80132	0.95409
2509.74752	0.95456
2507.69372	0.95513
2505.63992	0.95563
2503.58611	0.95498
2501.53231	0.95380
2499.47851	0.95356
2497.42470	0.95382
2495.37090	0.95377
2493.31710	0.95385
2491.26329	0.95433
2489.20949	0.95494
2487.15569	0.95515
2485.10188	0.95472
2483.04808	0.95438
2480.99428	0.95449
2478.94047	0.95496
2476.88667	0.95542
2474.83287	0.95560
2472.77906	0.95570
2470.72526	0.95558
2468.67146	0.95534
2466.61765	0.95550
2464.56385	0.95600
2462.51005	0.95600
2460.45624	0.95563
2458.40244	0.95565
2456.34864	0.95570
2454.29483	0.95586
2452.24103	0.95630
2450.18723	0.95578
2448.13343	0.95454
2446.07962	0.95432
2444.02582	0.95517
2441.97202	0.95588
2439.91821	0.95587
2437.86441	0.95584
2435.81061	0.95593
2433.75680	0.95582
2431.70300	0.95601
2429.64920	0.95591
2427.59539	0.95534
2425.54159	0.95569
2423.48779	0.95647
2421.43398	0.95662
2419.38018	0.95661
2417.32638	0.95629
2415.27257	0.95555
2413.21877	0.95535
2411.16497	0.95604
2409.11116	0.95667
2407.05736	0.95640
2405.00356	0.95604
2402.94975	0.95620
2400.89595	0.95651
2398.84215	0.95655
2396.78834	0.95630
2394.73454	0.95631
2392.68074	0.95654
2390.62694	0.95666
2388.57313	0.95697
2386.51933	0.95746
2384.46553	0.95766
2382.41172	0.95753
2380.35792	0.95741
2378.30412	0.95730
2376.25031	0.95689
2374.19651	0.95665
2372.14271	0.95715
2370.08890	0.95717
2368.03510	0.95634
2365.98130	0.95614
2363.92749	0.95675
2361.87369	0.95718
2359.81989	0.95612
2357.76608	0.95423
2355.71228	0.95402
2353.65848	0.95502
2351.60467	0.95516
2349.55087	0.95473
2347.49707	0.95469
2345.44326	0.95495
2343.38946	0.95536
2341.33566	0.95585
2339.28186	0.95591
2337.22805	0.95571
2335.17425	0.95575
2333.12045	0.95582
2331.06664	0.95580
2329.01284	0.95557
2326.95904	0.95495
2324.90523	0.95428
2322.85143	0.95412
2320.79763	0.95460
2318.74382	0.95504
2316.69002	0.95521
2314.63622	0.95542
2312.58241	0.95563
2310.52861	0.95541
2308.47481	0.95495
2306.42100	0.95470
2304.36720	0.95486
2302.31340	0.95556
2300.25959	0.95648
2298.20579	0.95723
2296.15199	0.95760
2294.09818	0.95748
2292.04438	0.95728
2289.99058	0.95734
2287.93677	0.95713
2285.88297	0.95621
2283.82917	0.95492
2281.77537	0.95414
2279.72156	0.95435
2277.66776	0.95479
2275.61396	0.95518
2273.56015	0.95621
2271.50635	0.95734
2269.45255	0.95733
2267.39874	0.95699
2265.34494	0.95778
2263.29114	0.95851
2261.23733	0.95836
2259.18353	0.95860
2257.12973	0.95920
2255.07592	0.95862
2253.02212	0.95714
2250.96832	0.95709
2248.91451	0.95856
2246.86071	0.95900
2244.80691	0.95800
2242.75310	0.95718
2240.69930	0.95724
2238.64550	0.95815
2236.59169	0.95905
2234.53789	0.95860
2232.48409	0.95724
2230.43029	0.95691
2228.37648	0.95815
2226.32268	0.95919
2224.26888	0.95866
2222.21507	0.95798
2220.16127	0.95855
2218.10747	0.95868
2216.05366	0.95853
2213.99986	0.96014
2211.94606	0.96217
2209.89225	0.96263
2207.83845	0.96064
2205.78465	0.95782
2203.73084	0.95800
2201.67704	0.95937
2199.62324	0.95870
2197.56943	0.95878
2195.51563	0.96076
2193.46183	0.96265
2191.40802	0.96388
2189.35422	0.96435
2187.30042	0.96361
2185.24661	0.96133
2183.19281	0.95933
2181.13901	0.95906
2179.08520	0.95958
2177.03140	0.96044
2174.97760	0.96195
2172.92380	0.96339
2170.86999	0.96400
2168.81619	0.96365
2166.76239	0.96309
2164.70858	0.96375
2162.65478	0.96259
2160.60098	0.95934
2158.54717	0.96107
2156.49337	0.96536
2154.43957	0.96615
2152.38576	0.96561
2150.33196	0.96483
2148.27816	0.96381
2146.22435	0.96371
2144.17055	0.96385
2142.11675	0.96304
2140.06294	0.96279
2138.00914	0.96449
2135.95534	0.96568
2133.90153	0.96436
2131.84773	0.96219
2129.79393	0.96134
2127.74012	0.96245
2125.68632	0.96412
2123.63252	0.96384
2121.57871	0.96193
2119.52491	0.96067
2117.47111	0.95993
2115.41731	0.95915
2113.36350	0.95916
2111.30970	0.95974
2109.25590	0.95924
2107.20209	0.95809
2105.14829	0.95780
2103.09449	0.95812
2101.04068	0.95948
2098.98688	0.96100
2096.93308	0.96100
2094.87927	0.96047
2092.82547	0.96085
2090.77167	0.96154
2088.71786	0.96130
2086.66406	0.96043
2084.61026	0.96007
2082.55645	0.96085
2080.50265	0.96146
2078.44885	0.96048
2076.39504	0.95945
2074.34124	0.95945
2072.28744	0.95972
2070.23363	0.96039
2068.17983	0.96137
2066.12603	0.96166
2064.07223	0.96091
2062.01842	0.96005
2059.96462	0.96050
2057.91082	0.96184
2055.85701	0.96281
2053.80321	0.96261
2051.74941	0.96129
2049.69560	0.96090
2047.64180	0.96182
2045.58800	0.96194
2043.53419	0.96095
2041.48039	0.96086
2039.42659	0.96312
2037.37278	0.96530
2035.31898	0.96588
2033.26518	0.96683
2031.21137	0.96770
2029.15757	0.96727
2027.10377	0.96595
2025.04996	0.96473
2022.99616	0.96341
2020.94236	0.96122
2018.88855	0.96070
2016.83475	0.96262
2014.78095	0.96493
2012.72714	0.96701
2010.67334	0.96779
2008.61954	0.96728
2006.56574	0.96622
2004.51193	0.96499
2002.45813	0.96520
2000.40433	0.96647
1998.35052	0.96646
1996.29672	0.96521
1994.24292	0.96375
1992.18911	0.96224
1990.13531	0.96154
1988.08151	0.96146
1986.02770	0.96096
1983.97390	0.95982
1981.92010	0.95969
1979.86629	0.96184
1977.81249	0.96567
1975.75869	0.97049
1973.70488	0.97260
1971.65108	0.97013
1969.59728	0.96766
1967.54347	0.96646
1965.48967	0.96395
1963.43587	0.96279
1961.38206	0.96554
1959.32826	0.96802
1957.27446	0.96715
1955.22066	0.96491
1953.16685	0.96326
1951.11305	0.96207
1949.05925	0.96092
1947.00544	0.95994
1944.95164	0.95930
1942.89784	0.95922
1940.84403	0.95990
1938.79023	0.96038
1936.73643	0.95943
1934.68262	0.95931
1932.62882	0.96096
1930.57502	0.96158
1928.52121	0.96144
1926.46741	0.96176
1924.41361	0.96152
1922.35980	0.96083
1920.30600	0.96082
1918.25220	0.96152
1916.19839	0.96227
1914.14459	0.96255
1912.09079	0.96243
1910.03698	0.96227
1907.98318	0.96225
1905.92938	0.96204
1903.87557	0.96140
1901.82177	0.96098
1899.76797	0.96111
1897.71417	0.96117
1895.66036	0.96094
1893.60656	0.96087
1891.55276	0.96096
1889.49895	0.96082
1887.44515	0.96037
1885.39135	0.96008
1883.33754	0.95972
1881.28374	0.95897
1879.22994	0.95860
1877.17613	0.95846
1875.12233	0.95799
1873.06853	0.95772
1871.01472	0.95804
1868.96092	0.95848
1866.90712	0.95825
1864.85331	0.95812
1862.79951	0.95866
1860.74571	0.95906
1858.69190	0.95939
1856.63810	0.95966
1854.58430	0.95987
1852.53049	0.96036
1850.47669	0.96048
1848.42289	0.96060
1846.36908	0.96164
1844.31528	0.96285
1842.26148	0.96308
1840.20768	0.96260
1838.15387	0.96187
1836.10007	0.96135
1834.04627	0.96148
1831.99246	0.96194
1829.93866	0.96173
1827.88486	0.96095
1825.83105	0.96115
1823.77725	0.96176
1821.72345	0.96113
1819.66964	0.96000
1817.61584	0.95968
1815.56204	0.95966
1813.50823	0.95918
1811.45443	0.95857
1809.40063	0.95804
1807.34682	0.95772
1805.29302	0.95758
1803.23922	0.95739
1801.18541	0.95728
1799.13161	0.95755
1797.07781	0.95785
1795.02400	0.95790
1792.97020	0.95801
1790.91640	0.95863
1788.86260	0.95954
1786.80879	0.96020
1784.75499	0.96049
1782.70119	0.96036
1780.64738	0.96013
1778.59358	0.96015
1776.53978	0.96013
1774.48597	0.95987
1772.43217	0.95996
1770.37837	0.96050
1768.32456	0.96069
1766.27076	0.96059
1764.21696	0.96050
1762.16315	0.96023
1760.10935	0.95977
1758.05555	0.95934
1756.00174	0.95890
1753.94794	0.95867
1751.89414	0.95857
1749.84033	0.95831
1747.78653	0.95793
1745.73273	0.95753
1743.67892	0.95720
1741.62512	0.95709
1739.57132	0.95698
1737.51751	0.95674
1735.46371	0.95683
1733.40991	0.95727
1731.35611	0.95746
1729.30230	0.95741
1727.24850	0.95721
1725.19470	0.95709
1723.14089	0.95714
1721.08709	0.95708
1719.03329	0.95709
1716.97948	0.95774
1714.92568	0.95858
1712.87188	0.95891
1710.81807	0.95879
1708.76427	0.95841
1706.71047	0.95786
1704.65666	0.95722
1702.60286	0.95671
1700.54906	0.95628
1698.49525	0.95575
1696.44145	0.95486
1694.38765	0.95389
1692.33384	0.95347
1690.28004	0.95308
1688.22624	0.95204
1686.17243	0.95063
1684.11863	0.94927
1682.06483	0.94835
1680.01103	0.94770
1677.95722	0.94719
1675.90342	0.94649
1673.84962	0.94547
1671.79581	0.94438
1669.74201	0.94335
1667.68821	0.94316
1665.63440	0.94319
1663.58060	0.94261
1661.52680	0.94171
1659.47299	0.94091
1657.41919	0.94030
1655.36539	0.94004
1653.31158	0.94031
1651.25778	0.94058
1649.20398	0.94072
1647.15017	0.94099
1645.09637	0.94105
1643.04257	0.94087
1640.98876	0.94074
1638.93496	0.94091
1636.88116	0.94147
1634.82735	0.94198
1632.77355	0.94194
1630.71975	0.94171
1628.66594	0.94163
1626.61214	0.94171
1624.55834	0.94167
1622.50454	0.94172
1620.45073	0.94214
1618.39693	0.94276
1616.34313	0.94330
1614.28932	0.94314
1612.23552	0.94237
1610.18172	0.94062
1608.12791	0.93640
1606.07411	0.92969
1604.02031	0.92221
1601.96650	0.91646
1599.91270	0.91604
1597.85890	0.92120
1595.80509	0.92811
1593.75129	0.93359
1591.69749	0.93711
1589.64368	0.93910
1587.58988	0.93946
1585.53608	0.93828
1583.48227	0.93708
1581.42847	0.93786
1579.37467	0.94020
1577.32086	0.94276
1575.26706	0.94523
1573.21326	0.94699
1571.15945	0.94805
1569.10565	0.94854
1567.05185	0.94854
1564.99805	0.94836
1562.94424	0.94800
1560.89044	0.94752
1558.83664	0.94746
1556.78283	0.94794
1554.72903	0.94816
1552.67523	0.94792
1550.62142	0.94679
1548.56762	0.94530
1546.51382	0.94445
1544.46001	0.94397
1542.40621	0.94338
1540.35241	0.94321
1538.29860	0.94378
1536.24480	0.94394
1534.19100	0.94380
1532.13719	0.94400
1530.08339	0.94430
1528.02959	0.94444
1525.97578	0.94445
1523.92198	0.94446
1521.86818	0.94422
1519.81437	0.94333
1517.76057	0.94258
1515.70677	0.94241
1513.65297	0.94224
1511.59916	0.94186
1509.54536	0.94134
1507.49156	0.94023
1505.43775	0.93882
1503.38395	0.93764
1501.33015	0.93505
1499.27634	0.92730
1497.22254	0.90653
1495.16874	0.87626
1493.11493	0.85761
1491.06113	0.86073
1489.00733	0.88309
1486.95352	0.90357
1484.89972	0.91396
1482.84592	0.91936
1480.79211	0.92226
1478.73831	0.92365
1476.68451	0.92424
1474.63070	0.92447
1472.57690	0.92458
1470.52310	0.92468
1468.46929	0.92470
1466.41549	0.92451
1464.36169	0.92381
1462.30788	0.92254
1460.25408	0.92010
1458.20028	0.91021
1456.14648	0.88322
1454.09267	0.85772
1452.03887	0.84638
1449.98507	0.84898
1447.93126	0.86058
1445.87746	0.87212
1443.82366	0.88073
1441.76985	0.88812
1439.71605	0.89409
1437.66225	0.89901
1435.60844	0.90387
1433.55464	0.90765
1431.50084	0.91051
1429.44703	0.91293
1427.39323	0.91455
1425.33943	0.91551
1423.28562	0.91612
1421.23182	0.91673
1419.17802	0.91758
1417.12421	0.91824
1415.07041	0.91893
1413.01661	0.92007
1410.96280	0.92145
1408.90900	0.92282
1406.85520	0.92433
1404.80139	0.92607
1402.74759	0.92751
1400.69379	0.92869
1398.63999	0.93013
1396.58618	0.93165
1394.53238	0.93300
1392.47858	0.93399
1390.42477	0.93470
1388.37097	0.93509
1386.31717	0.93465
1384.26336	0.93391
1382.20956	0.93348
1380.15576	0.93329
1378.10195	0.93321
1376.04815	0.93290
1373.99435	0.93255
1371.94054	0.93264
1369.88674	0.93300
1367.83294	0.93356
1365.77913	0.93426
1363.72533	0.93490
1361.67153	0.93560
1359.61772	0.93646
1357.56392	0.93751
1355.51012	0.93864
1353.45631	0.93958
1351.40251	0.94039
1349.34871	0.94104
1347.29491	0.94129
1345.24110	0.94146
1343.18730	0.94191
1341.13350	0.94257
1339.07969	0.94339
1337.02589	0.94393
1334.97209	0.94380
1332.91828	0.94314
1330.86448	0.94247
1328.81068	0.94220
1326.75687	0.94226
1324.70307	0.94254
1322.64927	0.94314
1320.59546	0.94371
1318.54166	0.94364
1316.48786	0.94323
1314.43405	0.94311
1312.38025	0.94326
1310.32645	0.94353
1308.27264	0.94385
1306.21884	0.94413
1304.16504	0.94445
1302.11123	0.94504
1300.05743	0.94583
1298.00363	0.94652
1295.94982	0.94707
1293.89602	0.94734
1291.84222	0.94721
1289.78842	0.94701
1287.73461	0.94713
1285.68081	0.94725
1283.62701	0.94712
1281.57320	0.94697
1279.51940	0.94683
1277.46560	0.94678
1275.41179	0.94698
1273.35799	0.94714
1271.30419	0.94715
1269.25038	0.94731
1267.19658	0.94763
1265.14278	0.94776
1263.08897	0.94780
1261.03517	0.94806
1258.98137	0.94842
1256.92756	0.94854
1254.87376	0.94822
1252.81996	0.94759
1250.76615	0.94689
1248.71235	0.94625
1246.65855	0.94573
1244.60474	0.94534
1242.55094	0.94499
1240.49714	0.94474
1238.44334	0.94471
1236.38953	0.94477
1234.33573	0.94482
1232.28193	0.94476
1230.22812	0.94426
1228.17432	0.94327
1226.12052	0.94213
1224.06671	0.94101
1222.01291	0.93990
1219.95911	0.93885
1217.90530	0.93790
1215.85150	0.93680
1213.79770	0.93527
1211.74389	0.93337
1209.69009	0.93133
1207.63629	0.92923
1205.58248	0.92686
1203.52868	0.92424
1201.47488	0.92178
1199.42107	0.91946
1197.36727	0.91699
1195.31347	0.91461
1193.25966	0.91251
1191.20586	0.91013
1189.15206	0.90700
1187.09825	0.90325
1185.04445	0.89916
1182.99065	0.89518
1180.93685	0.89177
1178.88304	0.88923
1176.82924	0.88749
1174.77544	0.88589
1172.72163	0.88379
1170.66783	0.88114
1168.61403	0.87839
1166.56022	0.87586
1164.50642	0.87335
1162.45262	0.87073
1160.39881	0.86821
1158.34501	0.86564
1156.29121	0.86257
1154.23740	0.85957
1152.18360	0.85798
1150.12980	0.85771
1148.07599	0.85742
1146.02219	0.85657
1143.96839	0.85560
1141.91458	0.85472
1139.86078	0.85358
1137.80698	0.85207
1135.75317	0.85032
1133.69937	0.84836
1131.64557	0.84617
1129.59176	0.84391
1127.53796	0.84139
1125.48416	0.83822
1123.43036	0.83477
1121.37655	0.83100
1119.32275	0.82661
1117.26895	0.82193
1115.21514	0.81711
1113.16134	0.81250
1111.10754	0.80852
1109.05373	0.80487
1106.99993	0.80116
1104.94613	0.79764
1102.89232	0.79485
1100.83852	0.79270
1098.78472	0.79074
1096.73091	0.78879
1094.67711	0.78722
1092.62331	0.78630
1090.56950	0.78557
1088.51570	0.78461
1086.46190	0.78388
1084.40809	0.78384
1082.35429	0.78381
1080.30049	0.78298
1078.24668	0.78167
1076.19288	0.78041
1074.13908	0.77905
1072.08528	0.77709
1070.03147	0.77430
1067.97767	0.77139
1065.92387	0.76917
1063.87006	0.76736
1061.81626	0.76551
1059.76246	0.76358
1057.70865	0.76105
1055.65485	0.75759
1053.60105	0.75385
1051.54724	0.75018
1049.49344	0.74595
1047.43964	0.74106
1045.38583	0.73603
1043.33203	0.73070
1041.27823	0.72494
1039.22442	0.71907
1037.17062	0.71315
1035.11682	0.70665
1033.06301	0.69903
1031.00921	0.69122
1028.95541	0.68557
1026.90160	0.68383
1024.84780	0.68548
1022.79400	0.68846
1020.74019	0.69108
1018.68639	0.69261
1016.63259	0.69318
1014.57879	0.69343
1012.52498	0.69332
1010.47118	0.69268
1008.41738	0.69217
1006.36357	0.69217
1004.30977	0.69279
1002.25597	0.69465
1000.20216	0.69822
998.14836	0.70340
996.09456	0.70958
994.04075	0.71571
991.98695	0.72105
989.93315	0.72591
987.87934	0.73104
985.82554	0.73674
983.77174	0.74283
981.71793	0.74897
979.66413	0.75521
977.61033	0.76199
975.55652	0.76933
973.50272	0.77657
971.44892	0.78308
969.39511	0.78850
967.34131	0.79298
965.28751	0.79738
963.23371	0.80199
961.17990	0.80648
959.12610	0.81112
957.07230	0.81586
955.01849	0.82013
952.96469	0.82383
950.91089	0.82685
948.85708	0.82936
946.80328	0.83199
944.74948	0.83468
942.69567	0.83700
940.64187	0.83909
938.58807	0.84119
936.53426	0.84343
934.48046	0.84599
932.42666	0.84845
930.37285	0.85044
928.31905	0.85235
926.26525	0.85421
924.21144	0.85550
922.15764	0.85569
920.10384	0.85495
918.05003	0.85360
915.99623	0.85174
913.94243	0.84941
911.88862	0.84677
909.83482	0.84481
907.78102	0.84470
905.72722	0.84703
903.67341	0.85200
901.61961	0.85883
899.56581	0.86634
897.51200	0.87352
895.45820	0.87915
893.40440	0.88287
891.35059	0.88545
889.29679	0.88782
887.24299	0.88974
885.18918	0.89008
883.13538	0.88865
881.08158	0.88640
879.02777	0.88497
876.97397	0.88550
874.92017	0.88780
872.86636	0.89169
870.81256	0.89690
868.75876	0.90195
866.70495	0.90517
864.65115	0.90679
862.59735	0.90844
860.54354	0.91034
858.48974	0.91122
856.43594	0.91151
854.38213	0.91212
852.32833	0.91241
850.27453	0.91236
848.22073	0.91205
846.16692	0.91113
844.11312	0.91027
842.05932	0.91005
840.00551	0.91045
837.95171	0.91154
835.89791	0.91316
833.84410	0.91470
831.79030	0.91598
829.73650	0.91697
827.68269	0.91744
825.62889	0.91770
823.57509	0.91783
821.52128	0.91751
819.46748	0.91684
817.41368	0.91633
815.35987	0.91594
813.30607	0.91507
811.25227	0.91296
809.19846	0.90916
807.14466	0.90420
805.09086	0.89873
803.03705	0.89310
800.98325	0.88837
798.92945	0.88540
796.87565	0.88388
794.82184	0.88355
792.76804	0.88370
790.71424	0.88319
788.66043	0.88200
786.60663	0.88015
784.55283	0.87698
782.49902	0.87243
780.44522	0.86752
778.39142	0.86265
776.33761	0.85750
774.28381	0.85212
772.23001	0.84537
770.17620	0.83616
768.12240	0.82579
766.06860	0.81482
764.01479	0.80286
761.96099	0.79087
759.90719	0.77961
757.85338	0.77053
755.79958	0.76574
753.74578	0.76526
751.69197	0.76709
749.63817	0.76939
747.58437	0.77289
745.53056	0.78058
743.47676	0.79338
741.42296	0.80858
739.36916	0.82349
737.31535	0.83727
735.26155	0.84959
733.20775	0.85979
731.15394	0.86765
729.10014	0.87348
727.04634	0.87727
724.99253	0.87953
722.93873	0.88162
720.88493	0.88395
718.83112	0.88570
716.77732	0.88652
714.72352	0.88562
712.66971	0.88087
710.61591	0.86938
708.56211	0.84732
706.50830	0.81113
704.45450	0.75927
702.40070	0.69409
700.34689	0.62224
698.29309	0.55565
696.23929	0.51925
694.18548	0.53860
692.13168	0.60412
690.07788	0.67713
688.02408	0.73190
685.97027	0.76655
683.91647	0.78730
681.86267	0.80042
679.80886	0.81041
677.75506	0.81843
675.70126	0.82459
673.64745	0.82926
671.59365	0.83220
669.53985	0.83425
667.48604	0.83643
665.43224	0.83701
663.37844	0.83720
661.32463	0.83848
659.27083	0.83937
657.21703	0.83865
655.16322	0.83706
653.10942	0.83521
651.05562	0.83403
649.00181	0.83428
646.94801	0.83513
644.89421	0.83618
642.84040	0.83801
640.78660	0.83962
638.73280	0.84048
636.67899	0.84166
634.62519	0.84295
632.57139	0.84348
630.51759	0.84333
628.46378	0.84210
626.40998	0.83969
624.35618	0.83793
622.30237	0.83714
620.24857	0.83562
618.19477	0.83375
616.14096	0.83186
614.08716	0.82941
612.03336	0.82730
609.97955	0.82561
607.92575	0.82412
605.87195	0.82278
603.81814	0.81992
601.76434	0.81536
599.71054	0.81063
597.65673	0.80729
595.60293	0.80555
593.54913	0.80364
591.49532	0.80147
589.44152	0.79973
587.38772	0.79780
585.33391	0.79676
583.28011	0.79805
581.22631	0.79949
579.17250	0.79837
577.11870	0.79632
575.06490	0.79482
573.01110	0.79300
570.95729	0.79129
568.90349	0.78890
566.84969	0.78545
564.79588	0.78209
562.74208	0.77829
560.68828	0.77417
558.63447	0.77015
556.58067	0.76557
554.52687	0.76068
552.47306	0.75543
550.41926	0.74824
548.36546	0.73896
546.31165	0.72828
544.25785	0.71666
542.20405	0.70507
540.15024	0.69389
538.09644	0.68474
536.04264	0.68027
533.98883	0.68083
531.93503	0.68449
529.88123	0.69033
527.82742	0.69865
525.77362	0.70764
523.71982	0.71501
521.66602	0.72108
519.61221	0.72582
517.55841	0.72915
515.50461	0.73349
513.45080	0.73962
511.39700	0.74492
509.34320	0.74828
507.28939	0.75177
505.23559	0.75562
503.18179	0.75816
501.12798	0.75941
499.07418	0.75989
497.02038	0.76001
494.96657	0.75936
492.91277	0.75619
490.85897	0.75107
488.80516	0.74612
486.75136	0.74018
484.69756	0.73117
482.64375	0.71942
480.58995	0.70665
478.53615	0.69398
476.48234	0.68279
474.42854	0.67381
472.37474	0.66361
470.32093	0.65133
468.26713	0.64359
466.21333	0.64264
464.15953	0.64500
462.10572	0.64931
460.05192	0.65625
457.99812	0.66439
455.94431	0.67117
453.89051	0.67829
451.83671	0.68538
449.78290	0.68860
447.72910	0.68996
445.67530	0.69200
443.62149	0.69293
441.56769	0.69104
439.51389	0.68845
437.46008	0.68559
435.40628	0.67898
433.35248	0.67171
431.29867	0.67088
429.24487	0.67489
427.19107	0.67700
425.13726	0.67622
423.08346	0.67538
421.02966	0.67660
418.97585	0.68260
416.92205	0.69059
414.86825	0.69482
412.81445	0.69672
410.76064	0.69995
408.70684	0.70703
406.65304	0.71678
404.59923	0.72228
402.54543	0.71774
400.49163	0.70910
398.43782	0.70665
