3996.70104	0.94830
3994.64724	0.94738
3992.59344	0.94722
3990.53964	0.94767
3988.48583	0.94813
3986.43203	0.94820
3984.37823	0.94798
3982.32442	0.94771
3980.27062	0.94806
3978.21682	0.94911
3976.16301	0.94955
3974.10921	0.94905
3972.05541	0.94858
3970.00160	0.94839
3967.94780	0.94802
3965.89400	0.94784
3963.84019	0.94848
3961.78639	0.94912
3959.73259	0.94874
3957.67878	0.94807
3955.62498	0.94824
3953.57118	0.94861
3951.51737	0.94845
3949.46357	0.94817
3947.40977	0.94805
3945.35596	0.94847
3943.30216	0.94917
3941.24836	0.94925
3939.19455	0.94897
3937.14075	0.94901
3935.08695	0.94908
3933.03315	0.94896
3930.97934	0.94895
3928.92554	0.94903
3926.87174	0.94903
3924.81793	0.94897
3922.76413	0.94892
3920.71033	0.94892
3918.65652	0.94971
3916.60272	0.95067
3914.54892	0.94996
3912.49511	0.94863
3910.44131	0.94825
3908.38751	0.94838
3906.33370	0.94845
3904.27990	0.94907
3902.22610	0.95022
3900.17229	0.95044
3898.11849	0.94984
3896.06469	0.94997
3894.01088	0.95075
3891.95708	0.95082
3889.90328	0.95016
3887.84947	0.94993
3885.79567	0.95008
3883.74187	0.95007
3881.68807	0.95014
3879.63426	0.95009
3877.58046	0.94944
3875.52666	0.94889
3873.47285	0.94900
3871.41905	0.94953
3869.36525	0.95025
3867.31144	0.95039
3865.25764	0.94948
3863.20384	0.94863
3861.15003	0.94850
3859.09623	0.94835
3857.04243	0.94806
3854.98862	0.94830
3852.93482	0.94930
3850.88102	0.94944
3848.82721	0.94891
3846.77341	0.94849
3844.71961	0.94870
3842.66580	0.94975
3840.61200	0.95029
3838.55820	0.94953
3836.50439	0.94913
3834.45059	0.94947
3832.39679	0.94953
3830.34298	0.94968
3828.28918	0.95019
3826.23538	0.95002
3824.18158	0.94899
3822.12777	0.94852
3820.07397	0.94934
3818.02017	0.95039
3815.96636	0.95077
3813.91256	0.95031
3811.85876	0.94981
3809.80495	0.94973
3807.75115	0.95007
3805.69735	0.95063
3803.64354	0.95075
3801.58974	0.95034
3799.53594	0.95036
3797.48213	0.95097
3795.42833	0.95130
3793.37453	0.95111
3791.32072	0.95089
3789.26692	0.95087
3787.21312	0.95059
3785.15931	0.95002
3783.10551	0.95002
3781.05171	0.95051
3778.99790	0.95056
3776.94410	0.95032
3774.89030	0.95096
3772.83650	0.95197
3770.78269	0.95172
3768.72889	0.95076
3766.67509	0.95063
3764.62128	0.95068
3762.56748	0.95041
3760.51368	0.95044
3758.45987	0.95070
3756.40607	0.95084
3754.35227	0.95123
3752.29846	0.95158
3750.24466	0.95182
3748.19086	0.95242
3746.13705	0.95268
3744.08325	0.95284
3742.02945	0.95310
3739.97564	0.95310
3737.92184	0.95350
3735.86804	0.95417
3733.81423	0.95390
3731.76043	0.95320
3729.70663	0.95292
3727.65282	0.95312
3725.59902	0.95367
3723.54522	0.95395
3721.49141	0.95339
3719.43761	0.95238
3717.38381	0.95156
3715.33001	0.95097
3713.27620	0.95046
3711.22240	0.94997
3709.16860	0.94948
3707.11479	0.94859
3705.06099	0.94723
3703.00719	0.94544
3700.95338	0.94366
3698.89958	0.94306
3696.84578	0.94330
3694.79197	0.94338
3692.73817	0.94320
3690.68437	0.94381
3688.63056	0.94568
3686.57676	0.94630
3684.52296	0.94581
3682.46915	0.94564
3680.41535	0.94560
3678.36155	0.94513
3676.30774	0.94400
3674.25394	0.94305
3672.20014	0.94336
3670.14633	0.94357
3668.09253	0.94303
3666.03873	0.94263
3663.98492	0.94208
3661.93112	0.94129
3659.87732	0.94103
3657.82352	0.94119
3655.76971	0.94121
3653.71591	0.94103
3651.66211	0.94048
3649.60830	0.93939
3647.55450	0.93837
3645.50070	0.93803
3643.44689	0.93795
3641.39309	0.93747
3639.33929	0.93642
3637.28548	0.93558
3635.23168	0.93568
3633.17788	0.93619
3631.12407	0.93602
3629.07027	0.93455
3627.01647	0.93277
3624.96266	0.93208
3622.90886	0.93206
3620.85506	0.93228
3618.80125	0.93240
3616.74745	0.93211
3614.69365	0.93185
3612.63984	0.93242
3610.58604	0.93328
3608.53224	0.93301
3606.47844	0.93173
3604.42463	0.93119
3602.37083	0.93164
3600.31703	0.93220
3598.26322	0.93214
3596.20942	0.93145
3594.15562	0.93106
3592.10181	0.93110
3590.04801	0.93099
3587.99421	0.93095
3585.94040	0.93059
3583.88660	0.92989
3581.83280	0.92952
3579.77899	0.92916
3577.72519	0.92846
3575.67139	0.92810
3573.61758	0.92811
3571.56378	0.92778
3569.50998	0.92732
3567.45617	0.92714
3565.40237	0.92711
3563.34857	0.92686
3561.29476	0.92615
3559.24096	0.92526
3557.18716	0.92459
3555.13335	0.92444
3553.07955	0.92474
3551.02575	0.92465
3548.97195	0.92368
3546.91814	0.92249
3544.86434	0.92206
3542.81054	0.92251
3540.75673	0.92308
3538.70293	0.92324
3536.64913	0.92275
3534.59532	0.92190
3532.54152	0.92132
3530.48772	0.92086
3528.43391	0.92042
3526.38011	0.92026
3524.32631	0.92039
3522.27250	0.92082
3520.21870	0.92134
3518.16490	0.92145
3516.11109	0.92080
3514.05729	0.91983
3512.00349	0.91933
3509.94968	0.91914
3507.89588	0.91875
3505.84208	0.91839
3503.78827	0.91844
3501.73447	0.91870
3499.68067	0.91873
3497.62687	0.91827
3495.57306	0.91782
3493.51926	0.91800
3491.46546	0.91806
3489.41165	0.91731
3487.35785	0.91661
3485.30405	0.91666
3483.25024	0.91676
3481.19644	0.91636
3479.14264	0.91570
3477.08883	0.91526
3475.03503	0.91526
3472.98123	0.91534
3470.92742	0.91519
3468.87362	0.91461
3466.81982	0.91370
3464.76601	0.91307
3462.71221	0.91291
3460.65841	0.91328
3458.60460	0.91397
3456.55080	0.91395
3454.49700	0.91298
3452.44319	0.91209
3450.38939	0.91203
3448.33559	0.91240
3446.28178	0.91221
3444.22798	0.91182
3442.17418	0.91167
3440.12038	0.91131
3438.06657	0.91105
3436.01277	0.91120
3433.95897	0.91120
3431.90516	0.91072
3429.85136	0.91017
3427.79756	0.90977
3425.74375	0.90964
3423.68995	0.90996
3421.63615	0.91011
3419.58234	0.90976
3417.52854	0.90953
3415.47474	0.90944
3413.42093	0.90923
3411.36713	0.90926
3409.31333	0.90947
3407.25952	0.90961
3405.20572	0.90976
3403.15192	0.90961
3401.09811	0.90899
3399.04431	0.90846
3396.99051	0.90823
3394.93670	0.90818
3392.88290	0.90841
3390.82910	0.90856
3388.77529	0.90832
3386.72149	0.90816
3384.66769	0.90821
3382.61389	0.90825
3380.56008	0.90836
3378.50628	0.90854
3376.45248	0.90870
3374.39867	0.90889
3372.34487	0.90886
3370.29107	0.90871
3368.23726	0.90913
3366.18346	0.90984
3364.12966	0.91012
3362.07585	0.90999
3360.02205	0.90961
3357.96825	0.90933
3355.91444	0.90909
3353.86064	0.90840
3351.80684	0.90785
3349.75303	0.90805
3347.69923	0.90851
3345.64543	0.90894
3343.59162	0.90943
3341.53782	0.90957
3339.48402	0.90928
3337.43021	0.90944
3335.37641	0.90997
3333.32261	0.91007
3331.26881	0.91003
3329.21500	0.91024
3327.16120	0.91027
3325.10740	0.90988
3323.05359	0.90961
3320.99979	0.90984
3318.94599	0.91019
3316.89218	0.91046
3314.83838	0.91049
3312.78458	0.91019
3310.73077	0.91014
3308.67697	0.91088
3306.62317	0.91166
3304.56936	0.91162
3302.51556	0.91105
3300.46176	0.91065
3298.40795	0.91075
3296.35415	0.91097
3294.30035	0.91110
3292.24654	0.91146
3290.19274	0.91214
3288.13894	0.91265
3286.08513	0.91268
3284.03133	0.91249
3281.97753	0.91236
3279.92372	0.91228
3277.86992	0.91226
3275.81612	0.91266
3273.76232	0.91340
3271.70851	0.91370
3269.65471	0.91324
3267.60091	0.91267
3265.54710	0.91262
3263.49330	0.91282
3261.43950	0.91304
3259.38569	0.91340
3257.33189	0.91392
3255.27809	0.91454
3253.22428	0.91500
3251.17048	0.91499
3249.11668	0.91475
3247.06287	0.91465
3245.00907	0.91473
3242.95527	0.91501
3240.90146	0.91547
3238.84766	0.91582
3236.79386	0.91605
3234.74005	0.91623
3232.68625	0.91616
3230.63245	0.91604
3228.57864	0.91647
3226.52484	0.91724
3224.47104	0.91742
3222.41724	0.91688
3220.36343	0.91657
3218.30963	0.91719
3216.25583	0.91823
3214.20202	0.91867
3212.14822	0.91853
3210.09442	0.91851
3208.04061	0.91893
3205.98681	0.91954
3203.93301	0.91964
3201.87920	0.91911
3199.82540	0.91892
3197.77160	0.91955
3195.71779	0.92025
3193.66399	0.92046
3191.61019	0.92062
3189.55638	0.92076
3187.50258	0.92057
3185.44878	0.92069
3183.39497	0.92132
3181.34117	0.92186
3179.28737	0.92215
3177.23356	0.92236
3175.17976	0.92259
3173.12596	0.92281
3171.07215	0.92300
3169.01835	0.92323
3166.96455	0.92331
3164.91075	0.92335
3162.85694	0.92354
3160.80314	0.92398
3158.74934	0.92477
3156.69553	0.92525
3154.64173	0.92504
3152.58793	0.92514
3150.53412	0.92567
3148.48032	0.92590
3146.42652	0.92579
3144.37271	0.92543
3142.31891	0.92514
3140.26511	0.92534
3138.21130	0.92608
3136.15750	0.92714
3134.10370	0.92766
3132.04989	0.92749
3129.99609	0.92724
3127.94229	0.92703
3125.88848	0.92689
3123.83468	0.92709
3121.78088	0.92771
3119.72707	0.92838
3117.67327	0.92897
3115.61947	0.92948
3113.56566	0.92969
3111.51186	0.92968
3109.45806	0.92951
3107.40426	0.92945
3105.35045	0.92983
3103.29665	0.93023
3101.24285	0.93042
3099.18904	0.93058
3097.13524	0.93049
3095.08144	0.93042
3093.02763	0.93066
3090.97383	0.93081
3088.92003	0.93097
3086.86622	0.93120
3084.81242	0.93119
3082.75862	0.93096
3080.70481	0.93089
3078.65101	0.93104
3076.59721	0.93117
3074.54340	0.93110
3072.48960	0.93108
3070.43580	0.93121
3068.38199	0.93134
3066.32819	0.93177
3064.27439	0.93232
3062.22058	0.93252
3060.16678	0.93259
3058.11298	0.93267
3056.05918	0.93295
3054.00537	0.93338
3051.95157	0.93360
3049.89777	0.93383
3047.84396	0.93424
3045.79016	0.93460
3043.73636	0.93478
3041.68255	0.93480
3039.62875	0.93477
3037.57495	0.93474
3035.52114	0.93480
3033.46734	0.93509
3031.41354	0.93547
3029.35973	0.93579
3027.30593	0.93585
3025.25213	0.93572
3023.19832	0.93591
3021.14452	0.93649
3019.09072	0.93698
3017.03691	0.93691
3014.98311	0.93653
3012.92931	0.93626
3010.87550	0.93572
3008.82170	0.93490
3006.76790	0.93432
3004.71409	0.93392
3002.66029	0.93351
3000.60649	0.93297
2998.55269	0.93242
2996.49888	0.93192
2994.44508	0.93137
2992.39128	0.93103
2990.33747	0.93070
2988.28367	0.92995
2986.22987	0.92921
2984.17606	0.92863
2982.12226	0.92790
2980.06846	0.92699
2978.01465	0.92574
2975.96085	0.92409
2973.90705	0.92249
2971.85324	0.92127
2969.79944	0.91982
2967.74564	0.91788
2965.69183	0.91593
2963.63803	0.91398
2961.58423	0.91170
2959.53042	0.90918
2957.47662	0.90669
2955.42282	0.90391
2953.36901	0.90088
2951.31521	0.89796
2949.26141	0.89485
2947.20761	0.89119
2945.15380	0.88685
2943.10000	0.88219
2941.04620	0.87755
2938.99239	0.87236
2936.93859	0.86652
2934.88479	0.86079
2932.83098	0.85536
2930.77718	0.84992
2928.72338	0.84447
2926.66957	0.83969
2924.61577	0.83647
2922.56197	0.83480
2920.50816	0.83426
2918.45436	0.83533
2916.40056	0.83888
2914.34675	0.84462
2912.29295	0.85128
2910.23915	0.85748
2908.18534	0.86263
2906.13154	0.86689
2904.07774	0.87068
2902.02393	0.87424
2899.97013	0.87747
2897.91633	0.88036
2895.86252	0.88310
2893.80872	0.88564
2891.75492	0.88808
2889.70112	0.89068
2887.64731	0.89333
2885.59351	0.89586
2883.53971	0.89799
2881.48590	0.89945
2879.43210	0.90052
2877.37830	0.90135
2875.32449	0.90173
2873.27069	0.90126
2871.21689	0.90001
2869.16308	0.89865
2867.10928	0.89698
2865.05548	0.89408
2863.00167	0.88986
2860.94787	0.88444
2858.89407	0.87799
2856.84026	0.87122
2854.78646	0.86494
2852.73266	0.86047
2850.67885	0.85967
2848.62505	0.86334
2846.57125	0.87066
2844.51744	0.87963
2842.46364	0.88817
2840.40984	0.89529
2838.35603	0.90084
2836.30223	0.90517
2834.24843	0.90877
2832.19463	0.91178
2830.14082	0.91426
2828.08702	0.91640
2826.03322	0.91809
2823.97941	0.91931
2821.92561	0.92018
2819.87181	0.92087
2817.81800	0.92170
2815.76420	0.92268
2813.71040	0.92361
2811.65659	0.92459
2809.60279	0.92549
2807.54899	0.92587
2805.49518	0.92578
2803.44138	0.92610
2801.38758	0.92710
2799.33377	0.92800
2797.27997	0.92871
2795.22617	0.92941
2793.17236	0.92980
2791.11856	0.92988
2789.06476	0.92993
2787.01095	0.93017
2784.95715	0.93061
2782.90335	0.93096
2780.84955	0.93110
2778.79574	0.93137
2776.74194	0.93183
2774.68814	0.93217
2772.63433	0.93229
2770.58053	0.93240
2768.52673	0.93267
2766.47292	0.93289
2764.41912	0.93300
2762.36532	0.93320
2760.31151	0.93341
2758.25771	0.93343
2756.20391	0.93342
2754.15010	0.93342
2752.09630	0.93319
2750.04250	0.93304
2747.98869	0.93318
2745.93489	0.93331
2743.88109	0.93340
2741.82728	0.93345
2739.77348	0.93369
2737.71968	0.93433
2735.66587	0.93468
2733.61207	0.93443
2731.55827	0.93426
2729.50446	0.93436
2727.45066	0.93435
2725.39686	0.93432
2723.34306	0.93471
2721.28925	0.93532
2719.23545	0.93545
2717.18165	0.93526
2715.12784	0.93515
2713.07404	0.93524
2711.02024	0.93564
2708.96643	0.93605
2706.91263	0.93611
2704.85883	0.93614
2702.80502	0.93616
2700.75122	0.93596
2698.69742	0.93578
2696.64361	0.93596
2694.58981	0.93623
2692.53601	0.93634
2690.48220	0.93643
2688.42840	0.93640
2686.37460	0.93636
2684.32079	0.93643
2682.26699	0.93629
2680.21319	0.93597
2678.15938	0.93597
2676.10558	0.93641
2674.05178	0.93683
2671.99797	0.93701
2669.94417	0.93708
2667.89037	0.93705
2665.83657	0.93705
2663.78276	0.93713
2661.72896	0.93709
2659.67516	0.93681
2657.62135	0.93667
2655.56755	0.93687
2653.51375	0.93710
2651.45994	0.93714
2649.40614	0.93719
2647.35234	0.93752
2645.29853	0.93787
2643.24473	0.93777
2641.19093	0.93743
2639.13712	0.93735
2637.08332	0.93781
2635.02952	0.93865
2632.97571	0.93893
2630.92191	0.93840
2628.86811	0.93794
2626.81430	0.93807
2624.76050	0.93867
2622.70670	0.93902
2620.65289	0.93899
2618.59909	0.93927
2616.54529	0.93956
2614.49149	0.93960
2612.43768	0.93984
2610.38388	0.94014
2608.33008	0.94025
2606.27627	0.94014
2604.22247	0.93985
2602.16867	0.93976
2600.11486	0.94005
2598.06106	0.94037
2596.00726	0.94070
2593.95345	0.94110
2591.89965	0.94124
2589.84585	0.94105
2587.79204	0.94093
2585.73824	0.94121
2583.68444	0.94182
2581.63063	0.94205
2579.57683	0.94185
2577.52303	0.94208
2575.46922	0.94206
2573.41542	0.94100
2571.36162	0.94019
2569.30781	0.94043
2567.25401	0.94122
2565.20021	0.94192
2563.14640	0.94184
2561.09260	0.94167
2559.03880	0.94220
2556.98500	0.94284
2554.93119	0.94298
2552.87739	0.94268
2550.82359	0.94240
2548.76978	0.94245
2546.71598	0.94307
2544.66218	0.94352
2542.60837	0.94290
2540.55457	0.94201
2538.50077	0.94209
2536.44696	0.94281
2534.39316	0.94338
2532.33936	0.94371
2530.28555	0.94371
2528.23175	0.94347
2526.17795	0.94333
2524.12414	0.94361
2522.07034	0.94407
2520.01654	0.94409
2517.96273	0.94370
2515.90893	0.94337
2513.85513	0.94307
2511.80132	0.94281
2509.74752	0.94287
2507.69372	0.94319
2505.63992	0.94355
2503.58611	0.94366
2501.53231	0.94370
2499.47851	0.94382
2497.42470	0.94399
2495.37090	0.94449
2493.31710	0.94457
2491.26329	0.94352
2489.20949	0.94240
2487.15569	0.94216
2485.10188	0.94267
2483.04808	0.94352
2480.99428	0.94399
2478.94047	0.94368
2476.88667	0.94337
2474.83287	0.94386
2472.77906	0.94438
2470.72526	0.94395
2468.67146	0.94364
2466.61765	0.94427
2464.56385	0.94469
2462.51005	0.94432
2460.45624	0.94396
2458.40244	0.94377
2456.34864	0.94356
2454.29483	0.94374
2452.24103	0.94405
2450.18723	0.94381
2448.13343	0.94336
2446.07962	0.94326
2444.02582	0.94336
2441.97202	0.94328
2439.91821	0.94340
2437.86441	0.94395
2435.81061	0.94413
2433.75680	0.94398
2431.70300	0.94437
2429.64920	0.94510
2427.59539	0.94543
2425.54159	0.94534
2423.48779	0.94547
2421.43398	0.94576
2419.38018	0.94574
2417.32638	0.94598
2415.27257	0.94659
2413.21877	0.94659
2411.16497	0.94602
2409.11116	0.94560
2407.05736	0.94562
2405.00356	0.94572
2402.94975	0.94554
2400.89595	0.94533
2398.84215	0.94519
2396.78834	0.94496
2394.73454	0.94490
2392.68074	0.94504
2390.62694	0.94514
2388.57313	0.94517
2386.51933	0.94527
2384.46553	0.94532
2382.41172	0.94541
2380.35792	0.94589
2378.30412	0.94644
2376.25031	0.94662
2374.19651	0.94631
2372.14271	0.94577
2370.08890	0.94548
2368.03510	0.94518
2365.98130	0.94514
2363.92749	0.94571
2361.87369	0.94640
2359.81989	0.94694
2357.76608	0.94685
2355.71228	0.94656
2353.65848	0.94654
2351.60467	0.94607
2349.55087	0.94539
2347.49707	0.94483
2345.44326	0.94432
2343.38946	0.94439
2341.33566	0.94537
2339.28186	0.94607
2337.22805	0.94562
2335.17425	0.94466
2333.12045	0.94405
2331.06664	0.94418
2329.01284	0.94485
2326.95904	0.94504
2324.90523	0.94415
2322.85143	0.94346
2320.79763	0.94368
2318.74382	0.94385
2316.69002	0.94396
2314.63622	0.94416
2312.58241	0.94435
2310.52861	0.94445
2308.47481	0.94468
2306.42100	0.94510
2304.36720	0.94530
2302.31340	0.94522
2300.25959	0.94509
2298.20579	0.94502
2296.15199	0.94501
2294.09818	0.94513
2292.04438	0.94521
2289.99058	0.94486
2287.93677	0.94403
2285.88297	0.94343
2283.82917	0.94362
2281.77537	0.94430
2279.72156	0.94475
2277.66776	0.94488
2275.61396	0.94509
2273.56015	0.94536
2271.50635	0.94547
2269.45255	0.94538
2267.39874	0.94516
2265.34494	0.94532
2263.29114	0.94587
2261.23733	0.94600
2259.18353	0.94585
2257.12973	0.94604
2255.07592	0.94696
2253.02212	0.94819
2250.96832	0.94812
2248.91451	0.94690
2246.86071	0.94607
2244.80691	0.94572
2242.75310	0.94560
2240.69930	0.94683
2238.64550	0.94859
2236.59169	0.94856
2234.53789	0.94711
2232.48409	0.94694
2230.43029	0.94925
2228.37648	0.95087
2226.32268	0.94946
2224.26888	0.94736
2222.21507	0.94672
2220.16127	0.94714
2218.10747	0.94735
2216.05366	0.94638
2213.99986	0.94562
2211.94606	0.94664
2209.89225	0.94776
2207.83845	0.94810
2205.78465	0.94885
2203.73084	0.94944
2201.67704	0.94908
2199.62324	0.94875
2197.56943	0.94886
2195.51563	0.94852
2193.46183	0.94791
2191.40802	0.94825
2189.35422	0.94872
2187.30042	0.94934
2185.24661	0.95215
2183.19281	0.95539
2181.13901	0.95520
2179.08520	0.95255
2177.03140	0.95117
2174.97760	0.95061
2172.92380	0.95036
2170.86999	0.95227
2168.81619	0.95291
2166.76239	0.94996
2164.70858	0.94820
2162.65478	0.94913
2160.60098	0.95014
2158.54717	0.95120
2156.49337	0.95243
2154.43957	0.95216
2152.38576	0.95078
2150.33196	0.95141
2148.27816	0.95313
2146.22435	0.95313
2144.17055	0.95244
2142.11675	0.95197
2140.06294	0.95110
2138.00914	0.94990
2135.95534	0.94874
2133.90153	0.94803
2131.84773	0.94852
2129.79393	0.95040
2127.74012	0.95224
2125.68632	0.95231
2123.63252	0.95142
2121.57871	0.95118
2119.52491	0.95139
2117.47111	0.95169
2115.41731	0.95093
2113.36350	0.94904
2111.30970	0.94840
2109.25590	0.94912
2107.20209	0.94920
2105.14829	0.94878
2103.09449	0.94966
2101.04068	0.95161
2098.98688	0.95222
2096.93308	0.95114
2094.87927	0.95047
2092.82547	0.95063
2090.77167	0.95076
2088.71786	0.95099
2086.66406	0.95150
2084.61026	0.95179
2082.55645	0.95171
2080.50265	0.95160
2078.44885	0.95107
2076.39504	0.95035
2074.34124	0.95023
2072.28744	0.95055
2070.23363	0.95115
2068.17983	0.95160
2066.12603	0.95115
2064.07223	0.95058
2062.01842	0.95154
2059.96462	0.95274
2057.91082	0.95228
2055.85701	0.95106
2053.80321	0.95023
2051.74941	0.95030
2049.69560	0.95153
2047.64180	0.95242
2045.58800	0.95214
2043.53419	0.95291
2041.48039	0.95430
2039.42659	0.95386
2037.37278	0.95195
2035.31898	0.95086
2033.26518	0.95096
2031.21137	0.95038
2029.15757	0.94999
2027.10377	0.95060
2025.04996	0.95034
2022.99616	0.94918
2020.94236	0.94894
2018.88855	0.95085
2016.83475	0.95375
2014.78095	0.95477
2012.72714	0.95398
2010.67334	0.95374
2008.61954	0.95439
2006.56574	0.95529
2004.51193	0.95540
2002.45813	0.95416
2000.40433	0.95364
1998.35052	0.95414
1996.29672	0.95351
1994.24292	0.95202
1992.18911	0.95191
1990.13531	0.95320
1988.08151	0.95251
1986.02770	0.95024
1983.97390	0.95039
1981.92010	0.95227
1979.86629	0.95293
1977.81249	0.95348
1975.75869	0.95546
1973.70488	0.95659
1971.65108	0.95492
1969.59728	0.95295
1967.54347	0.95367
1965.48967	0.95455
1963.43587	0.95348
1961.38206	0.95329
1959.32826	0.95487
1957.27446	0.95616
1955.22066	0.95649
1953.16685	0.95648
1951.11305	0.95608
1949.05925	0.95522
1947.00544	0.95516
1944.95164	0.95622
1942.89784	0.95651
1940.84403	0.95519
1938.79023	0.95346
1936.73643	0.95218
1934.68262	0.95185
1932.62882	0.95255
1930.57502	0.95388
1928.52121	0.95486
1926.46741	0.95448
1924.41361	0.95421
1922.35980	0.95509
1920.30600	0.95537
1918.25220	0.95434
1916.19839	0.95295
1914.14459	0.95292
1912.09079	0.95463
1910.03698	0.95594
1907.98318	0.95507
1905.92938	0.95350
1903.87557	0.95325
1901.82177	0.95373
1899.76797	0.95393
1897.71417	0.95429
1895.66036	0.95502
1893.60656	0.95543
1891.55276	0.95524
1889.49895	0.95477
1887.44515	0.95441
1885.39135	0.95410
1883.33754	0.95367
1881.28374	0.95335
1879.22994	0.95314
1877.17613	0.95345
1875.12233	0.95443
1873.06853	0.95491
1871.01472	0.95460
1868.96092	0.95409
1866.90712	0.95370
1864.85331	0.95356
1862.79951	0.95354
1860.74571	0.95329
1858.69190	0.95309
1856.63810	0.95349
1854.58430	0.95400
1852.53049	0.95443
1850.47669	0.95479
1848.42289	0.95485
1846.36908	0.95494
1844.31528	0.95507
1842.26148	0.95479
1840.20768	0.95462
1838.15387	0.95472
1836.10007	0.95483
1834.04627	0.95478
1831.99246	0.95462
1829.93866	0.95485
1827.88486	0.95528
1825.83105	0.95515
1823.77725	0.95440
1821.72345	0.95388
1819.66964	0.95415
1817.61584	0.95488
1815.56204	0.95546
1813.50823	0.95581
1811.45443	0.95594
1809.40063	0.95534
1807.34682	0.95438
1805.29302	0.95369
1803.23922	0.95353
1801.18541	0.95394
1799.13161	0.95407
1797.07781	0.95345
1795.02400	0.95313
1792.97020	0.95324
1790.91640	0.95277
1788.86260	0.95209
1786.80879	0.95193
1784.75499	0.95192
1782.70119	0.95148
1780.64738	0.95116
1778.59358	0.95112
1776.53978	0.95094
1774.48597	0.95042
1772.43217	0.94964
1770.37837	0.94905
1768.32456	0.94847
1766.27076	0.94739
1764.21696	0.94603
1762.16315	0.94423
1760.10935	0.94146
1758.05555	0.93750
1756.00174	0.93188
1753.94794	0.92561
1751.89414	0.91811
1749.84033	0.90776
1747.78653	0.89641
1745.73273	0.88589
1743.67892	0.87558
1741.62512	0.86501
1739.57132	0.85470
1737.51751	0.84750
1735.46371	0.84344
1733.40991	0.84073
1731.35611	0.84099
1729.30230	0.84368
1727.24850	0.84707
1725.19470	0.85073
1723.14089	0.85482
1721.08709	0.85865
1719.03329	0.86233
1716.97948	0.86598
1714.92568	0.86884
1712.87188	0.87151
1710.81807	0.87460
1708.76427	0.87821
1706.71047	0.88250
1704.65666	0.88701
1702.60286	0.89078
1700.54906	0.89444
1698.49525	0.89725
1696.44145	0.89889
1694.38765	0.90082
1692.33384	0.90275
1690.28004	0.90461
1688.22624	0.90604
1686.17243	0.90663
1684.11863	0.90674
1682.06483	0.90679
1680.01103	0.90685
1677.95722	0.90698
1675.90342	0.90684
1673.84962	0.90637
1671.79581	0.90595
1669.74201	0.90530
1667.68821	0.90447
1665.63440	0.90375
1663.58060	0.90274
1661.52680	0.90168
1659.47299	0.90120
1657.41919	0.90103
1655.36539	0.90087
1653.31158	0.89988
1651.25778	0.89846
1649.20398	0.89820
1647.15017	0.89788
1645.09637	0.89712
1643.04257	0.89680
1640.98876	0.89664
1638.93496	0.89640
1636.88116	0.89609
1634.82735	0.89564
1632.77355	0.89546
1630.71975	0.89553
1628.66594	0.89574
1626.61214	0.89607
1624.55834	0.89634
1622.50454	0.89687
1620.45073	0.89777
1618.39693	0.89842
1616.34313	0.89858
1614.28932	0.89865
1612.23552	0.89882
1610.18172	0.89910
1608.12791	0.89941
1606.07411	0.89951
1604.02031	0.89966
1601.96650	0.89987
1599.91270	0.89993
1597.85890	0.90008
1595.80509	0.90051
1593.75129	0.90103
1591.69749	0.90149
1589.64368	0.90202
1587.58988	0.90274
1585.53608	0.90343
1583.48227	0.90397
1581.42847	0.90469
1579.37467	0.90548
1577.32086	0.90639
1575.26706	0.90764
1573.21326	0.90861
1571.15945	0.90928
1569.10565	0.91003
1567.05185	0.91105
1564.99805	0.91203
1562.94424	0.91279
1560.89044	0.91349
1558.83664	0.91403
1556.78283	0.91427
1554.72903	0.91464
1552.67523	0.91485
1550.62142	0.91492
1548.56762	0.91524
1546.51382	0.91583
1544.46001	0.91638
1542.40621	0.91667
1540.35241	0.91736
1538.29860	0.91874
1536.24480	0.91970
1534.19100	0.92032
1532.13719	0.92070
1530.08339	0.92076
1528.02959	0.92066
1525.97578	0.92037
1523.92198	0.91983
1521.86818	0.91884
1519.81437	0.91725
1517.76057	0.91530
1515.70677	0.91284
1513.65297	0.91051
1511.59916	0.90880
1509.54536	0.90769
1507.49156	0.90699
1505.43775	0.90685
1503.38395	0.90747
1501.33015	0.90856
1499.27634	0.90995
1497.22254	0.91136
1495.16874	0.91248
1493.11493	0.91325
1491.06113	0.91371
1489.00733	0.91354
1486.95352	0.91284
1484.89972	0.91220
1482.84592	0.91160
1480.79211	0.91061
1478.73831	0.90887
1476.68451	0.90611
1474.63070	0.90190
1472.57690	0.89461
1470.52310	0.88521
1468.46929	0.87759
1466.41549	0.87213
1464.36169	0.86933
1462.30788	0.86918
1460.25408	0.87002
1458.20028	0.87065
1456.14648	0.87080
1454.09267	0.87155
1452.03887	0.87291
1449.98507	0.87457
1447.93126	0.87655
1445.87746	0.87861
1443.82366	0.88052
1441.76985	0.88224
1439.71605	0.88344
1437.66225	0.88394
1435.60844	0.88408
1433.55464	0.88446
1431.50084	0.88515
1429.44703	0.88605
1427.39323	0.88681
1425.33943	0.88711
1423.28562	0.88688
1421.23182	0.88635
1419.17802	0.88580
1417.12421	0.88560
1415.07041	0.88638
1413.01661	0.88798
1410.96280	0.88991
1408.90900	0.89193
1406.85520	0.89375
1404.80139	0.89494
1402.74759	0.89549
1400.69379	0.89573
1398.63999	0.89544
1396.58618	0.89437
1394.53238	0.89257
1392.47858	0.89073
1390.42477	0.88961
1388.37097	0.88952
1386.31717	0.89038
1384.26336	0.89117
1382.20956	0.89147
1380.15576	0.89145
1378.10195	0.89113
1376.04815	0.89067
1373.99435	0.89012
1371.94054	0.88970
1369.88674	0.88962
1367.83294	0.88966
1365.77913	0.88996
1363.72533	0.89069
1361.67153	0.89180
1359.61772	0.89304
1357.56392	0.89412
1355.51012	0.89512
1353.45631	0.89590
1351.40251	0.89635
1349.34871	0.89682
1347.29491	0.89739
1345.24110	0.89798
1343.18730	0.89870
1341.13350	0.89941
1339.07969	0.90007
1337.02589	0.90053
1334.97209	0.90030
1332.91828	0.89971
1330.86448	0.89935
1328.81068	0.89917
1326.75687	0.89872
1324.70307	0.89784
1322.64927	0.89668
1320.59546	0.89534
1318.54166	0.89418
1316.48786	0.89356
1314.43405	0.89349
1312.38025	0.89371
1310.32645	0.89378
1308.27264	0.89366
1306.21884	0.89340
1304.16504	0.89274
1302.11123	0.89181
1300.05743	0.89096
1298.00363	0.89034
1295.94982	0.88989
1293.89602	0.88929
1291.84222	0.88834
1289.78842	0.88704
1287.73461	0.88533
1285.68081	0.88312
1283.62701	0.88042
1281.57320	0.87748
1279.51940	0.87465
1277.46560	0.87205
1275.41179	0.86958
1273.35799	0.86720
1271.30419	0.86506
1269.25038	0.86316
1267.19658	0.86146
1265.14278	0.86012
1263.08897	0.85918
1261.03517	0.85850
1258.98137	0.85786
1256.92756	0.85721
1254.87376	0.85663
1252.81996	0.85605
1250.76615	0.85542
1248.71235	0.85444
1246.65855	0.85318
1244.60474	0.85235
1242.55094	0.85226
1240.49714	0.85232
1238.44334	0.85225
1236.38953	0.85232
1234.33573	0.85255
1232.28193	0.85271
1230.22812	0.85253
1228.17432	0.85212
1226.12052	0.85177
1224.06671	0.85156
1222.01291	0.85123
1219.95911	0.85071
1217.90530	0.85031
1215.85150	0.85007
1213.79770	0.84984
1211.74389	0.84937
1209.69009	0.84848
1207.63629	0.84738
1205.58248	0.84613
1203.52868	0.84452
1201.47488	0.84249
1199.42107	0.84013
1197.36727	0.83765
1195.31347	0.83509
1193.25966	0.83213
1191.20586	0.82856
1189.15206	0.82483
1187.09825	0.82128
1185.04445	0.81745
1182.99065	0.81307
1180.93685	0.80855
1178.88304	0.80386
1176.82924	0.79883
1174.77544	0.79374
1172.72163	0.78904
1170.66783	0.78481
1168.61403	0.78097
1166.56022	0.77770
1164.50642	0.77515
1162.45262	0.77360
1160.39881	0.77304
1158.34501	0.77313
1156.29121	0.77360
1154.23740	0.77405
1152.18360	0.77422
1150.12980	0.77425
1148.07599	0.77413
1146.02219	0.77399
1143.96839	0.77429
1141.91458	0.77521
1139.86078	0.77653
1137.80698	0.77776
1135.75317	0.77861
1133.69937	0.77907
1131.64557	0.77895
1129.59176	0.77807
1127.53796	0.77659
1125.48416	0.77465
1123.43036	0.77199
1121.37655	0.76859
1119.32275	0.76461
1117.26895	0.76011
1115.21514	0.75521
1113.16134	0.75006
1111.10754	0.74494
1109.05373	0.74028
1106.99993	0.73602
1104.94613	0.73231
1102.89232	0.72930
1100.83852	0.72652
1098.78472	0.72384
1096.73091	0.72148
1094.67711	0.71916
1092.62331	0.71653
1090.56950	0.71427
1088.51570	0.71307
1086.46190	0.71241
1084.40809	0.71143
1082.35429	0.70992
1080.30049	0.70808
1078.24668	0.70622
1076.19288	0.70446
1074.13908	0.70235
1072.08528	0.69977
1070.03147	0.69697
1067.97767	0.69403
1065.92387	0.69079
1063.87006	0.68714
1061.81626	0.68326
1059.76246	0.67906
1057.70865	0.67457
1055.65485	0.67014
1053.60105	0.66547
1051.54724	0.65980
1049.49344	0.65325
1047.43964	0.64616
1045.38583	0.63823
1043.33203	0.62945
1041.27823	0.62033
1039.22442	0.61131
1037.17062	0.60285
1035.11682	0.59526
1033.06301	0.58852
1031.00921	0.58299
1028.95541	0.57901
1026.90160	0.57608
1024.84780	0.57350
1022.79400	0.57108
1020.74019	0.56892
1018.68639	0.56688
1016.63259	0.56451
1014.57879	0.56180
1012.52498	0.55889
1010.47118	0.55592
1008.41738	0.55331
1006.36357	0.55153
1004.30977	0.55090
1002.25597	0.55128
1000.20216	0.55222
998.14836	0.55393
996.09456	0.55657
994.04075	0.55949
991.98695	0.56239
989.93315	0.56572
987.87934	0.56992
985.82554	0.57520
983.77174	0.58140
981.71793	0.58800
979.66413	0.59471
977.61033	0.60217
975.55652	0.61099
973.50272	0.62067
971.44892	0.63053
969.39511	0.64041
967.34131	0.65014
965.28751	0.65920
963.23371	0.66780
961.17990	0.67627
959.12610	0.68389
957.07230	0.69055
955.01849	0.69691
952.96469	0.70289
950.91089	0.70837
948.85708	0.71377
946.80328	0.71887
944.74948	0.72331
942.69567	0.72717
940.64187	0.73059
938.58807	0.73427
936.53426	0.73851
934.48046	0.74293
932.42666	0.74753
930.37285	0.75171
928.31905	0.75453
926.26525	0.75662
924.21144	0.75881
922.15764	0.76077
920.10384	0.76211
918.05003	0.76276
915.99623	0.76309
913.94243	0.76360
911.88862	0.76461
909.83482	0.76692
907.78102	0.77106
905.72722	0.77621
903.67341	0.78146
901.61961	0.78717
899.56581	0.79339
897.51200	0.79917
895.45820	0.80404
893.40440	0.80796
891.35059	0.81085
889.29679	0.81328
887.24299	0.81580
885.18918	0.81784
883.13538	0.81898
881.08158	0.81939
879.02777	0.81926
876.97397	0.81956
874.92017	0.82152
872.86636	0.82479
870.81256	0.82806
868.75876	0.83103
866.70495	0.83359
864.65115	0.83510
862.59735	0.83596
860.54354	0.83727
858.48974	0.83908
856.43594	0.84112
854.38213	0.84377
852.32833	0.84653
850.27453	0.84814
848.22073	0.84893
846.16692	0.84977
844.11312	0.85069
842.05932	0.85133
840.00551	0.85112
837.95171	0.84984
835.89791	0.84825
833.84410	0.84724
831.79030	0.84624
829.73650	0.84456
827.68269	0.84300
825.62889	0.84271
823.57509	0.84352
821.52128	0.84418
819.46748	0.84464
817.41368	0.84524
815.35987	0.84548
813.30607	0.84488
811.25227	0.84367
809.19846	0.84131
807.14466	0.83677
805.09086	0.83107
803.03705	0.82613
800.98325	0.82246
798.92945	0.82026
796.87565	0.82021
794.82184	0.82163
792.76804	0.82343
790.71424	0.82523
788.66043	0.82628
786.60663	0.82590
784.55283	0.82428
782.49902	0.82186
780.44522	0.81928
778.39142	0.81825
776.33761	0.81950
774.28381	0.82190
772.23001	0.82426
770.17620	0.82533
768.12240	0.82472
766.06860	0.82337
764.01479	0.82184
761.96099	0.82096
759.90719	0.82090
757.85338	0.82050
755.79958	0.81975
753.74578	0.81894
751.69197	0.81810
749.63817	0.81794
747.58437	0.81877
745.53056	0.81994
743.47676	0.82102
741.42296	0.82250
739.36916	0.82399
737.31535	0.82425
735.26155	0.82337
733.20775	0.82184
731.15394	0.81927
729.10014	0.81563
727.04634	0.81189
724.99253	0.80953
722.93873	0.80902
720.88493	0.80982
718.83112	0.81206
716.77732	0.81511
714.72352	0.81723
712.66971	0.81850
710.61591	0.81984
708.56211	0.82057
706.50830	0.82077
704.45450	0.82041
702.40070	0.81824
700.34689	0.81526
698.29309	0.81368
696.23929	0.81319
694.18548	0.81232
692.13168	0.81143
690.07788	0.81145
688.02408	0.81190
685.97027	0.81189
683.91647	0.81221
681.86267	0.81289
679.80886	0.81266
677.75506	0.81174
675.70126	0.81083
673.64745	0.81062
671.59365	0.81110
669.53985	0.81156
667.48604	0.81101
665.43224	0.80947
663.37844	0.80798
661.32463	0.80644
659.27083	0.80435
657.21703	0.80115
655.16322	0.79783
653.10942	0.79559
651.05562	0.79395
649.00181	0.79334
646.94801	0.79386
644.89421	0.79365
642.84040	0.79336
640.78660	0.79477
638.73280	0.79647
636.67899	0.79718
634.62519	0.79762
632.57139	0.79763
630.51759	0.79692
628.46378	0.79682
626.40998	0.79820
624.35618	0.79930
622.30237	0.79829
620.24857	0.79617
618.19477	0.79377
616.14096	0.79063
614.08716	0.78718
612.03336	0.78409
609.97955	0.78111
607.92575	0.77802
605.87195	0.77493
603.81814	0.77179
601.76434	0.76807
599.71054	0.76456
597.65673	0.76263
595.60293	0.76052
593.54913	0.75695
591.49532	0.75404
589.44152	0.75318
587.38772	0.75269
585.33391	0.75186
583.28011	0.75116
581.22631	0.75007
579.17250	0.74859
577.11870	0.74638
575.06490	0.74306
573.01110	0.73983
570.95729	0.73764
568.90349	0.73530
566.84969	0.73091
564.79588	0.72505
562.74208	0.72002
560.68828	0.71593
558.63447	0.71136
556.58067	0.70706
554.52687	0.70258
552.47306	0.69595
550.41926	0.68852
548.36546	0.68280
546.31165	0.67783
544.25785	0.67027
542.20405	0.66061
540.15024	0.65197
538.09644	0.64428
536.04264	0.63674
533.98883	0.63125
531.93503	0.62780
529.88123	0.62468
527.82742	0.62227
525.77362	0.62195
523.71982	0.62380
521.66602	0.62594
519.61221	0.62784
517.55841	0.63117
515.50461	0.63632
513.45080	0.64109
511.39700	0.64438
509.34320	0.64716
507.28939	0.64956
505.23559	0.65160
503.18179	0.65445
501.12798	0.65739
499.07418	0.65858
497.02038	0.65843
494.96657	0.65632
492.91277	0.65042
490.85897	0.64150
488.80516	0.63130
486.75136	0.62043
484.69756	0.60933
482.64375	0.59632
480.58995	0.58046
478.53615	0.56438
476.48234	0.54913
474.42854	0.53564
472.37474	0.52371
470.32093	0.51283
468.26713	0.50532
466.21333	0.50191
464.15953	0.50252
462.10572	0.50636
460.05192	0.51182
457.99812	0.52047
455.94431	0.53139
453.89051	0.53843
451.83671	0.54384
449.78290	0.55170
447.72910	0.55796
445.67530	0.56114
443.62149	0.56404
441.56769	0.56472
439.51389	0.56098
437.46008	0.55526
435.40628	0.55114
433.35248	0.54900
431.29867	0.54690
429.24487	0.54420
427.19107	0.54271
425.13726	0.54544
423.08346	0.55064
421.02966	0.55568
418.97585	0.56018
416.92205	0.56010
414.86825	0.56091
412.81445	0.56838
410.76064	0.57807
408.70684	0.58613
406.65304	0.59599
404.59923	0.60539
402.54543	0.60789
400.49163	0.60349
398.43782	0.59446
