3996.70104	0.94831
3994.64724	0.94894
3992.59344	0.94925
3990.53964	0.94914
3988.48583	0.94905
3986.43203	0.94908
3984.37823	0.94931
3982.32442	0.94988
3980.27062	0.94994
3978.21682	0.94919
3976.16301	0.94869
3974.10921	0.94895
3972.05541	0.94960
3970.00160	0.95000
3967.94780	0.94961
3965.89400	0.94883
3963.84019	0.94840
3961.78639	0.94854
3959.73259	0.94900
3957.67878	0.94922
3955.62498	0.94903
3953.57118	0.94876
3951.51737	0.94848
3949.46357	0.94836
3947.40977	0.94884
3945.35596	0.94950
3943.30216	0.94953
3941.24836	0.94939
3939.19455	0.94981
3937.14075	0.94997
3935.08695	0.94947
3933.03315	0.94917
3930.97934	0.94951
3928.92554	0.95005
3926.87174	0.95025
3924.81793	0.94966
3922.76413	0.94895
3920.71033	0.94912
3918.65652	0.94955
3916.60272	0.94985
3914.54892	0.95063
3912.49511	0.95122
3910.44131	0.95088
3908.38751	0.95048
3906.33370	0.95058
3904.27990	0.95048
3902.22610	0.95002
3900.17229	0.95013
3898.11849	0.95060
3896.06469	0.95066
3894.01088	0.95067
3891.95708	0.95110
3889.90328	0.95105
3887.84947	0.95037
3885.79567	0.95010
3883.74187	0.94989
3881.68807	0.94945
3879.63426	0.94979
3877.58046	0.95030
3875.52666	0.95040
3873.47285	0.95062
3871.41905	0.95054
3869.36525	0.94991
3867.31144	0.94979
3865.25764	0.95039
3863.20384	0.95092
3861.15003	0.95090
3859.09623	0.95083
3857.04243	0.95119
3854.98862	0.95223
3852.93482	0.95309
3850.88102	0.95287
3848.82721	0.95254
3846.77341	0.95223
3844.71961	0.95236
3842.66580	0.95275
3840.61200	0.95235
3838.55820	0.95172
3836.50439	0.95159
3834.45059	0.95168
3832.39679	0.95176
3830.34298	0.95154
3828.28918	0.95126
3826.23538	0.95142
3824.18158	0.95169
3822.12777	0.95173
3820.07397	0.95189
3818.02017	0.95206
3815.96636	0.95201
3813.91256	0.95191
3811.85876	0.95200
3809.80495	0.95206
3807.75115	0.95207
3805.69735	0.95232
3803.64354	0.95253
3801.58974	0.95300
3799.53594	0.95349
3797.48213	0.95332
3795.42833	0.95324
3793.37453	0.95345
3791.32072	0.95327
3789.26692	0.95295
3787.21312	0.95286
3785.15931	0.95285
3783.10551	0.95284
3781.05171	0.95293
3778.99790	0.95330
3776.94410	0.95344
3774.89030	0.95301
3772.83650	0.95284
3770.78269	0.95353
3768.72889	0.95443
3766.67509	0.95485
3764.62128	0.95470
3762.56748	0.95415
3760.51368	0.95365
3758.45987	0.95335
3756.40607	0.95324
3754.35227	0.95320
3752.29846	0.95311
3750.24466	0.95345
3748.19086	0.95483
3746.13705	0.95648
3744.08325	0.95703
3742.02945	0.95656
3739.97564	0.95599
3737.92184	0.95426
3735.86804	0.95204
3733.81423	0.95283
3731.76043	0.95483
3729.70663	0.95514
3727.65282	0.95485
3725.59902	0.95492
3723.54522	0.95463
3721.49141	0.95394
3719.43761	0.95392
3717.38381	0.95442
3715.33001	0.95423
3713.27620	0.95310
3711.22240	0.95230
3709.16860	0.95247
3707.11479	0.95264
3705.06099	0.95215
3703.00719	0.95056
3700.95338	0.94827
3698.89958	0.94642
3696.84578	0.94527
3694.79197	0.94496
3692.73817	0.94561
3690.68437	0.94680
3688.63056	0.94768
3686.57676	0.94790
3684.52296	0.94817
3682.46915	0.94840
3680.41535	0.94826
3678.36155	0.94829
3676.30774	0.94876
3674.25394	0.94858
3672.20014	0.94776
3670.14633	0.94700
3668.09253	0.94641
3666.03873	0.94558
3663.98492	0.94403
3661.93112	0.94249
3659.87732	0.94188
3657.82352	0.94167
3655.76971	0.94080
3653.71591	0.93950
3651.66211	0.93860
3649.60830	0.93789
3647.55450	0.93674
3645.50070	0.93591
3643.44689	0.93570
3641.39309	0.93542
3639.33929	0.93464
3637.28548	0.93360
3635.23168	0.93260
3633.17788	0.93134
3631.12407	0.92978
3629.07027	0.92871
3627.01647	0.92820
3624.96266	0.92758
3622.90886	0.92697
3620.85506	0.92640
3618.80125	0.92580
3616.74745	0.92529
3614.69365	0.92499
3612.63984	0.92486
3610.58604	0.92521
3608.53224	0.92580
3606.47844	0.92543
3604.42463	0.92449
3602.37083	0.92412
3600.31703	0.92452
3598.26322	0.92464
3596.20942	0.92385
3594.15562	0.92292
3592.10181	0.92236
3590.04801	0.92220
3587.99421	0.92224
3585.94040	0.92186
3583.88660	0.92094
3581.83280	0.91975
3579.77899	0.91867
3577.72519	0.91848
3575.67139	0.91898
3573.61758	0.91900
3571.56378	0.91818
3569.50998	0.91695
3567.45617	0.91559
3565.40237	0.91495
3563.34857	0.91474
3561.29476	0.91387
3559.24096	0.91269
3557.18716	0.91205
3555.13335	0.91152
3553.07955	0.91041
3551.02575	0.90915
3548.97195	0.90826
3546.91814	0.90774
3544.86434	0.90734
3542.81054	0.90700
3540.75673	0.90675
3538.70293	0.90623
3536.64913	0.90554
3534.59532	0.90493
3532.54152	0.90437
3530.48772	0.90401
3528.43391	0.90384
3526.38011	0.90323
3524.32631	0.90188
3522.27250	0.90100
3520.21870	0.90145
3518.16490	0.90194
3516.11109	0.90126
3514.05729	0.89997
3512.00349	0.89916
3509.94968	0.89879
3507.89588	0.89806
3505.84208	0.89708
3503.78827	0.89644
3501.73447	0.89639
3499.68067	0.89667
3497.62687	0.89647
3495.57306	0.89579
3493.51926	0.89546
3491.46546	0.89548
3489.41165	0.89514
3487.35785	0.89433
3485.30405	0.89362
3483.25024	0.89306
3481.19644	0.89212
3479.14264	0.89114
3477.08883	0.89048
3475.03503	0.88983
3472.98123	0.88905
3470.92742	0.88858
3468.87362	0.88847
3466.81982	0.88810
3464.76601	0.88730
3462.71221	0.88662
3460.65841	0.88636
3458.60460	0.88607
3456.55080	0.88535
3454.49700	0.88424
3452.44319	0.88288
3450.38939	0.88172
3448.33559	0.88094
3446.28178	0.88033
3444.22798	0.87998
3442.17418	0.87944
3440.12038	0.87822
3438.06657	0.87734
3436.01277	0.87710
3433.95897	0.87675
3431.90516	0.87634
3429.85136	0.87575
3427.79756	0.87498
3425.74375	0.87463
3423.68995	0.87431
3421.63615	0.87333
3419.58234	0.87191
3417.52854	0.87076
3415.47474	0.87044
3413.42093	0.87044
3411.36713	0.86982
3409.31333	0.86872
3407.25952	0.86763
3405.20572	0.86684
3403.15192	0.86636
3401.09811	0.86617
3399.04431	0.86617
3396.99051	0.86584
3394.93670	0.86543
3392.88290	0.86532
3390.82910	0.86507
3388.77529	0.86452
3386.72149	0.86405
3384.66769	0.86376
3382.61389	0.86346
3380.56008	0.86289
3378.50628	0.86222
3376.45248	0.86224
3374.39867	0.86260
3372.34487	0.86215
3370.29107	0.86127
3368.23726	0.86082
3366.18346	0.86065
3364.12966	0.86052
3362.07585	0.86047
3360.02205	0.86030
3357.96825	0.85997
3355.91444	0.85967
3353.86064	0.85928
3351.80684	0.85903
3349.75303	0.85931
3347.69923	0.85955
3345.64543	0.85903
3343.59162	0.85817
3341.53782	0.85762
3339.48402	0.85735
3337.43021	0.85735
3335.37641	0.85795
3333.32261	0.85874
3331.26881	0.85892
3329.21500	0.85859
3327.16120	0.85826
3325.10740	0.85802
3323.05359	0.85809
3320.99979	0.85866
3318.94599	0.85930
3316.89218	0.85940
3314.83838	0.85896
3312.78458	0.85862
3310.73077	0.85879
3308.67697	0.85910
3306.62317	0.85908
3304.56936	0.85875
3302.51556	0.85884
3300.46176	0.85941
3298.40795	0.85957
3296.35415	0.85917
3294.30035	0.85889
3292.24654	0.85907
3290.19274	0.85936
3288.13894	0.85950
3286.08513	0.85978
3284.03133	0.86004
3281.97753	0.86009
3279.92372	0.86024
3277.86992	0.86043
3275.81612	0.86041
3273.76232	0.86049
3271.70851	0.86119
3269.65471	0.86216
3267.60091	0.86257
3265.54710	0.86263
3263.49330	0.86291
3261.43950	0.86327
3259.38569	0.86335
3257.33189	0.86335
3255.27809	0.86357
3253.22428	0.86405
3251.17048	0.86462
3249.11668	0.86491
3247.06287	0.86490
3245.00907	0.86511
3242.95527	0.86575
3240.90146	0.86640
3238.84766	0.86676
3236.79386	0.86692
3234.74005	0.86737
3232.68625	0.86798
3230.63245	0.86838
3228.57864	0.86902
3226.52484	0.86971
3224.47104	0.87022
3222.41724	0.87105
3220.36343	0.87205
3218.30963	0.87260
3216.25583	0.87276
3214.20202	0.87293
3212.14822	0.87306
3210.09442	0.87317
3208.04061	0.87348
3205.98681	0.87403
3203.93301	0.87465
3201.87920	0.87516
3199.82540	0.87542
3197.77160	0.87552
3195.71779	0.87599
3193.66399	0.87686
3191.61019	0.87751
3189.55638	0.87810
3187.50258	0.87913
3185.44878	0.87996
3183.39497	0.88005
3181.34117	0.88010
3179.28737	0.88037
3177.23356	0.88038
3175.17976	0.88055
3173.12596	0.88121
3171.07215	0.88198
3169.01835	0.88295
3166.96455	0.88413
3164.91075	0.88485
3162.85694	0.88517
3160.80314	0.88590
3158.74934	0.88686
3156.69553	0.88739
3154.64173	0.88771
3152.58793	0.88821
3150.53412	0.88873
3148.48032	0.88903
3146.42652	0.88945
3144.37271	0.89010
3142.31891	0.89051
3140.26511	0.89067
3138.21130	0.89105
3136.15750	0.89176
3134.10370	0.89212
3132.04989	0.89204
3129.99609	0.89221
3127.94229	0.89299
3125.88848	0.89428
3123.83468	0.89516
3121.78088	0.89529
3119.72707	0.89564
3117.67327	0.89624
3115.61947	0.89632
3113.56566	0.89658
3111.51186	0.89742
3109.45806	0.89811
3107.40426	0.89864
3105.35045	0.89933
3103.29665	0.89991
3101.24285	0.90014
3099.18904	0.90030
3097.13524	0.90068
3095.08144	0.90098
3093.02763	0.90108
3090.97383	0.90140
3088.92003	0.90191
3086.86622	0.90226
3084.81242	0.90242
3082.75862	0.90251
3080.70481	0.90258
3078.65101	0.90282
3076.59721	0.90328
3074.54340	0.90375
3072.48960	0.90406
3070.43580	0.90438
3068.38199	0.90528
3066.32819	0.90648
3064.27439	0.90674
3062.22058	0.90626
3060.16678	0.90648
3058.11298	0.90742
3056.05918	0.90812
3054.00537	0.90831
3051.95157	0.90835
3049.89777	0.90861
3047.84396	0.90895
3045.79016	0.90912
3043.73636	0.90940
3041.68255	0.90986
3039.62875	0.91044
3037.57495	0.91101
3035.52114	0.91123
3033.46734	0.91133
3031.41354	0.91171
3029.35973	0.91211
3027.30593	0.91249
3025.25213	0.91298
3023.19832	0.91350
3021.14452	0.91410
3019.09072	0.91446
3017.03691	0.91445
3014.98311	0.91470
3012.92931	0.91512
3010.87550	0.91527
3008.82170	0.91543
3006.76790	0.91552
3004.71409	0.91549
3002.66029	0.91577
3000.60649	0.91633
2998.55269	0.91659
2996.49888	0.91639
2994.44508	0.91628
2992.39128	0.91648
2990.33747	0.91655
2988.28367	0.91654
2986.22987	0.91665
2984.17606	0.91666
2982.12226	0.91662
2980.06846	0.91666
2978.01465	0.91658
2975.96085	0.91645
2973.90705	0.91630
2971.85324	0.91597
2969.79944	0.91558
2967.74564	0.91528
2965.69183	0.91510
2963.63803	0.91503
2961.58423	0.91478
2959.53042	0.91434
2957.47662	0.91429
2955.42282	0.91451
2953.36901	0.91460
2951.31521	0.91447
2949.26141	0.91409
2947.20761	0.91362
2945.15380	0.91305
2943.10000	0.91254
2941.04620	0.91233
2938.99239	0.91213
2936.93859	0.91208
2934.88479	0.91247
2932.83098	0.91284
2930.77718	0.91289
2928.72338	0.91291
2926.66957	0.91311
2924.61577	0.91334
2922.56197	0.91344
2920.50816	0.91329
2918.45436	0.91295
2916.40056	0.91265
2914.34675	0.91260
2912.29295	0.91254
2910.23915	0.91219
2908.18534	0.91196
2906.13154	0.91214
2904.07774	0.91219
2902.02393	0.91201
2899.97013	0.91199
2897.91633	0.91216
2895.86252	0.91224
2893.80872	0.91231
2891.75492	0.91258
2889.70112	0.91283
2887.64731	0.91288
2885.59351	0.91315
2883.53971	0.91363
2881.48590	0.91373
2879.43210	0.91363
2877.37830	0.91388
2875.32449	0.91413
2873.27069	0.91412
2871.21689	0.91423
2869.16308	0.91448
2867.10928	0.91464
2865.05548	0.91495
2863.00167	0.91551
2860.94787	0.91620
2858.89407	0.91690
2856.84026	0.91746
2854.78646	0.91790
2852.73266	0.91826
2850.67885	0.91806
2848.62505	0.91751
2846.57125	0.91734
2844.51744	0.91756
2842.46364	0.91779
2840.40984	0.91784
2838.35603	0.91806
2836.30223	0.91861
2834.24843	0.91913
2832.19463	0.91954
2830.14082	0.92011
2828.08702	0.92082
2826.03322	0.92148
2823.97941	0.92203
2821.92561	0.92229
2819.87181	0.92249
2817.81800	0.92283
2815.76420	0.92318
2813.71040	0.92367
2811.65659	0.92411
2809.60279	0.92417
2807.54899	0.92421
2805.49518	0.92454
2803.44138	0.92486
2801.38758	0.92515
2799.33377	0.92562
2797.27997	0.92610
2795.22617	0.92638
2793.17236	0.92628
2791.11856	0.92614
2789.06476	0.92645
2787.01095	0.92690
2784.95715	0.92685
2782.90335	0.92649
2780.84955	0.92655
2778.79574	0.92695
2776.74194	0.92723
2774.68814	0.92742
2772.63433	0.92749
2770.58053	0.92760
2768.52673	0.92790
2766.47292	0.92803
2764.41912	0.92806
2762.36532	0.92828
2760.31151	0.92853
2758.25771	0.92871
2756.20391	0.92860
2754.15010	0.92827
2752.09630	0.92822
2750.04250	0.92843
2747.98869	0.92870
2745.93489	0.92901
2743.88109	0.92920
2741.82728	0.92923
2739.77348	0.92928
2737.71968	0.92954
2735.66587	0.92980
2733.61207	0.92974
2731.55827	0.92954
2729.50446	0.92959
2727.45066	0.92995
2725.39686	0.93026
2723.34306	0.93031
2721.28925	0.93037
2719.23545	0.93048
2717.18165	0.93047
2715.12784	0.93047
2713.07404	0.93074
2711.02024	0.93093
2708.96643	0.93083
2706.91263	0.93088
2704.85883	0.93116
2702.80502	0.93129
2700.75122	0.93117
2698.69742	0.93117
2696.64361	0.93134
2694.58981	0.93138
2692.53601	0.93139
2690.48220	0.93141
2688.42840	0.93147
2686.37460	0.93175
2684.32079	0.93188
2682.26699	0.93183
2680.21319	0.93203
2678.15938	0.93217
2676.10558	0.93202
2674.05178	0.93210
2671.99797	0.93239
2669.94417	0.93243
2667.89037	0.93225
2665.83657	0.93224
2663.78276	0.93237
2661.72896	0.93232
2659.67516	0.93243
2657.62135	0.93283
2655.56755	0.93306
2653.51375	0.93294
2651.45994	0.93289
2649.40614	0.93315
2647.35234	0.93349
2645.29853	0.93373
2643.24473	0.93361
2641.19093	0.93340
2639.13712	0.93364
2637.08332	0.93405
2635.02952	0.93437
2632.97571	0.93470
2630.92191	0.93476
2628.86811	0.93436
2626.81430	0.93396
2624.76050	0.93413
2622.70670	0.93473
2620.65289	0.93519
2618.59909	0.93532
2616.54529	0.93533
2614.49149	0.93563
2612.43768	0.93606
2610.38388	0.93607
2608.33008	0.93601
2606.27627	0.93599
2604.22247	0.93549
2602.16867	0.93505
2600.11486	0.93533
2598.06106	0.93582
2596.00726	0.93599
2593.95345	0.93599
2591.89965	0.93600
2589.84585	0.93606
2587.79204	0.93622
2585.73824	0.93634
2583.68444	0.93645
2581.63063	0.93676
2579.57683	0.93697
2577.52303	0.93689
2575.46922	0.93694
2573.41542	0.93721
2571.36162	0.93740
2569.30781	0.93723
2567.25401	0.93694
2565.20021	0.93701
2563.14640	0.93743
2561.09260	0.93808
2559.03880	0.93843
2556.98500	0.93795
2554.93119	0.93735
2552.87739	0.93754
2550.82359	0.93796
2548.76978	0.93803
2546.71598	0.93850
2544.66218	0.93907
2542.60837	0.93908
2540.55457	0.93905
2538.50077	0.93902
2536.44696	0.93897
2534.39316	0.93916
2532.33936	0.93942
2530.28555	0.93945
2528.23175	0.93896
2526.17795	0.93844
2524.12414	0.93886
2522.07034	0.93978
2520.01654	0.94013
2517.96273	0.93977
2515.90893	0.93957
2513.85513	0.94041
2511.80132	0.94125
2509.74752	0.94076
2507.69372	0.93977
2505.63992	0.93961
2503.58611	0.94005
2501.53231	0.94025
2499.47851	0.93974
2497.42470	0.93872
2495.37090	0.93829
2493.31710	0.93900
2491.26329	0.93985
2489.20949	0.94014
2487.15569	0.94052
2485.10188	0.94126
2483.04808	0.94148
2480.99428	0.94058
2478.94047	0.93950
2476.88667	0.93959
2474.83287	0.94025
2472.77906	0.94029
2470.72526	0.93978
2468.67146	0.93936
2466.61765	0.93933
2464.56385	0.93964
2462.51005	0.94017
2460.45624	0.94053
2458.40244	0.94046
2456.34864	0.94040
2454.29483	0.94046
2452.24103	0.94012
2450.18723	0.93966
2448.13343	0.93978
2446.07962	0.94030
2444.02582	0.94067
2441.97202	0.94122
2439.91821	0.94200
2437.86441	0.94230
2435.81061	0.94221
2433.75680	0.94197
2431.70300	0.94153
2429.64920	0.94109
2427.59539	0.94087
2425.54159	0.94101
2423.48779	0.94169
2421.43398	0.94241
2419.38018	0.94250
2417.32638	0.94222
2415.27257	0.94181
2413.21877	0.94150
2411.16497	0.94151
2409.11116	0.94171
2407.05736	0.94227
2405.00356	0.94263
2402.94975	0.94224
2400.89595	0.94173
2398.84215	0.94149
2396.78834	0.94135
2394.73454	0.94163
2392.68074	0.94227
2390.62694	0.94226
2388.57313	0.94177
2386.51933	0.94190
2384.46553	0.94224
2382.41172	0.94209
2380.35792	0.94183
2378.30412	0.94196
2376.25031	0.94250
2374.19651	0.94316
2372.14271	0.94339
2370.08890	0.94292
2368.03510	0.94285
2365.98130	0.94329
2363.92749	0.94264
2361.87369	0.94070
2359.81989	0.93869
2357.76608	0.93835
2355.71228	0.93998
2353.65848	0.94114
2351.60467	0.94093
2349.55087	0.94062
2347.49707	0.94064
2345.44326	0.94110
2343.38946	0.94188
2341.33566	0.94168
2339.28186	0.94073
2337.22805	0.94061
2335.17425	0.94126
2333.12045	0.94188
2331.06664	0.94241
2329.01284	0.94249
2326.95904	0.94159
2324.90523	0.94064
2322.85143	0.94076
2320.79763	0.94160
2318.74382	0.94208
2316.69002	0.94196
2314.63622	0.94169
2312.58241	0.94143
2310.52861	0.94148
2308.47481	0.94246
2306.42100	0.94370
2304.36720	0.94403
2302.31340	0.94359
2300.25959	0.94309
2298.20579	0.94279
2296.15199	0.94269
2294.09818	0.94269
2292.04438	0.94286
2289.99058	0.94343
2287.93677	0.94389
2285.88297	0.94357
2283.82917	0.94310
2281.77537	0.94303
2279.72156	0.94307
2277.66776	0.94321
2275.61396	0.94317
2273.56015	0.94291
2271.50635	0.94328
2269.45255	0.94387
2267.39874	0.94407
2265.34494	0.94440
2263.29114	0.94414
2261.23733	0.94343
2259.18353	0.94376
2257.12973	0.94447
2255.07592	0.94506
2253.02212	0.94610
2250.96832	0.94672
2248.91451	0.94647
2246.86071	0.94568
2244.80691	0.94474
2242.75310	0.94450
2240.69930	0.94469
2238.64550	0.94483
2236.59169	0.94499
2234.53789	0.94466
2232.48409	0.94435
2230.43029	0.94541
2228.37648	0.94713
2226.32268	0.94798
2224.26888	0.94783
2222.21507	0.94685
2220.16127	0.94590
2218.10747	0.94572
2216.05366	0.94569
2213.99986	0.94570
2211.94606	0.94644
2209.89225	0.94723
2207.83845	0.94647
2205.78465	0.94556
2203.73084	0.94606
2201.67704	0.94623
2199.62324	0.94596
2197.56943	0.94576
2195.51563	0.94577
2193.46183	0.94667
2191.40802	0.94742
2189.35422	0.94686
2187.30042	0.94476
2185.24661	0.94318
2183.19281	0.94510
2181.13901	0.94898
2179.08520	0.95006
2177.03140	0.94761
2174.97760	0.94578
2172.92380	0.94608
2170.86999	0.94616
2168.81619	0.94502
2166.76239	0.94392
2164.70858	0.94394
2162.65478	0.94482
2160.60098	0.94576
2158.54717	0.94686
2156.49337	0.94895
2154.43957	0.95065
2152.38576	0.95013
2150.33196	0.94913
2148.27816	0.94893
2146.22435	0.94763
2144.17055	0.94516
2142.11675	0.94483
2140.06294	0.94811
2138.00914	0.95110
2135.95534	0.95123
2133.90153	0.95043
2131.84773	0.94929
2129.79393	0.94774
2127.74012	0.94687
2125.68632	0.94696
2123.63252	0.94707
2121.57871	0.94696
2119.52491	0.94714
2117.47111	0.94685
2115.41731	0.94596
2113.36350	0.94585
2111.30970	0.94588
2109.25590	0.94529
2107.20209	0.94558
2105.14829	0.94687
2103.09449	0.94800
2101.04068	0.94791
2098.98688	0.94684
2096.93308	0.94672
2094.87927	0.94726
2092.82547	0.94750
2090.77167	0.94714
2088.71786	0.94597
2086.66406	0.94561
2084.61026	0.94669
2082.55645	0.94689
2080.50265	0.94584
2078.44885	0.94609
2076.39504	0.94693
2074.34124	0.94645
2072.28744	0.94675
2070.23363	0.94839
2068.17983	0.94839
2066.12603	0.94661
2064.07223	0.94531
2062.01842	0.94534
2059.96462	0.94635
2057.91082	0.94753
2055.85701	0.94834
2053.80321	0.94794
2051.74941	0.94591
2049.69560	0.94434
2047.64180	0.94483
2045.58800	0.94571
2043.53419	0.94641
2041.48039	0.94814
2039.42659	0.95008
2037.37278	0.94979
2035.31898	0.94749
2033.26518	0.94576
2031.21137	0.94608
2029.15757	0.94882
2027.10377	0.95184
2025.04996	0.95205
2022.99616	0.95029
2020.94236	0.95052
2018.88855	0.95196
2016.83475	0.95102
2014.78095	0.95041
2012.72714	0.95186
2010.67334	0.95182
2008.61954	0.94995
2006.56574	0.94942
2004.51193	0.95015
2002.45813	0.95028
2000.40433	0.95009
1998.35052	0.95096
1996.29672	0.95127
1994.24292	0.94928
1992.18911	0.94858
1990.13531	0.95103
1988.08151	0.95408
1986.02770	0.95553
1983.97390	0.95442
1981.92010	0.95192
1979.86629	0.94976
1977.81249	0.94916
1975.75869	0.95017
1973.70488	0.95175
1971.65108	0.95332
1969.59728	0.95377
1967.54347	0.95348
1965.48967	0.95413
1963.43587	0.95481
1961.38206	0.95473
1959.32826	0.95538
1957.27446	0.95672
1955.22066	0.95688
1953.16685	0.95550
1951.11305	0.95383
1949.05925	0.95270
1947.00544	0.95160
1944.95164	0.95053
1942.89784	0.95133
1940.84403	0.95424
1938.79023	0.95578
1936.73643	0.95503
1934.68262	0.95425
1932.62882	0.95354
1930.57502	0.95267
1928.52121	0.95316
1926.46741	0.95459
1924.41361	0.95510
1922.35980	0.95429
1920.30600	0.95365
1918.25220	0.95356
1916.19839	0.95300
1914.14459	0.95271
1912.09079	0.95329
1910.03698	0.95382
1907.98318	0.95385
1905.92938	0.95357
1903.87557	0.95302
1901.82177	0.95253
1899.76797	0.95242
1897.71417	0.95206
1895.66036	0.95094
1893.60656	0.95033
1891.55276	0.95092
1889.49895	0.95181
1887.44515	0.95282
1885.39135	0.95369
1883.33754	0.95342
1881.28374	0.95247
1879.22994	0.95223
1877.17613	0.95304
1875.12233	0.95395
1873.06853	0.95375
1871.01472	0.95302
1868.96092	0.95281
1866.90712	0.95287
1864.85331	0.95276
1862.79951	0.95263
1860.74571	0.95289
1858.69190	0.95337
1856.63810	0.95344
1854.58430	0.95311
1852.53049	0.95290
1850.47669	0.95282
1848.42289	0.95337
1846.36908	0.95477
1844.31528	0.95551
1842.26148	0.95505
1840.20768	0.95481
1838.15387	0.95490
1836.10007	0.95456
1834.04627	0.95396
1831.99246	0.95352
1829.93866	0.95353
1827.88486	0.95412
1825.83105	0.95468
1823.77725	0.95487
1821.72345	0.95480
1819.66964	0.95481
1817.61584	0.95536
1815.56204	0.95608
1813.50823	0.95621
1811.45443	0.95568
1809.40063	0.95483
1807.34682	0.95441
1805.29302	0.95461
1803.23922	0.95480
1801.18541	0.95478
1799.13161	0.95486
1797.07781	0.95490
1795.02400	0.95451
1792.97020	0.95392
1790.91640	0.95379
1788.86260	0.95405
1786.80879	0.95420
1784.75499	0.95397
1782.70119	0.95382
1780.64738	0.95429
1778.59358	0.95462
1776.53978	0.95449
1774.48597	0.95419
1772.43217	0.95373
1770.37837	0.95367
1768.32456	0.95378
1766.27076	0.95324
1764.21696	0.95231
1762.16315	0.95187
1760.10935	0.95192
1758.05555	0.95160
1756.00174	0.95114
1753.94794	0.95097
1751.89414	0.95067
1749.84033	0.94960
1747.78653	0.94847
1745.73273	0.94801
1743.67892	0.94784
1741.62512	0.94752
1739.57132	0.94692
1737.51751	0.94645
1735.46371	0.94644
1733.40991	0.94627
1731.35611	0.94548
1729.30230	0.94488
1727.24850	0.94473
1725.19470	0.94469
1723.14089	0.94454
1721.08709	0.94434
1719.03329	0.94421
1716.97948	0.94432
1714.92568	0.94443
1712.87188	0.94420
1710.81807	0.94355
1708.76427	0.94280
1706.71047	0.94214
1704.65666	0.94118
1702.60286	0.93979
1700.54906	0.93830
1698.49525	0.93706
1696.44145	0.93526
1694.38765	0.93259
1692.33384	0.93039
1690.28004	0.92849
1688.22624	0.92665
1686.17243	0.92482
1684.11863	0.92174
1682.06483	0.91862
1680.01103	0.91664
1677.95722	0.91473
1675.90342	0.91239
1673.84962	0.90978
1671.79581	0.90749
1669.74201	0.90508
1667.68821	0.90299
1665.63440	0.90169
1663.58060	0.90016
1661.52680	0.89783
1659.47299	0.89564
1657.41919	0.89411
1655.36539	0.89282
1653.31158	0.89066
1651.25778	0.88861
1649.20398	0.88786
1647.15017	0.88717
1645.09637	0.88660
1643.04257	0.88626
1640.98876	0.88569
1638.93496	0.88505
1636.88116	0.88441
1634.82735	0.88373
1632.77355	0.88368
1630.71975	0.88396
1628.66594	0.88407
1626.61214	0.88408
1624.55834	0.88417
1622.50454	0.88432
1620.45073	0.88459
1618.39693	0.88509
1616.34313	0.88591
1614.28932	0.88656
1612.23552	0.88672
1610.18172	0.88656
1608.12791	0.88629
1606.07411	0.88581
1604.02031	0.88519
1601.96650	0.88496
1599.91270	0.88496
1597.85890	0.88475
1595.80509	0.88448
1593.75129	0.88418
1591.69749	0.88394
1589.64368	0.88432
1587.58988	0.88549
1585.53608	0.88695
1583.48227	0.88855
1581.42847	0.89037
1579.37467	0.89230
1577.32086	0.89448
1575.26706	0.89707
1573.21326	0.89901
1571.15945	0.90060
1569.10565	0.90251
1567.05185	0.90392
1564.99805	0.90469
1562.94424	0.90530
1560.89044	0.90584
1558.83664	0.90699
1556.78283	0.90848
1554.72903	0.90925
1552.67523	0.90970
1550.62142	0.90992
1548.56762	0.90997
1546.51382	0.91006
1544.46001	0.91061
1542.40621	0.91186
1540.35241	0.91314
1538.29860	0.91356
1536.24480	0.91381
1534.19100	0.91425
1532.13719	0.91476
1530.08339	0.91529
1528.02959	0.91571
1525.97578	0.91538
1523.92198	0.91391
1521.86818	0.91078
1519.81437	0.90583
1517.76057	0.89987
1515.70677	0.89273
1513.65297	0.88648
1511.59916	0.88197
1509.54536	0.87907
1507.49156	0.87816
1505.43775	0.87984
1503.38395	0.88268
1501.33015	0.88601
1499.27634	0.89022
1497.22254	0.89524
1495.16874	0.89961
1493.11493	0.90229
1491.06113	0.90421
1489.00733	0.90617
1486.95352	0.90761
1484.89972	0.90826
1482.84592	0.90853
1480.79211	0.90842
1478.73831	0.90779
1476.68451	0.90655
1474.63070	0.90446
1472.57690	0.90074
1470.52310	0.89657
1468.46929	0.89342
1466.41549	0.89058
1464.36169	0.88829
1462.30788	0.88728
1460.25408	0.88714
1458.20028	0.88740
1456.14648	0.88672
1454.09267	0.88523
1452.03887	0.88470
1449.98507	0.88548
1447.93126	0.88736
1445.87746	0.88989
1443.82366	0.89228
1441.76985	0.89373
1439.71605	0.89410
1437.66225	0.89340
1435.60844	0.89164
1433.55464	0.88953
1431.50084	0.88679
1429.44703	0.88339
1427.39323	0.88056
1425.33943	0.87852
1423.28562	0.87687
1421.23182	0.87582
1419.17802	0.87570
1417.12421	0.87660
1415.07041	0.87803
1413.01661	0.87975
1410.96280	0.88156
1408.90900	0.88346
1406.85520	0.88570
1404.80139	0.88799
1402.74759	0.88989
1400.69379	0.89155
1398.63999	0.89279
1396.58618	0.89353
1394.53238	0.89429
1392.47858	0.89492
1390.42477	0.89511
1388.37097	0.89498
1386.31717	0.89446
1384.26336	0.89397
1382.20956	0.89387
1380.15576	0.89355
1378.10195	0.89277
1376.04815	0.89199
1373.99435	0.89137
1371.94054	0.89103
1369.88674	0.89118
1367.83294	0.89174
1365.77913	0.89244
1363.72533	0.89301
1361.67153	0.89344
1359.61772	0.89410
1357.56392	0.89505
1355.51012	0.89600
1353.45631	0.89683
1351.40251	0.89769
1349.34871	0.89858
1347.29491	0.89905
1345.24110	0.89891
1343.18730	0.89844
1341.13350	0.89781
1339.07969	0.89717
1337.02589	0.89684
1334.97209	0.89682
1332.91828	0.89691
1330.86448	0.89692
1328.81068	0.89668
1326.75687	0.89625
1324.70307	0.89585
1322.64927	0.89560
1320.59546	0.89541
1318.54166	0.89499
1316.48786	0.89464
1314.43405	0.89500
1312.38025	0.89572
1310.32645	0.89631
1308.27264	0.89718
1306.21884	0.89848
1304.16504	0.89973
1302.11123	0.90035
1300.05743	0.90051
1298.00363	0.90068
1295.94982	0.90082
1293.89602	0.90054
1291.84222	0.89956
1289.78842	0.89823
1287.73461	0.89668
1285.68081	0.89447
1283.62701	0.89155
1281.57320	0.88798
1279.51940	0.88397
1277.46560	0.87994
1275.41179	0.87584
1273.35799	0.87145
1271.30419	0.86706
1269.25038	0.86334
1267.19658	0.86104
1265.14278	0.86032
1263.08897	0.86075
1261.03517	0.86200
1258.98137	0.86394
1256.92756	0.86641
1254.87376	0.86912
1252.81996	0.87190
1250.76615	0.87454
1248.71235	0.87667
1246.65855	0.87836
1244.60474	0.87991
1242.55094	0.88128
1240.49714	0.88234
1238.44334	0.88264
1236.38953	0.88202
1234.33573	0.88086
1232.28193	0.87923
1230.22812	0.87734
1228.17432	0.87579
1226.12052	0.87475
1224.06671	0.87380
1222.01291	0.87269
1219.95911	0.87190
1217.90530	0.87177
1215.85150	0.87176
1213.79770	0.87172
1211.74389	0.87176
1209.69009	0.87193
1207.63629	0.87220
1205.58248	0.87259
1203.52868	0.87333
1201.47488	0.87419
1199.42107	0.87477
1197.36727	0.87507
1195.31347	0.87511
1193.25966	0.87482
1191.20586	0.87436
1189.15206	0.87374
1187.09825	0.87261
1185.04445	0.87097
1182.99065	0.86911
1180.93685	0.86699
1178.88304	0.86437
1176.82924	0.86114
1174.77544	0.85691
1172.72163	0.85132
1170.66783	0.84482
1168.61403	0.83770
1166.56022	0.82991
1164.50642	0.82229
1162.45262	0.81591
1160.39881	0.81109
1158.34501	0.80773
1156.29121	0.80564
1154.23740	0.80412
1152.18360	0.80224
1150.12980	0.79964
1148.07599	0.79659
1146.02219	0.79330
1143.96839	0.78973
1141.91458	0.78634
1139.86078	0.78386
1137.80698	0.78232
1135.75317	0.78091
1133.69937	0.77926
1131.64557	0.77739
1129.59176	0.77501
1127.53796	0.77197
1125.48416	0.76867
1123.43036	0.76528
1121.37655	0.76151
1119.32275	0.75687
1117.26895	0.75099
1115.21514	0.74436
1113.16134	0.73827
1111.10754	0.73336
1109.05373	0.72928
1106.99993	0.72594
1104.94613	0.72326
1102.89232	0.72080
1100.83852	0.71872
1098.78472	0.71672
1096.73091	0.71408
1094.67711	0.71109
1092.62331	0.70817
1090.56950	0.70522
1088.51570	0.70247
1086.46190	0.69996
1084.40809	0.69732
1082.35429	0.69457
1080.30049	0.69145
1078.24668	0.68754
1076.19288	0.68349
1074.13908	0.67986
1072.08528	0.67594
1070.03147	0.67115
1067.97767	0.66544
1065.92387	0.65850
1063.87006	0.65047
1061.81626	0.64190
1059.76246	0.63343
1057.70865	0.62540
1055.65485	0.61780
1053.60105	0.61059
1051.54724	0.60309
1049.49344	0.59486
1047.43964	0.58689
1045.38583	0.57899
1043.33203	0.56987
1041.27823	0.55956
1039.22442	0.54869
1037.17062	0.53737
1035.11682	0.52592
1033.06301	0.51538
1031.00921	0.50685
1028.95541	0.50046
1026.90160	0.49539
1024.84780	0.49157
1022.79400	0.48936
1020.74019	0.48807
1018.68639	0.48681
1016.63259	0.48554
1014.57879	0.48435
1012.52498	0.48302
1010.47118	0.48169
1008.41738	0.48056
1006.36357	0.47956
1004.30977	0.47908
1002.25597	0.47970
1000.20216	0.48129
998.14836	0.48315
996.09456	0.48523
994.04075	0.48790
991.98695	0.49099
989.93315	0.49453
987.87934	0.49885
985.82554	0.50408
983.77174	0.51056
981.71793	0.51862
979.66413	0.52804
977.61033	0.53833
975.55652	0.54923
973.50272	0.56090
971.44892	0.57306
969.39511	0.58483
967.34131	0.59590
965.28751	0.60670
963.23371	0.61710
961.17990	0.62708
959.12610	0.63698
957.07230	0.64636
955.01849	0.65492
952.96469	0.66296
950.91089	0.67062
948.85708	0.67792
946.80328	0.68450
944.74948	0.69040
942.69567	0.69597
940.64187	0.70095
938.58807	0.70516
936.53426	0.70897
934.48046	0.71283
932.42666	0.71652
930.37285	0.71969
928.31905	0.72288
926.26525	0.72611
924.21144	0.72853
922.15764	0.73003
920.10384	0.73084
918.05003	0.73131
915.99623	0.73203
913.94243	0.73283
911.88862	0.73360
909.83482	0.73508
907.78102	0.73794
905.72722	0.74216
903.67341	0.74722
901.61961	0.75230
899.56581	0.75694
897.51200	0.76120
895.45820	0.76524
893.40440	0.76957
891.35059	0.77405
889.29679	0.77799
887.24299	0.78139
885.18918	0.78440
883.13538	0.78727
881.08158	0.78969
879.02777	0.79127
876.97397	0.79284
874.92017	0.79505
872.86636	0.79769
870.81256	0.80054
868.75876	0.80296
866.70495	0.80439
864.65115	0.80521
862.59735	0.80640
860.54354	0.80825
858.48974	0.80999
856.43594	0.81153
854.38213	0.81355
852.32833	0.81577
850.27453	0.81746
848.22073	0.81900
846.16692	0.82077
844.11312	0.82198
842.05932	0.82216
840.00551	0.82171
837.95171	0.82053
835.89791	0.81855
833.84410	0.81655
831.79030	0.81485
829.73650	0.81331
827.68269	0.81209
825.62889	0.81134
823.57509	0.81126
821.52128	0.81168
819.46748	0.81199
817.41368	0.81165
815.35987	0.81077
813.30607	0.80950
811.25227	0.80776
809.19846	0.80509
807.14466	0.80123
805.09086	0.79668
803.03705	0.79182
800.98325	0.78768
798.92945	0.78578
796.87565	0.78593
794.82184	0.78712
792.76804	0.78843
790.71424	0.78860
788.66043	0.78786
786.60663	0.78729
784.55283	0.78669
782.49902	0.78540
780.44522	0.78351
778.39142	0.78244
776.33761	0.78269
774.28381	0.78339
772.23001	0.78407
770.17620	0.78397
768.12240	0.78267
766.06860	0.78060
764.01479	0.77829
761.96099	0.77620
759.90719	0.77494
757.85338	0.77481
755.79958	0.77461
753.74578	0.77347
751.69197	0.77217
749.63817	0.77119
747.58437	0.77057
745.53056	0.77064
743.47676	0.77101
741.42296	0.77120
739.36916	0.77138
737.31535	0.77179
735.26155	0.77219
733.20775	0.77208
731.15394	0.77160
729.10014	0.77077
727.04634	0.76936
724.99253	0.76786
722.93873	0.76718
720.88493	0.76750
718.83112	0.76789
716.77732	0.76746
714.72352	0.76578
712.66971	0.76389
710.61591	0.76330
708.56211	0.76248
706.50830	0.75966
704.45450	0.75616
702.40070	0.75338
700.34689	0.75085
698.29309	0.74789
696.23929	0.74491
694.18548	0.74288
692.13168	0.74187
690.07788	0.74123
688.02408	0.74076
685.97027	0.73979
683.91647	0.73832
681.86267	0.73702
679.80886	0.73581
677.75506	0.73414
675.70126	0.73133
673.64745	0.72778
671.59365	0.72479
669.53985	0.72258
667.48604	0.72087
665.43224	0.71980
663.37844	0.71874
661.32463	0.71739
659.27083	0.71592
657.21703	0.71439
655.16322	0.71267
653.10942	0.71029
651.05562	0.70749
649.00181	0.70541
646.94801	0.70439
644.89421	0.70341
642.84040	0.70233
640.78660	0.70128
638.73280	0.70009
636.67899	0.70013
634.62519	0.70126
632.57139	0.70138
630.51759	0.70065
628.46378	0.69974
626.40998	0.69848
624.35618	0.69698
622.30237	0.69483
620.24857	0.69181
618.19477	0.68844
616.14096	0.68516
614.08716	0.68184
612.03336	0.67835
609.97955	0.67542
607.92575	0.67373
605.87195	0.67276
603.81814	0.67081
601.76434	0.66696
599.71054	0.66268
597.65673	0.66017
595.60293	0.65899
593.54913	0.65713
591.49532	0.65447
589.44152	0.65187
587.38772	0.64997
585.33391	0.64890
583.28011	0.64797
581.22631	0.64669
579.17250	0.64428
577.11870	0.64095
575.06490	0.63841
573.01110	0.63633
570.95729	0.63291
568.90349	0.62884
566.84969	0.62547
564.79588	0.62213
562.74208	0.61727
560.68828	0.61027
558.63447	0.60300
556.58067	0.59701
554.52687	0.59178
552.47306	0.58674
550.41926	0.58139
548.36546	0.57501
546.31165	0.56811
544.25785	0.56177
542.20405	0.55581
540.15024	0.54919
538.09644	0.54184
536.04264	0.53513
533.98883	0.52942
531.93503	0.52465
529.88123	0.52186
527.82742	0.52137
525.77362	0.52183
523.71982	0.52163
521.66602	0.52123
519.61221	0.52233
517.55841	0.52556
515.50461	0.52940
513.45080	0.53265
511.39700	0.53596
509.34320	0.54040
507.28939	0.54405
505.23559	0.54464
503.18179	0.54546
501.12798	0.54790
499.07418	0.54861
497.02038	0.54696
494.96657	0.54484
492.91277	0.54345
490.85897	0.54086
488.80516	0.53511
486.75136	0.52751
484.69756	0.51844
482.64375	0.50673
480.58995	0.49208
478.53615	0.47592
476.48234	0.46109
474.42854	0.44842
472.37474	0.43685
470.32093	0.42789
468.26713	0.42325
466.21333	0.42226
464.15953	0.42365
462.10572	0.42489
460.05192	0.42452
457.99812	0.42594
455.94431	0.43242
453.89051	0.44130
451.83671	0.44807
449.78290	0.45095
447.72910	0.45291
445.67530	0.45471
443.62149	0.45469
441.56769	0.45464
439.51389	0.45518
437.46008	0.45408
435.40628	0.45207
433.35248	0.44941
431.29867	0.44499
429.24487	0.44154
427.19107	0.43930
425.13726	0.43746
423.08346	0.43826
421.02966	0.43860
418.97585	0.43517
416.92205	0.43631
414.86825	0.44305
412.81445	0.44770
410.76064	0.45095
408.70684	0.45773
406.65304	0.46631
404.59923	0.47325
402.54543	0.47708
400.49163	0.47710
398.43782	0.47658
