3996.70104	0.94472
3994.64724	0.94478
3992.59344	0.94466
3990.53964	0.94484
3988.48583	0.94520
3986.43203	0.94532
3984.37823	0.94519
3982.32442	0.94523
3980.27062	0.94552
3978.21682	0.94579
3976.16301	0.94586
3974.10921	0.94555
3972.05541	0.94521
3970.00160	0.94532
3967.94780	0.94549
3965.89400	0.94547
3963.84019	0.94538
3961.78639	0.94511
3959.73259	0.94505
3957.67878	0.94524
3955.62498	0.94497
3953.57118	0.94455
3951.51737	0.94491
3949.46357	0.94571
3947.40977	0.94567
3945.35596	0.94519
3943.30216	0.94526
3941.24836	0.94568
3939.19455	0.94593
3937.14075	0.94574
3935.08695	0.94549
3933.03315	0.94561
3930.97934	0.94566
3928.92554	0.94561
3926.87174	0.94577
3924.81793	0.94590
3922.76413	0.94595
3920.71033	0.94600
3918.65652	0.94597
3916.60272	0.94581
3914.54892	0.94547
3912.49511	0.94518
3910.44131	0.94539
3908.38751	0.94605
3906.33370	0.94666
3904.27990	0.94682
3902.22610	0.94632
3900.17229	0.94581
3898.11849	0.94577
3896.06469	0.94587
3894.01088	0.94583
3891.95708	0.94567
3889.90328	0.94567
3887.84947	0.94590
3885.79567	0.94591
3883.74187	0.94583
3881.68807	0.94585
3879.63426	0.94564
3877.58046	0.94541
3875.52666	0.94550
3873.47285	0.94602
3871.41905	0.94628
3869.36525	0.94545
3867.31144	0.94499
3865.25764	0.94542
3863.20384	0.94598
3861.15003	0.94626
3859.09623	0.94573
3857.04243	0.94510
3854.98862	0.94507
3852.93482	0.94503
3850.88102	0.94524
3848.82721	0.94537
3846.77341	0.94527
3844.71961	0.94570
3842.66580	0.94634
3840.61200	0.94656
3838.55820	0.94677
3836.50439	0.94678
3834.45059	0.94630
3832.39679	0.94585
3830.34298	0.94576
3828.28918	0.94600
3826.23538	0.94625
3824.18158	0.94643
3822.12777	0.94642
3820.07397	0.94608
3818.02017	0.94589
3815.96636	0.94540
3813.91256	0.94508
3811.85876	0.94564
3809.80495	0.94636
3807.75115	0.94684
3805.69735	0.94720
3803.64354	0.94738
3801.58974	0.94696
3799.53594	0.94655
3797.48213	0.94637
3795.42833	0.94589
3793.37453	0.94597
3791.32072	0.94662
3789.26692	0.94714
3787.21312	0.94742
3785.15931	0.94734
3783.10551	0.94672
3781.05171	0.94592
3778.99790	0.94577
3776.94410	0.94642
3774.89030	0.94710
3772.83650	0.94750
3770.78269	0.94755
3768.72889	0.94754
3766.67509	0.94758
3764.62128	0.94709
3762.56748	0.94689
3760.51368	0.94741
3758.45987	0.94754
3756.40607	0.94692
3754.35227	0.94616
3752.29846	0.94577
3750.24466	0.94629
3748.19086	0.94782
3746.13705	0.94899
3744.08325	0.94841
3742.02945	0.94759
3739.97564	0.94763
3737.92184	0.94724
3735.86804	0.94632
3733.81423	0.94650
3731.76043	0.94744
3729.70663	0.94827
3727.65282	0.94889
3725.59902	0.94869
3723.54522	0.94786
3721.49141	0.94704
3719.43761	0.94633
3717.38381	0.94613
3715.33001	0.94639
3713.27620	0.94639
3711.22240	0.94540
3709.16860	0.94372
3707.11479	0.94252
3705.06099	0.94197
3703.00719	0.94171
3700.95338	0.94151
3698.89958	0.94128
3696.84578	0.94125
3694.79197	0.94155
3692.73817	0.94157
3690.68437	0.94089
3688.63056	0.94077
3686.57676	0.94140
3684.52296	0.94127
3682.46915	0.94065
3680.41535	0.94068
3678.36155	0.94125
3676.30774	0.94112
3674.25394	0.94069
3672.20014	0.94097
3670.14633	0.94086
3668.09253	0.94007
3666.03873	0.93945
3663.98492	0.93887
3661.93112	0.93856
3659.87732	0.93880
3657.82352	0.93904
3655.76971	0.93921
3653.71591	0.93954
3651.66211	0.93945
3649.60830	0.93774
3647.55450	0.93515
3645.50070	0.93445
3643.44689	0.93477
3641.39309	0.93532
3639.33929	0.93596
3637.28548	0.93586
3635.23168	0.93513
3633.17788	0.93476
3631.12407	0.93457
3629.07027	0.93370
3627.01647	0.93242
3624.96266	0.93188
3622.90886	0.93170
3620.85506	0.93149
3618.80125	0.93150
3616.74745	0.93169
3614.69365	0.93173
3612.63984	0.93172
3610.58604	0.93207
3608.53224	0.93256
3606.47844	0.93282
3604.42463	0.93284
3602.37083	0.93258
3600.31703	0.93211
3598.26322	0.93175
3596.20942	0.93172
3594.15562	0.93173
3592.10181	0.93165
3590.04801	0.93143
3587.99421	0.93083
3585.94040	0.93020
3583.88660	0.93015
3581.83280	0.93029
3579.77899	0.93021
3577.72519	0.93034
3575.67139	0.93052
3573.61758	0.93006
3571.56378	0.92948
3569.50998	0.92926
3567.45617	0.92874
3565.40237	0.92834
3563.34857	0.92878
3561.29476	0.92931
3559.24096	0.92925
3557.18716	0.92866
3555.13335	0.92818
3553.07955	0.92803
3551.02575	0.92788
3548.97195	0.92771
3546.91814	0.92751
3544.86434	0.92664
3542.81054	0.92574
3540.75673	0.92595
3538.70293	0.92652
3536.64913	0.92647
3534.59532	0.92604
3532.54152	0.92584
3530.48772	0.92595
3528.43391	0.92605
3526.38011	0.92594
3524.32631	0.92601
3522.27250	0.92633
3520.21870	0.92662
3518.16490	0.92688
3516.11109	0.92687
3514.05729	0.92653
3512.00349	0.92610
3509.94968	0.92591
3507.89588	0.92590
3505.84208	0.92557
3503.78827	0.92509
3501.73447	0.92479
3499.68067	0.92463
3497.62687	0.92477
3495.57306	0.92501
3493.51926	0.92501
3491.46546	0.92471
3489.41165	0.92450
3487.35785	0.92451
3485.30405	0.92401
3483.25024	0.92334
3481.19644	0.92328
3479.14264	0.92319
3477.08883	0.92257
3475.03503	0.92239
3472.98123	0.92316
3470.92742	0.92368
3468.87362	0.92326
3466.81982	0.92237
3464.76601	0.92179
3462.71221	0.92182
3460.65841	0.92199
3458.60460	0.92197
3456.55080	0.92156
3454.49700	0.92078
3452.44319	0.92028
3450.38939	0.92040
3448.33559	0.92055
3446.28178	0.92070
3444.22798	0.92106
3442.17418	0.92125
3440.12038	0.92121
3438.06657	0.92115
3436.01277	0.92098
3433.95897	0.92061
3431.90516	0.91999
3429.85136	0.91946
3427.79756	0.91953
3425.74375	0.91967
3423.68995	0.91945
3421.63615	0.91933
3419.58234	0.91936
3417.52854	0.91931
3415.47474	0.91920
3413.42093	0.91881
3411.36713	0.91796
3409.31333	0.91733
3407.25952	0.91750
3405.20572	0.91778
3403.15192	0.91752
3401.09811	0.91736
3399.04431	0.91762
3396.99051	0.91757
3394.93670	0.91737
3392.88290	0.91750
3390.82910	0.91738
3388.77529	0.91695
3386.72149	0.91697
3384.66769	0.91749
3382.61389	0.91776
3380.56008	0.91773
3378.50628	0.91792
3376.45248	0.91815
3374.39867	0.91771
3372.34487	0.91715
3370.29107	0.91744
3368.23726	0.91806
3366.18346	0.91820
3364.12966	0.91793
3362.07585	0.91762
3360.02205	0.91741
3357.96825	0.91744
3355.91444	0.91784
3353.86064	0.91826
3351.80684	0.91852
3349.75303	0.91862
3347.69923	0.91818
3345.64543	0.91772
3343.59162	0.91799
3341.53782	0.91848
3339.48402	0.91873
3337.43021	0.91900
3335.37641	0.91934
3333.32261	0.91964
3331.26881	0.91989
3329.21500	0.91995
3327.16120	0.92002
3325.10740	0.92031
3323.05359	0.92059
3320.99979	0.92092
3318.94599	0.92110
3316.89218	0.92074
3314.83838	0.92047
3312.78458	0.92050
3310.73077	0.92045
3308.67697	0.92052
3306.62317	0.92087
3304.56936	0.92128
3302.51556	0.92167
3300.46176	0.92192
3298.40795	0.92177
3296.35415	0.92139
3294.30035	0.92120
3292.24654	0.92128
3290.19274	0.92158
3288.13894	0.92195
3286.08513	0.92198
3284.03133	0.92181
3281.97753	0.92198
3279.92372	0.92219
3277.86992	0.92211
3275.81612	0.92206
3273.76232	0.92208
3271.70851	0.92210
3269.65471	0.92241
3267.60091	0.92293
3265.54710	0.92312
3263.49330	0.92303
3261.43950	0.92308
3259.38569	0.92297
3257.33189	0.92288
3255.27809	0.92313
3253.22428	0.92334
3251.17048	0.92347
3249.11668	0.92358
3247.06287	0.92353
3245.00907	0.92342
3242.95527	0.92342
3240.90146	0.92378
3238.84766	0.92421
3236.79386	0.92412
3234.74005	0.92388
3232.68625	0.92417
3230.63245	0.92488
3228.57864	0.92546
3226.52484	0.92553
3224.47104	0.92536
3222.41724	0.92545
3220.36343	0.92562
3218.30963	0.92561
3216.25583	0.92577
3214.20202	0.92609
3212.14822	0.92619
3210.09442	0.92606
3208.04061	0.92593
3205.98681	0.92599
3203.93301	0.92647
3201.87920	0.92709
3199.82540	0.92730
3197.77160	0.92738
3195.71779	0.92778
3193.66399	0.92812
3191.61019	0.92825
3189.55638	0.92831
3187.50258	0.92821
3185.44878	0.92799
3183.39497	0.92814
3181.34117	0.92886
3179.28737	0.92957
3177.23356	0.92983
3175.17976	0.92991
3173.12596	0.93009
3171.07215	0.93013
3169.01835	0.92991
3166.96455	0.92966
3164.91075	0.92969
3162.85694	0.93006
3160.80314	0.93050
3158.74934	0.93072
3156.69553	0.93038
3154.64173	0.92999
3152.58793	0.93039
3150.53412	0.93139
3148.48032	0.93219
3146.42652	0.93241
3144.37271	0.93234
3142.31891	0.93240
3140.26511	0.93261
3138.21130	0.93288
3136.15750	0.93317
3134.10370	0.93344
3132.04989	0.93366
3129.99609	0.93382
3127.94229	0.93395
3125.88848	0.93418
3123.83468	0.93431
3121.78088	0.93432
3119.72707	0.93442
3117.67327	0.93421
3115.61947	0.93390
3113.56566	0.93384
3111.51186	0.93375
3109.45806	0.93363
3107.40426	0.93324
3105.35045	0.93243
3103.29665	0.93203
3101.24285	0.93221
3099.18904	0.93244
3097.13524	0.93291
3095.08144	0.93344
3093.02763	0.93322
3090.97383	0.93198
3088.92003	0.93017
3086.86622	0.92816
3084.81242	0.92623
3082.75862	0.92492
3080.70481	0.92471
3078.65101	0.92575
3076.59721	0.92744
3074.54340	0.92866
3072.48960	0.92908
3070.43580	0.92878
3068.38199	0.92764
3066.32819	0.92584
3064.27439	0.92354
3062.22058	0.92117
3060.16678	0.91966
3058.11298	0.91963
3056.05918	0.92108
3054.00537	0.92375
3051.95157	0.92649
3049.89777	0.92828
3047.84396	0.92938
3045.79016	0.93013
3043.73636	0.93052
3041.68255	0.93030
3039.62875	0.92931
3037.57495	0.92772
3035.52114	0.92520
3033.46734	0.92125
3031.41354	0.91611
3029.35973	0.91017
3027.30593	0.90449
3025.25213	0.90150
3023.19832	0.90302
3021.14452	0.90793
3019.09072	0.91362
3017.03691	0.91888
3014.98311	0.92345
3012.92931	0.92667
3010.87550	0.92823
3008.82170	0.92878
3006.76790	0.92927
3004.71409	0.92955
3002.66029	0.92937
3000.60649	0.92950
2998.55269	0.93029
2996.49888	0.93145
2994.44508	0.93283
2992.39128	0.93407
2990.33747	0.93477
2988.28367	0.93509
2986.22987	0.93543
2984.17606	0.93595
2982.12226	0.93650
2980.06846	0.93677
2978.01465	0.93663
2975.96085	0.93620
2973.90705	0.93563
2971.85324	0.93522
2969.79944	0.93510
2967.74564	0.93471
2965.69183	0.93395
2963.63803	0.93354
2961.58423	0.93336
2959.53042	0.93299
2957.47662	0.93242
2955.42282	0.93139
2953.36901	0.93040
2951.31521	0.92978
2949.26141	0.92864
2947.20761	0.92682
2945.15380	0.92489
2943.10000	0.92303
2941.04620	0.92102
2938.99239	0.91805
2936.93859	0.91393
2934.88479	0.90974
2932.83098	0.90631
2930.77718	0.90309
2928.72338	0.89938
2926.66957	0.89579
2924.61577	0.89299
2922.56197	0.89105
2920.50816	0.88997
2918.45436	0.88963
2916.40056	0.89033
2914.34675	0.89223
2912.29295	0.89464
2910.23915	0.89708
2908.18534	0.89954
2906.13154	0.90216
2904.07774	0.90503
2902.02393	0.90788
2899.97013	0.91028
2897.91633	0.91231
2895.86252	0.91447
2893.80872	0.91657
2891.75492	0.91810
2889.70112	0.91908
2887.64731	0.91992
2885.59351	0.92105
2883.53971	0.92247
2881.48590	0.92367
2879.43210	0.92441
2877.37830	0.92507
2875.32449	0.92570
2873.27069	0.92609
2871.21689	0.92647
2869.16308	0.92676
2867.10928	0.92661
2865.05548	0.92605
2863.00167	0.92528
2860.94787	0.92432
2858.89407	0.92287
2856.84026	0.92128
2854.78646	0.92004
2852.73266	0.91884
2850.67885	0.91750
2848.62505	0.91665
2846.57125	0.91705
2844.51744	0.91874
2842.46364	0.92119
2840.40984	0.92399
2838.35603	0.92666
2836.30223	0.92876
2834.24843	0.93035
2832.19463	0.93150
2830.14082	0.93264
2828.08702	0.93409
2826.03322	0.93509
2823.97941	0.93516
2821.92561	0.93505
2819.87181	0.93530
2817.81800	0.93552
2815.76420	0.93567
2813.71040	0.93605
2811.65659	0.93649
2809.60279	0.93658
2807.54899	0.93647
2805.49518	0.93652
2803.44138	0.93668
2801.38758	0.93708
2799.33377	0.93767
2797.27997	0.93815
2795.22617	0.93839
2793.17236	0.93852
2791.11856	0.93865
2789.06476	0.93866
2787.01095	0.93841
2784.95715	0.93820
2782.90335	0.93829
2780.84955	0.93826
2778.79574	0.93826
2776.74194	0.93865
2774.68814	0.93899
2772.63433	0.93924
2770.58053	0.93954
2768.52673	0.93961
2766.47292	0.93959
2764.41912	0.93972
2762.36532	0.93984
2760.31151	0.93985
2758.25771	0.93979
2756.20391	0.93958
2754.15010	0.93927
2752.09630	0.93926
2750.04250	0.93963
2747.98869	0.93984
2745.93489	0.93990
2743.88109	0.94022
2741.82728	0.94062
2739.77348	0.94076
2737.71968	0.94063
2735.66587	0.94041
2733.61207	0.94014
2731.55827	0.93998
2729.50446	0.94018
2727.45066	0.94040
2725.39686	0.94035
2723.34306	0.94035
2721.28925	0.94047
2719.23545	0.94044
2717.18165	0.94045
2715.12784	0.94087
2713.07404	0.94133
2711.02024	0.94121
2708.96643	0.94068
2706.91263	0.94042
2704.85883	0.94051
2702.80502	0.94054
2700.75122	0.94067
2698.69742	0.94101
2696.64361	0.94119
2694.58981	0.94113
2692.53601	0.94108
2690.48220	0.94117
2688.42840	0.94117
2686.37460	0.94099
2684.32079	0.94084
2682.26699	0.94082
2680.21319	0.94089
2678.15938	0.94107
2676.10558	0.94127
2674.05178	0.94135
2671.99797	0.94128
2669.94417	0.94126
2667.89037	0.94172
2665.83657	0.94231
2663.78276	0.94231
2661.72896	0.94179
2659.67516	0.94137
2657.62135	0.94134
2655.56755	0.94136
2653.51375	0.94137
2651.45994	0.94158
2649.40614	0.94177
2647.35234	0.94185
2645.29853	0.94207
2643.24473	0.94216
2641.19093	0.94190
2639.13712	0.94151
2637.08332	0.94112
2635.02952	0.94100
2632.97571	0.94142
2630.92191	0.94199
2628.86811	0.94232
2626.81430	0.94259
2624.76050	0.94275
2622.70670	0.94289
2620.65289	0.94323
2618.59909	0.94351
2616.54529	0.94356
2614.49149	0.94344
2612.43768	0.94313
2610.38388	0.94281
2608.33008	0.94293
2606.27627	0.94362
2604.22247	0.94432
2602.16867	0.94438
2600.11486	0.94395
2598.06106	0.94359
2596.00726	0.94351
2593.95345	0.94352
2591.89965	0.94334
2589.84585	0.94341
2587.79204	0.94367
2585.73824	0.94310
2583.68444	0.94249
2581.63063	0.94325
2579.57683	0.94424
2577.52303	0.94441
2575.46922	0.94430
2573.41542	0.94426
2571.36162	0.94436
2569.30781	0.94423
2567.25401	0.94379
2565.20021	0.94392
2563.14640	0.94457
2561.09260	0.94476
2559.03880	0.94461
2556.98500	0.94463
2554.93119	0.94443
2552.87739	0.94402
2550.82359	0.94411
2548.76978	0.94445
2546.71598	0.94468
2544.66218	0.94499
2542.60837	0.94517
2540.55457	0.94478
2538.50077	0.94423
2536.44696	0.94429
2534.39316	0.94475
2532.33936	0.94515
2530.28555	0.94519
2528.23175	0.94479
2526.17795	0.94451
2524.12414	0.94483
2522.07034	0.94524
2520.01654	0.94484
2517.96273	0.94416
2515.90893	0.94408
2513.85513	0.94426
2511.80132	0.94452
2509.74752	0.94501
2507.69372	0.94539
2505.63992	0.94527
2503.58611	0.94484
2501.53231	0.94484
2499.47851	0.94542
2497.42470	0.94589
2495.37090	0.94591
2493.31710	0.94580
2491.26329	0.94582
2489.20949	0.94559
2487.15569	0.94498
2485.10188	0.94475
2483.04808	0.94525
2480.99428	0.94576
2478.94047	0.94574
2476.88667	0.94582
2474.83287	0.94617
2472.77906	0.94604
2470.72526	0.94597
2468.67146	0.94658
2466.61765	0.94703
2464.56385	0.94687
2462.51005	0.94632
2460.45624	0.94581
2458.40244	0.94551
2456.34864	0.94520
2454.29483	0.94499
2452.24103	0.94491
2450.18723	0.94521
2448.13343	0.94568
2446.07962	0.94535
2444.02582	0.94478
2441.97202	0.94512
2439.91821	0.94581
2437.86441	0.94622
2435.81061	0.94641
2433.75680	0.94611
2431.70300	0.94588
2429.64920	0.94615
2427.59539	0.94608
2425.54159	0.94556
2423.48779	0.94497
2421.43398	0.94492
2419.38018	0.94600
2417.32638	0.94697
2415.27257	0.94647
2413.21877	0.94549
2411.16497	0.94566
2409.11116	0.94663
2407.05736	0.94685
2405.00356	0.94664
2402.94975	0.94692
2400.89595	0.94721
2398.84215	0.94736
2396.78834	0.94736
2394.73454	0.94716
2392.68074	0.94696
2390.62694	0.94684
2388.57313	0.94681
2386.51933	0.94676
2384.46553	0.94675
2382.41172	0.94701
2380.35792	0.94736
2378.30412	0.94745
2376.25031	0.94729
2374.19651	0.94694
2372.14271	0.94690
2370.08890	0.94766
2368.03510	0.94803
2365.98130	0.94795
2363.92749	0.94846
2361.87369	0.94867
2359.81989	0.94811
2357.76608	0.94743
2355.71228	0.94663
2353.65848	0.94562
2351.60467	0.94496
2349.55087	0.94503
2347.49707	0.94520
2345.44326	0.94511
2343.38946	0.94541
2341.33566	0.94596
2339.28186	0.94635
2337.22805	0.94712
2335.17425	0.94755
2333.12045	0.94710
2331.06664	0.94634
2329.01284	0.94576
2326.95904	0.94555
2324.90523	0.94541
2322.85143	0.94521
2320.79763	0.94574
2318.74382	0.94695
2316.69002	0.94733
2314.63622	0.94673
2312.58241	0.94632
2310.52861	0.94631
2308.47481	0.94640
2306.42100	0.94666
2304.36720	0.94684
2302.31340	0.94671
2300.25959	0.94671
2298.20579	0.94708
2296.15199	0.94722
2294.09818	0.94687
2292.04438	0.94653
2289.99058	0.94673
2287.93677	0.94712
2285.88297	0.94685
2283.82917	0.94638
2281.77537	0.94629
2279.72156	0.94702
2277.66776	0.94845
2275.61396	0.94868
2273.56015	0.94771
2271.50635	0.94724
2269.45255	0.94729
2267.39874	0.94755
2265.34494	0.94773
2263.29114	0.94702
2261.23733	0.94615
2259.18353	0.94659
2257.12973	0.94792
2255.07592	0.94917
2253.02212	0.94981
2250.96832	0.94879
2248.91451	0.94682
2246.86071	0.94614
2244.80691	0.94673
2242.75310	0.94760
2240.69930	0.94864
2238.64550	0.94988
2236.59169	0.95067
2234.53789	0.94997
2232.48409	0.94908
2230.43029	0.94955
2228.37648	0.94998
2226.32268	0.94986
2224.26888	0.95023
2222.21507	0.95035
2220.16127	0.95012
2218.10747	0.95061
2216.05366	0.95128
2213.99986	0.95153
2211.94606	0.95208
2209.89225	0.95283
2207.83845	0.95200
2205.78465	0.95027
2203.73084	0.95009
2201.67704	0.95023
2199.62324	0.94898
2197.56943	0.94815
2195.51563	0.94924
2193.46183	0.95029
2191.40802	0.95051
2189.35422	0.95157
2187.30042	0.95175
2185.24661	0.94950
2183.19281	0.94812
2181.13901	0.94934
2179.08520	0.94973
2177.03140	0.94898
2174.97760	0.95044
2172.92380	0.95264
2170.86999	0.95274
2168.81619	0.95060
2166.76239	0.94751
2164.70858	0.94582
2162.65478	0.94772
2160.60098	0.95217
2158.54717	0.95507
2156.49337	0.95641
2154.43957	0.95713
2152.38576	0.95558
2150.33196	0.95390
2148.27816	0.95434
2146.22435	0.95432
2144.17055	0.95209
2142.11675	0.94990
2140.06294	0.94997
2138.00914	0.95148
2135.95534	0.95296
2133.90153	0.95428
2131.84773	0.95473
2129.79393	0.95349
2127.74012	0.95131
2125.68632	0.95000
2123.63252	0.95009
2121.57871	0.95056
2119.52491	0.95134
2117.47111	0.95220
2115.41731	0.95246
2113.36350	0.95228
2111.30970	0.95206
2109.25590	0.95137
2107.20209	0.94991
2105.14829	0.94924
2103.09449	0.94983
2101.04068	0.95002
2098.98688	0.94982
2096.93308	0.95070
2094.87927	0.95201
2092.82547	0.95193
2090.77167	0.95076
2088.71786	0.95019
2086.66406	0.95086
2084.61026	0.95141
2082.55645	0.95136
2080.50265	0.95178
2078.44885	0.95237
2076.39504	0.95217
2074.34124	0.95143
2072.28744	0.95082
2070.23363	0.95065
2068.17983	0.95082
2066.12603	0.95074
2064.07223	0.95038
2062.01842	0.95043
2059.96462	0.95144
2057.91082	0.95288
2055.85701	0.95389
2053.80321	0.95418
2051.74941	0.95338
2049.69560	0.95261
2047.64180	0.95254
2045.58800	0.95213
2043.53419	0.95144
2041.48039	0.95067
2039.42659	0.95126
2037.37278	0.95407
2035.31898	0.95628
2033.26518	0.95648
2031.21137	0.95547
2029.15757	0.95364
2027.10377	0.95230
2025.04996	0.95264
2022.99616	0.95486
2020.94236	0.95683
2018.88855	0.95612
2016.83475	0.95459
2014.78095	0.95402
2012.72714	0.95316
2010.67334	0.95178
2008.61954	0.95101
2006.56574	0.95233
2004.51193	0.95461
2002.45813	0.95453
2000.40433	0.95297
1998.35052	0.95223
1996.29672	0.95233
1994.24292	0.95317
1992.18911	0.95465
1990.13531	0.95617
1988.08151	0.95602
1986.02770	0.95263
1983.97390	0.94889
1981.92010	0.94794
1979.86629	0.94912
1977.81249	0.95123
1975.75869	0.95194
1973.70488	0.95174
1971.65108	0.95372
1969.59728	0.95541
1967.54347	0.95474
1965.48967	0.95490
1963.43587	0.95730
1961.38206	0.95863
1959.32826	0.95655
1957.27446	0.95399
1955.22066	0.95369
1953.16685	0.95337
1951.11305	0.95072
1949.05925	0.94770
1947.00544	0.94639
1944.95164	0.94625
1942.89784	0.94677
1940.84403	0.94761
1938.79023	0.94860
1936.73643	0.94992
1934.68262	0.95097
1932.62882	0.95193
1930.57502	0.95249
1928.52121	0.95189
1926.46741	0.95150
1924.41361	0.95228
1922.35980	0.95351
1920.30600	0.95453
1918.25220	0.95447
1916.19839	0.95332
1914.14459	0.95253
1912.09079	0.95267
1910.03698	0.95318
1907.98318	0.95271
1905.92938	0.95155
1903.87557	0.95153
1901.82177	0.95252
1899.76797	0.95319
1897.71417	0.95294
1895.66036	0.95184
1893.60656	0.95087
1891.55276	0.95075
1889.49895	0.95068
1887.44515	0.95018
1885.39135	0.94955
1883.33754	0.94918
1881.28374	0.94935
1879.22994	0.94963
1877.17613	0.94958
1875.12233	0.94969
1873.06853	0.95010
1871.01472	0.94984
1868.96092	0.94910
1866.90712	0.94885
1864.85331	0.94887
1862.79951	0.94907
1860.74571	0.94938
1858.69190	0.94942
1856.63810	0.94931
1854.58430	0.94952
1852.53049	0.95030
1850.47669	0.95106
1848.42289	0.95115
1846.36908	0.95065
1844.31528	0.95021
1842.26148	0.95099
1840.20768	0.95241
1838.15387	0.95292
1836.10007	0.95264
1834.04627	0.95258
1831.99246	0.95276
1829.93866	0.95280
1827.88486	0.95244
1825.83105	0.95158
1823.77725	0.95066
1821.72345	0.95013
1819.66964	0.95003
1817.61584	0.95029
1815.56204	0.95017
1813.50823	0.94932
1811.45443	0.94846
1809.40063	0.94802
1807.34682	0.94765
1805.29302	0.94735
1803.23922	0.94739
1801.18541	0.94776
1799.13161	0.94832
1797.07781	0.94862
1795.02400	0.94860
1792.97020	0.94888
1790.91640	0.94938
1788.86260	0.94960
1786.80879	0.94992
1784.75499	0.95026
1782.70119	0.95032
1780.64738	0.95012
1778.59358	0.94974
1776.53978	0.94942
1774.48597	0.94935
1772.43217	0.94953
1770.37837	0.94949
1768.32456	0.94899
1766.27076	0.94851
1764.21696	0.94826
1762.16315	0.94814
1760.10935	0.94823
1758.05555	0.94823
1756.00174	0.94790
1753.94794	0.94761
1751.89414	0.94707
1749.84033	0.94598
1747.78653	0.94504
1745.73273	0.94457
1743.67892	0.94412
1741.62512	0.94338
1739.57132	0.94294
1737.51751	0.94328
1735.46371	0.94355
1733.40991	0.94338
1731.35611	0.94322
1729.30230	0.94309
1727.24850	0.94326
1725.19470	0.94379
1723.14089	0.94424
1721.08709	0.94425
1719.03329	0.94403
1716.97948	0.94439
1714.92568	0.94542
1712.87188	0.94620
1710.81807	0.94643
1708.76427	0.94626
1706.71047	0.94590
1704.65666	0.94569
1702.60286	0.94555
1700.54906	0.94494
1698.49525	0.94431
1696.44145	0.94386
1694.38765	0.94318
1692.33384	0.94282
1690.28004	0.94254
1688.22624	0.94201
1686.17243	0.94130
1684.11863	0.94013
1682.06483	0.93908
1680.01103	0.93845
1677.95722	0.93790
1675.90342	0.93726
1673.84962	0.93642
1671.79581	0.93557
1669.74201	0.93466
1667.68821	0.93390
1665.63440	0.93339
1663.58060	0.93285
1661.52680	0.93225
1659.47299	0.93191
1657.41919	0.93196
1655.36539	0.93221
1653.31158	0.93232
1651.25778	0.93227
1649.20398	0.93234
1647.15017	0.93236
1645.09637	0.93230
1643.04257	0.93235
1640.98876	0.93244
1638.93496	0.93250
1636.88116	0.93261
1634.82735	0.93239
1632.77355	0.93199
1630.71975	0.93205
1628.66594	0.93235
1626.61214	0.93258
1624.55834	0.93291
1622.50454	0.93344
1620.45073	0.93400
1618.39693	0.93429
1616.34313	0.93409
1614.28932	0.93383
1612.23552	0.93352
1610.18172	0.93211
1608.12791	0.92838
1606.07411	0.92219
1604.02031	0.91486
1601.96650	0.90923
1599.91270	0.90857
1597.85890	0.91287
1595.80509	0.91932
1593.75129	0.92500
1591.69749	0.92849
1589.64368	0.93021
1587.58988	0.93054
1585.53608	0.92952
1583.48227	0.92856
1581.42847	0.92952
1579.37467	0.93200
1577.32086	0.93458
1575.26706	0.93678
1573.21326	0.93823
1571.15945	0.93902
1569.10565	0.93976
1567.05185	0.94054
1564.99805	0.94089
1562.94424	0.94101
1560.89044	0.94134
1558.83664	0.94168
1556.78283	0.94142
1554.72903	0.94115
1552.67523	0.94095
1550.62142	0.94052
1548.56762	0.94010
1546.51382	0.94016
1544.46001	0.94043
1542.40621	0.94056
1540.35241	0.94057
1538.29860	0.94048
1536.24480	0.94037
1534.19100	0.94018
1532.13719	0.94012
1530.08339	0.94054
1528.02959	0.94113
1525.97578	0.94138
1523.92198	0.94150
1521.86818	0.94185
1519.81437	0.94228
1517.76057	0.94244
1515.70677	0.94228
1513.65297	0.94192
1511.59916	0.94155
1509.54536	0.94138
1507.49156	0.94090
1505.43775	0.93988
1503.38395	0.93901
1501.33015	0.93687
1499.27634	0.92968
1497.22254	0.90932
1495.16874	0.87904
1493.11493	0.86041
1491.06113	0.86375
1489.00733	0.88608
1486.95352	0.90596
1484.89972	0.91595
1482.84592	0.92174
1480.79211	0.92547
1478.73831	0.92761
1476.68451	0.92867
1474.63070	0.92920
1472.57690	0.92939
1470.52310	0.92906
1468.46929	0.92863
1466.41549	0.92820
1464.36169	0.92765
1462.30788	0.92691
1460.25408	0.92483
1458.20028	0.91470
1456.14648	0.88693
1454.09267	0.86123
1452.03887	0.85018
1449.98507	0.85344
1447.93126	0.86564
1445.87746	0.87755
1443.82366	0.88662
1441.76985	0.89436
1439.71605	0.90056
1437.66225	0.90563
1435.60844	0.91079
1433.55464	0.91513
1431.50084	0.91812
1429.44703	0.92021
1427.39323	0.92187
1425.33943	0.92338
1423.28562	0.92470
1421.23182	0.92557
1419.17802	0.92611
1417.12421	0.92675
1415.07041	0.92754
1413.01661	0.92837
1410.96280	0.92927
1408.90900	0.93021
1406.85520	0.93118
1404.80139	0.93201
1402.74759	0.93252
1400.69379	0.93283
1398.63999	0.93325
1396.58618	0.93387
1394.53238	0.93426
1392.47858	0.93402
1390.42477	0.93335
1388.37097	0.93254
1386.31717	0.93173
1384.26336	0.93113
1382.20956	0.93048
1380.15576	0.92946
1378.10195	0.92831
1376.04815	0.92741
1373.99435	0.92698
1371.94054	0.92687
1369.88674	0.92690
1367.83294	0.92726
1365.77913	0.92774
1363.72533	0.92817
1361.67153	0.92900
1359.61772	0.93008
1357.56392	0.93098
1355.51012	0.93169
1353.45631	0.93227
1351.40251	0.93266
1349.34871	0.93283
1347.29491	0.93292
1345.24110	0.93323
1343.18730	0.93388
1341.13350	0.93458
1339.07969	0.93504
1337.02589	0.93536
1334.97209	0.93536
1332.91828	0.93500
1330.86448	0.93458
1328.81068	0.93444
1326.75687	0.93463
1324.70307	0.93474
1322.64927	0.93482
1320.59546	0.93523
1318.54166	0.93547
1316.48786	0.93531
1314.43405	0.93528
1312.38025	0.93530
1310.32645	0.93526
1308.27264	0.93555
1306.21884	0.93614
1304.16504	0.93693
1302.11123	0.93775
1300.05743	0.93819
1298.00363	0.93835
1295.94982	0.93846
1293.89602	0.93871
1291.84222	0.93917
1289.78842	0.93945
1287.73461	0.93930
1285.68081	0.93925
1283.62701	0.93940
1281.57320	0.93920
1279.51940	0.93883
1277.46560	0.93881
1275.41179	0.93914
1273.35799	0.93957
1271.30419	0.93978
1269.25038	0.93968
1267.19658	0.93973
1265.14278	0.94004
1263.08897	0.94002
1261.03517	0.93966
1258.98137	0.93952
1256.92756	0.93958
1254.87376	0.93952
1252.81996	0.93938
1250.76615	0.93903
1248.71235	0.93844
1246.65855	0.93786
1244.60474	0.93736
1242.55094	0.93705
1240.49714	0.93702
1238.44334	0.93708
1236.38953	0.93706
1234.33573	0.93699
1232.28193	0.93690
1230.22812	0.93655
1228.17432	0.93575
1226.12052	0.93471
1224.06671	0.93380
1222.01291	0.93312
1219.95911	0.93235
1217.90530	0.93114
1215.85150	0.92978
1213.79770	0.92862
1211.74389	0.92721
1209.69009	0.92529
1207.63629	0.92322
1205.58248	0.92101
1203.52868	0.91859
1201.47488	0.91605
1199.42107	0.91345
1197.36727	0.91092
1195.31347	0.90845
1193.25966	0.90596
1191.20586	0.90336
1189.15206	0.90058
1187.09825	0.89737
1185.04445	0.89359
1182.99065	0.88976
1180.93685	0.88655
1178.88304	0.88436
1176.82924	0.88309
1174.77544	0.88202
1172.72163	0.88031
1170.66783	0.87813
1168.61403	0.87623
1166.56022	0.87453
1164.50642	0.87275
1162.45262	0.87110
1160.39881	0.86936
1158.34501	0.86718
1156.29121	0.86448
1154.23740	0.86192
1152.18360	0.86076
1150.12980	0.86103
1148.07599	0.86139
1146.02219	0.86125
1143.96839	0.86121
1141.91458	0.86111
1139.86078	0.86027
1137.80698	0.85895
1135.75317	0.85788
1133.69937	0.85700
1131.64557	0.85582
1129.59176	0.85458
1127.53796	0.85337
1125.48416	0.85139
1123.43036	0.84839
1121.37655	0.84502
1119.32275	0.84130
1117.26895	0.83712
1115.21514	0.83308
1113.16134	0.82965
1111.10754	0.82657
1109.05373	0.82345
1106.99993	0.82052
1104.94613	0.81828
1102.89232	0.81681
1100.83852	0.81560
1098.78472	0.81402
1096.73091	0.81217
1094.67711	0.81054
1092.62331	0.80922
1090.56950	0.80825
1088.51570	0.80765
1086.46190	0.80718
1084.40809	0.80663
1082.35429	0.80583
1080.30049	0.80480
1078.24668	0.80353
1076.19288	0.80188
1074.13908	0.79985
1072.08528	0.79737
1070.03147	0.79458
1067.97767	0.79204
1065.92387	0.79005
1063.87006	0.78851
1061.81626	0.78720
1059.76246	0.78591
1057.70865	0.78435
1055.65485	0.78216
1053.60105	0.77954
1051.54724	0.77688
1049.49344	0.77369
1047.43964	0.76956
1045.38583	0.76496
1043.33203	0.76031
1041.27823	0.75550
1039.22442	0.75015
1037.17062	0.74400
1035.11682	0.73685
1033.06301	0.72839
1031.00921	0.71991
1028.95541	0.71377
1026.90160	0.71088
1024.84780	0.71072
1022.79400	0.71203
1020.74019	0.71362
1018.68639	0.71480
1016.63259	0.71536
1014.57879	0.71553
1012.52498	0.71570
1010.47118	0.71603
1008.41738	0.71622
1006.36357	0.71616
1004.30977	0.71639
1002.25597	0.71779
1000.20216	0.72105
998.14836	0.72560
996.09456	0.73011
994.04075	0.73454
991.98695	0.73958
989.93315	0.74487
987.87934	0.74993
985.82554	0.75481
983.77174	0.75971
981.71793	0.76538
979.66413	0.77210
977.61033	0.77937
975.55652	0.78718
973.50272	0.79511
971.44892	0.80199
969.39511	0.80754
967.34131	0.81227
965.28751	0.81684
963.23371	0.82178
961.17990	0.82713
959.12610	0.83254
957.07230	0.83759
955.01849	0.84178
952.96469	0.84501
950.91089	0.84775
948.85708	0.85025
946.80328	0.85236
944.74948	0.85425
942.69567	0.85610
940.64187	0.85778
938.58807	0.85946
936.53426	0.86166
934.48046	0.86466
932.42666	0.86769
930.37285	0.86991
928.31905	0.87140
926.26525	0.87210
924.21144	0.87222
922.15764	0.87223
920.10384	0.87172
918.05003	0.87024
915.99623	0.86792
913.94243	0.86529
911.88862	0.86320
909.83482	0.86175
907.78102	0.86112
905.72722	0.86262
903.67341	0.86685
901.61961	0.87321
899.56581	0.88047
897.51200	0.88693
895.45820	0.89155
893.40440	0.89480
891.35059	0.89740
889.29679	0.89927
887.24299	0.90044
885.18918	0.90089
883.13538	0.90038
881.08158	0.89959
879.02777	0.89906
876.97397	0.89887
874.92017	0.89951
872.86636	0.90112
870.81256	0.90360
868.75876	0.90615
866.70495	0.90818
864.65115	0.91011
862.59735	0.91172
860.54354	0.91295
858.48974	0.91428
856.43594	0.91543
854.38213	0.91632
852.32833	0.91699
850.27453	0.91680
848.22073	0.91559
846.16692	0.91368
844.11312	0.91189
842.05932	0.91108
840.00551	0.91143
837.95171	0.91269
835.89791	0.91393
833.84410	0.91449
831.79030	0.91483
829.73650	0.91533
827.68269	0.91603
825.62889	0.91699
823.57509	0.91797
821.52128	0.91849
819.46748	0.91835
817.41368	0.91835
815.35987	0.91879
813.30607	0.91879
811.25227	0.91749
809.19846	0.91485
807.14466	0.91172
805.09086	0.90849
803.03705	0.90515
800.98325	0.90236
798.92945	0.90105
796.87565	0.90121
794.82184	0.90188
792.76804	0.90223
790.71424	0.90183
788.66043	0.90058
786.60663	0.89840
784.55283	0.89560
782.49902	0.89227
780.44522	0.88801
778.39142	0.88339
776.33761	0.87888
774.28381	0.87341
772.23001	0.86564
770.17620	0.85516
768.12240	0.84298
766.06860	0.83077
764.01479	0.81904
761.96099	0.80708
759.90719	0.79564
757.85338	0.78675
755.79958	0.78197
753.74578	0.78120
751.69197	0.78220
749.63817	0.78374
747.58437	0.78769
745.53056	0.79668
743.47676	0.81054
741.42296	0.82604
739.36916	0.84097
737.31535	0.85469
735.26155	0.86647
733.20775	0.87584
731.15394	0.88323
729.10014	0.88918
727.04634	0.89343
724.99253	0.89580
722.93873	0.89757
720.88493	0.89988
718.83112	0.90214
716.77732	0.90282
714.72352	0.90060
712.66971	0.89436
710.61591	0.88119
708.56211	0.85626
706.50830	0.81565
704.45450	0.75811
702.40070	0.68610
700.34689	0.60631
698.29309	0.53452
696.23929	0.50342
694.18548	0.54098
692.13168	0.62667
690.07788	0.70901
688.02408	0.76229
685.97027	0.79260
683.91647	0.81091
681.86267	0.82233
679.80886	0.82903
677.75506	0.83363
675.70126	0.83817
673.64745	0.84240
671.59365	0.84543
669.53985	0.84759
667.48604	0.84915
665.43224	0.85035
663.37844	0.85220
661.32463	0.85410
659.27083	0.85475
657.21703	0.85430
655.16322	0.85343
653.10942	0.85242
651.05562	0.85173
649.00181	0.85189
646.94801	0.85282
644.89421	0.85459
642.84040	0.85687
640.78660	0.85842
638.73280	0.85933
636.67899	0.86018
634.62519	0.85978
632.57139	0.85793
630.51759	0.85659
628.46378	0.85650
626.40998	0.85691
624.35618	0.85681
622.30237	0.85611
620.24857	0.85554
618.19477	0.85471
616.14096	0.85260
614.08716	0.85032
612.03336	0.84874
609.97955	0.84676
607.92575	0.84441
605.87195	0.84227
603.81814	0.84027
601.76434	0.83795
599.71054	0.83542
597.65673	0.83393
595.60293	0.83321
593.54913	0.83233
591.49532	0.83142
589.44152	0.82989
587.38772	0.82780
585.33391	0.82721
583.28011	0.82821
581.22631	0.82847
579.17250	0.82691
577.11870	0.82412
575.06490	0.82092
573.01110	0.81849
570.95729	0.81649
568.90349	0.81293
566.84969	0.80810
564.79588	0.80212
562.74208	0.79558
560.68828	0.79043
558.63447	0.78606
556.58067	0.78164
554.52687	0.77702
552.47306	0.77178
550.41926	0.76540
548.36546	0.75661
546.31165	0.74528
544.25785	0.73334
542.20405	0.72229
540.15024	0.71264
538.09644	0.70623
536.04264	0.70483
533.98883	0.70815
531.93503	0.71486
529.88123	0.72341
527.82742	0.73220
525.77362	0.73989
523.71982	0.74643
521.66602	0.75274
519.61221	0.75848
517.55841	0.76300
515.50461	0.76708
513.45080	0.77139
511.39700	0.77575
509.34320	0.78046
507.28939	0.78473
505.23559	0.78784
503.18179	0.79005
501.12798	0.79075
499.07418	0.79082
497.02038	0.79030
494.96657	0.78816
492.91277	0.78462
490.85897	0.77981
488.80516	0.77409
486.75136	0.76663
484.69756	0.75550
482.64375	0.74309
480.58995	0.73280
478.53615	0.72286
476.48234	0.71273
474.42854	0.70324
472.37474	0.69535
470.32093	0.69318
468.26713	0.69532
466.21333	0.69737
464.15953	0.69838
462.10572	0.69872
460.05192	0.70200
457.99812	0.71108
455.94431	0.72123
453.89051	0.72935
451.83671	0.73729
449.78290	0.74439
447.72910	0.74884
445.67530	0.74976
443.62149	0.74936
441.56769	0.75120
439.51389	0.75384
437.46008	0.75418
435.40628	0.75193
433.35248	0.74683
431.29867	0.74078
429.24487	0.73919
427.19107	0.74288
425.13726	0.74605
423.08346	0.74707
421.02966	0.74899
418.97585	0.75013
416.92205	0.75185
414.86825	0.75623
412.81445	0.76088
410.76064	0.76847
408.70684	0.77781
406.65304	0.78180
404.59923	0.78045
402.54543	0.77744
400.49163	0.77623
398.43782	0.77701
