3996.70104	0.94943
3994.64724	0.94897
3992.59344	0.94933
3990.53964	0.94997
3988.48583	0.95008
3986.43203	0.94995
3984.37823	0.94949
3982.32442	0.94900
3980.27062	0.94904
3978.21682	0.94945
3976.16301	0.94964
3974.10921	0.94942
3972.05541	0.94971
3970.00160	0.95045
3967.94780	0.95059
3965.89400	0.95026
3963.84019	0.94985
3961.78639	0.94943
3959.73259	0.94926
3957.67878	0.94940
3955.62498	0.94956
3953.57118	0.94961
3951.51737	0.94975
3949.46357	0.94997
3947.40977	0.95039
3945.35596	0.95048
3943.30216	0.94973
3941.24836	0.94892
3939.19455	0.94877
3937.14075	0.94912
3935.08695	0.94946
3933.03315	0.94974
3930.97934	0.95032
3928.92554	0.95070
3926.87174	0.95026
3924.81793	0.94968
3922.76413	0.94973
3920.71033	0.94995
3918.65652	0.94986
3916.60272	0.94967
3914.54892	0.94993
3912.49511	0.95028
3910.44131	0.95024
3908.38751	0.95009
3906.33370	0.94982
3904.27990	0.94926
3902.22610	0.94917
3900.17229	0.95022
3898.11849	0.95139
3896.06469	0.95154
3894.01088	0.95105
3891.95708	0.95059
3889.90328	0.95013
3887.84947	0.94988
3885.79567	0.95030
3883.74187	0.95126
3881.68807	0.95209
3879.63426	0.95204
3877.58046	0.95110
3875.52666	0.95018
3873.47285	0.94951
3871.41905	0.94924
3869.36525	0.94972
3867.31144	0.95010
3865.25764	0.94981
3863.20384	0.94967
3861.15003	0.94989
3859.09623	0.94998
3857.04243	0.95016
3854.98862	0.95128
3852.93482	0.95251
3850.88102	0.95169
3848.82721	0.95087
3846.77341	0.95074
3844.71961	0.95087
3842.66580	0.95106
3840.61200	0.95066
3838.55820	0.94964
3836.50439	0.94935
3834.45059	0.95009
3832.39679	0.95089
3830.34298	0.95082
3828.28918	0.95030
3826.23538	0.95036
3824.18158	0.95094
3822.12777	0.95147
3820.07397	0.95138
3818.02017	0.95067
3815.96636	0.95034
3813.91256	0.95065
3811.85876	0.95091
3809.80495	0.95093
3807.75115	0.95100
3805.69735	0.95106
3803.64354	0.95083
3801.58974	0.95068
3799.53594	0.95097
3797.48213	0.95117
3795.42833	0.95073
3793.37453	0.95014
3791.32072	0.95042
3789.26692	0.95147
3787.21312	0.95229
3785.15931	0.95228
3783.10551	0.95177
3781.05171	0.95152
3778.99790	0.95174
3776.94410	0.95191
3774.89030	0.95183
3772.83650	0.95186
3770.78269	0.95169
3768.72889	0.95120
3766.67509	0.95085
3764.62128	0.95064
3762.56748	0.95049
3760.51368	0.95056
3758.45987	0.95130
3756.40607	0.95195
3754.35227	0.95172
3752.29846	0.95141
3750.24466	0.95215
3748.19086	0.95247
3746.13705	0.95135
3744.08325	0.95088
3742.02945	0.95224
3739.97564	0.95274
3737.92184	0.95235
3735.86804	0.95268
3733.81423	0.95330
3731.76043	0.95343
3729.70663	0.95326
3727.65282	0.95276
3725.59902	0.95212
3723.54522	0.95122
3721.49141	0.95074
3719.43761	0.95069
3717.38381	0.95034
3715.33001	0.94997
3713.27620	0.94952
3711.22240	0.94893
3709.16860	0.94869
3707.11479	0.94851
3705.06099	0.94819
3703.00719	0.94732
3700.95338	0.94597
3698.89958	0.94532
3696.84578	0.94546
3694.79197	0.94576
3692.73817	0.94583
3690.68437	0.94617
3688.63056	0.94725
3686.57676	0.94789
3684.52296	0.94816
3682.46915	0.94855
3680.41535	0.94863
3678.36155	0.94801
3676.30774	0.94718
3674.25394	0.94747
3672.20014	0.94813
3670.14633	0.94797
3668.09253	0.94741
3666.03873	0.94702
3663.98492	0.94650
3661.93112	0.94588
3659.87732	0.94543
3657.82352	0.94486
3655.76971	0.94435
3653.71591	0.94456
3651.66211	0.94518
3649.60830	0.94569
3647.55450	0.94517
3645.50070	0.94394
3643.44689	0.94317
3641.39309	0.94335
3639.33929	0.94402
3637.28548	0.94425
3635.23168	0.94411
3633.17788	0.94392
3631.12407	0.94356
3629.07027	0.94310
3627.01647	0.94309
3624.96266	0.94314
3622.90886	0.94270
3620.85506	0.94229
3618.80125	0.94320
3616.74745	0.94455
3614.69365	0.94449
3612.63984	0.94380
3610.58604	0.94352
3608.53224	0.94329
3606.47844	0.94281
3604.42463	0.94238
3602.37083	0.94247
3600.31703	0.94294
3598.26322	0.94312
3596.20942	0.94302
3594.15562	0.94286
3592.10181	0.94265
3590.04801	0.94231
3587.99421	0.94195
3585.94040	0.94172
3583.88660	0.94164
3581.83280	0.94175
3579.77899	0.94162
3577.72519	0.94153
3575.67139	0.94170
3573.61758	0.94136
3571.56378	0.94068
3569.50998	0.94023
3567.45617	0.94029
3565.40237	0.94077
3563.34857	0.94073
3561.29476	0.94012
3559.24096	0.93952
3557.18716	0.93929
3555.13335	0.93956
3553.07955	0.94030
3551.02575	0.94087
3548.97195	0.94069
3546.91814	0.94014
3544.86434	0.93997
3542.81054	0.94026
3540.75673	0.94022
3538.70293	0.93950
3536.64913	0.93908
3534.59532	0.93935
3532.54152	0.93909
3530.48772	0.93851
3528.43391	0.93849
3526.38011	0.93871
3524.32631	0.93893
3522.27250	0.93910
3520.21870	0.93858
3518.16490	0.93795
3516.11109	0.93811
3514.05729	0.93849
3512.00349	0.93847
3509.94968	0.93841
3507.89588	0.93852
3505.84208	0.93853
3503.78827	0.93845
3501.73447	0.93861
3499.68067	0.93878
3497.62687	0.93858
3495.57306	0.93806
3493.51926	0.93767
3491.46546	0.93763
3489.41165	0.93769
3487.35785	0.93762
3485.30405	0.93754
3483.25024	0.93773
3481.19644	0.93785
3479.14264	0.93748
3477.08883	0.93697
3475.03503	0.93659
3472.98123	0.93629
3470.92742	0.93626
3468.87362	0.93660
3466.81982	0.93699
3464.76601	0.93715
3462.71221	0.93697
3460.65841	0.93663
3458.60460	0.93656
3456.55080	0.93681
3454.49700	0.93713
3452.44319	0.93721
3450.38939	0.93686
3448.33559	0.93682
3446.28178	0.93747
3444.22798	0.93754
3442.17418	0.93642
3440.12038	0.93524
3438.06657	0.93483
3436.01277	0.93501
3433.95897	0.93539
3431.90516	0.93541
3429.85136	0.93483
3427.79756	0.93457
3425.74375	0.93487
3423.68995	0.93462
3421.63615	0.93401
3419.58234	0.93385
3417.52854	0.93417
3415.47474	0.93467
3413.42093	0.93475
3411.36713	0.93436
3409.31333	0.93416
3407.25952	0.93406
3405.20572	0.93385
3403.15192	0.93374
3401.09811	0.93358
3399.04431	0.93317
3396.99051	0.93289
3394.93670	0.93325
3392.88290	0.93396
3390.82910	0.93411
3388.77529	0.93392
3386.72149	0.93399
3384.66769	0.93376
3382.61389	0.93326
3380.56008	0.93320
3378.50628	0.93337
3376.45248	0.93344
3374.39867	0.93328
3372.34487	0.93315
3370.29107	0.93337
3368.23726	0.93401
3366.18346	0.93475
3364.12966	0.93498
3362.07585	0.93472
3360.02205	0.93433
3357.96825	0.93394
3355.91444	0.93364
3353.86064	0.93357
3351.80684	0.93393
3349.75303	0.93437
3347.69923	0.93456
3345.64543	0.93462
3343.59162	0.93429
3341.53782	0.93385
3339.48402	0.93393
3337.43021	0.93422
3335.37641	0.93434
3333.32261	0.93435
3331.26881	0.93418
3329.21500	0.93378
3327.16120	0.93365
3325.10740	0.93412
3323.05359	0.93478
3320.99979	0.93517
3318.94599	0.93505
3316.89218	0.93491
3314.83838	0.93531
3312.78458	0.93564
3310.73077	0.93529
3308.67697	0.93498
3306.62317	0.93534
3304.56936	0.93583
3302.51556	0.93569
3300.46176	0.93495
3298.40795	0.93442
3296.35415	0.93450
3294.30035	0.93511
3292.24654	0.93565
3290.19274	0.93564
3288.13894	0.93545
3286.08513	0.93523
3284.03133	0.93496
3281.97753	0.93491
3279.92372	0.93524
3277.86992	0.93551
3275.81612	0.93545
3273.76232	0.93525
3271.70851	0.93518
3269.65471	0.93539
3267.60091	0.93559
3265.54710	0.93576
3263.49330	0.93619
3261.43950	0.93650
3259.38569	0.93618
3257.33189	0.93585
3255.27809	0.93636
3253.22428	0.93712
3251.17048	0.93731
3249.11668	0.93722
3247.06287	0.93725
3245.00907	0.93733
3242.95527	0.93777
3240.90146	0.93817
3238.84766	0.93782
3236.79386	0.93729
3234.74005	0.93716
3232.68625	0.93707
3230.63245	0.93690
3228.57864	0.93699
3226.52484	0.93727
3224.47104	0.93725
3222.41724	0.93719
3220.36343	0.93730
3218.30963	0.93737
3216.25583	0.93782
3214.20202	0.93851
3212.14822	0.93889
3210.09442	0.93933
3208.04061	0.93975
3205.98681	0.93965
3203.93301	0.93921
3201.87920	0.93884
3199.82540	0.93881
3197.77160	0.93911
3195.71779	0.93933
3193.66399	0.93911
3191.61019	0.93884
3189.55638	0.93906
3187.50258	0.93960
3185.44878	0.93980
3183.39497	0.93959
3181.34117	0.93971
3179.28737	0.93997
3177.23356	0.93960
3175.17976	0.93909
3173.12596	0.93914
3171.07215	0.93986
3169.01835	0.94093
3166.96455	0.94130
3164.91075	0.94067
3162.85694	0.94007
3160.80314	0.93999
3158.74934	0.93999
3156.69553	0.93980
3154.64173	0.93975
3152.58793	0.94006
3150.53412	0.94084
3148.48032	0.94173
3146.42652	0.94208
3144.37271	0.94226
3142.31891	0.94261
3140.26511	0.94281
3138.21130	0.94270
3136.15750	0.94252
3134.10370	0.94243
3132.04989	0.94234
3129.99609	0.94245
3127.94229	0.94283
3125.88848	0.94292
3123.83468	0.94262
3121.78088	0.94252
3119.72707	0.94263
3117.67327	0.94244
3115.61947	0.94210
3113.56566	0.94194
3111.51186	0.94151
3109.45806	0.94048
3107.40426	0.93950
3105.35045	0.93930
3103.29665	0.93974
3101.24285	0.94023
3099.18904	0.94032
3097.13524	0.94022
3095.08144	0.94030
3093.02763	0.93974
3090.97383	0.93807
3088.92003	0.93601
3086.86622	0.93366
3084.81242	0.93094
3082.75862	0.92890
3080.70481	0.92887
3078.65101	0.93049
3076.59721	0.93213
3074.54340	0.93266
3072.48960	0.93230
3070.43580	0.93177
3068.38199	0.93090
3066.32819	0.92913
3064.27439	0.92664
3062.22058	0.92396
3060.16678	0.92188
3058.11298	0.92158
3056.05918	0.92334
3054.00537	0.92627
3051.95157	0.92919
3049.89777	0.93126
3047.84396	0.93248
3045.79016	0.93337
3043.73636	0.93403
3041.68255	0.93413
3039.62875	0.93328
3037.57495	0.93114
3035.52114	0.92731
3033.46734	0.92162
3031.41354	0.91454
3029.35973	0.90691
3027.30593	0.90010
3025.25213	0.89642
3023.19832	0.89782
3021.14452	0.90409
3019.09072	0.91238
3017.03691	0.91973
3014.98311	0.92535
3012.92931	0.92935
3010.87550	0.93186
3008.82170	0.93337
3006.76790	0.93371
3004.71409	0.93283
3002.66029	0.93214
3000.60649	0.93264
2998.55269	0.93398
2996.49888	0.93579
2994.44508	0.93761
2992.39128	0.93900
2990.33747	0.93983
2988.28367	0.94019
2986.22987	0.94038
2984.17606	0.94068
2982.12226	0.94102
2980.06846	0.94123
2978.01465	0.94134
2975.96085	0.94134
2973.90705	0.94105
2971.85324	0.94056
2969.79944	0.94034
2967.74564	0.94053
2965.69183	0.94035
2963.63803	0.93961
2961.58423	0.93895
2959.53042	0.93845
2957.47662	0.93762
2955.42282	0.93640
2953.36901	0.93513
2951.31521	0.93383
2949.26141	0.93227
2947.20761	0.93036
2945.15380	0.92812
2943.10000	0.92547
2941.04620	0.92215
2938.99239	0.91806
2936.93859	0.91344
2934.88479	0.90860
2932.83098	0.90368
2930.77718	0.89878
2928.72338	0.89404
2926.66957	0.89006
2924.61577	0.88719
2922.56197	0.88510
2920.50816	0.88400
2918.45436	0.88418
2916.40056	0.88529
2914.34675	0.88725
2912.29295	0.89010
2910.23915	0.89314
2908.18534	0.89576
2906.13154	0.89831
2904.07774	0.90159
2902.02393	0.90551
2899.97013	0.90901
2897.91633	0.91193
2895.86252	0.91465
2893.80872	0.91703
2891.75492	0.91924
2889.70112	0.92138
2887.64731	0.92290
2885.59351	0.92363
2883.53971	0.92423
2881.48590	0.92529
2879.43210	0.92660
2877.37830	0.92766
2875.32449	0.92840
2873.27069	0.92909
2871.21689	0.92973
2869.16308	0.93009
2867.10928	0.93011
2865.05548	0.92957
2863.00167	0.92870
2860.94787	0.92787
2858.89407	0.92648
2856.84026	0.92410
2854.78646	0.92127
2852.73266	0.91902
2850.67885	0.91795
2848.62505	0.91785
2846.57125	0.91839
2844.51744	0.91981
2842.46364	0.92230
2840.40984	0.92530
2838.35603	0.92815
2836.30223	0.93069
2834.24843	0.93296
2832.19463	0.93474
2830.14082	0.93606
2828.08702	0.93723
2826.03322	0.93822
2823.97941	0.93884
2821.92561	0.93894
2819.87181	0.93883
2817.81800	0.93906
2815.76420	0.93972
2813.71040	0.94022
2811.65659	0.94021
2809.60279	0.94009
2807.54899	0.94028
2805.49518	0.94068
2803.44138	0.94101
2801.38758	0.94144
2799.33377	0.94198
2797.27997	0.94233
2795.22617	0.94231
2793.17236	0.94192
2791.11856	0.94166
2789.06476	0.94173
2787.01095	0.94177
2784.95715	0.94186
2782.90335	0.94221
2780.84955	0.94256
2778.79574	0.94269
2776.74194	0.94263
2774.68814	0.94262
2772.63433	0.94263
2770.58053	0.94246
2768.52673	0.94241
2766.47292	0.94270
2764.41912	0.94317
2762.36532	0.94357
2760.31151	0.94365
2758.25771	0.94355
2756.20391	0.94347
2754.15010	0.94356
2752.09630	0.94386
2750.04250	0.94402
2747.98869	0.94396
2745.93489	0.94380
2743.88109	0.94375
2741.82728	0.94382
2739.77348	0.94376
2737.71968	0.94393
2735.66587	0.94421
2733.61207	0.94417
2731.55827	0.94430
2729.50446	0.94465
2727.45066	0.94481
2725.39686	0.94473
2723.34306	0.94438
2721.28925	0.94405
2719.23545	0.94406
2717.18165	0.94419
2715.12784	0.94427
2713.07404	0.94419
2711.02024	0.94403
2708.96643	0.94401
2706.91263	0.94415
2704.85883	0.94415
2702.80502	0.94387
2700.75122	0.94364
2698.69742	0.94387
2696.64361	0.94437
2694.58981	0.94465
2692.53601	0.94459
2690.48220	0.94435
2688.42840	0.94405
2686.37460	0.94386
2684.32079	0.94414
2682.26699	0.94470
2680.21319	0.94499
2678.15938	0.94508
2676.10558	0.94519
2674.05178	0.94518
2671.99797	0.94491
2669.94417	0.94458
2667.89037	0.94436
2665.83657	0.94411
2663.78276	0.94387
2661.72896	0.94398
2659.67516	0.94427
2657.62135	0.94430
2655.56755	0.94438
2653.51375	0.94466
2651.45994	0.94469
2649.40614	0.94451
2647.35234	0.94438
2645.29853	0.94443
2643.24473	0.94468
2641.19093	0.94479
2639.13712	0.94460
2637.08332	0.94452
2635.02952	0.94479
2632.97571	0.94533
2630.92191	0.94569
2628.86811	0.94543
2626.81430	0.94508
2624.76050	0.94543
2622.70670	0.94615
2620.65289	0.94649
2618.59909	0.94647
2616.54529	0.94648
2614.49149	0.94635
2612.43768	0.94589
2610.38388	0.94559
2608.33008	0.94556
2606.27627	0.94524
2604.22247	0.94495
2602.16867	0.94541
2600.11486	0.94605
2598.06106	0.94606
2596.00726	0.94593
2593.95345	0.94620
2591.89965	0.94636
2589.84585	0.94625
2587.79204	0.94624
2585.73824	0.94601
2583.68444	0.94571
2581.63063	0.94589
2579.57683	0.94629
2577.52303	0.94649
2575.46922	0.94651
2573.41542	0.94676
2571.36162	0.94722
2569.30781	0.94751
2567.25401	0.94769
2565.20021	0.94747
2563.14640	0.94689
2561.09260	0.94690
2559.03880	0.94731
2556.98500	0.94761
2554.93119	0.94800
2552.87739	0.94808
2550.82359	0.94799
2548.76978	0.94816
2546.71598	0.94813
2544.66218	0.94764
2542.60837	0.94733
2540.55457	0.94758
2538.50077	0.94788
2536.44696	0.94785
2534.39316	0.94771
2532.33936	0.94759
2530.28555	0.94759
2528.23175	0.94770
2526.17795	0.94798
2524.12414	0.94831
2522.07034	0.94860
2520.01654	0.94875
2517.96273	0.94838
2515.90893	0.94791
2513.85513	0.94817
2511.80132	0.94880
2509.74752	0.94880
2507.69372	0.94821
2505.63992	0.94768
2503.58611	0.94750
2501.53231	0.94753
2499.47851	0.94784
2497.42470	0.94831
2495.37090	0.94824
2493.31710	0.94767
2491.26329	0.94728
2489.20949	0.94747
2487.15569	0.94812
2485.10188	0.94853
2483.04808	0.94855
2480.99428	0.94870
2478.94047	0.94915
2476.88667	0.94935
2474.83287	0.94894
2472.77906	0.94869
2470.72526	0.94901
2468.67146	0.94913
2466.61765	0.94879
2464.56385	0.94836
2462.51005	0.94808
2460.45624	0.94816
2458.40244	0.94874
2456.34864	0.94932
2454.29483	0.94925
2452.24103	0.94857
2450.18723	0.94808
2448.13343	0.94866
2446.07962	0.94936
2444.02582	0.94879
2441.97202	0.94804
2439.91821	0.94817
2437.86441	0.94829
2435.81061	0.94816
2433.75680	0.94831
2431.70300	0.94869
2429.64920	0.94935
2427.59539	0.95010
2425.54159	0.95028
2423.48779	0.94985
2421.43398	0.94944
2419.38018	0.94923
2417.32638	0.94871
2415.27257	0.94803
2413.21877	0.94799
2411.16497	0.94852
2409.11116	0.94897
2407.05736	0.94922
2405.00356	0.94941
2402.94975	0.94945
2400.89595	0.94935
2398.84215	0.94934
2396.78834	0.94931
2394.73454	0.94915
2392.68074	0.94897
2390.62694	0.94872
2388.57313	0.94858
2386.51933	0.94865
2384.46553	0.94864
2382.41172	0.94846
2380.35792	0.94863
2378.30412	0.94934
2376.25031	0.94989
2374.19651	0.94995
2372.14271	0.95000
2370.08890	0.94983
2368.03510	0.94894
2365.98130	0.94798
2363.92749	0.94777
2361.87369	0.94752
2359.81989	0.94685
2357.76608	0.94654
2355.71228	0.94666
2353.65848	0.94743
2351.60467	0.94829
2349.55087	0.94821
2347.49707	0.94724
2345.44326	0.94619
2343.38946	0.94641
2341.33566	0.94770
2339.28186	0.94844
2337.22805	0.94833
2335.17425	0.94814
2333.12045	0.94868
2331.06664	0.94948
2329.01284	0.94938
2326.95904	0.94833
2324.90523	0.94705
2322.85143	0.94671
2320.79763	0.94722
2318.74382	0.94780
2316.69002	0.94853
2314.63622	0.94917
2312.58241	0.94907
2310.52861	0.94821
2308.47481	0.94790
2306.42100	0.94841
2304.36720	0.94875
2302.31340	0.94905
2300.25959	0.94920
2298.20579	0.94872
2296.15199	0.94834
2294.09818	0.94841
2292.04438	0.94836
2289.99058	0.94808
2287.93677	0.94777
2285.88297	0.94756
2283.82917	0.94758
2281.77537	0.94798
2279.72156	0.94868
2277.66776	0.94923
2275.61396	0.94885
2273.56015	0.94803
2271.50635	0.94830
2269.45255	0.94981
2267.39874	0.95122
2265.34494	0.95180
2263.29114	0.95177
2261.23733	0.95135
2259.18353	0.95132
2257.12973	0.95197
2255.07592	0.95235
2253.02212	0.95180
2250.96832	0.95103
2248.91451	0.95080
2246.86071	0.95077
2244.80691	0.94979
2242.75310	0.94797
2240.69930	0.94801
2238.64550	0.94980
2236.59169	0.95044
2234.53789	0.94998
2232.48409	0.94922
2230.43029	0.94868
2228.37648	0.94938
2226.32268	0.95010
2224.26888	0.95036
2222.21507	0.95117
2220.16127	0.95169
2218.10747	0.95156
2216.05366	0.95189
2213.99986	0.95288
2211.94606	0.95416
2209.89225	0.95544
2207.83845	0.95506
2205.78465	0.95369
2203.73084	0.95328
2201.67704	0.95208
2199.62324	0.94958
2197.56943	0.94831
2195.51563	0.94953
2193.46183	0.95124
2191.40802	0.95137
2189.35422	0.95077
2187.30042	0.95047
2185.24661	0.95128
2183.19281	0.95393
2181.13901	0.95567
2179.08520	0.95446
2177.03140	0.95339
2174.97760	0.95278
2172.92380	0.95054
2170.86999	0.94928
2168.81619	0.95077
2166.76239	0.95268
2164.70858	0.95307
2162.65478	0.95162
2160.60098	0.95108
2158.54717	0.95520
2156.49337	0.96084
2154.43957	0.96157
2152.38576	0.95750
2150.33196	0.95431
2148.27816	0.95528
2146.22435	0.95737
2144.17055	0.95717
2142.11675	0.95580
2140.06294	0.95483
2138.00914	0.95455
2135.95534	0.95547
2133.90153	0.95678
2131.84773	0.95674
2129.79393	0.95587
2127.74012	0.95512
2125.68632	0.95465
2123.63252	0.95515
2121.57871	0.95505
2119.52491	0.95269
2117.47111	0.95043
2115.41731	0.95037
2113.36350	0.95196
2111.30970	0.95347
2109.25590	0.95349
2107.20209	0.95239
2105.14829	0.95154
2103.09449	0.95200
2101.04068	0.95329
2098.98688	0.95392
2096.93308	0.95373
2094.87927	0.95384
2092.82547	0.95417
2090.77167	0.95366
2088.71786	0.95214
2086.66406	0.95109
2084.61026	0.95165
2082.55645	0.95223
2080.50265	0.95192
2078.44885	0.95159
2076.39504	0.95123
2074.34124	0.95136
2072.28744	0.95219
2070.23363	0.95295
2068.17983	0.95340
2066.12603	0.95366
2064.07223	0.95397
2062.01842	0.95393
2059.96462	0.95355
2057.91082	0.95372
2055.85701	0.95448
2053.80321	0.95502
2051.74941	0.95432
2049.69560	0.95260
2047.64180	0.95194
2045.58800	0.95240
2043.53419	0.95269
2041.48039	0.95331
2039.42659	0.95475
2037.37278	0.95678
2035.31898	0.95847
2033.26518	0.95948
2031.21137	0.96077
2029.15757	0.96158
2027.10377	0.96052
2025.04996	0.95875
2022.99616	0.95793
2020.94236	0.95837
2018.88855	0.95944
2016.83475	0.95996
2014.78095	0.95884
2012.72714	0.95544
2010.67334	0.95137
2008.61954	0.95017
2006.56574	0.95272
2004.51193	0.95570
2002.45813	0.95636
2000.40433	0.95614
1998.35052	0.95622
1996.29672	0.95559
1994.24292	0.95559
1992.18911	0.95696
1990.13531	0.95815
1988.08151	0.95807
1986.02770	0.95553
1983.97390	0.95072
1981.92010	0.94656
1979.86629	0.94720
1977.81249	0.95228
1975.75869	0.95587
1973.70488	0.95539
1971.65108	0.95433
1969.59728	0.95454
1967.54347	0.95372
1965.48967	0.95296
1963.43587	0.95497
1961.38206	0.95623
1959.32826	0.95388
1957.27446	0.95145
1955.22066	0.95143
1953.16685	0.95185
1951.11305	0.95036
1949.05925	0.94837
1947.00544	0.94842
1944.95164	0.94939
1942.89784	0.94931
1940.84403	0.94858
1938.79023	0.94798
1936.73643	0.94776
1934.68262	0.94787
1932.62882	0.94812
1930.57502	0.94924
1928.52121	0.95123
1926.46741	0.95281
1924.41361	0.95320
1922.35980	0.95278
1920.30600	0.95263
1918.25220	0.95257
1916.19839	0.95226
1914.14459	0.95258
1912.09079	0.95329
1910.03698	0.95302
1907.98318	0.95205
1905.92938	0.95182
1903.87557	0.95267
1901.82177	0.95355
1899.76797	0.95289
1897.71417	0.95145
1895.66036	0.95123
1893.60656	0.95191
1891.55276	0.95200
1889.49895	0.95155
1887.44515	0.95095
1885.39135	0.95033
1883.33754	0.94963
1881.28374	0.94906
1879.22994	0.94900
1877.17613	0.94857
1875.12233	0.94781
1873.06853	0.94755
1871.01472	0.94775
1868.96092	0.94836
1866.90712	0.94858
1864.85331	0.94828
1862.79951	0.94846
1860.74571	0.94904
1858.69190	0.94957
1856.63810	0.95011
1854.58430	0.95065
1852.53049	0.95102
1850.47669	0.95119
1848.42289	0.95150
1846.36908	0.95200
1844.31528	0.95275
1842.26148	0.95343
1840.20768	0.95313
1838.15387	0.95228
1836.10007	0.95199
1834.04627	0.95240
1831.99246	0.95248
1829.93866	0.95177
1827.88486	0.95123
1825.83105	0.95136
1823.77725	0.95120
1821.72345	0.95064
1819.66964	0.95034
1817.61584	0.95037
1815.56204	0.95048
1813.50823	0.95014
1811.45443	0.94932
1809.40063	0.94871
1807.34682	0.94857
1805.29302	0.94852
1803.23922	0.94833
1801.18541	0.94824
1799.13161	0.94814
1797.07781	0.94805
1795.02400	0.94857
1792.97020	0.94935
1790.91640	0.94988
1788.86260	0.95034
1786.80879	0.95052
1784.75499	0.95053
1782.70119	0.95088
1780.64738	0.95134
1778.59358	0.95146
1776.53978	0.95129
1774.48597	0.95115
1772.43217	0.95154
1770.37837	0.95198
1768.32456	0.95161
1766.27076	0.95100
1764.21696	0.95061
1762.16315	0.95033
1760.10935	0.95009
1758.05555	0.94968
1756.00174	0.94895
1753.94794	0.94831
1751.89414	0.94792
1749.84033	0.94734
1747.78653	0.94652
1745.73273	0.94574
1743.67892	0.94489
1741.62512	0.94451
1739.57132	0.94497
1737.51751	0.94551
1735.46371	0.94585
1733.40991	0.94615
1731.35611	0.94620
1729.30230	0.94609
1727.24850	0.94609
1725.19470	0.94605
1723.14089	0.94569
1721.08709	0.94530
1719.03329	0.94528
1716.97948	0.94619
1714.92568	0.94731
1712.87188	0.94758
1710.81807	0.94742
1708.76427	0.94712
1706.71047	0.94665
1704.65666	0.94630
1702.60286	0.94630
1700.54906	0.94606
1698.49525	0.94506
1696.44145	0.94404
1694.38765	0.94364
1692.33384	0.94337
1690.28004	0.94260
1688.22624	0.94151
1686.17243	0.94079
1684.11863	0.94057
1682.06483	0.94025
1680.01103	0.93949
1677.95722	0.93876
1675.90342	0.93809
1673.84962	0.93705
1671.79581	0.93601
1669.74201	0.93530
1667.68821	0.93477
1665.63440	0.93413
1663.58060	0.93362
1661.52680	0.93371
1659.47299	0.93391
1657.41919	0.93379
1655.36539	0.93357
1653.31158	0.93345
1651.25778	0.93358
1649.20398	0.93367
1647.15017	0.93401
1645.09637	0.93478
1643.04257	0.93539
1640.98876	0.93570
1638.93496	0.93578
1636.88116	0.93595
1634.82735	0.93633
1632.77355	0.93647
1630.71975	0.93649
1628.66594	0.93651
1626.61214	0.93640
1624.55834	0.93633
1622.50454	0.93679
1620.45073	0.93750
1618.39693	0.93794
1616.34313	0.93803
1614.28932	0.93765
1612.23552	0.93671
1610.18172	0.93452
1608.12791	0.92953
1606.07411	0.92109
1604.02031	0.91082
1601.96650	0.90307
1599.91270	0.90253
1597.85890	0.90869
1595.80509	0.91719
1593.75129	0.92429
1591.69749	0.92882
1589.64368	0.93119
1587.58988	0.93132
1585.53608	0.92938
1583.48227	0.92753
1581.42847	0.92843
1579.37467	0.93167
1577.32086	0.93533
1575.26706	0.93807
1573.21326	0.93927
1571.15945	0.94004
1569.10565	0.94083
1567.05185	0.94136
1564.99805	0.94183
1562.94424	0.94208
1560.89044	0.94159
1558.83664	0.94036
1556.78283	0.94009
1554.72903	0.94024
1552.67523	0.94021
1550.62142	0.94041
1548.56762	0.94028
1546.51382	0.93940
1544.46001	0.93858
1542.40621	0.93852
1540.35241	0.93905
1538.29860	0.93973
1536.24480	0.94019
1534.19100	0.94057
1532.13719	0.94116
1530.08339	0.94192
1528.02959	0.94270
1525.97578	0.94348
1523.92198	0.94430
1521.86818	0.94492
1519.81437	0.94515
1517.76057	0.94519
1515.70677	0.94536
1513.65297	0.94596
1511.59916	0.94668
1509.54536	0.94700
1507.49156	0.94663
1505.43775	0.94548
1503.38395	0.94386
1501.33015	0.94060
1499.27634	0.93146
1497.22254	0.90574
1495.16874	0.86625
1493.11493	0.84075
1491.06113	0.84411
1489.00733	0.87397
1486.95352	0.90206
1484.89972	0.91706
1482.84592	0.92600
1480.79211	0.93170
1478.73831	0.93484
1476.68451	0.93672
1474.63070	0.93818
1472.57690	0.93924
1470.52310	0.93950
1468.46929	0.93917
1466.41549	0.93865
1464.36169	0.93781
1462.30788	0.93637
1460.25408	0.93319
1458.20028	0.92050
1456.14648	0.88543
1454.09267	0.85116
1452.03887	0.83524
1449.98507	0.83830
1447.93126	0.85396
1445.87746	0.86987
1443.82366	0.88179
1441.76985	0.89185
1439.71605	0.89992
1437.66225	0.90706
1435.60844	0.91468
1433.55464	0.92047
1431.50084	0.92476
1429.44703	0.92855
1427.39323	0.93116
1425.33943	0.93291
1423.28562	0.93450
1421.23182	0.93569
1419.17802	0.93632
1417.12421	0.93672
1415.07041	0.93702
1413.01661	0.93717
1410.96280	0.93746
1408.90900	0.93822
1406.85520	0.93920
1404.80139	0.93999
1402.74759	0.94036
1400.69379	0.94036
1398.63999	0.94019
1396.58618	0.94009
1394.53238	0.93982
1392.47858	0.93916
1390.42477	0.93836
1388.37097	0.93731
1386.31717	0.93575
1384.26336	0.93406
1382.20956	0.93242
1380.15576	0.93094
1378.10195	0.92966
1376.04815	0.92847
1373.99435	0.92761
1371.94054	0.92710
1369.88674	0.92697
1367.83294	0.92730
1365.77913	0.92757
1363.72533	0.92767
1361.67153	0.92823
1359.61772	0.92903
1357.56392	0.92974
1355.51012	0.93050
1353.45631	0.93095
1351.40251	0.93108
1349.34871	0.93150
1347.29491	0.93218
1345.24110	0.93276
1343.18730	0.93325
1341.13350	0.93368
1339.07969	0.93405
1337.02589	0.93419
1334.97209	0.93384
1332.91828	0.93297
1330.86448	0.93200
1328.81068	0.93150
1326.75687	0.93166
1324.70307	0.93219
1322.64927	0.93280
1320.59546	0.93336
1318.54166	0.93358
1316.48786	0.93318
1314.43405	0.93249
1312.38025	0.93231
1310.32645	0.93273
1308.27264	0.93330
1306.21884	0.93398
1304.16504	0.93465
1302.11123	0.93513
1300.05743	0.93549
1298.00363	0.93569
1295.94982	0.93579
1293.89602	0.93609
1291.84222	0.93655
1289.78842	0.93694
1287.73461	0.93721
1285.68081	0.93733
1283.62701	0.93715
1281.57320	0.93659
1279.51940	0.93598
1277.46560	0.93577
1275.41179	0.93589
1273.35799	0.93614
1271.30419	0.93639
1269.25038	0.93656
1267.19658	0.93662
1265.14278	0.93671
1263.08897	0.93701
1261.03517	0.93752
1258.98137	0.93791
1256.92756	0.93796
1254.87376	0.93784
1252.81996	0.93776
1250.76615	0.93769
1248.71235	0.93752
1246.65855	0.93730
1244.60474	0.93691
1242.55094	0.93632
1240.49714	0.93615
1238.44334	0.93645
1236.38953	0.93657
1234.33573	0.93646
1232.28193	0.93645
1230.22812	0.93646
1228.17432	0.93635
1226.12052	0.93632
1224.06671	0.93626
1222.01291	0.93583
1219.95911	0.93523
1217.90530	0.93463
1215.85150	0.93393
1213.79770	0.93319
1211.74389	0.93221
1209.69009	0.93080
1207.63629	0.92923
1205.58248	0.92773
1203.52868	0.92620
1201.47488	0.92456
1199.42107	0.92311
1197.36727	0.92169
1195.31347	0.91986
1193.25966	0.91793
1191.20586	0.91619
1189.15206	0.91436
1187.09825	0.91189
1185.04445	0.90872
1182.99065	0.90560
1180.93685	0.90344
1178.88304	0.90278
1176.82924	0.90334
1174.77544	0.90394
1172.72163	0.90370
1170.66783	0.90272
1168.61403	0.90146
1166.56022	0.90026
1164.50642	0.89915
1162.45262	0.89778
1160.39881	0.89555
1158.34501	0.89220
1156.29121	0.88857
1154.23740	0.88610
1152.18360	0.88568
1150.12980	0.88691
1148.07599	0.88864
1146.02219	0.88976
1143.96839	0.88989
1141.91458	0.88962
1139.86078	0.88962
1137.80698	0.88971
1135.75317	0.88949
1133.69937	0.88889
1131.64557	0.88800
1129.59176	0.88684
1127.53796	0.88532
1125.48416	0.88368
1123.43036	0.88178
1121.37655	0.87909
1119.32275	0.87581
1117.26895	0.87248
1115.21514	0.86927
1113.16134	0.86628
1111.10754	0.86366
1109.05373	0.86160
1106.99993	0.86019
1104.94613	0.85916
1102.89232	0.85845
1100.83852	0.85789
1098.78472	0.85697
1096.73091	0.85595
1094.67711	0.85557
1092.62331	0.85566
1090.56950	0.85539
1088.51570	0.85476
1086.46190	0.85419
1084.40809	0.85372
1082.35429	0.85326
1080.30049	0.85255
1078.24668	0.85159
1076.19288	0.85029
1074.13908	0.84832
1072.08528	0.84575
1070.03147	0.84329
1067.97767	0.84204
1065.92387	0.84199
1063.87006	0.84207
1061.81626	0.84206
1059.76246	0.84246
1057.70865	0.84281
1055.65485	0.84228
1053.60105	0.84106
1051.54724	0.83943
1049.49344	0.83768
1047.43964	0.83627
1045.38583	0.83486
1043.33203	0.83291
1041.27823	0.83044
1039.22442	0.82763
1037.17062	0.82363
1035.11682	0.81710
1033.06301	0.80823
1031.00921	0.79920
1028.95541	0.79322
1026.90160	0.79265
1024.84780	0.79720
1022.79400	0.80368
1020.74019	0.80903
1018.68639	0.81289
1016.63259	0.81598
1014.57879	0.81854
1012.52498	0.82049
1010.47118	0.82179
1008.41738	0.82252
1006.36357	0.82316
1004.30977	0.82435
1002.25597	0.82693
1000.20216	0.83141
998.14836	0.83697
996.09456	0.84239
994.04075	0.84714
991.98695	0.85144
989.93315	0.85546
987.87934	0.85897
985.82554	0.86193
983.77174	0.86454
981.71793	0.86702
979.66413	0.87008
977.61033	0.87411
975.55652	0.87875
973.50272	0.88299
971.44892	0.88572
969.39511	0.88707
967.34131	0.88782
965.28751	0.88875
963.23371	0.89045
961.17990	0.89296
959.12610	0.89610
957.07230	0.89929
955.01849	0.90164
952.96469	0.90280
950.91089	0.90343
948.85708	0.90410
946.80328	0.90460
944.74948	0.90473
942.69567	0.90479
940.64187	0.90535
938.58807	0.90653
936.53426	0.90780
934.48046	0.90908
932.42666	0.91068
930.37285	0.91221
928.31905	0.91294
926.26525	0.91263
924.21144	0.91183
922.15764	0.91108
920.10384	0.91020
918.05003	0.90850
915.99623	0.90541
913.94243	0.90094
911.88862	0.89606
909.83482	0.89198
907.78102	0.88947
905.72722	0.88943
903.67341	0.89244
901.61961	0.89830
899.56581	0.90570
897.51200	0.91242
895.45820	0.91728
893.40440	0.92053
891.35059	0.92275
889.29679	0.92399
887.24299	0.92407
885.18918	0.92426
883.13538	0.92558
881.08158	0.92683
879.02777	0.92715
876.97397	0.92751
874.92017	0.92851
872.86636	0.92971
870.81256	0.93058
868.75876	0.93144
866.70495	0.93253
864.65115	0.93305
862.59735	0.93299
860.54354	0.93310
858.48974	0.93334
856.43594	0.93343
854.38213	0.93326
852.32833	0.93245
850.27453	0.93111
848.22073	0.92958
846.16692	0.92803
844.11312	0.92654
842.05932	0.92530
840.00551	0.92538
837.95171	0.92711
835.89791	0.92951
833.84410	0.93180
831.79030	0.93372
829.73650	0.93511
827.68269	0.93572
825.62889	0.93617
823.57509	0.93703
821.52128	0.93721
819.46748	0.93668
817.41368	0.93680
815.35987	0.93704
813.30607	0.93615
811.25227	0.93484
809.19846	0.93417
807.14466	0.93346
805.09086	0.93171
803.03705	0.93004
800.98325	0.92990
798.92945	0.93006
796.87565	0.92893
794.82184	0.92753
792.76804	0.92641
790.71424	0.92497
788.66043	0.92348
786.60663	0.92210
784.55283	0.92007
782.49902	0.91668
780.44522	0.91166
778.39142	0.90526
776.33761	0.89798
774.28381	0.88888
772.23001	0.87670
770.17620	0.86209
768.12240	0.84633
766.06860	0.83060
764.01479	0.81533
761.96099	0.80001
759.90719	0.78487
757.85338	0.77218
755.79958	0.76450
753.74578	0.76224
751.69197	0.76340
749.63817	0.76540
747.58437	0.76939
745.53056	0.78011
743.47676	0.79903
741.42296	0.82122
739.36916	0.84130
737.31535	0.85878
735.26155	0.87498
733.20775	0.88961
731.15394	0.90168
729.10014	0.91040
727.04634	0.91616
724.99253	0.92016
722.93873	0.92265
720.88493	0.92371
718.83112	0.92391
716.77732	0.92323
714.72352	0.92049
712.66971	0.91324
710.61591	0.89709
708.56211	0.86606
706.50830	0.81584
704.45450	0.74666
702.40070	0.66260
700.34689	0.57069
698.29309	0.48491
696.23929	0.43525
694.18548	0.45561
692.13168	0.53923
690.07788	0.63711
688.02408	0.71223
685.97027	0.76100
683.91647	0.79220
681.86267	0.81296
679.80886	0.82723
677.75506	0.83737
675.70126	0.84484
673.64745	0.85049
671.59365	0.85451
669.53985	0.85800
667.48604	0.86334
665.43224	0.86834
663.37844	0.87182
661.32463	0.87505
659.27083	0.87823
657.21703	0.88131
655.16322	0.88399
653.10942	0.88566
651.05562	0.88636
649.00181	0.88680
646.94801	0.88755
644.89421	0.88905
642.84040	0.89121
640.78660	0.89323
638.73280	0.89376
636.67899	0.89218
634.62519	0.89041
632.57139	0.89009
630.51759	0.89047
628.46378	0.89042
626.40998	0.88908
624.35618	0.88734
622.30237	0.88601
620.24857	0.88472
618.19477	0.88401
616.14096	0.88440
614.08716	0.88555
612.03336	0.88631
609.97955	0.88595
607.92575	0.88520
605.87195	0.88413
603.81814	0.88166
601.76434	0.87945
599.71054	0.87985
597.65673	0.88067
595.60293	0.88005
593.54913	0.87902
591.49532	0.87724
589.44152	0.87458
587.38772	0.87259
585.33391	0.87180
583.28011	0.87093
581.22631	0.86967
579.17250	0.86857
577.11870	0.86603
575.06490	0.86151
573.01110	0.85642
570.95729	0.85208
568.90349	0.84879
566.84969	0.84480
564.79588	0.83951
562.74208	0.83419
560.68828	0.82958
558.63447	0.82490
556.58067	0.81916
554.52687	0.81261
552.47306	0.80610
550.41926	0.79926
548.36546	0.79005
546.31165	0.77770
544.25785	0.76491
542.20405	0.75464
540.15024	0.74701
538.09644	0.74236
536.04264	0.74288
533.98883	0.75015
531.93503	0.76247
529.88123	0.77645
527.82742	0.78947
525.77362	0.80030
523.71982	0.80944
521.66602	0.81851
519.61221	0.82693
517.55841	0.83330
515.50461	0.83894
513.45080	0.84354
511.39700	0.84717
509.34320	0.85142
507.28939	0.85557
505.23559	0.85887
503.18179	0.86123
501.12798	0.86259
499.07418	0.86411
497.02038	0.86553
494.96657	0.86457
492.91277	0.86193
490.85897	0.85957
488.80516	0.85756
486.75136	0.85620
484.69756	0.85538
482.64375	0.85415
480.58995	0.84975
478.53615	0.84208
476.48234	0.83617
474.42854	0.83152
472.37474	0.82424
470.32093	0.81870
468.26713	0.81828
466.21333	0.82021
464.15953	0.82220
462.10572	0.82393
460.05192	0.82577
457.99812	0.82883
455.94431	0.83470
453.89051	0.84132
451.83671	0.84731
449.78290	0.85280
447.72910	0.85614
445.67530	0.85601
443.62149	0.85425
441.56769	0.85442
439.51389	0.85595
437.46008	0.85661
435.40628	0.85588
433.35248	0.85034
431.29867	0.84204
429.24487	0.83885
427.19107	0.83926
425.13726	0.83911
423.08346	0.84068
421.02966	0.84646
418.97585	0.85453
416.92205	0.85914
414.86825	0.86187
412.81445	0.86440
410.76064	0.86447
408.70684	0.86317
406.65304	0.86506
404.59923	0.87059
402.54543	0.87366
400.49163	0.87192
398.43782	0.87169
