3996.70104	0.98755
3994.64724	0.98715
3992.59344	0.98659
3990.53964	0.98650
3988.48583	0.98685
3986.43203	0.98721
3984.37823	0.98729
3982.32442	0.98693
3980.27062	0.98651
3978.21682	0.98614
3976.16301	0.98585
3974.10921	0.98650
3972.05541	0.98736
3970.00160	0.98715
3967.94780	0.98682
3965.89400	0.98723
3963.84019	0.98759
3961.78639	0.98740
3959.73259	0.98698
3957.67878	0.98650
3955.62498	0.98624
3953.57118	0.98667
3951.51737	0.98740
3949.46357	0.98784
3947.40977	0.98757
3945.35596	0.98706
3943.30216	0.98720
3941.24836	0.98753
3939.19455	0.98733
3937.14075	0.98717
3935.08695	0.98730
3933.03315	0.98717
3930.97934	0.98704
3928.92554	0.98745
3926.87174	0.98772
3924.81793	0.98760
3922.76413	0.98717
3920.71033	0.98648
3918.65652	0.98586
3916.60272	0.98583
3914.54892	0.98632
3912.49511	0.98652
3910.44131	0.98634
3908.38751	0.98640
3906.33370	0.98687
3904.27990	0.98722
3902.22610	0.98708
3900.17229	0.98665
3898.11849	0.98609
3896.06469	0.98584
3894.01088	0.98634
3891.95708	0.98712
3889.90328	0.98698
3887.84947	0.98636
3885.79567	0.98636
3883.74187	0.98673
3881.68807	0.98683
3879.63426	0.98695
3877.58046	0.98694
3875.52666	0.98664
3873.47285	0.98627
3871.41905	0.98600
3869.36525	0.98611
3867.31144	0.98681
3865.25764	0.98708
3863.20384	0.98594
3861.15003	0.98536
3859.09623	0.98656
3857.04243	0.98731
3854.98862	0.98593
3852.93482	0.98520
3850.88102	0.98719
3848.82721	0.98795
3846.77341	0.98725
3844.71961	0.98632
3842.66580	0.98639
3840.61200	0.98737
3838.55820	0.98813
3836.50439	0.98809
3834.45059	0.98785
3832.39679	0.98785
3830.34298	0.98765
3828.28918	0.98702
3826.23538	0.98627
3824.18158	0.98583
3822.12777	0.98597
3820.07397	0.98670
3818.02017	0.98738
3815.96636	0.98806
3813.91256	0.98856
3811.85876	0.98869
3809.80495	0.98891
3807.75115	0.98906
3805.69735	0.98848
3803.64354	0.98741
3801.58974	0.98689
3799.53594	0.98706
3797.48213	0.98678
3795.42833	0.98666
3793.37453	0.98714
3791.32072	0.98732
3789.26692	0.98721
3787.21312	0.98764
3785.15931	0.98823
3783.10551	0.98770
3781.05171	0.98640
3778.99790	0.98587
3776.94410	0.98609
3774.89030	0.98636
3772.83650	0.98696
3770.78269	0.98772
3768.72889	0.98785
3766.67509	0.98776
3764.62128	0.98795
3762.56748	0.98789
3760.51368	0.98746
3758.45987	0.98727
3756.40607	0.98763
3754.35227	0.98766
3752.29846	0.98716
3750.24466	0.98695
3748.19086	0.98727
3746.13705	0.98771
3744.08325	0.98752
3742.02945	0.98640
3739.97564	0.98595
3737.92184	0.98672
3735.86804	0.98747
3733.81423	0.98648
3731.76043	0.98510
3729.70663	0.98478
3727.65282	0.98493
3725.59902	0.98479
3723.54522	0.98413
3721.49141	0.98323
3719.43761	0.98218
3717.38381	0.98070
3715.33001	0.97876
3713.27620	0.97609
3711.22240	0.97240
3709.16860	0.96859
3707.11479	0.96459
3705.06099	0.95977
3703.00719	0.95409
3700.95338	0.94877
3698.89958	0.94616
3696.84578	0.94591
3694.79197	0.94673
3692.73817	0.94831
3690.68437	0.95083
3688.63056	0.95420
3686.57676	0.95708
3684.52296	0.95878
3682.46915	0.95964
3680.41535	0.96016
3678.36155	0.96087
3676.30774	0.96132
3674.25394	0.96044
3672.20014	0.95944
3670.14633	0.95858
3668.09253	0.95750
3666.03873	0.95651
3663.98492	0.95554
3661.93112	0.95503
3659.87732	0.95494
3657.82352	0.95431
3655.76971	0.95276
3653.71591	0.95144
3651.66211	0.95101
3649.60830	0.95043
3647.55450	0.94857
3645.50070	0.94698
3643.44689	0.94673
3641.39309	0.94702
3639.33929	0.94670
3637.28548	0.94584
3635.23168	0.94495
3633.17788	0.94415
3631.12407	0.94343
3629.07027	0.94183
3627.01647	0.93948
3624.96266	0.93769
3622.90886	0.93624
3620.85506	0.93548
3618.80125	0.93575
3616.74745	0.93758
3614.69365	0.94037
3612.63984	0.94207
3610.58604	0.94216
3608.53224	0.94172
3606.47844	0.94135
3604.42463	0.94153
3602.37083	0.94187
3600.31703	0.94164
3598.26322	0.94110
3596.20942	0.94087
3594.15562	0.94083
3592.10181	0.94070
3590.04801	0.94081
3587.99421	0.94085
3585.94040	0.94028
3583.88660	0.94009
3581.83280	0.94015
3579.77899	0.93987
3577.72519	0.93966
3575.67139	0.93936
3573.61758	0.93856
3571.56378	0.93792
3569.50998	0.93740
3567.45617	0.93611
3565.40237	0.93460
3563.34857	0.93374
3561.29476	0.93319
3559.24096	0.93280
3557.18716	0.93258
3555.13335	0.93190
3553.07955	0.93047
3551.02575	0.92973
3548.97195	0.93013
3546.91814	0.93050
3544.86434	0.93052
3542.81054	0.92989
3540.75673	0.92865
3538.70293	0.92771
3536.64913	0.92735
3534.59532	0.92710
3532.54152	0.92676
3530.48772	0.92687
3528.43391	0.92769
3526.38011	0.92834
3524.32631	0.92822
3522.27250	0.92794
3520.21870	0.92801
3518.16490	0.92828
3516.11109	0.92886
3514.05729	0.92974
3512.00349	0.93029
3509.94968	0.93013
3507.89588	0.92963
3505.84208	0.92920
3503.78827	0.92857
3501.73447	0.92790
3499.68067	0.92778
3497.62687	0.92773
3495.57306	0.92770
3493.51926	0.92814
3491.46546	0.92843
3489.41165	0.92784
3487.35785	0.92670
3485.30405	0.92596
3483.25024	0.92605
3481.19644	0.92648
3479.14264	0.92641
3477.08883	0.92589
3475.03503	0.92548
3472.98123	0.92508
3470.92742	0.92474
3468.87362	0.92461
3466.81982	0.92423
3464.76601	0.92349
3462.71221	0.92289
3460.65841	0.92265
3458.60460	0.92266
3456.55080	0.92254
3454.49700	0.92208
3452.44319	0.92166
3450.38939	0.92155
3448.33559	0.92124
3446.28178	0.92036
3444.22798	0.91970
3442.17418	0.91966
3440.12038	0.91969
3438.06657	0.91956
3436.01277	0.91924
3433.95897	0.91887
3431.90516	0.91848
3429.85136	0.91782
3427.79756	0.91706
3425.74375	0.91622
3423.68995	0.91521
3421.63615	0.91436
3419.58234	0.91389
3417.52854	0.91348
3415.47474	0.91290
3413.42093	0.91228
3411.36713	0.91157
3409.31333	0.91093
3407.25952	0.91078
3405.20572	0.91076
3403.15192	0.91047
3401.09811	0.91027
3399.04431	0.91023
3396.99051	0.91017
3394.93670	0.91023
3392.88290	0.91041
3390.82910	0.91098
3388.77529	0.91189
3386.72149	0.91232
3384.66769	0.91228
3382.61389	0.91234
3380.56008	0.91275
3378.50628	0.91346
3376.45248	0.91411
3374.39867	0.91436
3372.34487	0.91435
3370.29107	0.91447
3368.23726	0.91487
3366.18346	0.91559
3364.12966	0.91612
3362.07585	0.91597
3360.02205	0.91572
3357.96825	0.91594
3355.91444	0.91637
3353.86064	0.91656
3351.80684	0.91652
3349.75303	0.91648
3347.69923	0.91661
3345.64543	0.91682
3343.59162	0.91705
3341.53782	0.91728
3339.48402	0.91722
3337.43021	0.91712
3335.37641	0.91759
3333.32261	0.91827
3331.26881	0.91870
3329.21500	0.91917
3327.16120	0.91931
3325.10740	0.91889
3323.05359	0.91877
3320.99979	0.91950
3318.94599	0.92065
3316.89218	0.92104
3314.83838	0.92056
3312.78458	0.92044
3310.73077	0.92095
3308.67697	0.92153
3306.62317	0.92189
3304.56936	0.92208
3302.51556	0.92206
3300.46176	0.92188
3298.40795	0.92189
3296.35415	0.92234
3294.30035	0.92312
3292.24654	0.92390
3290.19274	0.92451
3288.13894	0.92496
3286.08513	0.92501
3284.03133	0.92448
3281.97753	0.92409
3279.92372	0.92461
3277.86992	0.92547
3275.81612	0.92558
3273.76232	0.92496
3271.70851	0.92504
3269.65471	0.92615
3267.60091	0.92699
3265.54710	0.92709
3263.49330	0.92679
3261.43950	0.92653
3259.38569	0.92683
3257.33189	0.92749
3255.27809	0.92776
3253.22428	0.92743
3251.17048	0.92736
3249.11668	0.92803
3247.06287	0.92853
3245.00907	0.92863
3242.95527	0.92899
3240.90146	0.92942
3238.84766	0.92990
3236.79386	0.93053
3234.74005	0.93117
3232.68625	0.93170
3230.63245	0.93177
3228.57864	0.93182
3226.52484	0.93237
3224.47104	0.93289
3222.41724	0.93307
3220.36343	0.93319
3218.30963	0.93381
3216.25583	0.93492
3214.20202	0.93551
3212.14822	0.93517
3210.09442	0.93499
3208.04061	0.93549
3205.98681	0.93611
3203.93301	0.93656
3201.87920	0.93689
3199.82540	0.93738
3197.77160	0.93803
3195.71779	0.93854
3193.66399	0.93894
3191.61019	0.93936
3189.55638	0.93984
3187.50258	0.94039
3185.44878	0.94087
3183.39497	0.94100
3181.34117	0.94112
3179.28737	0.94161
3177.23356	0.94202
3175.17976	0.94232
3173.12596	0.94287
3171.07215	0.94362
3169.01835	0.94437
3166.96455	0.94517
3164.91075	0.94593
3162.85694	0.94653
3160.80314	0.94720
3158.74934	0.94780
3156.69553	0.94795
3154.64173	0.94785
3152.58793	0.94807
3150.53412	0.94886
3148.48032	0.94978
3146.42652	0.95044
3144.37271	0.95081
3142.31891	0.95093
3140.26511	0.95124
3138.21130	0.95176
3136.15750	0.95209
3134.10370	0.95232
3132.04989	0.95255
3129.99609	0.95300
3127.94229	0.95373
3125.88848	0.95421
3123.83468	0.95418
3121.78088	0.95409
3119.72707	0.95463
3117.67327	0.95553
3115.61947	0.95610
3113.56566	0.95625
3111.51186	0.95614
3109.45806	0.95612
3107.40426	0.95637
3105.35045	0.95644
3103.29665	0.95645
3101.24285	0.95682
3099.18904	0.95715
3097.13524	0.95713
3095.08144	0.95714
3093.02763	0.95760
3090.97383	0.95817
3088.92003	0.95842
3086.86622	0.95855
3084.81242	0.95872
3082.75862	0.95896
3080.70481	0.95924
3078.65101	0.95928
3076.59721	0.95907
3074.54340	0.95932
3072.48960	0.96011
3070.43580	0.96078
3068.38199	0.96093
3066.32819	0.96081
3064.27439	0.96093
3062.22058	0.96124
3060.16678	0.96129
3058.11298	0.96136
3056.05918	0.96174
3054.00537	0.96215
3051.95157	0.96244
3049.89777	0.96269
3047.84396	0.96284
3045.79016	0.96285
3043.73636	0.96307
3041.68255	0.96361
3039.62875	0.96381
3037.57495	0.96354
3035.52114	0.96345
3033.46734	0.96378
3031.41354	0.96408
3029.35973	0.96411
3027.30593	0.96416
3025.25213	0.96436
3023.19832	0.96436
3021.14452	0.96422
3019.09072	0.96448
3017.03691	0.96494
3014.98311	0.96510
3012.92931	0.96507
3010.87550	0.96501
3008.82170	0.96498
3006.76790	0.96509
3004.71409	0.96523
3002.66029	0.96522
3000.60649	0.96522
2998.55269	0.96538
2996.49888	0.96557
2994.44508	0.96538
2992.39128	0.96480
2990.33747	0.96413
2988.28367	0.96340
2986.22987	0.96287
2984.17606	0.96259
2982.12226	0.96206
2980.06846	0.96129
2978.01465	0.96046
2975.96085	0.95929
2973.90705	0.95789
2971.85324	0.95643
2969.79944	0.95465
2967.74564	0.95268
2965.69183	0.95059
2963.63803	0.94809
2961.58423	0.94558
2959.53042	0.94349
2957.47662	0.94169
2955.42282	0.94020
2953.36901	0.93884
2951.31521	0.93694
2949.26141	0.93409
2947.20761	0.93057
2945.15380	0.92657
2943.10000	0.92114
2941.04620	0.91346
2938.99239	0.90360
2936.93859	0.89162
2934.88479	0.87742
2932.83098	0.86098
2930.77718	0.84180
2928.72338	0.81895
2926.66957	0.79191
2924.61577	0.76050
2922.56197	0.72460
2920.50816	0.68594
2918.45436	0.64930
2916.40056	0.62201
2914.34675	0.61187
2912.29295	0.62128
2910.23915	0.64424
2908.18534	0.67167
2906.13154	0.69760
2904.07774	0.71998
2902.02393	0.73859
2899.97013	0.75382
2897.91633	0.76676
2895.86252	0.77876
2893.80872	0.79052
2891.75492	0.80215
2889.70112	0.81370
2887.64731	0.82542
2885.59351	0.83751
2883.53971	0.84966
2881.48590	0.86156
2879.43210	0.87318
2877.37830	0.88427
2875.32449	0.89393
2873.27069	0.90142
2871.21689	0.90621
2869.16308	0.90815
2867.10928	0.90770
2865.05548	0.90482
2863.00167	0.89804
2860.94787	0.88541
2858.89407	0.86534
2856.84026	0.83538
2854.78646	0.79239
2852.73266	0.73757
2850.67885	0.68165
2848.62505	0.64412
2846.57125	0.64090
2844.51744	0.67027
2842.46364	0.71644
2840.40984	0.76382
2838.35603	0.80403
2836.30223	0.83566
2834.24843	0.86049
2832.19463	0.88009
2830.14082	0.89539
2828.08702	0.90729
2826.03322	0.91653
2823.97941	0.92357
2821.92561	0.92940
2819.87181	0.93464
2817.81800	0.93893
2815.76420	0.94225
2813.71040	0.94496
2811.65659	0.94737
2809.60279	0.94971
2807.54899	0.95188
2805.49518	0.95367
2803.44138	0.95520
2801.38758	0.95686
2799.33377	0.95861
2797.27997	0.95997
2795.22617	0.96080
2793.17236	0.96168
2791.11856	0.96290
2789.06476	0.96390
2787.01095	0.96459
2784.95715	0.96548
2782.90335	0.96659
2780.84955	0.96752
2778.79574	0.96809
2776.74194	0.96865
2774.68814	0.96932
2772.63433	0.96991
2770.58053	0.97037
2768.52673	0.97077
2766.47292	0.97123
2764.41912	0.97162
2762.36532	0.97197
2760.31151	0.97250
2758.25771	0.97281
2756.20391	0.97278
2754.15010	0.97284
2752.09630	0.97308
2750.04250	0.97331
2747.98869	0.97349
2745.93489	0.97368
2743.88109	0.97393
2741.82728	0.97406
2739.77348	0.97406
2737.71968	0.97422
2735.66587	0.97440
2733.61207	0.97439
2731.55827	0.97461
2729.50446	0.97498
2727.45066	0.97515
2725.39686	0.97533
2723.34306	0.97578
2721.28925	0.97630
2719.23545	0.97662
2717.18165	0.97675
2715.12784	0.97678
2713.07404	0.97684
2711.02024	0.97710
2708.96643	0.97752
2706.91263	0.97768
2704.85883	0.97755
2702.80502	0.97767
2700.75122	0.97819
2698.69742	0.97861
2696.64361	0.97851
2694.58981	0.97811
2692.53601	0.97800
2690.48220	0.97843
2688.42840	0.97891
2686.37460	0.97897
2684.32079	0.97878
2682.26699	0.97859
2680.21319	0.97830
2678.15938	0.97804
2676.10558	0.97803
2674.05178	0.97812
2671.99797	0.97822
2669.94417	0.97806
2667.89037	0.97771
2665.83657	0.97776
2663.78276	0.97801
2661.72896	0.97798
2659.67516	0.97775
2657.62135	0.97752
2655.56755	0.97748
2653.51375	0.97779
2651.45994	0.97812
2649.40614	0.97814
2647.35234	0.97800
2645.29853	0.97812
2643.24473	0.97862
2641.19093	0.97885
2639.13712	0.97856
2637.08332	0.97845
2635.02952	0.97873
2632.97571	0.97911
2630.92191	0.97945
2628.86811	0.97971
2626.81430	0.97998
2624.76050	0.98012
2622.70670	0.98002
2620.65289	0.97999
2618.59909	0.98029
2616.54529	0.98074
2614.49149	0.98108
2612.43768	0.98124
2610.38388	0.98123
2608.33008	0.98140
2606.27627	0.98189
2604.22247	0.98246
2602.16867	0.98282
2600.11486	0.98295
2598.06106	0.98268
2596.00726	0.98224
2593.95345	0.98259
2591.89965	0.98338
2589.84585	0.98371
2587.79204	0.98401
2585.73824	0.98458
2583.68444	0.98515
2581.63063	0.98551
2579.57683	0.98546
2577.52303	0.98494
2575.46922	0.98425
2573.41542	0.98407
2571.36162	0.98441
2569.30781	0.98470
2567.25401	0.98491
2565.20021	0.98484
2563.14640	0.98454
2561.09260	0.98486
2559.03880	0.98566
2556.98500	0.98621
2554.93119	0.98663
2552.87739	0.98684
2550.82359	0.98643
2548.76978	0.98590
2546.71598	0.98588
2544.66218	0.98607
2542.60837	0.98640
2540.55457	0.98709
2538.50077	0.98743
2536.44696	0.98698
2534.39316	0.98641
2532.33936	0.98640
2530.28555	0.98663
2528.23175	0.98646
2526.17795	0.98617
2524.12414	0.98616
2522.07034	0.98620
2520.01654	0.98631
2517.96273	0.98673
2515.90893	0.98723
2513.85513	0.98727
2511.80132	0.98713
2509.74752	0.98757
2507.69372	0.98819
2505.63992	0.98809
2503.58611	0.98733
2501.53231	0.98675
2499.47851	0.98696
2497.42470	0.98750
2495.37090	0.98777
2493.31710	0.98781
2491.26329	0.98760
2489.20949	0.98721
2487.15569	0.98705
2485.10188	0.98725
2483.04808	0.98762
2480.99428	0.98790
2478.94047	0.98807
2476.88667	0.98798
2474.83287	0.98777
2472.77906	0.98787
2470.72526	0.98818
2468.67146	0.98871
2466.61765	0.98924
2464.56385	0.98917
2462.51005	0.98887
2460.45624	0.98874
2458.40244	0.98836
2456.34864	0.98774
2454.29483	0.98713
2452.24103	0.98671
2450.18723	0.98692
2448.13343	0.98759
2446.07962	0.98817
2444.02582	0.98881
2441.97202	0.98959
2439.91821	0.98988
2437.86441	0.98949
2435.81061	0.98875
2433.75680	0.98828
2431.70300	0.98868
2429.64920	0.98902
2427.59539	0.98882
2425.54159	0.98902
2423.48779	0.98936
2421.43398	0.98914
2419.38018	0.98864
2417.32638	0.98839
2415.27257	0.98818
2413.21877	0.98753
2411.16497	0.98710
2409.11116	0.98754
2407.05736	0.98841
2405.00356	0.98915
2402.94975	0.98915
2400.89595	0.98855
2398.84215	0.98830
2396.78834	0.98825
2394.73454	0.98816
2392.68074	0.98850
2390.62694	0.98882
2388.57313	0.98849
2386.51933	0.98796
2384.46553	0.98746
2382.41172	0.98752
2380.35792	0.98883
2378.30412	0.99006
2376.25031	0.99012
2374.19651	0.98980
2372.14271	0.98926
2370.08890	0.98838
2368.03510	0.98775
2365.98130	0.98841
2363.92749	0.99036
2361.87369	0.99150
2359.81989	0.99135
2357.76608	0.99070
2355.71228	0.98972
2353.65848	0.98883
2351.60467	0.98854
2349.55087	0.98841
2347.49707	0.98821
2345.44326	0.98827
2343.38946	0.98775
2341.33566	0.98626
2339.28186	0.98502
2337.22805	0.98492
2335.17425	0.98623
2333.12045	0.98779
2331.06664	0.98814
2329.01284	0.98778
2326.95904	0.98762
2324.90523	0.98736
2322.85143	0.98702
2320.79763	0.98684
2318.74382	0.98668
2316.69002	0.98659
2314.63622	0.98651
2312.58241	0.98653
2310.52861	0.98690
2308.47481	0.98753
2306.42100	0.98790
2304.36720	0.98761
2302.31340	0.98706
2300.25959	0.98684
2298.20579	0.98666
2296.15199	0.98618
2294.09818	0.98583
2292.04438	0.98623
2289.99058	0.98717
2287.93677	0.98739
2285.88297	0.98695
2283.82917	0.98697
2281.77537	0.98787
2279.72156	0.98884
2277.66776	0.98882
2275.61396	0.98829
2273.56015	0.98849
2271.50635	0.98907
2269.45255	0.98880
2267.39874	0.98867
2265.34494	0.98937
2263.29114	0.98901
2261.23733	0.98820
2259.18353	0.98898
2257.12973	0.98997
2255.07592	0.99002
2253.02212	0.99041
2250.96832	0.99131
2248.91451	0.99168
2246.86071	0.99116
2244.80691	0.99015
2242.75310	0.98985
2240.69930	0.98993
2238.64550	0.98921
2236.59169	0.98895
2234.53789	0.98956
2232.48409	0.98935
2230.43029	0.98751
2228.37648	0.98520
2226.32268	0.98498
2224.26888	0.98711
2222.21507	0.98892
2220.16127	0.99001
2218.10747	0.99187
2216.05366	0.99315
2213.99986	0.99319
2211.94606	0.99289
2209.89225	0.99155
2207.83845	0.98973
2205.78465	0.98976
2203.73084	0.99086
2201.67704	0.99098
2199.62324	0.99187
2197.56943	0.99304
2195.51563	0.99287
2193.46183	0.99233
2191.40802	0.99078
2189.35422	0.98986
2187.30042	0.99094
2185.24661	0.99141
2183.19281	0.99161
2181.13901	0.99255
2179.08520	0.99277
2177.03140	0.99256
2174.97760	0.99239
2172.92380	0.99139
2170.86999	0.99066
2168.81619	0.99223
2166.76239	0.99458
2164.70858	0.99484
2162.65478	0.99324
2160.60098	0.99206
2158.54717	0.99421
2156.49337	0.99876
2154.43957	1.00063
2152.38576	0.99807
2150.33196	0.99447
2148.27816	0.99316
2146.22435	0.99329
2144.17055	0.99381
2142.11675	0.99460
2140.06294	0.99414
2138.00914	0.99353
2135.95534	0.99514
2133.90153	0.99675
2131.84773	0.99541
2129.79393	0.99330
2127.74012	0.99310
2125.68632	0.99285
2123.63252	0.99200
2121.57871	0.99255
2119.52491	0.99291
2117.47111	0.99150
2115.41731	0.98996
2113.36350	0.98944
2111.30970	0.98926
2109.25590	0.98930
2107.20209	0.98998
2105.14829	0.99051
2103.09449	0.99059
2101.04068	0.99097
2098.98688	0.99210
2096.93308	0.99330
2094.87927	0.99281
2092.82547	0.99093
2090.77167	0.98965
2088.71786	0.98916
2086.66406	0.98937
2084.61026	0.99049
2082.55645	0.99173
2080.50265	0.99303
2078.44885	0.99417
2076.39504	0.99376
2074.34124	0.99265
2072.28744	0.99257
2070.23363	0.99297
2068.17983	0.99298
2066.12603	0.99308
2064.07223	0.99284
2062.01842	0.99179
2059.96462	0.99124
2057.91082	0.99200
2055.85701	0.99332
2053.80321	0.99369
2051.74941	0.99312
2049.69560	0.99263
2047.64180	0.99215
2045.58800	0.99228
2043.53419	0.99306
2041.48039	0.99309
2039.42659	0.99187
2037.37278	0.99094
2035.31898	0.99136
2033.26518	0.99196
2031.21137	0.99407
2029.15757	0.99814
2027.10377	1.00019
2025.04996	0.99970
2022.99616	0.99860
2020.94236	0.99720
2018.88855	0.99591
2016.83475	0.99478
2014.78095	0.99310
2012.72714	0.99064
2010.67334	0.98946
2008.61954	0.99142
2006.56574	0.99478
2004.51193	0.99721
2002.45813	0.99730
2000.40433	0.99514
1998.35052	0.99316
1996.29672	0.99237
1994.24292	0.99214
1992.18911	0.99290
1990.13531	0.99454
1988.08151	0.99547
1986.02770	0.99381
1983.97390	0.98982
1981.92010	0.98811
1979.86629	0.99128
1977.81249	0.99498
1975.75869	0.99577
1973.70488	0.99559
1971.65108	0.99573
1969.59728	0.99591
1967.54347	0.99620
1965.48967	0.99641
1963.43587	0.99554
1961.38206	0.99389
1959.32826	0.99245
1957.27446	0.99095
1955.22066	0.98957
1953.16685	0.98954
1951.11305	0.99063
1949.05925	0.99154
1947.00544	0.99177
1944.95164	0.99163
1942.89784	0.99216
1940.84403	0.99313
1938.79023	0.99276
1936.73643	0.99098
1934.68262	0.98960
1932.62882	0.99014
1930.57502	0.99111
1928.52121	0.99082
1926.46741	0.99043
1924.41361	0.99083
1922.35980	0.99103
1920.30600	0.99066
1918.25220	0.99075
1916.19839	0.99061
1914.14459	0.98964
1912.09079	0.98906
1910.03698	0.98877
1907.98318	0.98851
1905.92938	0.98849
1903.87557	0.98846
1901.82177	0.98860
1899.76797	0.98873
1897.71417	0.98860
1895.66036	0.98884
1893.60656	0.98977
1891.55276	0.99051
1889.49895	0.99033
1887.44515	0.98991
1885.39135	0.98997
1883.33754	0.99016
1881.28374	0.99038
1879.22994	0.99058
1877.17613	0.99035
1875.12233	0.99010
1873.06853	0.99015
1871.01472	0.99013
1868.96092	0.98998
1866.90712	0.98999
1864.85331	0.99004
1862.79951	0.98999
1860.74571	0.98980
1858.69190	0.98969
1856.63810	0.98988
1854.58430	0.98989
1852.53049	0.98981
1850.47669	0.98978
1848.42289	0.98973
1846.36908	0.98963
1844.31528	0.98958
1842.26148	0.99009
1840.20768	0.99059
1838.15387	0.99054
1836.10007	0.99021
1834.04627	0.98953
1831.99246	0.98860
1829.93866	0.98875
1827.88486	0.98979
1825.83105	0.98990
1823.77725	0.98933
1821.72345	0.98897
1819.66964	0.98865
1817.61584	0.98838
1815.56204	0.98828
1813.50823	0.98822
1811.45443	0.98810
1809.40063	0.98811
1807.34682	0.98810
1805.29302	0.98773
1803.23922	0.98755
1801.18541	0.98792
1799.13161	0.98816
1797.07781	0.98779
1795.02400	0.98722
1792.97020	0.98693
1790.91640	0.98686
1788.86260	0.98679
1786.80879	0.98687
1784.75499	0.98692
1782.70119	0.98677
1780.64738	0.98660
1778.59358	0.98646
1776.53978	0.98625
1774.48597	0.98601
1772.43217	0.98559
1770.37837	0.98492
1768.32456	0.98470
1766.27076	0.98482
1764.21696	0.98466
1762.16315	0.98440
1760.10935	0.98401
1758.05555	0.98308
1756.00174	0.98191
1753.94794	0.98094
1751.89414	0.98001
1749.84033	0.97903
1747.78653	0.97758
1745.73273	0.97535
1743.67892	0.97290
1741.62512	0.97079
1739.57132	0.96918
1737.51751	0.96797
1735.46371	0.96688
1733.40991	0.96629
1731.35611	0.96668
1729.30230	0.96691
1727.24850	0.96700
1725.19470	0.96728
1723.14089	0.96762
1721.08709	0.96797
1719.03329	0.96816
1716.97948	0.96805
1714.92568	0.96798
1712.87188	0.96786
1710.81807	0.96755
1708.76427	0.96719
1706.71047	0.96655
1704.65666	0.96594
1702.60286	0.96548
1700.54906	0.96397
1698.49525	0.96196
1696.44145	0.96083
1694.38765	0.95959
1692.33384	0.95831
1690.28004	0.95663
1688.22624	0.95448
1686.17243	0.95247
1684.11863	0.94975
1682.06483	0.94735
1680.01103	0.94643
1677.95722	0.94598
1675.90342	0.94500
1673.84962	0.94335
1671.79581	0.94205
1669.74201	0.94006
1667.68821	0.93769
1665.63440	0.93656
1663.58060	0.93559
1661.52680	0.93427
1659.47299	0.93331
1657.41919	0.93272
1655.36539	0.93237
1653.31158	0.93169
1651.25778	0.93087
1649.20398	0.93066
1647.15017	0.93000
1645.09637	0.92896
1643.04257	0.92843
1640.98876	0.92798
1638.93496	0.92774
1636.88116	0.92755
1634.82735	0.92669
1632.77355	0.92619
1630.71975	0.92619
1628.66594	0.92591
1626.61214	0.92547
1624.55834	0.92545
1622.50454	0.92562
1620.45073	0.92606
1618.39693	0.92739
1616.34313	0.92984
1614.28932	0.93236
1612.23552	0.93442
1610.18172	0.93617
1608.12791	0.93729
1606.07411	0.93806
1604.02031	0.93906
1601.96650	0.94026
1599.91270	0.94147
1597.85890	0.94260
1595.80509	0.94356
1593.75129	0.94449
1591.69749	0.94545
1589.64368	0.94648
1587.58988	0.94767
1585.53608	0.94875
1583.48227	0.94968
1581.42847	0.95072
1579.37467	0.95173
1577.32086	0.95286
1575.26706	0.95414
1573.21326	0.95497
1571.15945	0.95540
1569.10565	0.95589
1567.05185	0.95679
1564.99805	0.95751
1562.94424	0.95782
1560.89044	0.95819
1558.83664	0.95841
1556.78283	0.95829
1554.72903	0.95876
1552.67523	0.95921
1550.62142	0.95934
1548.56762	0.95942
1546.51382	0.95958
1544.46001	0.95979
1542.40621	0.96038
1540.35241	0.96125
1538.29860	0.96168
1536.24480	0.96209
1534.19100	0.96263
1532.13719	0.96338
1530.08339	0.96417
1528.02959	0.96466
1525.97578	0.96501
1523.92198	0.96575
1521.86818	0.96673
1519.81437	0.96732
1517.76057	0.96752
1515.70677	0.96766
1513.65297	0.96775
1511.59916	0.96804
1509.54536	0.96888
1507.49156	0.96963
1505.43775	0.96938
1503.38395	0.96916
1501.33015	0.96912
1499.27634	0.96880
1497.22254	0.96791
1495.16874	0.96702
1493.11493	0.96669
1491.06113	0.96640
1489.00733	0.96550
1486.95352	0.96376
1484.89972	0.96154
1482.84592	0.95874
1480.79211	0.95429
1478.73831	0.94484
1476.68451	0.92069
1474.63070	0.87384
1472.57690	0.82496
1470.52310	0.81583
1468.46929	0.83003
1466.41549	0.84076
1464.36169	0.84186
1462.30788	0.84619
1460.25408	0.86314
1458.20028	0.88814
1456.14648	0.90876
1454.09267	0.91796
1452.03887	0.92366
1449.98507	0.92838
1447.93126	0.93229
1445.87746	0.93509
1443.82366	0.93693
1441.76985	0.93839
1439.71605	0.93929
1437.66225	0.93959
1435.60844	0.94016
1433.55464	0.94168
1431.50084	0.94353
1429.44703	0.94525
1427.39323	0.94675
1425.33943	0.94793
1423.28562	0.94859
1421.23182	0.94894
1419.17802	0.94928
1417.12421	0.94952
1415.07041	0.94996
1413.01661	0.95054
1410.96280	0.95097
1408.90900	0.95155
1406.85520	0.95270
1404.80139	0.95409
1402.74759	0.95502
1400.69379	0.95548
1398.63999	0.95557
1396.58618	0.95551
1394.53238	0.95560
1392.47858	0.95575
1390.42477	0.95587
1388.37097	0.95595
1386.31717	0.95571
1384.26336	0.95495
1382.20956	0.95360
1380.15576	0.95146
1378.10195	0.94918
1376.04815	0.94828
1373.99435	0.94938
1371.94054	0.95089
1369.88674	0.95144
1367.83294	0.95135
1365.77913	0.95159
1363.72533	0.95287
1361.67153	0.95476
1359.61772	0.95596
1357.56392	0.95660
1355.51012	0.95718
1353.45631	0.95768
1351.40251	0.95826
1349.34871	0.95902
1347.29491	0.95977
1345.24110	0.96040
1343.18730	0.96102
1341.13350	0.96158
1339.07969	0.96176
1337.02589	0.96172
1334.97209	0.96185
1332.91828	0.96203
1330.86448	0.96198
1328.81068	0.96149
1326.75687	0.96063
1324.70307	0.95977
1322.64927	0.95920
1320.59546	0.95902
1318.54166	0.95906
1316.48786	0.95910
1314.43405	0.95914
1312.38025	0.95922
1310.32645	0.95921
1308.27264	0.95900
1306.21884	0.95888
1304.16504	0.95909
1302.11123	0.95932
1300.05743	0.95922
1298.00363	0.95888
1295.94982	0.95880
1293.89602	0.95913
1291.84222	0.95933
1289.78842	0.95911
1287.73461	0.95855
1285.68081	0.95804
1283.62701	0.95760
1281.57320	0.95666
1279.51940	0.95515
1277.46560	0.95386
1275.41179	0.95304
1273.35799	0.95216
1271.30419	0.95119
1269.25038	0.95055
1267.19658	0.95026
1265.14278	0.94984
1263.08897	0.94927
1261.03517	0.94888
1258.98137	0.94856
1256.92756	0.94818
1254.87376	0.94790
1252.81996	0.94767
1250.76615	0.94727
1248.71235	0.94668
1246.65855	0.94607
1244.60474	0.94530
1242.55094	0.94456
1240.49714	0.94406
1238.44334	0.94357
1236.38953	0.94318
1234.33573	0.94280
1232.28193	0.94220
1230.22812	0.94142
1228.17432	0.94060
1226.12052	0.93985
1224.06671	0.93929
1222.01291	0.93888
1219.95911	0.93815
1217.90530	0.93690
1215.85150	0.93576
1213.79770	0.93493
1211.74389	0.93383
1209.69009	0.93257
1207.63629	0.93144
1205.58248	0.93023
1203.52868	0.92889
1201.47488	0.92748
1199.42107	0.92575
1197.36727	0.92352
1195.31347	0.92108
1193.25966	0.91876
1191.20586	0.91659
1189.15206	0.91428
1187.09825	0.91165
1185.04445	0.90882
1182.99065	0.90569
1180.93685	0.90211
1178.88304	0.89827
1176.82924	0.89432
1174.77544	0.89032
1172.72163	0.88631
1170.66783	0.88238
1168.61403	0.87854
1166.56022	0.87476
1164.50642	0.87124
1162.45262	0.86831
1160.39881	0.86588
1158.34501	0.86373
1156.29121	0.86160
1154.23740	0.85914
1152.18360	0.85651
1150.12980	0.85396
1148.07599	0.85132
1146.02219	0.84868
1143.96839	0.84639
1141.91458	0.84440
1139.86078	0.84226
1137.80698	0.83977
1135.75317	0.83687
1133.69937	0.83343
1131.64557	0.82947
1129.59176	0.82494
1127.53796	0.82000
1125.48416	0.81467
1123.43036	0.80855
1121.37655	0.80176
1119.32275	0.79491
1117.26895	0.78854
1115.21514	0.78341
1113.16134	0.77950
1111.10754	0.77582
1109.05373	0.77188
1106.99993	0.76802
1104.94613	0.76451
1102.89232	0.76121
1100.83852	0.75848
1098.78472	0.75644
1096.73091	0.75448
1094.67711	0.75243
1092.62331	0.75073
1090.56950	0.74967
1088.51570	0.74920
1086.46190	0.74879
1084.40809	0.74773
1082.35429	0.74633
1080.30049	0.74510
1078.24668	0.74346
1076.19288	0.74116
1074.13908	0.73858
1072.08528	0.73576
1070.03147	0.73264
1067.97767	0.72917
1065.92387	0.72535
1063.87006	0.72111
1061.81626	0.71621
1059.76246	0.71070
1057.70865	0.70476
1055.65485	0.69827
1053.60105	0.69105
1051.54724	0.68342
1049.49344	0.67593
1047.43964	0.66847
1045.38583	0.66093
1043.33203	0.65358
1041.27823	0.64664
1039.22442	0.64014
1037.17062	0.63398
1035.11682	0.62853
1033.06301	0.62420
1031.00921	0.62111
1028.95541	0.61975
1026.90160	0.61986
1024.84780	0.62054
1022.79400	0.62156
1020.74019	0.62264
1018.68639	0.62302
1016.63259	0.62250
1014.57879	0.62169
1012.52498	0.62109
1010.47118	0.62052
1008.41738	0.61969
1006.36357	0.61973
1004.30977	0.62182
1002.25597	0.62583
1000.20216	0.63114
998.14836	0.63728
996.09456	0.64422
994.04075	0.65199
991.98695	0.66029
989.93315	0.66892
987.87934	0.67782
985.82554	0.68706
983.77174	0.69638
981.71793	0.70545
979.66413	0.71448
977.61033	0.72340
975.55652	0.73203
973.50272	0.74041
971.44892	0.74856
969.39511	0.75675
967.34131	0.76500
965.28751	0.77262
963.23371	0.77917
961.17990	0.78493
959.12610	0.79010
957.07230	0.79479
955.01849	0.79916
952.96469	0.80311
950.91089	0.80659
948.85708	0.80946
946.80328	0.81147
944.74948	0.81292
942.69567	0.81457
940.64187	0.81656
938.58807	0.81802
936.53426	0.81880
934.48046	0.81984
932.42666	0.82108
930.37285	0.82188
928.31905	0.82271
926.26525	0.82329
924.21144	0.82250
922.15764	0.82080
920.10384	0.81877
918.05003	0.81588
915.99623	0.81243
913.94243	0.80981
911.88862	0.80918
909.83482	0.81142
907.78102	0.81680
905.72722	0.82427
903.67341	0.83203
901.61961	0.83929
899.56581	0.84627
897.51200	0.85281
895.45820	0.85863
893.40440	0.86355
891.35059	0.86715
889.29679	0.86961
887.24299	0.87171
885.18918	0.87357
883.13538	0.87491
881.08158	0.87581
879.02777	0.87637
876.97397	0.87709
874.92017	0.87875
872.86636	0.88132
870.81256	0.88415
868.75876	0.88699
866.70495	0.88991
864.65115	0.89273
862.59735	0.89534
860.54354	0.89806
858.48974	0.90100
856.43594	0.90369
854.38213	0.90581
852.32833	0.90733
850.27453	0.90866
848.22073	0.91013
846.16692	0.91066
844.11312	0.91001
842.05932	0.90976
840.00551	0.90995
837.95171	0.90996
835.89791	0.90990
833.84410	0.90928
831.79030	0.90804
829.73650	0.90685
827.68269	0.90600
825.62889	0.90506
823.57509	0.90407
821.52128	0.90373
819.46748	0.90377
817.41368	0.90343
815.35987	0.90240
813.30607	0.90115
811.25227	0.89980
809.19846	0.89765
807.14466	0.89485
805.09086	0.89206
803.03705	0.88953
800.98325	0.88743
798.92945	0.88570
796.87565	0.88439
794.82184	0.88362
792.76804	0.88341
790.71424	0.88390
788.66043	0.88440
786.60663	0.88424
784.55283	0.88350
782.49902	0.88254
780.44522	0.88211
778.39142	0.88252
776.33761	0.88300
774.28381	0.88298
772.23001	0.88308
770.17620	0.88311
768.12240	0.88193
766.06860	0.88020
764.01479	0.87925
761.96099	0.87834
759.90719	0.87625
757.85338	0.87391
755.79958	0.87269
753.74578	0.87192
751.69197	0.87091
749.63817	0.87008
747.58437	0.86938
745.53056	0.86908
743.47676	0.86948
741.42296	0.87004
739.36916	0.86980
737.31535	0.86757
735.26155	0.85975
733.20775	0.84121
731.15394	0.81974
729.10014	0.81282
727.04634	0.81795
724.99253	0.81635
722.93873	0.79707
720.88493	0.76142
718.83112	0.72745
716.77732	0.71952
714.72352	0.74192
712.66971	0.77664
710.61591	0.80368
708.56211	0.81757
706.50830	0.82233
704.45450	0.82304
702.40070	0.82265
700.34689	0.82108
698.29309	0.81857
696.23929	0.81701
694.18548	0.81682
692.13168	0.81704
690.07788	0.81716
688.02408	0.81691
685.97027	0.81686
683.91647	0.81777
681.86267	0.81863
679.80886	0.81848
677.75506	0.81769
675.70126	0.81673
673.64745	0.81641
671.59365	0.81694
669.53985	0.81830
667.48604	0.82152
665.43224	0.82427
663.37844	0.82588
661.32463	0.82782
659.27083	0.82965
657.21703	0.83046
655.16322	0.83080
653.10942	0.83090
651.05562	0.82995
649.00181	0.82867
646.94801	0.82856
644.89421	0.82886
642.84040	0.82867
640.78660	0.82844
638.73280	0.82871
636.67899	0.82931
634.62519	0.82888
632.57139	0.82800
630.51759	0.82849
628.46378	0.82871
626.40998	0.82703
624.35618	0.82566
622.30237	0.82587
620.24857	0.82604
618.19477	0.82502
616.14096	0.82293
614.08716	0.81982
612.03336	0.81649
609.97955	0.81410
607.92575	0.81192
605.87195	0.80926
603.81814	0.80672
601.76434	0.80467
599.71054	0.80299
597.65673	0.80163
595.60293	0.80098
593.54913	0.80068
591.49532	0.79930
589.44152	0.79703
587.38772	0.79470
585.33391	0.79297
583.28011	0.79195
581.22631	0.78980
579.17250	0.78677
577.11870	0.78465
575.06490	0.78262
573.01110	0.77944
570.95729	0.77547
568.90349	0.77223
566.84969	0.77112
564.79588	0.77035
562.74208	0.76760
560.68828	0.76364
558.63447	0.75940
556.58067	0.75455
554.52687	0.74901
552.47306	0.74434
550.41926	0.74171
548.36546	0.73879
546.31165	0.73355
544.25785	0.72753
542.20405	0.72233
540.15024	0.71806
538.09644	0.71369
536.04264	0.70906
533.98883	0.70674
531.93503	0.70650
529.88123	0.70666
527.82742	0.70812
525.77362	0.71121
523.71982	0.71540
521.66602	0.71930
519.61221	0.72153
517.55841	0.72339
515.50461	0.72655
513.45080	0.72999
511.39700	0.73347
509.34320	0.73793
507.28939	0.74161
505.23559	0.74336
503.18179	0.74547
501.12798	0.74766
499.07418	0.74895
497.02038	0.75063
494.96657	0.75152
492.91277	0.75047
490.85897	0.74795
488.80516	0.74380
486.75136	0.73911
484.69756	0.73392
482.64375	0.72658
480.58995	0.71725
478.53615	0.70754
476.48234	0.69802
474.42854	0.68718
472.37474	0.67355
470.32093	0.66112
468.26713	0.65370
466.21333	0.65040
464.15953	0.65213
462.10572	0.65871
460.05192	0.66610
457.99812	0.67324
455.94431	0.68111
453.89051	0.68846
451.83671	0.69366
449.78290	0.69628
447.72910	0.69809
445.67530	0.69916
443.62149	0.69951
441.56769	0.70017
439.51389	0.69922
437.46008	0.69565
435.40628	0.69291
433.35248	0.69275
431.29867	0.69233
429.24487	0.68939
427.19107	0.68674
425.13726	0.68942
423.08346	0.69566
421.02966	0.70139
418.97585	0.70727
416.92205	0.71291
414.86825	0.71841
412.81445	0.72454
410.76064	0.73139
408.70684	0.73748
406.65304	0.74305
404.59923	0.75141
402.54543	0.75858
400.49163	0.75949
398.43782	0.75916
