3996.70104	0.95766
3994.64724	0.95795
3992.59344	0.95807
3990.53964	0.95807
3988.48583	0.95861
3986.43203	0.95927
3984.37823	0.95963
3982.32442	0.95959
3980.27062	0.95924
3978.21682	0.95883
3976.16301	0.95836
3974.10921	0.95796
3972.05541	0.95803
3970.00160	0.95856
3967.94780	0.95899
3965.89400	0.95899
3963.84019	0.95878
3961.78639	0.95868
3959.73259	0.95884
3957.67878	0.95892
3955.62498	0.95903
3953.57118	0.95935
3951.51737	0.95940
3949.46357	0.95921
3947.40977	0.95913
3945.35596	0.95930
3943.30216	0.95934
3941.24836	0.95909
3939.19455	0.95893
3937.14075	0.95870
3935.08695	0.95844
3933.03315	0.95845
3930.97934	0.95864
3928.92554	0.95904
3926.87174	0.95966
3924.81793	0.96004
3922.76413	0.95970
3920.71033	0.95892
3918.65652	0.95839
3916.60272	0.95849
3914.54892	0.95900
3912.49511	0.95962
3910.44131	0.96004
3908.38751	0.96008
3906.33370	0.96015
3904.27990	0.96021
3902.22610	0.96003
3900.17229	0.96017
3898.11849	0.96052
3896.06469	0.96053
3894.01088	0.96019
3891.95708	0.95996
3889.90328	0.96009
3887.84947	0.96009
3885.79567	0.96006
3883.74187	0.96010
3881.68807	0.95984
3879.63426	0.95942
3877.58046	0.95946
3875.52666	0.95994
3873.47285	0.96011
3871.41905	0.95929
3869.36525	0.95844
3867.31144	0.95879
3865.25764	0.95961
3863.20384	0.96055
3861.15003	0.96139
3859.09623	0.96176
3857.04243	0.96195
3854.98862	0.96125
3852.93482	0.95954
3850.88102	0.95993
3848.82721	0.96094
3846.77341	0.96128
3844.71961	0.96123
3842.66580	0.96084
3840.61200	0.96031
3838.55820	0.95986
3836.50439	0.95999
3834.45059	0.96080
3832.39679	0.96135
3830.34298	0.96132
3828.28918	0.96110
3826.23538	0.96083
3824.18158	0.96090
3822.12777	0.96121
3820.07397	0.96133
3818.02017	0.96148
3815.96636	0.96131
3813.91256	0.96105
3811.85876	0.96122
3809.80495	0.96124
3807.75115	0.96103
3805.69735	0.96129
3803.64354	0.96211
3801.58974	0.96314
3799.53594	0.96364
3797.48213	0.96324
3795.42833	0.96216
3793.37453	0.96131
3791.32072	0.96137
3789.26692	0.96174
3787.21312	0.96159
3785.15931	0.96101
3783.10551	0.96104
3781.05171	0.96153
3778.99790	0.96159
3776.94410	0.96184
3774.89030	0.96260
3772.83650	0.96326
3770.78269	0.96367
3768.72889	0.96364
3766.67509	0.96297
3764.62128	0.96220
3762.56748	0.96216
3760.51368	0.96272
3758.45987	0.96308
3756.40607	0.96297
3754.35227	0.96281
3752.29846	0.96306
3750.24466	0.96322
3748.19086	0.96307
3746.13705	0.96361
3744.08325	0.96435
3742.02945	0.96424
3739.97564	0.96384
3737.92184	0.96344
3735.86804	0.96360
3733.81423	0.96487
3731.76043	0.96510
3729.70663	0.96422
3727.65282	0.96388
3725.59902	0.96414
3723.54522	0.96411
3721.49141	0.96346
3719.43761	0.96281
3717.38381	0.96283
3715.33001	0.96321
3713.27620	0.96305
3711.22240	0.96149
3709.16860	0.96003
3707.11479	0.95991
3705.06099	0.95990
3703.00719	0.95925
3700.95338	0.95796
3698.89958	0.95688
3696.84578	0.95658
3694.79197	0.95682
3692.73817	0.95740
3690.68437	0.95771
3688.63056	0.95718
3686.57676	0.95656
3684.52296	0.95618
3682.46915	0.95576
3680.41535	0.95559
3678.36155	0.95546
3676.30774	0.95418
3674.25394	0.95274
3672.20014	0.95259
3670.14633	0.95213
3668.09253	0.95126
3666.03873	0.95091
3663.98492	0.95080
3661.93112	0.95073
3659.87732	0.95076
3657.82352	0.95074
3655.76971	0.95049
3653.71591	0.95001
3651.66211	0.94915
3649.60830	0.94822
3647.55450	0.94770
3645.50070	0.94691
3643.44689	0.94623
3641.39309	0.94537
3639.33929	0.94422
3637.28548	0.94359
3635.23168	0.94311
3633.17788	0.94219
3631.12407	0.94128
3629.07027	0.94022
3627.01647	0.93968
3624.96266	0.94018
3622.90886	0.94029
3620.85506	0.93962
3618.80125	0.93862
3616.74745	0.93836
3614.69365	0.93889
3612.63984	0.93900
3610.58604	0.93858
3608.53224	0.93784
3606.47844	0.93727
3604.42463	0.93740
3602.37083	0.93748
3600.31703	0.93727
3598.26322	0.93719
3596.20942	0.93696
3594.15562	0.93621
3592.10181	0.93522
3590.04801	0.93426
3587.99421	0.93361
3585.94040	0.93360
3583.88660	0.93387
3581.83280	0.93411
3579.77899	0.93408
3577.72519	0.93366
3575.67139	0.93298
3573.61758	0.93215
3571.56378	0.93175
3569.50998	0.93172
3567.45617	0.93142
3565.40237	0.93109
3563.34857	0.93085
3561.29476	0.93048
3559.24096	0.92996
3557.18716	0.92966
3555.13335	0.92994
3553.07955	0.92959
3551.02575	0.92840
3548.97195	0.92786
3546.91814	0.92762
3544.86434	0.92699
3542.81054	0.92649
3540.75673	0.92630
3538.70293	0.92638
3536.64913	0.92657
3534.59532	0.92612
3532.54152	0.92521
3530.48772	0.92473
3528.43391	0.92475
3526.38011	0.92479
3524.32631	0.92453
3522.27250	0.92435
3520.21870	0.92460
3518.16490	0.92463
3516.11109	0.92436
3514.05729	0.92441
3512.00349	0.92444
3509.94968	0.92391
3507.89588	0.92332
3505.84208	0.92309
3503.78827	0.92305
3501.73447	0.92289
3499.68067	0.92226
3497.62687	0.92166
3495.57306	0.92167
3493.51926	0.92170
3491.46546	0.92126
3489.41165	0.92063
3487.35785	0.92005
3485.30405	0.91950
3483.25024	0.91916
3481.19644	0.91902
3479.14264	0.91886
3477.08883	0.91856
3475.03503	0.91820
3472.98123	0.91806
3470.92742	0.91817
3468.87362	0.91836
3466.81982	0.91805
3464.76601	0.91699
3462.71221	0.91621
3460.65841	0.91642
3458.60460	0.91673
3456.55080	0.91631
3454.49700	0.91546
3452.44319	0.91522
3450.38939	0.91527
3448.33559	0.91450
3446.28178	0.91364
3444.22798	0.91357
3442.17418	0.91356
3440.12038	0.91305
3438.06657	0.91251
3436.01277	0.91232
3433.95897	0.91222
3431.90516	0.91192
3429.85136	0.91159
3427.79756	0.91127
3425.74375	0.91085
3423.68995	0.91070
3421.63615	0.91061
3419.58234	0.91019
3417.52854	0.90963
3415.47474	0.90924
3413.42093	0.90902
3411.36713	0.90872
3409.31333	0.90846
3407.25952	0.90805
3405.20572	0.90719
3403.15192	0.90648
3401.09811	0.90620
3399.04431	0.90592
3396.99051	0.90587
3394.93670	0.90616
3392.88290	0.90619
3390.82910	0.90591
3388.77529	0.90577
3386.72149	0.90567
3384.66769	0.90568
3382.61389	0.90605
3380.56008	0.90617
3378.50628	0.90572
3376.45248	0.90525
3374.39867	0.90536
3372.34487	0.90583
3370.29107	0.90600
3368.23726	0.90574
3366.18346	0.90546
3364.12966	0.90519
3362.07585	0.90471
3360.02205	0.90448
3357.96825	0.90458
3355.91444	0.90442
3353.86064	0.90397
3351.80684	0.90367
3349.75303	0.90359
3347.69923	0.90354
3345.64543	0.90358
3343.59162	0.90395
3341.53782	0.90438
3339.48402	0.90457
3337.43021	0.90480
3335.37641	0.90499
3333.32261	0.90502
3331.26881	0.90508
3329.21500	0.90524
3327.16120	0.90568
3325.10740	0.90626
3323.05359	0.90658
3320.99979	0.90665
3318.94599	0.90683
3316.89218	0.90732
3314.83838	0.90735
3312.78458	0.90643
3310.73077	0.90569
3308.67697	0.90610
3306.62317	0.90694
3304.56936	0.90712
3302.51556	0.90696
3300.46176	0.90710
3298.40795	0.90746
3296.35415	0.90765
3294.30035	0.90739
3292.24654	0.90707
3290.19274	0.90705
3288.13894	0.90708
3286.08513	0.90723
3284.03133	0.90779
3281.97753	0.90839
3279.92372	0.90877
3277.86992	0.90903
3275.81612	0.90892
3273.76232	0.90880
3271.70851	0.90931
3269.65471	0.90982
3267.60091	0.91001
3265.54710	0.91046
3263.49330	0.91099
3261.43950	0.91117
3259.38569	0.91110
3257.33189	0.91102
3255.27809	0.91137
3253.22428	0.91239
3251.17048	0.91353
3249.11668	0.91408
3247.06287	0.91401
3245.00907	0.91387
3242.95527	0.91411
3240.90146	0.91460
3238.84766	0.91465
3236.79386	0.91432
3234.74005	0.91450
3232.68625	0.91520
3230.63245	0.91584
3228.57864	0.91647
3226.52484	0.91693
3224.47104	0.91714
3222.41724	0.91754
3220.36343	0.91800
3218.30963	0.91817
3216.25583	0.91825
3214.20202	0.91831
3212.14822	0.91850
3210.09442	0.91911
3208.04061	0.92009
3205.98681	0.92073
3203.93301	0.92071
3201.87920	0.92078
3199.82540	0.92119
3197.77160	0.92155
3195.71779	0.92203
3193.66399	0.92265
3191.61019	0.92319
3189.55638	0.92353
3187.50258	0.92352
3185.44878	0.92353
3183.39497	0.92413
3181.34117	0.92487
3179.28737	0.92529
3177.23356	0.92562
3175.17976	0.92601
3173.12596	0.92643
3171.07215	0.92684
3169.01835	0.92716
3166.96455	0.92763
3164.91075	0.92807
3162.85694	0.92802
3160.80314	0.92783
3158.74934	0.92793
3156.69553	0.92817
3154.64173	0.92868
3152.58793	0.92970
3150.53412	0.93073
3148.48032	0.93157
3146.42652	0.93212
3144.37271	0.93211
3142.31891	0.93184
3140.26511	0.93174
3138.21130	0.93223
3136.15750	0.93308
3134.10370	0.93343
3132.04989	0.93327
3129.99609	0.93332
3127.94229	0.93386
3125.88848	0.93437
3123.83468	0.93465
3121.78088	0.93505
3119.72707	0.93537
3117.67327	0.93550
3115.61947	0.93579
3113.56566	0.93609
3111.51186	0.93639
3109.45806	0.93665
3107.40426	0.93655
3105.35045	0.93633
3103.29665	0.93645
3101.24285	0.93689
3099.18904	0.93728
3097.13524	0.93747
3095.08144	0.93743
3093.02763	0.93728
3090.97383	0.93751
3088.92003	0.93782
3086.86622	0.93743
3084.81242	0.93646
3082.75862	0.93603
3080.70481	0.93670
3078.65101	0.93760
3076.59721	0.93794
3074.54340	0.93811
3072.48960	0.93845
3070.43580	0.93867
3068.38199	0.93852
3066.32819	0.93800
3064.27439	0.93734
3062.22058	0.93680
3060.16678	0.93666
3058.11298	0.93695
3056.05918	0.93745
3054.00537	0.93819
3051.95157	0.93925
3049.89777	0.94039
3047.84396	0.94135
3045.79016	0.94207
3043.73636	0.94252
3041.68255	0.94249
3039.62875	0.94189
3037.57495	0.94119
3035.52114	0.94066
3033.46734	0.93982
3031.41354	0.93846
3029.35973	0.93728
3027.30593	0.93664
3025.25213	0.93651
3023.19832	0.93696
3021.14452	0.93792
3019.09072	0.93947
3017.03691	0.94126
3014.98311	0.94248
3012.92931	0.94316
3010.87550	0.94362
3008.82170	0.94362
3006.76790	0.94304
3004.71409	0.94232
3002.66029	0.94203
3000.60649	0.94222
2998.55269	0.94242
2996.49888	0.94226
2994.44508	0.94180
2992.39128	0.94138
2990.33747	0.94078
2988.28367	0.93965
2986.22987	0.93833
2984.17606	0.93740
2982.12226	0.93655
2980.06846	0.93529
2978.01465	0.93395
2975.96085	0.93252
2973.90705	0.93057
2971.85324	0.92849
2969.79944	0.92660
2967.74564	0.92435
2965.69183	0.92176
2963.63803	0.91936
2961.58423	0.91714
2959.53042	0.91502
2957.47662	0.91329
2955.42282	0.91232
2953.36901	0.91183
2951.31521	0.91135
2949.26141	0.91080
2947.20761	0.91018
2945.15380	0.90915
2943.10000	0.90747
2941.04620	0.90551
2938.99239	0.90371
2936.93859	0.90179
2934.88479	0.89953
2932.83098	0.89729
2930.77718	0.89516
2928.72338	0.89338
2926.66957	0.89223
2924.61577	0.89138
2922.56197	0.89077
2920.50816	0.89081
2918.45436	0.89201
2916.40056	0.89423
2914.34675	0.89647
2912.29295	0.89852
2910.23915	0.90114
2908.18534	0.90377
2906.13154	0.90555
2904.07774	0.90716
2902.02393	0.90907
2899.97013	0.91064
2897.91633	0.91182
2895.86252	0.91306
2893.80872	0.91443
2891.75492	0.91576
2889.70112	0.91682
2887.64731	0.91765
2885.59351	0.91857
2883.53971	0.91942
2881.48590	0.91976
2879.43210	0.91930
2877.37830	0.91831
2875.32449	0.91712
2873.27069	0.91603
2871.21689	0.91553
2869.16308	0.91572
2867.10928	0.91617
2865.05548	0.91640
2863.00167	0.91603
2860.94787	0.91529
2858.89407	0.91466
2856.84026	0.91421
2854.78646	0.91396
2852.73266	0.91391
2850.67885	0.91451
2848.62505	0.91633
2846.57125	0.91919
2844.51744	0.92233
2842.46364	0.92526
2840.40984	0.92770
2838.35603	0.92952
2836.30223	0.93098
2834.24843	0.93232
2832.19463	0.93356
2830.14082	0.93487
2828.08702	0.93608
2826.03322	0.93692
2823.97941	0.93761
2821.92561	0.93825
2819.87181	0.93888
2817.81800	0.93953
2815.76420	0.94008
2813.71040	0.94053
2811.65659	0.94107
2809.60279	0.94175
2807.54899	0.94216
2805.49518	0.94230
2803.44138	0.94269
2801.38758	0.94346
2799.33377	0.94387
2797.27997	0.94362
2795.22617	0.94355
2793.17236	0.94399
2791.11856	0.94443
2789.06476	0.94478
2787.01095	0.94525
2784.95715	0.94571
2782.90335	0.94596
2780.84955	0.94596
2778.79574	0.94599
2776.74194	0.94618
2774.68814	0.94628
2772.63433	0.94644
2770.58053	0.94697
2768.52673	0.94761
2766.47292	0.94792
2764.41912	0.94796
2762.36532	0.94803
2760.31151	0.94824
2758.25771	0.94843
2756.20391	0.94858
2754.15010	0.94878
2752.09630	0.94875
2750.04250	0.94851
2747.98869	0.94852
2745.93489	0.94887
2743.88109	0.94923
2741.82728	0.94939
2739.77348	0.94956
2737.71968	0.94988
2735.66587	0.94993
2733.61207	0.94970
2731.55827	0.94964
2729.50446	0.94998
2727.45066	0.95051
2725.39686	0.95085
2723.34306	0.95083
2721.28925	0.95060
2719.23545	0.95064
2717.18165	0.95085
2715.12784	0.95083
2713.07404	0.95080
2711.02024	0.95101
2708.96643	0.95146
2706.91263	0.95190
2704.85883	0.95196
2702.80502	0.95176
2700.75122	0.95170
2698.69742	0.95177
2696.64361	0.95192
2694.58981	0.95226
2692.53601	0.95250
2690.48220	0.95257
2688.42840	0.95276
2686.37460	0.95299
2684.32079	0.95306
2682.26699	0.95296
2680.21319	0.95301
2678.15938	0.95340
2676.10558	0.95363
2674.05178	0.95338
2671.99797	0.95320
2669.94417	0.95335
2667.89037	0.95348
2665.83657	0.95362
2663.78276	0.95388
2661.72896	0.95393
2659.67516	0.95362
2657.62135	0.95357
2655.56755	0.95395
2653.51375	0.95434
2651.45994	0.95460
2649.40614	0.95484
2647.35234	0.95506
2645.29853	0.95513
2643.24473	0.95526
2641.19093	0.95561
2639.13712	0.95568
2637.08332	0.95556
2635.02952	0.95564
2632.97571	0.95564
2630.92191	0.95549
2628.86811	0.95544
2626.81430	0.95551
2624.76050	0.95559
2622.70670	0.95552
2620.65289	0.95565
2618.59909	0.95623
2616.54529	0.95683
2614.49149	0.95712
2612.43768	0.95734
2610.38388	0.95762
2608.33008	0.95772
2606.27627	0.95759
2604.22247	0.95741
2602.16867	0.95729
2600.11486	0.95724
2598.06106	0.95745
2596.00726	0.95788
2593.95345	0.95812
2591.89965	0.95814
2589.84585	0.95786
2587.79204	0.95747
2585.73824	0.95771
2583.68444	0.95847
2581.63063	0.95889
2579.57683	0.95884
2577.52303	0.95893
2575.46922	0.95902
2573.41542	0.95867
2571.36162	0.95818
2569.30781	0.95813
2567.25401	0.95868
2565.20021	0.95913
2563.14640	0.95914
2561.09260	0.95921
2559.03880	0.95936
2556.98500	0.95975
2554.93119	0.96047
2552.87739	0.96094
2550.82359	0.96088
2548.76978	0.96043
2546.71598	0.95989
2544.66218	0.95945
2542.60837	0.95886
2540.55457	0.95856
2538.50077	0.95923
2536.44696	0.95992
2534.39316	0.95992
2532.33936	0.96013
2530.28555	0.96058
2528.23175	0.96054
2526.17795	0.96022
2524.12414	0.96021
2522.07034	0.96066
2520.01654	0.96131
2517.96273	0.96149
2515.90893	0.96063
2513.85513	0.95963
2511.80132	0.95945
2509.74752	0.95980
2507.69372	0.96049
2505.63992	0.96095
2503.58611	0.96075
2501.53231	0.96093
2499.47851	0.96173
2497.42470	0.96169
2495.37090	0.96085
2493.31710	0.96055
2491.26329	0.96085
2489.20949	0.96126
2487.15569	0.96190
2485.10188	0.96274
2483.04808	0.96293
2480.99428	0.96215
2478.94047	0.96163
2476.88667	0.96192
2474.83287	0.96217
2472.77906	0.96271
2470.72526	0.96396
2468.67146	0.96429
2466.61765	0.96323
2464.56385	0.96229
2462.51005	0.96235
2460.45624	0.96314
2458.40244	0.96373
2456.34864	0.96351
2454.29483	0.96322
2452.24103	0.96351
2450.18723	0.96365
2448.13343	0.96329
2446.07962	0.96302
2444.02582	0.96295
2441.97202	0.96293
2439.91821	0.96335
2437.86441	0.96426
2435.81061	0.96501
2433.75680	0.96505
2431.70300	0.96432
2429.64920	0.96345
2427.59539	0.96310
2425.54159	0.96361
2423.48779	0.96459
2421.43398	0.96513
2419.38018	0.96497
2417.32638	0.96501
2415.27257	0.96547
2413.21877	0.96527
2411.16497	0.96453
2409.11116	0.96445
2407.05736	0.96496
2405.00356	0.96554
2402.94975	0.96623
2400.89595	0.96662
2398.84215	0.96628
2396.78834	0.96567
2394.73454	0.96539
2392.68074	0.96540
2390.62694	0.96560
2388.57313	0.96573
2386.51933	0.96569
2384.46553	0.96573
2382.41172	0.96577
2380.35792	0.96552
2378.30412	0.96509
2376.25031	0.96493
2374.19651	0.96496
2372.14271	0.96467
2370.08890	0.96450
2368.03510	0.96504
2365.98130	0.96524
2363.92749	0.96460
2361.87369	0.96385
2359.81989	0.96344
2357.76608	0.96426
2355.71228	0.96587
2353.65848	0.96692
2351.60467	0.96738
2349.55087	0.96709
2347.49707	0.96617
2345.44326	0.96615
2343.38946	0.96771
2341.33566	0.96835
2339.28186	0.96733
2337.22805	0.96651
2335.17425	0.96647
2333.12045	0.96707
2331.06664	0.96769
2329.01284	0.96711
2326.95904	0.96590
2324.90523	0.96508
2322.85143	0.96501
2320.79763	0.96575
2318.74382	0.96619
2316.69002	0.96586
2314.63622	0.96569
2312.58241	0.96594
2310.52861	0.96601
2308.47481	0.96637
2306.42100	0.96718
2304.36720	0.96725
2302.31340	0.96680
2300.25959	0.96675
2298.20579	0.96669
2296.15199	0.96650
2294.09818	0.96643
2292.04438	0.96640
2289.99058	0.96639
2287.93677	0.96644
2285.88297	0.96649
2283.82917	0.96629
2281.77537	0.96593
2279.72156	0.96562
2277.66776	0.96566
2275.61396	0.96621
2273.56015	0.96726
2271.50635	0.96870
2269.45255	0.96935
2267.39874	0.96904
2265.34494	0.96860
2263.29114	0.96827
2261.23733	0.96823
2259.18353	0.96817
2257.12973	0.96804
2255.07592	0.96848
2253.02212	0.96944
2250.96832	0.96924
2248.91451	0.96794
2246.86071	0.96747
2244.80691	0.96822
2242.75310	0.96939
2240.69930	0.96940
2238.64550	0.96804
2236.59169	0.96713
2234.53789	0.96768
2232.48409	0.96891
2230.43029	0.96995
2228.37648	0.97102
2226.32268	0.97195
2224.26888	0.97179
2222.21507	0.97124
2220.16127	0.97184
2218.10747	0.97280
2216.05366	0.97286
2213.99986	0.97239
2211.94606	0.97149
2209.89225	0.97044
2207.83845	0.97082
2205.78465	0.97296
2203.73084	0.97353
2201.67704	0.97093
2199.62324	0.96992
2197.56943	0.97125
2195.51563	0.97069
2193.46183	0.96943
2191.40802	0.96973
2189.35422	0.97125
2187.30042	0.97225
2185.24661	0.97112
2183.19281	0.97014
2181.13901	0.97021
2179.08520	0.96960
2177.03140	0.96920
2174.97760	0.96903
2172.92380	0.96825
2170.86999	0.96807
2168.81619	0.96924
2166.76239	0.97208
2164.70858	0.97511
2162.65478	0.97574
2160.60098	0.97517
2158.54717	0.97559
2156.49337	0.97650
2154.43957	0.97569
2152.38576	0.97348
2150.33196	0.97259
2148.27816	0.97406
2146.22435	0.97634
2144.17055	0.97703
2142.11675	0.97700
2140.06294	0.97835
2138.00914	0.97863
2135.95534	0.97620
2133.90153	0.97477
2131.84773	0.97562
2129.79393	0.97600
2127.74012	0.97540
2125.68632	0.97438
2123.63252	0.97313
2121.57871	0.97296
2119.52491	0.97396
2117.47111	0.97474
2115.41731	0.97501
2113.36350	0.97521
2111.30970	0.97509
2109.25590	0.97400
2107.20209	0.97215
2105.14829	0.97090
2103.09449	0.97117
2101.04068	0.97220
2098.98688	0.97254
2096.93308	0.97179
2094.87927	0.97130
2092.82547	0.97195
2090.77167	0.97308
2088.71786	0.97377
2086.66406	0.97368
2084.61026	0.97316
2082.55645	0.97224
2080.50265	0.97151
2078.44885	0.97186
2076.39504	0.97328
2074.34124	0.97493
2072.28744	0.97527
2070.23363	0.97494
2068.17983	0.97555
2066.12603	0.97591
2064.07223	0.97528
2062.01842	0.97472
2059.96462	0.97421
2057.91082	0.97392
2055.85701	0.97458
2053.80321	0.97585
2051.74941	0.97625
2049.69560	0.97593
2047.64180	0.97666
2045.58800	0.97689
2043.53419	0.97512
2041.48039	0.97378
2039.42659	0.97467
2037.37278	0.97751
2035.31898	0.98022
2033.26518	0.98104
2031.21137	0.98133
2029.15757	0.98143
2027.10377	0.98016
2025.04996	0.97909
2022.99616	0.97954
2020.94236	0.98051
2018.88855	0.98104
2016.83475	0.98126
2014.78095	0.98085
2012.72714	0.97951
2010.67334	0.97854
2008.61954	0.97887
2006.56574	0.98067
2004.51193	0.98244
2002.45813	0.98136
2000.40433	0.97794
1998.35052	0.97529
1996.29672	0.97556
1994.24292	0.97825
1992.18911	0.98045
1990.13531	0.98013
1988.08151	0.97809
1986.02770	0.97608
1983.97390	0.97584
1981.92010	0.97734
1979.86629	0.97791
1977.81249	0.97721
1975.75869	0.97861
1973.70488	0.98161
1971.65108	0.98290
1969.59728	0.98187
1967.54347	0.97883
1965.48967	0.97461
1963.43587	0.97182
1961.38206	0.97281
1959.32826	0.97564
1957.27446	0.97688
1955.22066	0.97682
1953.16685	0.97678
1951.11305	0.97717
1949.05925	0.97774
1947.00544	0.97823
1944.95164	0.97878
1942.89784	0.97893
1940.84403	0.97879
1938.79023	0.97825
1936.73643	0.97714
1934.68262	0.97712
1932.62882	0.97869
1930.57502	0.97987
1928.52121	0.97969
1926.46741	0.97923
1924.41361	0.97933
1922.35980	0.97992
1920.30600	0.98013
1918.25220	0.97929
1916.19839	0.97869
1914.14459	0.97889
1912.09079	0.97884
1910.03698	0.97908
1907.98318	0.97975
1905.92938	0.97951
1903.87557	0.97866
1901.82177	0.97832
1899.76797	0.97878
1897.71417	0.97945
1895.66036	0.97968
1893.60656	0.97962
1891.55276	0.97986
1889.49895	0.98003
1887.44515	0.97922
1885.39135	0.97825
1883.33754	0.97777
1881.28374	0.97729
1879.22994	0.97698
1877.17613	0.97740
1875.12233	0.97816
1873.06853	0.97818
1871.01472	0.97733
1868.96092	0.97659
1866.90712	0.97697
1864.85331	0.97784
1862.79951	0.97819
1860.74571	0.97817
1858.69190	0.97842
1856.63810	0.97889
1854.58430	0.97903
1852.53049	0.97899
1850.47669	0.97906
1848.42289	0.97886
1846.36908	0.97830
1844.31528	0.97796
1842.26148	0.97862
1840.20768	0.97955
1838.15387	0.97959
1836.10007	0.97911
1834.04627	0.97900
1831.99246	0.97915
1829.93866	0.97910
1827.88486	0.97884
1825.83105	0.97878
1823.77725	0.97869
1821.72345	0.97847
1819.66964	0.97863
1817.61584	0.97895
1815.56204	0.97888
1813.50823	0.97857
1811.45443	0.97829
1809.40063	0.97796
1807.34682	0.97745
1805.29302	0.97699
1803.23922	0.97662
1801.18541	0.97614
1799.13161	0.97574
1797.07781	0.97543
1795.02400	0.97530
1792.97020	0.97522
1790.91640	0.97487
1788.86260	0.97473
1786.80879	0.97490
1784.75499	0.97487
1782.70119	0.97461
1780.64738	0.97434
1778.59358	0.97391
1776.53978	0.97349
1774.48597	0.97324
1772.43217	0.97277
1770.37837	0.97226
1768.32456	0.97197
1766.27076	0.97139
1764.21696	0.97056
1762.16315	0.96955
1760.10935	0.96836
1758.05555	0.96710
1756.00174	0.96569
1753.94794	0.96429
1751.89414	0.96202
1749.84033	0.95739
1747.78653	0.95109
1745.73273	0.94403
1743.67892	0.93557
1741.62512	0.92532
1739.57132	0.91293
1737.51751	0.90141
1735.46371	0.88992
1733.40991	0.87385
1731.35611	0.86120
1729.30230	0.85382
1727.24850	0.84891
1725.19470	0.84674
1723.14089	0.84683
1721.08709	0.84866
1719.03329	0.85190
1716.97948	0.85620
1714.92568	0.86023
1712.87188	0.86351
1710.81807	0.86624
1708.76427	0.86849
1706.71047	0.87011
1704.65666	0.87121
1702.60286	0.87199
1700.54906	0.87142
1698.49525	0.86944
1696.44145	0.86690
1694.38765	0.86371
1692.33384	0.86170
1690.28004	0.86032
1688.22624	0.85954
1686.17243	0.85957
1684.11863	0.85967
1682.06483	0.86140
1680.01103	0.86491
1677.95722	0.86888
1675.90342	0.87294
1673.84962	0.87704
1671.79581	0.88069
1669.74201	0.88410
1667.68821	0.88682
1665.63440	0.88904
1663.58060	0.89133
1661.52680	0.89330
1659.47299	0.89476
1657.41919	0.89626
1655.36539	0.89776
1653.31158	0.89802
1651.25778	0.89765
1649.20398	0.89836
1647.15017	0.89939
1645.09637	0.90027
1643.04257	0.90081
1640.98876	0.90124
1638.93496	0.90194
1636.88116	0.90276
1634.82735	0.90297
1632.77355	0.90331
1630.71975	0.90434
1628.66594	0.90577
1626.61214	0.90725
1624.55834	0.90865
1622.50454	0.91048
1620.45073	0.91272
1618.39693	0.91483
1616.34313	0.91687
1614.28932	0.91846
1612.23552	0.91936
1610.18172	0.91945
1608.12791	0.91841
1606.07411	0.91659
1604.02031	0.91446
1601.96650	0.91283
1599.91270	0.91317
1597.85890	0.91542
1595.80509	0.91807
1593.75129	0.92010
1591.69749	0.92140
1589.64368	0.92216
1587.58988	0.92234
1585.53608	0.92190
1583.48227	0.92134
1581.42847	0.92152
1579.37467	0.92230
1577.32086	0.92275
1575.26706	0.92257
1573.21326	0.92234
1571.15945	0.92192
1569.10565	0.92087
1567.05185	0.91978
1564.99805	0.91889
1562.94424	0.91829
1560.89044	0.91790
1558.83664	0.91561
1556.78283	0.91273
1554.72903	0.91184
1552.67523	0.91119
1550.62142	0.91035
1548.56762	0.90950
1546.51382	0.90888
1544.46001	0.90822
1542.40621	0.90734
1540.35241	0.90577
1538.29860	0.90399
1536.24480	0.90309
1534.19100	0.90201
1532.13719	0.90039
1530.08339	0.89902
1528.02959	0.89771
1525.97578	0.89617
1523.92198	0.89467
1521.86818	0.89264
1519.81437	0.89051
1517.76057	0.88907
1515.70677	0.88813
1513.65297	0.88816
1511.59916	0.88883
1509.54536	0.88972
1507.49156	0.89080
1505.43775	0.89213
1503.38395	0.89357
1501.33015	0.89426
1499.27634	0.89224
1497.22254	0.88497
1495.16874	0.87605
1493.11493	0.87292
1491.06113	0.87593
1489.00733	0.88135
1486.95352	0.88406
1484.89972	0.88419
1482.84592	0.88268
1480.79211	0.87939
1478.73831	0.87515
1476.68451	0.87026
1474.63070	0.86424
1472.57690	0.85653
1470.52310	0.84952
1468.46929	0.84521
1466.41549	0.84138
1464.36169	0.83737
1462.30788	0.83538
1460.25408	0.83478
1458.20028	0.83132
1456.14648	0.82207
1454.09267	0.81530
1452.03887	0.81361
1449.98507	0.81578
1447.93126	0.82055
1445.87746	0.82555
1443.82366	0.82973
1441.76985	0.83350
1439.71605	0.83681
1437.66225	0.83955
1435.60844	0.84223
1433.55464	0.84526
1431.50084	0.84868
1429.44703	0.85234
1427.39323	0.85562
1425.33943	0.85873
1423.28562	0.86224
1421.23182	0.86590
1419.17802	0.86947
1417.12421	0.87286
1415.07041	0.87635
1413.01661	0.88031
1410.96280	0.88427
1408.90900	0.88778
1406.85520	0.89096
1404.80139	0.89378
1402.74759	0.89566
1400.69379	0.89683
1398.63999	0.89791
1396.58618	0.89881
1394.53238	0.89933
1392.47858	0.89978
1390.42477	0.90030
1388.37097	0.90028
1386.31717	0.89902
1384.26336	0.89718
1382.20956	0.89559
1380.15576	0.89448
1378.10195	0.89401
1376.04815	0.89434
1373.99435	0.89564
1371.94054	0.89735
1369.88674	0.89904
1367.83294	0.90085
1365.77913	0.90267
1363.72533	0.90446
1361.67153	0.90618
1359.61772	0.90756
1357.56392	0.90872
1355.51012	0.90998
1353.45631	0.91138
1351.40251	0.91268
1349.34871	0.91369
1347.29491	0.91432
1345.24110	0.91446
1343.18730	0.91419
1341.13350	0.91364
1339.07969	0.91304
1337.02589	0.91287
1334.97209	0.91309
1332.91828	0.91363
1330.86448	0.91446
1328.81068	0.91525
1326.75687	0.91585
1324.70307	0.91642
1322.64927	0.91674
1320.59546	0.91659
1318.54166	0.91655
1316.48786	0.91702
1314.43405	0.91748
1312.38025	0.91773
1310.32645	0.91798
1308.27264	0.91826
1306.21884	0.91857
1304.16504	0.91889
1302.11123	0.91926
1300.05743	0.91951
1298.00363	0.91928
1295.94982	0.91870
1293.89602	0.91799
1291.84222	0.91706
1289.78842	0.91593
1287.73461	0.91442
1285.68081	0.91248
1283.62701	0.91064
1281.57320	0.90900
1279.51940	0.90700
1277.46560	0.90485
1275.41179	0.90314
1273.35799	0.90158
1271.30419	0.89965
1269.25038	0.89762
1267.19658	0.89613
1265.14278	0.89520
1263.08897	0.89444
1261.03517	0.89367
1258.98137	0.89286
1256.92756	0.89196
1254.87376	0.89094
1252.81996	0.88988
1250.76615	0.88877
1248.71235	0.88758
1246.65855	0.88638
1244.60474	0.88522
1242.55094	0.88402
1240.49714	0.88299
1238.44334	0.88219
1236.38953	0.88132
1234.33573	0.88027
1232.28193	0.87913
1230.22812	0.87805
1228.17432	0.87705
1226.12052	0.87590
1224.06671	0.87443
1222.01291	0.87276
1219.95911	0.87060
1217.90530	0.86774
1215.85150	0.86475
1213.79770	0.86174
1211.74389	0.85876
1209.69009	0.85631
1207.63629	0.85404
1205.58248	0.85132
1203.52868	0.84836
1201.47488	0.84554
1199.42107	0.84289
1197.36727	0.84035
1195.31347	0.83787
1193.25966	0.83502
1191.20586	0.83162
1189.15206	0.82804
1187.09825	0.82426
1185.04445	0.81990
1182.99065	0.81521
1180.93685	0.81062
1178.88304	0.80586
1176.82924	0.80088
1174.77544	0.79604
1172.72163	0.79141
1170.66783	0.78676
1168.61403	0.78214
1166.56022	0.77808
1164.50642	0.77457
1162.45262	0.77129
1160.39881	0.76891
1158.34501	0.76770
1156.29121	0.76660
1154.23740	0.76528
1152.18360	0.76453
1150.12980	0.76465
1148.07599	0.76518
1146.02219	0.76560
1143.96839	0.76614
1141.91458	0.76724
1139.86078	0.76822
1137.80698	0.76845
1135.75317	0.76830
1133.69937	0.76789
1131.64557	0.76684
1129.59176	0.76524
1127.53796	0.76300
1125.48416	0.75974
1123.43036	0.75578
1121.37655	0.75152
1119.32275	0.74696
1117.26895	0.74258
1115.21514	0.73896
1113.16134	0.73597
1111.10754	0.73332
1109.05373	0.73088
1106.99993	0.72831
1104.94613	0.72576
1102.89232	0.72388
1100.83852	0.72252
1098.78472	0.72108
1096.73091	0.71953
1094.67711	0.71782
1092.62331	0.71594
1090.56950	0.71410
1088.51570	0.71228
1086.46190	0.71057
1084.40809	0.70885
1082.35429	0.70678
1080.30049	0.70479
1078.24668	0.70291
1076.19288	0.70052
1074.13908	0.69772
1072.08528	0.69500
1070.03147	0.69241
1067.97767	0.69017
1065.92387	0.68800
1063.87006	0.68537
1061.81626	0.68270
1059.76246	0.68052
1057.70865	0.67840
1055.65485	0.67585
1053.60105	0.67282
1051.54724	0.66949
1049.49344	0.66602
1047.43964	0.66262
1045.38583	0.65918
1043.33203	0.65544
1041.27823	0.65142
1039.22442	0.64753
1037.17062	0.64412
1035.11682	0.64066
1033.06301	0.63676
1031.00921	0.63320
1028.95541	0.63072
1026.90160	0.62937
1024.84780	0.62889
1022.79400	0.62860
1020.74019	0.62819
1018.68639	0.62817
1016.63259	0.62867
1014.57879	0.62936
1012.52498	0.63003
1010.47118	0.63071
1008.41738	0.63167
1006.36357	0.63319
1004.30977	0.63526
1002.25597	0.63776
1000.20216	0.64093
998.14836	0.64486
996.09456	0.64904
994.04075	0.65342
991.98695	0.65844
989.93315	0.66392
987.87934	0.66972
985.82554	0.67612
983.77174	0.68333
981.71793	0.69137
979.66413	0.70008
977.61033	0.70943
975.55652	0.71928
973.50272	0.72882
971.44892	0.73743
969.39511	0.74504
967.34131	0.75161
965.28751	0.75761
963.23371	0.76371
961.17990	0.76997
959.12610	0.77611
957.07230	0.78184
955.01849	0.78683
952.96469	0.79116
950.91089	0.79528
948.85708	0.79881
946.80328	0.80132
944.74948	0.80373
942.69567	0.80653
940.64187	0.80936
938.58807	0.81224
936.53426	0.81535
934.48046	0.81880
932.42666	0.82212
930.37285	0.82496
928.31905	0.82762
926.26525	0.82991
924.21144	0.83158
922.15764	0.83301
920.10384	0.83409
918.05003	0.83468
915.99623	0.83528
913.94243	0.83617
911.88862	0.83730
909.83482	0.83876
907.78102	0.84097
905.72722	0.84409
903.67341	0.84763
901.61961	0.85129
899.56581	0.85497
897.51200	0.85811
895.45820	0.86055
893.40440	0.86292
891.35059	0.86534
889.29679	0.86729
887.24299	0.86811
885.18918	0.86761
883.13538	0.86626
881.08158	0.86348
879.02777	0.85903
876.97397	0.85556
874.92017	0.85601
872.86636	0.86069
870.81256	0.86717
868.75876	0.87241
866.70495	0.87526
864.65115	0.87642
862.59735	0.87705
860.54354	0.87753
858.48974	0.87844
856.43594	0.88052
854.38213	0.88258
852.32833	0.88349
850.27453	0.88366
848.22073	0.88344
846.16692	0.88291
844.11312	0.88244
842.05932	0.88197
840.00551	0.88132
837.95171	0.88068
835.89791	0.88060
833.84410	0.88132
831.79030	0.88185
829.73650	0.88184
827.68269	0.88184
825.62889	0.88158
823.57509	0.88085
821.52128	0.87977
819.46748	0.87889
817.41368	0.87846
815.35987	0.87716
813.30607	0.87458
811.25227	0.87224
809.19846	0.86992
807.14466	0.86647
805.09086	0.86259
803.03705	0.85847
800.98325	0.85428
798.92945	0.85135
796.87565	0.84997
794.82184	0.84999
792.76804	0.85078
790.71424	0.85089
788.66043	0.84970
786.60663	0.84740
784.55283	0.84377
782.49902	0.83905
780.44522	0.83440
778.39142	0.83037
776.33761	0.82673
774.28381	0.82309
772.23001	0.81912
770.17620	0.81442
768.12240	0.80901
766.06860	0.80334
764.01479	0.79713
761.96099	0.79143
759.90719	0.78816
757.85338	0.78650
755.79958	0.78518
753.74578	0.78462
751.69197	0.78481
749.63817	0.78464
747.58437	0.78327
745.53056	0.78045
743.47676	0.77730
741.42296	0.77545
739.36916	0.77385
737.31535	0.77115
735.26155	0.76804
733.20775	0.76486
731.15394	0.76122
729.10014	0.75739
727.04634	0.75434
724.99253	0.75206
722.93873	0.74944
720.88493	0.74642
718.83112	0.74361
716.77732	0.74125
714.72352	0.73874
712.66971	0.73508
710.61591	0.73110
708.56211	0.72683
706.50830	0.71963
704.45450	0.70911
702.40070	0.69761
700.34689	0.68731
698.29309	0.68124
696.23929	0.68088
694.18548	0.68361
692.13168	0.68629
690.07788	0.68750
688.02408	0.68734
685.97027	0.68655
683.91647	0.68481
681.86267	0.68200
679.80886	0.67947
677.75506	0.67822
675.70126	0.67691
673.64745	0.67426
671.59365	0.67156
669.53985	0.66860
667.48604	0.66458
665.43224	0.66300
663.37844	0.66289
661.32463	0.66206
659.27083	0.65982
657.21703	0.65698
655.16322	0.65454
653.10942	0.65199
651.05562	0.64968
649.00181	0.64814
646.94801	0.64665
644.89421	0.64557
642.84040	0.64542
640.78660	0.64483
638.73280	0.64309
636.67899	0.64163
634.62519	0.64063
632.57139	0.63933
630.51759	0.63810
628.46378	0.63654
626.40998	0.63460
624.35618	0.63313
622.30237	0.63151
620.24857	0.62978
618.19477	0.62852
616.14096	0.62702
614.08716	0.62511
612.03336	0.62317
609.97955	0.62084
607.92575	0.61859
605.87195	0.61696
603.81814	0.61568
601.76434	0.61504
599.71054	0.61491
597.65673	0.61448
595.60293	0.61385
593.54913	0.61333
591.49532	0.61211
589.44152	0.61047
587.38772	0.60976
585.33391	0.60944
583.28011	0.60924
581.22631	0.61049
579.17250	0.61235
577.11870	0.61207
575.06490	0.60985
573.01110	0.60831
570.95729	0.60821
568.90349	0.60849
566.84969	0.60756
564.79588	0.60613
562.74208	0.60551
560.68828	0.60363
558.63447	0.60004
556.58067	0.59739
554.52687	0.59574
552.47306	0.59290
550.41926	0.58982
548.36546	0.58828
546.31165	0.58588
544.25785	0.58212
542.20405	0.57839
540.15024	0.57477
538.09644	0.57278
536.04264	0.57077
533.98883	0.56669
531.93503	0.56310
529.88123	0.56086
527.82742	0.55832
525.77362	0.55525
523.71982	0.55369
521.66602	0.55388
519.61221	0.55394
517.55841	0.55371
515.50461	0.55310
513.45080	0.55115
511.39700	0.54849
509.34320	0.54682
507.28939	0.54659
505.23559	0.54703
503.18179	0.54779
501.12798	0.54774
499.07418	0.54581
497.02038	0.54385
494.96657	0.54327
492.91277	0.54413
490.85897	0.54697
488.80516	0.55066
486.75136	0.55222
484.69756	0.54999
482.64375	0.54632
480.58995	0.54384
478.53615	0.54344
476.48234	0.54494
474.42854	0.54532
472.37474	0.54231
470.32093	0.53883
468.26713	0.53735
466.21333	0.53622
464.15953	0.53602
462.10572	0.53863
460.05192	0.54230
457.99812	0.54451
455.94431	0.54648
453.89051	0.54989
451.83671	0.55343
449.78290	0.55581
447.72910	0.55814
445.67530	0.56186
443.62149	0.56473
441.56769	0.56484
439.51389	0.56530
437.46008	0.56699
435.40628	0.56726
433.35248	0.56535
431.29867	0.56048
429.24487	0.55324
427.19107	0.54888
425.13726	0.54828
423.08346	0.54606
421.02966	0.54031
418.97585	0.53206
416.92205	0.52628
414.86825	0.52648
412.81445	0.52828
410.76064	0.52935
408.70684	0.52917
406.65304	0.52844
404.59923	0.53069
402.54543	0.53201
400.49163	0.52643
398.43782	0.51937
