3996.70104	0.96479
3994.64724	0.96448
3992.59344	0.96448
3990.53964	0.96438
3988.48583	0.96403
3986.43203	0.96388
3984.37823	0.96387
3982.32442	0.96364
3980.27062	0.96355
3978.21682	0.96410
3976.16301	0.96505
3974.10921	0.96549
3972.05541	0.96483
3970.00160	0.96393
3967.94780	0.96402
3965.89400	0.96459
3963.84019	0.96450
3961.78639	0.96421
3959.73259	0.96456
3957.67878	0.96521
3955.62498	0.96581
3953.57118	0.96632
3951.51737	0.96650
3949.46357	0.96621
3947.40977	0.96577
3945.35596	0.96587
3943.30216	0.96604
3941.24836	0.96552
3939.19455	0.96512
3937.14075	0.96539
3935.08695	0.96595
3933.03315	0.96632
3930.97934	0.96640
3928.92554	0.96650
3926.87174	0.96616
3924.81793	0.96529
3922.76413	0.96513
3920.71033	0.96564
3918.65652	0.96540
3916.60272	0.96460
3914.54892	0.96453
3912.49511	0.96479
3910.44131	0.96479
3908.38751	0.96492
3906.33370	0.96489
3904.27990	0.96449
3902.22610	0.96463
3900.17229	0.96494
3898.11849	0.96484
3896.06469	0.96503
3894.01088	0.96568
3891.95708	0.96577
3889.90328	0.96502
3887.84947	0.96496
3885.79567	0.96562
3883.74187	0.96618
3881.68807	0.96606
3879.63426	0.96503
3877.58046	0.96464
3875.52666	0.96531
3873.47285	0.96559
3871.41905	0.96493
3869.36525	0.96469
3867.31144	0.96528
3865.25764	0.96556
3863.20384	0.96556
3861.15003	0.96605
3859.09623	0.96649
3857.04243	0.96639
3854.98862	0.96601
3852.93482	0.96556
3850.88102	0.96550
3848.82721	0.96555
3846.77341	0.96554
3844.71961	0.96557
3842.66580	0.96578
3840.61200	0.96638
3838.55820	0.96689
3836.50439	0.96651
3834.45059	0.96612
3832.39679	0.96615
3830.34298	0.96596
3828.28918	0.96552
3826.23538	0.96526
3824.18158	0.96605
3822.12777	0.96758
3820.07397	0.96771
3818.02017	0.96650
3815.96636	0.96624
3813.91256	0.96735
3811.85876	0.96804
3809.80495	0.96773
3807.75115	0.96683
3805.69735	0.96595
3803.64354	0.96564
3801.58974	0.96577
3799.53594	0.96618
3797.48213	0.96628
3795.42833	0.96625
3793.37453	0.96681
3791.32072	0.96735
3789.26692	0.96741
3787.21312	0.96755
3785.15931	0.96762
3783.10551	0.96745
3781.05171	0.96742
3778.99790	0.96717
3776.94410	0.96707
3774.89030	0.96757
3772.83650	0.96771
3770.78269	0.96723
3768.72889	0.96693
3766.67509	0.96708
3764.62128	0.96723
3762.56748	0.96721
3760.51368	0.96706
3758.45987	0.96688
3756.40607	0.96726
3754.35227	0.96833
3752.29846	0.96951
3750.24466	0.96993
3748.19086	0.96942
3746.13705	0.96860
3744.08325	0.96790
3742.02945	0.96772
3739.97564	0.96805
3737.92184	0.96876
3735.86804	0.96957
3733.81423	0.96987
3731.76043	0.96895
3729.70663	0.96772
3727.65282	0.96699
3725.59902	0.96647
3723.54522	0.96620
3721.49141	0.96609
3719.43761	0.96507
3717.38381	0.96306
3715.33001	0.96143
3713.27620	0.96075
3711.22240	0.95908
3709.16860	0.95506
3707.11479	0.95090
3705.06099	0.94769
3703.00719	0.94473
3700.95338	0.94082
3698.89958	0.93703
3696.84578	0.93510
3694.79197	0.93526
3692.73817	0.93698
3690.68437	0.93997
3688.63056	0.94265
3686.57676	0.94333
3684.52296	0.94424
3682.46915	0.94580
3680.41535	0.94674
3678.36155	0.94715
3676.30774	0.94703
3674.25394	0.94588
3672.20014	0.94505
3670.14633	0.94395
3668.09253	0.94214
3666.03873	0.94125
3663.98492	0.94103
3661.93112	0.94095
3659.87732	0.94072
3657.82352	0.94010
3655.76971	0.93917
3653.71591	0.93805
3651.66211	0.93684
3649.60830	0.93611
3647.55450	0.93626
3645.50070	0.93633
3643.44689	0.93616
3641.39309	0.93546
3639.33929	0.93420
3637.28548	0.93333
3635.23168	0.93303
3633.17788	0.93240
3631.12407	0.93125
3629.07027	0.92946
3627.01647	0.92742
3624.96266	0.92626
3622.90886	0.92559
3620.85506	0.92503
3618.80125	0.92486
3616.74745	0.92628
3614.69365	0.92845
3612.63984	0.92956
3610.58604	0.92934
3608.53224	0.92859
3606.47844	0.92885
3604.42463	0.92995
3602.37083	0.93055
3600.31703	0.93108
3598.26322	0.93169
3596.20942	0.93160
3594.15562	0.93158
3592.10181	0.93217
3590.04801	0.93274
3587.99421	0.93292
3585.94040	0.93220
3583.88660	0.93147
3581.83280	0.93122
3579.77899	0.93086
3577.72519	0.93053
3575.67139	0.93028
3573.61758	0.92970
3571.56378	0.92926
3569.50998	0.92930
3567.45617	0.92910
3565.40237	0.92887
3563.34857	0.92907
3561.29476	0.92900
3559.24096	0.92882
3557.18716	0.92878
3555.13335	0.92888
3553.07955	0.92897
3551.02575	0.92852
3548.97195	0.92801
3546.91814	0.92793
3544.86434	0.92783
3542.81054	0.92748
3540.75673	0.92682
3538.70293	0.92601
3536.64913	0.92541
3534.59532	0.92539
3532.54152	0.92579
3530.48772	0.92590
3528.43391	0.92555
3526.38011	0.92524
3524.32631	0.92553
3522.27250	0.92605
3520.21870	0.92604
3518.16490	0.92582
3516.11109	0.92589
3514.05729	0.92590
3512.00349	0.92543
3509.94968	0.92476
3507.89588	0.92426
3505.84208	0.92399
3503.78827	0.92380
3501.73447	0.92342
3499.68067	0.92281
3497.62687	0.92243
3495.57306	0.92255
3493.51926	0.92272
3491.46546	0.92262
3489.41165	0.92229
3487.35785	0.92187
3485.30405	0.92167
3483.25024	0.92176
3481.19644	0.92164
3479.14264	0.92115
3477.08883	0.92076
3475.03503	0.92044
3472.98123	0.92028
3470.92742	0.92031
3468.87362	0.91994
3466.81982	0.91914
3464.76601	0.91837
3462.71221	0.91798
3460.65841	0.91810
3458.60460	0.91807
3456.55080	0.91728
3454.49700	0.91652
3452.44319	0.91648
3450.38939	0.91649
3448.33559	0.91609
3446.28178	0.91556
3444.22798	0.91530
3442.17418	0.91510
3440.12038	0.91480
3438.06657	0.91467
3436.01277	0.91459
3433.95897	0.91425
3431.90516	0.91366
3429.85136	0.91303
3427.79756	0.91259
3425.74375	0.91210
3423.68995	0.91137
3421.63615	0.91075
3419.58234	0.91047
3417.52854	0.91036
3415.47474	0.91020
3413.42093	0.91001
3411.36713	0.90991
3409.31333	0.90989
3407.25952	0.90961
3405.20572	0.90865
3403.15192	0.90779
3401.09811	0.90813
3399.04431	0.90882
3396.99051	0.90884
3394.93670	0.90861
3392.88290	0.90822
3390.82910	0.90761
3388.77529	0.90738
3386.72149	0.90753
3384.66769	0.90759
3382.61389	0.90760
3380.56008	0.90774
3378.50628	0.90766
3376.45248	0.90708
3374.39867	0.90657
3372.34487	0.90675
3370.29107	0.90746
3368.23726	0.90821
3366.18346	0.90842
3364.12966	0.90773
3362.07585	0.90675
3360.02205	0.90637
3357.96825	0.90693
3355.91444	0.90794
3353.86064	0.90863
3351.80684	0.90864
3349.75303	0.90812
3347.69923	0.90769
3345.64543	0.90758
3343.59162	0.90775
3341.53782	0.90818
3339.48402	0.90860
3337.43021	0.90866
3335.37641	0.90835
3333.32261	0.90798
3331.26881	0.90803
3329.21500	0.90877
3327.16120	0.90973
3325.10740	0.90983
3323.05359	0.90885
3320.99979	0.90816
3318.94599	0.90853
3316.89218	0.90906
3314.83838	0.90903
3312.78458	0.90878
3310.73077	0.90885
3308.67697	0.90893
3306.62317	0.90885
3304.56936	0.90892
3302.51556	0.90889
3300.46176	0.90865
3298.40795	0.90852
3296.35415	0.90878
3294.30035	0.90926
3292.24654	0.90949
3290.19274	0.90955
3288.13894	0.90940
3286.08513	0.90915
3284.03133	0.90928
3281.97753	0.90945
3279.92372	0.90942
3277.86992	0.90982
3275.81612	0.91065
3273.76232	0.91114
3271.70851	0.91128
3269.65471	0.91155
3267.60091	0.91150
3265.54710	0.91126
3263.49330	0.91176
3261.43950	0.91278
3259.38569	0.91361
3257.33189	0.91382
3255.27809	0.91339
3253.22428	0.91309
3251.17048	0.91338
3249.11668	0.91405
3247.06287	0.91489
3245.00907	0.91552
3242.95527	0.91518
3240.90146	0.91430
3238.84766	0.91407
3236.79386	0.91481
3234.74005	0.91598
3232.68625	0.91668
3230.63245	0.91692
3228.57864	0.91710
3226.52484	0.91712
3224.47104	0.91725
3222.41724	0.91766
3220.36343	0.91807
3218.30963	0.91844
3216.25583	0.91879
3214.20202	0.91909
3212.14822	0.91963
3210.09442	0.92027
3208.04061	0.92050
3205.98681	0.92072
3203.93301	0.92116
3201.87920	0.92163
3199.82540	0.92227
3197.77160	0.92290
3195.71779	0.92346
3193.66399	0.92420
3191.61019	0.92470
3189.55638	0.92464
3187.50258	0.92439
3185.44878	0.92437
3183.39497	0.92471
3181.34117	0.92528
3179.28737	0.92596
3177.23356	0.92653
3175.17976	0.92683
3173.12596	0.92732
3171.07215	0.92810
3169.01835	0.92847
3166.96455	0.92836
3164.91075	0.92859
3162.85694	0.92941
3160.80314	0.93026
3158.74934	0.93063
3156.69553	0.93072
3154.64173	0.93102
3152.58793	0.93136
3150.53412	0.93153
3148.48032	0.93179
3146.42652	0.93217
3144.37271	0.93257
3142.31891	0.93299
3140.26511	0.93356
3138.21130	0.93412
3136.15750	0.93452
3134.10370	0.93500
3132.04989	0.93552
3129.99609	0.93589
3127.94229	0.93597
3125.88848	0.93593
3123.83468	0.93619
3121.78088	0.93657
3119.72707	0.93675
3117.67327	0.93702
3115.61947	0.93753
3113.56566	0.93778
3111.51186	0.93765
3109.45806	0.93757
3107.40426	0.93768
3105.35045	0.93790
3103.29665	0.93815
3101.24285	0.93855
3099.18904	0.93917
3097.13524	0.93956
3095.08144	0.93961
3093.02763	0.93974
3090.97383	0.93988
3088.92003	0.93976
3086.86622	0.93967
3084.81242	0.93997
3082.75862	0.94046
3080.70481	0.94076
3078.65101	0.94094
3076.59721	0.94140
3074.54340	0.94205
3072.48960	0.94257
3070.43580	0.94301
3068.38199	0.94315
3066.32819	0.94296
3064.27439	0.94282
3062.22058	0.94275
3060.16678	0.94280
3058.11298	0.94306
3056.05918	0.94354
3054.00537	0.94409
3051.95157	0.94426
3049.89777	0.94423
3047.84396	0.94450
3045.79016	0.94511
3043.73636	0.94564
3041.68255	0.94570
3039.62875	0.94572
3037.57495	0.94615
3035.52114	0.94646
3033.46734	0.94646
3031.41354	0.94659
3029.35973	0.94664
3027.30593	0.94656
3025.25213	0.94697
3023.19832	0.94779
3021.14452	0.94844
3019.09072	0.94884
3017.03691	0.94896
3014.98311	0.94883
3012.92931	0.94880
3010.87550	0.94918
3008.82170	0.94967
3006.76790	0.94959
3004.71409	0.94922
3002.66029	0.94934
3000.60649	0.94980
2998.55269	0.94993
2996.49888	0.94962
2994.44508	0.94929
2992.39128	0.94912
2990.33747	0.94907
2988.28367	0.94910
2986.22987	0.94904
2984.17606	0.94899
2982.12226	0.94895
2980.06846	0.94881
2978.01465	0.94876
2975.96085	0.94850
2973.90705	0.94758
2971.85324	0.94648
2969.79944	0.94574
2967.74564	0.94499
2965.69183	0.94376
2963.63803	0.94254
2961.58423	0.94164
2959.53042	0.94076
2957.47662	0.93989
2955.42282	0.93895
2953.36901	0.93796
2951.31521	0.93729
2949.26141	0.93641
2947.20761	0.93447
2945.15380	0.93156
2943.10000	0.92772
2941.04620	0.92266
2938.99239	0.91660
2936.93859	0.90940
2934.88479	0.90027
2932.83098	0.88911
2930.77718	0.87613
2928.72338	0.86101
2926.66957	0.84287
2924.61577	0.82077
2922.56197	0.79421
2920.50816	0.76441
2918.45436	0.73553
2916.40056	0.71411
2914.34675	0.70673
2912.29295	0.71539
2910.23915	0.73489
2908.18534	0.75728
2906.13154	0.77729
2904.07774	0.79320
2902.02393	0.80533
2899.97013	0.81466
2897.91633	0.82257
2895.86252	0.83008
2893.80872	0.83726
2891.75492	0.84406
2889.70112	0.85077
2887.64731	0.85786
2885.59351	0.86552
2883.53971	0.87339
2881.48590	0.88109
2879.43210	0.88862
2877.37830	0.89588
2875.32449	0.90214
2873.27069	0.90687
2871.21689	0.91036
2869.16308	0.91300
2867.10928	0.91422
2865.05548	0.91315
2863.00167	0.90944
2860.94787	0.90269
2858.89407	0.89133
2856.84026	0.87286
2854.78646	0.84491
2852.73266	0.80718
2850.67885	0.76594
2848.62505	0.73569
2846.57125	0.72969
2844.51744	0.74764
2842.46364	0.77794
2840.40984	0.80923
2838.35603	0.83579
2836.30223	0.85635
2834.24843	0.87193
2832.19463	0.88374
2830.14082	0.89248
2828.08702	0.89927
2826.03322	0.90511
2823.97941	0.91024
2821.92561	0.91458
2819.87181	0.91821
2817.81800	0.92132
2815.76420	0.92388
2813.71040	0.92582
2811.65659	0.92766
2809.60279	0.92978
2807.54899	0.93183
2805.49518	0.93342
2803.44138	0.93450
2801.38758	0.93526
2799.33377	0.93608
2797.27997	0.93710
2795.22617	0.93801
2793.17236	0.93885
2791.11856	0.93983
2789.06476	0.94065
2787.01095	0.94127
2784.95715	0.94188
2782.90335	0.94254
2780.84955	0.94330
2778.79574	0.94405
2776.74194	0.94475
2774.68814	0.94545
2772.63433	0.94598
2770.58053	0.94632
2768.52673	0.94672
2766.47292	0.94708
2764.41912	0.94714
2762.36532	0.94714
2760.31151	0.94741
2758.25771	0.94780
2756.20391	0.94802
2754.15010	0.94832
2752.09630	0.94895
2750.04250	0.94948
2747.98869	0.94969
2745.93489	0.94975
2743.88109	0.94960
2741.82728	0.94964
2739.77348	0.95031
2737.71968	0.95094
2735.66587	0.95093
2733.61207	0.95077
2731.55827	0.95095
2729.50446	0.95130
2727.45066	0.95167
2725.39686	0.95200
2723.34306	0.95206
2721.28925	0.95217
2719.23545	0.95249
2717.18165	0.95262
2715.12784	0.95265
2713.07404	0.95289
2711.02024	0.95314
2708.96643	0.95322
2706.91263	0.95347
2704.85883	0.95394
2702.80502	0.95413
2700.75122	0.95371
2698.69742	0.95314
2696.64361	0.95300
2694.58981	0.95335
2692.53601	0.95390
2690.48220	0.95415
2688.42840	0.95413
2686.37460	0.95409
2684.32079	0.95413
2682.26699	0.95434
2680.21319	0.95456
2678.15938	0.95452
2676.10558	0.95429
2674.05178	0.95429
2671.99797	0.95462
2669.94417	0.95480
2667.89037	0.95460
2665.83657	0.95438
2663.78276	0.95443
2661.72896	0.95465
2659.67516	0.95473
2657.62135	0.95462
2655.56755	0.95470
2653.51375	0.95501
2651.45994	0.95527
2649.40614	0.95568
2647.35234	0.95610
2645.29853	0.95591
2643.24473	0.95534
2641.19093	0.95514
2639.13712	0.95525
2637.08332	0.95537
2635.02952	0.95574
2632.97571	0.95616
2630.92191	0.95592
2628.86811	0.95551
2626.81430	0.95593
2624.76050	0.95682
2622.70670	0.95725
2620.65289	0.95724
2618.59909	0.95731
2616.54529	0.95746
2614.49149	0.95776
2612.43768	0.95812
2610.38388	0.95822
2608.33008	0.95829
2606.27627	0.95832
2604.22247	0.95806
2602.16867	0.95801
2600.11486	0.95837
2598.06106	0.95867
2596.00726	0.95875
2593.95345	0.95886
2591.89965	0.95915
2589.84585	0.95966
2587.79204	0.96021
2585.73824	0.96042
2583.68444	0.96031
2581.63063	0.96033
2579.57683	0.96047
2577.52303	0.96039
2575.46922	0.96035
2573.41542	0.96044
2571.36162	0.96042
2569.30781	0.96052
2567.25401	0.96088
2565.20021	0.96134
2563.14640	0.96170
2561.09260	0.96155
2559.03880	0.96130
2556.98500	0.96144
2554.93119	0.96146
2552.87739	0.96139
2550.82359	0.96173
2548.76978	0.96194
2546.71598	0.96147
2544.66218	0.96123
2542.60837	0.96169
2540.55457	0.96190
2538.50077	0.96173
2536.44696	0.96183
2534.39316	0.96188
2532.33936	0.96189
2530.28555	0.96207
2528.23175	0.96217
2526.17795	0.96237
2524.12414	0.96240
2522.07034	0.96242
2520.01654	0.96288
2517.96273	0.96338
2515.90893	0.96330
2513.85513	0.96252
2511.80132	0.96198
2509.74752	0.96243
2507.69372	0.96334
2505.63992	0.96376
2503.58611	0.96334
2501.53231	0.96250
2499.47851	0.96205
2497.42470	0.96268
2495.37090	0.96368
2493.31710	0.96355
2491.26329	0.96247
2489.20949	0.96197
2487.15569	0.96243
2485.10188	0.96299
2483.04808	0.96315
2480.99428	0.96333
2478.94047	0.96381
2476.88667	0.96430
2474.83287	0.96409
2472.77906	0.96324
2470.72526	0.96296
2468.67146	0.96343
2466.61765	0.96391
2464.56385	0.96415
2462.51005	0.96423
2460.45624	0.96440
2458.40244	0.96470
2456.34864	0.96446
2454.29483	0.96399
2452.24103	0.96427
2450.18723	0.96460
2448.13343	0.96442
2446.07962	0.96422
2444.02582	0.96388
2441.97202	0.96352
2439.91821	0.96365
2437.86441	0.96388
2435.81061	0.96405
2433.75680	0.96436
2431.70300	0.96429
2429.64920	0.96390
2427.59539	0.96395
2425.54159	0.96434
2423.48779	0.96418
2421.43398	0.96349
2419.38018	0.96347
2417.32638	0.96399
2415.27257	0.96413
2413.21877	0.96420
2411.16497	0.96429
2409.11116	0.96414
2407.05736	0.96392
2405.00356	0.96386
2402.94975	0.96429
2400.89595	0.96479
2398.84215	0.96477
2396.78834	0.96443
2394.73454	0.96418
2392.68074	0.96428
2390.62694	0.96474
2388.57313	0.96536
2386.51933	0.96562
2384.46553	0.96541
2382.41172	0.96536
2380.35792	0.96550
2378.30412	0.96540
2376.25031	0.96535
2374.19651	0.96544
2372.14271	0.96529
2370.08890	0.96521
2368.03510	0.96551
2365.98130	0.96521
2363.92749	0.96435
2361.87369	0.96391
2359.81989	0.96375
2357.76608	0.96447
2355.71228	0.96551
2353.65848	0.96501
2351.60467	0.96359
2349.55087	0.96283
2347.49707	0.96261
2345.44326	0.96225
2343.38946	0.96208
2341.33566	0.96255
2339.28186	0.96315
2337.22805	0.96343
2335.17425	0.96329
2333.12045	0.96298
2331.06664	0.96283
2329.01284	0.96293
2326.95904	0.96305
2324.90523	0.96288
2322.85143	0.96287
2320.79763	0.96322
2318.74382	0.96347
2316.69002	0.96393
2314.63622	0.96450
2312.58241	0.96408
2310.52861	0.96308
2308.47481	0.96321
2306.42100	0.96411
2304.36720	0.96417
2302.31340	0.96373
2300.25959	0.96392
2298.20579	0.96443
2296.15199	0.96444
2294.09818	0.96405
2292.04438	0.96353
2289.99058	0.96297
2287.93677	0.96263
2285.88297	0.96268
2283.82917	0.96304
2281.77537	0.96417
2279.72156	0.96554
2277.66776	0.96578
2275.61396	0.96552
2273.56015	0.96551
2271.50635	0.96569
2269.45255	0.96625
2267.39874	0.96685
2265.34494	0.96712
2263.29114	0.96722
2261.23733	0.96695
2259.18353	0.96614
2257.12973	0.96547
2255.07592	0.96531
2253.02212	0.96512
2250.96832	0.96501
2248.91451	0.96531
2246.86071	0.96584
2244.80691	0.96653
2242.75310	0.96730
2240.69930	0.96794
2238.64550	0.96727
2236.59169	0.96561
2234.53789	0.96563
2232.48409	0.96675
2230.43029	0.96586
2228.37648	0.96446
2226.32268	0.96557
2224.26888	0.96717
2222.21507	0.96798
2220.16127	0.96890
2218.10747	0.96946
2216.05366	0.96967
2213.99986	0.96901
2211.94606	0.96746
2209.89225	0.96579
2207.83845	0.96386
2205.78465	0.96321
2203.73084	0.96536
2201.67704	0.96841
2199.62324	0.96976
2197.56943	0.96898
2195.51563	0.96728
2193.46183	0.96628
2191.40802	0.96679
2189.35422	0.96874
2187.30042	0.97092
2185.24661	0.97069
2183.19281	0.96805
2181.13901	0.96561
2179.08520	0.96476
2177.03140	0.96612
2174.97760	0.96805
2172.92380	0.96774
2170.86999	0.96625
2168.81619	0.96632
2166.76239	0.96765
2164.70858	0.96843
2162.65478	0.96904
2160.60098	0.97090
2158.54717	0.97356
2156.49337	0.97404
2154.43957	0.97249
2152.38576	0.97201
2150.33196	0.97238
2148.27816	0.97256
2146.22435	0.97293
2144.17055	0.97229
2142.11675	0.97068
2140.06294	0.96960
2138.00914	0.96884
2135.95534	0.96972
2133.90153	0.97188
2131.84773	0.97185
2129.79393	0.97002
2127.74012	0.96842
2125.68632	0.96783
2123.63252	0.96791
2121.57871	0.96748
2119.52491	0.96736
2117.47111	0.96789
2115.41731	0.96804
2113.36350	0.96859
2111.30970	0.96964
2109.25590	0.96978
2107.20209	0.96913
2105.14829	0.96924
2103.09449	0.96983
2101.04068	0.96937
2098.98688	0.96873
2096.93308	0.96873
2094.87927	0.96818
2092.82547	0.96770
2090.77167	0.96890
2088.71786	0.97092
2086.66406	0.97150
2084.61026	0.97046
2082.55645	0.96941
2080.50265	0.96884
2078.44885	0.96869
2076.39504	0.96891
2074.34124	0.96851
2072.28744	0.96787
2070.23363	0.96832
2068.17983	0.96903
2066.12603	0.96902
2064.07223	0.96876
2062.01842	0.96878
2059.96462	0.96981
2057.91082	0.97131
2055.85701	0.97124
2053.80321	0.96964
2051.74941	0.96743
2049.69560	0.96569
2047.64180	0.96616
2045.58800	0.96710
2043.53419	0.96684
2041.48039	0.96735
2039.42659	0.96885
2037.37278	0.97005
2035.31898	0.97078
2033.26518	0.97092
2031.21137	0.97152
2029.15757	0.97313
2027.10377	0.97399
2025.04996	0.97363
2022.99616	0.97225
2020.94236	0.97094
2018.88855	0.97176
2016.83475	0.97486
2014.78095	0.97717
2012.72714	0.97561
2010.67334	0.97191
2008.61954	0.97109
2006.56574	0.97346
2004.51193	0.97496
2002.45813	0.97467
2000.40433	0.97340
1998.35052	0.97193
1996.29672	0.97106
1994.24292	0.97060
1992.18911	0.97036
1990.13531	0.97034
1988.08151	0.96962
1986.02770	0.96760
1983.97390	0.96660
1981.92010	0.96794
1979.86629	0.96934
1977.81249	0.96934
1975.75869	0.96992
1973.70488	0.97182
1971.65108	0.97282
1969.59728	0.97302
1967.54347	0.97311
1965.48967	0.97211
1963.43587	0.97054
1961.38206	0.97021
1959.32826	0.97165
1957.27446	0.97301
1955.22066	0.97222
1953.16685	0.96999
1951.11305	0.96853
1949.05925	0.96837
1947.00544	0.96897
1944.95164	0.96949
1942.89784	0.96908
1940.84403	0.96865
1938.79023	0.96891
1936.73643	0.96886
1934.68262	0.96872
1932.62882	0.96906
1930.57502	0.96926
1928.52121	0.96896
1926.46741	0.96866
1924.41361	0.96897
1922.35980	0.96922
1920.30600	0.96830
1918.25220	0.96716
1916.19839	0.96730
1914.14459	0.96809
1912.09079	0.96829
1910.03698	0.96799
1907.98318	0.96775
1905.92938	0.96767
1903.87557	0.96766
1901.82177	0.96758
1899.76797	0.96742
1897.71417	0.96766
1895.66036	0.96846
1893.60656	0.96900
1891.55276	0.96863
1889.49895	0.96820
1887.44515	0.96854
1885.39135	0.96885
1883.33754	0.96876
1881.28374	0.96854
1879.22994	0.96823
1877.17613	0.96815
1875.12233	0.96850
1873.06853	0.96903
1871.01472	0.96966
1868.96092	0.97017
1866.90712	0.97016
1864.85331	0.96990
1862.79951	0.96958
1860.74571	0.96913
1858.69190	0.96871
1856.63810	0.96852
1854.58430	0.96860
1852.53049	0.96854
1850.47669	0.96846
1848.42289	0.96902
1846.36908	0.96993
1844.31528	0.97028
1842.26148	0.96969
1840.20768	0.96903
1838.15387	0.96892
1836.10007	0.96901
1834.04627	0.96905
1831.99246	0.96895
1829.93866	0.96873
1827.88486	0.96885
1825.83105	0.96889
1823.77725	0.96846
1821.72345	0.96813
1819.66964	0.96816
1817.61584	0.96848
1815.56204	0.96864
1813.50823	0.96835
1811.45443	0.96802
1809.40063	0.96780
1807.34682	0.96775
1805.29302	0.96802
1803.23922	0.96855
1801.18541	0.96892
1799.13161	0.96878
1797.07781	0.96833
1795.02400	0.96770
1792.97020	0.96698
1790.91640	0.96689
1788.86260	0.96731
1786.80879	0.96739
1784.75499	0.96706
1782.70119	0.96694
1780.64738	0.96735
1778.59358	0.96781
1776.53978	0.96817
1774.48597	0.96818
1772.43217	0.96725
1770.37837	0.96633
1768.32456	0.96591
1766.27076	0.96552
1764.21696	0.96577
1762.16315	0.96623
1760.10935	0.96598
1758.05555	0.96572
1756.00174	0.96560
1753.94794	0.96524
1751.89414	0.96455
1749.84033	0.96326
1747.78653	0.96194
1745.73273	0.96097
1743.67892	0.95986
1741.62512	0.95859
1739.57132	0.95744
1737.51751	0.95661
1735.46371	0.95608
1733.40991	0.95541
1731.35611	0.95500
1729.30230	0.95503
1727.24850	0.95522
1725.19470	0.95528
1723.14089	0.95508
1721.08709	0.95476
1719.03329	0.95428
1716.97948	0.95399
1714.92568	0.95381
1712.87188	0.95337
1710.81807	0.95282
1708.76427	0.95217
1706.71047	0.95129
1704.65666	0.95042
1702.60286	0.94977
1700.54906	0.94836
1698.49525	0.94580
1696.44145	0.94315
1694.38765	0.94085
1692.33384	0.93942
1690.28004	0.93790
1688.22624	0.93587
1686.17243	0.93388
1684.11863	0.93098
1682.06483	0.92782
1680.01103	0.92592
1677.95722	0.92439
1675.90342	0.92229
1673.84962	0.91967
1671.79581	0.91767
1669.74201	0.91539
1667.68821	0.91260
1665.63440	0.91048
1663.58060	0.90816
1661.52680	0.90566
1659.47299	0.90431
1657.41919	0.90373
1655.36539	0.90307
1653.31158	0.90108
1651.25778	0.89954
1649.20398	0.89969
1647.15017	0.89890
1645.09637	0.89722
1643.04257	0.89668
1640.98876	0.89692
1638.93496	0.89752
1636.88116	0.89773
1634.82735	0.89686
1632.77355	0.89634
1630.71975	0.89655
1628.66594	0.89729
1626.61214	0.89867
1624.55834	0.90044
1622.50454	0.90235
1620.45073	0.90427
1618.39693	0.90642
1616.34313	0.90880
1614.28932	0.91077
1612.23552	0.91262
1610.18172	0.91464
1608.12791	0.91665
1606.07411	0.91834
1604.02031	0.91957
1601.96650	0.92055
1599.91270	0.92181
1597.85890	0.92324
1595.80509	0.92426
1593.75129	0.92494
1591.69749	0.92553
1589.64368	0.92619
1587.58988	0.92691
1585.53608	0.92762
1583.48227	0.92844
1581.42847	0.92921
1579.37467	0.92965
1577.32086	0.92973
1575.26706	0.92964
1573.21326	0.92982
1571.15945	0.93000
1569.10565	0.92976
1567.05185	0.92947
1564.99805	0.92923
1562.94424	0.92878
1560.89044	0.92808
1558.83664	0.92685
1556.78283	0.92664
1554.72903	0.92698
1552.67523	0.92690
1550.62142	0.92678
1548.56762	0.92662
1546.51382	0.92636
1544.46001	0.92605
1542.40621	0.92587
1540.35241	0.92608
1538.29860	0.92699
1536.24480	0.92803
1534.19100	0.92886
1532.13719	0.92964
1530.08339	0.93056
1528.02959	0.93165
1525.97578	0.93299
1523.92198	0.93434
1521.86818	0.93547
1519.81437	0.93618
1517.76057	0.93658
1515.70677	0.93726
1513.65297	0.93836
1511.59916	0.93967
1509.54536	0.94100
1507.49156	0.94235
1505.43775	0.94357
1503.38395	0.94431
1501.33015	0.94486
1499.27634	0.94550
1497.22254	0.94626
1495.16874	0.94669
1493.11493	0.94693
1491.06113	0.94763
1489.00733	0.94852
1486.95352	0.94837
1484.89972	0.94752
1482.84592	0.94648
1480.79211	0.94457
1478.73831	0.93916
1476.68451	0.92371
1474.63070	0.89296
1472.57690	0.86242
1470.52310	0.85859
1468.46929	0.86685
1466.41549	0.86871
1464.36169	0.85960
1462.30788	0.85438
1460.25408	0.86433
1458.20028	0.88451
1456.14648	0.90181
1454.09267	0.90853
1452.03887	0.91253
1449.98507	0.91611
1447.93126	0.91856
1445.87746	0.91981
1443.82366	0.92073
1441.76985	0.92183
1439.71605	0.92297
1437.66225	0.92392
1435.60844	0.92468
1433.55464	0.92561
1431.50084	0.92662
1429.44703	0.92746
1427.39323	0.92822
1425.33943	0.92884
1423.28562	0.92935
1421.23182	0.92983
1419.17802	0.93005
1417.12421	0.92999
1415.07041	0.93009
1413.01661	0.93032
1410.96280	0.93062
1408.90900	0.93113
1406.85520	0.93178
1404.80139	0.93243
1402.74759	0.93312
1400.69379	0.93375
1398.63999	0.93389
1396.58618	0.93364
1394.53238	0.93366
1392.47858	0.93389
1390.42477	0.93408
1388.37097	0.93430
1386.31717	0.93419
1384.26336	0.93386
1382.20956	0.93367
1380.15576	0.93325
1378.10195	0.93272
1376.04815	0.93248
1373.99435	0.93235
1371.94054	0.93230
1369.88674	0.93231
1367.83294	0.93220
1365.77913	0.93232
1363.72533	0.93311
1361.67153	0.93424
1359.61772	0.93502
1357.56392	0.93533
1355.51012	0.93543
1353.45631	0.93558
1351.40251	0.93597
1349.34871	0.93652
1347.29491	0.93697
1345.24110	0.93727
1343.18730	0.93754
1341.13350	0.93771
1339.07969	0.93774
1337.02589	0.93779
1334.97209	0.93803
1332.91828	0.93826
1330.86448	0.93824
1328.81068	0.93817
1326.75687	0.93811
1324.70307	0.93793
1322.64927	0.93761
1320.59546	0.93735
1318.54166	0.93725
1316.48786	0.93712
1314.43405	0.93687
1312.38025	0.93658
1310.32645	0.93634
1308.27264	0.93623
1306.21884	0.93617
1304.16504	0.93611
1302.11123	0.93592
1300.05743	0.93560
1298.00363	0.93533
1295.94982	0.93526
1293.89602	0.93538
1291.84222	0.93530
1289.78842	0.93481
1287.73461	0.93445
1285.68081	0.93451
1283.62701	0.93455
1281.57320	0.93416
1279.51940	0.93345
1277.46560	0.93266
1275.41179	0.93185
1273.35799	0.93102
1271.30419	0.93034
1269.25038	0.92993
1267.19658	0.92938
1265.14278	0.92825
1263.08897	0.92684
1261.03517	0.92577
1258.98137	0.92528
1256.92756	0.92497
1254.87376	0.92439
1252.81996	0.92357
1250.76615	0.92276
1248.71235	0.92215
1246.65855	0.92150
1244.60474	0.92049
1242.55094	0.91937
1240.49714	0.91865
1238.44334	0.91843
1236.38953	0.91814
1234.33573	0.91727
1232.28193	0.91616
1230.22812	0.91540
1228.17432	0.91489
1226.12052	0.91442
1224.06671	0.91406
1222.01291	0.91377
1219.95911	0.91302
1217.90530	0.91187
1215.85150	0.91076
1213.79770	0.90955
1211.74389	0.90825
1209.69009	0.90726
1207.63629	0.90626
1205.58248	0.90474
1203.52868	0.90281
1201.47488	0.90087
1199.42107	0.89926
1197.36727	0.89767
1195.31347	0.89569
1193.25966	0.89357
1191.20586	0.89137
1189.15206	0.88879
1187.09825	0.88558
1185.04445	0.88217
1182.99065	0.87918
1180.93685	0.87625
1178.88304	0.87284
1176.82924	0.86909
1174.77544	0.86509
1172.72163	0.86098
1170.66783	0.85723
1168.61403	0.85350
1166.56022	0.84942
1164.50642	0.84555
1162.45262	0.84247
1160.39881	0.83997
1158.34501	0.83737
1156.29121	0.83460
1154.23740	0.83198
1152.18360	0.82931
1150.12980	0.82634
1148.07599	0.82334
1146.02219	0.82033
1143.96839	0.81736
1141.91458	0.81472
1139.86078	0.81200
1137.80698	0.80857
1135.75317	0.80453
1133.69937	0.80028
1131.64557	0.79590
1129.59176	0.79126
1127.53796	0.78612
1125.48416	0.78034
1123.43036	0.77426
1121.37655	0.76781
1119.32275	0.76070
1117.26895	0.75355
1115.21514	0.74707
1113.16134	0.74116
1111.10754	0.73560
1109.05373	0.73033
1106.99993	0.72506
1104.94613	0.71973
1102.89232	0.71479
1100.83852	0.71044
1098.78472	0.70662
1096.73091	0.70314
1094.67711	0.69987
1092.62331	0.69703
1090.56950	0.69467
1088.51570	0.69257
1086.46190	0.69061
1084.40809	0.68872
1082.35429	0.68655
1080.30049	0.68390
1078.24668	0.68099
1076.19288	0.67788
1074.13908	0.67461
1072.08528	0.67108
1070.03147	0.66706
1067.97767	0.66238
1065.92387	0.65678
1063.87006	0.65016
1061.81626	0.64287
1059.76246	0.63534
1057.70865	0.62732
1055.65485	0.61863
1053.60105	0.60958
1051.54724	0.60003
1049.49344	0.59025
1047.43964	0.58065
1045.38583	0.57085
1043.33203	0.56070
1041.27823	0.55073
1039.22442	0.54138
1037.17062	0.53291
1035.11682	0.52555
1033.06301	0.51936
1031.00921	0.51452
1028.95541	0.51155
1026.90160	0.51055
1024.84780	0.51080
1022.79400	0.51107
1020.74019	0.51072
1018.68639	0.51020
1016.63259	0.50977
1014.57879	0.50881
1012.52498	0.50679
1010.47118	0.50427
1008.41738	0.50222
1006.36357	0.50122
1004.30977	0.50196
1002.25597	0.50480
1000.20216	0.50907
998.14836	0.51468
996.09456	0.52244
994.04075	0.53186
991.98695	0.54163
989.93315	0.55142
987.87934	0.56154
985.82554	0.57219
983.77174	0.58338
981.71793	0.59479
979.66413	0.60625
977.61033	0.61791
975.55652	0.62959
973.50272	0.64079
971.44892	0.65125
969.39511	0.66122
967.34131	0.67101
965.28751	0.68064
963.23371	0.68973
961.17990	0.69807
959.12610	0.70599
957.07230	0.71334
955.01849	0.71997
952.96469	0.72611
950.91089	0.73149
948.85708	0.73603
946.80328	0.74020
944.74948	0.74415
942.69567	0.74739
940.64187	0.74965
938.58807	0.75172
936.53426	0.75431
934.48046	0.75688
932.42666	0.75913
930.37285	0.76140
928.31905	0.76310
926.26525	0.76359
924.21144	0.76324
922.15764	0.76210
920.10384	0.76022
918.05003	0.75771
915.99623	0.75440
913.94243	0.75188
911.88862	0.75251
909.83482	0.75674
907.78102	0.76385
905.72722	0.77287
903.67341	0.78266
901.61961	0.79224
899.56581	0.80079
897.51200	0.80811
895.45820	0.81455
893.40440	0.82041
891.35059	0.82562
889.29679	0.83015
887.24299	0.83414
885.18918	0.83696
883.13538	0.83839
881.08158	0.83977
879.02777	0.84210
876.97397	0.84486
874.92017	0.84759
872.86636	0.85046
870.81256	0.85334
868.75876	0.85638
866.70495	0.85998
864.65115	0.86346
862.59735	0.86595
860.54354	0.86806
858.48974	0.87033
856.43594	0.87231
854.38213	0.87400
852.32833	0.87573
850.27453	0.87736
848.22073	0.87874
846.16692	0.87966
844.11312	0.88013
842.05932	0.88056
840.00551	0.88091
837.95171	0.88076
835.89791	0.87986
833.84410	0.87851
831.79030	0.87714
829.73650	0.87589
827.68269	0.87495
825.62889	0.87427
823.57509	0.87392
821.52128	0.87389
819.46748	0.87372
817.41368	0.87301
815.35987	0.87190
813.30607	0.87022
811.25227	0.86765
809.19846	0.86424
807.14466	0.85998
805.09086	0.85482
803.03705	0.84895
800.98325	0.84346
798.92945	0.83993
796.87565	0.83868
794.82184	0.83880
792.76804	0.83926
790.71424	0.83949
788.66043	0.83949
786.60663	0.83926
784.55283	0.83873
782.49902	0.83840
780.44522	0.83826
778.39142	0.83794
776.33761	0.83781
774.28381	0.83797
772.23001	0.83809
770.17620	0.83813
768.12240	0.83780
766.06860	0.83648
764.01479	0.83434
761.96099	0.83239
759.90719	0.83111
757.85338	0.83045
755.79958	0.83007
753.74578	0.82950
751.69197	0.82928
749.63817	0.82979
747.58437	0.83005
745.53056	0.82978
743.47676	0.82993
741.42296	0.83085
739.36916	0.83220
737.31535	0.83272
735.26155	0.82730
733.20775	0.80899
731.15394	0.78483
729.10014	0.77550
727.04634	0.78292
724.99253	0.78748
722.93873	0.77438
720.88493	0.74403
718.83112	0.71860
716.77732	0.72093
714.72352	0.74473
712.66971	0.77026
710.61591	0.78683
708.56211	0.79448
706.50830	0.79646
704.45450	0.79546
702.40070	0.79313
700.34689	0.79034
698.29309	0.78756
696.23929	0.78517
694.18548	0.78412
692.13168	0.78401
690.07788	0.78374
688.02408	0.78419
685.97027	0.78550
683.91647	0.78659
681.86267	0.78785
679.80886	0.78905
677.75506	0.78970
675.70126	0.79061
673.64745	0.79170
671.59365	0.79201
669.53985	0.79145
667.48604	0.79278
665.43224	0.79584
663.37844	0.79704
661.32463	0.79667
659.27083	0.79579
657.21703	0.79420
655.16322	0.79195
653.10942	0.78933
651.05562	0.78623
649.00181	0.78351
646.94801	0.78227
644.89421	0.78338
642.84040	0.78593
640.78660	0.78725
638.73280	0.78719
636.67899	0.78668
634.62519	0.78570
632.57139	0.78477
630.51759	0.78424
628.46378	0.78349
626.40998	0.78229
624.35618	0.78112
622.30237	0.77953
620.24857	0.77689
618.19477	0.77439
616.14096	0.77249
614.08716	0.76996
612.03336	0.76686
609.97955	0.76341
607.92575	0.75963
605.87195	0.75573
603.81814	0.75130
601.76434	0.74685
599.71054	0.74337
597.65673	0.74070
595.60293	0.73827
593.54913	0.73627
591.49532	0.73396
589.44152	0.73054
587.38772	0.72680
585.33391	0.72301
583.28011	0.71925
581.22631	0.71577
579.17250	0.71300
577.11870	0.71136
575.06490	0.71045
573.01110	0.70892
570.95729	0.70583
568.90349	0.70276
566.84969	0.70043
564.79588	0.69722
562.74208	0.69315
560.68828	0.68938
558.63447	0.68550
556.58067	0.68040
554.52687	0.67566
552.47306	0.67202
550.41926	0.66711
548.36546	0.66035
546.31165	0.65246
544.25785	0.64338
542.20405	0.63358
540.15024	0.62492
538.09644	0.61876
536.04264	0.61362
533.98883	0.60915
531.93503	0.60761
529.88123	0.60842
527.82742	0.60929
525.77362	0.61053
523.71982	0.61313
521.66602	0.61701
519.61221	0.62197
517.55841	0.62784
515.50461	0.63434
513.45080	0.63996
511.39700	0.64297
509.34320	0.64495
507.28939	0.64813
505.23559	0.65090
503.18179	0.65312
501.12798	0.65710
499.07418	0.66108
497.02038	0.66210
494.96657	0.66011
492.91277	0.65720
490.85897	0.65434
488.80516	0.64922
486.75136	0.63992
484.69756	0.62755
482.64375	0.61565
480.58995	0.60486
478.53615	0.59199
476.48234	0.57634
474.42854	0.55916
472.37474	0.54315
470.32093	0.53225
468.26713	0.52400
466.21333	0.51808
464.15953	0.51779
462.10572	0.52065
460.05192	0.52498
457.99812	0.53361
455.94431	0.54556
453.89051	0.55639
451.83671	0.56431
449.78290	0.56867
447.72910	0.57197
445.67530	0.57541
443.62149	0.57669
441.56769	0.57571
439.51389	0.57500
437.46008	0.57248
435.40628	0.56617
433.35248	0.56216
431.29867	0.56286
429.24487	0.56340
427.19107	0.56273
425.13726	0.56216
423.08346	0.56300
421.02966	0.56826
418.97585	0.57694
416.92205	0.58329
414.86825	0.59004
412.81445	0.60154
410.76064	0.61421
408.70684	0.62454
406.65304	0.63430
404.59923	0.63932
402.54543	0.63673
400.49163	0.63312
398.43782	0.63429
