3996.70104	0.96484
3994.64724	0.96469
3992.59344	0.96479
3990.53964	0.96496
3988.48583	0.96490
3986.43203	0.96479
3984.37823	0.96502
3982.32442	0.96507
3980.27062	0.96419
3978.21682	0.96314
3976.16301	0.96285
3974.10921	0.96310
3972.05541	0.96357
3970.00160	0.96368
3967.94780	0.96364
3965.89400	0.96439
3963.84019	0.96555
3961.78639	0.96603
3959.73259	0.96546
3957.67878	0.96451
3955.62498	0.96382
3953.57118	0.96373
3951.51737	0.96434
3949.46357	0.96506
3947.40977	0.96536
3945.35596	0.96577
3943.30216	0.96618
3941.24836	0.96576
3939.19455	0.96499
3937.14075	0.96485
3935.08695	0.96537
3933.03315	0.96575
3930.97934	0.96564
3928.92554	0.96551
3926.87174	0.96535
3924.81793	0.96504
3922.76413	0.96505
3920.71033	0.96526
3918.65652	0.96524
3916.60272	0.96540
3914.54892	0.96572
3912.49511	0.96553
3910.44131	0.96508
3908.38751	0.96498
3906.33370	0.96500
3904.27990	0.96470
3902.22610	0.96460
3900.17229	0.96493
3898.11849	0.96521
3896.06469	0.96539
3894.01088	0.96562
3891.95708	0.96603
3889.90328	0.96629
3887.84947	0.96601
3885.79567	0.96554
3883.74187	0.96519
3881.68807	0.96507
3879.63426	0.96546
3877.58046	0.96563
3875.52666	0.96494
3873.47285	0.96406
3871.41905	0.96364
3869.36525	0.96416
3867.31144	0.96544
3865.25764	0.96619
3863.20384	0.96599
3861.15003	0.96541
3859.09623	0.96503
3857.04243	0.96498
3854.98862	0.96491
3852.93482	0.96479
3850.88102	0.96510
3848.82721	0.96521
3846.77341	0.96506
3844.71961	0.96501
3842.66580	0.96539
3840.61200	0.96612
3838.55820	0.96668
3836.50439	0.96714
3834.45059	0.96760
3832.39679	0.96757
3830.34298	0.96722
3828.28918	0.96713
3826.23538	0.96711
3824.18158	0.96712
3822.12777	0.96771
3820.07397	0.96816
3818.02017	0.96798
3815.96636	0.96808
3813.91256	0.96799
3811.85876	0.96778
3809.80495	0.96783
3807.75115	0.96748
3805.69735	0.96690
3803.64354	0.96699
3801.58974	0.96715
3799.53594	0.96723
3797.48213	0.96754
3795.42833	0.96756
3793.37453	0.96730
3791.32072	0.96690
3789.26692	0.96647
3787.21312	0.96638
3785.15931	0.96656
3783.10551	0.96675
3781.05171	0.96682
3778.99790	0.96685
3776.94410	0.96703
3774.89030	0.96724
3772.83650	0.96726
3770.78269	0.96713
3768.72889	0.96738
3766.67509	0.96798
3764.62128	0.96809
3762.56748	0.96781
3760.51368	0.96763
3758.45987	0.96756
3756.40607	0.96794
3754.35227	0.96857
3752.29846	0.96889
3750.24466	0.96905
3748.19086	0.96915
3746.13705	0.96866
3744.08325	0.96790
3742.02945	0.96799
3739.97564	0.96854
3737.92184	0.96932
3735.86804	0.97024
3733.81423	0.97042
3731.76043	0.96986
3729.70663	0.96898
3727.65282	0.96799
3725.59902	0.96683
3723.54522	0.96539
3721.49141	0.96446
3719.43761	0.96444
3717.38381	0.96489
3715.33001	0.96509
3713.27620	0.96370
3711.22240	0.95982
3709.16860	0.95581
3707.11479	0.95280
3705.06099	0.94951
3703.00719	0.94568
3700.95338	0.94184
3698.89958	0.93901
3696.84578	0.93751
3694.79197	0.93725
3692.73817	0.93814
3690.68437	0.93973
3688.63056	0.94189
3686.57676	0.94437
3684.52296	0.94618
3682.46915	0.94711
3680.41535	0.94718
3678.36155	0.94650
3676.30774	0.94550
3674.25394	0.94482
3672.20014	0.94465
3670.14633	0.94402
3668.09253	0.94305
3666.03873	0.94292
3663.98492	0.94267
3661.93112	0.94143
3659.87732	0.94034
3657.82352	0.94022
3655.76971	0.93990
3653.71591	0.93891
3651.66211	0.93764
3649.60830	0.93548
3647.55450	0.93414
3645.50070	0.93440
3643.44689	0.93409
3641.39309	0.93294
3639.33929	0.93156
3637.28548	0.93017
3635.23168	0.92855
3633.17788	0.92721
3631.12407	0.92619
3629.07027	0.92438
3627.01647	0.92237
3624.96266	0.92121
3622.90886	0.92053
3620.85506	0.92017
3618.80125	0.91976
3616.74745	0.91993
3614.69365	0.92093
3612.63984	0.92155
3610.58604	0.92166
3608.53224	0.92180
3606.47844	0.92175
3604.42463	0.92173
3602.37083	0.92206
3600.31703	0.92265
3598.26322	0.92270
3596.20942	0.92169
3594.15562	0.92019
3592.10181	0.91967
3590.04801	0.92011
3587.99421	0.91995
3585.94040	0.91929
3583.88660	0.91897
3581.83280	0.91836
3579.77899	0.91728
3577.72519	0.91627
3575.67139	0.91591
3573.61758	0.91562
3571.56378	0.91484
3569.50998	0.91423
3567.45617	0.91386
3565.40237	0.91274
3563.34857	0.91133
3561.29476	0.91051
3559.24096	0.90974
3557.18716	0.90838
3555.13335	0.90728
3553.07955	0.90695
3551.02575	0.90662
3548.97195	0.90641
3546.91814	0.90648
3544.86434	0.90583
3542.81054	0.90458
3540.75673	0.90379
3538.70293	0.90341
3536.64913	0.90298
3534.59532	0.90226
3532.54152	0.90145
3530.48772	0.90114
3528.43391	0.90133
3526.38011	0.90155
3524.32631	0.90180
3522.27250	0.90179
3520.21870	0.90147
3518.16490	0.90134
3516.11109	0.90138
3514.05729	0.90153
3512.00349	0.90182
3509.94968	0.90185
3507.89588	0.90129
3505.84208	0.90068
3503.78827	0.90054
3501.73447	0.90048
3499.68067	0.89992
3497.62687	0.89945
3495.57306	0.89960
3493.51926	0.89967
3491.46546	0.89904
3489.41165	0.89824
3487.35785	0.89771
3485.30405	0.89722
3483.25024	0.89699
3481.19644	0.89728
3479.14264	0.89724
3477.08883	0.89655
3475.03503	0.89574
3472.98123	0.89486
3470.92742	0.89410
3468.87362	0.89354
3466.81982	0.89315
3464.76601	0.89307
3462.71221	0.89275
3460.65841	0.89180
3458.60460	0.89107
3456.55080	0.89069
3454.49700	0.89003
3452.44319	0.88944
3450.38939	0.88916
3448.33559	0.88887
3446.28178	0.88848
3444.22798	0.88794
3442.17418	0.88733
3440.12038	0.88661
3438.06657	0.88590
3436.01277	0.88551
3433.95897	0.88522
3431.90516	0.88445
3429.85136	0.88334
3427.79756	0.88242
3425.74375	0.88183
3423.68995	0.88129
3421.63615	0.88038
3419.58234	0.87916
3417.52854	0.87830
3415.47474	0.87771
3413.42093	0.87693
3411.36713	0.87607
3409.31333	0.87515
3407.25952	0.87448
3405.20572	0.87444
3403.15192	0.87464
3401.09811	0.87438
3399.04431	0.87365
3396.99051	0.87338
3394.93670	0.87366
3392.88290	0.87392
3390.82910	0.87406
3388.77529	0.87380
3386.72149	0.87353
3384.66769	0.87406
3382.61389	0.87484
3380.56008	0.87491
3378.50628	0.87478
3376.45248	0.87513
3374.39867	0.87538
3372.34487	0.87532
3370.29107	0.87550
3368.23726	0.87609
3366.18346	0.87682
3364.12966	0.87731
3362.07585	0.87761
3360.02205	0.87765
3357.96825	0.87727
3355.91444	0.87697
3353.86064	0.87702
3351.80684	0.87716
3349.75303	0.87724
3347.69923	0.87734
3345.64543	0.87757
3343.59162	0.87769
3341.53782	0.87787
3339.48402	0.87850
3337.43021	0.87897
3335.37641	0.87906
3333.32261	0.87942
3331.26881	0.87984
3329.21500	0.87979
3327.16120	0.87963
3325.10740	0.87978
3323.05359	0.88018
3320.99979	0.88049
3318.94599	0.88059
3316.89218	0.88075
3314.83838	0.88108
3312.78458	0.88144
3310.73077	0.88181
3308.67697	0.88209
3306.62317	0.88220
3304.56936	0.88229
3302.51556	0.88228
3300.46176	0.88261
3298.40795	0.88315
3296.35415	0.88296
3294.30035	0.88263
3292.24654	0.88274
3290.19274	0.88279
3288.13894	0.88309
3286.08513	0.88394
3284.03133	0.88471
3281.97753	0.88496
3279.92372	0.88520
3277.86992	0.88571
3275.81612	0.88593
3273.76232	0.88590
3271.70851	0.88605
3269.65471	0.88616
3267.60091	0.88616
3265.54710	0.88643
3263.49330	0.88685
3261.43950	0.88699
3259.38569	0.88715
3257.33189	0.88762
3255.27809	0.88801
3253.22428	0.88820
3251.17048	0.88850
3249.11668	0.88878
3247.06287	0.88915
3245.00907	0.88968
3242.95527	0.88986
3240.90146	0.88989
3238.84766	0.89029
3236.79386	0.89114
3234.74005	0.89200
3232.68625	0.89247
3230.63245	0.89309
3228.57864	0.89397
3226.52484	0.89450
3224.47104	0.89456
3222.41724	0.89433
3220.36343	0.89438
3218.30963	0.89497
3216.25583	0.89545
3214.20202	0.89574
3212.14822	0.89631
3210.09442	0.89710
3208.04061	0.89762
3205.98681	0.89792
3203.93301	0.89868
3201.87920	0.89976
3199.82540	0.90017
3197.77160	0.90000
3195.71779	0.90045
3193.66399	0.90153
3191.61019	0.90228
3189.55638	0.90258
3187.50258	0.90279
3185.44878	0.90296
3183.39497	0.90346
3181.34117	0.90451
3179.28737	0.90584
3177.23356	0.90703
3175.17976	0.90757
3173.12596	0.90777
3171.07215	0.90811
3169.01835	0.90850
3166.96455	0.90897
3164.91075	0.90916
3162.85694	0.90923
3160.80314	0.90964
3158.74934	0.91021
3156.69553	0.91089
3154.64173	0.91172
3152.58793	0.91259
3150.53412	0.91347
3148.48032	0.91427
3146.42652	0.91521
3144.37271	0.91643
3142.31891	0.91708
3140.26511	0.91689
3138.21130	0.91683
3136.15750	0.91709
3134.10370	0.91741
3132.04989	0.91812
3129.99609	0.91912
3127.94229	0.91984
3125.88848	0.92002
3123.83468	0.92000
3121.78088	0.92047
3119.72707	0.92128
3117.67327	0.92179
3115.61947	0.92210
3113.56566	0.92247
3111.51186	0.92282
3109.45806	0.92308
3107.40426	0.92328
3105.35045	0.92350
3103.29665	0.92384
3101.24285	0.92434
3099.18904	0.92476
3097.13524	0.92500
3095.08144	0.92515
3093.02763	0.92517
3090.97383	0.92536
3088.92003	0.92591
3086.86622	0.92628
3084.81242	0.92649
3082.75862	0.92702
3080.70481	0.92758
3078.65101	0.92786
3076.59721	0.92797
3074.54340	0.92799
3072.48960	0.92843
3070.43580	0.92934
3068.38199	0.92994
3066.32819	0.93008
3064.27439	0.93024
3062.22058	0.93060
3060.16678	0.93115
3058.11298	0.93164
3056.05918	0.93218
3054.00537	0.93269
3051.95157	0.93260
3049.89777	0.93247
3047.84396	0.93291
3045.79016	0.93340
3043.73636	0.93382
3041.68255	0.93442
3039.62875	0.93482
3037.57495	0.93494
3035.52114	0.93523
3033.46734	0.93555
3031.41354	0.93583
3029.35973	0.93619
3027.30593	0.93649
3025.25213	0.93686
3023.19832	0.93756
3021.14452	0.93823
3019.09072	0.93849
3017.03691	0.93862
3014.98311	0.93871
3012.92931	0.93880
3010.87550	0.93927
3008.82170	0.94007
3006.76790	0.94062
3004.71409	0.94071
3002.66029	0.94059
3000.60649	0.94040
2998.55269	0.94037
2996.49888	0.94068
2994.44508	0.94112
2992.39128	0.94123
2990.33747	0.94102
2988.28367	0.94092
2986.22987	0.94103
2984.17606	0.94130
2982.12226	0.94150
2980.06846	0.94138
2978.01465	0.94098
2975.96085	0.94062
2973.90705	0.94045
2971.85324	0.94010
2969.79944	0.93970
2967.74564	0.93927
2965.69183	0.93858
2963.63803	0.93805
2961.58423	0.93769
2959.53042	0.93731
2957.47662	0.93699
2955.42282	0.93649
2953.36901	0.93592
2951.31521	0.93543
2949.26141	0.93467
2947.20761	0.93342
2945.15380	0.93151
2943.10000	0.92885
2941.04620	0.92548
2938.99239	0.92134
2936.93859	0.91629
2934.88479	0.91000
2932.83098	0.90243
2930.77718	0.89360
2928.72338	0.88305
2926.66957	0.87004
2924.61577	0.85372
2922.56197	0.83386
2920.50816	0.81219
2918.45436	0.79194
2916.40056	0.77688
2914.34675	0.77171
2912.29295	0.77844
2910.23915	0.79320
2908.18534	0.80966
2906.13154	0.82394
2904.07774	0.83548
2902.02393	0.84464
2899.97013	0.85182
2897.91633	0.85772
2895.86252	0.86284
2893.80872	0.86749
2891.75492	0.87236
2889.70112	0.87787
2887.64731	0.88336
2885.59351	0.88850
2883.53971	0.89371
2881.48590	0.89929
2879.43210	0.90490
2877.37830	0.90979
2875.32449	0.91381
2873.27069	0.91723
2871.21689	0.91987
2869.16308	0.92155
2867.10928	0.92229
2865.05548	0.92185
2863.00167	0.91944
2860.94787	0.91434
2858.89407	0.90612
2856.84026	0.89363
2854.78646	0.87494
2852.73266	0.84883
2850.67885	0.81878
2848.62505	0.79564
2846.57125	0.79044
2844.51744	0.80363
2842.46364	0.82588
2840.40984	0.84816
2838.35603	0.86680
2836.30223	0.88148
2834.24843	0.89276
2832.19463	0.90117
2830.14082	0.90757
2828.08702	0.91277
2826.03322	0.91709
2823.97941	0.92076
2821.92561	0.92387
2819.87181	0.92631
2817.81800	0.92824
2815.76420	0.93004
2813.71040	0.93190
2811.65659	0.93353
2809.60279	0.93480
2807.54899	0.93592
2805.49518	0.93690
2803.44138	0.93776
2801.38758	0.93863
2799.33377	0.93952
2797.27997	0.94034
2795.22617	0.94120
2793.17236	0.94196
2791.11856	0.94262
2789.06476	0.94344
2787.01095	0.94407
2784.95715	0.94426
2782.90335	0.94458
2780.84955	0.94538
2778.79574	0.94614
2776.74194	0.94637
2774.68814	0.94659
2772.63433	0.94736
2770.58053	0.94809
2768.52673	0.94854
2766.47292	0.94897
2764.41912	0.94905
2762.36532	0.94902
2760.31151	0.94933
2758.25771	0.94966
2756.20391	0.94974
2754.15010	0.95011
2752.09630	0.95088
2750.04250	0.95118
2747.98869	0.95098
2745.93489	0.95101
2743.88109	0.95116
2741.82728	0.95112
2739.77348	0.95112
2737.71968	0.95113
2735.66587	0.95089
2733.61207	0.95087
2731.55827	0.95142
2729.50446	0.95208
2727.45066	0.95266
2725.39686	0.95307
2723.34306	0.95313
2721.28925	0.95323
2719.23545	0.95351
2717.18165	0.95370
2715.12784	0.95373
2713.07404	0.95389
2711.02024	0.95439
2708.96643	0.95480
2706.91263	0.95468
2704.85883	0.95433
2702.80502	0.95414
2700.75122	0.95430
2698.69742	0.95452
2696.64361	0.95450
2694.58981	0.95465
2692.53601	0.95509
2690.48220	0.95521
2688.42840	0.95491
2686.37460	0.95485
2684.32079	0.95532
2682.26699	0.95563
2680.21319	0.95517
2678.15938	0.95486
2676.10558	0.95522
2674.05178	0.95545
2671.99797	0.95546
2669.94417	0.95564
2667.89037	0.95579
2665.83657	0.95570
2663.78276	0.95540
2661.72896	0.95534
2659.67516	0.95553
2657.62135	0.95558
2655.56755	0.95577
2653.51375	0.95597
2651.45994	0.95599
2649.40614	0.95626
2647.35234	0.95660
2645.29853	0.95679
2643.24473	0.95696
2641.19093	0.95712
2639.13712	0.95740
2637.08332	0.95743
2635.02952	0.95712
2632.97571	0.95706
2630.92191	0.95722
2628.86811	0.95731
2626.81430	0.95759
2624.76050	0.95799
2622.70670	0.95815
2620.65289	0.95826
2618.59909	0.95841
2616.54529	0.95853
2614.49149	0.95866
2612.43768	0.95887
2610.38388	0.95940
2608.33008	0.95971
2606.27627	0.95946
2604.22247	0.95947
2602.16867	0.95976
2600.11486	0.96008
2598.06106	0.96046
2596.00726	0.96077
2593.95345	0.96092
2591.89965	0.96067
2589.84585	0.96016
2587.79204	0.95983
2585.73824	0.95983
2583.68444	0.96016
2581.63063	0.96036
2579.57683	0.96001
2577.52303	0.96000
2575.46922	0.96076
2573.41542	0.96154
2571.36162	0.96233
2569.30781	0.96267
2567.25401	0.96217
2565.20021	0.96198
2563.14640	0.96239
2561.09260	0.96288
2559.03880	0.96285
2556.98500	0.96202
2554.93119	0.96161
2552.87739	0.96178
2550.82359	0.96171
2548.76978	0.96168
2546.71598	0.96165
2544.66218	0.96159
2542.60837	0.96183
2540.55457	0.96215
2538.50077	0.96277
2536.44696	0.96341
2534.39316	0.96316
2532.33936	0.96257
2530.28555	0.96228
2528.23175	0.96241
2526.17795	0.96311
2524.12414	0.96368
2522.07034	0.96391
2520.01654	0.96412
2517.96273	0.96375
2515.90893	0.96326
2513.85513	0.96351
2511.80132	0.96380
2509.74752	0.96393
2507.69372	0.96412
2505.63992	0.96384
2503.58611	0.96321
2501.53231	0.96283
2499.47851	0.96298
2497.42470	0.96341
2495.37090	0.96387
2493.31710	0.96449
2491.26329	0.96479
2489.20949	0.96426
2487.15569	0.96358
2485.10188	0.96329
2483.04808	0.96353
2480.99428	0.96422
2478.94047	0.96453
2476.88667	0.96441
2474.83287	0.96426
2472.77906	0.96416
2470.72526	0.96438
2468.67146	0.96440
2466.61765	0.96410
2464.56385	0.96425
2462.51005	0.96476
2460.45624	0.96536
2458.40244	0.96580
2456.34864	0.96568
2454.29483	0.96512
2452.24103	0.96459
2450.18723	0.96424
2448.13343	0.96415
2446.07962	0.96429
2444.02582	0.96453
2441.97202	0.96509
2439.91821	0.96598
2437.86441	0.96620
2435.81061	0.96530
2433.75680	0.96470
2431.70300	0.96516
2429.64920	0.96564
2427.59539	0.96563
2425.54159	0.96524
2423.48779	0.96450
2421.43398	0.96429
2419.38018	0.96485
2417.32638	0.96537
2415.27257	0.96554
2413.21877	0.96511
2411.16497	0.96443
2409.11116	0.96428
2407.05736	0.96467
2405.00356	0.96533
2402.94975	0.96584
2400.89595	0.96600
2398.84215	0.96594
2396.78834	0.96570
2394.73454	0.96526
2392.68074	0.96492
2390.62694	0.96512
2388.57313	0.96551
2386.51933	0.96514
2384.46553	0.96444
2382.41172	0.96451
2380.35792	0.96487
2378.30412	0.96489
2376.25031	0.96498
2374.19651	0.96520
2372.14271	0.96544
2370.08890	0.96608
2368.03510	0.96674
2365.98130	0.96617
2363.92749	0.96439
2361.87369	0.96299
2359.81989	0.96256
2357.76608	0.96284
2355.71228	0.96387
2353.65848	0.96448
2351.60467	0.96393
2349.55087	0.96313
2347.49707	0.96301
2345.44326	0.96343
2343.38946	0.96356
2341.33566	0.96348
2339.28186	0.96344
2337.22805	0.96348
2335.17425	0.96372
2333.12045	0.96369
2331.06664	0.96364
2329.01284	0.96411
2326.95904	0.96408
2324.90523	0.96337
2322.85143	0.96292
2320.79763	0.96269
2318.74382	0.96288
2316.69002	0.96322
2314.63622	0.96287
2312.58241	0.96242
2310.52861	0.96266
2308.47481	0.96350
2306.42100	0.96443
2304.36720	0.96484
2302.31340	0.96451
2300.25959	0.96411
2298.20579	0.96409
2296.15199	0.96455
2294.09818	0.96531
2292.04438	0.96548
2289.99058	0.96500
2287.93677	0.96452
2285.88297	0.96468
2283.82917	0.96525
2281.77537	0.96490
2279.72156	0.96393
2277.66776	0.96382
2275.61396	0.96432
2273.56015	0.96465
2271.50635	0.96490
2269.45255	0.96495
2267.39874	0.96491
2265.34494	0.96542
2263.29114	0.96605
2261.23733	0.96559
2259.18353	0.96512
2257.12973	0.96604
2255.07592	0.96658
2253.02212	0.96662
2250.96832	0.96731
2248.91451	0.96807
2246.86071	0.96830
2244.80691	0.96768
2242.75310	0.96704
2240.69930	0.96764
2238.64550	0.96932
2236.59169	0.97000
2234.53789	0.96898
2232.48409	0.96798
2230.43029	0.96748
2228.37648	0.96677
2226.32268	0.96567
2224.26888	0.96532
2222.21507	0.96574
2220.16127	0.96623
2218.10747	0.96779
2216.05366	0.96956
2213.99986	0.97023
2211.94606	0.96963
2209.89225	0.96765
2207.83845	0.96621
2205.78465	0.96579
2203.73084	0.96556
2201.67704	0.96625
2199.62324	0.96769
2197.56943	0.96925
2195.51563	0.97084
2193.46183	0.97069
2191.40802	0.96810
2189.35422	0.96667
2187.30042	0.96843
2185.24661	0.97058
2183.19281	0.97070
2181.13901	0.97022
2179.08520	0.97034
2177.03140	0.97219
2174.97760	0.97626
2172.92380	0.97741
2170.86999	0.97391
2168.81619	0.97079
2166.76239	0.96941
2164.70858	0.96789
2162.65478	0.96760
2160.60098	0.97156
2158.54717	0.97710
2156.49337	0.97734
2154.43957	0.97268
2152.38576	0.96787
2150.33196	0.96544
2148.27816	0.96641
2146.22435	0.96940
2144.17055	0.97203
2142.11675	0.97315
2140.06294	0.97237
2138.00914	0.97101
2135.95534	0.97105
2133.90153	0.97266
2131.84773	0.97354
2129.79393	0.97237
2127.74012	0.97113
2125.68632	0.97055
2123.63252	0.96996
2121.57871	0.96980
2119.52491	0.96965
2117.47111	0.96887
2115.41731	0.96799
2113.36350	0.96770
2111.30970	0.96798
2109.25590	0.96824
2107.20209	0.96812
2105.14829	0.96805
2103.09449	0.96830
2101.04068	0.96827
2098.98688	0.96812
2096.93308	0.96840
2094.87927	0.96954
2092.82547	0.97106
2090.77167	0.97152
2088.71786	0.97109
2086.66406	0.97073
2084.61026	0.97109
2082.55645	0.97121
2080.50265	0.96991
2078.44885	0.96861
2076.39504	0.96844
2074.34124	0.96978
2072.28744	0.97226
2070.23363	0.97305
2068.17983	0.97118
2066.12603	0.96892
2064.07223	0.96828
2062.01842	0.96917
2059.96462	0.97026
2057.91082	0.97038
2055.85701	0.96993
2053.80321	0.97019
2051.74941	0.97111
2049.69560	0.97237
2047.64180	0.97334
2045.58800	0.97267
2043.53419	0.97116
2041.48039	0.97000
2039.42659	0.97016
2037.37278	0.97211
2035.31898	0.97494
2033.26518	0.97631
2031.21137	0.97328
2029.15757	0.96979
2027.10377	0.97142
2025.04996	0.97501
2022.99616	0.97648
2020.94236	0.97631
2018.88855	0.97435
2016.83475	0.97114
2014.78095	0.97088
2012.72714	0.97431
2010.67334	0.97638
2008.61954	0.97561
2006.56574	0.97551
2004.51193	0.97599
2002.45813	0.97562
2000.40433	0.97466
1998.35052	0.97308
1996.29672	0.97262
1994.24292	0.97367
1992.18911	0.97371
1990.13531	0.97299
1988.08151	0.97336
1986.02770	0.97386
1983.97390	0.97290
1981.92010	0.97031
1979.86629	0.96914
1977.81249	0.97088
1975.75869	0.97254
1973.70488	0.97520
1971.65108	0.97846
1969.59728	0.97786
1967.54347	0.97414
1965.48967	0.97053
1963.43587	0.96884
1961.38206	0.96944
1959.32826	0.97128
1957.27446	0.97271
1955.22066	0.97228
1953.16685	0.97093
1951.11305	0.97096
1949.05925	0.97178
1947.00544	0.97222
1944.95164	0.97269
1942.89784	0.97266
1940.84403	0.97199
1938.79023	0.97159
1936.73643	0.97135
1934.68262	0.97173
1932.62882	0.97296
1930.57502	0.97337
1928.52121	0.97235
1926.46741	0.97194
1924.41361	0.97256
1922.35980	0.97190
1920.30600	0.97071
1918.25220	0.97058
1916.19839	0.97046
1914.14459	0.96978
1912.09079	0.96933
1910.03698	0.96963
1907.98318	0.97011
1905.92938	0.97057
1903.87557	0.97134
1901.82177	0.97214
1899.76797	0.97233
1897.71417	0.97183
1895.66036	0.97159
1893.60656	0.97166
1891.55276	0.97110
1889.49895	0.97050
1887.44515	0.97063
1885.39135	0.97069
1883.33754	0.97050
1881.28374	0.97039
1879.22994	0.97021
1877.17613	0.96997
1875.12233	0.96999
1873.06853	0.97035
1871.01472	0.97085
1868.96092	0.97137
1866.90712	0.97179
1864.85331	0.97201
1862.79951	0.97169
1860.74571	0.97113
1858.69190	0.97087
1856.63810	0.97075
1854.58430	0.97080
1852.53049	0.97076
1850.47669	0.97059
1848.42289	0.97072
1846.36908	0.97073
1844.31528	0.97071
1842.26148	0.97120
1840.20768	0.97156
1838.15387	0.97126
1836.10007	0.97064
1834.04627	0.97045
1831.99246	0.97052
1829.93866	0.97043
1827.88486	0.97038
1825.83105	0.97039
1823.77725	0.97032
1821.72345	0.97030
1819.66964	0.97022
1817.61584	0.97002
1815.56204	0.96992
1813.50823	0.96978
1811.45443	0.96965
1809.40063	0.97014
1807.34682	0.97074
1805.29302	0.97070
1803.23922	0.97058
1801.18541	0.97055
1799.13161	0.97020
1797.07781	0.96977
1795.02400	0.96941
1792.97020	0.96956
1790.91640	0.97003
1788.86260	0.96973
1786.80879	0.96910
1784.75499	0.96897
1782.70119	0.96922
1780.64738	0.96945
1778.59358	0.96946
1776.53978	0.96907
1774.48597	0.96834
1772.43217	0.96787
1770.37837	0.96813
1768.32456	0.96823
1766.27076	0.96800
1764.21696	0.96823
1762.16315	0.96861
1760.10935	0.96816
1758.05555	0.96740
1756.00174	0.96693
1753.94794	0.96659
1751.89414	0.96598
1749.84033	0.96479
1747.78653	0.96389
1745.73273	0.96334
1743.67892	0.96237
1741.62512	0.96106
1739.57132	0.95970
1737.51751	0.95891
1735.46371	0.95903
1733.40991	0.95875
1731.35611	0.95785
1729.30230	0.95712
1727.24850	0.95628
1725.19470	0.95566
1723.14089	0.95510
1721.08709	0.95435
1719.03329	0.95377
1716.97948	0.95326
1714.92568	0.95226
1712.87188	0.95118
1710.81807	0.95004
1708.76427	0.94900
1706.71047	0.94811
1704.65666	0.94702
1702.60286	0.94566
1700.54906	0.94363
1698.49525	0.94149
1696.44145	0.93916
1694.38765	0.93562
1692.33384	0.93227
1690.28004	0.92899
1688.22624	0.92580
1686.17243	0.92312
1684.11863	0.91944
1682.06483	0.91567
1680.01103	0.91313
1677.95722	0.91097
1675.90342	0.90893
1673.84962	0.90659
1671.79581	0.90388
1669.74201	0.90042
1667.68821	0.89705
1665.63440	0.89489
1663.58060	0.89281
1661.52680	0.89032
1659.47299	0.88810
1657.41919	0.88633
1655.36539	0.88507
1653.31158	0.88365
1651.25778	0.88241
1649.20398	0.88220
1647.15017	0.88176
1645.09637	0.88069
1643.04257	0.87996
1640.98876	0.87947
1638.93496	0.87912
1636.88116	0.87906
1634.82735	0.87908
1632.77355	0.87917
1630.71975	0.87944
1628.66594	0.87973
1626.61214	0.88021
1624.55834	0.88129
1622.50454	0.88264
1620.45073	0.88386
1618.39693	0.88584
1616.34313	0.88945
1614.28932	0.89300
1612.23552	0.89564
1610.18172	0.89801
1608.12791	0.90017
1606.07411	0.90200
1604.02031	0.90353
1601.96650	0.90487
1599.91270	0.90608
1597.85890	0.90730
1595.80509	0.90843
1593.75129	0.90922
1591.69749	0.90993
1589.64368	0.91085
1587.58988	0.91197
1585.53608	0.91333
1583.48227	0.91469
1581.42847	0.91558
1579.37467	0.91601
1577.32086	0.91626
1575.26706	0.91670
1573.21326	0.91739
1571.15945	0.91799
1569.10565	0.91817
1567.05185	0.91763
1564.99805	0.91696
1562.94424	0.91675
1560.89044	0.91673
1558.83664	0.91639
1556.78283	0.91632
1554.72903	0.91630
1552.67523	0.91632
1550.62142	0.91658
1548.56762	0.91687
1546.51382	0.91732
1544.46001	0.91802
1542.40621	0.91887
1540.35241	0.92006
1538.29860	0.92118
1536.24480	0.92221
1534.19100	0.92369
1532.13719	0.92507
1530.08339	0.92592
1528.02959	0.92702
1525.97578	0.92864
1523.92198	0.93037
1521.86818	0.93169
1519.81437	0.93263
1517.76057	0.93394
1515.70677	0.93485
1513.65297	0.93520
1511.59916	0.93646
1509.54536	0.93859
1507.49156	0.94063
1505.43775	0.94161
1503.38395	0.94185
1501.33015	0.94252
1499.27634	0.94373
1497.22254	0.94489
1495.16874	0.94547
1493.11493	0.94590
1491.06113	0.94637
1489.00733	0.94659
1486.95352	0.94657
1484.89972	0.94644
1482.84592	0.94575
1480.79211	0.94390
1478.73831	0.93960
1476.68451	0.92801
1474.63070	0.90466
1472.57690	0.88146
1470.52310	0.87858
1468.46929	0.88445
1466.41549	0.88514
1464.36169	0.87640
1462.30788	0.86989
1460.25408	0.87664
1458.20028	0.89404
1456.14648	0.90976
1454.09267	0.91502
1452.03887	0.91749
1449.98507	0.91967
1447.93126	0.92153
1445.87746	0.92276
1443.82366	0.92345
1441.76985	0.92400
1439.71605	0.92451
1437.66225	0.92520
1435.60844	0.92599
1433.55464	0.92663
1431.50084	0.92735
1429.44703	0.92816
1427.39323	0.92881
1425.33943	0.92922
1423.28562	0.92962
1421.23182	0.93015
1419.17802	0.93046
1417.12421	0.93017
1415.07041	0.92968
1413.01661	0.92951
1410.96280	0.92964
1408.90900	0.92973
1406.85520	0.93004
1404.80139	0.93090
1402.74759	0.93181
1400.69379	0.93251
1398.63999	0.93289
1396.58618	0.93305
1394.53238	0.93336
1392.47858	0.93355
1390.42477	0.93354
1388.37097	0.93375
1386.31717	0.93399
1384.26336	0.93395
1382.20956	0.93392
1380.15576	0.93393
1378.10195	0.93397
1376.04815	0.93419
1373.99435	0.93416
1371.94054	0.93348
1369.88674	0.93292
1367.83294	0.93305
1365.77913	0.93355
1363.72533	0.93414
1361.67153	0.93511
1359.61772	0.93625
1357.56392	0.93705
1355.51012	0.93718
1353.45631	0.93704
1351.40251	0.93711
1349.34871	0.93713
1347.29491	0.93722
1345.24110	0.93775
1343.18730	0.93850
1341.13350	0.93909
1339.07969	0.93948
1337.02589	0.93981
1334.97209	0.94013
1332.91828	0.94049
1330.86448	0.94080
1328.81068	0.94097
1326.75687	0.94087
1324.70307	0.94044
1322.64927	0.93985
1320.59546	0.93934
1318.54166	0.93916
1316.48786	0.93927
1314.43405	0.93931
1312.38025	0.93927
1310.32645	0.93924
1308.27264	0.93912
1306.21884	0.93899
1304.16504	0.93902
1302.11123	0.93913
1300.05743	0.93912
1298.00363	0.93898
1295.94982	0.93893
1293.89602	0.93918
1291.84222	0.93945
1289.78842	0.93933
1287.73461	0.93871
1285.68081	0.93778
1283.62701	0.93695
1281.57320	0.93632
1279.51940	0.93569
1277.46560	0.93504
1275.41179	0.93449
1273.35799	0.93414
1271.30419	0.93377
1269.25038	0.93276
1267.19658	0.93106
1265.14278	0.92955
1263.08897	0.92865
1261.03517	0.92814
1258.98137	0.92771
1256.92756	0.92705
1254.87376	0.92601
1252.81996	0.92498
1250.76615	0.92404
1248.71235	0.92289
1246.65855	0.92161
1244.60474	0.92030
1242.55094	0.91880
1240.49714	0.91733
1238.44334	0.91640
1236.38953	0.91583
1234.33573	0.91508
1232.28193	0.91422
1230.22812	0.91335
1228.17432	0.91246
1226.12052	0.91150
1224.06671	0.91040
1222.01291	0.90934
1219.95911	0.90816
1217.90530	0.90686
1215.85150	0.90589
1213.79770	0.90498
1211.74389	0.90357
1209.69009	0.90183
1207.63629	0.90002
1205.58248	0.89815
1203.52868	0.89625
1201.47488	0.89413
1199.42107	0.89185
1197.36727	0.88969
1195.31347	0.88750
1193.25966	0.88511
1191.20586	0.88222
1189.15206	0.87874
1187.09825	0.87500
1185.04445	0.87126
1182.99065	0.86736
1180.93685	0.86291
1178.88304	0.85804
1176.82924	0.85314
1174.77544	0.84836
1172.72163	0.84387
1170.66783	0.83969
1168.61403	0.83523
1166.56022	0.83040
1164.50642	0.82575
1162.45262	0.82155
1160.39881	0.81794
1158.34501	0.81473
1156.29121	0.81148
1154.23740	0.80793
1152.18360	0.80408
1150.12980	0.80017
1148.07599	0.79649
1146.02219	0.79277
1143.96839	0.78880
1141.91458	0.78484
1139.86078	0.78083
1137.80698	0.77656
1135.75317	0.77208
1133.69937	0.76741
1131.64557	0.76244
1129.59176	0.75705
1127.53796	0.75131
1125.48416	0.74505
1123.43036	0.73777
1121.37655	0.72939
1119.32275	0.72074
1117.26895	0.71283
1115.21514	0.70585
1113.16134	0.69940
1111.10754	0.69316
1109.05373	0.68712
1106.99993	0.68134
1104.94613	0.67604
1102.89232	0.67139
1100.83852	0.66716
1098.78472	0.66328
1096.73091	0.66002
1094.67711	0.65737
1092.62331	0.65509
1090.56950	0.65285
1088.51570	0.65019
1086.46190	0.64751
1084.40809	0.64518
1082.35429	0.64290
1080.30049	0.64032
1078.24668	0.63726
1076.19288	0.63399
1074.13908	0.63068
1072.08528	0.62708
1070.03147	0.62289
1067.97767	0.61792
1065.92387	0.61206
1063.87006	0.60536
1061.81626	0.59795
1059.76246	0.58979
1057.70865	0.58080
1055.65485	0.57129
1053.60105	0.56131
1051.54724	0.55091
1049.49344	0.54037
1047.43964	0.52973
1045.38583	0.51868
1043.33203	0.50736
1041.27823	0.49621
1039.22442	0.48538
1037.17062	0.47525
1035.11682	0.46634
1033.06301	0.45859
1031.00921	0.45211
1028.95541	0.44752
1026.90160	0.44491
1024.84780	0.44358
1022.79400	0.44308
1020.74019	0.44304
1018.68639	0.44274
1016.63259	0.44119
1014.57879	0.43826
1012.52498	0.43490
1010.47118	0.43148
1008.41738	0.42808
1006.36357	0.42540
1004.30977	0.42401
1002.25597	0.42462
1000.20216	0.42794
998.14836	0.43381
996.09456	0.44124
994.04075	0.44941
991.98695	0.45824
989.93315	0.46811
987.87934	0.47886
985.82554	0.48986
983.77174	0.50098
981.71793	0.51271
979.66413	0.52553
977.61033	0.53859
975.55652	0.55102
973.50272	0.56329
971.44892	0.57540
969.39511	0.58693
967.34131	0.59817
965.28751	0.60922
963.23371	0.61965
961.17990	0.62937
959.12610	0.63847
957.07230	0.64705
955.01849	0.65495
952.96469	0.66193
950.91089	0.66815
948.85708	0.67373
946.80328	0.67873
944.74948	0.68278
942.69567	0.68605
940.64187	0.68937
938.58807	0.69277
936.53426	0.69617
934.48046	0.69943
932.42666	0.70242
930.37285	0.70522
928.31905	0.70723
926.26525	0.70814
924.21144	0.70812
922.15764	0.70670
920.10384	0.70368
918.05003	0.69973
915.99623	0.69578
913.94243	0.69312
911.88862	0.69297
909.83482	0.69595
907.78102	0.70298
905.72722	0.71387
903.67341	0.72571
901.61961	0.73671
899.56581	0.74712
897.51200	0.75633
895.45820	0.76393
893.40440	0.77027
891.35059	0.77611
889.29679	0.78148
887.24299	0.78540
885.18918	0.78864
883.13538	0.79210
881.08158	0.79516
879.02777	0.79817
876.97397	0.80119
874.92017	0.80365
872.86636	0.80665
870.81256	0.81060
868.75876	0.81476
866.70495	0.81886
864.65115	0.82246
862.59735	0.82551
860.54354	0.82834
858.48974	0.83114
856.43594	0.83397
854.38213	0.83606
852.32833	0.83715
850.27453	0.83876
848.22073	0.84083
846.16692	0.84167
844.11312	0.84165
842.05932	0.84161
840.00551	0.84153
837.95171	0.84098
835.89791	0.83992
833.84410	0.83946
831.79030	0.83923
829.73650	0.83825
827.68269	0.83715
825.62889	0.83568
823.57509	0.83401
821.52128	0.83310
819.46748	0.83238
817.41368	0.83136
815.35987	0.83031
813.30607	0.82951
811.25227	0.82859
809.19846	0.82635
807.14466	0.82234
805.09086	0.81694
803.03705	0.81094
800.98325	0.80592
798.92945	0.80265
796.87565	0.80071
794.82184	0.80021
792.76804	0.80034
790.71424	0.80042
788.66043	0.80063
786.60663	0.80021
784.55283	0.79924
782.49902	0.79897
780.44522	0.79894
778.39142	0.79836
776.33761	0.79831
774.28381	0.79963
772.23001	0.80083
770.17620	0.80005
768.12240	0.79826
766.06860	0.79673
764.01479	0.79495
761.96099	0.79327
759.90719	0.79164
757.85338	0.78954
755.79958	0.78768
753.74578	0.78622
751.69197	0.78552
749.63817	0.78575
747.58437	0.78525
745.53056	0.78428
743.47676	0.78496
741.42296	0.78726
739.36916	0.78945
737.31535	0.78973
735.26155	0.78450
733.20775	0.76725
731.15394	0.74333
729.10014	0.73444
727.04634	0.74403
724.99253	0.75071
722.93873	0.73943
720.88493	0.71129
718.83112	0.68681
716.77732	0.68866
714.72352	0.71073
712.66971	0.73268
710.61591	0.74495
708.56211	0.74929
706.50830	0.74970
704.45450	0.74768
702.40070	0.74390
700.34689	0.73965
698.29309	0.73543
696.23929	0.73169
694.18548	0.72954
692.13168	0.72892
690.07788	0.72858
688.02408	0.72800
685.97027	0.72773
683.91647	0.72794
681.86267	0.72812
679.80886	0.72817
677.75506	0.72842
675.70126	0.72859
673.64745	0.72840
671.59365	0.72819
669.53985	0.72814
667.48604	0.72935
665.43224	0.73149
663.37844	0.73260
661.32463	0.73331
659.27083	0.73444
657.21703	0.73487
655.16322	0.73424
653.10942	0.73263
651.05562	0.72933
649.00181	0.72647
646.94801	0.72556
644.89421	0.72539
642.84040	0.72627
640.78660	0.72742
638.73280	0.72752
636.67899	0.72722
634.62519	0.72692
632.57139	0.72617
630.51759	0.72436
628.46378	0.72228
626.40998	0.72043
624.35618	0.71860
622.30237	0.71700
620.24857	0.71457
618.19477	0.71115
616.14096	0.70829
614.08716	0.70516
612.03336	0.70043
609.97955	0.69507
607.92575	0.68991
605.87195	0.68475
603.81814	0.67996
601.76434	0.67607
599.71054	0.67282
597.65673	0.67019
595.60293	0.66848
593.54913	0.66727
591.49532	0.66533
589.44152	0.66256
587.38772	0.65916
585.33391	0.65479
583.28011	0.65116
581.22631	0.64939
579.17250	0.64728
577.11870	0.64326
575.06490	0.63927
573.01110	0.63596
570.95729	0.63214
568.90349	0.62862
566.84969	0.62502
564.79588	0.62001
562.74208	0.61456
560.68828	0.61036
558.63447	0.60654
556.58067	0.60125
554.52687	0.59574
552.47306	0.58981
550.41926	0.58194
548.36546	0.57379
546.31165	0.56575
544.25785	0.55711
542.20405	0.54910
540.15024	0.54093
538.09644	0.53244
536.04264	0.52578
533.98883	0.52063
531.93503	0.51621
529.88123	0.51330
527.82742	0.51268
525.77362	0.51493
523.71982	0.51802
521.66602	0.52066
519.61221	0.52431
517.55841	0.52808
515.50461	0.53222
513.45080	0.53763
511.39700	0.54237
509.34320	0.54675
507.28939	0.55103
505.23559	0.55407
503.18179	0.55746
501.12798	0.56195
499.07418	0.56567
497.02038	0.56656
494.96657	0.56412
492.91277	0.56102
490.85897	0.55690
488.80516	0.54956
486.75136	0.54124
484.69756	0.53204
482.64375	0.52063
480.58995	0.50767
478.53615	0.49242
476.48234	0.47555
474.42854	0.45899
472.37474	0.44231
470.32093	0.42784
468.26713	0.41768
466.21333	0.41188
464.15953	0.41106
462.10572	0.41346
460.05192	0.41827
457.99812	0.42720
455.94431	0.43611
453.89051	0.44073
451.83671	0.44498
449.78290	0.44973
447.72910	0.45262
445.67530	0.45357
443.62149	0.45501
441.56769	0.45758
439.51389	0.45780
437.46008	0.45539
435.40628	0.45167
433.35248	0.44773
431.29867	0.44458
429.24487	0.44060
427.19107	0.43796
425.13726	0.44097
423.08346	0.44847
421.02966	0.45830
418.97585	0.46627
416.92205	0.46762
414.86825	0.47232
412.81445	0.48245
410.76064	0.49359
408.70684	0.50522
406.65304	0.51646
404.59923	0.52450
402.54543	0.53019
400.49163	0.53236
398.43782	0.52952
