3996.71440	0.99528
3994.66059	0.99500
3992.60678	0.99489
3990.55297	0.99494
3988.49916	0.99496
3986.44535	0.99492
3984.39154	0.99466
3982.33773	0.99427
3980.28391	0.99408
3978.23010	0.99412
3976.17629	0.99430
3974.12248	0.99444
3972.06867	0.99443
3970.01486	0.99455
3967.96105	0.99473
3965.90724	0.99475
3963.85343	0.99481
3961.79962	0.99482
3959.74581	0.99450
3957.69200	0.99420
3955.63819	0.99434
3953.58438	0.99475
3951.53057	0.99500
3949.47676	0.99494
3947.42295	0.99466
3945.36914	0.99443
3943.31533	0.99452
3941.26152	0.99488
3939.20771	0.99495
3937.15390	0.99450
3935.10009	0.99430
3933.04628	0.99472
3930.99247	0.99500
3928.93866	0.99491
3926.88485	0.99488
3924.83104	0.99505
3922.77723	0.99537
3920.72342	0.99552
3918.66961	0.99521
3916.61580	0.99464
3914.56199	0.99423
3912.50818	0.99422
3910.45437	0.99448
3908.40056	0.99448
3906.34675	0.99425
3904.29294	0.99431
3902.23913	0.99452
3900.18532	0.99451
3898.13151	0.99455
3896.07770	0.99487
3894.02389	0.99516
3891.97008	0.99504
3889.91627	0.99472
3887.86246	0.99451
3885.80865	0.99432
3883.75484	0.99447
3881.70103	0.99510
3879.64722	0.99565
3877.59341	0.99549
3875.53960	0.99489
3873.48579	0.99445
3871.43198	0.99433
3869.37817	0.99432
3867.32436	0.99425
3865.27055	0.99408
3863.21674	0.99410
3861.16293	0.99438
3859.10912	0.99447
3857.05531	0.99438
3855.00150	0.99431
3852.94769	0.99429
3850.89388	0.99419
3848.84007	0.99396
3846.78626	0.99396
3844.73245	0.99419
3842.67864	0.99404
3840.62483	0.99388
3838.57102	0.99428
3836.51721	0.99463
3834.46340	0.99481
3832.40959	0.99496
3830.35578	0.99489
3828.30197	0.99479
3826.24816	0.99479
3824.19435	0.99475
3822.14054	0.99477
3820.08673	0.99493
3818.03292	0.99491
3815.97911	0.99455
3813.92530	0.99420
3811.87149	0.99422
3809.81768	0.99432
3807.76387	0.99432
3805.71006	0.99431
3803.65625	0.99411
3801.60244	0.99372
3799.54863	0.99360
3797.49482	0.99383
3795.44101	0.99423
3793.38720	0.99439
3791.33339	0.99411
3789.27958	0.99372
3787.22577	0.99356
3785.17196	0.99370
3783.11815	0.99391
3781.06434	0.99426
3779.01053	0.99471
3776.95672	0.99461
3774.90291	0.99408
3772.84910	0.99381
3770.79529	0.99385
3768.74148	0.99382
3766.68767	0.99396
3764.63386	0.99434
3762.58005	0.99441
3760.52624	0.99427
3758.47243	0.99419
3756.41862	0.99406
3754.36481	0.99423
3752.31100	0.99492
3750.25719	0.99528
3748.20338	0.99467
3746.14957	0.99382
3744.09576	0.99351
3742.04195	0.99376
3739.98814	0.99395
3737.93433	0.99395
3735.88052	0.99382
3733.82671	0.99366
3731.77290	0.99347
3729.71909	0.99349
3727.66528	0.99347
3725.61147	0.99319
3723.55766	0.99316
3721.50385	0.99329
3719.45004	0.99324
3717.39623	0.99329
3715.34242	0.99342
3713.28861	0.99327
3711.23480	0.99270
3709.18099	0.99207
3707.12718	0.99172
3705.07337	0.99149
3703.01956	0.99144
3700.96575	0.99147
3698.91194	0.99133
3696.85813	0.99133
3694.80432	0.99127
3692.75051	0.99062
3690.69670	0.98949
3688.64289	0.98848
3686.58907	0.98813
3684.53526	0.98831
3682.48145	0.98858
3680.42764	0.98858
3678.37383	0.98813
3676.32002	0.98716
3674.26621	0.98614
3672.21240	0.98569
3670.15859	0.98534
3668.10478	0.98451
3666.05097	0.98376
3663.99716	0.98326
3661.94335	0.98263
3659.88954	0.98195
3657.83573	0.98152
3655.78192	0.98103
3653.72811	0.98026
3651.67430	0.97942
3649.62049	0.97870
3647.56668	0.97797
3645.51287	0.97687
3643.45906	0.97592
3641.40525	0.97526
3639.35144	0.97461
3637.29763	0.97409
3635.24382	0.97356
3633.19001	0.97294
3631.13620	0.97246
3629.08239	0.97192
3627.02858	0.97100
3624.97477	0.97005
3622.92096	0.96925
3620.86715	0.96858
3618.81334	0.96820
3616.75953	0.96779
3614.70572	0.96714
3612.65191	0.96659
3610.59810	0.96610
3608.54429	0.96549
3606.49048	0.96475
3604.43667	0.96398
3602.38286	0.96320
3600.32905	0.96247
3598.27524	0.96193
3596.22143	0.96162
3594.16762	0.96157
3592.11381	0.96133
3590.06000	0.96060
3588.00619	0.95977
3585.95238	0.95926
3583.89857	0.95888
3581.84476	0.95828
3579.79095	0.95752
3577.73714	0.95694
3575.68333	0.95661
3573.62952	0.95619
3571.57571	0.95570
3569.52190	0.95532
3567.46809	0.95461
3565.41428	0.95351
3563.36047	0.95283
3561.30666	0.95249
3559.25285	0.95208
3557.19904	0.95150
3555.14523	0.95091
3553.09142	0.95040
3551.03761	0.95010
3548.98380	0.94964
3546.92999	0.94864
3544.87618	0.94782
3542.82237	0.94759
3540.76856	0.94729
3538.71475	0.94667
3536.66094	0.94590
3534.60713	0.94507
3532.55332	0.94455
3530.49951	0.94438
3528.44570	0.94395
3526.39189	0.94317
3524.33808	0.94248
3522.28427	0.94204
3520.23046	0.94176
3518.17665	0.94147
3516.12284	0.94113
3514.06903	0.94085
3512.01522	0.94059
3509.96141	0.94013
3507.90760	0.93947
3505.85379	0.93903
3503.79998	0.93873
3501.74617	0.93824
3499.69236	0.93754
3497.63855	0.93681
3495.58474	0.93603
3493.53093	0.93522
3491.47712	0.93460
3489.42331	0.93421
3487.36950	0.93393
3485.31569	0.93353
3483.26188	0.93303
3481.20807	0.93259
3479.15426	0.93218
3477.10045	0.93195
3475.04664	0.93181
3472.99283	0.93136
3470.93902	0.93068
3468.88521	0.93017
3466.83140	0.92988
3464.77759	0.92957
3462.72378	0.92917
3460.66997	0.92878
3458.61616	0.92828
3456.56235	0.92781
3454.50854	0.92750
3452.45473	0.92714
3450.40092	0.92671
3448.34711	0.92628
3446.29330	0.92590
3444.23949	0.92557
3442.18568	0.92504
3440.13187	0.92447
3438.07806	0.92411
3436.02425	0.92388
3433.97044	0.92379
3431.91663	0.92372
3429.86282	0.92343
3427.80901	0.92308
3425.75520	0.92272
3423.70139	0.92215
3421.64758	0.92154
3419.59377	0.92116
3417.53996	0.92095
3415.48615	0.92078
3413.43234	0.92073
3411.37853	0.92079
3409.32472	0.92071
3407.27091	0.92020
3405.21710	0.91947
3403.16329	0.91922
3401.10948	0.91940
3399.05567	0.91954
3397.00186	0.91959
3394.94805	0.91947
3392.89424	0.91921
3390.84042	0.91917
3388.78661	0.91938
3386.73280	0.91945
3384.67899	0.91947
3382.62518	0.91962
3380.57137	0.91984
3378.51756	0.91991
3376.46375	0.91962
3374.40994	0.91926
3372.35613	0.91895
3370.30232	0.91873
3368.24851	0.91889
3366.19470	0.91946
3364.14089	0.91989
3362.08708	0.91989
3360.03327	0.91993
3357.97946	0.92023
3355.92565	0.92052
3353.87184	0.92052
3351.81803	0.92034
3349.76422	0.92025
3347.71041	0.92041
3345.65660	0.92076
3343.60279	0.92100
3341.54898	0.92118
3339.49517	0.92159
3337.44136	0.92198
3335.38755	0.92222
3333.33374	0.92242
3331.27993	0.92248
3329.22612	0.92242
3327.17231	0.92230
3325.11850	0.92223
3323.06469	0.92238
3321.01088	0.92266
3318.95707	0.92304
3316.90326	0.92365
3314.84945	0.92416
3312.79564	0.92419
3310.74183	0.92409
3308.68802	0.92424
3306.63421	0.92448
3304.58040	0.92467
3302.52659	0.92485
3300.47278	0.92481
3298.41897	0.92453
3296.36516	0.92433
3294.31135	0.92456
3292.25754	0.92513
3290.20373	0.92544
3288.14992	0.92553
3286.09611	0.92565
3284.04230	0.92572
3281.98849	0.92594
3279.93468	0.92625
3277.88087	0.92638
3275.82706	0.92651
3273.77325	0.92671
3271.71944	0.92688
3269.66563	0.92691
3267.61182	0.92682
3265.55801	0.92696
3263.50420	0.92735
3261.45039	0.92757
3259.39658	0.92766
3257.34277	0.92801
3255.28896	0.92863
3253.23515	0.92896
3251.18134	0.92880
3249.12753	0.92876
3247.07372	0.92923
3245.01991	0.92982
3242.96610	0.93010
3240.91229	0.93005
3238.85848	0.92990
3236.80467	0.92999
3234.75086	0.93042
3232.69705	0.93085
3230.64324	0.93108
3228.58943	0.93143
3226.53562	0.93191
3224.48181	0.93232
3222.42800	0.93266
3220.37419	0.93304
3218.32038	0.93362
3216.26657	0.93416
3214.21276	0.93447
3212.15895	0.93480
3210.10514	0.93517
3208.05133	0.93526
3205.99752	0.93538
3203.94371	0.93580
3201.88990	0.93623
3199.83609	0.93669
3197.78228	0.93726
3195.72847	0.93774
3193.67466	0.93828
3191.62085	0.93904
3189.56704	0.93981
3187.51323	0.94040
3185.45942	0.94083
3183.40561	0.94109
3181.35180	0.94136
3179.29799	0.94175
3177.24418	0.94214
3175.19037	0.94263
3173.13656	0.94324
3171.08275	0.94379
3169.02894	0.94427
3166.97513	0.94475
3164.92132	0.94511
3162.86751	0.94529
3160.81370	0.94568
3158.75989	0.94633
3156.70608	0.94688
3154.65227	0.94743
3152.59846	0.94806
3150.54465	0.94858
3148.49084	0.94916
3146.43703	0.94989
3144.38322	0.95047
3142.32941	0.95087
3140.27560	0.95125
3138.22179	0.95161
3136.16798	0.95218
3134.11417	0.95293
3132.06036	0.95343
3130.00655	0.95378
3127.95274	0.95420
3125.89893	0.95459
3123.84512	0.95489
3121.79131	0.95523
3119.73750	0.95584
3117.68369	0.95662
3115.62988	0.95719
3113.57607	0.95749
3111.52226	0.95772
3109.46845	0.95810
3107.41464	0.95879
3105.36083	0.95947
3103.30702	0.95966
3101.25321	0.95964
3099.19940	0.95989
3097.14559	0.96054
3095.09177	0.96119
3093.03796	0.96144
3090.98415	0.96164
3088.93034	0.96193
3086.87653	0.96219
3084.82272	0.96249
3082.76891	0.96281
3080.71510	0.96312
3078.66129	0.96325
3076.60748	0.96328
3074.55367	0.96364
3072.49986	0.96432
3070.44605	0.96497
3068.39224	0.96544
3066.33843	0.96581
3064.28462	0.96609
3062.23081	0.96623
3060.17700	0.96645
3058.12319	0.96692
3056.06938	0.96747
3054.01557	0.96787
3051.96176	0.96809
3049.90795	0.96822
3047.85414	0.96847
3045.80033	0.96891
3043.74652	0.96928
3041.69271	0.96962
3039.63890	0.96997
3037.58509	0.97020
3035.53128	0.97038
3033.47747	0.97065
3031.42366	0.97093
3029.36985	0.97127
3027.31604	0.97178
3025.26223	0.97227
3023.20842	0.97256
3021.15461	0.97285
3019.10080	0.97321
3017.04699	0.97361
3014.99318	0.97394
3012.93937	0.97407
3010.88556	0.97439
3008.83175	0.97502
3006.77794	0.97551
3004.72413	0.97586
3002.67032	0.97642
3000.61651	0.97715
2998.56270	0.97766
2996.50889	0.97812
2994.45508	0.97897
2992.40127	0.98005
2990.34746	0.98116
2988.29365	0.98239
2986.23984	0.98360
2984.18603	0.98479
2982.13222	0.98648
2980.07841	0.98875
2978.02460	0.99128
2975.97079	0.99426
2973.91698	0.99815
2971.86317	1.00296
2969.80936	1.00857
2967.75555	1.01489
2965.70174	1.02146
2963.64793	1.02762
2961.59412	1.03248
2959.54031	1.03534
2957.48650	1.03705
2955.43269	1.03932
2953.37888	1.04242
2951.32507	1.04460
2949.27126	1.04317
2947.21745	1.03704
2945.16364	1.02798
2943.10983	1.01870
2941.05602	1.01093
2939.00221	1.00539
2936.94840	1.00198
2934.89459	0.99999
2932.84078	0.99873
2930.78697	0.99735
2928.73316	0.99459
2926.67935	0.98932
2924.62554	0.98058
2922.57173	0.96751
2920.51792	0.94995
2918.46411	0.92951
2916.41030	0.91066
2914.35649	0.89982
2912.30268	0.90030
2910.24887	0.90919
2908.19506	0.92062
2906.14125	0.93036
2904.08744	0.93700
2902.03363	0.94080
2899.97982	0.94275
2897.92601	0.94411
2895.87220	0.94580
2893.81839	0.94815
2891.76458	0.95115
2889.71077	0.95491
2887.65696	0.95943
2885.60315	0.96443
2883.54934	0.97008
2881.49553	0.97657
2879.44172	0.98311
2877.38791	0.98874
2875.33410	0.99322
2873.28029	0.99699
2871.22648	1.00040
2869.17267	1.00326
2867.11886	1.00443
2865.06505	1.00202
2863.01124	0.99528
2860.95743	0.98548
2858.90362	0.97421
2856.84981	0.96125
2854.79600	0.94423
2852.74219	0.92035
2850.68838	0.89131
2848.63457	0.86773
2846.58076	0.86258
2844.52695	0.87780
2842.47314	0.90356
2840.41933	0.92893
2838.36552	0.94818
2836.31171	0.95994
2834.25790	0.96523
2832.20409	0.96642
2830.15028	0.96604
2828.09647	0.96581
2826.04266	0.96627
2823.98885	0.96715
2821.93504	0.96800
2819.88123	0.96873
2817.82742	0.96973
2815.77361	0.97083
2813.71980	0.97164
2811.66599	0.97226
2809.61218	0.97275
2807.55837	0.97312
2805.50456	0.97339
2803.45075	0.97366
2801.39693	0.97417
2799.34312	0.97467
2797.28931	0.97497
2795.23550	0.97534
2793.18169	0.97582
2791.12788	0.97606
2789.07407	0.97600
2787.02026	0.97606
2784.96645	0.97632
2782.91264	0.97659
2780.85883	0.97683
2778.80502	0.97710
2776.75121	0.97748
2774.69740	0.97787
2772.64359	0.97803
2770.58978	0.97797
2768.53597	0.97786
2766.48216	0.97795
2764.42835	0.97829
2762.37454	0.97865
2760.32073	0.97879
2758.26692	0.97880
2756.21311	0.97879
2754.15930	0.97871
2752.10549	0.97875
2750.05168	0.97917
2747.99787	0.97968
2745.94406	0.97998
2743.89025	0.98017
2741.83644	0.98041
2739.78263	0.98062
2737.72882	0.98085
2735.67501	0.98120
2733.62120	0.98146
2731.56739	0.98150
2729.51358	0.98158
2727.45977	0.98195
2725.40596	0.98256
2723.35215	0.98302
2721.29834	0.98293
2719.24453	0.98253
2717.19072	0.98227
2715.13691	0.98219
2713.08310	0.98214
2711.02929	0.98211
2708.97548	0.98201
2706.92167	0.98178
2704.86786	0.98164
2702.81405	0.98168
2700.76024	0.98181
2698.70643	0.98201
2696.65262	0.98212
2694.59881	0.98208
2692.54500	0.98211
2690.49119	0.98227
2688.43738	0.98244
2686.38357	0.98243
2684.32976	0.98229
2682.27595	0.98221
2680.22214	0.98222
2678.16833	0.98226
2676.11452	0.98235
2674.06071	0.98234
2672.00690	0.98221
2669.95309	0.98216
2667.89928	0.98220
2665.84547	0.98223
2663.79166	0.98246
2661.73785	0.98284
2659.68404	0.98304
2657.63023	0.98314
2655.57642	0.98313
2653.52261	0.98300
2651.46880	0.98283
2649.41499	0.98273
2647.36118	0.98275
2645.30737	0.98281
2643.25356	0.98289
2641.19975	0.98288
2639.14594	0.98257
2637.09213	0.98220
2635.03832	0.98214
2632.98451	0.98226
2630.93070	0.98246
2628.87689	0.98271
2626.82308	0.98292
2624.76927	0.98323
2622.71546	0.98344
2620.66165	0.98320
2618.60784	0.98284
2616.55403	0.98285
2614.50022	0.98316
2612.44641	0.98363
2610.39260	0.98386
2608.33879	0.98376
2606.28498	0.98370
2604.23117	0.98373
2602.17736	0.98398
2600.12355	0.98439
2598.06974	0.98419
2596.01593	0.98349
2593.96212	0.98317
2591.90831	0.98333
2589.85450	0.98359
2587.80069	0.98382
2585.74688	0.98407
2583.69307	0.98425
2581.63926	0.98447
2579.58545	0.98466
2577.53164	0.98442
2575.47783	0.98401
2573.42402	0.98373
2571.37021	0.98359
2569.31640	0.98384
2567.26259	0.98418
2565.20878	0.98425
2563.15497	0.98413
2561.10116	0.98407
2559.04735	0.98412
2556.99354	0.98406
2554.93973	0.98402
2552.88592	0.98395
2550.83211	0.98353
2548.77830	0.98321
2546.72449	0.98333
2544.67068	0.98347
2542.61687	0.98363
2540.56306	0.98397
2538.50925	0.98412
2536.45544	0.98387
2534.40163	0.98352
2532.34782	0.98356
2530.29401	0.98383
2528.24020	0.98388
2526.18639	0.98398
2524.13258	0.98405
2522.07877	0.98376
2520.02496	0.98344
2517.97115	0.98335
2515.91734	0.98348
2513.86353	0.98370
2511.80972	0.98377
2509.75591	0.98373
2507.70210	0.98375
2505.64828	0.98384
2503.59447	0.98389
2501.54066	0.98377
2499.48685	0.98360
2497.43304	0.98354
2495.37923	0.98350
2493.32542	0.98333
2491.27161	0.98315
2489.21780	0.98323
2487.16399	0.98355
2485.11018	0.98367
2483.05637	0.98354
2481.00256	0.98353
2478.94875	0.98357
2476.89494	0.98330
2474.84113	0.98282
2472.78732	0.98269
2470.73351	0.98300
2468.67970	0.98342
2466.62589	0.98367
2464.57208	0.98352
2462.51827	0.98332
2460.46446	0.98344
2458.41065	0.98347
2456.35684	0.98337
2454.30303	0.98344
2452.24922	0.98345
2450.19541	0.98348
2448.14160	0.98382
2446.08779	0.98374
2444.03398	0.98300
2441.98017	0.98258
2439.92636	0.98281
2437.87255	0.98327
2435.81874	0.98370
2433.76493	0.98381
2431.71112	0.98337
2429.65731	0.98311
2427.60350	0.98348
2425.54969	0.98377
2423.49588	0.98373
2421.44207	0.98351
2419.38826	0.98316
2417.33445	0.98285
2415.28064	0.98281
2413.22683	0.98299
2411.17302	0.98309
2409.11921	0.98314
2407.06540	0.98320
2405.01159	0.98329
2402.95778	0.98343
2400.90397	0.98339
2398.85016	0.98313
2396.79635	0.98291
2394.74254	0.98290
2392.68873	0.98295
2390.63492	0.98281
2388.58111	0.98246
2386.52730	0.98216
2384.47349	0.98196
2382.41968	0.98172
2380.36587	0.98175
2378.31206	0.98217
2376.25825	0.98234
2374.20444	0.98218
2372.15063	0.98210
2370.09682	0.98165
2368.04301	0.98059
2365.98920	0.98012
2363.93539	0.98042
2361.88158	0.98066
2359.82777	0.98086
2357.77396	0.98090
2355.72015	0.98133
2353.66634	0.98209
2351.61253	0.98252
2349.55872	0.98280
2347.50491	0.98285
2345.45110	0.98262
2343.39729	0.98218
2341.34348	0.98169
2339.28967	0.98145
2337.23586	0.98125
2335.18205	0.98110
2333.12824	0.98135
2331.07443	0.98143
2329.02062	0.98141
2326.96681	0.98231
2324.91300	0.98331
2322.85919	0.98269
2320.80538	0.98150
2318.75157	0.98170
2316.69776	0.98241
2314.64395	0.98266
2312.59014	0.98270
2310.53633	0.98277
2308.48252	0.98301
2306.42871	0.98294
2304.37490	0.98258
2302.32109	0.98263
2300.26728	0.98302
2298.21347	0.98316
2296.15966	0.98285
2294.10585	0.98250
2292.05204	0.98256
2289.99823	0.98281
2287.94442	0.98273
2285.89061	0.98246
2283.83680	0.98251
2281.78299	0.98251
2279.72918	0.98213
2277.67537	0.98206
2275.62156	0.98247
2273.56775	0.98286
2271.51394	0.98322
2269.46013	0.98353
2267.40632	0.98327
2265.35251	0.98267
2263.29870	0.98225
2261.24489	0.98190
2259.19108	0.98175
2257.13727	0.98193
2255.08346	0.98214
2253.02965	0.98208
2250.97584	0.98181
2248.92203	0.98146
2246.86822	0.98127
2244.81441	0.98137
2242.76060	0.98108
2240.70679	0.98071
2238.65298	0.98074
2236.59917	0.98085
2234.54536	0.98173
2232.49155	0.98273
2230.43774	0.98237
2228.38393	0.98113
2226.33012	0.98017
2224.27631	0.98025
2222.22250	0.98103
2220.16869	0.98130
2218.11488	0.98084
2216.06107	0.98078
2214.00726	0.98142
2211.95344	0.98277
2209.89963	0.98438
2207.84582	0.98453
2205.79201	0.98327
2203.73820	0.98218
2201.68439	0.98202
2199.63058	0.98269
2197.57677	0.98301
2195.52296	0.98256
2193.46915	0.98240
2191.41534	0.98254
2189.36153	0.98254
2187.30772	0.98246
2185.25391	0.98183
2183.20010	0.98076
2181.14629	0.98043
2179.09248	0.98064
2177.03867	0.98025
2174.98486	0.97953
2172.93105	0.97947
2170.87724	0.98034
2168.82343	0.98106
2166.76962	0.98064
2164.71581	0.98042
2162.66200	0.98158
2160.60819	0.98182
2158.55438	0.98006
2156.50057	0.97955
2154.44676	0.97994
2152.39295	0.97902
2150.33914	0.97808
2148.28533	0.97819
2146.23152	0.97823
2144.17771	0.97783
2142.12390	0.97723
2140.07009	0.97626
2138.01628	0.97588
2135.96247	0.97662
2133.90866	0.97724
2131.85485	0.97726
2129.80104	0.97750
2127.74723	0.97794
2125.69342	0.97816
2123.63961	0.97864
2121.58580	0.97917
2119.53199	0.97898
2117.47818	0.97866
2115.42437	0.97885
2113.37056	0.97932
2111.31675	0.97938
2109.26294	0.97890
2107.20913	0.97892
2105.15532	0.97993
2103.10151	0.98048
2101.04770	0.98029
2098.99389	0.98052
2096.94008	0.98020
2094.88627	0.97939
2092.83246	0.97939
2090.77865	0.97937
2088.72484	0.97942
2086.67103	0.97981
2084.61722	0.97976
2082.56341	0.98005
2080.50960	0.98060
2078.45579	0.98033
2076.40198	0.97991
2074.34817	0.97957
2072.29436	0.97940
2070.24055	0.98000
2068.18674	0.98044
2066.13293	0.98021
2064.07912	0.98028
2062.02531	0.98057
2059.97150	0.98044
2057.91769	0.98047
2055.86388	0.98045
2053.81007	0.97989
2051.75626	0.97967
2049.70245	0.97958
2047.64864	0.97917
2045.59483	0.97936
2043.54102	0.97999
2041.48721	0.98058
2039.43340	0.98035
2037.37959	0.97963
2035.32578	0.97994
2033.27197	0.98015
2031.21816	0.97928
2029.16435	0.97874
2027.11054	0.97906
2025.05673	0.97911
2023.00292	0.97840
2020.94911	0.97782
2018.89530	0.97778
2016.84149	0.97834
2014.78768	0.98014
2012.73387	0.98178
2010.68006	0.98056
2008.62625	0.97810
2006.57244	0.97811
2004.51863	0.97953
2002.46482	0.97987
2000.41101	0.97948
1998.35720	0.97928
1996.30339	0.97942
1994.24958	0.97935
1992.19577	0.97896
1990.14196	0.97884
1988.08815	0.97950
1986.03434	0.98067
1983.98053	0.98157
1981.92672	0.98195
1979.87291	0.98182
1977.81910	0.98082
1975.76529	0.97925
1973.71148	0.97897
1971.65767	0.98018
1969.60386	0.98133
1967.55005	0.98193
1965.49624	0.98199
1963.44243	0.98142
1961.38862	0.98052
1959.33481	0.97955
1957.28100	0.97871
1955.22719	0.97858
1953.17338	0.97863
1951.11957	0.97810
1949.06576	0.97753
1947.01195	0.97765
1944.95814	0.97836
1942.90433	0.97866
1940.85052	0.97842
1938.79671	0.97861
1936.74290	0.97902
1934.68909	0.97869
1932.63528	0.97803
1930.58147	0.97776
1928.52766	0.97754
1926.47385	0.97765
1924.42004	0.97837
1922.36623	0.97896
1920.31242	0.97902
1918.25861	0.97892
1916.20479	0.97897
1914.15098	0.97903
1912.09717	0.97900
1910.04336	0.97899
1907.98955	0.97869
1905.93574	0.97828
1903.88193	0.97843
1901.82812	0.97879
1899.77431	0.97878
1897.72050	0.97848
1895.66669	0.97829
1893.61288	0.97843
1891.55907	0.97855
1889.50526	0.97841
1887.45145	0.97846
1885.39764	0.97874
1883.34383	0.97867
1881.29002	0.97832
1879.23621	0.97850
1877.18240	0.97906
1875.12859	0.97910
1873.07478	0.97881
1871.02097	0.97850
1868.96716	0.97820
1866.91335	0.97825
1864.85954	0.97828
1862.80573	0.97798
1860.75192	0.97784
1858.69811	0.97802
1856.64430	0.97818
1854.59049	0.97831
1852.53668	0.97846
1850.48287	0.97858
1848.42906	0.97866
1846.37525	0.97860
1844.32144	0.97842
1842.26763	0.97816
1840.21382	0.97802
1838.16001	0.97812
1836.10620	0.97803
1834.05239	0.97763
1831.99858	0.97733
1829.94477	0.97740
1827.89096	0.97769
1825.83715	0.97806
1823.78334	0.97833
1821.72953	0.97802
1819.67572	0.97737
1817.62191	0.97691
1815.56810	0.97683
1813.51429	0.97701
1811.46048	0.97725
1809.40667	0.97737
1807.35286	0.97733
1805.29905	0.97721
1803.24524	0.97722
1801.19143	0.97726
1799.13762	0.97702
1797.08381	0.97687
1795.03000	0.97729
1792.97619	0.97775
1790.92238	0.97758
1788.86857	0.97716
1786.81476	0.97695
1784.76095	0.97687
1782.70714	0.97698
1780.65333	0.97739
1778.59952	0.97765
1776.54571	0.97738
1774.49190	0.97704
1772.43809	0.97703
1770.38428	0.97692
1768.33047	0.97673
1766.27666	0.97683
1764.22285	0.97705
1762.16904	0.97709
1760.11523	0.97695
1758.06142	0.97696
1756.00761	0.97699
1753.95380	0.97688
1751.89999	0.97688
1749.84618	0.97685
1747.79237	0.97648
1745.73856	0.97608
1743.68475	0.97602
1741.63094	0.97616
1739.57713	0.97610
1737.52332	0.97566
1735.46951	0.97507
1733.41570	0.97459
1731.36189	0.97434
1729.30808	0.97416
1727.25427	0.97411
1725.20046	0.97414
1723.14665	0.97405
1721.09284	0.97392
1719.03903	0.97378
1716.98522	0.97346
1714.93141	0.97292
1712.87760	0.97247
1710.82379	0.97227
1708.76998	0.97228
1706.71617	0.97213
1704.66236	0.97151
1702.60855	0.97064
1700.55474	0.96955
1698.50093	0.96826
1696.44712	0.96708
1694.39331	0.96612
1692.33950	0.96544
1690.28569	0.96473
1688.23188	0.96387
1686.17807	0.96294
1684.12426	0.96180
1682.07045	0.96058
1680.01664	0.95949
1677.96283	0.95844
1675.90902	0.95746
1673.85521	0.95663
1671.80140	0.95582
1669.74759	0.95473
1667.69378	0.95369
1665.63997	0.95295
1663.58616	0.95199
1661.53235	0.95081
1659.47854	0.94984
1657.42473	0.94908
1655.37092	0.94855
1653.31711	0.94816
1651.26330	0.94739
1649.20949	0.94660
1647.15568	0.94610
1645.10187	0.94576
1643.04806	0.94527
1640.99425	0.94471
1638.94044	0.94427
1636.88663	0.94416
1634.83282	0.94465
1632.77901	0.94501
1630.72520	0.94514
1628.67139	0.94571
1626.61758	0.94661
1624.56377	0.94741
1622.50996	0.94825
1620.45614	0.94909
1618.40233	0.95010
1616.34852	0.95162
1614.29471	0.95290
1612.24090	0.95375
1610.18709	0.95463
1608.13328	0.95564
1606.07947	0.95666
1604.02566	0.95763
1601.97185	0.95855
1599.91804	0.95932
1597.86423	0.95993
1595.81042	0.96058
1593.75661	0.96135
1591.70280	0.96208
1589.64899	0.96281
1587.59518	0.96344
1585.54137	0.96373
1583.48756	0.96394
1581.43375	0.96435
1579.37994	0.96481
1577.32613	0.96528
1575.27232	0.96585
1573.21851	0.96625
1571.16470	0.96651
1569.11089	0.96688
1567.05708	0.96721
1565.00327	0.96739
1562.94946	0.96747
1560.89565	0.96754
1558.84184	0.96796
1556.78803	0.96830
1554.73422	0.96832
1552.68041	0.96850
1550.62660	0.96875
1548.57279	0.96892
1546.51898	0.96903
1544.46517	0.96920
1542.41136	0.96944
1540.35755	0.96983
1538.30374	0.97006
1536.24993	0.96987
1534.19612	0.96981
1532.14231	0.97010
1530.08850	0.97022
1528.03469	0.97013
1525.98088	0.97014
1523.92707	0.97030
1521.87326	0.97044
1519.81945	0.97040
1517.76564	0.97050
1515.71183	0.97103
1513.65802	0.97153
1511.60421	0.97177
1509.55040	0.97179
1507.49659	0.97185
1505.44278	0.97231
1503.38897	0.97250
1501.33516	0.97240
1499.28135	0.97236
1497.22754	0.97268
1495.17373	0.97315
1493.11992	0.97333
1491.06611	0.97343
1489.01230	0.97379
1486.95849	0.97426
1484.90468	0.97464
1482.85087	0.97503
1480.79706	0.97522
1478.74325	0.97398
1476.68944	0.96697
1474.63563	0.95033
1472.58182	0.93661
1470.52801	0.94317
1468.47420	0.95658
1466.42039	0.96316
1464.36658	0.95860
1462.31277	0.95332
1460.25896	0.96010
1458.20515	0.97757
1456.15134	0.99397
1454.09753	1.00007
1452.04372	1.00179
1449.98991	1.00145
1447.93610	0.99831
1445.88229	0.99305
1443.82848	0.98795
1441.77467	0.98436
1439.72086	0.98271
1437.66705	0.98247
1435.61324	0.98213
1433.55943	0.98026
1431.50562	0.97753
1429.45181	0.97530
1427.39800	0.97418
1425.34419	0.97360
1423.29038	0.97329
1421.23657	0.97309
1419.18276	0.97285
1417.12895	0.97273
1415.07514	0.97266
1413.02133	0.97249
1410.96752	0.97231
1408.91371	0.97214
1406.85990	0.97201
1404.80609	0.97194
1402.75228	0.97185
1400.69847	0.97189
1398.64466	0.97213
1396.59085	0.97233
1394.53704	0.97260
1392.48323	0.97324
1390.42942	0.97409
1388.37561	0.97567
1386.32180	0.97921
1384.26799	0.98518
1382.21418	0.99420
1380.16037	1.00736
1378.10656	1.02244
1376.05275	1.03104
1373.99894	1.02573
1371.94513	1.01144
1369.89132	0.99829
1367.83751	0.98958
1365.78370	0.98526
1363.72989	0.98417
1361.67608	0.98514
1359.62227	0.98602
1357.56846	0.98511
1355.51465	0.98270
1353.46084	0.98001
1351.40703	0.97776
1349.35322	0.97610
1347.29941	0.97510
1345.24560	0.97469
1343.19179	0.97457
1341.13798	0.97443
1339.08417	0.97422
1337.03036	0.97401
1334.97655	0.97387
1332.92274	0.97399
1330.86893	0.97446
1328.81512	0.97481
1326.76130	0.97449
1324.70749	0.97386
1322.65368	0.97352
1320.59987	0.97329
1318.54606	0.97308
1316.49225	0.97302
1314.43844	0.97306
1312.38463	0.97311
1310.33082	0.97307
1308.27701	0.97336
1306.22320	0.97426
1304.16939	0.97502
1302.11558	0.97498
1300.06177	0.97458
1298.00796	0.97441
1295.95415	0.97432
1293.90034	0.97398
1291.84653	0.97356
1289.79272	0.97322
1287.73891	0.97290
1285.68510	0.97282
1283.63129	0.97295
1281.57748	0.97290
1279.52367	0.97250
1277.46986	0.97197
1275.41605	0.97165
1273.36224	0.97158
1271.30843	0.97153
1269.25462	0.97162
1267.20081	0.97195
1265.14700	0.97221
1263.09319	0.97221
1261.03938	0.97231
1258.98557	0.97282
1256.93176	0.97322
1254.87795	0.97304
1252.82414	0.97249
1250.77033	0.97189
1248.71652	0.97138
1246.66271	0.97087
1244.60890	0.97028
1242.55509	0.96976
1240.50128	0.96935
1238.44747	0.96896
1236.39366	0.96849
1234.33985	0.96795
1232.28604	0.96743
1230.23223	0.96691
1228.17842	0.96629
1226.12461	0.96572
1224.07080	0.96522
1222.01699	0.96465
1219.96318	0.96411
1217.90937	0.96359
1215.85556	0.96283
1213.80175	0.96179
1211.74794	0.96075
1209.69413	0.95998
1207.64032	0.95944
1205.58651	0.95880
1203.53270	0.95813
1201.47889	0.95764
1199.42508	0.95738
1197.37127	0.95724
1195.31746	0.95700
1193.26365	0.95686
1191.20984	0.95703
1189.15603	0.95729
1187.10222	0.95768
1185.04841	0.95831
1182.99460	0.95901
1180.94079	0.95970
1178.88698	0.96053
1176.83317	0.96188
1174.77936	0.96419
1172.72555	0.96734
1170.67174	0.97066
1168.61793	0.97344
1166.56412	0.97507
1164.51031	0.97543
1162.45650	0.97509
1160.40269	0.97467
1158.34888	0.97449
1156.29507	0.97464
1154.24126	0.97483
1152.18745	0.97471
1150.13364	0.97440
1148.07983	0.97407
1146.02602	0.97371
1143.97221	0.97333
1141.91840	0.97316
1139.86459	0.97342
1137.81078	0.97386
1135.75697	0.97420
1133.70316	0.97442
1131.64935	0.97482
1129.59554	0.97564
1127.54173	0.97640
1125.48792	0.97653
1123.43411	0.97632
1121.38030	0.97625
1119.32649	0.97622
1117.27268	0.97617
1115.21887	0.97625
1113.16506	0.97631
1111.11125	0.97636
1109.05744	0.97679
1107.00363	0.97757
1104.94982	0.97834
1102.89601	0.97883
1100.84220	0.97878
1098.78839	0.97831
1096.73458	0.97800
1094.68077	0.97791
1092.62696	0.97768
1090.57315	0.97733
1088.51934	0.97709
1086.46553	0.97710
1084.41172	0.97724
1082.35791	0.97734
1080.30410	0.97731
1078.25029	0.97716
1076.19648	0.97705
1074.14267	0.97707
1072.08886	0.97718
1070.03505	0.97718
1067.98124	0.97672
1065.92743	0.97578
1063.87362	0.97456
1061.81981	0.97330
1059.76600	0.97202
1057.71219	0.97057
1055.65838	0.96894
1053.60457	0.96735
1051.55076	0.96633
1049.49695	0.96622
1047.44314	0.96660
1045.38933	0.96690
1043.33552	0.96736
1041.28171	0.96787
1039.22790	0.96806
1037.17409	0.96841
1035.12028	0.96904
1033.06647	0.96932
1031.01265	0.96946
1028.95884	0.96990
1026.90503	0.97027
1024.85122	0.97031
1022.79741	0.97000
1020.74360	0.96962
1018.68979	0.96954
1016.63598	0.96960
1014.58217	0.96963
1012.52836	0.96984
1010.47455	0.97040
1008.42074	0.97121
1006.36693	0.97222
1004.31312	0.97377
1002.25931	0.97643
1000.20550	0.98015
998.15169	0.98309
996.09788	0.98309
994.04407	0.98051
991.99026	0.97758
989.93645	0.97558
987.88264	0.97450
985.82883	0.97411
983.77502	0.97421
981.72121	0.97503
979.66740	0.97706
977.61359	0.98003
975.55978	0.98331
973.50597	0.98578
971.45216	0.98546
969.39835	0.98198
967.34454	0.97784
965.29073	0.97529
963.23692	0.97433
961.18311	0.97412
959.12930	0.97411
957.07549	0.97414
955.02168	0.97449
952.96787	0.97519
950.91406	0.97576
948.86025	0.97580
946.80644	0.97532
944.75263	0.97473
942.69882	0.97442
940.64501	0.97404
938.59120	0.97302
936.53739	0.97173
934.48358	0.97087
932.42977	0.97033
930.37596	0.96970
928.32215	0.96875
926.26834	0.96767
924.21453	0.96707
922.16072	0.96681
920.10691	0.96606
918.05310	0.96482
915.99929	0.96384
913.94548	0.96306
911.89167	0.96232
909.83786	0.96190
907.78405	0.96184
905.73024	0.96197
903.67643	0.96241
901.62262	0.96325
899.56881	0.96391
897.51500	0.96343
895.46119	0.96190
893.40738	0.96056
891.35357	0.95974
889.29976	0.95898
887.24595	0.95844
885.19214	0.95828
883.13833	0.95792
881.08452	0.95698
879.03071	0.95604
876.97690	0.95564
874.92309	0.95530
872.86928	0.95489
870.81547	0.95475
868.76166	0.95442
866.70785	0.95367
864.65404	0.95295
862.60023	0.95253
860.54642	0.95218
858.49261	0.95202
856.43880	0.95222
854.38499	0.95228
852.33118	0.95192
850.27737	0.95172
848.22356	0.95208
846.16975	0.95340
844.11594	0.95640
842.06213	0.95948
840.00832	0.95908
837.95451	0.95519
835.90070	0.95122
833.84689	0.94906
831.79308	0.94817
829.73927	0.94740
827.68546	0.94636
825.63165	0.94535
823.57784	0.94441
821.52403	0.94370
819.47022	0.94358
817.41641	0.94420
815.36260	0.94565
813.30879	0.94735
811.25498	0.94816
809.20117	0.94758
807.14736	0.94584
805.09355	0.94370
803.03974	0.94173
800.98593	0.94019
798.93212	0.93925
796.87831	0.93885
794.82450	0.93852
792.77069	0.93765
790.71688	0.93656
788.66307	0.93567
786.60926	0.93468
784.55545	0.93328
782.50164	0.93205
780.44783	0.93159
778.39402	0.93146
776.34021	0.93118
774.28640	0.93066
772.23259	0.93017
770.17878	0.92988
768.12497	0.92957
766.07116	0.92923
764.01735	0.92899
761.96354	0.92901
759.90973	0.92913
757.85592	0.92873
755.80211	0.92771
753.74830	0.92644
751.69449	0.92527
749.64068	0.92488
747.58687	0.92531
745.53306	0.92580
743.47925	0.92586
741.42544	0.92583
739.37163	0.92629
737.31781	0.92635
735.26400	0.92312
733.21019	0.91175
731.15638	0.89427
729.10257	0.88533
727.04876	0.89067
724.99495	0.89795
722.94114	0.89503
720.88733	0.87881
718.83352	0.86198
716.77971	0.86110
714.72590	0.87228
712.67209	0.88328
710.61828	0.89007
708.56447	0.89405
706.51066	0.89661
704.45685	0.89827
702.40304	0.89967
700.34923	0.90088
698.29542	0.90132
696.24161	0.90121
694.18780	0.90129
692.13399	0.90174
690.08018	0.90219
688.02637	0.90222
685.97256	0.90234
683.91875	0.90272
681.86494	0.90276
679.81113	0.90243
677.75732	0.90156
675.70351	0.90086
673.64970	0.90177
671.59589	0.90372
669.54208	0.90515
667.48827	0.90431
665.43446	0.90240
663.38065	0.90171
661.32684	0.90219
659.27303	0.90272
657.21922	0.90234
655.16541	0.90168
653.11160	0.90174
651.05779	0.90235
649.00398	0.90235
646.95017	0.90113
644.89636	0.90030
642.84255	0.90108
640.78874	0.90194
638.73493	0.90213
636.68112	0.90251
634.62731	0.90282
632.57350	0.90209
630.51969	0.90097
628.46588	0.90092
626.41207	0.90202
624.35826	0.90333
622.30445	0.90483
620.25064	0.90617
618.19683	0.90654
616.14302	0.90652
614.08921	0.90610
612.03540	0.90484
609.98159	0.90400
607.92778	0.90369
605.87397	0.90320
603.82016	0.90324
601.76635	0.90378
599.71254	0.90369
597.65873	0.90274
595.60492	0.90163
593.55111	0.90075
591.49730	0.90012
589.44349	0.89990
587.38968	0.90019
585.33587	0.90060
583.28206	0.90109
581.22825	0.90208
579.17444	0.90302
577.12063	0.90368
575.06682	0.90441
573.01301	0.90440
570.95920	0.90324
568.90539	0.90249
566.85158	0.90281
564.79777	0.90319
562.74396	0.90379
560.69015	0.90487
558.63634	0.90577
556.58253	0.90555
554.52872	0.90417
552.47491	0.90311
550.42110	0.90323
548.36729	0.90366
546.31348	0.90365
544.25967	0.90349
542.20586	0.90339
540.15205	0.90429
538.09824	0.90586
536.04443	0.90647
533.99062	0.90654
531.93681	0.90727
529.88300	0.90846
527.82919	0.90921
525.77538	0.90937
523.72157	0.90855
521.66776	0.90692
519.61395	0.90656
517.56014	0.90851
515.50633	0.91030
513.45252	0.91025
511.39871	0.91004
509.34490	0.91057
507.29109	0.91114
505.23728	0.91125
503.18347	0.91082
501.12966	0.91142
499.07585	0.91316
497.02204	0.91411
494.96823	0.91354
492.91442	0.91169
490.86061	0.91061
488.80680	0.91190
486.75299	0.91418
484.69918	0.91533
482.64537	0.91472
480.59156	0.91288
478.53775	0.91127
476.48394	0.91240
474.43013	0.91476
472.37632	0.91387
470.32251	0.91078
468.26870	0.90976
466.21489	0.91086
464.16108	0.91224
462.10727	0.91420
460.05346	0.91630
457.99965	0.91590
455.94584	0.91482
453.89203	0.91526
451.83822	0.91419
449.78441	0.91186
447.73060	0.91146
445.67679	0.91368
443.62298	0.91668
441.56916	0.91801
439.51535	0.91685
437.46154	0.91588
435.40773	0.91733
433.35392	0.91894
431.30011	0.91722
429.24630	0.91328
427.19249	0.91296
425.13868	0.91680
423.08487	0.92055
421.03106	0.92169
418.97725	0.92130
416.92344	0.92111
414.86963	0.91659
412.81582	0.91252
410.76201	0.91854
408.70820	0.92841
406.65439	0.93052
404.60058	0.92797
402.54677	0.92733
400.49296	0.92711
398.43915	0.92801
