3996.71440	0.96383
3994.66059	0.96389
3992.60678	0.96362
3990.55297	0.96345
3988.49916	0.96346
3986.44535	0.96349
3984.39154	0.96370
3982.33773	0.96387
3980.28391	0.96379
3978.23010	0.96378
3976.17629	0.96395
3974.12248	0.96410
3972.06867	0.96414
3970.01486	0.96386
3967.96105	0.96348
3965.90724	0.96347
3963.85343	0.96368
3961.79962	0.96374
3959.74581	0.96375
3957.69200	0.96388
3955.63819	0.96392
3953.58438	0.96375
3951.53057	0.96378
3949.47676	0.96394
3947.42295	0.96388
3945.36914	0.96370
3943.31533	0.96336
3941.26152	0.96309
3939.20771	0.96323
3937.15390	0.96334
3935.10009	0.96321
3933.04628	0.96321
3930.99247	0.96357
3928.93866	0.96390
3926.88485	0.96395
3924.83104	0.96392
3922.77723	0.96390
3920.72342	0.96402
3918.66961	0.96426
3916.61580	0.96419
3914.56199	0.96394
3912.50818	0.96404
3910.45437	0.96399
3908.40056	0.96343
3906.34675	0.96299
3904.29294	0.96289
3902.23913	0.96299
3900.18532	0.96320
3898.13151	0.96338
3896.07770	0.96364
3894.02389	0.96391
3891.97008	0.96392
3889.91627	0.96380
3887.86246	0.96378
3885.80865	0.96359
3883.75484	0.96348
3881.70103	0.96362
3879.64722	0.96360
3877.59341	0.96364
3875.53960	0.96371
3873.48579	0.96372
3871.43198	0.96381
3869.37817	0.96379
3867.32436	0.96373
3865.27055	0.96349
3863.21674	0.96313
3861.16293	0.96328
3859.10912	0.96380
3857.05531	0.96436
3855.00150	0.96452
3852.94769	0.96356
3850.89388	0.96295
3848.84007	0.96336
3846.78626	0.96376
3844.73245	0.96376
3842.67864	0.96365
3840.62483	0.96355
3838.57102	0.96334
3836.51721	0.96321
3834.46340	0.96342
3832.40959	0.96391
3830.35578	0.96434
3828.30197	0.96438
3826.24816	0.96404
3824.19435	0.96367
3822.14054	0.96332
3820.08673	0.96326
3818.03292	0.96400
3815.97911	0.96464
3813.92530	0.96438
3811.87149	0.96407
3809.81768	0.96415
3807.76387	0.96420
3805.71006	0.96417
3803.65625	0.96437
3801.60244	0.96440
3799.54863	0.96412
3797.49482	0.96405
3795.44101	0.96399
3793.38720	0.96373
3791.33339	0.96371
3789.27958	0.96397
3787.22577	0.96413
3785.17196	0.96422
3783.11815	0.96427
3781.06434	0.96393
3779.01053	0.96348
3776.95672	0.96354
3774.90291	0.96393
3772.84910	0.96426
3770.79529	0.96430
3768.74148	0.96417
3766.68767	0.96423
3764.63386	0.96446
3762.58005	0.96487
3760.52624	0.96497
3758.47243	0.96457
3756.41862	0.96465
3754.36481	0.96527
3752.31100	0.96561
3750.25719	0.96538
3748.20338	0.96522
3746.14957	0.96543
3744.09576	0.96551
3742.04195	0.96534
3739.98814	0.96532
3737.93433	0.96529
3735.88052	0.96509
3733.82671	0.96505
3731.77290	0.96522
3729.71909	0.96534
3727.66528	0.96517
3725.61147	0.96471
3723.55766	0.96420
3721.50385	0.96373
3719.45004	0.96351
3717.39623	0.96353
3715.34242	0.96361
3713.28861	0.96364
3711.23480	0.96322
3709.18099	0.96254
3707.12718	0.96222
3705.07337	0.96196
3703.01956	0.96147
3700.96575	0.96100
3698.91194	0.96088
3696.85813	0.96098
3694.80432	0.96116
3692.75051	0.96143
3690.69670	0.96169
3688.64289	0.96168
3686.58907	0.96167
3684.53526	0.96189
3682.48145	0.96205
3680.42764	0.96197
3678.37383	0.96161
3676.32002	0.96099
3674.26621	0.96085
3672.21240	0.96138
3670.15859	0.96139
3668.10478	0.96079
3666.05097	0.96058
3663.99716	0.96047
3661.94335	0.96014
3659.88954	0.95977
3657.83573	0.95962
3655.78192	0.95983
3653.72811	0.96019
3651.67430	0.96028
3649.62049	0.95987
3647.56668	0.95934
3645.51287	0.95905
3643.45906	0.95902
3641.40525	0.95903
3639.35144	0.95874
3637.29763	0.95826
3635.24382	0.95787
3633.19001	0.95764
3631.13620	0.95766
3629.08239	0.95748
3627.02858	0.95682
3624.97477	0.95659
3622.92096	0.95674
3620.86715	0.95697
3618.81334	0.95710
3616.75953	0.95690
3614.70572	0.95663
3612.65191	0.95646
3610.59810	0.95625
3608.54429	0.95589
3606.49048	0.95577
3604.43667	0.95615
3602.38286	0.95664
3600.32905	0.95683
3598.27524	0.95673
3596.22143	0.95692
3594.16762	0.95754
3592.11381	0.95795
3590.06000	0.95781
3588.00619	0.95712
3585.95238	0.95658
3583.89857	0.95686
3581.84476	0.95724
3579.79095	0.95707
3577.73714	0.95677
3575.68333	0.95675
3573.62952	0.95677
3571.57571	0.95679
3569.52190	0.95704
3567.46809	0.95734
3565.41428	0.95719
3563.36047	0.95669
3561.30666	0.95618
3559.25285	0.95585
3557.19904	0.95583
3555.14523	0.95612
3553.09142	0.95636
3551.03761	0.95642
3548.98380	0.95649
3546.92999	0.95641
3544.87618	0.95602
3542.82237	0.95548
3540.76856	0.95510
3538.71475	0.95509
3536.66094	0.95525
3534.60713	0.95547
3532.55332	0.95570
3530.49951	0.95578
3528.44570	0.95564
3526.39189	0.95530
3524.33808	0.95496
3522.28427	0.95475
3520.23046	0.95445
3518.17665	0.95423
3516.12284	0.95427
3514.06903	0.95424
3512.01522	0.95422
3509.96141	0.95438
3507.90760	0.95455
3505.85379	0.95476
3503.79998	0.95474
3501.74617	0.95444
3499.69236	0.95446
3497.63855	0.95475
3495.58474	0.95484
3493.53093	0.95464
3491.47712	0.95435
3489.42331	0.95408
3487.36950	0.95393
3485.31569	0.95386
3483.26188	0.95365
3481.20807	0.95350
3479.15426	0.95345
3477.10045	0.95332
3475.04664	0.95316
3472.99283	0.95322
3470.93902	0.95348
3468.88521	0.95359
3466.83140	0.95340
3464.77759	0.95311
3462.72378	0.95270
3460.66997	0.95229
3458.61616	0.95211
3456.56235	0.95209
3454.50854	0.95208
3452.45473	0.95218
3450.40092	0.95238
3448.34711	0.95257
3446.29330	0.95272
3444.23949	0.95256
3442.18568	0.95231
3440.13187	0.95233
3438.07806	0.95246
3436.02425	0.95254
3433.97044	0.95259
3431.91663	0.95268
3429.86282	0.95268
3427.80901	0.95236
3425.75520	0.95205
3423.70139	0.95205
3421.64758	0.95212
3419.59377	0.95201
3417.53996	0.95177
3415.48615	0.95171
3413.43234	0.95195
3411.37853	0.95212
3409.32472	0.95195
3407.27091	0.95179
3405.21710	0.95191
3403.16329	0.95208
3401.10948	0.95220
3399.05567	0.95232
3397.00186	0.95234
3394.94805	0.95219
3392.89424	0.95203
3390.84042	0.95194
3388.78661	0.95187
3386.73280	0.95170
3384.67899	0.95148
3382.62518	0.95134
3380.57137	0.95139
3378.51756	0.95163
3376.46375	0.95181
3374.40994	0.95169
3372.35613	0.95151
3370.30232	0.95149
3368.24851	0.95161
3366.19470	0.95173
3364.14089	0.95171
3362.08708	0.95166
3360.03327	0.95163
3357.97946	0.95160
3355.92565	0.95162
3353.87184	0.95184
3351.81803	0.95219
3349.76422	0.95239
3347.71041	0.95241
3345.65660	0.95228
3343.60279	0.95213
3341.54898	0.95189
3339.49517	0.95157
3337.44136	0.95157
3335.38755	0.95184
3333.33374	0.95184
3331.27993	0.95175
3329.22612	0.95192
3327.17231	0.95198
3325.11850	0.95182
3323.06469	0.95180
3321.01088	0.95214
3318.95707	0.95244
3316.90326	0.95238
3314.84945	0.95248
3312.79564	0.95270
3310.74183	0.95251
3308.68802	0.95227
3306.63421	0.95242
3304.58040	0.95267
3302.52659	0.95283
3300.47278	0.95296
3298.41897	0.95290
3296.36516	0.95275
3294.31135	0.95286
3292.25754	0.95296
3290.20373	0.95266
3288.14992	0.95223
3286.09611	0.95227
3284.04230	0.95264
3281.98849	0.95283
3279.93468	0.95279
3277.88087	0.95286
3275.82706	0.95298
3273.77325	0.95301
3271.71944	0.95308
3269.66563	0.95303
3267.61182	0.95294
3265.55801	0.95319
3263.50420	0.95373
3261.45039	0.95412
3259.39658	0.95404
3257.34277	0.95384
3255.28896	0.95404
3253.23515	0.95447
3251.18134	0.95474
3249.12753	0.95481
3247.07372	0.95461
3245.01991	0.95428
3242.96610	0.95418
3240.91229	0.95433
3238.85848	0.95454
3236.80467	0.95464
3234.75086	0.95457
3232.69705	0.95452
3230.64324	0.95461
3228.58943	0.95470
3226.53562	0.95477
3224.48181	0.95510
3222.42800	0.95563
3220.37419	0.95591
3218.32038	0.95581
3216.26657	0.95557
3214.21276	0.95535
3212.15895	0.95518
3210.10514	0.95517
3208.05133	0.95533
3205.99752	0.95558
3203.94371	0.95602
3201.88990	0.95640
3199.83609	0.95649
3197.78228	0.95649
3195.72847	0.95640
3193.67466	0.95630
3191.62085	0.95628
3189.56704	0.95626
3187.51323	0.95642
3185.45942	0.95658
3183.40561	0.95656
3181.35180	0.95670
3179.29799	0.95694
3177.24418	0.95703
3175.19037	0.95719
3173.13656	0.95749
3171.08275	0.95768
3169.02894	0.95762
3166.97513	0.95751
3164.92132	0.95751
3162.86751	0.95764
3160.81370	0.95797
3158.75989	0.95835
3156.70608	0.95867
3154.65227	0.95893
3152.59846	0.95879
3150.54465	0.95845
3148.49084	0.95851
3146.43703	0.95884
3144.38322	0.95896
3142.32941	0.95887
3140.27560	0.95892
3138.22179	0.95899
3136.16798	0.95900
3134.11417	0.95914
3132.06036	0.95923
3130.00655	0.95912
3127.95274	0.95906
3125.89893	0.95919
3123.84512	0.95950
3121.79131	0.95972
3119.73750	0.95966
3117.68369	0.95957
3115.62988	0.95957
3113.57607	0.95971
3111.52226	0.95993
3109.46845	0.96000
3107.41464	0.95985
3105.36083	0.95969
3103.30702	0.95982
3101.25321	0.95998
3099.19940	0.95990
3097.14559	0.95986
3095.09177	0.95977
3093.03796	0.95947
3090.98415	0.95914
3088.93034	0.95892
3086.87653	0.95888
3084.82272	0.95898
3082.76891	0.95917
3080.71510	0.95949
3078.66129	0.95973
3076.60748	0.95982
3074.55367	0.95986
3072.49986	0.95977
3070.44605	0.95956
3068.39224	0.95958
3066.33843	0.95983
3064.28462	0.96010
3062.23081	0.96019
3060.17700	0.96003
3058.12319	0.95993
3056.06938	0.96001
3054.01557	0.96018
3051.96176	0.96033
3049.90795	0.96038
3047.85414	0.96035
3045.80033	0.96036
3043.74652	0.96046
3041.69271	0.96062
3039.63890	0.96070
3037.58509	0.96056
3035.53128	0.96050
3033.47747	0.96062
3031.42366	0.96054
3029.36985	0.96039
3027.31604	0.96055
3025.26223	0.96082
3023.20842	0.96086
3021.15461	0.96070
3019.10080	0.96051
3017.04699	0.96055
3014.99318	0.96084
3012.93937	0.96104
3010.88556	0.96120
3008.83175	0.96144
3006.77794	0.96141
3004.72413	0.96123
3002.67032	0.96137
3000.61651	0.96170
2998.56270	0.96188
2996.50889	0.96179
2994.45508	0.96150
2992.40127	0.96122
2990.34746	0.96114
2988.29365	0.96122
2986.23984	0.96121
2984.18603	0.96097
2982.13222	0.96064
2980.07841	0.96025
2978.02460	0.95984
2975.97079	0.95951
2973.91698	0.95915
2971.86317	0.95863
2969.80936	0.95796
2967.75555	0.95715
2965.70174	0.95620
2963.64793	0.95534
2961.59412	0.95447
2959.54031	0.95334
2957.48650	0.95192
2955.43269	0.95010
2953.37888	0.94792
2951.32507	0.94559
2949.27126	0.94296
2947.21745	0.93946
2945.16364	0.93451
2943.10983	0.92784
2941.05602	0.91934
2939.00221	0.90878
2936.94840	0.89602
2934.89459	0.88093
2932.84078	0.86328
2930.78697	0.84275
2928.73316	0.81832
2926.67935	0.78863
2924.62554	0.75275
2922.57173	0.71029
2920.51792	0.66302
2918.46411	0.61665
2916.41030	0.58085
2914.35649	0.56613
2912.30268	0.57589
2910.24887	0.60227
2908.19506	0.63381
2906.14125	0.66330
2904.08744	0.68800
2902.03363	0.70766
2899.97982	0.72330
2897.92601	0.73640
2895.87220	0.74814
2893.81839	0.75941
2891.76458	0.77079
2889.71077	0.78249
2887.65696	0.79452
2885.60315	0.80674
2883.54934	0.81892
2881.49553	0.83109
2879.44172	0.84343
2877.38791	0.85579
2875.33410	0.86718
2873.28029	0.87640
2871.22648	0.88302
2869.17267	0.88726
2867.11886	0.88899
2865.06505	0.88754
2863.01124	0.88215
2860.95743	0.87139
2858.90362	0.85284
2856.84981	0.82308
2854.79600	0.77781
2852.74219	0.71567
2850.68838	0.64757
2848.63457	0.59947
2846.58076	0.59330
2844.52695	0.62583
2842.47314	0.67592
2840.41933	0.72519
2838.36552	0.76552
2836.31171	0.79612
2834.25790	0.81925
2832.20409	0.83703
2830.15028	0.85071
2828.09647	0.86160
2826.04266	0.87065
2823.98885	0.87813
2821.93504	0.88432
2819.88123	0.88970
2817.82742	0.89442
2815.77361	0.89833
2813.71980	0.90161
2811.66599	0.90449
2809.61218	0.90714
2807.55837	0.90960
2805.50456	0.91174
2803.45075	0.91359
2801.39693	0.91527
2799.34312	0.91691
2797.28931	0.91856
2795.23550	0.92007
2793.18169	0.92150
2791.12788	0.92308
2789.07407	0.92459
2787.02026	0.92578
2784.96645	0.92686
2782.91264	0.92798
2780.85883	0.92909
2778.80502	0.93005
2776.75121	0.93085
2774.69740	0.93175
2772.64359	0.93281
2770.58978	0.93369
2768.53597	0.93441
2766.48216	0.93509
2764.42835	0.93558
2762.37454	0.93590
2760.32073	0.93622
2758.26692	0.93659
2756.21311	0.93713
2754.15930	0.93780
2752.10549	0.93817
2750.05168	0.93825
2747.99787	0.93841
2745.94406	0.93871
2743.89025	0.93900
2741.83644	0.93923
2739.78263	0.93946
2737.72882	0.93979
2735.67501	0.94016
2733.62120	0.94051
2731.56739	0.94082
2729.51358	0.94094
2727.45977	0.94107
2725.40596	0.94146
2723.35215	0.94193
2721.29834	0.94228
2719.24453	0.94250
2717.19072	0.94266
2715.13691	0.94285
2713.08310	0.94303
2711.02929	0.94322
2708.97548	0.94343
2706.92167	0.94356
2704.86786	0.94372
2702.81405	0.94405
2700.76024	0.94438
2698.70643	0.94447
2696.65262	0.94450
2694.59881	0.94470
2692.54500	0.94494
2690.49119	0.94508
2688.43738	0.94531
2686.38357	0.94565
2684.32976	0.94590
2682.27595	0.94594
2680.22214	0.94579
2678.16833	0.94549
2676.11452	0.94536
2674.06071	0.94549
2672.00690	0.94559
2669.95309	0.94547
2667.89928	0.94514
2665.84547	0.94474
2663.79166	0.94455
2661.73785	0.94455
2659.68404	0.94450
2657.63023	0.94445
2655.57642	0.94454
2653.52261	0.94475
2651.46880	0.94496
2649.41499	0.94508
2647.36118	0.94523
2645.30737	0.94537
2643.25356	0.94532
2641.19975	0.94508
2639.14594	0.94499
2637.09213	0.94516
2635.03832	0.94522
2632.98451	0.94511
2630.93070	0.94518
2628.87689	0.94559
2626.82308	0.94607
2624.76927	0.94641
2622.71546	0.94677
2620.66165	0.94706
2618.60784	0.94723
2616.55403	0.94767
2614.50022	0.94819
2612.44641	0.94847
2610.39260	0.94868
2608.33879	0.94883
2606.28498	0.94896
2604.23117	0.94917
2602.17736	0.94925
2600.12355	0.94931
2598.06974	0.94959
2596.01593	0.94990
2593.96212	0.95020
2591.90831	0.95048
2589.85450	0.95050
2587.80069	0.95038
2585.74688	0.95046
2583.69307	0.95079
2581.63926	0.95111
2579.58545	0.95131
2577.53164	0.95150
2575.47783	0.95164
2573.42402	0.95182
2571.37021	0.95207
2569.31640	0.95201
2567.26259	0.95161
2565.20878	0.95159
2563.15497	0.95221
2561.10116	0.95268
2559.04735	0.95272
2556.99354	0.95264
2554.93973	0.95241
2552.88592	0.95225
2550.83211	0.95262
2548.77830	0.95304
2546.72449	0.95297
2544.67068	0.95280
2542.61687	0.95281
2540.56306	0.95298
2538.50925	0.95317
2536.45544	0.95320
2534.40163	0.95312
2532.34782	0.95312
2530.29401	0.95317
2528.24020	0.95320
2526.18639	0.95324
2524.13258	0.95335
2522.07877	0.95340
2520.02496	0.95332
2517.97115	0.95332
2515.91734	0.95339
2513.86353	0.95340
2511.80972	0.95351
2509.75591	0.95381
2507.70210	0.95406
2505.64828	0.95419
2503.59447	0.95446
2501.54066	0.95457
2499.48685	0.95419
2497.43304	0.95375
2495.37923	0.95405
2493.32542	0.95498
2491.27161	0.95563
2489.21780	0.95554
2487.16399	0.95490
2485.11018	0.95444
2483.05637	0.95459
2481.00256	0.95486
2478.94875	0.95508
2476.89494	0.95531
2474.84113	0.95519
2472.78732	0.95501
2470.73351	0.95523
2468.67970	0.95555
2466.62589	0.95553
2464.57208	0.95541
2462.51827	0.95552
2460.46446	0.95565
2458.41065	0.95551
2456.35684	0.95524
2454.30303	0.95540
2452.24922	0.95589
2450.19541	0.95621
2448.14160	0.95628
2446.08779	0.95629
2444.03398	0.95618
2441.98017	0.95565
2439.92636	0.95518
2437.87255	0.95542
2435.81874	0.95578
2433.76493	0.95589
2431.71112	0.95600
2429.65731	0.95586
2427.60350	0.95546
2425.54969	0.95541
2423.49588	0.95575
2421.44207	0.95581
2419.38826	0.95555
2417.33445	0.95558
2415.28064	0.95572
2413.22683	0.95551
2411.17302	0.95537
2409.11921	0.95554
2407.06540	0.95578
2405.01159	0.95605
2402.95778	0.95635
2400.90397	0.95644
2398.85016	0.95616
2396.79635	0.95576
2394.74254	0.95565
2392.68873	0.95579
2390.63492	0.95591
2388.58111	0.95596
2386.52730	0.95586
2384.47349	0.95571
2382.41968	0.95576
2380.36587	0.95615
2378.31206	0.95671
2376.25825	0.95702
2374.20444	0.95674
2372.15063	0.95660
2370.09682	0.95730
2368.04301	0.95755
2365.98920	0.95674
2363.93539	0.95607
2361.88158	0.95580
2359.82777	0.95538
2357.77396	0.95474
2355.72015	0.95468
2353.66634	0.95530
2351.61253	0.95549
2349.55872	0.95515
2347.50491	0.95464
2345.45110	0.95430
2343.39729	0.95434
2341.34348	0.95397
2339.28967	0.95341
2337.23586	0.95364
2335.18205	0.95410
2333.12824	0.95409
2331.07443	0.95404
2329.02062	0.95385
2326.96681	0.95287
2324.91300	0.95215
2322.85919	0.95245
2320.80538	0.95311
2318.75157	0.95380
2316.69776	0.95456
2314.64395	0.95532
2312.59014	0.95575
2310.53633	0.95561
2308.48252	0.95539
2306.42871	0.95541
2304.37490	0.95542
2302.32109	0.95532
2300.26728	0.95508
2298.21347	0.95488
2296.15966	0.95481
2294.10585	0.95482
2292.05204	0.95477
2289.99823	0.95452
2287.94442	0.95445
2285.89061	0.95469
2283.83680	0.95539
2281.78299	0.95631
2279.72918	0.95643
2277.67537	0.95594
2275.62156	0.95562
2273.56775	0.95557
2271.51394	0.95578
2269.46013	0.95626
2267.40632	0.95666
2265.35251	0.95649
2263.29870	0.95630
2261.24489	0.95674
2259.19108	0.95745
2257.13727	0.95792
2255.08346	0.95787
2253.02965	0.95747
2250.97584	0.95717
2248.92203	0.95718
2246.86822	0.95725
2244.81441	0.95698
2242.76060	0.95660
2240.70679	0.95651
2238.65298	0.95694
2236.59917	0.95797
2234.54536	0.95872
2232.49155	0.95811
2230.43774	0.95672
2228.38393	0.95607
2226.33012	0.95612
2224.27631	0.95658
2222.22250	0.95794
2220.16869	0.95902
2218.11488	0.95861
2216.06107	0.95755
2214.00726	0.95737
2211.95344	0.95834
2209.89963	0.95912
2207.84582	0.95902
2205.79201	0.95884
2203.73820	0.95907
2201.68439	0.95888
2199.63058	0.95816
2197.57677	0.95775
2195.52296	0.95748
2193.46915	0.95704
2191.41534	0.95655
2189.36153	0.95604
2187.30772	0.95590
2185.25391	0.95689
2183.20010	0.95851
2181.14629	0.95957
2179.09248	0.95962
2177.03867	0.95912
2174.98486	0.95915
2172.93105	0.95902
2170.87724	0.95821
2168.82343	0.95771
2166.76962	0.95738
2164.71581	0.95716
2162.66200	0.95786
2160.60819	0.96012
2158.55438	0.96277
2156.50057	0.96335
2154.44676	0.96229
2152.39295	0.96127
2150.33914	0.96033
2148.28533	0.95977
2146.23152	0.95977
2144.17771	0.95964
2142.12390	0.95954
2140.07009	0.95985
2138.01628	0.96056
2135.96247	0.96124
2133.90866	0.96119
2131.85485	0.96047
2129.80104	0.95978
2127.74723	0.95928
2125.69342	0.95881
2123.63961	0.95859
2121.58580	0.95857
2119.53199	0.95866
2117.47818	0.95910
2115.42437	0.95956
2113.37056	0.95912
2111.31675	0.95809
2109.26294	0.95797
2107.20913	0.95885
2105.15532	0.95944
2103.10151	0.95937
2101.04770	0.95911
2098.99389	0.95921
2096.94008	0.95971
2094.88627	0.95962
2092.83246	0.95907
2090.77865	0.95891
2088.72484	0.95874
2086.67103	0.95845
2084.61722	0.95859
2082.56341	0.95848
2080.50960	0.95765
2078.45579	0.95708
2076.40198	0.95686
2074.34817	0.95687
2072.29436	0.95736
2070.24055	0.95820
2068.18674	0.95917
2066.13293	0.95966
2064.07912	0.95934
2062.02531	0.95901
2059.97150	0.95913
2057.91769	0.95933
2055.86388	0.95936
2053.81007	0.95868
2051.75626	0.95685
2049.70245	0.95559
2047.64864	0.95651
2045.59483	0.95810
2043.54102	0.95919
2041.48721	0.95959
2039.43340	0.95881
2037.37959	0.95852
2035.32578	0.95957
2033.27197	0.95961
2031.21816	0.95860
2029.16435	0.95942
2027.11054	0.96053
2025.05673	0.96011
2023.00292	0.96023
2020.94911	0.96042
2018.89530	0.95959
2016.84149	0.95910
2014.78768	0.95901
2012.73387	0.95810
2010.68006	0.95692
2008.62625	0.95768
2006.57244	0.96056
2004.51863	0.96215
2002.46482	0.96092
2000.41101	0.95938
1998.35720	0.95929
1996.30339	0.96030
1994.24958	0.96143
1992.19577	0.96153
1990.14196	0.96027
1988.08815	0.95905
1986.03434	0.95864
1983.98053	0.95881
1981.92672	0.95917
1979.87291	0.95865
1977.81910	0.95775
1975.76529	0.95810
1973.71148	0.95945
1971.65767	0.96019
1969.60386	0.95925
1967.55005	0.95879
1965.49624	0.96045
1963.44243	0.96197
1961.38862	0.96245
1959.33481	0.96287
1957.28100	0.96281
1955.22719	0.96107
1953.17338	0.95936
1951.11957	0.95987
1949.06576	0.96070
1947.01195	0.96036
1944.95814	0.95954
1942.90433	0.95849
1940.85052	0.95769
1938.79671	0.95762
1936.74290	0.95810
1934.68909	0.95878
1932.63528	0.95926
1930.58147	0.95915
1928.52766	0.95887
1926.47385	0.95888
1924.42004	0.95863
1922.36623	0.95812
1920.31242	0.95740
1918.25861	0.95680
1916.20479	0.95757
1914.15098	0.95931
1912.09717	0.96074
1910.04336	0.96078
1907.98955	0.95927
1905.93574	0.95800
1903.88193	0.95776
1901.82812	0.95807
1899.77431	0.95835
1897.72050	0.95830
1895.66669	0.95827
1893.61288	0.95838
1891.55907	0.95843
1889.50526	0.95794
1887.45145	0.95742
1885.39764	0.95760
1883.34383	0.95799
1881.29002	0.95852
1879.23621	0.95918
1877.18240	0.95931
1875.12859	0.95889
1873.07478	0.95862
1871.02097	0.95858
1868.96716	0.95829
1866.91335	0.95792
1864.85954	0.95783
1862.80573	0.95805
1860.75192	0.95824
1858.69811	0.95814
1856.64430	0.95793
1854.59049	0.95779
1852.53668	0.95778
1850.48287	0.95799
1848.42906	0.95827
1846.37525	0.95846
1844.32144	0.95858
1842.26763	0.95846
1840.21382	0.95811
1838.16001	0.95780
1836.10620	0.95770
1834.05239	0.95787
1831.99858	0.95816
1829.94477	0.95814
1827.89096	0.95759
1825.83715	0.95703
1823.78334	0.95697
1821.72953	0.95723
1819.67572	0.95742
1817.62191	0.95742
1815.56810	0.95707
1813.51429	0.95668
1811.46048	0.95644
1809.40667	0.95621
1807.35286	0.95607
1805.29905	0.95592
1803.24524	0.95573
1801.19143	0.95544
1799.13762	0.95496
1797.08381	0.95466
1795.03000	0.95463
1792.97619	0.95452
1790.92238	0.95412
1788.86857	0.95359
1786.81476	0.95307
1784.76095	0.95272
1782.70714	0.95269
1780.65333	0.95293
1778.59952	0.95309
1776.54571	0.95302
1774.49190	0.95306
1772.43809	0.95323
1770.38428	0.95306
1768.33047	0.95271
1766.27666	0.95251
1764.22285	0.95250
1762.16904	0.95243
1760.11523	0.95220
1758.06142	0.95182
1756.00761	0.95120
1753.95380	0.95058
1751.89999	0.95008
1749.84618	0.94942
1747.79237	0.94870
1745.73856	0.94796
1743.68475	0.94679
1741.63094	0.94527
1739.57713	0.94403
1737.52332	0.94361
1735.46951	0.94364
1733.41570	0.94335
1731.36189	0.94274
1729.30808	0.94219
1727.25427	0.94155
1725.20046	0.94050
1723.14665	0.93901
1721.09284	0.93755
1719.03903	0.93604
1716.98522	0.93441
1714.93141	0.93368
1712.87760	0.93365
1710.82379	0.93387
1708.76998	0.93449
1706.71617	0.93550
1704.66236	0.93666
1702.60855	0.93758
1700.55474	0.93825
1698.50093	0.93876
1696.44712	0.93923
1694.39331	0.93982
1692.33950	0.94051
1690.28569	0.94104
1688.23188	0.94127
1686.17807	0.94119
1684.12426	0.94072
1682.07045	0.94047
1680.01664	0.94059
1677.96283	0.94067
1675.90902	0.94041
1673.85521	0.93983
1671.80140	0.93940
1669.74759	0.93888
1667.69378	0.93843
1665.63997	0.93845
1663.58616	0.93841
1661.53235	0.93798
1659.47854	0.93752
1657.42473	0.93727
1655.37092	0.93703
1653.31711	0.93652
1651.26330	0.93650
1649.20949	0.93684
1647.15568	0.93664
1645.10187	0.93619
1643.04806	0.93616
1640.99425	0.93624
1638.94044	0.93620
1636.88663	0.93628
1634.83282	0.93682
1632.77901	0.93754
1630.72520	0.93801
1628.67139	0.93807
1626.61758	0.93817
1624.56377	0.93864
1622.50996	0.93913
1620.45614	0.93967
1618.40233	0.94022
1616.34852	0.94041
1614.29471	0.94048
1612.24090	0.94078
1610.18709	0.94093
1608.13328	0.94096
1606.07947	0.94117
1604.02566	0.94141
1601.97185	0.94131
1599.91804	0.94112
1597.86423	0.94120
1595.81042	0.94134
1593.75661	0.94146
1591.70280	0.94163
1589.64899	0.94162
1587.59518	0.94146
1585.54137	0.94132
1583.48756	0.94106
1581.43375	0.94078
1579.37994	0.94059
1577.32613	0.94039
1575.27232	0.93996
1573.21851	0.93955
1571.16470	0.93909
1569.11089	0.93832
1567.05708	0.93775
1565.00327	0.93751
1562.94946	0.93726
1560.89565	0.93666
1558.84184	0.93497
1556.78803	0.93346
1554.73422	0.93258
1552.68041	0.93114
1550.62660	0.92939
1548.57279	0.92773
1546.51898	0.92609
1544.46517	0.92405
1542.41136	0.92187
1540.35755	0.91902
1538.30374	0.91589
1536.24993	0.91420
1534.19612	0.91239
1532.14231	0.90983
1530.08850	0.90769
1528.03469	0.90585
1525.98088	0.90399
1523.92707	0.90243
1521.87326	0.90021
1519.81945	0.89758
1517.76564	0.89583
1515.71183	0.89451
1513.65802	0.89338
1511.60421	0.89229
1509.55040	0.89116
1507.49659	0.88932
1505.44278	0.88698
1503.38897	0.88599
1501.33516	0.88539
1499.28135	0.88431
1497.22754	0.88267
1495.17373	0.88101
1493.11992	0.88000
1491.06611	0.87898
1489.01230	0.87748
1486.95849	0.87637
1484.90468	0.87573
1482.85087	0.87473
1480.79706	0.87241
1478.74325	0.86542
1476.68944	0.84267
1474.63563	0.79369
1472.58182	0.74420
1470.52801	0.74264
1468.47420	0.76673
1466.42039	0.78037
1464.36658	0.77182
1462.31277	0.76273
1460.25896	0.77603
1458.20515	0.80732
1456.15134	0.83659
1454.09753	0.85007
1452.04372	0.85789
1449.98991	0.86451
1447.93610	0.87014
1445.88229	0.87461
1443.82848	0.87785
1441.77467	0.88047
1439.72086	0.88281
1437.66705	0.88514
1435.61324	0.88745
1433.55943	0.88921
1431.50562	0.89079
1429.45181	0.89271
1427.39800	0.89485
1425.34419	0.89691
1423.29038	0.89877
1421.23657	0.90032
1419.18276	0.90193
1417.12895	0.90371
1415.07514	0.90547
1413.02133	0.90736
1410.96752	0.90942
1408.91371	0.91162
1406.85990	0.91392
1404.80609	0.91636
1402.75228	0.91863
1400.69847	0.92064
1398.64466	0.92249
1396.59085	0.92399
1394.53704	0.92517
1392.48323	0.92630
1390.42942	0.92740
1388.37561	0.92830
1386.32180	0.92888
1384.26799	0.92911
1382.21418	0.92912
1380.16037	0.92906
1378.10656	0.92899
1376.05275	0.92875
1373.99894	0.92841
1371.94513	0.92827
1369.89132	0.92843
1367.83751	0.92889
1365.78370	0.92957
1363.72989	0.93034
1361.67608	0.93105
1359.62227	0.93159
1357.56846	0.93193
1355.51465	0.93217
1353.46084	0.93238
1351.40703	0.93261
1349.35322	0.93285
1347.29941	0.93318
1345.24560	0.93367
1343.19179	0.93431
1341.13798	0.93501
1339.08417	0.93566
1337.03036	0.93620
1334.97655	0.93657
1332.92274	0.93687
1330.86893	0.93714
1328.81512	0.93728
1326.76130	0.93731
1324.70749	0.93730
1322.65368	0.93711
1320.59987	0.93690
1318.54606	0.93683
1316.49225	0.93658
1314.43844	0.93616
1312.38463	0.93580
1310.33082	0.93551
1308.27701	0.93524
1306.22320	0.93504
1304.16939	0.93495
1302.11558	0.93483
1300.06177	0.93465
1298.00796	0.93460
1295.95415	0.93464
1293.90034	0.93468
1291.84653	0.93487
1289.79272	0.93513
1287.73891	0.93525
1285.68510	0.93535
1283.63129	0.93548
1281.57748	0.93550
1279.52367	0.93542
1277.46986	0.93522
1275.41605	0.93497
1273.36224	0.93485
1271.30843	0.93482
1269.25462	0.93464
1267.20081	0.93434
1265.14700	0.93427
1263.09319	0.93434
1261.03938	0.93434
1258.98557	0.93434
1256.93176	0.93422
1254.87795	0.93404
1252.82414	0.93393
1250.77033	0.93372
1248.71652	0.93346
1246.66271	0.93339
1244.60890	0.93340
1242.55509	0.93333
1240.50128	0.93330
1238.44747	0.93338
1236.39366	0.93342
1234.33985	0.93339
1232.28604	0.93341
1230.23223	0.93344
1228.17842	0.93334
1226.12461	0.93308
1224.07080	0.93295
1222.01699	0.93312
1219.96318	0.93324
1217.90937	0.93306
1215.85556	0.93276
1213.80175	0.93262
1211.74794	0.93263
1209.69413	0.93263
1207.64032	0.93241
1205.58651	0.93203
1203.53270	0.93176
1201.47889	0.93166
1199.42508	0.93152
1197.37127	0.93115
1195.31746	0.93063
1193.26365	0.93023
1191.20984	0.93004
1189.15603	0.92992
1187.10222	0.92959
1185.04841	0.92890
1182.99460	0.92812
1180.94079	0.92742
1178.88698	0.92669
1176.83317	0.92601
1174.77936	0.92550
1172.72555	0.92503
1170.67174	0.92446
1168.61793	0.92389
1166.56412	0.92337
1164.51031	0.92289
1162.45650	0.92249
1160.40269	0.92234
1158.34888	0.92232
1156.29507	0.92201
1154.24126	0.92140
1152.18745	0.92088
1150.13364	0.92060
1148.07983	0.92011
1146.02602	0.91914
1143.97221	0.91812
1141.91840	0.91722
1139.86459	0.91630
1137.81078	0.91540
1135.75697	0.91427
1133.70316	0.91261
1131.64935	0.91057
1129.59554	0.90853
1127.54173	0.90663
1125.48792	0.90478
1123.43411	0.90301
1121.38030	0.90108
1119.32649	0.89901
1117.27268	0.89721
1115.21887	0.89537
1113.16506	0.89320
1111.11125	0.89122
1109.05744	0.88965
1107.00363	0.88814
1104.94982	0.88645
1102.89601	0.88458
1100.84220	0.88275
1098.78839	0.88130
1096.73458	0.88012
1094.68077	0.87892
1092.62696	0.87773
1090.57315	0.87634
1088.51934	0.87452
1086.46553	0.87257
1084.41172	0.87072
1082.35791	0.86942
1080.30410	0.86875
1078.25029	0.86794
1076.19648	0.86696
1074.14267	0.86609
1072.08886	0.86516
1070.03505	0.86425
1067.98124	0.86349
1065.92743	0.86261
1063.87362	0.86130
1061.81981	0.85976
1059.76600	0.85827
1057.71219	0.85644
1055.65838	0.85404
1053.60457	0.85147
1051.55076	0.84894
1049.49695	0.84650
1047.44314	0.84421
1045.38933	0.84210
1043.33552	0.84027
1041.28171	0.83880
1039.22790	0.83782
1037.17409	0.83727
1035.12028	0.83702
1033.06647	0.83722
1031.01265	0.83785
1028.95884	0.83869
1026.90503	0.83978
1024.85122	0.84107
1022.79741	0.84238
1020.74360	0.84370
1018.68979	0.84509
1016.63598	0.84651
1014.58217	0.84798
1012.52836	0.84956
1010.47455	0.85128
1008.42074	0.85332
1006.36693	0.85590
1004.31312	0.85895
1002.25931	0.86219
1000.20550	0.86556
998.15169	0.86909
996.09788	0.87252
994.04407	0.87564
991.99026	0.87865
989.93645	0.88173
987.88264	0.88495
985.82883	0.88845
983.77502	0.89208
981.72121	0.89529
979.66740	0.89793
977.61359	0.90035
975.55978	0.90283
973.50597	0.90519
971.45216	0.90725
969.39835	0.90902
967.34454	0.91060
965.29073	0.91194
963.23692	0.91312
961.18311	0.91427
959.12930	0.91540
957.07549	0.91661
955.02168	0.91777
952.96787	0.91837
950.91406	0.91862
948.86025	0.91896
946.80644	0.91937
944.75263	0.91987
942.69882	0.92032
940.64501	0.92045
938.59120	0.92054
936.53739	0.92078
934.48358	0.92096
932.42977	0.92117
930.37596	0.92133
928.32215	0.92107
926.26834	0.92047
924.21453	0.91985
922.16072	0.91930
920.10691	0.91868
918.05310	0.91790
915.99929	0.91704
913.94548	0.91614
911.89167	0.91502
909.83786	0.91422
907.78405	0.91480
905.73024	0.91679
903.67643	0.91934
901.62262	0.92200
899.56881	0.92428
897.51500	0.92586
895.46119	0.92696
893.40738	0.92772
891.35357	0.92811
889.29976	0.92827
887.24595	0.92821
885.19214	0.92744
883.13833	0.92568
881.08452	0.92307
879.03071	0.92027
876.97690	0.91848
874.92309	0.91844
872.86928	0.92037
870.81547	0.92342
868.76166	0.92539
866.70785	0.92439
864.65404	0.92091
862.60023	0.91710
860.54642	0.91430
858.49261	0.91288
856.43880	0.91355
854.38499	0.91721
852.33118	0.92325
850.27737	0.92879
848.22356	0.93166
846.16975	0.93223
844.11594	0.93212
842.06213	0.93247
840.00832	0.93308
837.95451	0.93327
835.90070	0.93297
833.84689	0.93281
831.79308	0.93310
829.73927	0.93369
827.68546	0.93428
825.63165	0.93437
823.57784	0.93402
821.52403	0.93377
819.47022	0.93373
817.41641	0.93379
815.36260	0.93403
813.30879	0.93415
811.25498	0.93396
809.20117	0.93357
807.14736	0.93297
805.09355	0.93222
803.03974	0.93134
800.98593	0.93055
798.93212	0.93015
796.87831	0.93035
794.82450	0.93114
792.77069	0.93196
790.71688	0.93243
788.66307	0.93246
786.60926	0.93219
784.55545	0.93213
782.50164	0.93230
780.44783	0.93234
778.39402	0.93219
776.34021	0.93204
774.28640	0.93199
772.23259	0.93238
770.17878	0.93317
768.12497	0.93379
766.07116	0.93381
764.01735	0.93334
761.96354	0.93298
759.90973	0.93296
757.85592	0.93302
755.80211	0.93312
753.74830	0.93289
751.69449	0.93238
749.64068	0.93191
747.58687	0.93137
745.53306	0.93109
743.47925	0.93091
741.42544	0.93003
739.37163	0.92800
737.31781	0.92337
735.26400	0.90907
733.21019	0.87500
731.15638	0.83585
729.10257	0.82705
727.04876	0.84635
724.99495	0.85768
722.94114	0.83866
720.88733	0.79056
718.83352	0.74710
716.77971	0.74637
714.72590	0.78338
712.67209	0.82880
710.61828	0.86215
708.56447	0.88095
706.51066	0.89145
704.45685	0.89774
702.40304	0.90123
700.34923	0.90379
698.29542	0.90643
696.24161	0.90807
694.18780	0.90875
692.13399	0.90955
690.08018	0.91018
688.02637	0.91047
685.97256	0.91100
683.91875	0.91197
681.86494	0.91293
679.81113	0.91368
677.75732	0.91448
675.70351	0.91530
673.64970	0.91578
671.59589	0.91602
669.54208	0.91664
667.48827	0.91711
665.43446	0.91704
663.38065	0.91722
661.32684	0.91699
659.27303	0.91652
657.21922	0.91693
655.16541	0.91767
653.11160	0.91819
651.05779	0.91842
649.00398	0.91814
646.95017	0.91773
644.89636	0.91713
642.84255	0.91656
640.78874	0.91647
638.73493	0.91641
636.68112	0.91642
634.62731	0.91640
632.57350	0.91557
630.51969	0.91450
628.46588	0.91450
626.41207	0.91537
624.35826	0.91574
622.30445	0.91541
620.25064	0.91524
618.19683	0.91463
616.14302	0.91372
614.08921	0.91388
612.03540	0.91475
609.98159	0.91526
607.92778	0.91482
605.87397	0.91362
603.82016	0.91304
601.76635	0.91338
599.71254	0.91352
597.65873	0.91262
595.60492	0.91094
593.55111	0.90987
591.49730	0.90954
589.44349	0.90869
587.38968	0.90777
585.33587	0.90698
583.28206	0.90499
581.22825	0.90227
579.17444	0.90029
577.12063	0.89941
575.06682	0.89932
573.01301	0.89885
570.95920	0.89770
568.90539	0.89686
566.85158	0.89637
564.79777	0.89552
562.74396	0.89435
560.69015	0.89304
558.63634	0.89136
556.58253	0.89022
554.52872	0.89063
552.47491	0.89090
550.42110	0.88937
548.36729	0.88777
546.31348	0.88698
544.25967	0.88601
542.20586	0.88466
540.15205	0.88308
538.09824	0.88163
536.04443	0.88005
533.99062	0.87809
531.93681	0.87749
529.88300	0.87901
527.82919	0.88007
525.77538	0.87948
523.72157	0.87970
521.66776	0.88188
519.61395	0.88420
517.56014	0.88467
515.50633	0.88462
513.45252	0.88643
511.39871	0.88921
509.34490	0.89080
507.29109	0.89088
505.23728	0.89047
503.18347	0.89010
501.12966	0.89028
499.07585	0.89130
497.02204	0.89198
494.96823	0.89163
492.91442	0.89146
490.86061	0.89205
488.80680	0.89140
486.75299	0.88852
484.69918	0.88528
482.64537	0.88286
480.59156	0.88063
478.53775	0.87674
476.48394	0.87016
474.43013	0.86358
472.37632	0.85928
470.32251	0.85706
468.26870	0.85646
466.21489	0.85844
464.16108	0.86411
462.10727	0.87030
460.05346	0.87337
457.99965	0.87561
455.94584	0.87992
453.89203	0.88480
451.83822	0.88786
449.78441	0.88872
447.73060	0.88930
445.67679	0.88988
443.62298	0.88942
441.56916	0.88973
439.51535	0.89136
437.46154	0.89095
435.40773	0.88888
433.35392	0.88913
431.30011	0.89099
429.24630	0.89134
427.19249	0.89091
425.13868	0.89129
423.08487	0.89164
421.03106	0.89239
418.97725	0.89481
416.92344	0.89718
414.86963	0.89901
412.81582	0.90083
410.76201	0.90163
408.70820	0.90159
406.65439	0.90180
404.60058	0.90241
402.54677	0.90547
400.49296	0.91223
398.43915	0.91816
