3996.70104	0.98217
3994.64724	0.98185
3992.59344	0.98166
3990.53964	0.98124
3988.48583	0.98148
3986.43203	0.98240
3984.37823	0.98290
3982.32442	0.98301
3980.27062	0.98315
3978.21682	0.98323
3976.16301	0.98331
3974.10921	0.98355
3972.05541	0.98363
3970.00160	0.98314
3967.94780	0.98249
3965.89400	0.98234
3963.84019	0.98250
3961.78639	0.98278
3959.73259	0.98313
3957.67878	0.98330
3955.62498	0.98341
3953.57118	0.98343
3951.51737	0.98300
3949.46357	0.98267
3947.40977	0.98304
3945.35596	0.98342
3943.30216	0.98334
3941.24836	0.98276
3939.19455	0.98206
3937.14075	0.98209
3935.08695	0.98278
3933.03315	0.98330
3930.97934	0.98319
3928.92554	0.98276
3926.87174	0.98249
3924.81793	0.98271
3922.76413	0.98332
3920.71033	0.98353
3918.65652	0.98327
3916.60272	0.98311
3914.54892	0.98313
3912.49511	0.98314
3910.44131	0.98303
3908.38751	0.98287
3906.33370	0.98273
3904.27990	0.98263
3902.22610	0.98294
3900.17229	0.98375
3898.11849	0.98424
3896.06469	0.98387
3894.01088	0.98325
3891.95708	0.98298
3889.90328	0.98262
3887.84947	0.98182
3885.79567	0.98125
3883.74187	0.98142
3881.68807	0.98196
3879.63426	0.98274
3877.58046	0.98281
3875.52666	0.98216
3873.47285	0.98178
3871.41905	0.98211
3869.36525	0.98320
3867.31144	0.98369
3865.25764	0.98274
3863.20384	0.98164
3861.15003	0.98173
3859.09623	0.98208
3857.04243	0.98181
3854.98862	0.98146
3852.93482	0.98234
3850.88102	0.98365
3848.82721	0.98398
3846.77341	0.98382
3844.71961	0.98358
3842.66580	0.98321
3840.61200	0.98310
3838.55820	0.98410
3836.50439	0.98497
3834.45059	0.98454
3832.39679	0.98403
3830.34298	0.98357
3828.28918	0.98318
3826.23538	0.98383
3824.18158	0.98498
3822.12777	0.98537
3820.07397	0.98489
3818.02017	0.98410
3815.96636	0.98347
3813.91256	0.98321
3811.85876	0.98340
3809.80495	0.98386
3807.75115	0.98416
3805.69735	0.98389
3803.64354	0.98318
3801.58974	0.98295
3799.53594	0.98323
3797.48213	0.98300
3795.42833	0.98293
3793.37453	0.98320
3791.32072	0.98300
3789.26692	0.98283
3787.21312	0.98325
3785.15931	0.98331
3783.10551	0.98311
3781.05171	0.98366
3778.99790	0.98423
3776.94410	0.98402
3774.89030	0.98385
3772.83650	0.98386
3770.78269	0.98393
3768.72889	0.98470
3766.67509	0.98535
3764.62128	0.98477
3762.56748	0.98391
3760.51368	0.98376
3758.45987	0.98373
3756.40607	0.98322
3754.35227	0.98284
3752.29846	0.98309
3750.24466	0.98361
3748.19086	0.98358
3746.13705	0.98355
3744.08325	0.98415
3742.02945	0.98454
3739.97564	0.98394
3737.92184	0.98318
3735.86804	0.98347
3733.81423	0.98480
3731.76043	0.98499
3729.70663	0.98398
3727.65282	0.98340
3725.59902	0.98382
3723.54522	0.98456
3721.49141	0.98484
3719.43761	0.98448
3717.38381	0.98409
3715.33001	0.98408
3713.27620	0.98422
3711.22240	0.98430
3709.16860	0.98391
3707.11479	0.98286
3705.06099	0.98136
3703.00719	0.97993
3700.95338	0.97937
3698.89958	0.97919
3696.84578	0.97897
3694.79197	0.97882
3692.73817	0.97889
3690.68437	0.97948
3688.63056	0.97970
3686.57676	0.97941
3684.52296	0.97993
3682.46915	0.98104
3680.41535	0.98160
3678.36155	0.98142
3676.30774	0.98118
3674.25394	0.98069
3672.20014	0.97974
3670.14633	0.97948
3668.09253	0.98040
3666.03873	0.98062
3663.98492	0.98026
3661.93112	0.98039
3659.87732	0.98046
3657.82352	0.97965
3655.76971	0.97878
3653.71591	0.97862
3651.66211	0.97867
3649.60830	0.97900
3647.55450	0.97957
3645.50070	0.97955
3643.44689	0.97949
3641.39309	0.97951
3639.33929	0.97920
3637.28548	0.97877
3635.23168	0.97836
3633.17788	0.97781
3631.12407	0.97753
3629.07027	0.97849
3627.01647	0.97934
3624.96266	0.97881
3622.90886	0.97813
3620.85506	0.97733
3618.80125	0.97649
3616.74745	0.97616
3614.69365	0.97673
3612.63984	0.97822
3610.58604	0.97907
3608.53224	0.97909
3606.47844	0.97969
3604.42463	0.98009
3602.37083	0.97942
3600.31703	0.97854
3598.26322	0.97808
3596.20942	0.97806
3594.15562	0.97844
3592.10181	0.97889
3590.04801	0.97907
3587.99421	0.97912
3585.94040	0.97924
3583.88660	0.97888
3581.83280	0.97821
3579.77899	0.97796
3577.72519	0.97807
3575.67139	0.97784
3573.61758	0.97741
3571.56378	0.97729
3569.50998	0.97694
3567.45617	0.97573
3565.40237	0.97451
3563.34857	0.97438
3561.29476	0.97458
3559.24096	0.97455
3557.18716	0.97498
3555.13335	0.97592
3553.07955	0.97641
3551.02575	0.97604
3548.97195	0.97534
3546.91814	0.97491
3544.86434	0.97522
3542.81054	0.97582
3540.75673	0.97576
3538.70293	0.97518
3536.64913	0.97472
3534.59532	0.97466
3532.54152	0.97477
3530.48772	0.97498
3528.43391	0.97560
3526.38011	0.97606
3524.32631	0.97539
3522.27250	0.97426
3520.21870	0.97398
3518.16490	0.97420
3516.11109	0.97423
3514.05729	0.97416
3512.00349	0.97396
3509.94968	0.97381
3507.89588	0.97404
3505.84208	0.97449
3503.78827	0.97476
3501.73447	0.97486
3499.68067	0.97494
3497.62687	0.97471
3495.57306	0.97433
3493.51926	0.97436
3491.46546	0.97443
3489.41165	0.97412
3487.35785	0.97385
3485.30405	0.97381
3483.25024	0.97384
3481.19644	0.97392
3479.14264	0.97379
3477.08883	0.97354
3475.03503	0.97368
3472.98123	0.97418
3470.92742	0.97429
3468.87362	0.97362
3466.81982	0.97281
3464.76601	0.97228
3462.71221	0.97183
3460.65841	0.97183
3458.60460	0.97237
3456.55080	0.97259
3454.49700	0.97206
3452.44319	0.97131
3450.38939	0.97108
3448.33559	0.97125
3446.28178	0.97104
3444.22798	0.97072
3442.17418	0.97093
3440.12038	0.97112
3438.06657	0.97113
3436.01277	0.97130
3433.95897	0.97125
3431.90516	0.97100
3429.85136	0.97077
3427.79756	0.97069
3425.74375	0.97092
3423.68995	0.97109
3421.63615	0.97087
3419.58234	0.97076
3417.52854	0.97103
3415.47474	0.97099
3413.42093	0.97032
3411.36713	0.96948
3409.31333	0.96918
3407.25952	0.96933
3405.20572	0.96938
3403.15192	0.96926
3401.09811	0.96884
3399.04431	0.96823
3396.99051	0.96762
3394.93670	0.96727
3392.88290	0.96731
3390.82910	0.96737
3388.77529	0.96736
3386.72149	0.96760
3384.66769	0.96795
3382.61389	0.96814
3380.56008	0.96819
3378.50628	0.96821
3376.45248	0.96831
3374.39867	0.96870
3372.34487	0.96913
3370.29107	0.96889
3368.23726	0.96819
3366.18346	0.96788
3364.12966	0.96785
3362.07585	0.96791
3360.02205	0.96821
3357.96825	0.96845
3355.91444	0.96835
3353.86064	0.96827
3351.80684	0.96876
3349.75303	0.96917
3347.69923	0.96876
3345.64543	0.96827
3343.59162	0.96859
3341.53782	0.96935
3339.48402	0.96950
3337.43021	0.96903
3335.37641	0.96860
3333.32261	0.96832
3331.26881	0.96827
3329.21500	0.96834
3327.16120	0.96829
3325.10740	0.96811
3323.05359	0.96818
3320.99979	0.96851
3318.94599	0.96858
3316.89218	0.96860
3314.83838	0.96888
3312.78458	0.96917
3310.73077	0.96948
3308.67697	0.96960
3306.62317	0.96934
3304.56936	0.96905
3302.51556	0.96887
3300.46176	0.96899
3298.40795	0.96934
3296.35415	0.96932
3294.30035	0.96890
3292.24654	0.96887
3290.19274	0.96923
3288.13894	0.96935
3286.08513	0.96934
3284.03133	0.96942
3281.97753	0.96956
3279.92372	0.96967
3277.86992	0.96941
3275.81612	0.96908
3273.76232	0.96913
3271.70851	0.96919
3269.65471	0.96911
3267.60091	0.96908
3265.54710	0.96930
3263.49330	0.96961
3261.43950	0.96958
3259.38569	0.96922
3257.33189	0.96897
3255.27809	0.96902
3253.22428	0.96939
3251.17048	0.96991
3249.11668	0.97016
3247.06287	0.97007
3245.00907	0.96980
3242.95527	0.96955
3240.90146	0.96965
3238.84766	0.97017
3236.79386	0.97049
3234.74005	0.97026
3232.68625	0.96997
3230.63245	0.96993
3228.57864	0.97020
3226.52484	0.97053
3224.47104	0.97050
3222.41724	0.97019
3220.36343	0.96996
3218.30963	0.96975
3216.25583	0.96954
3214.20202	0.96964
3212.14822	0.96993
3210.09442	0.96992
3208.04061	0.96954
3205.98681	0.96943
3203.93301	0.96963
3201.87920	0.96955
3199.82540	0.96949
3197.77160	0.96994
3195.71779	0.97030
3193.66399	0.96998
3191.61019	0.96937
3189.55638	0.96918
3187.50258	0.96947
3185.44878	0.96981
3183.39497	0.97037
3181.34117	0.97095
3179.28737	0.97090
3177.23356	0.97073
3175.17976	0.97089
3173.12596	0.97107
3171.07215	0.97133
3169.01835	0.97156
3166.96455	0.97159
3164.91075	0.97162
3162.85694	0.97152
3160.80314	0.97152
3158.74934	0.97201
3156.69553	0.97257
3154.64173	0.97276
3152.58793	0.97286
3150.53412	0.97310
3148.48032	0.97306
3146.42652	0.97254
3144.37271	0.97208
3142.31891	0.97209
3140.26511	0.97211
3138.21130	0.97193
3136.15750	0.97215
3134.10370	0.97292
3132.04989	0.97351
3129.99609	0.97350
3127.94229	0.97332
3125.88848	0.97342
3123.83468	0.97362
3121.78088	0.97365
3119.72707	0.97393
3117.67327	0.97438
3115.61947	0.97449
3113.56566	0.97455
3111.51186	0.97461
3109.45806	0.97462
3107.40426	0.97464
3105.35045	0.97453
3103.29665	0.97436
3101.24285	0.97413
3099.18904	0.97399
3097.13524	0.97426
3095.08144	0.97461
3093.02763	0.97444
3090.97383	0.97400
3088.92003	0.97393
3086.86622	0.97410
3084.81242	0.97416
3082.75862	0.97438
3080.70481	0.97493
3078.65101	0.97534
3076.59721	0.97533
3074.54340	0.97511
3072.48960	0.97486
3070.43580	0.97477
3068.38199	0.97476
3066.32819	0.97454
3064.27439	0.97432
3062.22058	0.97436
3060.16678	0.97462
3058.11298	0.97490
3056.05918	0.97513
3054.00537	0.97555
3051.95157	0.97610
3049.89777	0.97602
3047.84396	0.97554
3045.79016	0.97546
3043.73636	0.97556
3041.68255	0.97549
3039.62875	0.97540
3037.57495	0.97547
3035.52114	0.97583
3033.46734	0.97637
3031.41354	0.97644
3029.35973	0.97568
3027.30593	0.97492
3025.25213	0.97472
3023.19832	0.97470
3021.14452	0.97478
3019.09072	0.97479
3017.03691	0.97462
3014.98311	0.97467
3012.92931	0.97466
3010.87550	0.97408
3008.82170	0.97348
3006.76790	0.97345
3004.71409	0.97350
3002.66029	0.97303
3000.60649	0.97246
2998.55269	0.97219
2996.49888	0.97183
2994.44508	0.97109
2992.39128	0.97022
2990.33747	0.96909
2988.28367	0.96723
2986.22987	0.96485
2984.17606	0.96221
2982.12226	0.95882
2980.06846	0.95420
2978.01465	0.94846
2975.96085	0.94157
2973.90705	0.93285
2971.85324	0.92162
2969.79944	0.90767
2967.74564	0.89145
2965.69183	0.87371
2963.63803	0.85604
2961.58423	0.84143
2959.53042	0.83176
2957.47662	0.82543
2955.42282	0.81903
2953.36901	0.81064
2951.31521	0.80263
2949.26141	0.80112
2947.20761	0.81005
2945.15380	0.82689
2943.10000	0.84527
2941.04620	0.85936
2938.99239	0.86570
2936.93859	0.86402
2934.88479	0.85592
2932.83098	0.84306
2930.77718	0.82671
2928.72338	0.80829
2926.66957	0.78944
2924.61577	0.77094
2922.56197	0.75319
2920.50816	0.73732
2918.45436	0.72595
2916.40056	0.72292
2914.34675	0.72971
2912.29295	0.74339
2910.23915	0.75878
2908.18534	0.77233
2906.13154	0.78402
2904.07774	0.79526
2902.02393	0.80682
2899.97013	0.81845
2897.91633	0.82973
2895.86252	0.83989
2893.80872	0.84778
2891.75492	0.85343
2889.70112	0.85732
2887.64731	0.85958
2885.59351	0.86064
2883.53971	0.86055
2881.48590	0.85904
2879.43210	0.85684
2877.37830	0.85549
2875.32449	0.85523
2873.27069	0.85477
2871.21689	0.85323
2869.16308	0.85100
2867.10928	0.85020
2865.05548	0.85450
2863.00167	0.86490
2860.94787	0.87699
2858.89407	0.88538
2856.84026	0.88793
2854.78646	0.88483
2852.73266	0.87762
2850.67885	0.87039
2848.62505	0.86712
2846.57125	0.86658
2844.51744	0.86435
2842.46364	0.85861
2840.40984	0.85174
2838.35603	0.84902
2836.30223	0.85488
2834.24843	0.86929
2832.19463	0.88809
2830.14082	0.90598
2828.08702	0.91963
2826.03322	0.92871
2823.97941	0.93456
2821.92561	0.93902
2819.87181	0.94291
2817.81800	0.94590
2815.76420	0.94816
2813.71040	0.95019
2811.65659	0.95186
2809.60279	0.95308
2807.54899	0.95429
2805.49518	0.95565
2803.44138	0.95697
2801.38758	0.95814
2799.33377	0.95916
2797.27997	0.95987
2795.22617	0.96024
2793.17236	0.96082
2791.11856	0.96176
2789.06476	0.96270
2787.01095	0.96370
2784.95715	0.96473
2782.90335	0.96544
2780.84955	0.96580
2778.79574	0.96633
2776.74194	0.96686
2774.68814	0.96689
2772.63433	0.96690
2770.58053	0.96752
2768.52673	0.96833
2766.47292	0.96868
2764.41912	0.96883
2762.36532	0.96906
2760.31151	0.96928
2758.25771	0.96946
2756.20391	0.96961
2754.15010	0.96977
2752.09630	0.96984
2750.04250	0.96996
2747.98869	0.97022
2745.93489	0.97024
2743.88109	0.97006
2741.82728	0.96977
2739.77348	0.96926
2737.71968	0.96884
2735.66587	0.96870
2733.61207	0.96855
2731.55827	0.96809
2729.50446	0.96762
2727.45066	0.96716
2725.39686	0.96644
2723.34306	0.96594
2721.28925	0.96615
2719.23545	0.96677
2717.18165	0.96742
2715.12784	0.96808
2713.07404	0.96859
2711.02024	0.96884
2708.96643	0.96928
2706.91263	0.96997
2704.85883	0.97047
2702.80502	0.97085
2700.75122	0.97124
2698.69742	0.97156
2696.64361	0.97169
2694.58981	0.97153
2692.53601	0.97126
2690.48220	0.97111
2688.42840	0.97117
2686.37460	0.97131
2684.32079	0.97143
2682.26699	0.97136
2680.21319	0.97111
2678.15938	0.97102
2676.10558	0.97097
2674.05178	0.97080
2671.99797	0.97076
2669.94417	0.97083
2667.89037	0.97093
2665.83657	0.97109
2663.78276	0.97122
2661.72896	0.97105
2659.67516	0.97062
2657.62135	0.97052
2655.56755	0.97088
2653.51375	0.97135
2651.45994	0.97159
2649.40614	0.97164
2647.35234	0.97180
2645.29853	0.97207
2643.24473	0.97245
2641.19093	0.97283
2639.13712	0.97296
2637.08332	0.97296
2635.02952	0.97297
2632.97571	0.97290
2630.92191	0.97299
2628.86811	0.97330
2626.81430	0.97341
2624.76050	0.97326
2622.70670	0.97319
2620.65289	0.97300
2618.59909	0.97264
2616.54529	0.97263
2614.49149	0.97307
2612.43768	0.97336
2610.38388	0.97320
2608.33008	0.97303
2606.27627	0.97304
2604.22247	0.97308
2602.16867	0.97309
2600.11486	0.97296
2598.06106	0.97258
2596.00726	0.97252
2593.95345	0.97317
2591.89965	0.97378
2589.84585	0.97389
2587.79204	0.97390
2585.73824	0.97398
2583.68444	0.97405
2581.63063	0.97442
2579.57683	0.97515
2577.52303	0.97565
2575.46922	0.97576
2573.41542	0.97584
2571.36162	0.97609
2569.30781	0.97605
2567.25401	0.97574
2565.20021	0.97565
2563.14640	0.97542
2561.09260	0.97541
2559.03880	0.97594
2556.98500	0.97594
2554.93119	0.97513
2552.87739	0.97474
2550.82359	0.97530
2548.76978	0.97582
2546.71598	0.97594
2544.66218	0.97601
2542.60837	0.97607
2540.55457	0.97643
2538.50077	0.97703
2536.44696	0.97759
2534.39316	0.97792
2532.33936	0.97787
2530.28555	0.97777
2528.23175	0.97758
2526.17795	0.97722
2524.12414	0.97744
2522.07034	0.97808
2520.01654	0.97818
2517.96273	0.97786
2515.90893	0.97774
2513.85513	0.97786
2511.80132	0.97819
2509.74752	0.97860
2507.69372	0.97887
2505.63992	0.97899
2503.58611	0.97890
2501.53231	0.97912
2499.47851	0.97927
2497.42470	0.97863
2495.37090	0.97804
2493.31710	0.97795
2491.26329	0.97788
2489.20949	0.97800
2487.15569	0.97833
2485.10188	0.97802
2483.04808	0.97697
2480.99428	0.97646
2478.94047	0.97697
2476.88667	0.97747
2474.83287	0.97729
2472.77906	0.97732
2470.72526	0.97812
2468.67146	0.97886
2466.61765	0.97889
2464.56385	0.97858
2462.51005	0.97853
2460.45624	0.97900
2458.40244	0.97945
2456.34864	0.97928
2454.29483	0.97875
2452.24103	0.97822
2450.18723	0.97816
2448.13343	0.97883
2446.07962	0.97951
2444.02582	0.97931
2441.97202	0.97867
2439.91821	0.97871
2437.86441	0.97894
2435.81061	0.97874
2433.75680	0.97894
2431.70300	0.97951
2429.64920	0.97938
2427.59539	0.97867
2425.54159	0.97836
2423.48779	0.97856
2421.43398	0.97884
2419.38018	0.97916
2417.32638	0.97957
2415.27257	0.97962
2413.21877	0.97906
2411.16497	0.97858
2409.11116	0.97874
2407.05736	0.97927
2405.00356	0.97981
2402.94975	0.97996
2400.89595	0.97980
2398.84215	0.97968
2396.78834	0.97952
2394.73454	0.97925
2392.68074	0.97911
2390.62694	0.97936
2388.57313	0.97974
2386.51933	0.97969
2384.46553	0.97917
2382.41172	0.97874
2380.35792	0.97868
2378.30412	0.97895
2376.25031	0.97921
2374.19651	0.97922
2372.14271	0.97888
2370.08890	0.97840
2368.03510	0.97853
2365.98130	0.97855
2363.92749	0.97765
2361.87369	0.97748
2359.81989	0.97893
2357.76608	0.97951
2355.71228	0.97878
2353.65848	0.97897
2351.60467	0.97918
2349.55087	0.97850
2347.49707	0.97807
2345.44326	0.97844
2343.38946	0.97853
2341.33566	0.97815
2339.28186	0.97885
2337.22805	0.97999
2335.17425	0.98005
2333.12045	0.97982
2331.06664	0.98012
2329.01284	0.98011
2326.95904	0.97925
2324.90523	0.97816
2322.85143	0.97781
2320.79763	0.97826
2318.74382	0.97862
2316.69002	0.97852
2314.63622	0.97812
2312.58241	0.97807
2310.52861	0.97819
2308.47481	0.97756
2306.42100	0.97677
2304.36720	0.97691
2302.31340	0.97765
2300.25959	0.97764
2298.20579	0.97678
2296.15199	0.97651
2294.09818	0.97716
2292.04438	0.97759
2289.99058	0.97741
2287.93677	0.97738
2285.88297	0.97765
2283.82917	0.97805
2281.77537	0.97851
2279.72156	0.97835
2277.66776	0.97788
2275.61396	0.97847
2273.56015	0.97909
2271.50635	0.97858
2269.45255	0.97899
2267.39874	0.98052
2265.34494	0.98084
2263.29114	0.98063
2261.23733	0.98099
2259.18353	0.98073
2257.12973	0.97974
2255.07592	0.98022
2253.02212	0.98152
2250.96832	0.98028
2248.91451	0.97847
2246.86071	0.97911
2244.80691	0.97913
2242.75310	0.97740
2240.69930	0.97755
2238.64550	0.97860
2236.59169	0.97800
2234.53789	0.97804
2232.48409	0.97867
2230.43029	0.97804
2228.37648	0.97773
2226.32268	0.97868
2224.26888	0.97964
2222.21507	0.97979
2220.16127	0.98003
2218.10747	0.98084
2216.05366	0.98088
2213.99986	0.98118
2211.94606	0.98280
2209.89225	0.98305
2207.83845	0.98247
2205.78465	0.98311
2203.73084	0.98363
2201.67704	0.98398
2199.62324	0.98449
2197.56943	0.98347
2195.51563	0.98121
2193.46183	0.98079
2191.40802	0.98230
2189.35422	0.98298
2187.30042	0.98211
2185.24661	0.97969
2183.19281	0.97783
2181.13901	0.97861
2179.08520	0.97886
2177.03140	0.97861
2174.97760	0.98020
2172.92380	0.98147
2170.86999	0.98184
2168.81619	0.98189
2166.76239	0.98052
2164.70858	0.97955
2162.65478	0.98050
2160.60098	0.98005
2158.54717	0.97902
2156.49337	0.98147
2154.43957	0.98448
2152.38576	0.98572
2150.33196	0.98632
2148.27816	0.98641
2146.22435	0.98547
2144.17055	0.98292
2142.11675	0.98027
2140.06294	0.98021
2138.00914	0.98204
2135.95534	0.98327
2133.90153	0.98323
2131.84773	0.98206
2129.79393	0.98036
2127.74012	0.98021
2125.68632	0.98154
2123.63252	0.98173
2121.57871	0.98109
2119.52491	0.98129
2117.47111	0.98209
2115.41731	0.98270
2113.36350	0.98266
2111.30970	0.98213
2109.25590	0.98133
2107.20209	0.98081
2105.14829	0.98100
2103.09449	0.98116
2101.04068	0.98144
2098.98688	0.98279
2096.93308	0.98395
2094.87927	0.98310
2092.82547	0.98171
2090.77167	0.98166
2088.71786	0.98218
2086.66406	0.98189
2084.61026	0.98121
2082.55645	0.98119
2080.50265	0.98121
2078.44885	0.98129
2076.39504	0.98181
2074.34124	0.98214
2072.28744	0.98246
2070.23363	0.98298
2068.17983	0.98346
2066.12603	0.98350
2064.07223	0.98287
2062.01842	0.98220
2059.96462	0.98140
2057.91082	0.98014
2055.85701	0.97991
2053.80321	0.98030
2051.74941	0.98003
2049.69560	0.98095
2047.64180	0.98292
2045.58800	0.98323
2043.53419	0.98259
2041.48039	0.98301
2039.42659	0.98308
2037.37278	0.98166
2035.31898	0.98134
2033.26518	0.98235
2031.21137	0.98263
2029.15757	0.98382
2027.10377	0.98719
2025.04996	0.99028
2022.99616	0.99077
2020.94236	0.98970
2018.88855	0.98835
2016.83475	0.98530
2014.78095	0.98205
2012.72714	0.98181
2010.67334	0.98266
2008.61954	0.98178
2006.56574	0.98057
2004.51193	0.97982
2002.45813	0.97829
2000.40433	0.97659
1998.35052	0.97701
1996.29672	0.97872
1994.24292	0.97923
1992.18911	0.98026
1990.13531	0.98228
1988.08151	0.98218
1986.02770	0.98083
1983.97390	0.98028
1981.92010	0.97990
1979.86629	0.97954
1977.81249	0.97921
1975.75869	0.97902
1973.70488	0.98024
1971.65108	0.98202
1969.59728	0.98280
1967.54347	0.98312
1965.48967	0.98440
1963.43587	0.98669
1961.38206	0.98813
1959.32826	0.98709
1957.27446	0.98460
1955.22066	0.98254
1953.16685	0.98129
1951.11305	0.98104
1949.05925	0.98137
1947.00544	0.98088
1944.95164	0.98080
1942.89784	0.98274
1940.84403	0.98424
1938.79023	0.98428
1936.73643	0.98371
1934.68262	0.98213
1932.62882	0.98049
1930.57502	0.98055
1928.52121	0.98214
1926.46741	0.98340
1924.41361	0.98319
1922.35980	0.98271
1920.30600	0.98310
1918.25220	0.98325
1916.19839	0.98308
1914.14459	0.98324
1912.09079	0.98338
1910.03698	0.98382
1907.98318	0.98418
1905.92938	0.98320
1903.87557	0.98183
1901.82177	0.98150
1899.76797	0.98215
1897.71417	0.98309
1895.66036	0.98345
1893.60656	0.98264
1891.55276	0.98127
1889.49895	0.98116
1887.44515	0.98229
1885.39135	0.98212
1883.33754	0.98077
1881.28374	0.98008
1879.22994	0.98024
1877.17613	0.98082
1875.12233	0.98142
1873.06853	0.98135
1871.01472	0.98083
1868.96092	0.98035
1866.90712	0.98013
1864.85331	0.98044
1862.79951	0.98106
1860.74571	0.98166
1858.69190	0.98218
1856.63810	0.98228
1854.58430	0.98171
1852.53049	0.98127
1850.47669	0.98110
1848.42289	0.98072
1846.36908	0.98071
1844.31528	0.98133
1842.26148	0.98151
1840.20768	0.98108
1838.15387	0.98074
1836.10007	0.98076
1834.04627	0.98112
1831.99246	0.98160
1829.93866	0.98167
1827.88486	0.98132
1825.83105	0.98120
1823.77725	0.98103
1821.72345	0.98050
1819.66964	0.98001
1817.61584	0.98000
1815.56204	0.98013
1813.50823	0.97980
1811.45443	0.97975
1809.40063	0.98053
1807.34682	0.98101
1805.29302	0.98059
1803.23922	0.97984
1801.18541	0.97956
1799.13161	0.97981
1797.07781	0.97979
1795.02400	0.97965
1792.97020	0.97986
1790.91640	0.97984
1788.86260	0.97960
1786.80879	0.97975
1784.75499	0.98001
1782.70119	0.97997
1780.64738	0.97997
1778.59358	0.98020
1776.53978	0.98024
1774.48597	0.97997
1772.43217	0.97962
1770.37837	0.97905
1768.32456	0.97849
1766.27076	0.97829
1764.21696	0.97798
1762.16315	0.97760
1760.10935	0.97752
1758.05555	0.97717
1756.00174	0.97641
1753.94794	0.97572
1751.89414	0.97465
1749.84033	0.97273
1747.78653	0.97108
1745.73273	0.97023
1743.67892	0.96982
1741.62512	0.96963
1739.57132	0.96930
1737.51751	0.96895
1735.46371	0.96911
1733.40991	0.97036
1731.35611	0.97171
1729.30230	0.97221
1727.24850	0.97215
1725.19470	0.97204
1723.14089	0.97222
1721.08709	0.97264
1719.03329	0.97314
1716.97948	0.97364
1714.92568	0.97377
1712.87188	0.97360
1710.81807	0.97376
1708.76427	0.97405
1706.71047	0.97390
1704.65666	0.97330
1702.60286	0.97270
1700.54906	0.97273
1698.49525	0.97338
1696.44145	0.97375
1694.38765	0.97357
1692.33384	0.97292
1690.28004	0.97237
1688.22624	0.97222
1686.17243	0.97188
1684.11863	0.97130
1682.06483	0.97148
1680.01103	0.97142
1677.95722	0.97070
1675.90342	0.97016
1673.84962	0.97014
1671.79581	0.96991
1669.74201	0.96949
1667.68821	0.96926
1665.63440	0.96899
1663.58060	0.96865
1661.52680	0.96835
1659.47299	0.96815
1657.41919	0.96796
1655.36539	0.96777
1653.31158	0.96728
1651.25778	0.96562
1649.20398	0.96400
1647.15017	0.96251
1645.09637	0.96158
1643.04257	0.96176
1640.98876	0.96244
1638.93496	0.96297
1636.88116	0.96317
1634.82735	0.96311
1632.77355	0.96298
1630.71975	0.96279
1628.66594	0.96234
1626.61214	0.96181
1624.55834	0.96176
1622.50454	0.96209
1620.45073	0.96223
1618.39693	0.96242
1616.34313	0.96293
1614.28932	0.96316
1612.23552	0.96327
1610.18172	0.96359
1608.12791	0.96370
1606.07411	0.96354
1604.02031	0.96371
1601.96650	0.96410
1599.91270	0.96415
1597.85890	0.96424
1595.80509	0.96469
1593.75129	0.96496
1591.69749	0.96482
1589.64368	0.96476
1587.58988	0.96490
1585.53608	0.96488
1583.48227	0.96485
1581.42847	0.96479
1579.37467	0.96454
1577.32086	0.96458
1575.26706	0.96517
1573.21326	0.96555
1571.15945	0.96585
1569.10565	0.96661
1567.05185	0.96711
1564.99805	0.96733
1562.94424	0.96772
1560.89044	0.96821
1558.83664	0.96865
1556.78283	0.96860
1554.72903	0.96888
1552.67523	0.96929
1550.62142	0.96935
1548.56762	0.96961
1546.51382	0.97026
1544.46001	0.97059
1542.40621	0.97054
1540.35241	0.97138
1538.29860	0.97203
1536.24480	0.97180
1534.19100	0.97184
1532.13719	0.97183
1530.08339	0.97158
1528.02959	0.97163
1525.97578	0.97178
1523.92198	0.97201
1521.86818	0.97238
1519.81437	0.97222
1517.76057	0.97165
1515.70677	0.97104
1513.65297	0.97093
1511.59916	0.97167
1509.54536	0.97274
1507.49156	0.97327
1505.43775	0.97254
1503.38395	0.97153
1501.33015	0.97086
1499.27634	0.97041
1497.22254	0.96969
1495.16874	0.96878
1493.11493	0.96832
1491.06113	0.96836
1489.00733	0.96829
1486.95352	0.96708
1484.89972	0.96554
1482.84592	0.96400
1480.79211	0.96189
1478.73831	0.95892
1476.68451	0.95429
1474.63070	0.94636
1472.57690	0.93257
1470.52310	0.91686
1468.46929	0.90396
1466.41549	0.89002
1464.36169	0.87372
1462.30788	0.86188
1460.25408	0.85577
1458.20028	0.85145
1456.14648	0.84890
1454.09267	0.84971
1452.03887	0.85269
1449.98507	0.85950
1447.93126	0.87311
1445.87746	0.89022
1443.82366	0.90410
1441.76985	0.91374
1439.71605	0.91934
1437.66225	0.92197
1435.60844	0.92501
1433.55464	0.93140
1431.50084	0.93957
1429.44703	0.94660
1427.39323	0.95022
1425.33943	0.95144
1423.28562	0.95169
1421.23182	0.95208
1419.17802	0.95293
1417.12421	0.95338
1415.07041	0.95375
1413.01661	0.95461
1410.96280	0.95526
1408.90900	0.95545
1406.85520	0.95603
1404.80139	0.95716
1402.74759	0.95813
1400.69379	0.95873
1398.63999	0.95895
1396.58618	0.95854
1394.53238	0.95768
1392.47858	0.95691
1390.42477	0.95600
1388.37097	0.95333
1386.31717	0.94612
1384.26336	0.93236
1382.20956	0.90867
1380.15576	0.87151
1378.10195	0.82845
1376.04815	0.80246
1373.99435	0.81456
1371.94054	0.85311
1369.88674	0.88945
1367.83294	0.91362
1365.77913	0.92461
1363.72533	0.92672
1361.67153	0.92431
1359.61772	0.92200
1357.56392	0.92366
1355.51012	0.92993
1353.45631	0.93792
1351.40251	0.94444
1349.34871	0.94885
1347.29491	0.95150
1345.24110	0.95323
1343.18730	0.95482
1341.13350	0.95615
1339.07969	0.95709
1337.02589	0.95767
1334.97209	0.95761
1332.91828	0.95676
1330.86448	0.95553
1328.81068	0.95499
1326.75687	0.95553
1324.70307	0.95640
1322.64927	0.95725
1320.59546	0.95829
1318.54166	0.95919
1316.48786	0.95980
1314.43405	0.96044
1312.38025	0.96071
1310.32645	0.96002
1308.27264	0.95851
1306.21884	0.95664
1304.16504	0.95539
1302.11123	0.95557
1300.05743	0.95645
1298.00363	0.95712
1295.94982	0.95751
1293.89602	0.95794
1291.84222	0.95870
1289.78842	0.95940
1287.73461	0.95973
1285.68081	0.96011
1283.62701	0.96037
1281.57320	0.95996
1279.51940	0.95932
1277.46560	0.95874
1275.41179	0.95795
1273.35799	0.95727
1271.30419	0.95700
1269.25038	0.95685
1267.19658	0.95671
1265.14278	0.95669
1263.08897	0.95629
1261.03517	0.95523
1258.98137	0.95401
1256.92756	0.95289
1254.87376	0.95258
1252.81996	0.95372
1250.76615	0.95531
1248.71235	0.95641
1246.65855	0.95686
1244.60474	0.95699
1242.55094	0.95726
1240.49714	0.95738
1238.44334	0.95711
1236.38953	0.95686
1234.33573	0.95684
1232.28193	0.95656
1230.22812	0.95609
1228.17432	0.95580
1226.12052	0.95519
1224.06671	0.95421
1222.01291	0.95323
1219.95911	0.95223
1217.90530	0.95178
1215.85150	0.95212
1213.79770	0.95244
1211.74389	0.95226
1209.69009	0.95157
1207.63629	0.95070
1205.58248	0.95004
1203.52868	0.94970
1201.47488	0.94934
1199.42107	0.94868
1197.36727	0.94775
1195.31347	0.94690
1193.25966	0.94618
1191.20586	0.94499
1189.15206	0.94327
1187.09825	0.94150
1185.04445	0.93978
1182.99065	0.93800
1180.93685	0.93609
1178.88304	0.93360
1176.82924	0.92985
1174.77544	0.92463
1172.72163	0.91786
1170.66783	0.90969
1168.61403	0.90208
1166.56022	0.89796
1164.50642	0.89784
1162.45262	0.89964
1160.39881	0.90158
1158.34501	0.90312
1156.29121	0.90372
1154.23740	0.90310
1152.18360	0.90252
1150.12980	0.90323
1148.07599	0.90457
1146.02219	0.90550
1143.96839	0.90612
1141.91458	0.90657
1139.86078	0.90691
1137.80698	0.90742
1135.75317	0.90788
1133.69937	0.90782
1131.64557	0.90708
1129.59176	0.90605
1127.53796	0.90495
1125.48416	0.90355
1123.43036	0.90200
1121.37655	0.90020
1119.32275	0.89789
1117.26895	0.89604
1115.21514	0.89534
1113.16134	0.89464
1111.10754	0.89337
1109.05373	0.89208
1106.99993	0.89033
1104.94613	0.88778
1102.89232	0.88533
1100.83852	0.88394
1098.78472	0.88358
1096.73091	0.88356
1094.67711	0.88340
1092.62331	0.88298
1090.56950	0.88237
1088.51570	0.88220
1086.46190	0.88284
1084.40809	0.88360
1082.35429	0.88421
1080.30049	0.88475
1078.24668	0.88474
1076.19288	0.88427
1074.13908	0.88404
1072.08528	0.88395
1070.03147	0.88350
1067.97767	0.88281
1065.92387	0.88167
1063.87006	0.87972
1061.81626	0.87756
1059.76246	0.87578
1057.70865	0.87385
1055.65485	0.87134
1053.60105	0.86845
1051.54724	0.86564
1049.49344	0.86319
1047.43964	0.86083
1045.38583	0.85867
1043.33203	0.85699
1041.27823	0.85563
1039.22442	0.85448
1037.17062	0.85366
1035.11682	0.85282
1033.06301	0.85189
1031.00921	0.85179
1028.95541	0.85255
1026.90160	0.85310
1024.84780	0.85297
1022.79400	0.85265
1020.74019	0.85273
1018.68639	0.85318
1016.63259	0.85334
1014.57879	0.85289
1012.52498	0.85222
1010.47118	0.85190
1008.41738	0.85174
1006.36357	0.85071
1004.30977	0.84858
1002.25597	0.84479
1000.20216	0.83868
998.14836	0.83416
996.09456	0.83675
994.04075	0.84504
991.98695	0.85352
989.93315	0.85998
987.87934	0.86464
985.82554	0.86745
983.77174	0.86867
981.71793	0.86833
979.66413	0.86547
977.61033	0.85988
975.55652	0.85292
973.50272	0.84859
971.44892	0.85196
969.39511	0.86268
967.34131	0.87456
965.28751	0.88329
963.23371	0.88950
961.17990	0.89461
959.12610	0.89843
957.07230	0.90094
955.01849	0.90311
952.96469	0.90541
950.91089	0.90737
948.85708	0.90897
946.80328	0.91062
944.74948	0.91191
942.69567	0.91270
940.64187	0.91387
938.58807	0.91577
936.53426	0.91771
934.48046	0.91938
932.42666	0.92110
930.37285	0.92271
928.31905	0.92413
926.26525	0.92542
924.21144	0.92613
922.15764	0.92618
920.10384	0.92592
918.05003	0.92582
915.99623	0.92594
913.94243	0.92597
911.88862	0.92639
909.83482	0.92748
907.78102	0.92835
905.72722	0.92806
903.67341	0.92644
901.61961	0.92408
899.56581	0.92274
897.51200	0.92443
895.45820	0.92900
893.40440	0.93387
891.35059	0.93701
889.29679	0.93872
887.24299	0.93997
885.18918	0.94103
883.13538	0.94213
881.08158	0.94322
879.02777	0.94369
876.97397	0.94384
874.92017	0.94450
872.86636	0.94531
870.81256	0.94571
868.75876	0.94606
866.70495	0.94665
864.65115	0.94731
862.59735	0.94821
860.54354	0.94919
858.48974	0.94935
856.43594	0.94872
854.38213	0.94817
852.32833	0.94757
850.27453	0.94630
848.22073	0.94443
846.16692	0.94092
844.11312	0.93305
842.05932	0.92365
840.00551	0.92259
837.95171	0.93111
835.89791	0.93942
833.84410	0.94341
831.79030	0.94566
829.73650	0.94709
827.68269	0.94792
825.62889	0.94897
823.57509	0.94967
821.52128	0.94909
819.46748	0.94820
817.41368	0.94712
815.35987	0.94418
813.30607	0.93996
811.25227	0.93637
809.19846	0.93366
807.14466	0.93210
805.09086	0.93190
803.03705	0.93232
800.98325	0.93235
798.92945	0.93222
796.87565	0.93306
794.82184	0.93409
792.76804	0.93443
790.71424	0.93502
788.66043	0.93631
786.60663	0.93761
784.55283	0.93803
782.49902	0.93745
780.44522	0.93645
778.39142	0.93596
776.33761	0.93668
774.28381	0.93806
772.23001	0.93933
770.17620	0.94029
768.12240	0.94066
766.06860	0.94023
764.01479	0.93970
761.96099	0.94036
759.90719	0.94176
757.85338	0.94276
755.79958	0.94313
753.74578	0.94290
751.69197	0.94230
749.63817	0.94161
747.58437	0.94103
745.53056	0.94077
743.47676	0.94108
741.42296	0.94183
739.36916	0.94218
737.31535	0.94128
735.26155	0.93941
733.20775	0.93730
731.15394	0.93557
729.10014	0.93501
727.04634	0.93541
724.99253	0.93532
722.93873	0.93389
720.88493	0.93245
718.83112	0.93363
716.77732	0.93731
714.72352	0.94080
712.66971	0.94275
710.61591	0.94339
708.56211	0.94324
706.50830	0.94306
704.45450	0.94377
702.40070	0.94460
700.34689	0.94420
698.29309	0.94304
696.23929	0.94159
694.18548	0.94040
692.13168	0.94101
690.07788	0.94253
688.02408	0.94290
685.97027	0.94313
683.91647	0.94409
681.86267	0.94420
679.80886	0.94325
677.75506	0.94308
675.70126	0.94350
673.64745	0.94263
671.59365	0.94141
669.53985	0.94163
667.48604	0.94249
665.43224	0.94264
663.37844	0.94324
661.32463	0.94368
659.27083	0.94231
657.21703	0.94085
655.16322	0.94064
653.10942	0.93977
651.05562	0.93800
649.00181	0.93643
646.94801	0.93517
644.89421	0.93449
642.84040	0.93558
640.78660	0.93822
638.73280	0.93973
636.67899	0.93910
634.62519	0.93808
632.57139	0.93739
630.51759	0.93616
628.46378	0.93516
626.40998	0.93535
624.35618	0.93530
622.30237	0.93487
620.24857	0.93533
618.19477	0.93585
616.14096	0.93446
614.08716	0.93114
612.03336	0.92740
609.97955	0.92463
607.92575	0.92416
605.87195	0.92505
603.81814	0.92434
601.76434	0.92182
599.71054	0.91964
597.65673	0.91875
595.60293	0.91802
593.54913	0.91635
591.49532	0.91540
589.44152	0.91557
587.38772	0.91459
585.33391	0.91342
583.28011	0.91351
581.22631	0.91303
579.17250	0.91134
577.11870	0.91027
575.06490	0.91130
573.01110	0.91398
570.95729	0.91574
568.90349	0.91511
566.84969	0.91340
564.79588	0.91319
562.74208	0.91415
560.68828	0.91375
558.63447	0.91353
556.58067	0.91441
554.52687	0.91338
552.47306	0.91127
550.41926	0.91048
548.36546	0.90841
546.31165	0.90435
544.25785	0.90168
542.20405	0.90094
540.15024	0.90105
538.09644	0.90080
536.04264	0.89988
533.98883	0.89889
531.93503	0.89763
529.88123	0.89688
527.82742	0.89712
525.77362	0.89824
523.71982	0.90089
521.66602	0.90472
519.61221	0.90833
517.55841	0.90999
515.50461	0.90942
513.45080	0.90857
511.39700	0.90774
509.34320	0.90772
507.28939	0.90992
505.23559	0.91212
503.18179	0.91316
501.12798	0.91388
499.07418	0.91283
497.02038	0.90910
494.96657	0.90614
492.91277	0.90578
490.85897	0.90410
488.80516	0.90167
486.75136	0.90107
484.69756	0.89839
482.64375	0.89211
480.58995	0.88642
478.53615	0.88205
476.48234	0.87692
474.42854	0.87096
472.37474	0.86697
470.32093	0.86483
468.26713	0.86191
466.21333	0.86199
464.15953	0.86434
462.10572	0.86113
460.05192	0.85575
457.99812	0.85793
455.94431	0.86503
453.89051	0.87192
451.83671	0.88003
449.78290	0.88455
447.72910	0.88353
445.67530	0.88196
443.62149	0.88038
441.56769	0.87628
439.51389	0.87264
437.46008	0.87190
435.40628	0.87109
433.35248	0.86957
431.29867	0.86892
429.24487	0.86771
427.19107	0.86441
425.13726	0.86197
423.08346	0.86524
421.02966	0.87076
418.97585	0.87659
416.92205	0.88655
414.86825	0.89374
412.81445	0.89549
410.76064	0.89581
408.70684	0.89714
406.65304	0.89696
404.59923	0.89485
402.54543	0.89483
400.49163	0.89948
398.43782	0.90479
