3996.70104	0.98491
3994.64724	0.98466
3992.59344	0.98448
3990.53964	0.98455
3988.48583	0.98479
3986.43203	0.98507
3984.37823	0.98530
3982.32442	0.98486
3980.27062	0.98436
3978.21682	0.98496
3976.16301	0.98574
3974.10921	0.98552
3972.05541	0.98505
3970.00160	0.98522
3967.94780	0.98533
3965.89400	0.98488
3963.84019	0.98481
3961.78639	0.98521
3959.73259	0.98502
3957.67878	0.98463
3955.62498	0.98498
3953.57118	0.98560
3951.51737	0.98581
3949.46357	0.98553
3947.40977	0.98517
3945.35596	0.98527
3943.30216	0.98555
3941.24836	0.98524
3939.19455	0.98475
3937.14075	0.98491
3935.08695	0.98529
3933.03315	0.98552
3930.97934	0.98605
3928.92554	0.98648
3926.87174	0.98634
3924.81793	0.98645
3922.76413	0.98699
3920.71033	0.98704
3918.65652	0.98663
3916.60272	0.98621
3914.54892	0.98585
3912.49511	0.98551
3910.44131	0.98535
3908.38751	0.98541
3906.33370	0.98575
3904.27990	0.98655
3902.22610	0.98744
3900.17229	0.98760
3898.11849	0.98678
3896.06469	0.98596
3894.01088	0.98579
3891.95708	0.98595
3889.90328	0.98595
3887.84947	0.98588
3885.79567	0.98607
3883.74187	0.98641
3881.68807	0.98666
3879.63426	0.98695
3877.58046	0.98740
3875.52666	0.98767
3873.47285	0.98713
3871.41905	0.98628
3869.36525	0.98627
3867.31144	0.98650
3865.25764	0.98614
3863.20384	0.98601
3861.15003	0.98665
3859.09623	0.98683
3857.04243	0.98654
3854.98862	0.98685
3852.93482	0.98778
3850.88102	0.98773
3848.82721	0.98700
3846.77341	0.98655
3844.71961	0.98676
3842.66580	0.98679
3840.61200	0.98597
3838.55820	0.98577
3836.50439	0.98703
3834.45059	0.98789
3832.39679	0.98769
3830.34298	0.98701
3828.28918	0.98645
3826.23538	0.98611
3824.18158	0.98566
3822.12777	0.98557
3820.07397	0.98665
3818.02017	0.98719
3815.96636	0.98694
3813.91256	0.98687
3811.85876	0.98649
3809.80495	0.98586
3807.75115	0.98582
3805.69735	0.98639
3803.64354	0.98697
3801.58974	0.98760
3799.53594	0.98766
3797.48213	0.98730
3795.42833	0.98721
3793.37453	0.98693
3791.32072	0.98637
3789.26692	0.98608
3787.21312	0.98618
3785.15931	0.98619
3783.10551	0.98597
3781.05171	0.98590
3778.99790	0.98608
3776.94410	0.98628
3774.89030	0.98644
3772.83650	0.98657
3770.78269	0.98682
3768.72889	0.98714
3766.67509	0.98704
3764.62128	0.98684
3762.56748	0.98677
3760.51368	0.98625
3758.45987	0.98554
3756.40607	0.98600
3754.35227	0.98717
3752.29846	0.98777
3750.24466	0.98803
3748.19086	0.98843
3746.13705	0.98852
3744.08325	0.98852
3742.02945	0.98851
3739.97564	0.98845
3737.92184	0.98850
3735.86804	0.98808
3733.81423	0.98736
3731.76043	0.98726
3729.70663	0.98761
3727.65282	0.98823
3725.59902	0.98822
3723.54522	0.98706
3721.49141	0.98590
3719.43761	0.98525
3717.38381	0.98469
3715.33001	0.98412
3713.27620	0.98367
3711.22240	0.98361
3709.16860	0.98372
3707.11479	0.98324
3705.06099	0.98233
3703.00719	0.98143
3700.95338	0.98053
3698.89958	0.97996
3696.84578	0.97964
3694.79197	0.97896
3692.73817	0.97864
3690.68437	0.97940
3688.63056	0.97960
3686.57676	0.97887
3684.52296	0.97856
3682.46915	0.97845
3680.41535	0.97826
3678.36155	0.97789
3676.30774	0.97719
3674.25394	0.97657
3672.20014	0.97633
3670.14633	0.97567
3668.09253	0.97482
3666.03873	0.97456
3663.98492	0.97393
3661.93112	0.97255
3659.87732	0.97127
3657.82352	0.97048
3655.76971	0.96952
3653.71591	0.96836
3651.66211	0.96780
3649.60830	0.96759
3647.55450	0.96661
3645.50070	0.96569
3643.44689	0.96473
3641.39309	0.96327
3639.33929	0.96213
3637.28548	0.96127
3635.23168	0.96036
3633.17788	0.95973
3631.12407	0.95920
3629.07027	0.95832
3627.01647	0.95692
3624.96266	0.95561
3622.90886	0.95512
3620.85506	0.95522
3618.80125	0.95532
3616.74745	0.95586
3614.69365	0.95646
3612.63984	0.95621
3610.58604	0.95542
3608.53224	0.95407
3606.47844	0.95288
3604.42463	0.95328
3602.37083	0.95423
3600.31703	0.95470
3598.26322	0.95467
3596.20942	0.95389
3594.15562	0.95275
3592.10181	0.95235
3590.04801	0.95237
3587.99421	0.95210
3585.94040	0.95203
3583.88660	0.95182
3581.83280	0.95118
3579.77899	0.95032
3577.72519	0.94910
3575.67139	0.94805
3573.61758	0.94762
3571.56378	0.94771
3569.50998	0.94823
3567.45617	0.94849
3565.40237	0.94730
3563.34857	0.94594
3561.29476	0.94552
3559.24096	0.94522
3557.18716	0.94447
3555.13335	0.94360
3553.07955	0.94319
3551.02575	0.94332
3548.97195	0.94332
3546.91814	0.94326
3544.86434	0.94298
3542.81054	0.94212
3540.75673	0.94170
3538.70293	0.94163
3536.64913	0.94110
3534.59532	0.94051
3532.54152	0.94016
3530.48772	0.93975
3528.43391	0.93917
3526.38011	0.93908
3524.32631	0.93923
3522.27250	0.93869
3520.21870	0.93789
3518.16490	0.93714
3516.11109	0.93671
3514.05729	0.93701
3512.00349	0.93736
3509.94968	0.93706
3507.89588	0.93639
3505.84208	0.93597
3503.78827	0.93598
3501.73447	0.93592
3499.68067	0.93539
3497.62687	0.93472
3495.57306	0.93420
3493.51926	0.93366
3491.46546	0.93310
3489.41165	0.93294
3487.35785	0.93310
3485.30405	0.93253
3483.25024	0.93126
3481.19644	0.93081
3479.14264	0.93113
3477.08883	0.93103
3475.03503	0.93084
3472.98123	0.93094
3470.92742	0.93084
3468.87362	0.93027
3466.81982	0.92936
3464.76601	0.92857
3462.71221	0.92823
3460.65841	0.92815
3458.60460	0.92808
3456.55080	0.92787
3454.49700	0.92758
3452.44319	0.92712
3450.38939	0.92642
3448.33559	0.92569
3446.28178	0.92525
3444.22798	0.92507
3442.17418	0.92472
3440.12038	0.92438
3438.06657	0.92428
3436.01277	0.92426
3433.95897	0.92411
3431.90516	0.92354
3429.85136	0.92259
3427.79756	0.92176
3425.74375	0.92140
3423.68995	0.92131
3421.63615	0.92122
3419.58234	0.92133
3417.52854	0.92158
3415.47474	0.92138
3413.42093	0.92083
3411.36713	0.92046
3409.31333	0.92013
3407.25952	0.91969
3405.20572	0.91952
3403.15192	0.91950
3401.09811	0.91924
3399.04431	0.91875
3396.99051	0.91833
3394.93670	0.91830
3392.88290	0.91832
3390.82910	0.91800
3388.77529	0.91737
3386.72149	0.91676
3384.66769	0.91668
3382.61389	0.91708
3380.56008	0.91748
3378.50628	0.91758
3376.45248	0.91749
3374.39867	0.91737
3372.34487	0.91720
3370.29107	0.91687
3368.23726	0.91639
3366.18346	0.91589
3364.12966	0.91565
3362.07585	0.91553
3360.02205	0.91530
3357.96825	0.91512
3355.91444	0.91493
3353.86064	0.91483
3351.80684	0.91496
3349.75303	0.91508
3347.69923	0.91523
3345.64543	0.91559
3343.59162	0.91595
3341.53782	0.91617
3339.48402	0.91600
3337.43021	0.91548
3335.37641	0.91533
3333.32261	0.91536
3331.26881	0.91473
3329.21500	0.91393
3327.16120	0.91397
3325.10740	0.91442
3323.05359	0.91442
3320.99979	0.91409
3318.94599	0.91386
3316.89218	0.91390
3314.83838	0.91395
3312.78458	0.91389
3310.73077	0.91416
3308.67697	0.91454
3306.62317	0.91470
3304.56936	0.91482
3302.51556	0.91479
3300.46176	0.91455
3298.40795	0.91427
3296.35415	0.91398
3294.30035	0.91369
3292.24654	0.91340
3290.19274	0.91328
3288.13894	0.91337
3286.08513	0.91335
3284.03133	0.91308
3281.97753	0.91278
3279.92372	0.91296
3277.86992	0.91351
3275.81612	0.91364
3273.76232	0.91327
3271.70851	0.91298
3269.65471	0.91318
3267.60091	0.91355
3265.54710	0.91375
3263.49330	0.91397
3261.43950	0.91431
3259.38569	0.91441
3257.33189	0.91419
3255.27809	0.91430
3253.22428	0.91487
3251.17048	0.91524
3249.11668	0.91545
3247.06287	0.91565
3245.00907	0.91564
3242.95527	0.91556
3240.90146	0.91572
3238.84766	0.91580
3236.79386	0.91584
3234.74005	0.91635
3232.68625	0.91698
3230.63245	0.91729
3228.57864	0.91790
3226.52484	0.91880
3224.47104	0.91914
3222.41724	0.91904
3220.36343	0.91901
3218.30963	0.91891
3216.25583	0.91888
3214.20202	0.91933
3212.14822	0.92004
3210.09442	0.92039
3208.04061	0.92038
3205.98681	0.92036
3203.93301	0.92035
3201.87920	0.92056
3199.82540	0.92139
3197.77160	0.92228
3195.71779	0.92282
3193.66399	0.92334
3191.61019	0.92374
3189.55638	0.92434
3187.50258	0.92498
3185.44878	0.92502
3183.39497	0.92523
3181.34117	0.92606
3179.28737	0.92684
3177.23356	0.92735
3175.17976	0.92769
3173.12596	0.92814
3171.07215	0.92890
3169.01835	0.92963
3166.96455	0.93030
3164.91075	0.93129
3162.85694	0.93217
3160.80314	0.93220
3158.74934	0.93208
3156.69553	0.93282
3154.64173	0.93396
3152.58793	0.93511
3150.53412	0.93599
3148.48032	0.93612
3146.42652	0.93611
3144.37271	0.93660
3142.31891	0.93766
3140.26511	0.93885
3138.21130	0.93945
3136.15750	0.93945
3134.10370	0.93923
3132.04989	0.93928
3129.99609	0.93993
3127.94229	0.94085
3125.88848	0.94132
3123.83468	0.94136
3121.78088	0.94178
3119.72707	0.94263
3117.67327	0.94338
3115.61947	0.94374
3113.56566	0.94377
3111.51186	0.94390
3109.45806	0.94430
3107.40426	0.94447
3105.35045	0.94455
3103.29665	0.94510
3101.24285	0.94573
3099.18904	0.94587
3097.13524	0.94567
3095.08144	0.94551
3093.02763	0.94542
3090.97383	0.94546
3088.92003	0.94603
3086.86622	0.94677
3084.81242	0.94680
3082.75862	0.94647
3080.70481	0.94623
3078.65101	0.94596
3076.59721	0.94577
3074.54340	0.94567
3072.48960	0.94578
3070.43580	0.94635
3068.38199	0.94699
3066.32819	0.94729
3064.27439	0.94767
3062.22058	0.94823
3060.16678	0.94849
3058.11298	0.94859
3056.05918	0.94882
3054.00537	0.94903
3051.95157	0.94906
3049.89777	0.94920
3047.84396	0.94982
3045.79016	0.95079
3043.73636	0.95169
3041.68255	0.95224
3039.62875	0.95245
3037.57495	0.95266
3035.52114	0.95305
3033.46734	0.95336
3031.41354	0.95338
3029.35973	0.95334
3027.30593	0.95356
3025.25213	0.95406
3023.19832	0.95468
3021.14452	0.95539
3019.09072	0.95596
3017.03691	0.95635
3014.98311	0.95681
3012.92931	0.95731
3010.87550	0.95785
3008.82170	0.95833
3006.76790	0.95838
3004.71409	0.95791
3002.66029	0.95748
3000.60649	0.95780
2998.55269	0.95871
2996.49888	0.95918
2994.44508	0.95884
2992.39128	0.95834
2990.33747	0.95825
2988.28367	0.95841
2986.22987	0.95813
2984.17606	0.95736
2982.12226	0.95686
2980.06846	0.95675
2978.01465	0.95660
2975.96085	0.95647
2973.90705	0.95637
2971.85324	0.95590
2969.79944	0.95514
2967.74564	0.95471
2965.69183	0.95441
2963.63803	0.95385
2961.58423	0.95351
2959.53042	0.95369
2957.47662	0.95414
2955.42282	0.95436
2953.36901	0.95426
2951.31521	0.95437
2949.26141	0.95473
2947.20761	0.95497
2945.15380	0.95509
2943.10000	0.95497
2941.04620	0.95451
2938.99239	0.95430
2936.93859	0.95442
2934.88479	0.95396
2932.83098	0.95260
2930.77718	0.95138
2928.72338	0.95113
2926.66957	0.95144
2924.61577	0.95193
2922.56197	0.95256
2920.50816	0.95316
2918.45436	0.95377
2916.40056	0.95493
2914.34675	0.95655
2912.29295	0.95777
2910.23915	0.95844
2908.18534	0.95880
2906.13154	0.95914
2904.07774	0.95987
2902.02393	0.96069
2899.97013	0.96121
2897.91633	0.96171
2895.86252	0.96235
2893.80872	0.96291
2891.75492	0.96313
2889.70112	0.96322
2887.64731	0.96342
2885.59351	0.96362
2883.53971	0.96368
2881.48590	0.96367
2879.43210	0.96376
2877.37830	0.96377
2875.32449	0.96337
2873.27069	0.96326
2871.21689	0.96413
2869.16308	0.96516
2867.10928	0.96539
2865.05548	0.96501
2863.00167	0.96474
2860.94787	0.96474
2858.89407	0.96483
2856.84026	0.96480
2854.78646	0.96475
2852.73266	0.96519
2850.67885	0.96589
2848.62505	0.96648
2846.57125	0.96747
2844.51744	0.96863
2842.46364	0.96934
2840.40984	0.96976
2838.35603	0.97017
2836.30223	0.97061
2834.24843	0.97087
2832.19463	0.97104
2830.14082	0.97144
2828.08702	0.97188
2826.03322	0.97209
2823.97941	0.97224
2821.92561	0.97253
2819.87181	0.97275
2817.81800	0.97275
2815.76420	0.97279
2813.71040	0.97296
2811.65659	0.97301
2809.60279	0.97311
2807.54899	0.97345
2805.49518	0.97379
2803.44138	0.97392
2801.38758	0.97377
2799.33377	0.97345
2797.27997	0.97329
2795.22617	0.97351
2793.17236	0.97383
2791.11856	0.97401
2789.06476	0.97419
2787.01095	0.97434
2784.95715	0.97442
2782.90335	0.97486
2780.84955	0.97544
2778.79574	0.97555
2776.74194	0.97551
2774.68814	0.97563
2772.63433	0.97555
2770.58053	0.97544
2768.52673	0.97572
2766.47292	0.97613
2764.41912	0.97649
2762.36532	0.97675
2760.31151	0.97682
2758.25771	0.97683
2756.20391	0.97679
2754.15010	0.97678
2752.09630	0.97698
2750.04250	0.97718
2747.98869	0.97728
2745.93489	0.97749
2743.88109	0.97769
2741.82728	0.97757
2739.77348	0.97744
2737.71968	0.97757
2735.66587	0.97763
2733.61207	0.97751
2731.55827	0.97745
2729.50446	0.97762
2727.45066	0.97788
2725.39686	0.97805
2723.34306	0.97818
2721.28925	0.97818
2719.23545	0.97792
2717.18165	0.97772
2715.12784	0.97789
2713.07404	0.97812
2711.02024	0.97819
2708.96643	0.97834
2706.91263	0.97862
2704.85883	0.97891
2702.80502	0.97901
2700.75122	0.97896
2698.69742	0.97914
2696.64361	0.97950
2694.58981	0.97953
2692.53601	0.97935
2690.48220	0.97931
2688.42840	0.97919
2686.37460	0.97906
2684.32079	0.97923
2682.26699	0.97950
2680.21319	0.97968
2678.15938	0.97983
2676.10558	0.97980
2674.05178	0.97954
2671.99797	0.97964
2669.94417	0.98003
2667.89037	0.98003
2665.83657	0.97987
2663.78276	0.97989
2661.72896	0.97982
2659.67516	0.97977
2657.62135	0.97996
2655.56755	0.97999
2653.51375	0.97993
2651.45994	0.98006
2649.40614	0.98008
2647.35234	0.98009
2645.29853	0.98020
2643.24473	0.98019
2641.19093	0.98006
2639.13712	0.98008
2637.08332	0.98023
2635.02952	0.98035
2632.97571	0.98073
2630.92191	0.98104
2628.86811	0.98082
2626.81430	0.98039
2624.76050	0.98022
2622.70670	0.98057
2620.65289	0.98096
2618.59909	0.98102
2616.54529	0.98120
2614.49149	0.98133
2612.43768	0.98097
2610.38388	0.98058
2608.33008	0.98066
2606.27627	0.98107
2604.22247	0.98174
2602.16867	0.98246
2600.11486	0.98233
2598.06106	0.98142
2596.00726	0.98099
2593.95345	0.98138
2591.89965	0.98196
2589.84585	0.98224
2587.79204	0.98212
2585.73824	0.98209
2583.68444	0.98268
2581.63063	0.98348
2579.57683	0.98360
2577.52303	0.98310
2575.46922	0.98220
2573.41542	0.98136
2571.36162	0.98136
2569.30781	0.98184
2567.25401	0.98255
2565.20021	0.98342
2563.14640	0.98378
2561.09260	0.98376
2559.03880	0.98366
2556.98500	0.98342
2554.93119	0.98306
2552.87739	0.98269
2550.82359	0.98293
2548.76978	0.98343
2546.71598	0.98318
2544.66218	0.98253
2542.60837	0.98234
2540.55457	0.98276
2538.50077	0.98310
2536.44696	0.98297
2534.39316	0.98275
2532.33936	0.98291
2530.28555	0.98352
2528.23175	0.98400
2526.17795	0.98373
2524.12414	0.98317
2522.07034	0.98315
2520.01654	0.98375
2517.96273	0.98374
2515.90893	0.98289
2513.85513	0.98297
2511.80132	0.98371
2509.74752	0.98362
2507.69372	0.98340
2505.63992	0.98393
2503.58611	0.98475
2501.53231	0.98507
2499.47851	0.98464
2497.42470	0.98430
2495.37090	0.98429
2493.31710	0.98401
2491.26329	0.98374
2489.20949	0.98417
2487.15569	0.98507
2485.10188	0.98513
2483.04808	0.98448
2480.99428	0.98429
2478.94047	0.98458
2476.88667	0.98499
2474.83287	0.98502
2472.77906	0.98489
2470.72526	0.98485
2468.67146	0.98451
2466.61765	0.98454
2464.56385	0.98524
2462.51005	0.98526
2460.45624	0.98438
2458.40244	0.98377
2456.34864	0.98385
2454.29483	0.98396
2452.24103	0.98341
2450.18723	0.98292
2448.13343	0.98334
2446.07962	0.98404
2444.02582	0.98423
2441.97202	0.98419
2439.91821	0.98423
2437.86441	0.98410
2435.81061	0.98393
2433.75680	0.98408
2431.70300	0.98467
2429.64920	0.98501
2427.59539	0.98463
2425.54159	0.98439
2423.48779	0.98478
2421.43398	0.98562
2419.38018	0.98622
2417.32638	0.98583
2415.27257	0.98465
2413.21877	0.98336
2411.16497	0.98289
2409.11116	0.98353
2407.05736	0.98446
2405.00356	0.98507
2402.94975	0.98542
2400.89595	0.98565
2398.84215	0.98582
2396.78834	0.98574
2394.73454	0.98535
2392.68074	0.98514
2390.62694	0.98551
2388.57313	0.98622
2386.51933	0.98627
2384.46553	0.98548
2382.41172	0.98511
2380.35792	0.98544
2378.30412	0.98579
2376.25031	0.98610
2374.19651	0.98605
2372.14271	0.98546
2370.08890	0.98557
2368.03510	0.98639
2365.98130	0.98637
2363.92749	0.98584
2361.87369	0.98614
2359.81989	0.98677
2357.76608	0.98649
2355.71228	0.98561
2353.65848	0.98532
2351.60467	0.98529
2349.55087	0.98492
2347.49707	0.98437
2345.44326	0.98405
2343.38946	0.98417
2341.33566	0.98454
2339.28186	0.98461
2337.22805	0.98424
2335.17425	0.98435
2333.12045	0.98487
2331.06664	0.98542
2329.01284	0.98607
2326.95904	0.98566
2324.90523	0.98400
2322.85143	0.98295
2320.79763	0.98332
2318.74382	0.98398
2316.69002	0.98400
2314.63622	0.98362
2312.58241	0.98344
2310.52861	0.98346
2308.47481	0.98380
2306.42100	0.98470
2304.36720	0.98566
2302.31340	0.98615
2300.25959	0.98608
2298.20579	0.98539
2296.15199	0.98496
2294.09818	0.98519
2292.04438	0.98490
2289.99058	0.98405
2287.93677	0.98344
2285.88297	0.98385
2283.82917	0.98545
2281.77537	0.98658
2279.72156	0.98654
2277.66776	0.98629
2275.61396	0.98614
2273.56015	0.98601
2271.50635	0.98574
2269.45255	0.98515
2267.39874	0.98487
2265.34494	0.98523
2263.29114	0.98506
2261.23733	0.98382
2259.18353	0.98267
2257.12973	0.98285
2255.07592	0.98369
2253.02212	0.98375
2250.96832	0.98413
2248.91451	0.98556
2246.86071	0.98589
2244.80691	0.98465
2242.75310	0.98421
2240.69930	0.98500
2238.64550	0.98478
2236.59169	0.98343
2234.53789	0.98300
2232.48409	0.98353
2230.43029	0.98404
2228.37648	0.98493
2226.32268	0.98632
2224.26888	0.98723
2222.21507	0.98790
2220.16127	0.98828
2218.10747	0.98764
2216.05366	0.98711
2213.99986	0.98741
2211.94606	0.98744
2209.89225	0.98698
2207.83845	0.98619
2205.78465	0.98523
2203.73084	0.98463
2201.67704	0.98485
2199.62324	0.98688
2197.56943	0.98911
2195.51563	0.98950
2193.46183	0.98930
2191.40802	0.98843
2189.35422	0.98614
2187.30042	0.98339
2185.24661	0.98246
2183.19281	0.98358
2181.13901	0.98467
2179.08520	0.98509
2177.03140	0.98454
2174.97760	0.98452
2172.92380	0.98631
2170.86999	0.98762
2168.81619	0.98773
2166.76239	0.98852
2164.70858	0.98985
2162.65478	0.98908
2160.60098	0.98769
2158.54717	0.99131
2156.49337	0.99593
2154.43957	0.99508
2152.38576	0.99336
2150.33196	0.99333
2148.27816	0.99071
2146.22435	0.98627
2144.17055	0.98575
2142.11675	0.98836
2140.06294	0.98936
2138.00914	0.98839
2135.95534	0.98835
2133.90153	0.99033
2131.84773	0.99195
2129.79393	0.99103
2127.74012	0.98835
2125.68632	0.98656
2123.63252	0.98674
2121.57871	0.98767
2119.52491	0.98785
2117.47111	0.98644
2115.41731	0.98459
2113.36350	0.98430
2111.30970	0.98523
2109.25590	0.98545
2107.20209	0.98478
2105.14829	0.98491
2103.09449	0.98597
2101.04068	0.98662
2098.98688	0.98649
2096.93308	0.98671
2094.87927	0.98819
2092.82547	0.98949
2090.77167	0.98904
2088.71786	0.98790
2086.66406	0.98704
2084.61026	0.98597
2082.55645	0.98510
2080.50265	0.98537
2078.44885	0.98608
2076.39504	0.98614
2074.34124	0.98654
2072.28744	0.98793
2070.23363	0.98878
2068.17983	0.98834
2066.12603	0.98758
2064.07223	0.98798
2062.01842	0.98929
2059.96462	0.98948
2057.91082	0.98824
2055.85701	0.98722
2053.80321	0.98775
2051.74941	0.98845
2049.69560	0.98712
2047.64180	0.98488
2045.58800	0.98490
2043.53419	0.98689
2041.48039	0.98803
2039.42659	0.98867
2037.37278	0.98878
2035.31898	0.98767
2033.26518	0.98726
2031.21137	0.98754
2029.15757	0.98839
2027.10377	0.99083
2025.04996	0.99321
2022.99616	0.99369
2020.94236	0.99246
2018.88855	0.99140
2016.83475	0.99145
2014.78095	0.99134
2012.72714	0.99178
2010.67334	0.99254
2008.61954	0.99187
2006.56574	0.99100
2004.51193	0.99165
2002.45813	0.99350
2000.40433	0.99346
1998.35052	0.99102
1996.29672	0.98899
1994.24292	0.98840
1992.18911	0.98930
1990.13531	0.99001
1988.08151	0.99078
1986.02770	0.99169
1983.97390	0.98999
1981.92010	0.98826
1979.86629	0.98942
1977.81249	0.99119
1975.75869	0.99236
1973.70488	0.99383
1971.65108	0.99498
1969.59728	0.99435
1967.54347	0.99231
1965.48967	0.99107
1963.43587	0.99126
1961.38206	0.99152
1959.32826	0.99200
1957.27446	0.99266
1955.22066	0.99247
1953.16685	0.99162
1951.11305	0.99052
1949.05925	0.98982
1947.00544	0.98997
1944.95164	0.98993
1942.89784	0.98931
1940.84403	0.98880
1938.79023	0.98858
1936.73643	0.98910
1934.68262	0.99014
1932.62882	0.99071
1930.57502	0.99042
1928.52121	0.98968
1926.46741	0.98922
1924.41361	0.98930
1922.35980	0.99017
1920.30600	0.99067
1918.25220	0.98990
1916.19839	0.98952
1914.14459	0.98986
1912.09079	0.98928
1910.03698	0.98854
1907.98318	0.98872
1905.92938	0.98843
1903.87557	0.98739
1901.82177	0.98667
1899.76797	0.98696
1897.71417	0.98802
1895.66036	0.98881
1893.60656	0.98904
1891.55276	0.98868
1889.49895	0.98800
1887.44515	0.98765
1885.39135	0.98761
1883.33754	0.98766
1881.28374	0.98747
1879.22994	0.98747
1877.17613	0.98778
1875.12233	0.98805
1873.06853	0.98843
1871.01472	0.98832
1868.96092	0.98778
1866.90712	0.98771
1864.85331	0.98754
1862.79951	0.98718
1860.74571	0.98733
1858.69190	0.98764
1856.63810	0.98804
1854.58430	0.98891
1852.53049	0.98913
1850.47669	0.98823
1848.42289	0.98767
1846.36908	0.98799
1844.31528	0.98823
1842.26148	0.98810
1840.20768	0.98802
1838.15387	0.98816
1836.10007	0.98841
1834.04627	0.98836
1831.99246	0.98803
1829.93866	0.98802
1827.88486	0.98813
1825.83105	0.98787
1823.77725	0.98755
1821.72345	0.98752
1819.66964	0.98798
1817.61584	0.98844
1815.56204	0.98806
1813.50823	0.98736
1811.45443	0.98702
1809.40063	0.98682
1807.34682	0.98667
1805.29302	0.98653
1803.23922	0.98641
1801.18541	0.98662
1799.13161	0.98699
1797.07781	0.98702
1795.02400	0.98676
1792.97020	0.98627
1790.91640	0.98575
1788.86260	0.98553
1786.80879	0.98528
1784.75499	0.98507
1782.70119	0.98510
1780.64738	0.98510
1778.59358	0.98500
1776.53978	0.98487
1774.48597	0.98495
1772.43217	0.98517
1770.37837	0.98464
1768.32456	0.98387
1766.27076	0.98384
1764.21696	0.98402
1762.16315	0.98382
1760.10935	0.98356
1758.05555	0.98372
1756.00174	0.98381
1753.94794	0.98364
1751.89414	0.98341
1749.84033	0.98291
1747.78653	0.98227
1745.73273	0.98158
1743.67892	0.98089
1741.62512	0.98017
1739.57132	0.97910
1737.51751	0.97822
1735.46371	0.97776
1733.40991	0.97638
1731.35611	0.97427
1729.30230	0.97244
1727.24850	0.97081
1725.19470	0.96927
1723.14089	0.96769
1721.08709	0.96641
1719.03329	0.96556
1716.97948	0.96448
1714.92568	0.96234
1712.87188	0.96018
1710.81807	0.95851
1708.76427	0.95683
1706.71047	0.95421
1704.65666	0.95114
1702.60286	0.94882
1700.54906	0.94565
1698.49525	0.94084
1696.44145	0.93569
1694.38765	0.93014
1692.33384	0.92581
1690.28004	0.92175
1688.22624	0.91742
1686.17243	0.91359
1684.11863	0.90853
1682.06483	0.90292
1680.01103	0.89827
1677.95722	0.89373
1675.90342	0.88888
1673.84962	0.88435
1671.79581	0.88087
1669.74201	0.87671
1667.68821	0.87214
1665.63440	0.86849
1663.58060	0.86432
1661.52680	0.85969
1659.47299	0.85631
1657.41919	0.85386
1655.36539	0.85152
1653.31158	0.84774
1651.25778	0.84392
1649.20398	0.84190
1647.15017	0.83970
1645.09637	0.83782
1643.04257	0.83704
1640.98876	0.83649
1638.93496	0.83605
1636.88116	0.83609
1634.82735	0.83687
1632.77355	0.83785
1630.71975	0.83903
1628.66594	0.84077
1626.61214	0.84282
1624.55834	0.84514
1622.50454	0.84798
1620.45073	0.85055
1618.39693	0.85311
1616.34313	0.85711
1614.28932	0.86129
1612.23552	0.86463
1610.18172	0.86832
1608.12791	0.87266
1606.07411	0.87676
1604.02031	0.88027
1601.96650	0.88336
1599.91270	0.88592
1597.85890	0.88834
1595.80509	0.89111
1593.75129	0.89392
1591.69749	0.89604
1589.64368	0.89755
1587.58988	0.89884
1585.53608	0.89994
1583.48227	0.90079
1581.42847	0.90132
1579.37467	0.90135
1577.32086	0.90072
1575.26706	0.89956
1573.21326	0.89857
1571.15945	0.89736
1569.10565	0.89536
1567.05185	0.89334
1564.99805	0.89142
1562.94424	0.88936
1560.89044	0.88722
1558.83664	0.88411
1556.78283	0.88093
1554.72903	0.87857
1552.67523	0.87642
1550.62142	0.87420
1548.56762	0.87173
1546.51382	0.86953
1544.46001	0.86735
1542.40621	0.86494
1540.35241	0.86202
1538.29860	0.85944
1536.24480	0.85842
1534.19100	0.85745
1532.13719	0.85596
1530.08339	0.85505
1528.02959	0.85454
1525.97578	0.85411
1523.92198	0.85393
1521.86818	0.85337
1519.81437	0.85239
1517.76057	0.85161
1515.70677	0.85104
1513.65297	0.85117
1511.59916	0.85243
1509.54536	0.85450
1507.49156	0.85764
1505.43775	0.86182
1503.38395	0.86453
1501.33015	0.86658
1499.27634	0.86905
1497.22254	0.87231
1495.16874	0.87566
1493.11493	0.87829
1491.06113	0.88072
1489.00733	0.88318
1486.95352	0.88480
1484.89972	0.88589
1482.84592	0.88683
1480.79211	0.88766
1478.73831	0.88829
1476.68451	0.88866
1474.63070	0.88887
1472.57690	0.88879
1470.52310	0.88878
1468.46929	0.88893
1466.41549	0.88879
1464.36169	0.88809
1462.30788	0.88731
1460.25408	0.88665
1458.20028	0.88506
1456.14648	0.88253
1454.09267	0.88140
1452.03887	0.88090
1449.98507	0.88067
1447.93126	0.88098
1445.87746	0.88125
1443.82366	0.88130
1441.76985	0.88159
1439.71605	0.88222
1437.66225	0.88332
1435.60844	0.88472
1433.55464	0.88562
1431.50084	0.88639
1429.44703	0.88740
1427.39323	0.88830
1425.33943	0.88898
1423.28562	0.88960
1421.23182	0.89030
1419.17802	0.89118
1417.12421	0.89175
1415.07041	0.89191
1413.01661	0.89229
1410.96280	0.89304
1408.90900	0.89407
1406.85520	0.89522
1404.80139	0.89624
1402.74759	0.89721
1400.69379	0.89846
1398.63999	0.90000
1396.58618	0.90144
1394.53238	0.90261
1392.47858	0.90366
1390.42477	0.90471
1388.37097	0.90584
1386.31717	0.90687
1384.26336	0.90774
1382.20956	0.90888
1380.15576	0.91047
1378.10195	0.91213
1376.04815	0.91358
1373.99435	0.91490
1371.94054	0.91596
1369.88674	0.91687
1367.83294	0.91812
1365.77913	0.91952
1363.72533	0.92071
1361.67153	0.92171
1359.61772	0.92246
1357.56392	0.92296
1355.51012	0.92315
1353.45631	0.92321
1351.40251	0.92361
1349.34871	0.92420
1347.29491	0.92447
1345.24110	0.92444
1343.18730	0.92436
1341.13350	0.92421
1339.07969	0.92394
1337.02589	0.92394
1334.97209	0.92426
1332.91828	0.92438
1330.86448	0.92409
1328.81068	0.92388
1326.75687	0.92405
1324.70307	0.92410
1322.64927	0.92372
1320.59546	0.92341
1318.54166	0.92347
1316.48786	0.92370
1314.43405	0.92412
1312.38025	0.92453
1310.32645	0.92478
1308.27264	0.92502
1306.21884	0.92531
1304.16504	0.92567
1302.11123	0.92610
1300.05743	0.92639
1298.00363	0.92655
1295.94982	0.92670
1293.89602	0.92687
1291.84222	0.92701
1289.78842	0.92696
1287.73461	0.92679
1285.68081	0.92647
1283.62701	0.92597
1281.57320	0.92545
1279.51940	0.92497
1277.46560	0.92441
1275.41179	0.92389
1273.35799	0.92352
1271.30419	0.92307
1269.25038	0.92258
1267.19658	0.92210
1265.14278	0.92146
1263.08897	0.92066
1261.03517	0.91989
1258.98137	0.91920
1256.92756	0.91856
1254.87376	0.91774
1252.81996	0.91679
1250.76615	0.91583
1248.71235	0.91471
1246.65855	0.91355
1244.60474	0.91275
1242.55094	0.91211
1240.49714	0.91143
1238.44334	0.91068
1236.38953	0.90963
1234.33573	0.90866
1232.28193	0.90831
1230.22812	0.90847
1228.17432	0.90872
1226.12052	0.90864
1224.06671	0.90820
1222.01291	0.90758
1219.95911	0.90686
1217.90530	0.90610
1215.85150	0.90515
1213.79770	0.90381
1211.74389	0.90199
1209.69009	0.89995
1207.63629	0.89774
1205.58248	0.89496
1203.52868	0.89200
1201.47488	0.88929
1199.42107	0.88651
1197.36727	0.88358
1195.31347	0.88059
1193.25966	0.87754
1191.20586	0.87438
1189.15206	0.87082
1187.09825	0.86700
1185.04445	0.86332
1182.99065	0.85955
1180.93685	0.85566
1178.88304	0.85209
1176.82924	0.84867
1174.77544	0.84500
1172.72163	0.84137
1170.66783	0.83810
1168.61403	0.83508
1166.56022	0.83227
1164.50642	0.82960
1162.45262	0.82729
1160.39881	0.82586
1158.34501	0.82507
1156.29121	0.82410
1154.23740	0.82270
1152.18360	0.82108
1150.12980	0.81935
1148.07599	0.81758
1146.02219	0.81576
1143.96839	0.81422
1141.91458	0.81349
1139.86078	0.81312
1137.80698	0.81216
1135.75317	0.81056
1133.69937	0.80873
1131.64557	0.80688
1129.59176	0.80511
1127.53796	0.80323
1125.48416	0.80076
1123.43036	0.79782
1121.37655	0.79497
1119.32275	0.79182
1117.26895	0.78797
1115.21514	0.78415
1113.16134	0.78049
1111.10754	0.77659
1109.05373	0.77284
1106.99993	0.76942
1104.94613	0.76612
1102.89232	0.76306
1100.83852	0.76011
1098.78472	0.75708
1096.73091	0.75400
1094.67711	0.75131
1092.62331	0.74956
1090.56950	0.74831
1088.51570	0.74691
1086.46190	0.74535
1084.40809	0.74363
1082.35429	0.74200
1080.30049	0.74072
1078.24668	0.73962
1076.19288	0.73825
1074.13908	0.73639
1072.08528	0.73425
1070.03147	0.73225
1067.97767	0.73027
1065.92387	0.72784
1063.87006	0.72493
1061.81626	0.72162
1059.76246	0.71842
1057.70865	0.71568
1055.65485	0.71237
1053.60105	0.70779
1051.54724	0.70292
1049.49344	0.69805
1047.43964	0.69264
1045.38583	0.68685
1043.33203	0.68056
1041.27823	0.67367
1039.22442	0.66719
1037.17062	0.66175
1035.11682	0.65682
1033.06301	0.65190
1031.00921	0.64729
1028.95541	0.64357
1026.90160	0.64071
1024.84780	0.63822
1022.79400	0.63577
1020.74019	0.63309
1018.68639	0.63002
1016.63259	0.62710
1014.57879	0.62466
1012.52498	0.62218
1010.47118	0.61940
1008.41738	0.61710
1006.36357	0.61567
1004.30977	0.61443
1002.25597	0.61317
1000.20216	0.61260
998.14836	0.61316
996.09456	0.61429
994.04075	0.61540
991.98695	0.61660
989.93315	0.61807
987.87934	0.62029
985.82554	0.62383
983.77174	0.62846
981.71793	0.63389
979.66413	0.64044
977.61033	0.64820
975.55652	0.65687
973.50272	0.66616
971.44892	0.67580
969.39511	0.68551
967.34131	0.69518
965.28751	0.70441
963.23371	0.71288
961.17990	0.72090
959.12610	0.72870
957.07230	0.73587
955.01849	0.74173
952.96469	0.74683
950.91089	0.75255
948.85708	0.75854
946.80328	0.76369
944.74948	0.76808
942.69567	0.77206
940.64187	0.77581
938.58807	0.77968
936.53426	0.78368
934.48046	0.78752
932.42666	0.79085
930.37285	0.79363
928.31905	0.79653
926.26525	0.79938
924.21144	0.80162
922.15764	0.80350
920.10384	0.80497
918.05003	0.80596
915.99623	0.80666
913.94243	0.80761
911.88862	0.80948
909.83482	0.81210
907.78102	0.81554
905.72722	0.81996
903.67341	0.82502
901.61961	0.83004
899.56581	0.83447
897.51200	0.83839
895.45820	0.84185
893.40440	0.84485
891.35059	0.84746
889.29679	0.84963
887.24299	0.85129
885.18918	0.85251
883.13538	0.85294
881.08158	0.85171
879.02777	0.84949
876.97397	0.84863
874.92017	0.85053
872.86636	0.85458
870.81256	0.85871
868.75876	0.86113
866.70495	0.86169
864.65115	0.86066
862.59735	0.85930
860.54354	0.85943
858.48974	0.86139
856.43594	0.86451
854.38213	0.86767
852.32833	0.87023
850.27453	0.87217
848.22073	0.87281
846.16692	0.87183
844.11312	0.87043
842.05932	0.86961
840.00551	0.86919
837.95171	0.86834
835.89791	0.86664
833.84410	0.86489
831.79030	0.86361
829.73650	0.86270
827.68269	0.86209
825.62889	0.86149
823.57509	0.86116
821.52128	0.86086
819.46748	0.86008
817.41368	0.85922
815.35987	0.85851
813.30607	0.85762
811.25227	0.85558
809.19846	0.85119
807.14466	0.84498
805.09086	0.83844
803.03705	0.83168
800.98325	0.82560
798.92945	0.82241
796.87565	0.82234
794.82184	0.82354
792.76804	0.82435
790.71424	0.82435
788.66043	0.82377
786.60663	0.82257
784.55283	0.82039
782.49902	0.81722
780.44522	0.81433
778.39142	0.81362
776.33761	0.81561
774.28381	0.81830
772.23001	0.81937
770.17620	0.81833
768.12240	0.81622
766.06860	0.81406
764.01479	0.81165
761.96099	0.80901
759.90719	0.80689
757.85338	0.80587
755.79958	0.80615
753.74578	0.80634
751.69197	0.80532
749.63817	0.80386
747.58437	0.80250
745.53056	0.80169
743.47676	0.80148
741.42296	0.80138
739.36916	0.80156
737.31535	0.80199
735.26155	0.80198
733.20775	0.80130
731.15394	0.80061
729.10014	0.79991
727.04634	0.79808
724.99253	0.79564
722.93873	0.79456
720.88493	0.79502
718.83112	0.79536
716.77732	0.79503
714.72352	0.79483
712.66971	0.79484
710.61591	0.79420
708.56211	0.79240
706.50830	0.79059
704.45450	0.78926
702.40070	0.78689
700.34689	0.78305
698.29309	0.77913
696.23929	0.77650
694.18548	0.77560
692.13168	0.77565
690.07788	0.77515
688.02408	0.77402
685.97027	0.77291
683.91647	0.77125
681.86267	0.76889
679.80886	0.76729
677.75506	0.76726
675.70126	0.76723
673.64745	0.76543
671.59365	0.76265
669.53985	0.76061
667.48604	0.76006
665.43224	0.76004
663.37844	0.75973
661.32463	0.75912
659.27083	0.75721
657.21703	0.75392
655.16322	0.75025
653.10942	0.74623
651.05562	0.74292
649.00181	0.74129
646.94801	0.74106
644.89421	0.74161
642.84040	0.74188
640.78660	0.74174
638.73280	0.74188
636.67899	0.74202
634.62519	0.74201
632.57139	0.74215
630.51759	0.74147
628.46378	0.73959
626.40998	0.73863
624.35618	0.73949
622.30237	0.73994
620.24857	0.73817
618.19477	0.73467
616.14096	0.73083
614.08716	0.72731
612.03336	0.72421
609.97955	0.72109
607.92575	0.71767
605.87195	0.71471
603.81814	0.71219
601.76434	0.70984
599.71054	0.70741
597.65673	0.70493
595.60293	0.70290
593.54913	0.69958
591.49532	0.69464
589.44152	0.69156
587.38772	0.69086
585.33391	0.69005
583.28011	0.68857
581.22631	0.68774
579.17250	0.68778
577.11870	0.68717
575.06490	0.68568
573.01110	0.68502
570.95729	0.68516
568.90349	0.68440
566.84969	0.68236
564.79588	0.67965
562.74208	0.67654
560.68828	0.67303
558.63447	0.66991
556.58067	0.66739
554.52687	0.66514
552.47306	0.66276
550.41926	0.66004
548.36546	0.65730
546.31165	0.65308
544.25785	0.64713
542.20405	0.64173
540.15024	0.63717
538.09644	0.63240
536.04264	0.62702
533.98883	0.62165
531.93503	0.61831
529.88123	0.61707
527.82742	0.61538
525.77362	0.61346
523.71982	0.61336
521.66602	0.61442
519.61221	0.61522
517.55841	0.61610
515.50461	0.61799
513.45080	0.62080
511.39700	0.62306
509.34320	0.62282
507.28939	0.62119
505.23559	0.62209
503.18179	0.62560
501.12798	0.62746
499.07418	0.62616
497.02038	0.62422
494.96657	0.62293
492.91277	0.62111
490.85897	0.61857
488.80516	0.61548
486.75136	0.60994
484.69756	0.60121
482.64375	0.59131
480.58995	0.58289
478.53615	0.57574
476.48234	0.56806
474.42854	0.55961
472.37474	0.55146
470.32093	0.54645
468.26713	0.54492
466.21333	0.54351
464.15953	0.54053
462.10572	0.53752
460.05192	0.53644
457.99812	0.53860
455.94431	0.54417
453.89051	0.54898
451.83671	0.55158
449.78290	0.55484
447.72910	0.55754
445.67530	0.55795
443.62149	0.55814
441.56769	0.55827
439.51389	0.55725
437.46008	0.55394
435.40628	0.54958
433.35248	0.54621
431.29867	0.54286
429.24487	0.53912
427.19107	0.53586
425.13726	0.53654
423.08346	0.54160
421.02966	0.54385
418.97585	0.54262
416.92205	0.54465
414.86825	0.54765
412.81445	0.55058
410.76064	0.55525
408.70684	0.56137
406.65304	0.56677
404.59923	0.56886
402.54543	0.56827
400.49163	0.56685
398.43782	0.56610
