3996.70104	0.95537
3994.64724	0.95579
3992.59344	0.95639
3990.53964	0.95643
3988.48583	0.95644
3986.43203	0.95668
3984.37823	0.95691
3982.32442	0.95680
3980.27062	0.95632
3978.21682	0.95596
3976.16301	0.95576
3974.10921	0.95574
3972.05541	0.95598
3970.00160	0.95592
3967.94780	0.95564
3965.89400	0.95581
3963.84019	0.95584
3961.78639	0.95542
3959.73259	0.95544
3957.67878	0.95596
3955.62498	0.95602
3953.57118	0.95570
3951.51737	0.95578
3949.46357	0.95597
3947.40977	0.95605
3945.35596	0.95631
3943.30216	0.95644
3941.24836	0.95616
3939.19455	0.95609
3937.14075	0.95668
3935.08695	0.95750
3933.03315	0.95757
3930.97934	0.95682
3928.92554	0.95635
3926.87174	0.95656
3924.81793	0.95705
3922.76413	0.95731
3920.71033	0.95686
3918.65652	0.95605
3916.60272	0.95591
3914.54892	0.95602
3912.49511	0.95585
3910.44131	0.95602
3908.38751	0.95654
3906.33370	0.95670
3904.27990	0.95644
3902.22610	0.95674
3900.17229	0.95736
3898.11849	0.95729
3896.06469	0.95687
3894.01088	0.95685
3891.95708	0.95733
3889.90328	0.95750
3887.84947	0.95725
3885.79567	0.95712
3883.74187	0.95729
3881.68807	0.95766
3879.63426	0.95800
3877.58046	0.95809
3875.52666	0.95789
3873.47285	0.95740
3871.41905	0.95703
3869.36525	0.95717
3867.31144	0.95787
3865.25764	0.95858
3863.20384	0.95837
3861.15003	0.95726
3859.09623	0.95629
3857.04243	0.95610
3854.98862	0.95630
3852.93482	0.95579
3850.88102	0.95601
3848.82721	0.95707
3846.77341	0.95755
3844.71961	0.95772
3842.66580	0.95803
3840.61200	0.95787
3838.55820	0.95770
3836.50439	0.95793
3834.45059	0.95773
3832.39679	0.95731
3830.34298	0.95720
3828.28918	0.95716
3826.23538	0.95687
3824.18158	0.95684
3822.12777	0.95719
3820.07397	0.95742
3818.02017	0.95755
3815.96636	0.95783
3813.91256	0.95795
3811.85876	0.95760
3809.80495	0.95697
3807.75115	0.95628
3805.69735	0.95620
3803.64354	0.95685
3801.58974	0.95740
3799.53594	0.95766
3797.48213	0.95772
3795.42833	0.95733
3793.37453	0.95718
3791.32072	0.95751
3789.26692	0.95755
3787.21312	0.95717
3785.15931	0.95690
3783.10551	0.95713
3781.05171	0.95749
3778.99790	0.95768
3776.94410	0.95817
3774.89030	0.95867
3772.83650	0.95864
3770.78269	0.95852
3768.72889	0.95846
3766.67509	0.95816
3764.62128	0.95830
3762.56748	0.95891
3760.51368	0.95923
3758.45987	0.95910
3756.40607	0.95878
3754.35227	0.95870
3752.29846	0.95906
3750.24466	0.95921
3748.19086	0.95891
3746.13705	0.95872
3744.08325	0.95895
3742.02945	0.95965
3739.97564	0.95996
3737.92184	0.95965
3735.86804	0.95918
3733.81423	0.95938
3731.76043	0.95997
3729.70663	0.96021
3727.65282	0.96005
3725.59902	0.95958
3723.54522	0.95885
3721.49141	0.95832
3719.43761	0.95786
3717.38381	0.95708
3715.33001	0.95663
3713.27620	0.95669
3711.22240	0.95646
3709.16860	0.95533
3707.11479	0.95401
3705.06099	0.95323
3703.00719	0.95254
3700.95338	0.95102
3698.89958	0.94923
3696.84578	0.94826
3694.79197	0.94809
3692.73817	0.94814
3690.68437	0.94861
3688.63056	0.94981
3686.57676	0.95025
3684.52296	0.95004
3682.46915	0.94988
3680.41535	0.94975
3678.36155	0.94999
3676.30774	0.95035
3674.25394	0.94970
3672.20014	0.94900
3670.14633	0.94863
3668.09253	0.94772
3666.03873	0.94688
3663.98492	0.94660
3661.93112	0.94631
3659.87732	0.94548
3657.82352	0.94455
3655.76971	0.94424
3653.71591	0.94463
3651.66211	0.94525
3649.60830	0.94518
3647.55450	0.94354
3645.50070	0.94205
3643.44689	0.94142
3641.39309	0.94076
3639.33929	0.94003
3637.28548	0.93942
3635.23168	0.93880
3633.17788	0.93867
3631.12407	0.93869
3629.07027	0.93732
3627.01647	0.93554
3624.96266	0.93497
3622.90886	0.93433
3620.85506	0.93347
3618.80125	0.93342
3616.74745	0.93409
3614.69365	0.93480
3612.63984	0.93534
3610.58604	0.93541
3608.53224	0.93530
3606.47844	0.93581
3604.42463	0.93678
3602.37083	0.93712
3600.31703	0.93646
3598.26322	0.93600
3596.20942	0.93592
3594.15562	0.93533
3592.10181	0.93516
3590.04801	0.93604
3587.99421	0.93641
3585.94040	0.93577
3583.88660	0.93599
3581.83280	0.93679
3579.77899	0.93670
3577.72519	0.93565
3575.67139	0.93470
3573.61758	0.93457
3571.56378	0.93500
3569.50998	0.93563
3567.45617	0.93603
3565.40237	0.93536
3563.34857	0.93462
3561.29476	0.93480
3559.24096	0.93514
3557.18716	0.93463
3555.13335	0.93373
3553.07955	0.93316
3551.02575	0.93273
3548.97195	0.93236
3546.91814	0.93237
3544.86434	0.93306
3542.81054	0.93359
3540.75673	0.93303
3538.70293	0.93232
3536.64913	0.93215
3534.59532	0.93204
3532.54152	0.93215
3530.48772	0.93258
3528.43391	0.93264
3526.38011	0.93216
3524.32631	0.93161
3522.27250	0.93115
3520.21870	0.93066
3518.16490	0.93037
3516.11109	0.93040
3514.05729	0.93048
3512.00349	0.93037
3509.94968	0.93017
3507.89588	0.93023
3505.84208	0.93054
3503.78827	0.93066
3501.73447	0.93042
3499.68067	0.93006
3497.62687	0.92988
3495.57306	0.93004
3493.51926	0.93008
3491.46546	0.92982
3489.41165	0.92959
3487.35785	0.92944
3485.30405	0.92902
3483.25024	0.92841
3481.19644	0.92807
3479.14264	0.92806
3477.08883	0.92811
3475.03503	0.92796
3472.98123	0.92760
3470.92742	0.92735
3468.87362	0.92705
3466.81982	0.92649
3464.76601	0.92627
3462.71221	0.92663
3460.65841	0.92678
3458.60460	0.92622
3456.55080	0.92555
3454.49700	0.92553
3452.44319	0.92573
3450.38939	0.92564
3448.33559	0.92527
3446.28178	0.92438
3444.22798	0.92350
3442.17418	0.92321
3440.12038	0.92314
3438.06657	0.92316
3436.01277	0.92351
3433.95897	0.92394
3431.90516	0.92407
3429.85136	0.92408
3427.79756	0.92400
3425.74375	0.92358
3423.68995	0.92325
3421.63615	0.92319
3419.58234	0.92279
3417.52854	0.92235
3415.47474	0.92243
3413.42093	0.92261
3411.36713	0.92257
3409.31333	0.92263
3407.25952	0.92290
3405.20572	0.92284
3403.15192	0.92224
3401.09811	0.92152
3399.04431	0.92107
3396.99051	0.92111
3394.93670	0.92140
3392.88290	0.92149
3390.82910	0.92140
3388.77529	0.92148
3386.72149	0.92164
3384.66769	0.92162
3382.61389	0.92129
3380.56008	0.92038
3378.50628	0.91989
3376.45248	0.92085
3374.39867	0.92194
3372.34487	0.92206
3370.29107	0.92193
3368.23726	0.92187
3366.18346	0.92156
3364.12966	0.92125
3362.07585	0.92114
3360.02205	0.92106
3357.96825	0.92129
3355.91444	0.92189
3353.86064	0.92235
3351.80684	0.92242
3349.75303	0.92217
3347.69923	0.92203
3345.64543	0.92240
3343.59162	0.92283
3341.53782	0.92301
3339.48402	0.92320
3337.43021	0.92344
3335.37641	0.92364
3333.32261	0.92371
3331.26881	0.92365
3329.21500	0.92386
3327.16120	0.92409
3325.10740	0.92378
3323.05359	0.92369
3320.99979	0.92421
3318.94599	0.92476
3316.89218	0.92504
3314.83838	0.92489
3312.78458	0.92449
3310.73077	0.92438
3308.67697	0.92452
3306.62317	0.92474
3304.56936	0.92518
3302.51556	0.92537
3300.46176	0.92516
3298.40795	0.92544
3296.35415	0.92613
3294.30035	0.92606
3292.24654	0.92573
3290.19274	0.92628
3288.13894	0.92696
3286.08513	0.92712
3284.03133	0.92710
3281.97753	0.92687
3279.92372	0.92654
3277.86992	0.92653
3275.81612	0.92653
3273.76232	0.92609
3271.70851	0.92608
3269.65471	0.92706
3267.60091	0.92764
3265.54710	0.92734
3263.49330	0.92738
3261.43950	0.92792
3259.38569	0.92812
3257.33189	0.92795
3255.27809	0.92819
3253.22428	0.92865
3251.17048	0.92850
3249.11668	0.92842
3247.06287	0.92914
3245.00907	0.92994
3242.95527	0.93010
3240.90146	0.92990
3238.84766	0.92986
3236.79386	0.93009
3234.74005	0.93029
3232.68625	0.93026
3230.63245	0.93022
3228.57864	0.93007
3226.52484	0.93028
3224.47104	0.93118
3222.41724	0.93177
3220.36343	0.93178
3218.30963	0.93166
3216.25583	0.93145
3214.20202	0.93133
3212.14822	0.93156
3210.09442	0.93197
3208.04061	0.93207
3205.98681	0.93183
3203.93301	0.93189
3201.87920	0.93256
3199.82540	0.93336
3197.77160	0.93365
3195.71779	0.93359
3193.66399	0.93379
3191.61019	0.93399
3189.55638	0.93388
3187.50258	0.93408
3185.44878	0.93453
3183.39497	0.93462
3181.34117	0.93450
3179.28737	0.93454
3177.23356	0.93467
3175.17976	0.93475
3173.12596	0.93488
3171.07215	0.93546
3169.01835	0.93628
3166.96455	0.93666
3164.91075	0.93686
3162.85694	0.93721
3160.80314	0.93750
3158.74934	0.93737
3156.69553	0.93711
3154.64173	0.93753
3152.58793	0.93822
3150.53412	0.93826
3148.48032	0.93805
3146.42652	0.93811
3144.37271	0.93846
3142.31891	0.93904
3140.26511	0.93958
3138.21130	0.93980
3136.15750	0.93980
3134.10370	0.93964
3132.04989	0.93950
3129.99609	0.93996
3127.94229	0.94075
3125.88848	0.94109
3123.83468	0.94129
3121.78088	0.94162
3119.72707	0.94174
3117.67327	0.94129
3115.61947	0.94068
3113.56566	0.94051
3111.51186	0.94057
3109.45806	0.94053
3107.40426	0.94044
3105.35045	0.94042
3103.29665	0.94043
3101.24285	0.94073
3099.18904	0.94116
3097.13524	0.94111
3095.08144	0.94081
3093.02763	0.94085
3090.97383	0.94094
3088.92003	0.94032
3086.86622	0.93892
3084.81242	0.93717
3082.75862	0.93570
3080.70481	0.93527
3078.65101	0.93596
3076.59721	0.93708
3074.54340	0.93806
3072.48960	0.93877
3070.43580	0.93881
3068.38199	0.93777
3066.32819	0.93616
3064.27439	0.93485
3062.22058	0.93421
3060.16678	0.93398
3058.11298	0.93398
3056.05918	0.93444
3054.00537	0.93556
3051.95157	0.93716
3049.89777	0.93861
3047.84396	0.93960
3045.79016	0.94028
3043.73636	0.94059
3041.68255	0.94045
3039.62875	0.94002
3037.57495	0.93941
3035.52114	0.93845
3033.46734	0.93643
3031.41354	0.93269
3029.35973	0.92790
3027.30593	0.92369
3025.25213	0.92171
3023.19832	0.92279
3021.14452	0.92618
3019.09072	0.93040
3017.03691	0.93433
3014.98311	0.93735
3012.92931	0.93922
3010.87550	0.94040
3008.82170	0.94132
3006.76790	0.94163
3004.71409	0.94116
3002.66029	0.94068
3000.60649	0.94098
2998.55269	0.94188
2996.49888	0.94284
2994.44508	0.94379
2992.39128	0.94478
2990.33747	0.94549
2988.28367	0.94564
2986.22987	0.94539
2984.17606	0.94537
2982.12226	0.94592
2980.06846	0.94609
2978.01465	0.94561
2975.96085	0.94532
2973.90705	0.94534
2971.85324	0.94533
2969.79944	0.94525
2967.74564	0.94486
2965.69183	0.94420
2963.63803	0.94374
2961.58423	0.94383
2959.53042	0.94420
2957.47662	0.94399
2955.42282	0.94315
2953.36901	0.94230
2951.31521	0.94150
2949.26141	0.94056
2947.20761	0.93957
2945.15380	0.93847
2943.10000	0.93705
2941.04620	0.93540
2938.99239	0.93347
2936.93859	0.93134
2934.88479	0.92896
2932.83098	0.92607
2930.77718	0.92288
2928.72338	0.91991
2926.66957	0.91756
2924.61577	0.91603
2922.56197	0.91519
2920.50816	0.91492
2918.45436	0.91524
2916.40056	0.91612
2914.34675	0.91739
2912.29295	0.91897
2910.23915	0.92102
2908.18534	0.92313
2906.13154	0.92498
2904.07774	0.92673
2902.02393	0.92829
2899.97013	0.92995
2897.91633	0.93175
2895.86252	0.93313
2893.80872	0.93418
2891.75492	0.93530
2889.70112	0.93630
2887.64731	0.93687
2885.59351	0.93736
2883.53971	0.93820
2881.48590	0.93922
2879.43210	0.94011
2877.37830	0.94071
2875.32449	0.94081
2873.27069	0.94089
2871.21689	0.94129
2869.16308	0.94140
2867.10928	0.94102
2865.05548	0.94070
2863.00167	0.94064
2860.94787	0.94035
2858.89407	0.93942
2856.84026	0.93804
2854.78646	0.93665
2852.73266	0.93540
2850.67885	0.93435
2848.62505	0.93422
2846.57125	0.93550
2844.51744	0.93723
2842.46364	0.93846
2840.40984	0.93947
2838.35603	0.94091
2836.30223	0.94291
2834.24843	0.94479
2832.19463	0.94589
2830.14082	0.94639
2828.08702	0.94677
2826.03322	0.94707
2823.97941	0.94726
2821.92561	0.94748
2819.87181	0.94770
2817.81800	0.94795
2815.76420	0.94817
2813.71040	0.94821
2811.65659	0.94832
2809.60279	0.94868
2807.54899	0.94888
2805.49518	0.94888
2803.44138	0.94900
2801.38758	0.94914
2799.33377	0.94929
2797.27997	0.94948
2795.22617	0.94945
2793.17236	0.94920
2791.11856	0.94906
2789.06476	0.94954
2787.01095	0.95044
2784.95715	0.95096
2782.90335	0.95097
2780.84955	0.95086
2778.79574	0.95081
2776.74194	0.95076
2774.68814	0.95077
2772.63433	0.95100
2770.58053	0.95110
2768.52673	0.95079
2766.47292	0.95040
2764.41912	0.95035
2762.36532	0.95057
2760.31151	0.95090
2758.25771	0.95133
2756.20391	0.95145
2754.15010	0.95122
2752.09630	0.95111
2750.04250	0.95119
2747.98869	0.95114
2745.93489	0.95104
2743.88109	0.95118
2741.82728	0.95150
2739.77348	0.95174
2737.71968	0.95179
2735.66587	0.95159
2733.61207	0.95133
2731.55827	0.95154
2729.50446	0.95199
2727.45066	0.95215
2725.39686	0.95197
2723.34306	0.95184
2721.28925	0.95189
2719.23545	0.95184
2717.18165	0.95183
2715.12784	0.95204
2713.07404	0.95212
2711.02024	0.95197
2708.96643	0.95186
2706.91263	0.95199
2704.85883	0.95210
2702.80502	0.95190
2700.75122	0.95178
2698.69742	0.95201
2696.64361	0.95230
2694.58981	0.95229
2692.53601	0.95213
2690.48220	0.95213
2688.42840	0.95227
2686.37460	0.95244
2684.32079	0.95255
2682.26699	0.95265
2680.21319	0.95285
2678.15938	0.95304
2676.10558	0.95303
2674.05178	0.95298
2671.99797	0.95314
2669.94417	0.95334
2667.89037	0.95327
2665.83657	0.95322
2663.78276	0.95338
2661.72896	0.95320
2659.67516	0.95277
2657.62135	0.95250
2655.56755	0.95244
2653.51375	0.95249
2651.45994	0.95274
2649.40614	0.95311
2647.35234	0.95332
2645.29853	0.95327
2643.24473	0.95300
2641.19093	0.95291
2639.13712	0.95310
2637.08332	0.95314
2635.02952	0.95300
2632.97571	0.95297
2630.92191	0.95298
2628.86811	0.95295
2626.81430	0.95309
2624.76050	0.95353
2622.70670	0.95381
2620.65289	0.95357
2618.59909	0.95329
2616.54529	0.95332
2614.49149	0.95347
2612.43768	0.95375
2610.38388	0.95421
2608.33008	0.95453
2606.27627	0.95469
2604.22247	0.95477
2602.16867	0.95461
2600.11486	0.95426
2598.06106	0.95407
2596.00726	0.95442
2593.95345	0.95500
2591.89965	0.95529
2589.84585	0.95557
2587.79204	0.95588
2585.73824	0.95567
2583.68444	0.95496
2581.63063	0.95456
2579.57683	0.95500
2577.52303	0.95560
2575.46922	0.95541
2573.41542	0.95470
2571.36162	0.95431
2569.30781	0.95445
2567.25401	0.95486
2565.20021	0.95523
2563.14640	0.95541
2561.09260	0.95553
2559.03880	0.95607
2556.98500	0.95676
2554.93119	0.95695
2552.87739	0.95706
2550.82359	0.95723
2548.76978	0.95689
2546.71598	0.95616
2544.66218	0.95578
2542.60837	0.95572
2540.55457	0.95534
2538.50077	0.95499
2536.44696	0.95506
2534.39316	0.95531
2532.33936	0.95563
2530.28555	0.95605
2528.23175	0.95633
2526.17795	0.95621
2524.12414	0.95586
2522.07034	0.95543
2520.01654	0.95530
2517.96273	0.95559
2515.90893	0.95586
2513.85513	0.95647
2511.80132	0.95729
2509.74752	0.95733
2507.69372	0.95691
2505.63992	0.95662
2503.58611	0.95617
2501.53231	0.95594
2499.47851	0.95639
2497.42470	0.95649
2495.37090	0.95626
2493.31710	0.95695
2491.26329	0.95772
2489.20949	0.95739
2487.15569	0.95679
2485.10188	0.95685
2483.04808	0.95676
2480.99428	0.95623
2478.94047	0.95616
2476.88667	0.95638
2474.83287	0.95653
2472.77906	0.95664
2470.72526	0.95618
2468.67146	0.95562
2466.61765	0.95594
2464.56385	0.95634
2462.51005	0.95609
2460.45624	0.95622
2458.40244	0.95702
2456.34864	0.95728
2454.29483	0.95691
2452.24103	0.95722
2450.18723	0.95795
2448.13343	0.95806
2446.07962	0.95780
2444.02582	0.95741
2441.97202	0.95675
2439.91821	0.95647
2437.86441	0.95678
2435.81061	0.95672
2433.75680	0.95619
2431.70300	0.95609
2429.64920	0.95685
2427.59539	0.95783
2425.54159	0.95825
2423.48779	0.95826
2421.43398	0.95818
2419.38018	0.95795
2417.32638	0.95737
2415.27257	0.95706
2413.21877	0.95755
2411.16497	0.95797
2409.11116	0.95804
2407.05736	0.95843
2405.00356	0.95859
2402.94975	0.95795
2400.89595	0.95746
2398.84215	0.95749
2396.78834	0.95762
2394.73454	0.95778
2392.68074	0.95793
2390.62694	0.95789
2388.57313	0.95764
2386.51933	0.95758
2384.46553	0.95798
2382.41172	0.95824
2380.35792	0.95774
2378.30412	0.95724
2376.25031	0.95748
2374.19651	0.95755
2372.14271	0.95720
2370.08890	0.95730
2368.03510	0.95739
2365.98130	0.95703
2363.92749	0.95651
2361.87369	0.95598
2359.81989	0.95604
2357.76608	0.95735
2355.71228	0.95872
2353.65848	0.95859
2351.60467	0.95766
2349.55087	0.95704
2347.49707	0.95657
2345.44326	0.95606
2343.38946	0.95612
2341.33566	0.95718
2339.28186	0.95815
2337.22805	0.95814
2335.17425	0.95761
2333.12045	0.95706
2331.06664	0.95682
2329.01284	0.95722
2326.95904	0.95773
2324.90523	0.95739
2322.85143	0.95646
2320.79763	0.95624
2318.74382	0.95693
2316.69002	0.95710
2314.63622	0.95649
2312.58241	0.95625
2310.52861	0.95637
2308.47481	0.95644
2306.42100	0.95659
2304.36720	0.95669
2302.31340	0.95658
2300.25959	0.95646
2298.20579	0.95649
2296.15199	0.95659
2294.09818	0.95667
2292.04438	0.95665
2289.99058	0.95670
2287.93677	0.95684
2285.88297	0.95680
2283.82917	0.95677
2281.77537	0.95670
2279.72156	0.95673
2277.66776	0.95713
2275.61396	0.95748
2273.56015	0.95802
2271.50635	0.95873
2269.45255	0.95884
2267.39874	0.95869
2265.34494	0.95873
2263.29114	0.95883
2261.23733	0.95856
2259.18353	0.95832
2257.12973	0.95924
2255.07592	0.96081
2253.02212	0.96206
2250.96832	0.96215
2248.91451	0.96157
2246.86071	0.96159
2244.80691	0.96125
2242.75310	0.96046
2240.69930	0.96064
2238.64550	0.96164
2236.59169	0.96209
2234.53789	0.96118
2232.48409	0.95981
2230.43029	0.95967
2228.37648	0.96017
2226.32268	0.95957
2224.26888	0.95943
2222.21507	0.96056
2220.16127	0.96107
2218.10747	0.96017
2216.05366	0.95869
2213.99986	0.95800
2211.94606	0.95894
2209.89225	0.96107
2207.83845	0.96303
2205.78465	0.96436
2203.73084	0.96457
2201.67704	0.96272
2199.62324	0.96048
2197.56943	0.95971
2195.51563	0.96048
2193.46183	0.96283
2191.40802	0.96442
2189.35422	0.96258
2187.30042	0.96037
2185.24661	0.96096
2183.19281	0.96117
2181.13901	0.95908
2179.08520	0.95791
2177.03140	0.95950
2174.97760	0.96181
2172.92380	0.96093
2170.86999	0.95826
2168.81619	0.95967
2166.76239	0.96463
2164.70858	0.96615
2162.65478	0.96284
2160.60098	0.96178
2158.54717	0.96449
2156.49337	0.96616
2154.43957	0.96763
2152.38576	0.96913
2150.33196	0.96818
2148.27816	0.96503
2146.22435	0.96228
2144.17055	0.96233
2142.11675	0.96432
2140.06294	0.96604
2138.00914	0.96632
2135.95534	0.96444
2133.90153	0.96275
2131.84773	0.96309
2129.79393	0.96336
2127.74012	0.96283
2125.68632	0.96253
2123.63252	0.96198
2121.57871	0.96128
2119.52491	0.96117
2117.47111	0.96131
2115.41731	0.96114
2113.36350	0.96040
2111.30970	0.95985
2109.25590	0.96037
2107.20209	0.96149
2105.14829	0.96229
2103.09449	0.96234
2101.04068	0.96111
2098.98688	0.95896
2096.93308	0.95850
2094.87927	0.96026
2092.82547	0.96150
2090.77167	0.96122
2088.71786	0.96050
2086.66406	0.96027
2084.61026	0.96124
2082.55645	0.96213
2080.50265	0.96145
2078.44885	0.96100
2076.39504	0.96198
2074.34124	0.96295
2072.28744	0.96295
2070.23363	0.96180
2068.17983	0.96087
2066.12603	0.96169
2064.07223	0.96283
2062.01842	0.96332
2059.96462	0.96353
2057.91082	0.96293
2055.85701	0.96211
2053.80321	0.96230
2051.74941	0.96247
2049.69560	0.96196
2047.64180	0.96193
2045.58800	0.96145
2043.53419	0.96022
2041.48039	0.96003
2039.42659	0.96098
2037.37278	0.96215
2035.31898	0.96283
2033.26518	0.96319
2031.21137	0.96296
2029.15757	0.96172
2027.10377	0.96141
2025.04996	0.96294
2022.99616	0.96389
2020.94236	0.96326
2018.88855	0.96210
2016.83475	0.96139
2014.78095	0.96220
2012.72714	0.96419
2010.67334	0.96728
2008.61954	0.96891
2006.56574	0.96576
2004.51193	0.96239
2002.45813	0.96301
2000.40433	0.96533
1998.35052	0.96674
1996.29672	0.96698
1994.24292	0.96675
1992.18911	0.96686
1990.13531	0.96725
1988.08151	0.96653
1986.02770	0.96494
1983.97390	0.96399
1981.92010	0.96407
1979.86629	0.96439
1977.81249	0.96431
1975.75869	0.96491
1973.70488	0.96656
1971.65108	0.96685
1969.59728	0.96571
1967.54347	0.96568
1965.48967	0.96650
1963.43587	0.96658
1961.38206	0.96566
1959.32826	0.96420
1957.27446	0.96346
1955.22066	0.96300
1953.16685	0.96158
1951.11305	0.96048
1949.05925	0.96127
1947.00544	0.96256
1944.95164	0.96214
1942.89784	0.96029
1940.84403	0.95953
1938.79023	0.96005
1936.73643	0.96042
1934.68262	0.96102
1932.62882	0.96207
1930.57502	0.96274
1928.52121	0.96264
1926.46741	0.96242
1924.41361	0.96283
1922.35980	0.96276
1920.30600	0.96162
1918.25220	0.96141
1916.19839	0.96237
1914.14459	0.96247
1912.09079	0.96185
1910.03698	0.96133
1907.98318	0.96085
1905.92938	0.96065
1903.87557	0.96105
1901.82177	0.96158
1899.76797	0.96188
1897.71417	0.96200
1895.66036	0.96156
1893.60656	0.96063
1891.55276	0.96042
1889.49895	0.96117
1887.44515	0.96206
1885.39135	0.96215
1883.33754	0.96086
1881.28374	0.95966
1879.22994	0.96002
1877.17613	0.96061
1875.12233	0.96050
1873.06853	0.96063
1871.01472	0.96094
1868.96092	0.96033
1866.90712	0.95899
1864.85331	0.95843
1862.79951	0.95900
1860.74571	0.96002
1858.69190	0.96052
1856.63810	0.96055
1854.58430	0.96083
1852.53049	0.96145
1850.47669	0.96181
1848.42289	0.96169
1846.36908	0.96159
1844.31528	0.96184
1842.26148	0.96195
1840.20768	0.96189
1838.15387	0.96177
1836.10007	0.96151
1834.04627	0.96173
1831.99246	0.96239
1829.93866	0.96226
1827.88486	0.96161
1825.83105	0.96160
1823.77725	0.96172
1821.72345	0.96138
1819.66964	0.96110
1817.61584	0.96116
1815.56204	0.96090
1813.50823	0.96014
1811.45443	0.95958
1809.40063	0.95978
1807.34682	0.95993
1805.29302	0.95899
1803.23922	0.95792
1801.18541	0.95822
1799.13161	0.95940
1797.07781	0.96025
1795.02400	0.96032
1792.97020	0.95985
1790.91640	0.95967
1788.86260	0.95999
1786.80879	0.96039
1784.75499	0.96047
1782.70119	0.96030
1780.64738	0.96033
1778.59358	0.96038
1776.53978	0.96036
1774.48597	0.96034
1772.43217	0.96033
1770.37837	0.96018
1768.32456	0.95962
1766.27076	0.95925
1764.21696	0.95958
1762.16315	0.96033
1760.10935	0.96076
1758.05555	0.96079
1756.00174	0.96058
1753.94794	0.95972
1751.89414	0.95854
1749.84033	0.95782
1747.78653	0.95757
1745.73273	0.95740
1743.67892	0.95724
1741.62512	0.95707
1739.57132	0.95700
1737.51751	0.95695
1735.46371	0.95711
1733.40991	0.95764
1731.35611	0.95771
1729.30230	0.95729
1727.24850	0.95689
1725.19470	0.95668
1723.14089	0.95675
1721.08709	0.95720
1719.03329	0.95791
1716.97948	0.95805
1714.92568	0.95725
1712.87188	0.95651
1710.81807	0.95607
1708.76427	0.95586
1706.71047	0.95558
1704.65666	0.95511
1702.60286	0.95517
1700.54906	0.95578
1698.49525	0.95561
1696.44145	0.95431
1694.38765	0.95294
1692.33384	0.95224
1690.28004	0.95168
1688.22624	0.95091
1686.17243	0.95028
1684.11863	0.94953
1682.06483	0.94851
1680.01103	0.94756
1677.95722	0.94645
1675.90342	0.94514
1673.84962	0.94425
1671.79581	0.94392
1669.74201	0.94304
1667.68821	0.94175
1665.63440	0.94095
1663.58060	0.94019
1661.52680	0.93964
1659.47299	0.93957
1657.41919	0.93958
1655.36539	0.93975
1653.31158	0.93984
1651.25778	0.93942
1649.20398	0.93946
1647.15017	0.93959
1645.09637	0.93915
1643.04257	0.93892
1640.98876	0.93916
1638.93496	0.93947
1636.88116	0.93965
1634.82735	0.93966
1632.77355	0.93962
1630.71975	0.93962
1628.66594	0.93972
1626.61214	0.94017
1624.55834	0.94079
1622.50454	0.94128
1620.45073	0.94163
1618.39693	0.94180
1616.34313	0.94169
1614.28932	0.94157
1612.23552	0.94125
1610.18172	0.94019
1608.12791	0.93793
1606.07411	0.93397
1604.02031	0.92883
1601.96650	0.92502
1599.91270	0.92533
1597.85890	0.92922
1595.80509	0.93400
1593.75129	0.93781
1591.69749	0.94029
1589.64368	0.94166
1587.58988	0.94170
1585.53608	0.94057
1583.48227	0.93976
1581.42847	0.94082
1579.37467	0.94328
1577.32086	0.94582
1575.26706	0.94738
1573.21326	0.94785
1571.15945	0.94821
1569.10565	0.94875
1567.05185	0.94902
1564.99805	0.94912
1562.94424	0.94940
1560.89044	0.94961
1558.83664	0.94983
1556.78283	0.95009
1554.72903	0.95015
1552.67523	0.95034
1550.62142	0.95037
1548.56762	0.94989
1546.51382	0.94955
1544.46001	0.94965
1542.40621	0.94955
1540.35241	0.94895
1538.29860	0.94882
1536.24480	0.94955
1534.19100	0.95045
1532.13719	0.95076
1530.08339	0.95055
1528.02959	0.95056
1525.97578	0.95089
1523.92198	0.95101
1521.86818	0.95094
1519.81437	0.95100
1517.76057	0.95108
1515.70677	0.95119
1513.65297	0.95118
1511.59916	0.95099
1509.54536	0.95098
1507.49156	0.95116
1505.43775	0.95039
1503.38395	0.94908
1501.33015	0.94717
1499.27634	0.94214
1497.22254	0.92774
1495.16874	0.90572
1493.11493	0.89219
1491.06113	0.89496
1489.00733	0.91129
1486.95352	0.92550
1484.89972	0.93263
1482.84592	0.93674
1480.79211	0.93943
1478.73831	0.94119
1476.68451	0.94239
1474.63070	0.94297
1472.57690	0.94270
1470.52310	0.94244
1468.46929	0.94255
1466.41549	0.94238
1464.36169	0.94169
1462.30788	0.94096
1460.25408	0.93973
1458.20028	0.93301
1456.14648	0.91335
1454.09267	0.89510
1452.03887	0.88762
1449.98507	0.89024
1447.93126	0.89905
1445.87746	0.90759
1443.82366	0.91369
1441.76985	0.91856
1439.71605	0.92273
1437.66225	0.92673
1435.60844	0.93065
1433.55464	0.93344
1431.50084	0.93561
1429.44703	0.93750
1427.39323	0.93875
1425.33943	0.93964
1423.28562	0.94075
1421.23182	0.94188
1419.17802	0.94264
1417.12421	0.94293
1415.07041	0.94319
1413.01661	0.94364
1410.96280	0.94418
1408.90900	0.94490
1406.85520	0.94583
1404.80139	0.94674
1402.74759	0.94747
1400.69379	0.94807
1398.63999	0.94842
1396.58618	0.94838
1394.53238	0.94822
1392.47858	0.94846
1390.42477	0.94889
1388.37097	0.94871
1386.31717	0.94781
1384.26336	0.94709
1382.20956	0.94667
1380.15576	0.94628
1378.10195	0.94592
1376.04815	0.94538
1373.99435	0.94470
1371.94054	0.94439
1369.88674	0.94446
1367.83294	0.94465
1365.77913	0.94509
1363.72533	0.94587
1361.67153	0.94657
1359.61772	0.94689
1357.56392	0.94704
1355.51012	0.94733
1353.45631	0.94791
1351.40251	0.94848
1349.34871	0.94859
1347.29491	0.94834
1345.24110	0.94848
1343.18730	0.94917
1341.13350	0.94974
1339.07969	0.94997
1337.02589	0.94992
1334.97209	0.94956
1332.91828	0.94919
1330.86448	0.94886
1328.81068	0.94845
1326.75687	0.94845
1324.70307	0.94902
1322.64927	0.94954
1320.59546	0.94978
1318.54166	0.94992
1316.48786	0.94980
1314.43405	0.94936
1312.38025	0.94904
1310.32645	0.94910
1308.27264	0.94937
1306.21884	0.94969
1304.16504	0.95006
1302.11123	0.95044
1300.05743	0.95071
1298.00363	0.95093
1295.94982	0.95120
1293.89602	0.95127
1291.84222	0.95113
1289.78842	0.95114
1287.73461	0.95124
1285.68081	0.95105
1283.62701	0.95076
1281.57320	0.95072
1279.51940	0.95082
1277.46560	0.95088
1275.41179	0.95084
1273.35799	0.95083
1271.30419	0.95105
1269.25038	0.95102
1267.19658	0.95055
1265.14278	0.95001
1263.08897	0.94958
1261.03517	0.94957
1258.98137	0.94984
1256.92756	0.94989
1254.87376	0.94993
1252.81996	0.94984
1250.76615	0.94937
1248.71235	0.94897
1246.65855	0.94884
1244.60474	0.94875
1242.55094	0.94843
1240.49714	0.94812
1238.44334	0.94801
1236.38953	0.94762
1234.33573	0.94703
1232.28193	0.94675
1230.22812	0.94654
1228.17432	0.94589
1226.12052	0.94492
1224.06671	0.94386
1222.01291	0.94271
1219.95911	0.94156
1217.90530	0.94040
1215.85150	0.93875
1213.79770	0.93668
1211.74389	0.93476
1209.69009	0.93295
1207.63629	0.93092
1205.58248	0.92857
1203.52868	0.92602
1201.47488	0.92316
1199.42107	0.92016
1197.36727	0.91750
1195.31347	0.91495
1193.25966	0.91214
1191.20586	0.90922
1189.15206	0.90620
1187.09825	0.90272
1185.04445	0.89875
1182.99065	0.89472
1180.93685	0.89121
1178.88304	0.88872
1176.82924	0.88683
1174.77544	0.88458
1172.72163	0.88185
1170.66783	0.87887
1168.61403	0.87572
1166.56022	0.87282
1164.50642	0.87032
1162.45262	0.86793
1160.39881	0.86602
1158.34501	0.86453
1156.29121	0.86251
1154.23740	0.86015
1152.18360	0.85832
1150.12980	0.85699
1148.07599	0.85591
1146.02219	0.85506
1143.96839	0.85398
1141.91458	0.85241
1139.86078	0.85081
1137.80698	0.84902
1135.75317	0.84657
1133.69937	0.84394
1131.64557	0.84157
1129.59176	0.83909
1127.53796	0.83594
1125.48416	0.83176
1123.43036	0.82689
1121.37655	0.82177
1119.32275	0.81607
1117.26895	0.80980
1115.21514	0.80351
1113.16134	0.79742
1111.10754	0.79173
1109.05373	0.78697
1106.99993	0.78302
1104.94613	0.77943
1102.89232	0.77597
1100.83852	0.77257
1098.78472	0.76949
1096.73091	0.76682
1094.67711	0.76413
1092.62331	0.76131
1090.56950	0.75906
1088.51570	0.75756
1086.46190	0.75594
1084.40809	0.75374
1082.35429	0.75135
1080.30049	0.74875
1078.24668	0.74576
1076.19288	0.74286
1074.13908	0.74019
1072.08528	0.73701
1070.03147	0.73300
1067.97767	0.72864
1065.92387	0.72423
1063.87006	0.71994
1061.81626	0.71574
1059.76246	0.71139
1057.70865	0.70684
1055.65485	0.70215
1053.60105	0.69700
1051.54724	0.69092
1049.49344	0.68368
1047.43964	0.67540
1045.38583	0.66665
1043.33203	0.65776
1041.27823	0.64828
1039.22442	0.63810
1037.17062	0.62777
1035.11682	0.61741
1033.06301	0.60728
1031.00921	0.59785
1028.95541	0.58953
1026.90160	0.58305
1024.84780	0.57879
1022.79400	0.57604
1020.74019	0.57387
1018.68639	0.57177
1016.63259	0.56944
1014.57879	0.56692
1012.52498	0.56416
1010.47118	0.56099
1008.41738	0.55773
1006.36357	0.55520
1004.30977	0.55345
1002.25597	0.55251
1000.20216	0.55339
998.14836	0.55591
996.09456	0.55844
994.04075	0.56081
991.98695	0.56413
989.93315	0.56872
987.87934	0.57410
985.82554	0.57983
983.77174	0.58585
981.71793	0.59269
979.66413	0.60092
977.61033	0.61026
975.55652	0.62030
973.50272	0.63127
971.44892	0.64287
969.39511	0.65420
967.34131	0.66483
965.28751	0.67483
963.23371	0.68420
961.17990	0.69324
959.12610	0.70221
957.07230	0.71057
955.01849	0.71784
952.96469	0.72438
950.91089	0.73052
948.85708	0.73571
946.80328	0.74001
944.74948	0.74433
942.69567	0.74868
940.64187	0.75275
938.58807	0.75686
936.53426	0.76106
934.48046	0.76504
932.42666	0.76865
930.37285	0.77189
928.31905	0.77460
926.26525	0.77700
924.21144	0.77927
922.15764	0.78080
920.10384	0.78143
918.05003	0.78120
915.99623	0.77984
913.94243	0.77792
911.88862	0.77667
909.83482	0.77669
907.78102	0.77837
905.72722	0.78235
903.67341	0.78884
901.61961	0.79720
899.56581	0.80629
897.51200	0.81520
895.45820	0.82313
893.40440	0.82972
891.35059	0.83489
889.29679	0.83890
887.24299	0.84259
885.18918	0.84616
883.13538	0.84876
881.08158	0.85041
879.02777	0.85198
876.97397	0.85361
874.92017	0.85579
872.86636	0.85960
870.81256	0.86457
868.75876	0.86888
866.70495	0.87201
864.65115	0.87449
862.59735	0.87692
860.54354	0.87942
858.48974	0.88121
856.43594	0.88261
854.38213	0.88428
852.32833	0.88575
850.27453	0.88647
848.22073	0.88640
846.16692	0.88601
844.11312	0.88516
842.05932	0.88379
840.00551	0.88307
837.95171	0.88297
835.89791	0.88246
833.84410	0.88208
831.79030	0.88183
829.73650	0.88107
827.68269	0.88090
825.62889	0.88200
823.57509	0.88332
821.52128	0.88423
819.46748	0.88530
817.41368	0.88646
815.35987	0.88663
813.30607	0.88522
811.25227	0.88245
809.19846	0.87821
807.14466	0.87244
805.09086	0.86578
803.03705	0.85957
800.98325	0.85514
798.92945	0.85296
796.87565	0.85270
794.82184	0.85344
792.76804	0.85439
790.71424	0.85508
788.66043	0.85540
786.60663	0.85460
784.55283	0.85214
782.49902	0.84868
780.44522	0.84522
778.39142	0.84285
776.33761	0.84101
774.28381	0.83797
772.23001	0.83324
770.17620	0.82619
768.12240	0.81693
766.06860	0.80730
764.01479	0.79734
761.96099	0.78598
759.90719	0.77449
757.85338	0.76594
755.79958	0.76194
753.74578	0.76116
751.69197	0.76142
749.63817	0.76196
747.58437	0.76414
745.53056	0.77040
743.47676	0.78160
741.42296	0.79535
739.36916	0.80831
737.31535	0.81931
735.26155	0.82890
733.20775	0.83716
731.15394	0.84364
729.10014	0.84860
727.04634	0.85247
724.99253	0.85548
722.93873	0.85787
720.88493	0.86007
718.83112	0.86290
716.77732	0.86534
714.72352	0.86552
712.66971	0.86325
710.61591	0.85603
708.56211	0.83896
706.50830	0.80858
704.45450	0.76299
702.40070	0.70394
700.34689	0.63769
698.29309	0.57587
696.23929	0.54271
694.18548	0.56223
692.13168	0.62241
690.07788	0.68487
688.02408	0.72847
685.97027	0.75445
683.91647	0.76996
681.86267	0.77990
679.80886	0.78659
677.75506	0.79128
675.70126	0.79435
673.64745	0.79681
671.59365	0.79936
669.53985	0.80184
667.48604	0.80433
665.43224	0.80592
663.37844	0.80636
661.32463	0.80648
659.27083	0.80677
657.21703	0.80606
655.16322	0.80430
653.10942	0.80285
651.05562	0.80134
649.00181	0.79984
646.94801	0.80007
644.89421	0.80221
642.84040	0.80502
640.78660	0.80832
638.73280	0.81123
636.67899	0.81213
634.62519	0.81157
632.57139	0.81107
630.51759	0.81155
628.46378	0.81274
626.40998	0.81304
624.35618	0.81166
622.30237	0.80979
620.24857	0.80811
618.19477	0.80566
616.14096	0.80199
614.08716	0.79875
612.03336	0.79733
609.97955	0.79605
607.92575	0.79319
605.87195	0.78993
603.81814	0.78704
601.76434	0.78340
599.71054	0.77867
597.65673	0.77461
595.60293	0.77155
593.54913	0.76818
591.49532	0.76565
589.44152	0.76455
587.38772	0.76317
585.33391	0.76121
583.28011	0.75909
581.22631	0.75763
579.17250	0.75738
577.11870	0.75608
575.06490	0.75215
573.01110	0.74785
570.95729	0.74385
568.90349	0.73852
566.84969	0.73109
564.79588	0.72203
562.74208	0.71357
560.68828	0.70675
558.63447	0.69992
556.58067	0.69255
554.52687	0.68580
552.47306	0.67914
550.41926	0.67103
548.36546	0.66057
546.31165	0.64810
544.25785	0.63540
542.20405	0.62271
540.15024	0.60915
538.09644	0.59633
536.04264	0.58709
533.98883	0.58215
531.93503	0.58108
529.88123	0.58456
527.82742	0.59136
525.77362	0.59689
523.71982	0.59953
521.66602	0.60321
519.61221	0.60945
517.55841	0.61522
515.50461	0.62003
513.45080	0.62659
511.39700	0.63485
509.34320	0.64166
507.28939	0.64433
505.23559	0.64433
503.18179	0.64501
501.12798	0.64809
499.07418	0.65146
497.02038	0.65153
494.96657	0.64836
492.91277	0.64334
490.85897	0.63710
488.80516	0.62944
486.75136	0.61852
484.69756	0.60287
482.64375	0.58366
480.58995	0.56272
478.53615	0.54258
476.48234	0.52733
474.42854	0.51557
472.37474	0.50455
470.32093	0.49519
468.26713	0.48561
466.21333	0.47779
464.15953	0.47611
462.10572	0.47874
460.05192	0.48481
457.99812	0.49627
455.94431	0.50892
453.89051	0.51698
451.83671	0.52259
449.78290	0.53012
447.72910	0.53913
445.67530	0.54562
443.62149	0.54720
441.56769	0.54393
439.51389	0.54002
437.46008	0.53883
435.40628	0.53614
433.35248	0.53019
431.29867	0.52687
429.24487	0.52655
427.19107	0.52521
425.13726	0.52347
423.08346	0.52767
421.02966	0.53856
418.97585	0.54848
416.92205	0.55337
414.86825	0.55715
412.81445	0.56105
410.76064	0.56567
408.70684	0.57423
406.65304	0.58339
404.59923	0.58537
402.54543	0.58342
400.49163	0.58369
398.43782	0.58462
