3996.70104	0.97790
3994.64724	0.97755
3992.59344	0.97728
3990.53964	0.97731
3988.48583	0.97729
3986.43203	0.97726
3984.37823	0.97731
3982.32442	0.97707
3980.27062	0.97668
3978.21682	0.97652
3976.16301	0.97661
3974.10921	0.97672
3972.05541	0.97674
3970.00160	0.97687
3967.94780	0.97675
3965.89400	0.97621
3963.84019	0.97599
3961.78639	0.97666
3959.73259	0.97782
3957.67878	0.97864
3955.62498	0.97870
3953.57118	0.97837
3951.51737	0.97827
3949.46357	0.97825
3947.40977	0.97780
3945.35596	0.97735
3943.30216	0.97740
3941.24836	0.97756
3939.19455	0.97736
3937.14075	0.97713
3935.08695	0.97728
3933.03315	0.97765
3930.97934	0.97766
3928.92554	0.97745
3926.87174	0.97749
3924.81793	0.97750
3922.76413	0.97713
3920.71033	0.97652
3918.65652	0.97594
3916.60272	0.97609
3914.54892	0.97716
3912.49511	0.97781
3910.44131	0.97735
3908.38751	0.97664
3906.33370	0.97667
3904.27990	0.97782
3902.22610	0.97899
3900.17229	0.97922
3898.11849	0.97873
3896.06469	0.97765
3894.01088	0.97699
3891.95708	0.97745
3889.90328	0.97805
3887.84947	0.97791
3885.79567	0.97758
3883.74187	0.97729
3881.68807	0.97721
3879.63426	0.97761
3877.58046	0.97787
3875.52666	0.97789
3873.47285	0.97803
3871.41905	0.97827
3869.36525	0.97856
3867.31144	0.97839
3865.25764	0.97798
3863.20384	0.97799
3861.15003	0.97812
3859.09623	0.97808
3857.04243	0.97836
3854.98862	0.97950
3852.93482	0.98061
3850.88102	0.97955
3848.82721	0.97816
3846.77341	0.97754
3844.71961	0.97756
3842.66580	0.97794
3840.61200	0.97854
3838.55820	0.97895
3836.50439	0.97845
3834.45059	0.97790
3832.39679	0.97817
3830.34298	0.97857
3828.28918	0.97882
3826.23538	0.97955
3824.18158	0.98028
3822.12777	0.97994
3820.07397	0.97868
3818.02017	0.97803
3815.96636	0.97831
3813.91256	0.97876
3811.85876	0.97873
3809.80495	0.97837
3807.75115	0.97791
3805.69735	0.97742
3803.64354	0.97697
3801.58974	0.97724
3799.53594	0.97842
3797.48213	0.97900
3795.42833	0.97900
3793.37453	0.97893
3791.32072	0.97896
3789.26692	0.97912
3787.21312	0.97915
3785.15931	0.97942
3783.10551	0.98018
3781.05171	0.98040
3778.99790	0.97983
3776.94410	0.97917
3774.89030	0.97869
3772.83650	0.97842
3770.78269	0.97815
3768.72889	0.97801
3766.67509	0.97840
3764.62128	0.97873
3762.56748	0.97875
3760.51368	0.97933
3758.45987	0.98034
3756.40607	0.98036
3754.35227	0.97941
3752.29846	0.97849
3750.24466	0.97918
3748.19086	0.98115
3746.13705	0.98193
3744.08325	0.98086
3742.02945	0.97947
3739.97564	0.97893
3737.92184	0.97911
3735.86804	0.97956
3733.81423	0.97960
3731.76043	0.97898
3729.70663	0.97838
3727.65282	0.97864
3725.59902	0.97941
3723.54522	0.97931
3721.49141	0.97846
3719.43761	0.97815
3717.38381	0.97793
3715.33001	0.97707
3713.27620	0.97621
3711.22240	0.97536
3709.16860	0.97403
3707.11479	0.97274
3705.06099	0.97104
3703.00719	0.96856
3700.95338	0.96596
3698.89958	0.96457
3696.84578	0.96445
3694.79197	0.96430
3692.73817	0.96389
3690.68437	0.96424
3688.63056	0.96578
3686.57676	0.96737
3684.52296	0.96856
3682.46915	0.96954
3680.41535	0.97013
3678.36155	0.97042
3676.30774	0.97063
3674.25394	0.97073
3672.20014	0.97082
3670.14633	0.97104
3668.09253	0.97048
3666.03873	0.96900
3663.98492	0.96780
3661.93112	0.96701
3659.87732	0.96618
3657.82352	0.96547
3655.76971	0.96460
3653.71591	0.96346
3651.66211	0.96288
3649.60830	0.96362
3647.55450	0.96472
3645.50070	0.96473
3643.44689	0.96421
3641.39309	0.96339
3639.33929	0.96258
3637.28548	0.96226
3635.23168	0.96228
3633.17788	0.96223
3631.12407	0.96175
3629.07027	0.96018
3627.01647	0.95849
3624.96266	0.95791
3622.90886	0.95749
3620.85506	0.95706
3618.80125	0.95671
3616.74745	0.95628
3614.69365	0.95670
3612.63984	0.95806
3610.58604	0.95899
3608.53224	0.95900
3606.47844	0.95834
3604.42463	0.95776
3602.37083	0.95762
3600.31703	0.95731
3598.26322	0.95630
3596.20942	0.95543
3594.15562	0.95593
3592.10181	0.95713
3590.04801	0.95724
3587.99421	0.95577
3585.94040	0.95403
3583.88660	0.95344
3581.83280	0.95366
3579.77899	0.95376
3577.72519	0.95330
3575.67139	0.95317
3573.61758	0.95344
3571.56378	0.95283
3569.50998	0.95152
3567.45617	0.95071
3565.40237	0.95031
3563.34857	0.94959
3561.29476	0.94859
3559.24096	0.94766
3557.18716	0.94700
3555.13335	0.94655
3553.07955	0.94618
3551.02575	0.94575
3548.97195	0.94521
3546.91814	0.94450
3544.86434	0.94370
3542.81054	0.94319
3540.75673	0.94313
3538.70293	0.94353
3536.64913	0.94379
3534.59532	0.94325
3532.54152	0.94293
3530.48772	0.94325
3528.43391	0.94320
3526.38011	0.94274
3524.32631	0.94253
3522.27250	0.94281
3520.21870	0.94302
3518.16490	0.94309
3516.11109	0.94371
3514.05729	0.94463
3512.00349	0.94511
3509.94968	0.94513
3507.89588	0.94528
3505.84208	0.94575
3503.78827	0.94626
3501.73447	0.94623
3499.68067	0.94588
3497.62687	0.94601
3495.57306	0.94619
3493.51926	0.94603
3491.46546	0.94586
3489.41165	0.94573
3487.35785	0.94535
3485.30405	0.94481
3483.25024	0.94472
3481.19644	0.94527
3479.14264	0.94618
3477.08883	0.94704
3475.03503	0.94709
3472.98123	0.94600
3470.92742	0.94493
3468.87362	0.94490
3466.81982	0.94539
3464.76601	0.94541
3462.71221	0.94501
3460.65841	0.94506
3458.60460	0.94570
3456.55080	0.94572
3454.49700	0.94488
3452.44319	0.94447
3450.38939	0.94433
3448.33559	0.94367
3446.28178	0.94326
3444.22798	0.94333
3442.17418	0.94295
3440.12038	0.94204
3438.06657	0.94101
3436.01277	0.94057
3433.95897	0.94096
3431.90516	0.94076
3429.85136	0.93992
3427.79756	0.93948
3425.74375	0.93895
3423.68995	0.93825
3421.63615	0.93806
3419.58234	0.93796
3417.52854	0.93750
3415.47474	0.93688
3413.42093	0.93602
3411.36713	0.93504
3409.31333	0.93454
3407.25952	0.93447
3405.20572	0.93415
3403.15192	0.93369
3401.09811	0.93356
3399.04431	0.93390
3396.99051	0.93451
3394.93670	0.93467
3392.88290	0.93431
3390.82910	0.93448
3388.77529	0.93545
3386.72149	0.93633
3384.66769	0.93660
3382.61389	0.93675
3380.56008	0.93710
3378.50628	0.93718
3376.45248	0.93687
3374.39867	0.93683
3372.34487	0.93748
3370.29107	0.93842
3368.23726	0.93932
3366.18346	0.93983
3364.12966	0.93985
3362.07585	0.94002
3360.02205	0.94006
3357.96825	0.93960
3355.91444	0.93953
3353.86064	0.94001
3351.80684	0.94033
3349.75303	0.94043
3347.69923	0.94060
3345.64543	0.94106
3343.59162	0.94142
3341.53782	0.94127
3339.48402	0.94135
3337.43021	0.94162
3335.37641	0.94154
3333.32261	0.94158
3331.26881	0.94207
3329.21500	0.94254
3327.16120	0.94257
3325.10740	0.94237
3323.05359	0.94245
3320.99979	0.94284
3318.94599	0.94336
3316.89218	0.94375
3314.83838	0.94366
3312.78458	0.94314
3310.73077	0.94293
3308.67697	0.94322
3306.62317	0.94327
3304.56936	0.94310
3302.51556	0.94295
3300.46176	0.94276
3298.40795	0.94308
3296.35415	0.94380
3294.30035	0.94415
3292.24654	0.94410
3290.19274	0.94391
3288.13894	0.94372
3286.08513	0.94403
3284.03133	0.94470
3281.97753	0.94496
3279.92372	0.94511
3277.86992	0.94538
3275.81612	0.94561
3273.76232	0.94614
3271.70851	0.94679
3269.65471	0.94696
3267.60091	0.94670
3265.54710	0.94661
3263.49330	0.94659
3261.43950	0.94622
3259.38569	0.94605
3257.33189	0.94667
3255.27809	0.94731
3253.22428	0.94723
3251.17048	0.94705
3249.11668	0.94704
3247.06287	0.94685
3245.00907	0.94671
3242.95527	0.94683
3240.90146	0.94725
3238.84766	0.94771
3236.79386	0.94782
3234.74005	0.94785
3232.68625	0.94818
3230.63245	0.94872
3228.57864	0.94887
3226.52484	0.94861
3224.47104	0.94875
3222.41724	0.94951
3220.36343	0.95011
3218.30963	0.95023
3216.25583	0.95040
3214.20202	0.95078
3212.14822	0.95118
3210.09442	0.95156
3208.04061	0.95179
3205.98681	0.95186
3203.93301	0.95177
3201.87920	0.95165
3199.82540	0.95195
3197.77160	0.95271
3195.71779	0.95335
3193.66399	0.95361
3191.61019	0.95356
3189.55638	0.95322
3187.50258	0.95280
3185.44878	0.95288
3183.39497	0.95389
3181.34117	0.95516
3179.28737	0.95565
3177.23356	0.95541
3175.17976	0.95523
3173.12596	0.95539
3171.07215	0.95548
3169.01835	0.95546
3166.96455	0.95569
3164.91075	0.95625
3162.85694	0.95680
3160.80314	0.95677
3158.74934	0.95658
3156.69553	0.95719
3154.64173	0.95813
3152.58793	0.95827
3150.53412	0.95798
3148.48032	0.95809
3146.42652	0.95852
3144.37271	0.95904
3142.31891	0.95939
3140.26511	0.95934
3138.21130	0.95933
3136.15750	0.95969
3134.10370	0.95995
3132.04989	0.96009
3129.99609	0.96031
3127.94229	0.96061
3125.88848	0.96095
3123.83468	0.96089
3121.78088	0.96060
3119.72707	0.96077
3117.67327	0.96152
3115.61947	0.96253
3113.56566	0.96308
3111.51186	0.96263
3109.45806	0.96188
3107.40426	0.96150
3105.35045	0.96124
3103.29665	0.96137
3101.24285	0.96184
3099.18904	0.96227
3097.13524	0.96274
3095.08144	0.96300
3093.02763	0.96292
3090.97383	0.96276
3088.92003	0.96250
3086.86622	0.96224
3084.81242	0.96224
3082.75862	0.96251
3080.70481	0.96309
3078.65101	0.96379
3076.59721	0.96415
3074.54340	0.96422
3072.48960	0.96425
3070.43580	0.96419
3068.38199	0.96413
3066.32819	0.96423
3064.27439	0.96452
3062.22058	0.96504
3060.16678	0.96539
3058.11298	0.96522
3056.05918	0.96508
3054.00537	0.96532
3051.95157	0.96571
3049.89777	0.96609
3047.84396	0.96635
3045.79016	0.96659
3043.73636	0.96695
3041.68255	0.96686
3039.62875	0.96625
3037.57495	0.96594
3035.52114	0.96621
3033.46734	0.96688
3031.41354	0.96776
3029.35973	0.96817
3027.30593	0.96767
3025.25213	0.96697
3023.19832	0.96683
3021.14452	0.96701
3019.09072	0.96713
3017.03691	0.96741
3014.98311	0.96789
3012.92931	0.96812
3010.87550	0.96805
3008.82170	0.96788
3006.76790	0.96795
3004.71409	0.96822
3002.66029	0.96816
3000.60649	0.96800
2998.55269	0.96833
2996.49888	0.96885
2994.44508	0.96894
2992.39128	0.96876
2990.33747	0.96874
2988.28367	0.96889
2986.22987	0.96895
2984.17606	0.96871
2982.12226	0.96811
2980.06846	0.96731
2978.01465	0.96687
2975.96085	0.96705
2973.90705	0.96734
2971.85324	0.96729
2969.79944	0.96690
2967.74564	0.96628
2965.69183	0.96552
2963.63803	0.96473
2961.58423	0.96393
2959.53042	0.96320
2957.47662	0.96272
2955.42282	0.96224
2953.36901	0.96145
2951.31521	0.96048
2949.26141	0.95896
2947.20761	0.95705
2945.15380	0.95519
2943.10000	0.95254
2941.04620	0.94877
2938.99239	0.94428
2936.93859	0.93857
2934.88479	0.93125
2932.83098	0.92263
2930.77718	0.91239
2928.72338	0.89993
2926.66957	0.88515
2924.61577	0.86774
2922.56197	0.84738
2920.50816	0.82448
2918.45436	0.80130
2916.40056	0.78337
2914.34675	0.77747
2912.29295	0.78521
2910.23915	0.80102
2908.18534	0.81848
2906.13154	0.83414
2904.07774	0.84680
2902.02393	0.85654
2899.97013	0.86410
2897.91633	0.87033
2895.86252	0.87608
2893.80872	0.88176
2891.75492	0.88715
2889.70112	0.89239
2887.64731	0.89790
2885.59351	0.90354
2883.53971	0.90920
2881.48590	0.91512
2879.43210	0.92115
2877.37830	0.92676
2875.32449	0.93152
2873.27069	0.93514
2871.21689	0.93784
2869.16308	0.93974
2867.10928	0.94030
2865.05548	0.93912
2863.00167	0.93625
2860.94787	0.93115
2858.89407	0.92234
2856.84026	0.90795
2854.78646	0.88622
2852.73266	0.85681
2850.67885	0.82413
2848.62505	0.79956
2846.57125	0.79422
2844.51744	0.80831
2842.46364	0.83243
2840.40984	0.85695
2838.35603	0.87719
2836.30223	0.89286
2834.24843	0.90485
2832.19463	0.91388
2830.14082	0.92086
2828.08702	0.92638
2826.03322	0.93093
2823.97941	0.93503
2821.92561	0.93848
2819.87181	0.94097
2817.81800	0.94305
2815.76420	0.94520
2813.71040	0.94723
2811.65659	0.94908
2809.60279	0.95077
2807.54899	0.95196
2805.49518	0.95278
2803.44138	0.95364
2801.38758	0.95463
2799.33377	0.95566
2797.27997	0.95620
2795.22617	0.95626
2793.17236	0.95668
2791.11856	0.95752
2789.06476	0.95856
2787.01095	0.95969
2784.95715	0.96059
2782.90335	0.96123
2780.84955	0.96158
2778.79574	0.96167
2776.74194	0.96187
2774.68814	0.96221
2772.63433	0.96241
2770.58053	0.96268
2768.52673	0.96300
2766.47292	0.96323
2764.41912	0.96358
2762.36532	0.96399
2760.31151	0.96410
2758.25771	0.96415
2756.20391	0.96447
2754.15010	0.96479
2752.09630	0.96501
2750.04250	0.96529
2747.98869	0.96549
2745.93489	0.96545
2743.88109	0.96523
2741.82728	0.96501
2739.77348	0.96484
2737.71968	0.96495
2735.66587	0.96546
2733.61207	0.96613
2731.55827	0.96672
2729.50446	0.96701
2727.45066	0.96701
2725.39686	0.96698
2723.34306	0.96703
2721.28925	0.96710
2719.23545	0.96706
2717.18165	0.96701
2715.12784	0.96722
2713.07404	0.96762
2711.02024	0.96791
2708.96643	0.96793
2706.91263	0.96775
2704.85883	0.96771
2702.80502	0.96787
2700.75122	0.96807
2698.69742	0.96836
2696.64361	0.96852
2694.58981	0.96857
2692.53601	0.96880
2690.48220	0.96906
2688.42840	0.96913
2686.37460	0.96909
2684.32079	0.96903
2682.26699	0.96891
2680.21319	0.96873
2678.15938	0.96874
2676.10558	0.96899
2674.05178	0.96908
2671.99797	0.96899
2669.94417	0.96890
2667.89037	0.96861
2665.83657	0.96828
2663.78276	0.96835
2661.72896	0.96861
2659.67516	0.96870
2657.62135	0.96860
2655.56755	0.96867
2653.51375	0.96909
2651.45994	0.96943
2649.40614	0.96951
2647.35234	0.96958
2645.29853	0.96934
2643.24473	0.96881
2641.19093	0.96872
2639.13712	0.96909
2637.08332	0.96930
2635.02952	0.96922
2632.97571	0.96917
2630.92191	0.96927
2628.86811	0.96952
2626.81430	0.96996
2624.76050	0.97023
2622.70670	0.97004
2620.65289	0.97003
2618.59909	0.97052
2616.54529	0.97070
2614.49149	0.97073
2612.43768	0.97123
2610.38388	0.97168
2608.33008	0.97187
2606.27627	0.97202
2604.22247	0.97210
2602.16867	0.97229
2600.11486	0.97258
2598.06106	0.97227
2596.00726	0.97169
2593.95345	0.97154
2591.89965	0.97159
2589.84585	0.97184
2587.79204	0.97215
2585.73824	0.97216
2583.68444	0.97234
2581.63063	0.97280
2579.57683	0.97306
2577.52303	0.97304
2575.46922	0.97279
2573.41542	0.97243
2571.36162	0.97238
2569.30781	0.97262
2567.25401	0.97278
2565.20021	0.97270
2563.14640	0.97266
2561.09260	0.97296
2559.03880	0.97341
2556.98500	0.97383
2554.93119	0.97408
2552.87739	0.97383
2550.82359	0.97312
2548.76978	0.97260
2546.71598	0.97273
2544.66218	0.97323
2542.60837	0.97336
2540.55457	0.97293
2538.50077	0.97276
2536.44696	0.97352
2534.39316	0.97464
2532.33936	0.97491
2530.28555	0.97435
2528.23175	0.97417
2526.17795	0.97446
2524.12414	0.97441
2522.07034	0.97412
2520.01654	0.97400
2517.96273	0.97374
2515.90893	0.97353
2513.85513	0.97390
2511.80132	0.97479
2509.74752	0.97554
2507.69372	0.97577
2505.63992	0.97592
2503.58611	0.97604
2501.53231	0.97572
2499.47851	0.97519
2497.42470	0.97503
2495.37090	0.97542
2493.31710	0.97596
2491.26329	0.97589
2489.20949	0.97511
2487.15569	0.97392
2485.10188	0.97268
2483.04808	0.97218
2480.99428	0.97264
2478.94047	0.97336
2476.88667	0.97391
2474.83287	0.97441
2472.77906	0.97491
2470.72526	0.97509
2468.67146	0.97471
2466.61765	0.97426
2464.56385	0.97418
2462.51005	0.97442
2460.45624	0.97471
2458.40244	0.97487
2456.34864	0.97520
2454.29483	0.97575
2452.24103	0.97586
2450.18723	0.97515
2448.13343	0.97417
2446.07962	0.97353
2444.02582	0.97350
2441.97202	0.97400
2439.91821	0.97437
2437.86441	0.97430
2435.81061	0.97442
2433.75680	0.97520
2431.70300	0.97583
2429.64920	0.97588
2427.59539	0.97560
2425.54159	0.97508
2423.48779	0.97471
2421.43398	0.97455
2419.38018	0.97466
2417.32638	0.97516
2415.27257	0.97555
2413.21877	0.97562
2411.16497	0.97554
2409.11116	0.97509
2407.05736	0.97455
2405.00356	0.97452
2402.94975	0.97469
2400.89595	0.97462
2398.84215	0.97432
2396.78834	0.97427
2394.73454	0.97481
2392.68074	0.97551
2390.62694	0.97562
2388.57313	0.97508
2386.51933	0.97491
2384.46553	0.97525
2382.41172	0.97524
2380.35792	0.97524
2378.30412	0.97570
2376.25031	0.97600
2374.19651	0.97594
2372.14271	0.97569
2370.08890	0.97554
2368.03510	0.97509
2365.98130	0.97359
2363.92749	0.97246
2361.87369	0.97298
2359.81989	0.97442
2357.76608	0.97573
2355.71228	0.97651
2353.65848	0.97639
2351.60467	0.97565
2349.55087	0.97530
2347.49707	0.97497
2345.44326	0.97430
2343.38946	0.97421
2341.33566	0.97421
2339.28186	0.97371
2337.22805	0.97343
2335.17425	0.97289
2333.12045	0.97241
2331.06664	0.97275
2329.01284	0.97305
2326.95904	0.97273
2324.90523	0.97243
2322.85143	0.97249
2320.79763	0.97303
2318.74382	0.97390
2316.69002	0.97417
2314.63622	0.97383
2312.58241	0.97388
2310.52861	0.97479
2308.47481	0.97576
2306.42100	0.97574
2304.36720	0.97521
2302.31340	0.97508
2300.25959	0.97518
2298.20579	0.97511
2296.15199	0.97509
2294.09818	0.97525
2292.04438	0.97516
2289.99058	0.97467
2287.93677	0.97453
2285.88297	0.97461
2283.82917	0.97434
2281.77537	0.97464
2279.72156	0.97562
2277.66776	0.97563
2275.61396	0.97413
2273.56015	0.97299
2271.50635	0.97419
2269.45255	0.97662
2267.39874	0.97738
2265.34494	0.97659
2263.29114	0.97656
2261.23733	0.97713
2259.18353	0.97666
2257.12973	0.97482
2255.07592	0.97325
2253.02212	0.97394
2250.96832	0.97679
2248.91451	0.97911
2246.86071	0.97855
2244.80691	0.97634
2242.75310	0.97533
2240.69930	0.97557
2238.64550	0.97498
2236.59169	0.97370
2234.53789	0.97371
2232.48409	0.97529
2230.43029	0.97645
2228.37648	0.97587
2226.32268	0.97502
2224.26888	0.97551
2222.21507	0.97687
2220.16127	0.97785
2218.10747	0.97777
2216.05366	0.97716
2213.99986	0.97638
2211.94606	0.97552
2209.89225	0.97605
2207.83845	0.97814
2205.78465	0.97970
2203.73084	0.98010
2201.67704	0.97956
2199.62324	0.97800
2197.56943	0.97590
2195.51563	0.97478
2193.46183	0.97534
2191.40802	0.97626
2189.35422	0.97607
2187.30042	0.97431
2185.24661	0.97247
2183.19281	0.97277
2181.13901	0.97418
2179.08520	0.97491
2177.03140	0.97634
2174.97760	0.97841
2172.92380	0.97963
2170.86999	0.98009
2168.81619	0.97993
2166.76239	0.98064
2164.70858	0.98231
2162.65478	0.98286
2160.60098	0.98346
2158.54717	0.98557
2156.49337	0.98659
2154.43957	0.98611
2152.38576	0.98428
2150.33196	0.98098
2148.27816	0.97937
2146.22435	0.97946
2144.17055	0.97954
2142.11675	0.97933
2140.06294	0.97795
2138.00914	0.97717
2135.95534	0.97850
2133.90153	0.97953
2131.84773	0.97932
2129.79393	0.97909
2127.74012	0.97805
2125.68632	0.97671
2123.63252	0.97690
2121.57871	0.97675
2119.52491	0.97555
2117.47111	0.97547
2115.41731	0.97636
2113.36350	0.97701
2111.30970	0.97708
2109.25590	0.97691
2107.20209	0.97690
2105.14829	0.97737
2103.09449	0.97827
2101.04068	0.97855
2098.98688	0.97873
2096.93308	0.97937
2094.87927	0.97947
2092.82547	0.97918
2090.77167	0.97850
2088.71786	0.97751
2086.66406	0.97723
2084.61026	0.97725
2082.55645	0.97682
2080.50265	0.97671
2078.44885	0.97720
2076.39504	0.97786
2074.34124	0.97811
2072.28744	0.97755
2070.23363	0.97699
2068.17983	0.97696
2066.12603	0.97767
2064.07223	0.97895
2062.01842	0.97994
2059.96462	0.98043
2057.91082	0.97998
2055.85701	0.97814
2053.80321	0.97627
2051.74941	0.97630
2049.69560	0.97722
2047.64180	0.97758
2045.58800	0.97886
2043.53419	0.98059
2041.48039	0.98084
2039.42659	0.98089
2037.37278	0.98115
2035.31898	0.98022
2033.26518	0.97884
2031.21137	0.97767
2029.15757	0.97666
2027.10377	0.97641
2025.04996	0.97772
2022.99616	0.98023
2020.94236	0.98178
2018.88855	0.98145
2016.83475	0.98037
2014.78095	0.97947
2012.72714	0.97824
2010.67334	0.97647
2008.61954	0.97715
2006.56574	0.98164
2004.51193	0.98491
2002.45813	0.98350
2000.40433	0.97940
1998.35052	0.97724
1996.29672	0.97944
1994.24292	0.98210
1992.18911	0.98253
1990.13531	0.98306
1988.08151	0.98299
1986.02770	0.98030
1983.97390	0.97771
1981.92010	0.97761
1979.86629	0.97843
1977.81249	0.97768
1975.75869	0.97603
1973.70488	0.97637
1971.65108	0.97825
1969.59728	0.98034
1967.54347	0.98167
1965.48967	0.98151
1963.43587	0.98121
1961.38206	0.98106
1959.32826	0.98006
1957.27446	0.97829
1955.22066	0.97761
1953.16685	0.97873
1951.11305	0.97982
1949.05925	0.98047
1947.00544	0.98109
1944.95164	0.98110
1942.89784	0.98064
1940.84403	0.97950
1938.79023	0.97817
1936.73643	0.97771
1934.68262	0.97729
1932.62882	0.97666
1930.57502	0.97648
1928.52121	0.97651
1926.46741	0.97711
1924.41361	0.97876
1922.35980	0.97996
1920.30600	0.97913
1918.25220	0.97757
1916.19839	0.97768
1914.14459	0.97929
1912.09079	0.98031
1910.03698	0.97967
1907.98318	0.97829
1905.92938	0.97771
1903.87557	0.97760
1901.82177	0.97685
1899.76797	0.97619
1897.71417	0.97638
1895.66036	0.97637
1893.60656	0.97603
1891.55276	0.97626
1889.49895	0.97674
1887.44515	0.97707
1885.39135	0.97737
1883.33754	0.97744
1881.28374	0.97744
1879.22994	0.97741
1877.17613	0.97707
1875.12233	0.97691
1873.06853	0.97720
1871.01472	0.97795
1868.96092	0.97876
1866.90712	0.97860
1864.85331	0.97797
1862.79951	0.97716
1860.74571	0.97612
1858.69190	0.97572
1856.63810	0.97599
1854.58430	0.97649
1852.53049	0.97709
1850.47669	0.97725
1848.42289	0.97743
1846.36908	0.97861
1844.31528	0.98001
1842.26148	0.97997
1840.20768	0.97907
1838.15387	0.97842
1836.10007	0.97809
1834.04627	0.97782
1831.99246	0.97767
1829.93866	0.97772
1827.88486	0.97775
1825.83105	0.97748
1823.77725	0.97711
1821.72345	0.97690
1819.66964	0.97695
1817.61584	0.97734
1815.56204	0.97766
1813.50823	0.97772
1811.45443	0.97751
1809.40063	0.97681
1807.34682	0.97618
1805.29302	0.97610
1803.23922	0.97648
1801.18541	0.97703
1799.13161	0.97720
1797.07781	0.97685
1795.02400	0.97623
1792.97020	0.97591
1790.91640	0.97610
1788.86260	0.97595
1786.80879	0.97556
1784.75499	0.97572
1782.70119	0.97624
1780.64738	0.97627
1778.59358	0.97620
1776.53978	0.97630
1774.48597	0.97604
1772.43217	0.97550
1770.37837	0.97500
1768.32456	0.97454
1766.27076	0.97433
1764.21696	0.97438
1762.16315	0.97466
1760.10935	0.97491
1758.05555	0.97475
1756.00174	0.97429
1753.94794	0.97396
1751.89414	0.97402
1749.84033	0.97394
1747.78653	0.97274
1745.73273	0.97125
1743.67892	0.97024
1741.62512	0.96937
1739.57132	0.96865
1737.51751	0.96847
1735.46371	0.96855
1733.40991	0.96828
1731.35611	0.96771
1729.30230	0.96720
1727.24850	0.96704
1725.19470	0.96729
1723.14089	0.96745
1721.08709	0.96745
1719.03329	0.96760
1716.97948	0.96771
1714.92568	0.96722
1712.87188	0.96655
1710.81807	0.96605
1708.76427	0.96570
1706.71047	0.96539
1704.65666	0.96505
1702.60286	0.96472
1700.54906	0.96420
1698.49525	0.96313
1696.44145	0.96157
1694.38765	0.95981
1692.33384	0.95838
1690.28004	0.95698
1688.22624	0.95535
1686.17243	0.95412
1684.11863	0.95348
1682.06483	0.95271
1680.01103	0.95166
1677.95722	0.95058
1675.90342	0.94964
1673.84962	0.94916
1671.79581	0.94918
1669.74201	0.94888
1667.68821	0.94754
1665.63440	0.94627
1663.58060	0.94559
1661.52680	0.94486
1659.47299	0.94381
1657.41919	0.94298
1655.36539	0.94264
1653.31158	0.94255
1651.25778	0.94221
1649.20398	0.94213
1647.15017	0.94225
1645.09637	0.94193
1643.04257	0.94142
1640.98876	0.94101
1638.93496	0.94095
1636.88116	0.94128
1634.82735	0.94108
1632.77355	0.94035
1630.71975	0.94013
1628.66594	0.94006
1626.61214	0.93940
1624.55834	0.93834
1622.50454	0.93726
1620.45073	0.93659
1618.39693	0.93725
1616.34313	0.93987
1614.28932	0.94235
1612.23552	0.94376
1610.18172	0.94502
1608.12791	0.94624
1606.07411	0.94711
1604.02031	0.94774
1601.96650	0.94837
1599.91270	0.94887
1597.85890	0.94926
1595.80509	0.94982
1593.75129	0.95060
1591.69749	0.95126
1589.64368	0.95157
1587.58988	0.95168
1585.53608	0.95196
1583.48227	0.95235
1581.42847	0.95236
1579.37467	0.95210
1577.32086	0.95221
1575.26706	0.95280
1573.21326	0.95303
1571.15945	0.95336
1569.10565	0.95401
1567.05185	0.95405
1564.99805	0.95385
1562.94424	0.95401
1560.89044	0.95449
1558.83664	0.95497
1556.78283	0.95478
1554.72903	0.95445
1552.67523	0.95400
1550.62142	0.95378
1548.56762	0.95406
1546.51382	0.95456
1544.46001	0.95498
1542.40621	0.95476
1540.35241	0.95458
1538.29860	0.95584
1536.24480	0.95664
1534.19100	0.95693
1532.13719	0.95747
1530.08339	0.95814
1528.02959	0.95884
1525.97578	0.95954
1523.92198	0.95993
1521.86818	0.96028
1519.81437	0.96104
1517.76057	0.96174
1515.70677	0.96177
1513.65297	0.96143
1511.59916	0.96134
1509.54536	0.96158
1507.49156	0.96226
1505.43775	0.96300
1503.38395	0.96317
1501.33015	0.96317
1499.27634	0.96310
1497.22254	0.96333
1495.16874	0.96383
1493.11493	0.96397
1491.06113	0.96383
1489.00733	0.96384
1486.95352	0.96395
1484.89972	0.96373
1482.84592	0.96292
1480.79211	0.96094
1478.73831	0.95634
1476.68451	0.94418
1474.63070	0.91979
1472.57690	0.89594
1470.52310	0.89369
1468.46929	0.90001
1466.41549	0.90072
1464.36169	0.89140
1462.30788	0.88408
1460.25408	0.89037
1458.20028	0.90829
1456.14648	0.92647
1454.09267	0.93367
1452.03887	0.93707
1449.98507	0.93963
1447.93126	0.94150
1445.87746	0.94284
1443.82366	0.94380
1441.76985	0.94449
1439.71605	0.94500
1437.66225	0.94581
1435.60844	0.94688
1433.55464	0.94739
1431.50084	0.94794
1429.44703	0.94907
1427.39323	0.95003
1425.33943	0.95057
1423.28562	0.95111
1421.23182	0.95137
1419.17802	0.95160
1417.12421	0.95200
1415.07041	0.95223
1413.01661	0.95256
1410.96280	0.95299
1408.90900	0.95340
1406.85520	0.95377
1404.80139	0.95427
1402.74759	0.95505
1400.69379	0.95583
1398.63999	0.95628
1396.58618	0.95628
1394.53238	0.95615
1392.47858	0.95605
1390.42477	0.95584
1388.37097	0.95581
1386.31717	0.95604
1384.26336	0.95602
1382.20956	0.95573
1380.15576	0.95527
1378.10195	0.95483
1376.04815	0.95458
1373.99435	0.95435
1371.94054	0.95408
1369.88674	0.95396
1367.83294	0.95396
1365.77913	0.95423
1363.72533	0.95505
1361.67153	0.95595
1359.61772	0.95615
1357.56392	0.95602
1355.51012	0.95600
1353.45631	0.95592
1351.40251	0.95587
1349.34871	0.95624
1347.29491	0.95689
1345.24110	0.95730
1343.18730	0.95734
1341.13350	0.95722
1339.07969	0.95708
1337.02589	0.95708
1334.97209	0.95715
1332.91828	0.95708
1330.86448	0.95715
1328.81068	0.95751
1326.75687	0.95762
1324.70307	0.95741
1322.64927	0.95739
1320.59546	0.95740
1318.54166	0.95715
1316.48786	0.95685
1314.43405	0.95681
1312.38025	0.95710
1310.32645	0.95735
1308.27264	0.95726
1306.21884	0.95697
1304.16504	0.95670
1302.11123	0.95647
1300.05743	0.95633
1298.00363	0.95646
1295.94982	0.95672
1293.89602	0.95686
1291.84222	0.95662
1289.78842	0.95619
1287.73461	0.95596
1285.68081	0.95595
1283.62701	0.95596
1281.57320	0.95578
1279.51940	0.95536
1277.46560	0.95500
1275.41179	0.95499
1273.35799	0.95499
1271.30419	0.95471
1269.25038	0.95416
1267.19658	0.95333
1265.14278	0.95246
1263.08897	0.95185
1261.03517	0.95175
1258.98137	0.95179
1256.92756	0.95155
1254.87376	0.95109
1252.81996	0.95040
1250.76615	0.94961
1248.71235	0.94903
1246.65855	0.94853
1244.60474	0.94782
1242.55094	0.94706
1240.49714	0.94654
1238.44334	0.94611
1236.38953	0.94539
1234.33573	0.94455
1232.28193	0.94386
1230.22812	0.94340
1228.17432	0.94298
1226.12052	0.94234
1224.06671	0.94175
1222.01291	0.94145
1219.95911	0.94116
1217.90530	0.94061
1215.85150	0.93985
1213.79770	0.93900
1211.74389	0.93807
1209.69009	0.93694
1207.63629	0.93564
1205.58248	0.93425
1203.52868	0.93262
1201.47488	0.93090
1199.42107	0.92932
1197.36727	0.92769
1195.31347	0.92582
1193.25966	0.92373
1191.20586	0.92120
1189.15206	0.91813
1187.09825	0.91484
1185.04445	0.91162
1182.99065	0.90835
1180.93685	0.90455
1178.88304	0.89997
1176.82924	0.89505
1174.77544	0.89066
1172.72163	0.88679
1170.66783	0.88268
1168.61403	0.87827
1166.56022	0.87421
1164.50642	0.87068
1162.45262	0.86739
1160.39881	0.86440
1158.34501	0.86182
1156.29121	0.85933
1154.23740	0.85642
1152.18360	0.85306
1150.12980	0.84986
1148.07599	0.84732
1146.02219	0.84512
1143.96839	0.84283
1141.91458	0.84058
1139.86078	0.83874
1137.80698	0.83718
1135.75317	0.83524
1133.69937	0.83279
1131.64557	0.83022
1129.59176	0.82755
1127.53796	0.82444
1125.48416	0.82057
1123.43036	0.81615
1121.37655	0.81141
1119.32275	0.80666
1117.26895	0.80239
1115.21514	0.79892
1113.16134	0.79600
1111.10754	0.79322
1109.05373	0.79076
1106.99993	0.78873
1104.94613	0.78680
1102.89232	0.78497
1100.83852	0.78355
1098.78472	0.78251
1096.73091	0.78153
1094.67711	0.78082
1092.62331	0.78040
1090.56950	0.77988
1088.51570	0.77979
1086.46190	0.78033
1084.40809	0.78054
1082.35429	0.78024
1080.30049	0.77977
1078.24668	0.77912
1076.19288	0.77815
1074.13908	0.77696
1072.08528	0.77558
1070.03147	0.77358
1067.97767	0.77086
1065.92387	0.76751
1063.87006	0.76361
1061.81626	0.75942
1059.76246	0.75474
1057.70865	0.74941
1055.65485	0.74362
1053.60105	0.73766
1051.54724	0.73188
1049.49344	0.72618
1047.43964	0.72006
1045.38583	0.71338
1043.33203	0.70647
1041.27823	0.69993
1039.22442	0.69437
1037.17062	0.68978
1035.11682	0.68612
1033.06301	0.68353
1031.00921	0.68214
1028.95541	0.68220
1026.90160	0.68318
1024.84780	0.68426
1022.79400	0.68529
1020.74019	0.68629
1018.68639	0.68696
1016.63259	0.68710
1014.57879	0.68710
1012.52498	0.68684
1010.47118	0.68615
1008.41738	0.68596
1006.36357	0.68721
1004.30977	0.68984
1002.25597	0.69381
1000.20216	0.69921
998.14836	0.70577
996.09456	0.71311
994.04075	0.72068
991.98695	0.72843
989.93315	0.73651
987.87934	0.74481
985.82554	0.75313
983.77174	0.76112
981.71793	0.76882
979.66413	0.77680
977.61033	0.78524
975.55652	0.79355
973.50272	0.80090
971.44892	0.80728
969.39511	0.81326
967.34131	0.81897
965.28751	0.82417
963.23371	0.82910
961.17990	0.83394
959.12610	0.83831
957.07230	0.84215
955.01849	0.84553
952.96469	0.84837
950.91089	0.85098
948.85708	0.85351
946.80328	0.85565
944.74948	0.85729
942.69567	0.85893
940.64187	0.86063
938.58807	0.86198
936.53426	0.86313
934.48046	0.86463
932.42666	0.86636
930.37285	0.86756
928.31905	0.86793
926.26525	0.86798
924.21144	0.86774
922.15764	0.86699
920.10384	0.86582
918.05003	0.86420
915.99623	0.86246
913.94243	0.86147
911.88862	0.86198
909.83482	0.86404
907.78102	0.86757
905.72722	0.87213
903.67341	0.87710
901.61961	0.88210
899.56581	0.88661
897.51200	0.89065
895.45820	0.89448
893.40440	0.89770
891.35059	0.89951
889.29679	0.90011
887.24299	0.90087
885.18918	0.90253
883.13538	0.90433
881.08158	0.90520
879.02777	0.90514
876.97397	0.90498
874.92017	0.90539
872.86636	0.90663
870.81256	0.90870
868.75876	0.91109
866.70495	0.91334
864.65115	0.91548
862.59735	0.91745
860.54354	0.91895
858.48974	0.92033
856.43594	0.92205
854.38213	0.92338
852.32833	0.92390
850.27453	0.92377
848.22073	0.92343
846.16692	0.92374
844.11312	0.92458
842.05932	0.92507
840.00551	0.92498
837.95171	0.92436
835.89791	0.92317
833.84410	0.92223
831.79030	0.92179
829.73650	0.92143
827.68269	0.92134
825.62889	0.92141
823.57509	0.92128
821.52128	0.92056
819.46748	0.91935
817.41368	0.91856
815.35987	0.91802
813.30607	0.91688
811.25227	0.91558
809.19846	0.91392
807.14466	0.91119
805.09086	0.90843
803.03705	0.90591
800.98325	0.90320
798.92945	0.90111
796.87565	0.90003
794.82184	0.89960
792.76804	0.89954
790.71424	0.89960
788.66043	0.89960
786.60663	0.89946
784.55283	0.89859
782.49902	0.89699
780.44522	0.89609
778.39142	0.89650
776.33761	0.89726
774.28381	0.89760
772.23001	0.89742
770.17620	0.89742
768.12240	0.89800
766.06860	0.89814
764.01479	0.89709
761.96099	0.89485
759.90719	0.89229
757.85338	0.89062
755.79958	0.88994
753.74578	0.88979
751.69197	0.89037
749.63817	0.89180
747.58437	0.89226
745.53056	0.89114
743.47676	0.89047
741.42296	0.89031
739.36916	0.88954
737.31535	0.88803
735.26155	0.88139
733.20775	0.86134
731.15394	0.83497
729.10014	0.82613
727.04634	0.83731
724.99253	0.84531
722.93873	0.83281
720.88493	0.80087
718.83112	0.77548
716.77732	0.78137
714.72352	0.80776
712.66971	0.83215
710.61591	0.84695
708.56211	0.85448
706.50830	0.85753
704.45450	0.85788
702.40070	0.85657
700.34689	0.85462
698.29309	0.85307
696.23929	0.85250
694.18548	0.85310
692.13168	0.85393
690.07788	0.85396
688.02408	0.85357
685.97027	0.85331
683.91647	0.85273
681.86267	0.85199
679.80886	0.85102
677.75506	0.84964
675.70126	0.84842
673.64745	0.84663
671.59365	0.84414
669.53985	0.84353
667.48604	0.84716
665.43224	0.85135
663.37844	0.85430
661.32463	0.85654
659.27083	0.85822
657.21703	0.85877
655.16322	0.85771
653.10942	0.85668
651.05562	0.85594
649.00181	0.85516
646.94801	0.85479
644.89421	0.85480
642.84040	0.85500
640.78660	0.85513
638.73280	0.85556
636.67899	0.85577
634.62519	0.85407
632.57139	0.85166
630.51759	0.85091
628.46378	0.85137
626.40998	0.85136
624.35618	0.85074
622.30237	0.84997
620.24857	0.84863
618.19477	0.84662
616.14096	0.84418
614.08716	0.84100
612.03336	0.83643
609.97955	0.83112
607.92575	0.82652
605.87195	0.82203
603.81814	0.81735
601.76434	0.81437
599.71054	0.81516
597.65673	0.81808
595.60293	0.81883
593.54913	0.81671
591.49532	0.81378
589.44152	0.81191
587.38772	0.81119
585.33391	0.81054
583.28011	0.81045
581.22631	0.81091
579.17250	0.81101
577.11870	0.81090
575.06490	0.80980
573.01110	0.80756
570.95729	0.80564
568.90349	0.80415
566.84969	0.80233
564.79588	0.80028
562.74208	0.79840
560.68828	0.79662
558.63447	0.79448
556.58067	0.79086
554.52687	0.78623
552.47306	0.78280
550.41926	0.78072
548.36546	0.77868
546.31165	0.77542
544.25785	0.77039
542.20405	0.76480
540.15024	0.76044
538.09644	0.75703
536.04264	0.75254
533.98883	0.74764
531.93503	0.74540
529.88123	0.74695
527.82742	0.74959
525.77362	0.75155
523.71982	0.75466
521.66602	0.75809
519.61221	0.76066
517.55841	0.76311
515.50461	0.76567
513.45080	0.76720
511.39700	0.76735
509.34320	0.76942
507.28939	0.77385
505.23559	0.77752
503.18179	0.77986
501.12798	0.78067
499.07418	0.77992
497.02038	0.77860
494.96657	0.77572
492.91277	0.77191
490.85897	0.77061
488.80516	0.77053
486.75136	0.76745
484.69756	0.76012
482.64375	0.75003
480.58995	0.73869
478.53615	0.72647
476.48234	0.71411
474.42854	0.70261
472.37474	0.69157
470.32093	0.68347
468.26713	0.68038
466.21333	0.67979
464.15953	0.68139
462.10572	0.68422
460.05192	0.68630
457.99812	0.68972
455.94431	0.69631
453.89051	0.70276
451.83671	0.70802
449.78290	0.71369
447.72910	0.71881
445.67530	0.72052
443.62149	0.71784
441.56769	0.71475
439.51389	0.71318
437.46008	0.71118
435.40628	0.70931
433.35248	0.70920
431.29867	0.71063
429.24487	0.71146
427.19107	0.71098
425.13726	0.71157
423.08346	0.71431
421.02966	0.71738
418.97585	0.72530
416.92205	0.73764
414.86825	0.74560
412.81445	0.74939
410.76064	0.75075
408.70684	0.75679
406.65304	0.76958
404.59923	0.78099
402.54543	0.78475
400.49163	0.78324
398.43782	0.78493
