3996.70104	0.95722
3994.64724	0.95688
3992.59344	0.95695
3990.53964	0.95717
3988.48583	0.95741
3986.43203	0.95790
3984.37823	0.95837
3982.32442	0.95823
3980.27062	0.95746
3978.21682	0.95678
3976.16301	0.95644
3974.10921	0.95635
3972.05541	0.95655
3970.00160	0.95694
3967.94780	0.95736
3965.89400	0.95758
3963.84019	0.95753
3961.78639	0.95736
3959.73259	0.95717
3957.67878	0.95706
3955.62498	0.95702
3953.57118	0.95685
3951.51737	0.95671
3949.46357	0.95689
3947.40977	0.95732
3945.35596	0.95774
3943.30216	0.95763
3941.24836	0.95702
3939.19455	0.95678
3937.14075	0.95731
3935.08695	0.95840
3933.03315	0.95899
3930.97934	0.95831
3928.92554	0.95746
3926.87174	0.95715
3924.81793	0.95725
3922.76413	0.95783
3920.71033	0.95828
3918.65652	0.95820
3916.60272	0.95771
3914.54892	0.95701
3912.49511	0.95655
3910.44131	0.95679
3908.38751	0.95763
3906.33370	0.95806
3904.27990	0.95748
3902.22610	0.95677
3900.17229	0.95667
3898.11849	0.95674
3896.06469	0.95693
3894.01088	0.95700
3891.95708	0.95694
3889.90328	0.95706
3887.84947	0.95712
3885.79567	0.95755
3883.74187	0.95863
3881.68807	0.95934
3879.63426	0.95931
3877.58046	0.95899
3875.52666	0.95882
3873.47285	0.95868
3871.41905	0.95839
3869.36525	0.95844
3867.31144	0.95866
3865.25764	0.95842
3863.20384	0.95802
3861.15003	0.95782
3859.09623	0.95797
3857.04243	0.95854
3854.98862	0.95928
3852.93482	0.95982
3850.88102	0.95975
3848.82721	0.95939
3846.77341	0.95852
3844.71961	0.95735
3842.66580	0.95699
3840.61200	0.95776
3838.55820	0.95870
3836.50439	0.95892
3834.45059	0.95863
3832.39679	0.95821
3830.34298	0.95787
3828.28918	0.95788
3826.23538	0.95816
3824.18158	0.95840
3822.12777	0.95849
3820.07397	0.95843
3818.02017	0.95866
3815.96636	0.95925
3813.91256	0.95918
3811.85876	0.95869
3809.80495	0.95868
3807.75115	0.95894
3805.69735	0.95896
3803.64354	0.95873
3801.58974	0.95805
3799.53594	0.95742
3797.48213	0.95746
3795.42833	0.95767
3793.37453	0.95772
3791.32072	0.95784
3789.26692	0.95831
3787.21312	0.95895
3785.15931	0.95892
3783.10551	0.95814
3781.05171	0.95797
3778.99790	0.95844
3776.94410	0.95850
3774.89030	0.95858
3772.83650	0.95917
3770.78269	0.95989
3768.72889	0.96011
3766.67509	0.95977
3764.62128	0.95933
3762.56748	0.95923
3760.51368	0.95929
3758.45987	0.95896
3756.40607	0.95869
3754.35227	0.95919
3752.29846	0.95990
3750.24466	0.95924
3748.19086	0.95862
3746.13705	0.95990
3744.08325	0.96147
3742.02945	0.96137
3739.97564	0.96081
3737.92184	0.96016
3735.86804	0.95888
3733.81423	0.95819
3731.76043	0.95885
3729.70663	0.95957
3727.65282	0.95966
3725.59902	0.95915
3723.54522	0.95912
3721.49141	0.96003
3719.43761	0.96067
3717.38381	0.95991
3715.33001	0.95852
3713.27620	0.95758
3711.22240	0.95669
3709.16860	0.95627
3707.11479	0.95640
3705.06099	0.95540
3703.00719	0.95307
3700.95338	0.95099
3698.89958	0.95036
3696.84578	0.95011
3694.79197	0.94955
3692.73817	0.94925
3690.68437	0.94984
3688.63056	0.95164
3686.57676	0.95310
3684.52296	0.95352
3682.46915	0.95340
3680.41535	0.95277
3678.36155	0.95187
3676.30774	0.95091
3674.25394	0.95024
3672.20014	0.95028
3670.14633	0.95049
3668.09253	0.95035
3666.03873	0.94980
3663.98492	0.94930
3661.93112	0.94921
3659.87732	0.94915
3657.82352	0.94865
3655.76971	0.94787
3653.71591	0.94769
3651.66211	0.94795
3649.60830	0.94720
3647.55450	0.94580
3645.50070	0.94554
3643.44689	0.94572
3641.39309	0.94574
3639.33929	0.94540
3637.28548	0.94470
3635.23168	0.94369
3633.17788	0.94241
3631.12407	0.94155
3629.07027	0.94137
3627.01647	0.94080
3624.96266	0.94002
3622.90886	0.93972
3620.85506	0.93985
3618.80125	0.94023
3616.74745	0.94031
3614.69365	0.93957
3612.63984	0.93900
3610.58604	0.93967
3608.53224	0.94088
3606.47844	0.94152
3604.42463	0.94164
3602.37083	0.94163
3600.31703	0.94145
3598.26322	0.94144
3596.20942	0.94153
3594.15562	0.94131
3592.10181	0.94145
3590.04801	0.94212
3587.99421	0.94203
3585.94040	0.94096
3583.88660	0.94077
3581.83280	0.94123
3579.77899	0.94123
3577.72519	0.94107
3575.67139	0.94115
3573.61758	0.94111
3571.56378	0.94129
3569.50998	0.94164
3567.45617	0.94119
3565.40237	0.94055
3563.34857	0.94053
3561.29476	0.94028
3559.24096	0.93953
3557.18716	0.93913
3555.13335	0.93980
3553.07955	0.94057
3551.02575	0.94003
3548.97195	0.93894
3546.91814	0.93823
3544.86434	0.93776
3542.81054	0.93782
3540.75673	0.93846
3538.70293	0.93880
3536.64913	0.93834
3534.59532	0.93785
3532.54152	0.93816
3530.48772	0.93904
3528.43391	0.93991
3526.38011	0.94030
3524.32631	0.94018
3522.27250	0.93957
3520.21870	0.93882
3518.16490	0.93825
3516.11109	0.93784
3514.05729	0.93760
3512.00349	0.93771
3509.94968	0.93828
3507.89588	0.93865
3505.84208	0.93823
3503.78827	0.93764
3501.73447	0.93753
3499.68067	0.93770
3497.62687	0.93762
3495.57306	0.93753
3493.51926	0.93795
3491.46546	0.93844
3489.41165	0.93868
3487.35785	0.93885
3485.30405	0.93873
3483.25024	0.93830
3481.19644	0.93805
3479.14264	0.93801
3477.08883	0.93781
3475.03503	0.93765
3472.98123	0.93731
3470.92742	0.93675
3468.87362	0.93663
3466.81982	0.93672
3464.76601	0.93691
3462.71221	0.93732
3460.65841	0.93714
3458.60460	0.93661
3456.55080	0.93643
3454.49700	0.93643
3452.44319	0.93644
3450.38939	0.93635
3448.33559	0.93628
3446.28178	0.93616
3444.22798	0.93553
3442.17418	0.93489
3440.12038	0.93483
3438.06657	0.93505
3436.01277	0.93510
3433.95897	0.93495
3431.90516	0.93488
3429.85136	0.93507
3427.79756	0.93529
3425.74375	0.93530
3423.68995	0.93529
3421.63615	0.93544
3419.58234	0.93541
3417.52854	0.93503
3415.47474	0.93450
3413.42093	0.93437
3411.36713	0.93464
3409.31333	0.93454
3407.25952	0.93399
3405.20572	0.93371
3403.15192	0.93387
3401.09811	0.93380
3399.04431	0.93349
3396.99051	0.93345
3394.93670	0.93352
3392.88290	0.93344
3390.82910	0.93355
3388.77529	0.93382
3386.72149	0.93356
3384.66769	0.93332
3382.61389	0.93382
3380.56008	0.93429
3378.50628	0.93461
3376.45248	0.93479
3374.39867	0.93439
3372.34487	0.93413
3370.29107	0.93441
3368.23726	0.93475
3366.18346	0.93493
3364.12966	0.93478
3362.07585	0.93477
3360.02205	0.93534
3357.96825	0.93595
3355.91444	0.93590
3353.86064	0.93540
3351.80684	0.93507
3349.75303	0.93506
3347.69923	0.93506
3345.64543	0.93499
3343.59162	0.93522
3341.53782	0.93595
3339.48402	0.93662
3337.43021	0.93667
3335.37641	0.93632
3333.32261	0.93612
3331.26881	0.93599
3329.21500	0.93570
3327.16120	0.93567
3325.10740	0.93594
3323.05359	0.93601
3320.99979	0.93616
3318.94599	0.93675
3316.89218	0.93719
3314.83838	0.93710
3312.78458	0.93688
3310.73077	0.93679
3308.67697	0.93669
3306.62317	0.93658
3304.56936	0.93670
3302.51556	0.93698
3300.46176	0.93706
3298.40795	0.93704
3296.35415	0.93709
3294.30035	0.93744
3292.24654	0.93814
3290.19274	0.93824
3288.13894	0.93766
3286.08513	0.93757
3284.03133	0.93785
3281.97753	0.93797
3279.92372	0.93807
3277.86992	0.93830
3275.81612	0.93840
3273.76232	0.93827
3271.70851	0.93816
3269.65471	0.93802
3267.60091	0.93779
3265.54710	0.93775
3263.49330	0.93819
3261.43950	0.93891
3259.38569	0.93923
3257.33189	0.93914
3255.27809	0.93928
3253.22428	0.93963
3251.17048	0.93947
3249.11668	0.93903
3247.06287	0.93921
3245.00907	0.93994
3242.95527	0.94027
3240.90146	0.93997
3238.84766	0.93976
3236.79386	0.93981
3234.74005	0.93972
3232.68625	0.93942
3230.63245	0.93915
3228.57864	0.93918
3226.52484	0.93966
3224.47104	0.94005
3222.41724	0.93980
3220.36343	0.93975
3218.30963	0.94047
3216.25583	0.94125
3214.20202	0.94143
3212.14822	0.94114
3210.09442	0.94093
3208.04061	0.94081
3205.98681	0.94076
3203.93301	0.94114
3201.87920	0.94160
3199.82540	0.94177
3197.77160	0.94211
3195.71779	0.94263
3193.66399	0.94301
3191.61019	0.94333
3189.55638	0.94357
3187.50258	0.94353
3185.44878	0.94305
3183.39497	0.94259
3181.34117	0.94250
3179.28737	0.94243
3177.23356	0.94269
3175.17976	0.94363
3173.12596	0.94413
3171.07215	0.94381
3169.01835	0.94358
3166.96455	0.94369
3164.91075	0.94401
3162.85694	0.94462
3160.80314	0.94532
3158.74934	0.94551
3156.69553	0.94532
3154.64173	0.94546
3152.58793	0.94574
3150.53412	0.94588
3148.48032	0.94615
3146.42652	0.94651
3144.37271	0.94679
3142.31891	0.94698
3140.26511	0.94712
3138.21130	0.94716
3136.15750	0.94704
3134.10370	0.94700
3132.04989	0.94712
3129.99609	0.94716
3127.94229	0.94731
3125.88848	0.94779
3123.83468	0.94819
3121.78088	0.94823
3119.72707	0.94807
3117.67327	0.94784
3115.61947	0.94783
3113.56566	0.94822
3111.51186	0.94837
3109.45806	0.94791
3107.40426	0.94743
3105.35045	0.94735
3103.29665	0.94716
3101.24285	0.94682
3099.18904	0.94687
3097.13524	0.94693
3095.08144	0.94681
3093.02763	0.94672
3090.97383	0.94595
3088.92003	0.94451
3086.86622	0.94335
3084.81242	0.94265
3082.75862	0.94222
3080.70481	0.94223
3078.65101	0.94307
3076.59721	0.94409
3074.54340	0.94439
3072.48960	0.94433
3070.43580	0.94411
3068.38199	0.94353
3066.32819	0.94240
3064.27439	0.94057
3062.22058	0.93896
3060.16678	0.93860
3058.11298	0.93931
3056.05918	0.94032
3054.00537	0.94123
3051.95157	0.94243
3049.89777	0.94383
3047.84396	0.94490
3045.79016	0.94568
3043.73636	0.94628
3041.68255	0.94655
3039.62875	0.94631
3037.57495	0.94505
3035.52114	0.94271
3033.46734	0.94006
3031.41354	0.93676
3029.35973	0.93258
3027.30593	0.92874
3025.25213	0.92671
3023.19832	0.92759
3021.14452	0.93114
3019.09072	0.93561
3017.03691	0.93949
3014.98311	0.94262
3012.92931	0.94515
3010.87550	0.94649
3008.82170	0.94654
3006.76790	0.94631
3004.71409	0.94634
3002.66029	0.94633
3000.60649	0.94638
2998.55269	0.94680
2996.49888	0.94757
2994.44508	0.94843
2992.39128	0.94918
2990.33747	0.94981
2988.28367	0.95029
2986.22987	0.95073
2984.17606	0.95127
2982.12226	0.95152
2980.06846	0.95128
2978.01465	0.95081
2975.96085	0.95046
2973.90705	0.95027
2971.85324	0.94993
2969.79944	0.94949
2967.74564	0.94927
2965.69183	0.94923
2963.63803	0.94903
2961.58423	0.94845
2959.53042	0.94775
2957.47662	0.94718
2955.42282	0.94691
2953.36901	0.94692
2951.31521	0.94667
2949.26141	0.94582
2947.20761	0.94470
2945.15380	0.94361
2943.10000	0.94219
2941.04620	0.94020
2938.99239	0.93816
2936.93859	0.93606
2934.88479	0.93324
2932.83098	0.92990
2930.77718	0.92701
2928.72338	0.92484
2926.66957	0.92294
2924.61577	0.92116
2922.56197	0.91976
2920.50816	0.91912
2918.45436	0.91930
2916.40056	0.92025
2914.34675	0.92175
2912.29295	0.92352
2910.23915	0.92538
2908.18534	0.92730
2906.13154	0.92926
2904.07774	0.93118
2902.02393	0.93293
2899.97013	0.93459
2897.91633	0.93625
2895.86252	0.93768
2893.80872	0.93894
2891.75492	0.94006
2889.70112	0.94098
2887.64731	0.94190
2885.59351	0.94267
2883.53971	0.94325
2881.48590	0.94376
2879.43210	0.94409
2877.37830	0.94447
2875.32449	0.94503
2873.27069	0.94544
2871.21689	0.94583
2869.16308	0.94608
2867.10928	0.94600
2865.05548	0.94577
2863.00167	0.94531
2860.94787	0.94459
2858.89407	0.94380
2856.84026	0.94285
2854.78646	0.94177
2852.73266	0.94082
2850.67885	0.94023
2848.62505	0.94010
2846.57125	0.94038
2844.51744	0.94121
2842.46364	0.94250
2840.40984	0.94382
2838.35603	0.94542
2836.30223	0.94741
2834.24843	0.94921
2832.19463	0.95038
2830.14082	0.95085
2828.08702	0.95103
2826.03322	0.95117
2823.97941	0.95134
2821.92561	0.95183
2819.87181	0.95240
2817.81800	0.95275
2815.76420	0.95307
2813.71040	0.95318
2811.65659	0.95300
2809.60279	0.95297
2807.54899	0.95311
2805.49518	0.95317
2803.44138	0.95315
2801.38758	0.95318
2799.33377	0.95348
2797.27997	0.95378
2795.22617	0.95381
2793.17236	0.95381
2791.11856	0.95396
2789.06476	0.95408
2787.01095	0.95394
2784.95715	0.95369
2782.90335	0.95380
2780.84955	0.95432
2778.79574	0.95477
2776.74194	0.95486
2774.68814	0.95498
2772.63433	0.95539
2770.58053	0.95569
2768.52673	0.95565
2766.47292	0.95525
2764.41912	0.95472
2762.36532	0.95466
2760.31151	0.95491
2758.25771	0.95508
2756.20391	0.95526
2754.15010	0.95538
2752.09630	0.95539
2750.04250	0.95536
2747.98869	0.95526
2745.93489	0.95523
2743.88109	0.95533
2741.82728	0.95555
2739.77348	0.95590
2737.71968	0.95609
2735.66587	0.95598
2733.61207	0.95587
2731.55827	0.95582
2729.50446	0.95578
2727.45066	0.95589
2725.39686	0.95595
2723.34306	0.95565
2721.28925	0.95534
2719.23545	0.95521
2717.18165	0.95519
2715.12784	0.95564
2713.07404	0.95624
2711.02024	0.95625
2708.96643	0.95615
2706.91263	0.95637
2704.85883	0.95649
2702.80502	0.95633
2700.75122	0.95615
2698.69742	0.95606
2696.64361	0.95587
2694.58981	0.95571
2692.53601	0.95600
2690.48220	0.95641
2688.42840	0.95630
2686.37460	0.95590
2684.32079	0.95559
2682.26699	0.95546
2680.21319	0.95569
2678.15938	0.95635
2676.10558	0.95698
2674.05178	0.95717
2671.99797	0.95711
2669.94417	0.95690
2667.89037	0.95648
2665.83657	0.95612
2663.78276	0.95601
2661.72896	0.95602
2659.67516	0.95617
2657.62135	0.95634
2655.56755	0.95626
2653.51375	0.95640
2651.45994	0.95702
2649.40614	0.95759
2647.35234	0.95777
2645.29853	0.95755
2643.24473	0.95728
2641.19093	0.95727
2639.13712	0.95705
2637.08332	0.95699
2635.02952	0.95762
2632.97571	0.95802
2630.92191	0.95779
2628.86811	0.95761
2626.81430	0.95787
2624.76050	0.95794
2622.70670	0.95753
2620.65289	0.95749
2618.59909	0.95776
2616.54529	0.95768
2614.49149	0.95764
2612.43768	0.95794
2610.38388	0.95789
2608.33008	0.95728
2606.27627	0.95692
2604.22247	0.95722
2602.16867	0.95765
2600.11486	0.95796
2598.06106	0.95832
2596.00726	0.95867
2593.95345	0.95867
2591.89965	0.95801
2589.84585	0.95774
2587.79204	0.95843
2585.73824	0.95868
2583.68444	0.95812
2581.63063	0.95777
2579.57683	0.95805
2577.52303	0.95835
2575.46922	0.95831
2573.41542	0.95832
2571.36162	0.95837
2569.30781	0.95835
2567.25401	0.95843
2565.20021	0.95841
2563.14640	0.95853
2561.09260	0.95916
2559.03880	0.95973
2556.98500	0.96006
2554.93119	0.96032
2552.87739	0.96016
2550.82359	0.95982
2548.76978	0.95964
2546.71598	0.95945
2544.66218	0.95953
2542.60837	0.95960
2540.55457	0.95925
2538.50077	0.95910
2536.44696	0.95939
2534.39316	0.95972
2532.33936	0.95977
2530.28555	0.95966
2528.23175	0.95967
2526.17795	0.95979
2524.12414	0.95972
2522.07034	0.95930
2520.01654	0.95915
2517.96273	0.95994
2515.90893	0.96088
2513.85513	0.96087
2511.80132	0.96037
2509.74752	0.96040
2507.69372	0.96096
2505.63992	0.96125
2503.58611	0.96100
2501.53231	0.96051
2499.47851	0.95992
2497.42470	0.95962
2495.37090	0.96007
2493.31710	0.96085
2491.26329	0.96101
2489.20949	0.96068
2487.15569	0.96080
2485.10188	0.96117
2483.04808	0.96112
2480.99428	0.96058
2478.94047	0.95977
2476.88667	0.95933
2474.83287	0.95954
2472.77906	0.95994
2470.72526	0.95989
2468.67146	0.95973
2466.61765	0.95990
2464.56385	0.96014
2462.51005	0.96039
2460.45624	0.96053
2458.40244	0.96070
2456.34864	0.96150
2454.29483	0.96235
2452.24103	0.96208
2450.18723	0.96098
2448.13343	0.96059
2446.07962	0.96130
2444.02582	0.96212
2441.97202	0.96246
2439.91821	0.96238
2437.86441	0.96201
2435.81061	0.96144
2433.75680	0.96130
2431.70300	0.96150
2429.64920	0.96147
2427.59539	0.96133
2425.54159	0.96117
2423.48779	0.96128
2421.43398	0.96181
2419.38018	0.96204
2417.32638	0.96185
2415.27257	0.96173
2413.21877	0.96174
2411.16497	0.96175
2409.11116	0.96194
2407.05736	0.96219
2405.00356	0.96181
2402.94975	0.96112
2400.89595	0.96103
2398.84215	0.96115
2396.78834	0.96121
2394.73454	0.96135
2392.68074	0.96135
2390.62694	0.96151
2388.57313	0.96187
2386.51933	0.96172
2384.46553	0.96144
2382.41172	0.96193
2380.35792	0.96270
2378.30412	0.96261
2376.25031	0.96177
2374.19651	0.96169
2372.14271	0.96256
2370.08890	0.96291
2368.03510	0.96276
2365.98130	0.96282
2363.92749	0.96278
2361.87369	0.96262
2359.81989	0.96270
2357.76608	0.96293
2355.71228	0.96245
2353.65848	0.96132
2351.60467	0.96084
2349.55087	0.96098
2347.49707	0.96115
2345.44326	0.96112
2343.38946	0.96058
2341.33566	0.96006
2339.28186	0.96059
2337.22805	0.96151
2335.17425	0.96138
2333.12045	0.96071
2331.06664	0.96067
2329.01284	0.96097
2326.95904	0.96080
2324.90523	0.96037
2322.85143	0.96024
2320.79763	0.96046
2318.74382	0.96048
2316.69002	0.95992
2314.63622	0.95956
2312.58241	0.96002
2310.52861	0.96099
2308.47481	0.96169
2306.42100	0.96182
2304.36720	0.96165
2302.31340	0.96170
2300.25959	0.96204
2298.20579	0.96149
2296.15199	0.96012
2294.09818	0.95974
2292.04438	0.96078
2289.99058	0.96178
2287.93677	0.96177
2285.88297	0.96162
2283.82917	0.96190
2281.77537	0.96212
2279.72156	0.96214
2277.66776	0.96183
2275.61396	0.96122
2273.56015	0.96111
2271.50635	0.96183
2269.45255	0.96288
2267.39874	0.96323
2265.34494	0.96230
2263.29114	0.96133
2261.23733	0.96136
2259.18353	0.96174
2257.12973	0.96226
2255.07592	0.96304
2253.02212	0.96343
2250.96832	0.96306
2248.91451	0.96264
2246.86071	0.96289
2244.80691	0.96277
2242.75310	0.96233
2240.69930	0.96358
2238.64550	0.96466
2236.59169	0.96272
2234.53789	0.96083
2232.48409	0.96187
2230.43029	0.96374
2228.37648	0.96461
2226.32268	0.96457
2224.26888	0.96400
2222.21507	0.96397
2220.16127	0.96483
2218.10747	0.96555
2216.05366	0.96583
2213.99986	0.96543
2211.94606	0.96416
2209.89225	0.96284
2207.83845	0.96215
2205.78465	0.96204
2203.73084	0.96175
2201.67704	0.96116
2199.62324	0.96122
2197.56943	0.96216
2195.51563	0.96317
2193.46183	0.96321
2191.40802	0.96236
2189.35422	0.96161
2187.30042	0.96200
2185.24661	0.96396
2183.19281	0.96542
2181.13901	0.96576
2179.08520	0.96655
2177.03140	0.96636
2174.97760	0.96493
2172.92380	0.96460
2170.86999	0.96512
2168.81619	0.96535
2166.76239	0.96596
2164.70858	0.96649
2162.65478	0.96631
2160.60098	0.96756
2158.54717	0.97067
2156.49337	0.97233
2154.43957	0.97105
2152.38576	0.96824
2150.33196	0.96602
2148.27816	0.96605
2146.22435	0.96718
2144.17055	0.96669
2142.11675	0.96566
2140.06294	0.96631
2138.00914	0.96705
2135.95534	0.96659
2133.90153	0.96601
2131.84773	0.96575
2129.79393	0.96537
2127.74012	0.96508
2125.68632	0.96560
2123.63252	0.96632
2121.57871	0.96622
2119.52491	0.96572
2117.47111	0.96536
2115.41731	0.96468
2113.36350	0.96364
2111.30970	0.96286
2109.25590	0.96286
2107.20209	0.96403
2105.14829	0.96545
2103.09449	0.96550
2101.04068	0.96444
2098.98688	0.96401
2096.93308	0.96515
2094.87927	0.96628
2092.82547	0.96581
2090.77167	0.96493
2088.71786	0.96492
2086.66406	0.96533
2084.61026	0.96554
2082.55645	0.96577
2080.50265	0.96607
2078.44885	0.96551
2076.39504	0.96467
2074.34124	0.96494
2072.28744	0.96599
2070.23363	0.96681
2068.17983	0.96726
2066.12603	0.96731
2064.07223	0.96651
2062.01842	0.96504
2059.96462	0.96383
2057.91082	0.96346
2055.85701	0.96419
2053.80321	0.96581
2051.74941	0.96631
2049.69560	0.96579
2047.64180	0.96733
2045.58800	0.97009
2043.53419	0.97024
2041.48039	0.96761
2039.42659	0.96529
2037.37278	0.96346
2035.31898	0.96083
2033.26518	0.96034
2031.21137	0.96284
2029.15757	0.96380
2027.10377	0.96284
2025.04996	0.96292
2022.99616	0.96451
2020.94236	0.96707
2018.88855	0.96913
2016.83475	0.96890
2014.78095	0.96725
2012.72714	0.96704
2010.67334	0.96884
2008.61954	0.97092
2006.56574	0.97198
2004.51193	0.97213
2002.45813	0.97211
2000.40433	0.97309
1998.35052	0.97360
1996.29672	0.97116
1994.24292	0.96823
1992.18911	0.96698
1990.13531	0.96709
1988.08151	0.96821
1986.02770	0.96967
1983.97390	0.97044
1981.92010	0.96889
1979.86629	0.96632
1977.81249	0.96627
1975.75869	0.96757
1973.70488	0.96691
1971.65108	0.96500
1969.59728	0.96434
1967.54347	0.96637
1965.48967	0.96886
1963.43587	0.96930
1961.38206	0.96942
1959.32826	0.96908
1957.27446	0.96677
1955.22066	0.96480
1953.16685	0.96527
1951.11305	0.96645
1949.05925	0.96630
1947.00544	0.96580
1944.95164	0.96623
1942.89784	0.96625
1940.84403	0.96512
1938.79023	0.96362
1936.73643	0.96215
1934.68262	0.96226
1932.62882	0.96427
1930.57502	0.96590
1928.52121	0.96636
1926.46741	0.96681
1924.41361	0.96740
1922.35980	0.96707
1920.30600	0.96616
1918.25220	0.96656
1916.19839	0.96851
1914.14459	0.96963
1912.09079	0.96838
1910.03698	0.96606
1907.98318	0.96507
1905.92938	0.96525
1903.87557	0.96531
1901.82177	0.96518
1899.76797	0.96492
1897.71417	0.96501
1895.66036	0.96553
1893.60656	0.96569
1891.55276	0.96546
1889.49895	0.96528
1887.44515	0.96526
1885.39135	0.96527
1883.33754	0.96533
1881.28374	0.96564
1879.22994	0.96534
1877.17613	0.96384
1875.12233	0.96280
1873.06853	0.96336
1871.01472	0.96460
1868.96092	0.96480
1866.90712	0.96392
1864.85331	0.96370
1862.79951	0.96393
1860.74571	0.96400
1858.69190	0.96425
1856.63810	0.96465
1854.58430	0.96513
1852.53049	0.96570
1850.47669	0.96600
1848.42289	0.96594
1846.36908	0.96589
1844.31528	0.96632
1842.26148	0.96648
1840.20768	0.96569
1838.15387	0.96500
1836.10007	0.96536
1834.04627	0.96590
1831.99246	0.96550
1829.93866	0.96529
1827.88486	0.96598
1825.83105	0.96595
1823.77725	0.96541
1821.72345	0.96535
1819.66964	0.96510
1817.61584	0.96444
1815.56204	0.96415
1813.50823	0.96434
1811.45443	0.96434
1809.40063	0.96373
1807.34682	0.96325
1805.29302	0.96340
1803.23922	0.96360
1801.18541	0.96358
1799.13161	0.96343
1797.07781	0.96344
1795.02400	0.96394
1792.97020	0.96466
1790.91640	0.96494
1788.86260	0.96479
1786.80879	0.96477
1784.75499	0.96505
1782.70119	0.96525
1780.64738	0.96522
1778.59358	0.96535
1776.53978	0.96558
1774.48597	0.96574
1772.43217	0.96615
1770.37837	0.96643
1768.32456	0.96597
1766.27076	0.96539
1764.21696	0.96519
1762.16315	0.96506
1760.10935	0.96471
1758.05555	0.96438
1756.00174	0.96434
1753.94794	0.96448
1751.89414	0.96462
1749.84033	0.96453
1747.78653	0.96386
1745.73273	0.96314
1743.67892	0.96277
1741.62512	0.96267
1739.57132	0.96263
1737.51751	0.96231
1735.46371	0.96208
1733.40991	0.96213
1731.35611	0.96187
1729.30230	0.96150
1727.24850	0.96150
1725.19470	0.96168
1723.14089	0.96179
1721.08709	0.96196
1719.03329	0.96213
1716.97948	0.96181
1714.92568	0.96153
1712.87188	0.96175
1710.81807	0.96174
1708.76427	0.96137
1706.71047	0.96141
1704.65666	0.96209
1702.60286	0.96234
1700.54906	0.96179
1698.49525	0.96172
1696.44145	0.96196
1694.38765	0.96108
1692.33384	0.95999
1690.28004	0.95921
1688.22624	0.95844
1686.17243	0.95769
1684.11863	0.95675
1682.06483	0.95605
1680.01103	0.95566
1677.95722	0.95500
1675.90342	0.95403
1673.84962	0.95316
1671.79581	0.95259
1669.74201	0.95219
1667.68821	0.95213
1665.63440	0.95220
1663.58060	0.95230
1661.52680	0.95227
1659.47299	0.95190
1657.41919	0.95153
1655.36539	0.95127
1653.31158	0.95099
1651.25778	0.95085
1649.20398	0.95073
1647.15017	0.95047
1645.09637	0.95045
1643.04257	0.95075
1640.98876	0.95095
1638.93496	0.95086
1636.88116	0.95066
1634.82735	0.95064
1632.77355	0.95074
1630.71975	0.95069
1628.66594	0.95052
1626.61214	0.95060
1624.55834	0.95078
1622.50454	0.95072
1620.45073	0.95074
1618.39693	0.95091
1616.34313	0.95113
1614.28932	0.95143
1612.23552	0.95147
1610.18172	0.95062
1608.12791	0.94808
1606.07411	0.94372
1604.02031	0.93887
1601.96650	0.93565
1599.91270	0.93568
1597.85890	0.93845
1595.80509	0.94240
1593.75129	0.94630
1591.69749	0.94922
1589.64368	0.95078
1587.58988	0.95096
1585.53608	0.94996
1583.48227	0.94929
1581.42847	0.95034
1579.37467	0.95204
1577.32086	0.95350
1575.26706	0.95495
1573.21326	0.95598
1571.15945	0.95689
1569.10565	0.95793
1567.05185	0.95846
1564.99805	0.95853
1562.94424	0.95858
1560.89044	0.95880
1558.83664	0.95869
1556.78283	0.95800
1554.72903	0.95787
1552.67523	0.95790
1550.62142	0.95783
1548.56762	0.95773
1546.51382	0.95755
1544.46001	0.95727
1542.40621	0.95689
1540.35241	0.95652
1538.29860	0.95673
1536.24480	0.95697
1534.19100	0.95704
1532.13719	0.95742
1530.08339	0.95765
1528.02959	0.95748
1525.97578	0.95736
1523.92198	0.95751
1521.86818	0.95800
1519.81437	0.95828
1517.76057	0.95777
1515.70677	0.95716
1513.65297	0.95674
1511.59916	0.95626
1509.54536	0.95590
1507.49156	0.95581
1505.43775	0.95520
1503.38395	0.95397
1501.33015	0.95221
1499.27634	0.94749
1497.22254	0.93347
1495.16874	0.91204
1493.11493	0.89889
1491.06113	0.90184
1489.00733	0.91854
1486.95352	0.93283
1484.89972	0.93943
1482.84592	0.94297
1480.79211	0.94530
1478.73831	0.94673
1476.68451	0.94764
1474.63070	0.94827
1472.57690	0.94837
1470.52310	0.94818
1468.46929	0.94831
1466.41549	0.94848
1464.36169	0.94817
1462.30788	0.94748
1460.25408	0.94607
1458.20028	0.93937
1456.14648	0.92038
1454.09267	0.90271
1452.03887	0.89565
1449.98507	0.89883
1447.93126	0.90820
1445.87746	0.91719
1443.82366	0.92378
1441.76985	0.92913
1439.71605	0.93320
1437.66225	0.93674
1435.60844	0.94069
1433.55464	0.94357
1431.50084	0.94539
1429.44703	0.94686
1427.39323	0.94778
1425.33943	0.94843
1423.28562	0.94943
1421.23182	0.95076
1419.17802	0.95191
1417.12421	0.95245
1415.07041	0.95286
1413.01661	0.95346
1410.96280	0.95410
1408.90900	0.95499
1406.85520	0.95590
1404.80139	0.95625
1402.74759	0.95638
1400.69379	0.95684
1398.63999	0.95742
1396.58618	0.95790
1394.53238	0.95815
1392.47858	0.95793
1390.42477	0.95753
1388.37097	0.95726
1386.31717	0.95689
1384.26336	0.95617
1382.20956	0.95530
1380.15576	0.95444
1378.10195	0.95364
1376.04815	0.95321
1373.99435	0.95331
1371.94054	0.95340
1369.88674	0.95330
1367.83294	0.95332
1365.77913	0.95357
1363.72533	0.95415
1361.67153	0.95511
1359.61772	0.95596
1357.56392	0.95658
1355.51012	0.95700
1353.45631	0.95710
1351.40251	0.95705
1349.34871	0.95713
1347.29491	0.95748
1345.24110	0.95805
1343.18730	0.95857
1341.13350	0.95891
1339.07969	0.95906
1337.02589	0.95904
1334.97209	0.95878
1332.91828	0.95839
1330.86448	0.95820
1328.81068	0.95814
1326.75687	0.95799
1324.70307	0.95782
1322.64927	0.95786
1320.59546	0.95813
1318.54166	0.95845
1316.48786	0.95851
1314.43405	0.95824
1312.38025	0.95802
1310.32645	0.95807
1308.27264	0.95832
1306.21884	0.95871
1304.16504	0.95921
1302.11123	0.95971
1300.05743	0.96014
1298.00363	0.96040
1295.94982	0.96036
1293.89602	0.96018
1291.84222	0.96014
1289.78842	0.96019
1287.73461	0.96015
1285.68081	0.96003
1283.62701	0.95981
1281.57320	0.95924
1279.51940	0.95850
1277.46560	0.95808
1275.41179	0.95819
1273.35799	0.95845
1271.30419	0.95843
1269.25038	0.95824
1267.19658	0.95825
1265.14278	0.95853
1263.08897	0.95887
1261.03517	0.95902
1258.98137	0.95895
1256.92756	0.95885
1254.87376	0.95883
1252.81996	0.95875
1250.76615	0.95851
1248.71235	0.95821
1246.65855	0.95783
1244.60474	0.95735
1242.55094	0.95710
1240.49714	0.95710
1238.44334	0.95702
1236.38953	0.95682
1234.33573	0.95638
1232.28193	0.95558
1230.22812	0.95471
1228.17432	0.95410
1226.12052	0.95348
1224.06671	0.95250
1222.01291	0.95131
1219.95911	0.95006
1217.90530	0.94852
1215.85150	0.94654
1213.79770	0.94450
1211.74389	0.94276
1209.69009	0.94087
1207.63629	0.93820
1205.58248	0.93499
1203.52868	0.93196
1201.47488	0.92917
1199.42107	0.92623
1197.36727	0.92312
1195.31347	0.92005
1193.25966	0.91695
1191.20586	0.91348
1189.15206	0.90971
1187.09825	0.90585
1185.04445	0.90170
1182.99065	0.89764
1180.93685	0.89434
1178.88304	0.89170
1176.82924	0.88924
1174.77544	0.88652
1172.72163	0.88346
1170.66783	0.88017
1168.61403	0.87678
1166.56022	0.87368
1164.50642	0.87117
1162.45262	0.86920
1160.39881	0.86737
1158.34501	0.86525
1156.29121	0.86278
1154.23740	0.86039
1152.18360	0.85862
1150.12980	0.85762
1148.07599	0.85683
1146.02219	0.85562
1143.96839	0.85408
1141.91458	0.85257
1139.86078	0.85109
1137.80698	0.84934
1135.75317	0.84724
1133.69937	0.84492
1131.64557	0.84253
1129.59176	0.84012
1127.53796	0.83717
1125.48416	0.83322
1123.43036	0.82864
1121.37655	0.82391
1119.32275	0.81883
1117.26895	0.81298
1115.21514	0.80684
1113.16134	0.80121
1111.10754	0.79602
1109.05373	0.79118
1106.99993	0.78699
1104.94613	0.78347
1102.89232	0.78019
1100.83852	0.77683
1098.78472	0.77383
1096.73091	0.77152
1094.67711	0.76931
1092.62331	0.76691
1090.56950	0.76483
1088.51570	0.76335
1086.46190	0.76237
1084.40809	0.76118
1082.35429	0.75935
1080.30049	0.75744
1078.24668	0.75563
1076.19288	0.75325
1074.13908	0.75006
1072.08528	0.74642
1070.03147	0.74265
1067.97767	0.73891
1065.92387	0.73492
1063.87006	0.73080
1061.81626	0.72709
1059.76246	0.72360
1057.70865	0.71952
1055.65485	0.71414
1053.60105	0.70798
1051.54724	0.70163
1049.49344	0.69430
1047.43964	0.68583
1045.38583	0.67693
1043.33203	0.66764
1041.27823	0.65773
1039.22442	0.64729
1037.17062	0.63674
1035.11682	0.62645
1033.06301	0.61649
1031.00921	0.60699
1028.95541	0.59905
1026.90160	0.59365
1024.84780	0.59049
1022.79400	0.58860
1020.74019	0.58688
1018.68639	0.58448
1016.63259	0.58149
1014.57879	0.57826
1012.52498	0.57499
1010.47118	0.57207
1008.41738	0.56935
1006.36357	0.56687
1004.30977	0.56519
1002.25597	0.56490
1000.20216	0.56627
998.14836	0.56900
996.09456	0.57255
994.04075	0.57663
991.98695	0.58136
989.93315	0.58687
987.87934	0.59311
985.82554	0.59981
983.77174	0.60679
981.71793	0.61443
979.66413	0.62333
977.61033	0.63392
975.55652	0.64605
973.50272	0.65891
971.44892	0.67136
969.39511	0.68283
967.34131	0.69333
965.28751	0.70326
963.23371	0.71321
961.17990	0.72298
959.12610	0.73192
957.07230	0.73993
955.01849	0.74716
952.96469	0.75370
950.91089	0.75954
948.85708	0.76477
946.80328	0.76945
944.74948	0.77357
942.69567	0.77726
940.64187	0.78063
938.58807	0.78408
936.53426	0.78801
934.48046	0.79209
932.42666	0.79579
930.37285	0.79901
928.31905	0.80179
926.26525	0.80404
924.21144	0.80567
922.15764	0.80657
920.10384	0.80655
918.05003	0.80534
915.99623	0.80320
913.94243	0.80112
911.88862	0.79974
909.83482	0.79952
907.78102	0.80165
905.72722	0.80670
903.67341	0.81376
901.61961	0.82208
899.56581	0.83075
897.51200	0.83866
895.45820	0.84563
893.40440	0.85145
891.35059	0.85603
889.29679	0.86023
887.24299	0.86414
885.18918	0.86684
883.13538	0.86841
881.08158	0.86972
879.02777	0.87130
876.97397	0.87316
874.92017	0.87536
872.86636	0.87854
870.81256	0.88242
868.75876	0.88577
866.70495	0.88808
864.65115	0.88984
862.59735	0.89146
860.54354	0.89316
858.48974	0.89543
856.43594	0.89827
854.38213	0.90073
852.32833	0.90234
850.27453	0.90291
848.22073	0.90208
846.16692	0.90056
844.11312	0.89946
842.05932	0.89855
840.00551	0.89731
837.95171	0.89663
835.89791	0.89696
833.84410	0.89723
831.79030	0.89713
829.73650	0.89700
827.68269	0.89695
825.62889	0.89727
823.57509	0.89782
821.52128	0.89905
819.46748	0.90101
817.41368	0.90164
815.35987	0.90058
813.30607	0.89931
811.25227	0.89782
809.19846	0.89474
807.14466	0.88900
805.09086	0.88132
803.03705	0.87372
800.98325	0.86881
798.92945	0.86734
796.87565	0.86807
794.82184	0.87003
792.76804	0.87200
790.71424	0.87302
788.66043	0.87286
786.60663	0.87153
784.55283	0.86928
782.49902	0.86635
780.44522	0.86341
778.39142	0.86135
776.33761	0.85942
774.28381	0.85608
772.23001	0.85094
770.17620	0.84406
768.12240	0.83552
766.06860	0.82551
764.01479	0.81433
761.96099	0.80318
759.90719	0.79339
757.85338	0.78580
755.79958	0.78152
753.74578	0.78054
751.69197	0.78155
749.63817	0.78368
747.58437	0.78722
745.53056	0.79373
743.47676	0.80433
741.42296	0.81747
739.36916	0.83037
737.31535	0.84184
735.26155	0.85126
733.20775	0.85821
731.15394	0.86357
729.10014	0.86747
727.04634	0.86972
724.99253	0.87128
722.93873	0.87330
720.88493	0.87572
718.83112	0.87805
716.77732	0.87980
714.72352	0.87937
712.66971	0.87560
710.61591	0.86697
708.56211	0.84927
706.50830	0.81830
704.45450	0.77255
702.40070	0.71342
700.34689	0.64644
698.29309	0.58590
696.23929	0.55982
694.18548	0.59076
692.13168	0.66031
690.07788	0.72550
688.02408	0.76572
685.97027	0.78713
683.91647	0.80002
681.86267	0.80903
679.80886	0.81504
677.75506	0.81847
675.70126	0.82090
673.64745	0.82340
671.59365	0.82490
669.53985	0.82529
667.48604	0.82778
665.43224	0.83129
663.37844	0.83258
661.32463	0.83254
659.27083	0.83222
657.21703	0.83124
655.16322	0.82906
653.10942	0.82601
651.05562	0.82267
649.00181	0.82034
646.94801	0.82060
644.89421	0.82312
642.84040	0.82580
640.78660	0.82759
638.73280	0.82917
636.67899	0.83051
634.62519	0.83089
632.57139	0.83098
630.51759	0.83258
628.46378	0.83504
626.40998	0.83526
624.35618	0.83308
622.30237	0.83063
620.24857	0.82818
618.19477	0.82508
616.14096	0.82113
614.08716	0.81701
612.03336	0.81361
609.97955	0.81068
607.92575	0.80769
605.87195	0.80451
603.81814	0.80123
601.76434	0.79708
599.71054	0.79180
597.65673	0.78789
595.60293	0.78643
593.54913	0.78517
591.49532	0.78354
589.44152	0.78270
587.38772	0.78203
585.33391	0.78133
583.28011	0.78020
581.22631	0.77769
579.17250	0.77477
577.11870	0.77213
575.06490	0.76931
573.01110	0.76540
570.95729	0.76041
568.90349	0.75539
566.84969	0.75026
564.79588	0.74446
562.74208	0.73834
560.68828	0.73160
558.63447	0.72377
556.58067	0.71618
554.52687	0.70947
552.47306	0.70130
550.41926	0.69041
548.36546	0.67923
546.31165	0.66797
544.25785	0.65489
542.20405	0.64147
540.15024	0.62849
538.09644	0.61675
536.04264	0.60888
533.98883	0.60507
531.93503	0.60440
529.88123	0.60678
527.82742	0.61075
525.77362	0.61462
523.71982	0.61807
521.66602	0.62197
519.61221	0.62718
517.55841	0.63312
515.50461	0.63870
513.45080	0.64451
511.39700	0.65140
509.34320	0.65864
507.28939	0.66439
505.23559	0.66848
503.18179	0.67201
501.12798	0.67424
499.07418	0.67489
497.02038	0.67417
494.96657	0.67052
492.91277	0.66354
490.85897	0.65514
488.80516	0.64608
486.75136	0.63335
484.69756	0.61575
482.64375	0.59704
480.58995	0.57944
478.53615	0.56229
476.48234	0.54666
474.42854	0.53382
472.37474	0.52057
470.32093	0.50718
468.26713	0.49929
466.21333	0.49668
464.15953	0.49663
462.10572	0.49984
460.05192	0.50643
457.99812	0.51545
455.94431	0.52532
453.89051	0.53466
451.83671	0.54599
449.78290	0.55719
447.72910	0.56320
445.67530	0.56427
443.62149	0.56286
441.56769	0.56275
439.51389	0.56576
437.46008	0.56552
435.40628	0.55826
433.35248	0.55011
431.29867	0.54521
429.24487	0.54480
427.19107	0.54874
425.13726	0.55160
423.08346	0.55075
421.02966	0.55175
418.97585	0.55771
416.92205	0.56331
414.86825	0.56774
412.81445	0.57366
410.76064	0.58242
408.70684	0.59351
406.65304	0.60284
404.59923	0.60824
402.54543	0.60847
400.49163	0.60281
398.43782	0.59635
