3996.70104	1.00102
3994.64724	1.00169
3992.59344	1.00220
3990.53964	1.00186
3988.48583	1.00121
3986.43203	1.00082
3984.37823	1.00076
3982.32442	1.00097
3980.27062	1.00126
3978.21682	1.00136
3976.16301	1.00168
3974.10921	1.00221
3972.05541	1.00202
3970.00160	1.00146
3967.94780	1.00148
3965.89400	1.00170
3963.84019	1.00160
3961.78639	1.00139
3959.73259	1.00138
3957.67878	1.00156
3955.62498	1.00153
3953.57118	1.00108
3951.51737	1.00089
3949.46357	1.00120
3947.40977	1.00141
3945.35596	1.00140
3943.30216	1.00116
3941.24836	1.00100
3939.19455	1.00142
3937.14075	1.00223
3935.08695	1.00260
3933.03315	1.00209
3930.97934	1.00156
3928.92554	1.00140
3926.87174	1.00133
3924.81793	1.00131
3922.76413	1.00126
3920.71033	1.00127
3918.65652	1.00168
3916.60272	1.00215
3914.54892	1.00220
3912.49511	1.00211
3910.44131	1.00206
3908.38751	1.00209
3906.33370	1.00217
3904.27990	1.00232
3902.22610	1.00220
3900.17229	1.00149
3898.11849	1.00108
3896.06469	1.00124
3894.01088	1.00161
3891.95708	1.00190
3889.90328	1.00178
3887.84947	1.00157
3885.79567	1.00162
3883.74187	1.00195
3881.68807	1.00216
3879.63426	1.00210
3877.58046	1.00194
3875.52666	1.00197
3873.47285	1.00192
3871.41905	1.00103
3869.36525	0.99972
3867.31144	0.99910
3865.25764	0.99955
3863.20384	1.00070
3861.15003	1.00139
3859.09623	1.00145
3857.04243	1.00121
3854.98862	1.00086
3852.93482	1.00105
3850.88102	1.00174
3848.82721	1.00230
3846.77341	1.00254
3844.71961	1.00250
3842.66580	1.00251
3840.61200	1.00225
3838.55820	1.00133
3836.50439	1.00049
3834.45059	1.00050
3832.39679	1.00128
3830.34298	1.00227
3828.28918	1.00272
3826.23538	1.00260
3824.18158	1.00200
3822.12777	1.00095
3820.07397	1.00056
3818.02017	1.00127
3815.96636	1.00196
3813.91256	1.00195
3811.85876	1.00153
3809.80495	1.00110
3807.75115	1.00067
3805.69735	1.00063
3803.64354	1.00125
3801.58974	1.00207
3799.53594	1.00221
3797.48213	1.00185
3795.42833	1.00158
3793.37453	1.00168
3791.32072	1.00177
3789.26692	1.00148
3787.21312	1.00134
3785.15931	1.00132
3783.10551	1.00084
3781.05171	1.00032
3778.99790	1.00080
3776.94410	1.00184
3774.89030	1.00207
3772.83650	1.00135
3770.78269	1.00035
3768.72889	1.00022
3766.67509	1.00098
3764.62128	1.00164
3762.56748	1.00202
3760.51368	1.00270
3758.45987	1.00351
3756.40607	1.00302
3754.35227	1.00158
3752.29846	1.00039
3750.24466	1.00042
3748.19086	1.00135
3746.13705	1.00196
3744.08325	1.00179
3742.02945	1.00122
3739.97564	1.00088
3737.92184	1.00048
3735.86804	1.00085
3733.81423	1.00219
3731.76043	1.00222
3729.70663	1.00154
3727.65282	1.00098
3725.59902	1.00059
3723.54522	1.00029
3721.49141	0.99947
3719.43761	0.99791
3717.38381	0.99636
3715.33001	0.99542
3713.27620	0.99450
3711.22240	0.99223
3709.16860	0.98952
3707.11479	0.98751
3705.06099	0.98546
3703.00719	0.98312
3700.95338	0.98074
3698.89958	0.97908
3696.84578	0.97830
3694.79197	0.97835
3692.73817	0.97894
3690.68437	0.97970
3688.63056	0.98140
3686.57676	0.98336
3684.52296	0.98438
3682.46915	0.98485
3680.41535	0.98489
3678.36155	0.98476
3676.30774	0.98503
3674.25394	0.98554
3672.20014	0.98545
3670.14633	0.98476
3668.09253	0.98392
3666.03873	0.98318
3663.98492	0.98242
3661.93112	0.98163
3659.87732	0.98087
3657.82352	0.98018
3655.76971	0.97951
3653.71591	0.97934
3651.66211	0.97976
3649.60830	0.97997
3647.55450	0.97905
3645.50070	0.97805
3643.44689	0.97764
3641.39309	0.97736
3639.33929	0.97677
3637.28548	0.97613
3635.23168	0.97571
3633.17788	0.97524
3631.12407	0.97434
3629.07027	0.97288
3627.01647	0.97218
3624.96266	0.97208
3622.90886	0.97143
3620.85506	0.97033
3618.80125	0.96958
3616.74745	0.97013
3614.69365	0.97145
3612.63984	0.97221
3610.58604	0.97178
3608.53224	0.97108
3606.47844	0.97109
3604.42463	0.97154
3602.37083	0.97177
3600.31703	0.97155
3598.26322	0.97113
3596.20942	0.97078
3594.15562	0.97067
3592.10181	0.97077
3590.04801	0.97095
3587.99421	0.97110
3585.94040	0.97103
3583.88660	0.97073
3581.83280	0.97023
3579.77899	0.96969
3577.72519	0.96936
3575.67139	0.96927
3573.61758	0.96917
3571.56378	0.96915
3569.50998	0.96926
3567.45617	0.96870
3565.40237	0.96743
3563.34857	0.96653
3561.29476	0.96571
3559.24096	0.96518
3557.18716	0.96506
3555.13335	0.96478
3553.07955	0.96465
3551.02575	0.96493
3548.97195	0.96481
3546.91814	0.96413
3544.86434	0.96352
3542.81054	0.96306
3540.75673	0.96279
3538.70293	0.96247
3536.64913	0.96168
3534.59532	0.96121
3532.54152	0.96175
3530.48772	0.96241
3528.43391	0.96248
3526.38011	0.96200
3524.32631	0.96089
3522.27250	0.95988
3520.21870	0.95984
3518.16490	0.96036
3516.11109	0.96080
3514.05729	0.96073
3512.00349	0.96026
3509.94968	0.96013
3507.89588	0.96046
3505.84208	0.96061
3503.78827	0.96023
3501.73447	0.95982
3499.68067	0.95968
3497.62687	0.95981
3495.57306	0.96006
3493.51926	0.95992
3491.46546	0.95923
3489.41165	0.95856
3487.35785	0.95871
3485.30405	0.95947
3483.25024	0.95954
3481.19644	0.95858
3479.14264	0.95751
3477.08883	0.95714
3475.03503	0.95758
3472.98123	0.95796
3470.92742	0.95768
3468.87362	0.95736
3466.81982	0.95718
3464.76601	0.95715
3462.71221	0.95746
3460.65841	0.95733
3458.60460	0.95622
3456.55080	0.95536
3454.49700	0.95565
3452.44319	0.95605
3450.38939	0.95585
3448.33559	0.95565
3446.28178	0.95561
3444.22798	0.95545
3442.17418	0.95526
3440.12038	0.95537
3438.06657	0.95538
3436.01277	0.95489
3433.95897	0.95431
3431.90516	0.95378
3429.85136	0.95314
3427.79756	0.95255
3425.74375	0.95223
3423.68995	0.95219
3421.63615	0.95191
3419.58234	0.95129
3417.52854	0.95121
3415.47474	0.95137
3413.42093	0.95115
3411.36713	0.95080
3409.31333	0.95027
3407.25952	0.95003
3405.20572	0.95027
3403.15192	0.94977
3401.09811	0.94853
3399.04431	0.94804
3396.99051	0.94841
3394.93670	0.94866
3392.88290	0.94857
3390.82910	0.94834
3388.77529	0.94833
3386.72149	0.94872
3384.66769	0.94948
3382.61389	0.95029
3380.56008	0.95055
3378.50628	0.95046
3376.45248	0.95047
3374.39867	0.95047
3372.34487	0.95052
3370.29107	0.95082
3368.23726	0.95116
3366.18346	0.95116
3364.12966	0.95092
3362.07585	0.95106
3360.02205	0.95175
3357.96825	0.95209
3355.91444	0.95197
3353.86064	0.95218
3351.80684	0.95261
3349.75303	0.95281
3347.69923	0.95261
3345.64543	0.95206
3343.59162	0.95183
3341.53782	0.95210
3339.48402	0.95231
3337.43021	0.95249
3335.37641	0.95291
3333.32261	0.95385
3331.26881	0.95490
3329.21500	0.95524
3327.16120	0.95513
3325.10740	0.95521
3323.05359	0.95505
3320.99979	0.95423
3318.94599	0.95359
3316.89218	0.95371
3314.83838	0.95391
3312.78458	0.95374
3310.73077	0.95356
3308.67697	0.95389
3306.62317	0.95456
3304.56936	0.95518
3302.51556	0.95558
3300.46176	0.95541
3298.40795	0.95496
3296.35415	0.95490
3294.30035	0.95522
3292.24654	0.95554
3290.19274	0.95581
3288.13894	0.95611
3286.08513	0.95624
3284.03133	0.95627
3281.97753	0.95673
3279.92372	0.95759
3277.86992	0.95819
3275.81612	0.95829
3273.76232	0.95803
3271.70851	0.95754
3269.65471	0.95727
3267.60091	0.95737
3265.54710	0.95740
3263.49330	0.95754
3261.43950	0.95806
3259.38569	0.95878
3257.33189	0.95962
3255.27809	0.96052
3253.22428	0.96104
3251.17048	0.96103
3249.11668	0.96096
3247.06287	0.96060
3245.00907	0.96010
3242.95527	0.96008
3240.90146	0.96020
3238.84766	0.96055
3236.79386	0.96142
3234.74005	0.96221
3232.68625	0.96239
3230.63245	0.96244
3228.57864	0.96282
3226.52484	0.96330
3224.47104	0.96338
3222.41724	0.96315
3220.36343	0.96351
3218.30963	0.96426
3216.25583	0.96441
3214.20202	0.96412
3212.14822	0.96422
3210.09442	0.96506
3208.04061	0.96600
3205.98681	0.96635
3203.93301	0.96667
3201.87920	0.96716
3199.82540	0.96710
3197.77160	0.96691
3195.71779	0.96737
3193.66399	0.96808
3191.61019	0.96865
3189.55638	0.96921
3187.50258	0.96969
3185.44878	0.96994
3183.39497	0.97008
3181.34117	0.97031
3179.28737	0.97066
3177.23356	0.97079
3175.17976	0.97062
3173.12596	0.97055
3171.07215	0.97091
3169.01835	0.97146
3166.96455	0.97187
3164.91075	0.97210
3162.85694	0.97241
3160.80314	0.97282
3158.74934	0.97299
3156.69553	0.97324
3154.64173	0.97375
3152.58793	0.97413
3150.53412	0.97429
3148.48032	0.97437
3146.42652	0.97473
3144.37271	0.97535
3142.31891	0.97578
3140.26511	0.97581
3138.21130	0.97609
3136.15750	0.97695
3134.10370	0.97766
3132.04989	0.97761
3129.99609	0.97717
3127.94229	0.97695
3125.88848	0.97685
3123.83468	0.97685
3121.78088	0.97733
3119.72707	0.97802
3117.67327	0.97856
3115.61947	0.97867
3113.56566	0.97819
3111.51186	0.97771
3109.45806	0.97782
3107.40426	0.97844
3105.35045	0.97901
3103.29665	0.97888
3101.24285	0.97843
3099.18904	0.97845
3097.13524	0.97882
3095.08144	0.97882
3093.02763	0.97833
3090.97383	0.97782
3088.92003	0.97769
3086.86622	0.97775
3084.81242	0.97724
3082.75862	0.97622
3080.70481	0.97558
3078.65101	0.97548
3076.59721	0.97548
3074.54340	0.97542
3072.48960	0.97558
3070.43580	0.97618
3068.38199	0.97671
3066.32819	0.97683
3064.27439	0.97706
3062.22058	0.97752
3060.16678	0.97803
3058.11298	0.97833
3056.05918	0.97812
3054.00537	0.97782
3051.95157	0.97773
3049.89777	0.97761
3047.84396	0.97729
3045.79016	0.97680
3043.73636	0.97612
3041.68255	0.97486
3039.62875	0.97305
3037.57495	0.97129
3035.52114	0.96949
3033.46734	0.96748
3031.41354	0.96577
3029.35973	0.96465
3027.30593	0.96368
3025.25213	0.96217
3023.19832	0.95990
3021.14452	0.95721
3019.09072	0.95405
3017.03691	0.94992
3014.98311	0.94493
3012.92931	0.93986
3010.87550	0.93532
3008.82170	0.93171
3006.76790	0.92967
3004.71409	0.92978
3002.66029	0.93168
3000.60649	0.93483
2998.55269	0.93862
2996.49888	0.94196
2994.44508	0.94399
2992.39128	0.94458
2990.33747	0.94400
2988.28367	0.94257
2986.22987	0.94064
2984.17606	0.93841
2982.12226	0.93593
2980.06846	0.93306
2978.01465	0.92970
2975.96085	0.92600
2973.90705	0.92162
2971.85324	0.91570
2969.79944	0.90762
2967.74564	0.89813
2965.69183	0.88840
2963.63803	0.87817
2961.58423	0.86732
2959.53042	0.85698
2957.47662	0.84823
2955.42282	0.84201
2953.36901	0.83902
2951.31521	0.83893
2949.26141	0.83992
2947.20761	0.83958
2945.15380	0.83626
2943.10000	0.82944
2941.04620	0.81989
2938.99239	0.80809
2936.93859	0.79389
2934.88479	0.77794
2932.83098	0.76124
2930.77718	0.74431
2928.72338	0.72757
2926.66957	0.71185
2924.61577	0.69832
2922.56197	0.68799
2920.50816	0.68162
2918.45436	0.68032
2916.40056	0.68573
2914.34675	0.69779
2912.29295	0.71323
2910.23915	0.72839
2908.18534	0.74181
2906.13154	0.75358
2904.07774	0.76437
2902.02393	0.77459
2899.97013	0.78429
2897.91633	0.79392
2895.86252	0.80399
2893.80872	0.81434
2891.75492	0.82464
2889.70112	0.83497
2887.64731	0.84490
2885.59351	0.85378
2883.53971	0.86135
2881.48590	0.86728
2879.43210	0.87078
2877.37830	0.87091
2875.32449	0.86798
2873.27069	0.86416
2871.21689	0.86171
2869.16308	0.86072
2867.10928	0.85952
2865.05548	0.85630
2863.00167	0.84949
2860.94787	0.83876
2858.89407	0.82585
2856.84026	0.81251
2854.78646	0.79950
2852.73266	0.78769
2850.67885	0.77973
2848.62505	0.78106
2846.57125	0.79381
2844.51744	0.81280
2842.46364	0.83229
2840.40984	0.85093
2838.35603	0.86909
2836.30223	0.88645
2834.24843	0.90235
2832.19463	0.91625
2830.14082	0.92836
2828.08702	0.93903
2826.03322	0.94804
2823.97941	0.95530
2821.92561	0.96079
2819.87181	0.96511
2817.81800	0.96901
2815.76420	0.97205
2813.71040	0.97410
2811.65659	0.97589
2809.60279	0.97740
2807.54899	0.97844
2805.49518	0.97947
2803.44138	0.98061
2801.38758	0.98165
2799.33377	0.98240
2797.27997	0.98295
2795.22617	0.98355
2793.17236	0.98425
2791.11856	0.98499
2789.06476	0.98559
2787.01095	0.98613
2784.95715	0.98676
2782.90335	0.98729
2780.84955	0.98779
2778.79574	0.98847
2776.74194	0.98920
2774.68814	0.98971
2772.63433	0.98975
2770.58053	0.98976
2768.52673	0.99025
2766.47292	0.99083
2764.41912	0.99093
2762.36532	0.99080
2760.31151	0.99091
2758.25771	0.99117
2756.20391	0.99146
2754.15010	0.99176
2752.09630	0.99188
2750.04250	0.99170
2747.98869	0.99145
2745.93489	0.99142
2743.88109	0.99166
2741.82728	0.99196
2739.77348	0.99204
2737.71968	0.99192
2735.66587	0.99198
2733.61207	0.99226
2731.55827	0.99236
2729.50446	0.99227
2727.45066	0.99228
2725.39686	0.99240
2723.34306	0.99245
2721.28925	0.99234
2719.23545	0.99210
2717.18165	0.99192
2715.12784	0.99217
2713.07404	0.99282
2711.02024	0.99318
2708.96643	0.99298
2706.91263	0.99278
2704.85883	0.99296
2702.80502	0.99325
2700.75122	0.99337
2698.69742	0.99331
2696.64361	0.99329
2694.58981	0.99328
2692.53601	0.99311
2690.48220	0.99296
2688.42840	0.99317
2686.37460	0.99361
2684.32079	0.99378
2682.26699	0.99369
2680.21319	0.99361
2678.15938	0.99356
2676.10558	0.99336
2674.05178	0.99297
2671.99797	0.99268
2669.94417	0.99262
2667.89037	0.99266
2665.83657	0.99265
2663.78276	0.99274
2661.72896	0.99310
2659.67516	0.99367
2657.62135	0.99417
2655.56755	0.99421
2653.51375	0.99395
2651.45994	0.99394
2649.40614	0.99406
2647.35234	0.99390
2645.29853	0.99389
2643.24473	0.99424
2641.19093	0.99443
2639.13712	0.99449
2637.08332	0.99464
2635.02952	0.99486
2632.97571	0.99491
2630.92191	0.99473
2628.86811	0.99467
2626.81430	0.99464
2624.76050	0.99453
2622.70670	0.99462
2620.65289	0.99478
2618.59909	0.99486
2616.54529	0.99500
2614.49149	0.99508
2612.43768	0.99525
2610.38388	0.99569
2608.33008	0.99619
2606.27627	0.99636
2604.22247	0.99601
2602.16867	0.99587
2600.11486	0.99633
2598.06106	0.99663
2596.00726	0.99687
2593.95345	0.99758
2591.89965	0.99823
2589.84585	0.99818
2587.79204	0.99780
2585.73824	0.99745
2583.68444	0.99702
2581.63063	0.99673
2579.57683	0.99692
2577.52303	0.99743
2575.46922	0.99782
2573.41542	0.99756
2571.36162	0.99671
2569.30781	0.99635
2567.25401	0.99695
2565.20021	0.99773
2563.14640	0.99795
2561.09260	0.99764
2559.03880	0.99753
2556.98500	0.99771
2554.93119	0.99766
2552.87739	0.99752
2550.82359	0.99770
2548.76978	0.99828
2546.71598	0.99906
2544.66218	0.99953
2542.60837	0.99925
2540.55457	0.99856
2538.50077	0.99828
2536.44696	0.99838
2534.39316	0.99823
2532.33936	0.99814
2530.28555	0.99838
2528.23175	0.99822
2526.17795	0.99756
2524.12414	0.99755
2522.07034	0.99828
2520.01654	0.99826
2517.96273	0.99763
2515.90893	0.99700
2513.85513	0.99643
2511.80132	0.99648
2509.74752	0.99653
2507.69372	0.99637
2505.63992	0.99683
2503.58611	0.99748
2501.53231	0.99790
2499.47851	0.99882
2497.42470	0.99995
2495.37090	1.00034
2493.31710	1.00073
2491.26329	1.00113
2489.20949	1.00067
2487.15569	1.00024
2485.10188	1.00036
2483.04808	1.00025
2480.99428	0.99995
2478.94047	0.99994
2476.88667	1.00012
2474.83287	1.00047
2472.77906	1.00092
2470.72526	1.00127
2468.67146	1.00138
2466.61765	1.00112
2464.56385	1.00059
2462.51005	1.00027
2460.45624	1.00064
2458.40244	1.00135
2456.34864	1.00155
2454.29483	1.00088
2452.24103	0.99977
2450.18723	0.99915
2448.13343	0.99951
2446.07962	1.00027
2444.02582	1.00041
2441.97202	0.99985
2439.91821	0.99947
2437.86441	0.99982
2435.81061	1.00040
2433.75680	1.00031
2431.70300	0.99974
2429.64920	0.99959
2427.59539	0.99977
2425.54159	0.99990
2423.48779	0.99997
2421.43398	0.99988
2419.38018	0.99977
2417.32638	0.99980
2415.27257	0.99998
2413.21877	1.00045
2411.16497	1.00082
2409.11116	1.00058
2407.05736	1.00021
2405.00356	1.00022
2402.94975	1.00012
2400.89595	0.99959
2398.84215	0.99931
2396.78834	0.99971
2394.73454	1.00033
2392.68074	1.00050
2390.62694	1.00013
2388.57313	0.99984
2386.51933	1.00009
2384.46553	1.00045
2382.41172	1.00028
2380.35792	0.99983
2378.30412	0.99954
2376.25031	0.99941
2374.19651	0.99968
2372.14271	1.00001
2370.08890	1.00001
2368.03510	0.99990
2365.98130	1.00013
2363.92749	1.00111
2361.87369	1.00126
2359.81989	0.99942
2357.76608	0.99766
2355.71228	0.99704
2353.65848	0.99705
2351.60467	0.99741
2349.55087	0.99777
2347.49707	0.99834
2345.44326	0.99914
2343.38946	0.99940
2341.33566	0.99893
2339.28186	0.99816
2337.22805	0.99740
2335.17425	0.99697
2333.12045	0.99683
2331.06664	0.99651
2329.01284	0.99579
2326.95904	0.99491
2324.90523	0.99424
2322.85143	0.99432
2320.79763	0.99508
2318.74382	0.99575
2316.69002	0.99622
2314.63622	0.99682
2312.58241	0.99736
2310.52861	0.99799
2308.47481	0.99876
2306.42100	0.99925
2304.36720	0.99942
2302.31340	0.99906
2300.25959	0.99843
2298.20579	0.99856
2296.15199	0.99912
2294.09818	0.99914
2292.04438	0.99888
2289.99058	0.99862
2287.93677	0.99857
2285.88297	0.99901
2283.82917	0.99965
2281.77537	1.00003
2279.72156	0.99974
2277.66776	0.99931
2275.61396	0.99921
2273.56015	0.99946
2271.50635	1.00013
2269.45255	1.00087
2267.39874	1.00101
2265.34494	1.00051
2263.29114	1.00016
2261.23733	1.00024
2259.18353	1.00053
2257.12973	1.00012
2255.07592	0.99926
2253.02212	0.99976
2250.96832	1.00021
2248.91451	0.99984
2246.86071	1.00062
2244.80691	1.00123
2242.75310	1.00052
2240.69930	1.00009
2238.64550	1.00010
2236.59169	0.99974
2234.53789	0.99902
2232.48409	0.99858
2230.43029	0.99905
2228.37648	1.00029
2226.32268	1.00139
2224.26888	1.00131
2222.21507	1.00040
2220.16127	1.00014
2218.10747	1.00083
2216.05366	1.00122
2213.99986	1.00024
2211.94606	0.99842
2209.89225	0.99784
2207.83845	0.99857
2205.78465	0.99982
2203.73084	1.00220
2201.67704	1.00456
2199.62324	1.00460
2197.56943	1.00228
2195.51563	0.99978
2193.46183	0.99812
2191.40802	0.99732
2189.35422	0.99871
2187.30042	1.00077
2185.24661	1.00065
2183.19281	1.00062
2181.13901	1.00232
2179.08520	1.00291
2177.03140	1.00208
2174.97760	1.00219
2172.92380	1.00268
2170.86999	1.00088
2168.81619	0.99738
2166.76239	0.99544
2164.70858	0.99628
2162.65478	0.99862
2160.60098	1.00134
2158.54717	1.00354
2156.49337	1.00377
2154.43957	1.00295
2152.38576	1.00357
2150.33196	1.00593
2148.27816	1.00696
2146.22435	1.00530
2144.17055	1.00368
2142.11675	1.00335
2140.06294	1.00329
2138.00914	1.00362
2135.95534	1.00460
2133.90153	1.00489
2131.84773	1.00440
2129.79393	1.00351
2127.74012	1.00239
2125.68632	1.00185
2123.63252	1.00157
2121.57871	1.00163
2119.52491	1.00196
2117.47111	1.00177
2115.41731	1.00164
2113.36350	1.00189
2111.30970	1.00145
2109.25590	1.00043
2107.20209	1.00035
2105.14829	1.00094
2103.09449	1.00107
2101.04068	1.00085
2098.98688	1.00090
2096.93308	1.00143
2094.87927	1.00190
2092.82547	1.00183
2090.77167	1.00106
2088.71786	1.00028
2086.66406	1.00012
2084.61026	0.99975
2082.55645	0.99911
2080.50265	0.99951
2078.44885	1.00018
2076.39504	1.00018
2074.34124	1.00084
2072.28744	1.00187
2070.23363	1.00236
2068.17983	1.00313
2066.12603	1.00387
2064.07223	1.00318
2062.01842	1.00095
2059.96462	0.99994
2057.91082	1.00130
2055.85701	1.00179
2053.80321	1.00076
2051.74941	1.00041
2049.69560	1.00068
2047.64180	1.00059
2045.58800	0.99970
2043.53419	0.99891
2041.48039	0.99979
2039.42659	1.00145
2037.37278	1.00169
2035.31898	1.00115
2033.26518	1.00144
2031.21137	1.00197
2029.15757	1.00355
2027.10377	1.00674
2025.04996	1.00742
2022.99616	1.00555
2020.94236	1.00555
2018.88855	1.00683
2016.83475	1.00734
2014.78095	1.00664
2012.72714	1.00333
2010.67334	0.99919
2008.61954	0.99913
2006.56574	1.00158
2004.51193	1.00204
2002.45813	1.00165
2000.40433	1.00135
1998.35052	1.00065
1996.29672	1.00036
1994.24292	1.00103
1992.18911	1.00196
1990.13531	1.00170
1988.08151	1.00119
1986.02770	1.00202
1983.97390	1.00341
1981.92010	1.00355
1979.86629	1.00128
1977.81249	0.99876
1975.75869	0.99875
1973.70488	0.99967
1971.65108	1.00108
1969.59728	1.00436
1967.54347	1.00715
1965.48967	1.00671
1963.43587	1.00404
1961.38206	1.00177
1959.32826	1.00164
1957.27446	1.00231
1955.22066	1.00195
1953.16685	1.00141
1951.11305	1.00163
1949.05925	1.00223
1947.00544	1.00289
1944.95164	1.00362
1942.89784	1.00401
1940.84403	1.00394
1938.79023	1.00407
1936.73643	1.00380
1934.68262	1.00283
1932.62882	1.00214
1930.57502	1.00209
1928.52121	1.00203
1926.46741	1.00148
1924.41361	1.00151
1922.35980	1.00242
1920.30600	1.00266
1918.25220	1.00221
1916.19839	1.00203
1914.14459	1.00206
1912.09079	1.00155
1910.03698	1.00059
1907.98318	1.00063
1905.92938	1.00143
1903.87557	1.00142
1901.82177	1.00070
1899.76797	1.00053
1897.71417	1.00103
1895.66036	1.00107
1893.60656	1.00050
1891.55276	1.00038
1889.49895	1.00078
1887.44515	1.00086
1885.39135	1.00072
1883.33754	1.00044
1881.28374	0.99990
1879.22994	0.99968
1877.17613	0.99956
1875.12233	0.99892
1873.06853	0.99832
1871.01472	0.99839
1868.96092	0.99857
1866.90712	0.99875
1864.85331	0.99925
1862.79951	0.99944
1860.74571	0.99922
1858.69190	0.99899
1856.63810	0.99876
1854.58430	0.99863
1852.53049	0.99890
1850.47669	0.99923
1848.42289	0.99931
1846.36908	0.99926
1844.31528	0.99896
1842.26148	0.99857
1840.20768	0.99866
1838.15387	0.99865
1836.10007	0.99793
1834.04627	0.99728
1831.99246	0.99727
1829.93866	0.99757
1827.88486	0.99721
1825.83105	0.99599
1823.77725	0.99513
1821.72345	0.99536
1819.66964	0.99595
1817.61584	0.99630
1815.56204	0.99631
1813.50823	0.99624
1811.45443	0.99639
1809.40063	0.99663
1807.34682	0.99629
1805.29302	0.99513
1803.23922	0.99383
1801.18541	0.99256
1799.13161	0.99127
1797.07781	0.99009
1795.02400	0.98872
1792.97020	0.98766
1790.91640	0.98795
1788.86260	0.98889
1786.80879	0.98923
1784.75499	0.98893
1782.70119	0.98882
1780.64738	0.98892
1778.59358	0.98885
1776.53978	0.98881
1774.48597	0.98862
1772.43217	0.98828
1770.37837	0.98796
1768.32456	0.98717
1766.27076	0.98635
1764.21696	0.98616
1762.16315	0.98612
1760.10935	0.98586
1758.05555	0.98566
1756.00174	0.98520
1753.94794	0.98454
1751.89414	0.98390
1749.84033	0.98277
1747.78653	0.98176
1745.73273	0.98140
1743.67892	0.98080
1741.62512	0.97942
1739.57132	0.97756
1737.51751	0.97627
1735.46371	0.97554
1733.40991	0.97445
1731.35611	0.97333
1729.30230	0.97201
1727.24850	0.97076
1725.19470	0.97024
1723.14089	0.96965
1721.08709	0.96870
1719.03329	0.96811
1716.97948	0.96801
1714.92568	0.96772
1712.87188	0.96734
1710.81807	0.96720
1708.76427	0.96713
1706.71047	0.96667
1704.65666	0.96569
1702.60286	0.96461
1700.54906	0.96320
1698.49525	0.96159
1696.44145	0.96061
1694.38765	0.95992
1692.33384	0.95923
1690.28004	0.95846
1688.22624	0.95782
1686.17243	0.95729
1684.11863	0.95559
1682.06483	0.95346
1680.01103	0.95274
1677.95722	0.95264
1675.90342	0.95220
1673.84962	0.95111
1671.79581	0.94984
1669.74201	0.94793
1667.68821	0.94604
1665.63440	0.94513
1663.58060	0.94404
1661.52680	0.94225
1659.47299	0.94076
1657.41919	0.93995
1655.36539	0.93915
1653.31158	0.93727
1651.25778	0.93609
1649.20398	0.93622
1647.15017	0.93556
1645.09637	0.93367
1643.04257	0.93200
1640.98876	0.93076
1638.93496	0.93020
1636.88116	0.93084
1634.82735	0.93290
1632.77355	0.93479
1630.71975	0.93583
1628.66594	0.93621
1626.61214	0.93618
1624.55834	0.93561
1622.50454	0.93461
1620.45073	0.93460
1618.39693	0.93548
1616.34313	0.93629
1614.28932	0.93694
1612.23552	0.93784
1610.18172	0.93868
1608.12791	0.93916
1606.07411	0.93943
1604.02031	0.93961
1601.96650	0.93955
1599.91270	0.93947
1597.85890	0.93956
1595.80509	0.93974
1593.75129	0.93995
1591.69749	0.94009
1589.64368	0.94036
1587.58988	0.94094
1585.53608	0.94126
1583.48227	0.94130
1581.42847	0.94191
1579.37467	0.94301
1577.32086	0.94377
1575.26706	0.94398
1573.21326	0.94451
1571.15945	0.94522
1569.10565	0.94561
1567.05185	0.94576
1564.99805	0.94610
1562.94424	0.94659
1560.89044	0.94715
1558.83664	0.94755
1556.78283	0.94737
1554.72903	0.94717
1552.67523	0.94679
1550.62142	0.94641
1548.56762	0.94605
1546.51382	0.94548
1544.46001	0.94438
1542.40621	0.94294
1540.35241	0.94224
1538.29860	0.94235
1536.24480	0.94218
1534.19100	0.94185
1532.13719	0.94156
1530.08339	0.94105
1528.02959	0.94046
1525.97578	0.93980
1523.92198	0.93880
1521.86818	0.93692
1519.81437	0.93480
1517.76057	0.93303
1515.70677	0.93123
1513.65297	0.92956
1511.59916	0.92768
1509.54536	0.92554
1507.49156	0.92229
1505.43775	0.91787
1503.38395	0.91492
1501.33015	0.91231
1499.27634	0.90866
1497.22254	0.90287
1495.16874	0.89621
1493.11493	0.89108
1491.06113	0.88561
1489.00733	0.87714
1486.95352	0.86742
1484.89972	0.85889
1482.84592	0.85060
1480.79211	0.84126
1478.73831	0.83144
1476.68451	0.82023
1474.63070	0.80557
1472.57690	0.78710
1470.52310	0.77023
1468.46929	0.75716
1466.41549	0.74358
1464.36169	0.72925
1462.30788	0.71981
1460.25408	0.71538
1458.20028	0.71122
1456.14648	0.70491
1454.09267	0.70058
1452.03887	0.69814
1449.98507	0.69647
1447.93126	0.69631
1445.87746	0.69817
1443.82366	0.70114
1441.76985	0.70428
1439.71605	0.70684
1437.66225	0.70927
1435.60844	0.71251
1433.55464	0.71638
1431.50084	0.72213
1429.44703	0.73183
1427.39323	0.74342
1425.33943	0.75467
1423.28562	0.76466
1421.23182	0.77170
1419.17802	0.77831
1417.12421	0.78612
1415.07041	0.79274
1413.01661	0.79882
1410.96280	0.80472
1408.90900	0.80898
1406.85520	0.81121
1404.80139	0.81345
1402.74759	0.81744
1400.69379	0.82271
1398.63999	0.82836
1396.58618	0.83384
1394.53238	0.84005
1392.47858	0.84620
1390.42477	0.85078
1388.37097	0.85405
1386.31717	0.85525
1384.26336	0.85423
1382.20956	0.85190
1380.15576	0.84874
1378.10195	0.84720
1376.04815	0.85005
1373.99435	0.85682
1371.94054	0.86337
1369.88674	0.86737
1367.83294	0.86930
1365.77913	0.87037
1363.72533	0.87268
1361.67153	0.87684
1359.61772	0.88094
1357.56392	0.88394
1355.51012	0.88585
1353.45631	0.88719
1351.40251	0.88894
1349.34871	0.89137
1347.29491	0.89415
1345.24110	0.89683
1343.18730	0.89901
1341.13350	0.90096
1339.07969	0.90332
1337.02589	0.90569
1334.97209	0.90756
1332.91828	0.90914
1330.86448	0.91056
1328.81068	0.91175
1326.75687	0.91247
1324.70307	0.91271
1322.64927	0.91253
1320.59546	0.91194
1318.54166	0.91116
1316.48786	0.91059
1314.43405	0.91046
1312.38025	0.91081
1310.32645	0.91130
1308.27264	0.91203
1306.21884	0.91354
1304.16504	0.91540
1302.11123	0.91694
1300.05743	0.91855
1298.00363	0.92052
1295.94982	0.92235
1293.89602	0.92386
1291.84222	0.92523
1289.78842	0.92660
1287.73461	0.92773
1285.68081	0.92837
1283.62701	0.92898
1281.57320	0.92976
1279.51940	0.93035
1277.46560	0.93052
1275.41179	0.93042
1273.35799	0.93026
1271.30419	0.93014
1269.25038	0.92998
1267.19658	0.92969
1265.14278	0.92946
1263.08897	0.92956
1261.03517	0.92986
1258.98137	0.93014
1256.92756	0.93058
1254.87376	0.93107
1252.81996	0.93125
1250.76615	0.93086
1248.71235	0.93018
1246.65855	0.92920
1244.60474	0.92762
1242.55094	0.92578
1240.49714	0.92421
1238.44334	0.92340
1236.38953	0.92359
1234.33573	0.92442
1232.28193	0.92538
1230.22812	0.92599
1228.17432	0.92636
1226.12052	0.92688
1224.06671	0.92709
1222.01291	0.92658
1219.95911	0.92579
1217.90530	0.92531
1215.85150	0.92503
1213.79770	0.92430
1211.74389	0.92321
1209.69009	0.92234
1207.63629	0.92155
1205.58248	0.92047
1203.52868	0.91910
1201.47488	0.91786
1199.42107	0.91693
1197.36727	0.91595
1195.31347	0.91477
1193.25966	0.91352
1191.20586	0.91231
1189.15206	0.91102
1187.09825	0.90954
1185.04445	0.90804
1182.99065	0.90652
1180.93685	0.90475
1178.88304	0.90283
1176.82924	0.90113
1174.77544	0.89944
1172.72163	0.89758
1170.66783	0.89588
1168.61403	0.89466
1166.56022	0.89385
1164.50642	0.89304
1162.45262	0.89185
1160.39881	0.89048
1158.34501	0.88924
1156.29121	0.88799
1154.23740	0.88690
1152.18360	0.88611
1150.12980	0.88505
1148.07599	0.88360
1146.02219	0.88219
1143.96839	0.88090
1141.91458	0.87943
1139.86078	0.87774
1137.80698	0.87607
1135.75317	0.87427
1133.69937	0.87198
1131.64557	0.86937
1129.59176	0.86668
1127.53796	0.86369
1125.48416	0.86045
1123.43036	0.85707
1121.37655	0.85336
1119.32275	0.84949
1117.26895	0.84608
1115.21514	0.84324
1113.16134	0.84074
1111.10754	0.83836
1109.05373	0.83610
1106.99993	0.83390
1104.94613	0.83152
1102.89232	0.82894
1100.83852	0.82644
1098.78472	0.82416
1096.73091	0.82186
1094.67711	0.81950
1092.62331	0.81725
1090.56950	0.81500
1088.51570	0.81292
1086.46190	0.81122
1084.40809	0.80945
1082.35429	0.80739
1080.30049	0.80547
1078.24668	0.80402
1076.19288	0.80295
1074.13908	0.80186
1072.08528	0.80077
1070.03147	0.80003
1067.97767	0.79949
1065.92387	0.79860
1063.87006	0.79724
1061.81626	0.79564
1059.76246	0.79379
1057.70865	0.79161
1055.65485	0.78899
1053.60105	0.78638
1051.54724	0.78425
1049.49344	0.78217
1047.43964	0.77980
1045.38583	0.77717
1043.33203	0.77439
1041.27823	0.77176
1039.22442	0.76945
1037.17062	0.76714
1035.11682	0.76470
1033.06301	0.76256
1031.00921	0.76050
1028.95541	0.75835
1026.90160	0.75642
1024.84780	0.75502
1022.79400	0.75408
1020.74019	0.75307
1018.68639	0.75170
1016.63259	0.75014
1014.57879	0.74862
1012.52498	0.74677
1010.47118	0.74415
1008.41738	0.74094
1006.36357	0.73759
1004.30977	0.73427
1002.25597	0.73038
1000.20216	0.72565
998.14836	0.72044
996.09456	0.71533
994.04075	0.71155
991.98695	0.71047
989.93315	0.71189
987.87934	0.71340
985.82554	0.71271
983.77174	0.70933
981.71793	0.70343
979.66413	0.69428
977.61033	0.68027
975.55652	0.66036
973.50272	0.63451
971.44892	0.60379
969.39511	0.57137
967.34131	0.54340
965.28751	0.52830
963.23371	0.53312
961.17990	0.55905
959.12610	0.59929
957.07230	0.64259
955.01849	0.68043
952.96469	0.71027
950.91089	0.73269
948.85708	0.74910
946.80328	0.76128
944.74948	0.77064
942.69567	0.77799
940.64187	0.78366
938.58807	0.78790
936.53426	0.79146
934.48046	0.79490
932.42666	0.79778
930.37285	0.79999
928.31905	0.80164
926.26525	0.80188
924.21144	0.79986
922.15764	0.79504
920.10384	0.78710
918.05003	0.77608
915.99623	0.76234
913.94243	0.74812
911.88862	0.73861
909.83482	0.73960
907.78102	0.75185
905.72722	0.76991
903.67341	0.78753
901.61961	0.80134
899.56581	0.81074
897.51200	0.81700
895.45820	0.82201
893.40440	0.82645
891.35059	0.83009
889.29679	0.83292
887.24299	0.83470
885.18918	0.83424
883.13538	0.83002
881.08158	0.81984
879.02777	0.79964
876.97397	0.76642
874.92017	0.72724
872.86636	0.70529
870.81256	0.72202
868.75876	0.76710
866.70495	0.80904
864.65115	0.83349
862.59735	0.84595
860.54354	0.85283
858.48974	0.85740
856.43594	0.86152
854.38213	0.86503
852.32833	0.86736
850.27453	0.86855
848.22073	0.86942
846.16692	0.87180
844.11312	0.87559
842.05932	0.87884
840.00551	0.88079
837.95171	0.88167
835.89791	0.88201
833.84410	0.88240
831.79030	0.88272
829.73650	0.88266
827.68269	0.88222
825.62889	0.88181
823.57509	0.88204
821.52128	0.88217
819.46748	0.88133
817.41368	0.88035
815.35987	0.88013
813.30607	0.88087
811.25227	0.88176
809.19846	0.88177
807.14466	0.88054
805.09086	0.87782
803.03705	0.87469
800.98325	0.87261
798.92945	0.87140
796.87565	0.87069
794.82184	0.86999
792.76804	0.86851
790.71424	0.86647
788.66043	0.86451
786.60663	0.86303
784.55283	0.86219
782.49902	0.86093
780.44522	0.85863
778.39142	0.85698
776.33761	0.85719
774.28381	0.85776
772.23001	0.85726
770.17620	0.85616
768.12240	0.85507
766.06860	0.85411
764.01479	0.85298
761.96099	0.85131
759.90719	0.84913
757.85338	0.84624
755.79958	0.84246
753.74578	0.83791
751.69197	0.83320
749.63817	0.82861
747.58437	0.82385
745.53056	0.81826
743.47676	0.81203
741.42296	0.80666
739.36916	0.80222
737.31535	0.79778
735.26155	0.79333
733.20775	0.78877
731.15394	0.78402
729.10014	0.78026
727.04634	0.77856
724.99253	0.77853
722.93873	0.77888
720.88493	0.77862
718.83112	0.77801
716.77732	0.77445
714.72352	0.76470
712.66971	0.75760
710.61591	0.76346
708.56211	0.77489
706.50830	0.78143
704.45450	0.78263
702.40070	0.78054
700.34689	0.77765
698.29309	0.77681
696.23929	0.77839
694.18548	0.78096
692.13168	0.78349
690.07788	0.78513
688.02408	0.78575
685.97027	0.78690
683.91647	0.78925
681.86267	0.79133
679.80886	0.79241
677.75506	0.79392
675.70126	0.79643
673.64745	0.79955
671.59365	0.80365
669.53985	0.80884
667.48604	0.81367
665.43224	0.81615
663.37844	0.81841
661.32463	0.82159
659.27083	0.82456
657.21703	0.82666
655.16322	0.82920
653.10942	0.83171
651.05562	0.83221
649.00181	0.83229
646.94801	0.83399
644.89421	0.83567
642.84040	0.83597
640.78660	0.83541
638.73280	0.83488
636.67899	0.83503
634.62519	0.83573
632.57139	0.83564
630.51759	0.83445
628.46378	0.83412
626.40998	0.83464
624.35618	0.83464
622.30237	0.83420
620.24857	0.83348
618.19477	0.83238
616.14096	0.83058
614.08716	0.82835
612.03336	0.82687
609.97955	0.82600
607.92575	0.82440
605.87195	0.82230
603.81814	0.82056
601.76434	0.81863
599.71054	0.81635
597.65673	0.81528
595.60293	0.81548
593.54913	0.81565
591.49532	0.81546
589.44152	0.81430
587.38772	0.81224
585.33391	0.81035
583.28011	0.80968
581.22631	0.81055
579.17250	0.81117
577.11870	0.81011
575.06490	0.80839
573.01110	0.80691
570.95729	0.80602
568.90349	0.80611
566.84969	0.80594
564.79588	0.80477
562.74208	0.80465
560.68828	0.80520
558.63447	0.80329
556.58067	0.79992
554.52687	0.79726
552.47306	0.79583
550.41926	0.79546
548.36546	0.79360
546.31165	0.79012
544.25785	0.78678
542.20405	0.78312
540.15024	0.77967
538.09644	0.77730
536.04264	0.77579
533.98883	0.77545
531.93503	0.77543
529.88123	0.77395
527.82742	0.77156
525.77362	0.76945
523.71982	0.76796
521.66602	0.76713
519.61221	0.76732
517.55841	0.76926
515.50461	0.77117
513.45080	0.77141
511.39700	0.77151
509.34320	0.77182
507.28939	0.77182
505.23559	0.77217
503.18179	0.77260
501.12798	0.77265
499.07418	0.77265
497.02038	0.77232
494.96657	0.77171
492.91277	0.77150
490.85897	0.77034
488.80516	0.76790
486.75136	0.76611
484.69756	0.76324
482.64375	0.75791
480.58995	0.75265
478.53615	0.74821
476.48234	0.74481
474.42854	0.74248
472.37474	0.73940
470.32093	0.73598
468.26713	0.73467
466.21333	0.73381
464.15953	0.73152
462.10572	0.73077
460.05192	0.73172
457.99812	0.73157
455.94431	0.73241
453.89051	0.73443
451.83671	0.73610
449.78290	0.73807
447.72910	0.73887
445.67530	0.73782
443.62149	0.73828
441.56769	0.74095
439.51389	0.74187
437.46008	0.74150
435.40628	0.74263
433.35248	0.74356
431.29867	0.74273
429.24487	0.73976
427.19107	0.73462
425.13726	0.72888
423.08346	0.72425
421.02966	0.72044
418.97585	0.71553
416.92205	0.71535
414.86825	0.71834
412.81445	0.71753
410.76064	0.71632
408.70684	0.71883
406.65304	0.72067
404.59923	0.72007
402.54543	0.72051
400.49163	0.72422
398.43782	0.73016
