3996.70104	0.98495
3994.64724	0.98474
3992.59344	0.98423
3990.53964	0.98372
3988.48583	0.98281
3986.43203	0.98179
3984.37823	0.98131
3982.32442	0.98144
3980.27062	0.98184
3978.21682	0.98219
3976.16301	0.98288
3974.10921	0.98387
3972.05541	0.98429
3970.00160	0.98411
3967.94780	0.98394
3965.89400	0.98390
3963.84019	0.98359
3961.78639	0.98361
3959.73259	0.98455
3957.67878	0.98510
3955.62498	0.98440
3953.57118	0.98368
3951.51737	0.98391
3949.46357	0.98465
3947.40977	0.98485
3945.35596	0.98394
3943.30216	0.98276
3941.24836	0.98285
3939.19455	0.98382
3937.14075	0.98418
3935.08695	0.98374
3933.03315	0.98345
3930.97934	0.98375
3928.92554	0.98404
3926.87174	0.98413
3924.81793	0.98433
3922.76413	0.98453
3920.71033	0.98481
3918.65652	0.98542
3916.60272	0.98545
3914.54892	0.98425
3912.49511	0.98314
3910.44131	0.98333
3908.38751	0.98412
3906.33370	0.98427
3904.27990	0.98368
3902.22610	0.98328
3900.17229	0.98347
3898.11849	0.98399
3896.06469	0.98457
3894.01088	0.98461
3891.95708	0.98394
3889.90328	0.98354
3887.84947	0.98369
3885.79567	0.98358
3883.74187	0.98332
3881.68807	0.98380
3879.63426	0.98480
3877.58046	0.98537
3875.52666	0.98542
3873.47285	0.98540
3871.41905	0.98552
3869.36525	0.98548
3867.31144	0.98526
3865.25764	0.98510
3863.20384	0.98493
3861.15003	0.98482
3859.09623	0.98465
3857.04243	0.98437
3854.98862	0.98445
3852.93482	0.98486
3850.88102	0.98431
3848.82721	0.98365
3846.77341	0.98360
3844.71961	0.98394
3842.66580	0.98431
3840.61200	0.98461
3838.55820	0.98473
3836.50439	0.98416
3834.45059	0.98370
3832.39679	0.98436
3830.34298	0.98498
3828.28918	0.98469
3826.23538	0.98431
3824.18158	0.98447
3822.12777	0.98498
3820.07397	0.98519
3818.02017	0.98536
3815.96636	0.98559
3813.91256	0.98477
3811.85876	0.98371
3809.80495	0.98341
3807.75115	0.98363
3805.69735	0.98376
3803.64354	0.98362
3801.58974	0.98375
3799.53594	0.98438
3797.48213	0.98461
3795.42833	0.98415
3793.37453	0.98381
3791.32072	0.98385
3789.26692	0.98407
3787.21312	0.98470
3785.15931	0.98565
3783.10551	0.98619
3781.05171	0.98595
3778.99790	0.98522
3776.94410	0.98447
3774.89030	0.98402
3772.83650	0.98395
3770.78269	0.98397
3768.72889	0.98402
3766.67509	0.98436
3764.62128	0.98447
3762.56748	0.98426
3760.51368	0.98437
3758.45987	0.98484
3756.40607	0.98556
3754.35227	0.98627
3752.29846	0.98614
3750.24466	0.98491
3748.19086	0.98429
3746.13705	0.98436
3744.08325	0.98450
3742.02945	0.98471
3739.97564	0.98452
3737.92184	0.98426
3735.86804	0.98437
3733.81423	0.98380
3731.76043	0.98280
3729.70663	0.98249
3727.65282	0.98278
3725.59902	0.98253
3723.54522	0.98076
3721.49141	0.97885
3719.43761	0.97750
3717.38381	0.97612
3715.33001	0.97441
3713.27620	0.97171
3711.22240	0.96717
3709.16860	0.96168
3707.11479	0.95647
3705.06099	0.95184
3703.00719	0.94753
3700.95338	0.94322
3698.89958	0.93986
3696.84578	0.93813
3694.79197	0.93825
3692.73817	0.94002
3690.68437	0.94273
3688.63056	0.94517
3686.57676	0.94657
3684.52296	0.94773
3682.46915	0.94871
3680.41535	0.94937
3678.36155	0.95001
3676.30774	0.94998
3674.25394	0.94898
3672.20014	0.94893
3670.14633	0.94927
3668.09253	0.94767
3666.03873	0.94529
3663.98492	0.94373
3661.93112	0.94230
3659.87732	0.94071
3657.82352	0.93967
3655.76971	0.93870
3653.71591	0.93751
3651.66211	0.93677
3649.60830	0.93590
3647.55450	0.93425
3645.50070	0.93294
3643.44689	0.93211
3641.39309	0.93159
3639.33929	0.93096
3637.28548	0.92925
3635.23168	0.92682
3633.17788	0.92501
3631.12407	0.92395
3629.07027	0.92145
3627.01647	0.91759
3624.96266	0.91551
3622.90886	0.91453
3620.85506	0.91427
3618.80125	0.91502
3616.74745	0.91632
3614.69365	0.91774
3612.63984	0.91929
3610.58604	0.92078
3608.53224	0.92153
3606.47844	0.92150
3604.42463	0.92215
3602.37083	0.92341
3600.31703	0.92412
3598.26322	0.92403
3596.20942	0.92352
3594.15562	0.92302
3592.10181	0.92316
3590.04801	0.92388
3587.99421	0.92424
3585.94040	0.92393
3583.88660	0.92356
3581.83280	0.92301
3579.77899	0.92241
3577.72519	0.92217
3575.67139	0.92230
3573.61758	0.92197
3571.56378	0.92146
3569.50998	0.92178
3567.45617	0.92198
3565.40237	0.92129
3563.34857	0.92070
3561.29476	0.92002
3559.24096	0.91923
3557.18716	0.91851
3555.13335	0.91815
3553.07955	0.91830
3551.02575	0.91837
3548.97195	0.91845
3546.91814	0.91864
3544.86434	0.91800
3542.81054	0.91688
3540.75673	0.91629
3538.70293	0.91621
3536.64913	0.91627
3534.59532	0.91604
3532.54152	0.91587
3530.48772	0.91628
3528.43391	0.91661
3526.38011	0.91624
3524.32631	0.91546
3522.27250	0.91478
3520.21870	0.91449
3518.16490	0.91442
3516.11109	0.91463
3514.05729	0.91484
3512.00349	0.91450
3509.94968	0.91372
3507.89588	0.91274
3505.84208	0.91218
3503.78827	0.91241
3501.73447	0.91284
3499.68067	0.91344
3497.62687	0.91390
3495.57306	0.91330
3493.51926	0.91221
3491.46546	0.91151
3489.41165	0.91104
3487.35785	0.91081
3485.30405	0.91093
3483.25024	0.91122
3481.19644	0.91119
3479.14264	0.91024
3477.08883	0.90927
3475.03503	0.90911
3472.98123	0.90931
3470.92742	0.90946
3468.87362	0.90916
3466.81982	0.90842
3464.76601	0.90749
3462.71221	0.90662
3460.65841	0.90638
3458.60460	0.90645
3456.55080	0.90619
3454.49700	0.90589
3452.44319	0.90555
3450.38939	0.90497
3448.33559	0.90444
3446.28178	0.90419
3444.22798	0.90405
3442.17418	0.90336
3440.12038	0.90222
3438.06657	0.90148
3436.01277	0.90129
3433.95897	0.90106
3431.90516	0.90074
3429.85136	0.90052
3427.79756	0.90029
3425.74375	0.90002
3423.68995	0.89962
3421.63615	0.89897
3419.58234	0.89836
3417.52854	0.89810
3415.47474	0.89815
3413.42093	0.89837
3411.36713	0.89841
3409.31333	0.89808
3407.25952	0.89747
3405.20572	0.89668
3403.15192	0.89629
3401.09811	0.89631
3399.04431	0.89616
3396.99051	0.89606
3394.93670	0.89639
3392.88290	0.89666
3390.82910	0.89648
3388.77529	0.89626
3386.72149	0.89633
3384.66769	0.89649
3382.61389	0.89646
3380.56008	0.89641
3378.50628	0.89678
3376.45248	0.89744
3374.39867	0.89787
3372.34487	0.89804
3370.29107	0.89829
3368.23726	0.89852
3366.18346	0.89841
3364.12966	0.89846
3362.07585	0.89902
3360.02205	0.89925
3357.96825	0.89914
3355.91444	0.89954
3353.86064	0.90020
3351.80684	0.90043
3349.75303	0.90043
3347.69923	0.90057
3345.64543	0.90081
3343.59162	0.90102
3341.53782	0.90133
3339.48402	0.90193
3337.43021	0.90232
3335.37641	0.90251
3333.32261	0.90313
3331.26881	0.90390
3329.21500	0.90437
3327.16120	0.90429
3325.10740	0.90419
3323.05359	0.90479
3320.99979	0.90535
3318.94599	0.90527
3316.89218	0.90502
3314.83838	0.90517
3312.78458	0.90562
3310.73077	0.90590
3308.67697	0.90618
3306.62317	0.90658
3304.56936	0.90705
3302.51556	0.90776
3300.46176	0.90836
3298.40795	0.90853
3296.35415	0.90853
3294.30035	0.90867
3292.24654	0.90886
3290.19274	0.90907
3288.13894	0.90948
3286.08513	0.90992
3284.03133	0.91028
3281.97753	0.91054
3279.92372	0.91067
3277.86992	0.91088
3275.81612	0.91117
3273.76232	0.91134
3271.70851	0.91128
3269.65471	0.91121
3267.60091	0.91189
3265.54710	0.91304
3263.49330	0.91337
3261.43950	0.91307
3259.38569	0.91318
3257.33189	0.91375
3255.27809	0.91417
3253.22428	0.91422
3251.17048	0.91393
3249.11668	0.91362
3247.06287	0.91407
3245.00907	0.91498
3242.95527	0.91559
3240.90146	0.91594
3238.84766	0.91638
3236.79386	0.91685
3234.74005	0.91716
3232.68625	0.91741
3230.63245	0.91746
3228.57864	0.91760
3226.52484	0.91845
3224.47104	0.91920
3222.41724	0.91931
3220.36343	0.91943
3218.30963	0.91973
3216.25583	0.92007
3214.20202	0.92064
3212.14822	0.92127
3210.09442	0.92152
3208.04061	0.92164
3205.98681	0.92211
3203.93301	0.92288
3201.87920	0.92335
3199.82540	0.92312
3197.77160	0.92306
3195.71779	0.92392
3193.66399	0.92516
3191.61019	0.92610
3189.55638	0.92683
3187.50258	0.92743
3185.44878	0.92734
3183.39497	0.92687
3181.34117	0.92706
3179.28737	0.92782
3177.23356	0.92866
3175.17976	0.92963
3173.12596	0.93045
3171.07215	0.93101
3169.01835	0.93177
3166.96455	0.93260
3164.91075	0.93286
3162.85694	0.93273
3160.80314	0.93293
3158.74934	0.93356
3156.69553	0.93434
3154.64173	0.93490
3152.58793	0.93505
3150.53412	0.93529
3148.48032	0.93593
3146.42652	0.93656
3144.37271	0.93717
3142.31891	0.93782
3140.26511	0.93825
3138.21130	0.93862
3136.15750	0.93913
3134.10370	0.93971
3132.04989	0.94010
3129.99609	0.94039
3127.94229	0.94118
3125.88848	0.94218
3123.83468	0.94281
3121.78088	0.94331
3119.72707	0.94343
3117.67327	0.94320
3115.61947	0.94345
3113.56566	0.94399
3111.51186	0.94440
3109.45806	0.94475
3107.40426	0.94507
3105.35045	0.94535
3103.29665	0.94549
3101.24285	0.94561
3099.18904	0.94616
3097.13524	0.94668
3095.08144	0.94696
3093.02763	0.94764
3090.97383	0.94849
3088.92003	0.94905
3086.86622	0.94926
3084.81242	0.94943
3082.75862	0.94978
3080.70481	0.95002
3078.65101	0.95016
3076.59721	0.95049
3074.54340	0.95085
3072.48960	0.95108
3070.43580	0.95127
3068.38199	0.95163
3066.32819	0.95206
3064.27439	0.95236
3062.22058	0.95272
3060.16678	0.95305
3058.11298	0.95330
3056.05918	0.95360
3054.00537	0.95389
3051.95157	0.95410
3049.89777	0.95442
3047.84396	0.95504
3045.79016	0.95587
3043.73636	0.95637
3041.68255	0.95622
3039.62875	0.95609
3037.57495	0.95637
3035.52114	0.95660
3033.46734	0.95677
3031.41354	0.95709
3029.35973	0.95743
3027.30593	0.95764
3025.25213	0.95783
3023.19832	0.95804
3021.14452	0.95829
3019.09072	0.95873
3017.03691	0.95927
3014.98311	0.95959
3012.92931	0.95967
3010.87550	0.95987
3008.82170	0.96025
3006.76790	0.96025
3004.71409	0.95991
3002.66029	0.95976
3000.60649	0.95959
2998.55269	0.95916
2996.49888	0.95871
2994.44508	0.95845
2992.39128	0.95836
2990.33747	0.95800
2988.28367	0.95705
2986.22987	0.95576
2984.17606	0.95452
2982.12226	0.95322
2980.06846	0.95133
2978.01465	0.94854
2975.96085	0.94473
2973.90705	0.94004
2971.85324	0.93453
2969.79944	0.92806
2967.74564	0.92082
2965.69183	0.91329
2963.63803	0.90585
2961.58423	0.89934
2959.53042	0.89508
2957.47662	0.89314
2955.42282	0.89171
2953.36901	0.88946
2951.31521	0.88714
2949.26141	0.88659
2947.20761	0.88960
2945.15380	0.89621
2943.10000	0.90408
2941.04620	0.91052
2938.99239	0.91399
2936.93859	0.91400
2934.88479	0.91098
2932.83098	0.90582
2930.77718	0.89930
2928.72338	0.89207
2926.66957	0.88499
2924.61577	0.87875
2922.56197	0.87351
2920.50816	0.86914
2918.45436	0.86591
2916.40056	0.86476
2914.34675	0.86671
2912.29295	0.87133
2910.23915	0.87660
2908.18534	0.88126
2906.13154	0.88575
2904.07774	0.89044
2902.02393	0.89520
2899.97013	0.90033
2897.91633	0.90589
2895.86252	0.91101
2893.80872	0.91527
2891.75492	0.91855
2889.70112	0.92022
2887.64731	0.92067
2885.59351	0.92103
2883.53971	0.92113
2881.48590	0.92025
2879.43210	0.91886
2877.37830	0.91827
2875.32449	0.91868
2873.27069	0.91892
2871.21689	0.91818
2869.16308	0.91673
2867.10928	0.91580
2865.05548	0.91701
2863.00167	0.92112
2860.94787	0.92713
2858.89407	0.93293
2856.84026	0.93680
2854.78646	0.93851
2852.73266	0.93880
2850.67885	0.93806
2848.62505	0.93650
2846.57125	0.93439
2844.51744	0.93118
2842.46364	0.92653
2840.40984	0.92176
2838.35603	0.91931
2836.30223	0.92117
2834.24843	0.92737
2832.19463	0.93564
2830.14082	0.94350
2828.08702	0.94984
2826.03322	0.95447
2823.97941	0.95749
2821.92561	0.95929
2819.87181	0.96072
2817.81800	0.96231
2815.76420	0.96362
2813.71040	0.96435
2811.65659	0.96504
2809.60279	0.96591
2807.54899	0.96657
2805.49518	0.96692
2803.44138	0.96722
2801.38758	0.96773
2799.33377	0.96832
2797.27997	0.96886
2795.22617	0.96928
2793.17236	0.96959
2791.11856	0.96985
2789.06476	0.97024
2787.01095	0.97086
2784.95715	0.97152
2782.90335	0.97208
2780.84955	0.97240
2778.79574	0.97254
2776.74194	0.97272
2774.68814	0.97306
2772.63433	0.97352
2770.58053	0.97368
2768.52673	0.97337
2766.47292	0.97310
2764.41912	0.97325
2762.36532	0.97373
2760.31151	0.97421
2758.25771	0.97432
2756.20391	0.97422
2754.15010	0.97434
2752.09630	0.97463
2750.04250	0.97491
2747.98869	0.97517
2745.93489	0.97533
2743.88109	0.97540
2741.82728	0.97542
2739.77348	0.97523
2737.71968	0.97488
2735.66587	0.97467
2733.61207	0.97475
2731.55827	0.97482
2729.50446	0.97474
2727.45066	0.97465
2725.39686	0.97429
2723.34306	0.97384
2721.28925	0.97374
2719.23545	0.97381
2717.18165	0.97389
2715.12784	0.97422
2713.07404	0.97489
2711.02024	0.97554
2708.96643	0.97580
2706.91263	0.97590
2704.85883	0.97607
2702.80502	0.97598
2700.75122	0.97574
2698.69742	0.97568
2696.64361	0.97583
2694.58981	0.97619
2692.53601	0.97648
2690.48220	0.97646
2688.42840	0.97623
2686.37460	0.97634
2684.32079	0.97686
2682.26699	0.97701
2680.21319	0.97671
2678.15938	0.97662
2676.10558	0.97677
2674.05178	0.97698
2671.99797	0.97721
2669.94417	0.97721
2667.89037	0.97693
2665.83657	0.97671
2663.78276	0.97663
2661.72896	0.97672
2659.67516	0.97674
2657.62135	0.97642
2655.56755	0.97645
2653.51375	0.97700
2651.45994	0.97729
2649.40614	0.97737
2647.35234	0.97760
2645.29853	0.97784
2643.24473	0.97781
2641.19093	0.97757
2639.13712	0.97759
2637.08332	0.97777
2635.02952	0.97788
2632.97571	0.97809
2630.92191	0.97831
2628.86811	0.97845
2626.81430	0.97860
2624.76050	0.97870
2622.70670	0.97878
2620.65289	0.97898
2618.59909	0.97900
2616.54529	0.97868
2614.49149	0.97868
2612.43768	0.97909
2610.38388	0.97925
2608.33008	0.97884
2606.27627	0.97800
2604.22247	0.97768
2602.16867	0.97844
2600.11486	0.97924
2598.06106	0.97942
2596.00726	0.97952
2593.95345	0.97959
2591.89965	0.97928
2589.84585	0.97882
2587.79204	0.97889
2585.73824	0.97960
2583.68444	0.97998
2581.63063	0.97974
2579.57683	0.97980
2577.52303	0.98011
2575.46922	0.97991
2573.41542	0.97933
2571.36162	0.97904
2569.30781	0.97956
2567.25401	0.98058
2565.20021	0.98129
2563.14640	0.98159
2561.09260	0.98181
2559.03880	0.98159
2556.98500	0.98058
2554.93119	0.97962
2552.87739	0.97947
2550.82359	0.97976
2548.76978	0.98018
2546.71598	0.98079
2544.66218	0.98142
2542.60837	0.98161
2540.55457	0.98132
2538.50077	0.98103
2536.44696	0.98108
2534.39316	0.98139
2532.33936	0.98127
2530.28555	0.98066
2528.23175	0.98033
2526.17795	0.98010
2524.12414	0.98000
2522.07034	0.98046
2520.01654	0.98102
2517.96273	0.98114
2515.90893	0.98095
2513.85513	0.98078
2511.80132	0.98075
2509.74752	0.98110
2507.69372	0.98153
2505.63992	0.98160
2503.58611	0.98125
2501.53231	0.98096
2499.47851	0.98114
2497.42470	0.98169
2495.37090	0.98237
2493.31710	0.98277
2491.26329	0.98261
2489.20949	0.98195
2487.15569	0.98157
2485.10188	0.98198
2483.04808	0.98249
2480.99428	0.98250
2478.94047	0.98224
2476.88667	0.98208
2474.83287	0.98208
2472.77906	0.98214
2470.72526	0.98181
2468.67146	0.98128
2466.61765	0.98142
2464.56385	0.98196
2462.51005	0.98209
2460.45624	0.98204
2458.40244	0.98223
2456.34864	0.98243
2454.29483	0.98271
2452.24103	0.98275
2450.18723	0.98223
2448.13343	0.98165
2446.07962	0.98143
2444.02582	0.98144
2441.97202	0.98145
2439.91821	0.98140
2437.86441	0.98157
2435.81061	0.98181
2433.75680	0.98182
2431.70300	0.98188
2429.64920	0.98204
2427.59539	0.98230
2425.54159	0.98258
2423.48779	0.98238
2421.43398	0.98171
2419.38018	0.98118
2417.32638	0.98105
2415.27257	0.98111
2413.21877	0.98142
2411.16497	0.98211
2409.11116	0.98250
2407.05736	0.98205
2405.00356	0.98166
2402.94975	0.98180
2400.89595	0.98229
2398.84215	0.98289
2396.78834	0.98290
2394.73454	0.98254
2392.68074	0.98262
2390.62694	0.98302
2388.57313	0.98310
2386.51933	0.98260
2384.46553	0.98203
2382.41172	0.98186
2380.35792	0.98161
2378.30412	0.98120
2376.25031	0.98102
2374.19651	0.98110
2372.14271	0.98186
2370.08890	0.98285
2368.03510	0.98330
2365.98130	0.98330
2363.92749	0.98270
2361.87369	0.98258
2359.81989	0.98318
2357.76608	0.98320
2355.71228	0.98255
2353.65848	0.98147
2351.60467	0.98076
2349.55087	0.98078
2347.49707	0.98078
2345.44326	0.98104
2343.38946	0.98175
2341.33566	0.98191
2339.28186	0.98202
2337.22805	0.98196
2335.17425	0.98125
2333.12045	0.98092
2331.06664	0.98126
2329.01284	0.98133
2326.95904	0.98054
2324.90523	0.97935
2322.85143	0.97893
2320.79763	0.97945
2318.74382	0.98030
2316.69002	0.98110
2314.63622	0.98132
2312.58241	0.98090
2310.52861	0.98051
2308.47481	0.98085
2306.42100	0.98144
2304.36720	0.98136
2302.31340	0.98111
2300.25959	0.98154
2298.20579	0.98180
2296.15199	0.98120
2294.09818	0.98065
2292.04438	0.98051
2289.99058	0.98050
2287.93677	0.98046
2285.88297	0.98033
2283.82917	0.98077
2281.77537	0.98208
2279.72156	0.98344
2277.66776	0.98417
2275.61396	0.98426
2273.56015	0.98354
2271.50635	0.98198
2269.45255	0.98056
2267.39874	0.98021
2265.34494	0.98064
2263.29114	0.98136
2261.23733	0.98214
2259.18353	0.98280
2257.12973	0.98338
2255.07592	0.98295
2253.02212	0.98163
2250.96832	0.98147
2248.91451	0.98204
2246.86071	0.98219
2244.80691	0.98265
2242.75310	0.98320
2240.69930	0.98340
2238.64550	0.98354
2236.59169	0.98368
2234.53789	0.98365
2232.48409	0.98318
2230.43029	0.98281
2228.37648	0.98282
2226.32268	0.98259
2224.26888	0.98224
2222.21507	0.98231
2220.16127	0.98263
2218.10747	0.98287
2216.05366	0.98261
2213.99986	0.98262
2211.94606	0.98302
2209.89225	0.98272
2207.83845	0.98284
2205.78465	0.98359
2203.73084	0.98397
2201.67704	0.98441
2199.62324	0.98453
2197.56943	0.98403
2195.51563	0.98330
2193.46183	0.98208
2191.40802	0.98079
2189.35422	0.97981
2187.30042	0.97953
2185.24661	0.98009
2183.19281	0.98119
2181.13901	0.98270
2179.08520	0.98283
2177.03140	0.98265
2174.97760	0.98522
2172.92380	0.98806
2170.86999	0.98785
2168.81619	0.98559
2166.76239	0.98432
2164.70858	0.98519
2162.65478	0.98487
2160.60098	0.98327
2158.54717	0.98490
2156.49337	0.98688
2154.43957	0.98518
2152.38576	0.98363
2150.33196	0.98545
2148.27816	0.98807
2146.22435	0.98834
2144.17055	0.98752
2142.11675	0.98768
2140.06294	0.98766
2138.00914	0.98673
2135.95534	0.98648
2133.90153	0.98725
2131.84773	0.98773
2129.79393	0.98654
2127.74012	0.98453
2125.68632	0.98381
2123.63252	0.98416
2121.57871	0.98415
2119.52491	0.98356
2117.47111	0.98323
2115.41731	0.98378
2113.36350	0.98430
2111.30970	0.98391
2109.25590	0.98335
2107.20209	0.98285
2105.14829	0.98251
2103.09449	0.98304
2101.04068	0.98417
2098.98688	0.98529
2096.93308	0.98556
2094.87927	0.98516
2092.82547	0.98523
2090.77167	0.98477
2088.71786	0.98343
2086.66406	0.98265
2084.61026	0.98209
2082.55645	0.98153
2080.50265	0.98214
2078.44885	0.98442
2076.39504	0.98649
2074.34124	0.98586
2072.28744	0.98376
2070.23363	0.98237
2068.17983	0.98258
2066.12603	0.98432
2064.07223	0.98525
2062.01842	0.98514
2059.96462	0.98568
2057.91082	0.98579
2055.85701	0.98464
2053.80321	0.98407
2051.74941	0.98449
2049.69560	0.98512
2047.64180	0.98533
2045.58800	0.98507
2043.53419	0.98609
2041.48039	0.98655
2039.42659	0.98517
2037.37278	0.98466
2035.31898	0.98564
2033.26518	0.98683
2031.21137	0.98603
2029.15757	0.98470
2027.10377	0.98615
2025.04996	0.98866
2022.99616	0.98938
2020.94236	0.98802
2018.88855	0.98606
2016.83475	0.98527
2014.78095	0.98462
2012.72714	0.98336
2010.67334	0.98427
2008.61954	0.98738
2006.56574	0.98967
2004.51193	0.99080
2002.45813	0.99043
2000.40433	0.98919
1998.35052	0.98867
1996.29672	0.98643
1994.24292	0.98310
1992.18911	0.98306
1990.13531	0.98566
1988.08151	0.98740
1986.02770	0.98705
1983.97390	0.98608
1981.92010	0.98487
1979.86629	0.98253
1977.81249	0.98200
1975.75869	0.98558
1973.70488	0.98848
1971.65108	0.98740
1969.59728	0.98622
1967.54347	0.98718
1965.48967	0.98825
1963.43587	0.98911
1961.38206	0.98887
1959.32826	0.98649
1957.27446	0.98480
1955.22066	0.98413
1953.16685	0.98318
1951.11305	0.98351
1949.05925	0.98431
1947.00544	0.98378
1944.95164	0.98345
1942.89784	0.98456
1940.84403	0.98577
1938.79023	0.98579
1936.73643	0.98550
1934.68262	0.98578
1932.62882	0.98632
1930.57502	0.98645
1928.52121	0.98540
1926.46741	0.98410
1924.41361	0.98391
1922.35980	0.98398
1920.30600	0.98391
1918.25220	0.98367
1916.19839	0.98268
1914.14459	0.98203
1912.09079	0.98223
1910.03698	0.98286
1907.98318	0.98397
1905.92938	0.98454
1903.87557	0.98443
1901.82177	0.98484
1899.76797	0.98481
1897.71417	0.98387
1895.66036	0.98369
1893.60656	0.98408
1891.55276	0.98372
1889.49895	0.98307
1887.44515	0.98309
1885.39135	0.98356
1883.33754	0.98394
1881.28374	0.98444
1879.22994	0.98466
1877.17613	0.98422
1875.12233	0.98430
1873.06853	0.98507
1871.01472	0.98549
1868.96092	0.98565
1866.90712	0.98548
1864.85331	0.98489
1862.79951	0.98458
1860.74571	0.98441
1858.69190	0.98430
1856.63810	0.98434
1854.58430	0.98426
1852.53049	0.98439
1850.47669	0.98454
1848.42289	0.98441
1846.36908	0.98420
1844.31528	0.98375
1842.26148	0.98341
1840.20768	0.98332
1838.15387	0.98338
1836.10007	0.98424
1834.04627	0.98499
1831.99246	0.98451
1829.93866	0.98386
1827.88486	0.98378
1825.83105	0.98419
1823.77725	0.98478
1821.72345	0.98472
1819.66964	0.98430
1817.61584	0.98421
1815.56204	0.98426
1813.50823	0.98400
1811.45443	0.98350
1809.40063	0.98314
1807.34682	0.98295
1805.29302	0.98259
1803.23922	0.98263
1801.18541	0.98341
1799.13161	0.98400
1797.07781	0.98396
1795.02400	0.98373
1792.97020	0.98362
1790.91640	0.98332
1788.86260	0.98292
1786.80879	0.98282
1784.75499	0.98305
1782.70119	0.98346
1780.64738	0.98359
1778.59358	0.98313
1776.53978	0.98262
1774.48597	0.98229
1772.43217	0.98213
1770.37837	0.98253
1768.32456	0.98243
1766.27076	0.98147
1764.21696	0.98098
1762.16315	0.98132
1760.10935	0.98167
1758.05555	0.98156
1756.00174	0.98086
1753.94794	0.97999
1751.89414	0.97983
1749.84033	0.98017
1747.78653	0.97969
1745.73273	0.97872
1743.67892	0.97846
1741.62512	0.97887
1739.57132	0.97868
1737.51751	0.97778
1735.46371	0.97713
1733.40991	0.97693
1731.35611	0.97654
1729.30230	0.97553
1727.24850	0.97438
1725.19470	0.97369
1723.14089	0.97330
1721.08709	0.97288
1719.03329	0.97238
1716.97948	0.97185
1714.92568	0.97098
1712.87188	0.96998
1710.81807	0.96921
1708.76427	0.96854
1706.71047	0.96783
1704.65666	0.96706
1702.60286	0.96610
1700.54906	0.96509
1698.49525	0.96437
1696.44145	0.96290
1694.38765	0.96046
1692.33384	0.95847
1690.28004	0.95687
1688.22624	0.95544
1686.17243	0.95403
1684.11863	0.95145
1682.06483	0.94872
1680.01103	0.94712
1677.95722	0.94591
1675.90342	0.94447
1673.84962	0.94291
1671.79581	0.94192
1669.74201	0.94041
1667.68821	0.93823
1665.63440	0.93669
1663.58060	0.93524
1661.52680	0.93341
1659.47299	0.93164
1657.41919	0.93037
1655.36539	0.92984
1653.31158	0.92901
1651.25778	0.92745
1649.20398	0.92684
1647.15017	0.92626
1645.09637	0.92522
1643.04257	0.92449
1640.98876	0.92438
1638.93496	0.92474
1636.88116	0.92455
1634.82735	0.92375
1632.77355	0.92401
1630.71975	0.92468
1628.66594	0.92522
1626.61214	0.92559
1624.55834	0.92623
1622.50454	0.92754
1620.45073	0.92895
1618.39693	0.93049
1616.34313	0.93259
1614.28932	0.93434
1612.23552	0.93588
1610.18172	0.93758
1608.12791	0.93925
1606.07411	0.94100
1604.02031	0.94260
1601.96650	0.94372
1599.91270	0.94464
1597.85890	0.94563
1595.80509	0.94654
1593.75129	0.94742
1591.69749	0.94837
1589.64368	0.94919
1587.58988	0.94969
1585.53608	0.95037
1583.48227	0.95132
1581.42847	0.95187
1579.37467	0.95226
1577.32086	0.95299
1575.26706	0.95355
1573.21326	0.95369
1571.15945	0.95405
1569.10565	0.95493
1567.05185	0.95547
1564.99805	0.95516
1562.94424	0.95480
1560.89044	0.95532
1558.83664	0.95667
1556.78283	0.95685
1554.72903	0.95641
1552.67523	0.95635
1550.62142	0.95686
1548.56762	0.95734
1546.51382	0.95744
1544.46001	0.95769
1542.40621	0.95846
1540.35241	0.95943
1538.29860	0.95966
1536.24480	0.95991
1534.19100	0.96047
1532.13719	0.96073
1530.08339	0.96111
1528.02959	0.96198
1525.97578	0.96292
1523.92198	0.96371
1521.86818	0.96432
1519.81437	0.96489
1517.76057	0.96587
1515.70677	0.96678
1513.65297	0.96706
1511.59916	0.96716
1509.54536	0.96757
1507.49156	0.96864
1505.43775	0.96904
1503.38395	0.96865
1501.33015	0.96868
1499.27634	0.96892
1497.22254	0.96906
1495.16874	0.96910
1493.11493	0.96929
1491.06113	0.96956
1489.00733	0.96948
1486.95352	0.96917
1484.89972	0.96889
1482.84592	0.96821
1480.79211	0.96688
1478.73831	0.96523
1476.68451	0.96346
1474.63070	0.96080
1472.57690	0.95472
1470.52310	0.94648
1468.46929	0.93918
1466.41549	0.93120
1464.36169	0.92220
1462.30788	0.91537
1460.25408	0.91140
1458.20028	0.90873
1456.14648	0.90651
1454.09267	0.90545
1452.03887	0.90587
1449.98507	0.90848
1447.93126	0.91480
1445.87746	0.92356
1443.82366	0.93130
1441.76985	0.93689
1439.71605	0.94004
1437.66225	0.94164
1435.60844	0.94343
1433.55464	0.94665
1431.50084	0.95085
1429.44703	0.95448
1427.39323	0.95637
1425.33943	0.95738
1423.28562	0.95813
1421.23182	0.95872
1419.17802	0.95933
1417.12421	0.95949
1415.07041	0.95941
1413.01661	0.95938
1410.96280	0.95951
1408.90900	0.96003
1406.85520	0.96064
1404.80139	0.96082
1402.74759	0.96063
1400.69379	0.96066
1398.63999	0.96111
1396.58618	0.96157
1394.53238	0.96184
1392.47858	0.96161
1390.42477	0.96054
1388.37097	0.95810
1386.31717	0.95328
1384.26336	0.94554
1382.20956	0.93393
1380.15576	0.91688
1378.10195	0.89634
1376.04815	0.88229
1373.99435	0.88697
1371.94054	0.90663
1369.88674	0.92600
1367.83294	0.93901
1365.77913	0.94510
1363.72533	0.94677
1361.67153	0.94603
1359.61772	0.94503
1357.56392	0.94608
1355.51012	0.94951
1353.45631	0.95369
1351.40251	0.95702
1349.34871	0.95923
1347.29491	0.96063
1345.24110	0.96160
1343.18730	0.96238
1341.13350	0.96314
1339.07969	0.96382
1337.02589	0.96392
1334.97209	0.96352
1332.91828	0.96305
1330.86448	0.96258
1328.81068	0.96240
1326.75687	0.96282
1324.70307	0.96358
1322.64927	0.96431
1320.59546	0.96492
1318.54166	0.96544
1316.48786	0.96575
1314.43405	0.96559
1312.38025	0.96517
1310.32645	0.96493
1308.27264	0.96438
1306.21884	0.96311
1304.16504	0.96215
1302.11123	0.96242
1300.05743	0.96324
1298.00363	0.96365
1295.94982	0.96371
1293.89602	0.96397
1291.84222	0.96426
1289.78842	0.96427
1287.73461	0.96424
1285.68081	0.96428
1283.62701	0.96445
1281.57320	0.96452
1279.51940	0.96413
1277.46560	0.96356
1275.41179	0.96325
1273.35799	0.96307
1271.30419	0.96258
1269.25038	0.96200
1267.19658	0.96182
1265.14278	0.96160
1263.08897	0.96082
1261.03517	0.95966
1258.98137	0.95844
1256.92756	0.95751
1254.87376	0.95705
1252.81996	0.95719
1250.76615	0.95770
1248.71235	0.95788
1246.65855	0.95764
1244.60474	0.95720
1242.55094	0.95656
1240.49714	0.95616
1238.44334	0.95593
1236.38953	0.95559
1234.33573	0.95551
1232.28193	0.95539
1230.22812	0.95489
1228.17432	0.95443
1226.12052	0.95386
1224.06671	0.95305
1222.01291	0.95230
1219.95911	0.95154
1217.90530	0.95090
1215.85150	0.95047
1213.79770	0.95002
1211.74389	0.94939
1209.69009	0.94855
1207.63629	0.94761
1205.58248	0.94652
1203.52868	0.94538
1201.47488	0.94437
1199.42107	0.94324
1197.36727	0.94183
1195.31347	0.94034
1193.25966	0.93870
1191.20586	0.93699
1189.15206	0.93523
1187.09825	0.93301
1185.04445	0.93025
1182.99065	0.92750
1180.93685	0.92519
1178.88304	0.92289
1176.82924	0.91986
1174.77544	0.91600
1172.72163	0.91095
1170.66783	0.90457
1168.61403	0.89852
1166.56022	0.89453
1164.50642	0.89258
1162.45262	0.89151
1160.39881	0.89059
1158.34501	0.88985
1156.29121	0.88887
1154.23740	0.88717
1152.18360	0.88514
1150.12980	0.88342
1148.07599	0.88217
1146.02219	0.88088
1143.96839	0.87874
1141.91458	0.87590
1139.86078	0.87306
1137.80698	0.87018
1135.75317	0.86696
1133.69937	0.86326
1131.64557	0.85901
1129.59176	0.85416
1127.53796	0.84850
1125.48416	0.84221
1123.43036	0.83566
1121.37655	0.82902
1119.32275	0.82254
1117.26895	0.81624
1115.21514	0.81024
1113.16134	0.80485
1111.10754	0.80004
1109.05373	0.79589
1106.99993	0.79205
1104.94613	0.78783
1102.89232	0.78369
1100.83852	0.78044
1098.78472	0.77807
1096.73091	0.77602
1094.67711	0.77397
1092.62331	0.77226
1090.56950	0.77084
1088.51570	0.76924
1086.46190	0.76744
1084.40809	0.76556
1082.35429	0.76372
1080.30049	0.76184
1078.24668	0.75956
1076.19288	0.75710
1074.13908	0.75435
1072.08528	0.75088
1070.03147	0.74688
1067.97767	0.74225
1065.92387	0.73709
1063.87006	0.73199
1061.81626	0.72669
1059.76246	0.72089
1057.70865	0.71447
1055.65485	0.70709
1053.60105	0.69889
1051.54724	0.69007
1049.49344	0.68105
1047.43964	0.67214
1045.38583	0.66297
1043.33203	0.65353
1041.27823	0.64394
1039.22442	0.63436
1037.17062	0.62542
1035.11682	0.61783
1033.06301	0.61164
1031.00921	0.60618
1028.95541	0.60154
1026.90160	0.59832
1024.84780	0.59640
1022.79400	0.59522
1020.74019	0.59394
1018.68639	0.59210
1016.63259	0.58997
1014.57879	0.58747
1012.52498	0.58425
1010.47118	0.58051
1008.41738	0.57665
1006.36357	0.57308
1004.30977	0.57027
1002.25597	0.56802
1000.20216	0.56596
998.14836	0.56521
996.09456	0.56774
994.04075	0.57373
991.98695	0.58093
989.93315	0.58750
987.87934	0.59347
985.82554	0.59941
983.77174	0.60557
981.71793	0.61156
979.66413	0.61641
977.61033	0.61989
975.55652	0.62243
973.50272	0.62539
971.44892	0.63114
969.39511	0.64061
967.34131	0.65207
965.28751	0.66266
963.23371	0.67134
961.17990	0.67921
959.12610	0.68647
957.07230	0.69272
955.01849	0.69833
952.96469	0.70335
950.91089	0.70781
948.85708	0.71222
946.80328	0.71616
944.74948	0.71890
942.69567	0.72070
940.64187	0.72254
938.58807	0.72478
936.53426	0.72702
934.48046	0.72939
932.42666	0.73168
930.37285	0.73327
928.31905	0.73426
926.26525	0.73464
924.21144	0.73412
922.15764	0.73259
920.10384	0.72954
918.05003	0.72545
915.99623	0.72144
913.94243	0.71790
911.88862	0.71579
909.83482	0.71619
907.78102	0.71946
905.72722	0.72487
903.67341	0.73048
901.61961	0.73592
899.56581	0.74249
897.51200	0.75049
895.45820	0.75884
893.40440	0.76642
891.35059	0.77291
889.29679	0.77844
887.24299	0.78298
885.18918	0.78704
883.13538	0.79087
881.08158	0.79409
879.02777	0.79671
876.97397	0.79909
874.92017	0.80205
872.86636	0.80596
870.81256	0.80945
868.75876	0.81256
866.70495	0.81669
864.65115	0.82110
862.59735	0.82506
860.54354	0.82906
858.48974	0.83331
856.43594	0.83723
854.38213	0.84015
852.32833	0.84271
850.27453	0.84525
848.22073	0.84694
846.16692	0.84645
844.11312	0.84223
842.05932	0.83619
840.00551	0.83429
837.95171	0.83840
835.89791	0.84401
833.84410	0.84757
831.79030	0.84911
829.73650	0.84988
827.68269	0.85028
825.62889	0.85034
823.57509	0.85016
821.52128	0.84954
819.46748	0.84898
817.41368	0.84886
815.35987	0.84886
813.30607	0.84848
811.25227	0.84700
809.19846	0.84490
807.14466	0.84337
805.09086	0.84205
803.03705	0.84045
800.98325	0.83910
798.92945	0.83822
796.87565	0.83781
794.82184	0.83761
792.76804	0.83808
790.71424	0.83889
788.66043	0.83861
786.60663	0.83864
784.55283	0.84061
782.49902	0.84283
780.44522	0.84355
778.39142	0.84301
776.33761	0.84252
774.28381	0.84236
772.23001	0.84181
770.17620	0.84134
768.12240	0.84103
766.06860	0.83989
764.01479	0.83832
761.96099	0.83666
759.90719	0.83467
757.85338	0.83287
755.79958	0.83118
753.74578	0.82943
751.69197	0.82858
749.63817	0.82931
747.58437	0.83089
745.53056	0.83180
743.47676	0.83212
741.42296	0.83301
739.36916	0.83454
737.31535	0.83627
735.26155	0.83792
733.20775	0.83983
731.15394	0.84216
729.10014	0.84362
727.04634	0.84436
724.99253	0.84548
722.93873	0.84602
720.88493	0.84591
718.83112	0.84567
716.77732	0.84492
714.72352	0.84409
712.66971	0.84247
710.61591	0.83868
708.56211	0.83340
706.50830	0.82798
704.45450	0.82274
702.40070	0.81688
700.34689	0.81071
698.29309	0.80611
696.23929	0.80304
694.18548	0.80003
692.13168	0.79710
690.07788	0.79510
688.02408	0.79410
685.97027	0.79376
683.91647	0.79410
681.86267	0.79460
679.80886	0.79430
677.75506	0.79399
675.70126	0.79462
673.64745	0.79528
671.59365	0.79596
669.53985	0.79624
667.48604	0.79490
665.43224	0.79487
663.37844	0.79712
661.32463	0.79968
659.27083	0.80030
657.21703	0.79975
655.16322	0.79940
653.10942	0.79861
651.05562	0.79778
649.00181	0.79771
646.94801	0.79786
644.89421	0.79750
642.84040	0.79682
640.78660	0.79614
638.73280	0.79554
636.67899	0.79526
634.62519	0.79589
632.57139	0.79693
630.51759	0.79755
628.46378	0.79819
626.40998	0.79816
624.35618	0.79594
622.30237	0.79295
620.24857	0.79176
618.19477	0.79196
616.14096	0.79122
614.08716	0.78820
612.03336	0.78470
609.97955	0.78205
607.92575	0.77933
605.87195	0.77681
603.81814	0.77445
601.76434	0.77186
599.71054	0.77033
597.65673	0.76984
595.60293	0.76840
593.54913	0.76610
591.49532	0.76440
589.44152	0.76227
587.38772	0.75872
585.33391	0.75591
583.28011	0.75380
581.22631	0.74960
579.17250	0.74426
577.11870	0.73971
575.06490	0.73620
573.01110	0.73407
570.95729	0.73166
568.90349	0.72848
566.84969	0.72551
564.79588	0.72076
562.74208	0.71462
560.68828	0.70908
558.63447	0.70368
556.58067	0.69997
554.52687	0.69697
552.47306	0.69223
550.41926	0.68707
548.36546	0.68118
546.31165	0.67385
544.25785	0.66592
542.20405	0.65836
540.15024	0.65246
538.09644	0.64687
536.04264	0.64049
533.98883	0.63472
531.93503	0.62981
529.88123	0.62646
527.82742	0.62437
525.77362	0.62293
523.71982	0.62295
521.66602	0.62302
519.61221	0.62376
517.55841	0.62752
515.50461	0.63236
513.45080	0.63623
511.39700	0.63912
509.34320	0.64166
507.28939	0.64588
505.23559	0.65064
503.18179	0.65408
501.12798	0.65642
499.07418	0.65770
497.02038	0.66015
494.96657	0.66245
492.91277	0.66139
490.85897	0.65975
488.80516	0.65860
486.75136	0.65677
484.69756	0.65376
482.64375	0.64759
480.58995	0.63955
478.53615	0.62850
476.48234	0.61446
474.42854	0.60266
472.37474	0.59053
470.32093	0.57729
468.26713	0.56713
466.21333	0.55995
464.15953	0.55677
462.10572	0.55539
460.05192	0.55428
457.99812	0.55704
455.94431	0.56300
453.89051	0.56742
451.83671	0.57072
449.78290	0.57529
447.72910	0.58095
445.67530	0.58324
443.62149	0.57977
441.56769	0.57626
439.51389	0.57485
437.46008	0.57380
435.40628	0.57477
433.35248	0.57411
431.29867	0.57082
429.24487	0.56719
427.19107	0.56294
425.13726	0.56302
423.08346	0.56688
421.02966	0.57060
418.97585	0.57260
416.92205	0.56952
414.86825	0.57190
412.81445	0.57994
410.76064	0.58650
408.70684	0.59152
406.65304	0.59486
404.59923	0.59537
402.54543	0.59520
400.49163	0.59392
398.43782	0.59724
