3996.71440	0.98095
3994.66059	0.98080
3992.60678	0.98059
3990.55297	0.98057
3988.49916	0.98071
3986.44535	0.98082
3984.39154	0.98066
3982.33773	0.98040
3980.28391	0.98050
3978.23010	0.98084
3976.17629	0.98098
3974.12248	0.98100
3972.06867	0.98094
3970.01486	0.98059
3967.96105	0.98036
3965.90724	0.98046
3963.85343	0.98072
3961.79962	0.98078
3959.74581	0.98054
3957.69200	0.98051
3955.63819	0.98071
3953.58438	0.98083
3951.53057	0.98085
3949.47676	0.98075
3947.42295	0.98084
3945.36914	0.98125
3943.31533	0.98150
3941.26152	0.98126
3939.20771	0.98083
3937.15390	0.98065
3935.10009	0.98066
3933.04628	0.98061
3930.99247	0.98078
3928.93866	0.98118
3926.88485	0.98111
3924.83104	0.98078
3922.77723	0.98088
3920.72342	0.98123
3918.66961	0.98139
3916.61580	0.98129
3914.56199	0.98100
3912.50818	0.98081
3910.45437	0.98091
3908.40056	0.98115
3906.34675	0.98144
3904.29294	0.98174
3902.23913	0.98181
3900.18532	0.98148
3898.13151	0.98092
3896.07770	0.98071
3894.02389	0.98114
3891.97008	0.98159
3889.91627	0.98138
3887.86246	0.98105
3885.80865	0.98086
3883.75484	0.98067
3881.70103	0.98087
3879.64722	0.98120
3877.59341	0.98107
3875.53960	0.98066
3873.48579	0.98025
3871.43198	0.98019
3869.37817	0.98064
3867.32436	0.98088
3865.27055	0.98082
3863.21674	0.98094
3861.16293	0.98104
3859.10912	0.98090
3857.05531	0.98079
3855.00150	0.98062
3852.94769	0.98009
3850.89388	0.97999
3848.84007	0.98035
3846.78626	0.98070
3844.73245	0.98095
3842.67864	0.98119
3840.62483	0.98136
3838.57102	0.98140
3836.51721	0.98146
3834.46340	0.98131
3832.40959	0.98105
3830.35578	0.98135
3828.30197	0.98184
3826.24816	0.98191
3824.19435	0.98183
3822.14054	0.98185
3820.08673	0.98189
3818.03292	0.98185
3815.97911	0.98169
3813.92530	0.98145
3811.87149	0.98125
3809.81768	0.98119
3807.76387	0.98130
3805.71006	0.98157
3803.65625	0.98189
3801.60244	0.98167
3799.54863	0.98115
3797.49482	0.98131
3795.44101	0.98170
3793.38720	0.98169
3791.33339	0.98153
3789.27958	0.98144
3787.22577	0.98168
3785.17196	0.98221
3783.11815	0.98223
3781.06434	0.98183
3779.01053	0.98169
3776.95672	0.98166
3774.90291	0.98156
3772.84910	0.98148
3770.79529	0.98140
3768.74148	0.98134
3766.68767	0.98135
3764.63386	0.98136
3762.58005	0.98157
3760.52624	0.98213
3758.47243	0.98267
3756.41862	0.98281
3754.36481	0.98288
3752.31100	0.98301
3750.25719	0.98285
3748.20338	0.98271
3746.14957	0.98269
3744.09576	0.98232
3742.04195	0.98187
3739.98814	0.98206
3737.93433	0.98266
3735.88052	0.98266
3733.82671	0.98178
3731.77290	0.98119
3729.71909	0.98118
3727.66528	0.98151
3725.61147	0.98195
3723.55766	0.98212
3721.50385	0.98193
3719.45004	0.98174
3717.39623	0.98172
3715.34242	0.98171
3713.28861	0.98164
3711.23480	0.98115
3709.18099	0.98044
3707.12718	0.98010
3705.07337	0.97995
3703.01956	0.97994
3700.96575	0.97995
3698.91194	0.97975
3696.85813	0.97953
3694.80432	0.97946
3692.75051	0.97944
3690.69670	0.97938
3688.64289	0.97941
3686.58907	0.97939
3684.53526	0.97938
3682.48145	0.97959
3680.42764	0.97972
3678.37383	0.97973
3676.32002	0.98011
3674.26621	0.98038
3672.21240	0.97983
3670.15859	0.97898
3668.10478	0.97853
3666.05097	0.97859
3663.99716	0.97871
3661.94335	0.97862
3659.88954	0.97844
3657.83573	0.97822
3655.78192	0.97795
3653.72811	0.97796
3651.67430	0.97825
3649.62049	0.97842
3647.56668	0.97805
3645.51287	0.97769
3643.45906	0.97749
3641.40525	0.97704
3639.35144	0.97666
3637.29763	0.97666
3635.24382	0.97669
3633.19001	0.97655
3631.13620	0.97646
3629.08239	0.97624
3627.02858	0.97575
3624.97477	0.97550
3622.92096	0.97548
3620.86715	0.97540
3618.81334	0.97547
3616.75953	0.97573
3614.70572	0.97546
3612.65191	0.97486
3610.59810	0.97452
3608.54429	0.97440
3606.49048	0.97446
3604.43667	0.97463
3602.38286	0.97463
3600.32905	0.97447
3598.27524	0.97470
3596.22143	0.97536
3594.16762	0.97552
3592.11381	0.97524
3590.06000	0.97523
3588.00619	0.97526
3585.95238	0.97517
3583.89857	0.97513
3581.84476	0.97509
3579.79095	0.97506
3577.73714	0.97512
3575.68333	0.97512
3573.62952	0.97483
3571.57571	0.97465
3569.52190	0.97488
3567.46809	0.97513
3565.41428	0.97507
3563.36047	0.97486
3561.30666	0.97459
3559.25285	0.97424
3557.19904	0.97386
3555.14523	0.97343
3553.09142	0.97309
3551.03761	0.97298
3548.98380	0.97320
3546.92999	0.97355
3544.87618	0.97350
3542.82237	0.97328
3540.76856	0.97318
3538.71475	0.97295
3536.66094	0.97281
3534.60713	0.97307
3532.55332	0.97330
3530.49951	0.97349
3528.44570	0.97375
3526.39189	0.97351
3524.33808	0.97293
3522.28427	0.97276
3520.23046	0.97279
3518.17665	0.97272
3516.12284	0.97239
3514.06903	0.97194
3512.01522	0.97201
3509.96141	0.97251
3507.90760	0.97276
3505.85379	0.97275
3503.79998	0.97276
3501.74617	0.97281
3499.69236	0.97268
3497.63855	0.97230
3495.58474	0.97198
3493.53093	0.97191
3491.47712	0.97194
3489.42331	0.97182
3487.36950	0.97168
3485.31569	0.97174
3483.26188	0.97159
3481.20807	0.97118
3479.15426	0.97110
3477.10045	0.97107
3475.04664	0.97079
3472.99283	0.97077
3470.93902	0.97113
3468.88521	0.97131
3466.83140	0.97118
3464.77759	0.97124
3462.72378	0.97139
3460.66997	0.97131
3458.61616	0.97118
3456.56235	0.97090
3454.50854	0.97048
3452.45473	0.97034
3450.40092	0.97046
3448.34711	0.97050
3446.29330	0.97036
3444.23949	0.97032
3442.18568	0.97044
3440.13187	0.97047
3438.07806	0.97037
3436.02425	0.97015
3433.97044	0.97006
3431.91663	0.97023
3429.86282	0.97033
3427.80901	0.97010
3425.75520	0.96972
3423.70139	0.96963
3421.64758	0.96976
3419.59377	0.96976
3417.53996	0.96973
3415.48615	0.96968
3413.43234	0.96960
3411.37853	0.96977
3409.32472	0.97000
3407.27091	0.96986
3405.21710	0.96969
3403.16329	0.96996
3401.10948	0.97025
3399.05567	0.96980
3397.00186	0.96904
3394.94805	0.96899
3392.89424	0.96932
3390.84042	0.96956
3388.78661	0.96975
3386.73280	0.96992
3384.67899	0.97008
3382.62518	0.96989
3380.57137	0.96931
3378.51756	0.96902
3376.46375	0.96930
3374.40994	0.96980
3372.35613	0.96992
3370.30232	0.96956
3368.24851	0.96918
3366.19470	0.96899
3364.14089	0.96894
3362.08708	0.96893
3360.03327	0.96885
3357.97946	0.96880
3355.92565	0.96907
3353.87184	0.96952
3351.81803	0.96967
3349.76422	0.96953
3347.71041	0.96935
3345.65660	0.96931
3343.60279	0.96949
3341.54898	0.96971
3339.49517	0.96985
3337.44136	0.96998
3335.38755	0.96998
3333.33374	0.96986
3331.27993	0.96990
3329.22612	0.97015
3327.17231	0.97039
3325.11850	0.97040
3323.06469	0.97016
3321.01088	0.96986
3318.95707	0.96969
3316.90326	0.96972
3314.84945	0.96981
3312.79564	0.96971
3310.74183	0.96957
3308.68802	0.96955
3306.63421	0.96953
3304.58040	0.96963
3302.52659	0.96981
3300.47278	0.96979
3298.41897	0.96966
3296.36516	0.96972
3294.31135	0.96990
3292.25754	0.96987
3290.20373	0.96976
3288.14992	0.96985
3286.09611	0.96992
3284.04230	0.96984
3281.98849	0.96987
3279.93468	0.97017
3277.88087	0.97050
3275.82706	0.97055
3273.77325	0.97036
3271.71944	0.97024
3269.66563	0.97037
3267.61182	0.97057
3265.55801	0.97072
3263.50420	0.97082
3261.45039	0.97086
3259.39658	0.97086
3257.34277	0.97085
3255.28896	0.97069
3253.23515	0.97036
3251.18134	0.97030
3249.12753	0.97063
3247.07372	0.97099
3245.01991	0.97108
3242.96610	0.97105
3240.91229	0.97114
3238.85848	0.97112
3236.80467	0.97110
3234.75086	0.97118
3232.69705	0.97117
3230.64324	0.97118
3228.58943	0.97123
3226.53562	0.97122
3224.48181	0.97147
3222.42800	0.97183
3220.37419	0.97201
3218.32038	0.97186
3216.26657	0.97149
3214.21276	0.97142
3212.15895	0.97170
3210.10514	0.97206
3208.05133	0.97221
3205.99752	0.97202
3203.94371	0.97189
3201.88990	0.97193
3199.83609	0.97198
3197.78228	0.97194
3195.72847	0.97191
3193.67466	0.97205
3191.62085	0.97212
3189.56704	0.97201
3187.51323	0.97201
3185.45942	0.97212
3183.40561	0.97235
3181.35180	0.97273
3179.29799	0.97275
3177.24418	0.97230
3175.19037	0.97200
3173.13656	0.97217
3171.08275	0.97235
3169.02894	0.97244
3166.97513	0.97266
3164.92132	0.97270
3162.86751	0.97270
3160.81370	0.97307
3158.75989	0.97348
3156.70608	0.97354
3154.65227	0.97339
3152.59846	0.97327
3150.54465	0.97313
3148.49084	0.97287
3146.43703	0.97282
3144.38322	0.97314
3142.32941	0.97315
3140.27560	0.97274
3138.22179	0.97263
3136.16798	0.97313
3134.11417	0.97380
3132.06036	0.97401
3130.00655	0.97371
3127.95274	0.97356
3125.89893	0.97387
3123.84512	0.97409
3121.79131	0.97394
3119.73750	0.97374
3117.68369	0.97348
3115.62988	0.97319
3113.57607	0.97312
3111.52226	0.97329
3109.46845	0.97334
3107.41464	0.97326
3105.36083	0.97331
3103.30702	0.97326
3101.25321	0.97295
3099.19940	0.97277
3097.14559	0.97285
3095.09177	0.97288
3093.03796	0.97280
3090.98415	0.97262
3088.93034	0.97239
3086.87653	0.97228
3084.82272	0.97215
3082.76891	0.97206
3080.71510	0.97214
3078.66129	0.97225
3076.60748	0.97237
3074.55367	0.97248
3072.49986	0.97232
3070.44605	0.97206
3068.39224	0.97199
3066.33843	0.97210
3064.28462	0.97226
3062.23081	0.97219
3060.17700	0.97187
3058.12319	0.97153
3056.06938	0.97138
3054.01557	0.97128
3051.96176	0.97114
3049.90795	0.97109
3047.85414	0.97108
3045.80033	0.97094
3043.74652	0.97072
3041.69271	0.97060
3039.63890	0.97061
3037.58509	0.97076
3035.53128	0.97098
3033.47747	0.97096
3031.42366	0.97081
3029.36985	0.97084
3027.31604	0.97078
3025.26223	0.97055
3023.20842	0.97046
3021.15461	0.97040
3019.10080	0.97021
3017.04699	0.97004
3014.99318	0.96987
3012.93937	0.96942
3010.88556	0.96907
3008.83175	0.96915
3006.77794	0.96916
3004.72413	0.96895
3002.67032	0.96884
3000.61651	0.96872
2998.56270	0.96827
2996.50889	0.96771
2994.45508	0.96732
2992.40127	0.96689
2990.34746	0.96626
2988.29365	0.96560
2986.23984	0.96485
2984.18603	0.96375
2982.13222	0.96237
2980.07841	0.96112
2978.02460	0.95982
2975.97079	0.95811
2973.91698	0.95603
2971.86317	0.95355
2969.80936	0.95067
2967.75555	0.94753
2965.70174	0.94398
2963.64793	0.94002
2961.59412	0.93594
2959.54031	0.93209
2957.48650	0.92864
2955.43269	0.92550
2953.37888	0.92252
2951.32507	0.91942
2949.27126	0.91538
2947.21745	0.90937
2945.16364	0.90080
2943.10983	0.88969
2941.05602	0.87627
2939.00221	0.86053
2936.94840	0.84217
2934.89459	0.82107
2932.84078	0.79739
2930.78697	0.77075
2928.73316	0.74013
2926.67935	0.70416
2924.62554	0.66140
2922.57173	0.61173
2920.51792	0.55829
2918.46411	0.50867
2916.41030	0.47421
2914.35649	0.46520
2912.30268	0.48278
2910.24887	0.51756
2908.19506	0.55748
2906.14125	0.59439
2904.08744	0.62505
2902.03363	0.64981
2899.97982	0.67017
2897.92601	0.68770
2895.87220	0.70384
2893.81839	0.71940
2891.76458	0.73482
2889.71077	0.75042
2887.65696	0.76609
2885.60315	0.78164
2883.54934	0.79707
2881.49553	0.81226
2879.44172	0.82684
2877.38791	0.83998
2875.33410	0.85066
2873.28029	0.85825
2871.22648	0.86285
2869.17267	0.86455
2867.11886	0.86289
2865.06505	0.85696
2863.01124	0.84570
2860.95743	0.82754
2858.90362	0.79999
2856.84981	0.75953
2854.79600	0.70212
2852.74219	0.62778
2850.68838	0.55087
2848.63457	0.50211
2846.58076	0.50550
2844.52695	0.55493
2842.47314	0.62440
2840.41933	0.69197
2838.36552	0.74783
2836.31171	0.79061
2834.25790	0.82256
2832.20409	0.84649
2830.15028	0.86460
2828.09647	0.87870
2826.04266	0.89002
2823.98885	0.89902
2821.93504	0.90618
2819.88123	0.91214
2817.82742	0.91723
2815.77361	0.92155
2813.71980	0.92534
2811.66599	0.92887
2809.61218	0.93186
2807.55837	0.93420
2805.50456	0.93630
2803.45075	0.93828
2801.39693	0.94016
2799.34312	0.94203
2797.28931	0.94385
2795.23550	0.94547
2793.18169	0.94675
2791.12788	0.94804
2789.07407	0.94972
2787.02026	0.95136
2784.96645	0.95271
2782.91264	0.95395
2780.85883	0.95501
2778.80502	0.95573
2776.75121	0.95636
2774.69740	0.95711
2772.64359	0.95775
2770.58978	0.95827
2768.53597	0.95890
2766.48216	0.95948
2764.42835	0.95985
2762.37454	0.96019
2760.32073	0.96074
2758.26692	0.96132
2756.21311	0.96164
2754.15930	0.96186
2752.10549	0.96222
2750.05168	0.96250
2747.99787	0.96259
2745.94406	0.96268
2743.89025	0.96282
2741.83644	0.96297
2739.78263	0.96313
2737.72882	0.96326
2735.67501	0.96345
2733.62120	0.96369
2731.56739	0.96382
2729.51358	0.96394
2727.45977	0.96408
2725.40596	0.96408
2723.35215	0.96415
2721.29834	0.96439
2719.24453	0.96470
2717.19072	0.96523
2715.13691	0.96576
2713.08310	0.96599
2711.02929	0.96608
2708.97548	0.96620
2706.92167	0.96632
2704.86786	0.96646
2702.81405	0.96668
2700.76024	0.96672
2698.70643	0.96649
2696.65262	0.96638
2694.59881	0.96667
2692.54500	0.96709
2690.49119	0.96731
2688.43738	0.96726
2686.38357	0.96712
2684.32976	0.96718
2682.27595	0.96740
2680.22214	0.96729
2678.16833	0.96686
2676.11452	0.96660
2674.06071	0.96652
2672.00690	0.96634
2669.95309	0.96596
2667.89928	0.96558
2665.84547	0.96540
2663.79166	0.96549
2661.73785	0.96565
2659.68404	0.96572
2657.63023	0.96576
2655.57642	0.96585
2653.52261	0.96619
2651.46880	0.96651
2649.41499	0.96633
2647.36118	0.96606
2645.30737	0.96606
2643.25356	0.96605
2641.19975	0.96591
2639.14594	0.96577
2637.09213	0.96573
2635.03832	0.96585
2632.98451	0.96612
2630.93070	0.96655
2628.87689	0.96711
2626.82308	0.96763
2624.76927	0.96799
2622.71546	0.96823
2620.66165	0.96851
2618.60784	0.96902
2616.55403	0.96957
2614.50022	0.96974
2612.44641	0.96977
2610.39260	0.96988
2608.33879	0.96992
2606.28498	0.97013
2604.23117	0.97065
2602.17736	0.97105
2600.12355	0.97125
2598.06974	0.97169
2596.01593	0.97217
2593.96212	0.97222
2591.90831	0.97206
2589.85450	0.97205
2587.80069	0.97237
2585.74688	0.97289
2583.69307	0.97349
2581.63926	0.97386
2579.58545	0.97358
2577.53164	0.97280
2575.47783	0.97234
2573.42402	0.97277
2571.37021	0.97341
2569.31640	0.97354
2567.26259	0.97369
2565.20878	0.97410
2563.15497	0.97402
2561.10116	0.97371
2559.04735	0.97413
2556.99354	0.97465
2554.93973	0.97449
2552.88592	0.97423
2550.83211	0.97439
2548.77830	0.97462
2546.72449	0.97478
2544.67068	0.97518
2542.61687	0.97572
2540.56306	0.97592
2538.50925	0.97554
2536.45544	0.97493
2534.40163	0.97480
2532.34782	0.97524
2530.29401	0.97551
2528.24020	0.97520
2526.18639	0.97490
2524.13258	0.97508
2522.07877	0.97550
2520.02496	0.97590
2517.97115	0.97617
2515.91734	0.97618
2513.86353	0.97608
2511.80972	0.97634
2509.75591	0.97696
2507.70210	0.97695
2505.64828	0.97633
2503.59447	0.97627
2501.54066	0.97663
2499.48685	0.97689
2497.43304	0.97728
2495.37923	0.97763
2493.32542	0.97773
2491.27161	0.97779
2489.21780	0.97779
2487.16399	0.97770
2485.11018	0.97773
2483.05637	0.97774
2481.00256	0.97771
2478.94875	0.97799
2476.89494	0.97827
2474.84113	0.97799
2472.78732	0.97751
2470.73351	0.97742
2468.67970	0.97773
2466.62589	0.97797
2464.57208	0.97784
2462.51827	0.97769
2460.46446	0.97799
2458.41065	0.97863
2456.35684	0.97889
2454.30303	0.97865
2452.24922	0.97859
2450.19541	0.97896
2448.14160	0.97914
2446.08779	0.97881
2444.03398	0.97859
2441.98017	0.97855
2439.92636	0.97842
2437.87255	0.97833
2435.81874	0.97846
2433.76493	0.97882
2431.71112	0.97904
2429.65731	0.97883
2427.60350	0.97860
2425.54969	0.97888
2423.49588	0.97943
2421.44207	0.97934
2419.38826	0.97873
2417.33445	0.97865
2415.28064	0.97915
2413.22683	0.97941
2411.17302	0.97921
2409.11921	0.97913
2407.06540	0.97930
2405.01159	0.97948
2402.95778	0.97968
2400.90397	0.97961
2398.85016	0.97935
2396.79635	0.97924
2394.74254	0.97914
2392.68873	0.97899
2390.63492	0.97893
2388.58111	0.97913
2386.52730	0.97953
2384.47349	0.97984
2382.41968	0.98002
2380.36587	0.97997
2378.31206	0.97965
2376.25825	0.97934
2374.20444	0.97936
2372.15063	0.97970
2370.09682	0.97986
2368.04301	0.97989
2365.98920	0.98004
2363.93539	0.97990
2361.88158	0.97921
2359.82777	0.97805
2357.77396	0.97725
2355.72015	0.97742
2353.66634	0.97774
2351.61253	0.97781
2349.55872	0.97786
2347.50491	0.97773
2345.45110	0.97754
2343.39729	0.97751
2341.34348	0.97712
2339.28967	0.97689
2337.23586	0.97762
2335.18205	0.97855
2333.12824	0.97857
2331.07443	0.97785
2329.02062	0.97744
2326.96681	0.97726
2324.91300	0.97672
2322.85919	0.97619
2320.80538	0.97641
2318.75157	0.97717
2316.69776	0.97760
2314.64395	0.97755
2312.59014	0.97763
2310.53633	0.97792
2308.48252	0.97834
2306.42871	0.97872
2304.37490	0.97849
2302.32109	0.97783
2300.26728	0.97765
2298.21347	0.97823
2296.15966	0.97874
2294.10585	0.97846
2292.05204	0.97797
2289.99823	0.97805
2287.94442	0.97846
2285.89061	0.97863
2283.83680	0.97856
2281.78299	0.97869
2279.72918	0.97939
2277.67537	0.97986
2275.62156	0.97941
2273.56775	0.97886
2271.51394	0.97913
2269.46013	0.98022
2267.40632	0.98126
2265.35251	0.98135
2263.29870	0.98062
2261.24489	0.98019
2259.19108	0.98051
2257.13727	0.98081
2255.08346	0.98085
2253.02965	0.98072
2250.97584	0.98059
2248.92203	0.98058
2246.86822	0.98000
2244.81441	0.97908
2242.76060	0.97930
2240.70679	0.98073
2238.65298	0.98170
2236.59917	0.98163
2234.54536	0.98153
2232.49155	0.98185
2230.43774	0.98195
2228.38393	0.98131
2226.33012	0.98016
2224.27631	0.97988
2222.22250	0.98145
2220.16869	0.98255
2218.11488	0.98125
2216.06107	0.97969
2214.00726	0.98026
2211.95344	0.98207
2209.89963	0.98276
2207.84582	0.98209
2205.79201	0.98143
2203.73820	0.98134
2201.68439	0.98143
2199.63058	0.98139
2197.57677	0.98147
2195.52296	0.98136
2193.46915	0.98065
2191.41534	0.98062
2189.36153	0.98108
2187.30772	0.98074
2185.25391	0.98092
2183.20010	0.98214
2181.14629	0.98290
2179.09248	0.98277
2177.03867	0.98240
2174.98486	0.98279
2172.93105	0.98325
2170.87724	0.98189
2168.82343	0.97981
2166.76962	0.97932
2164.71581	0.98098
2162.66200	0.98322
2160.60819	0.98357
2158.55438	0.98394
2156.50057	0.98573
2154.44676	0.98640
2152.39295	0.98516
2150.33914	0.98292
2148.28533	0.98218
2146.23152	0.98366
2144.17771	0.98539
2142.12390	0.98563
2140.07009	0.98476
2138.01628	0.98476
2135.96247	0.98552
2133.90866	0.98538
2131.85485	0.98440
2129.80104	0.98380
2127.74723	0.98373
2125.69342	0.98341
2123.63961	0.98235
2121.58580	0.98135
2119.53199	0.98142
2117.47818	0.98241
2115.42437	0.98360
2113.37056	0.98412
2111.31675	0.98369
2109.26294	0.98300
2107.20913	0.98286
2105.15532	0.98360
2103.10151	0.98415
2101.04770	0.98367
2098.99389	0.98303
2096.94008	0.98299
2094.88627	0.98329
2092.83246	0.98292
2090.77865	0.98175
2088.72484	0.98095
2086.67103	0.98085
2084.61722	0.98078
2082.56341	0.98017
2080.50960	0.97911
2078.45579	0.97866
2076.40198	0.97927
2074.34817	0.98001
2072.29436	0.98033
2070.24055	0.98079
2068.18674	0.98167
2066.13293	0.98211
2064.07912	0.98159
2062.02531	0.98082
2059.97150	0.98103
2057.91769	0.98237
2055.86388	0.98284
2053.81007	0.98166
2051.75626	0.97998
2049.70245	0.97865
2047.64864	0.97886
2045.59483	0.98051
2043.54102	0.98167
2041.48721	0.98162
2039.43340	0.98154
2037.37959	0.98253
2035.32578	0.98300
2033.27197	0.98232
2031.21816	0.98272
2029.16435	0.98423
2027.11054	0.98470
2025.05673	0.98284
2023.00292	0.98082
2020.94911	0.98165
2018.89530	0.98318
2016.84149	0.98253
2014.78768	0.98082
2012.73387	0.98032
2010.68006	0.98175
2008.62625	0.98329
2006.57244	0.98346
2004.51863	0.98261
2002.46482	0.98163
2000.41101	0.98220
1998.35720	0.98354
1996.30339	0.98383
1994.24958	0.98392
1992.19577	0.98359
1990.14196	0.98250
1988.08815	0.98205
1986.03434	0.98155
1983.98053	0.98038
1981.92672	0.98012
1979.87291	0.98156
1977.81910	0.98354
1975.76529	0.98455
1973.71148	0.98497
1971.65767	0.98475
1969.60386	0.98351
1967.55005	0.98271
1965.49624	0.98255
1963.44243	0.98273
1961.38862	0.98358
1959.33481	0.98404
1957.28100	0.98382
1955.22719	0.98333
1953.17338	0.98294
1951.11957	0.98285
1949.06576	0.98209
1947.01195	0.98065
1944.95814	0.97998
1942.90433	0.98061
1940.85052	0.98183
1938.79671	0.98222
1936.74290	0.98167
1934.68909	0.98211
1932.63528	0.98348
1930.58147	0.98368
1928.52766	0.98252
1926.47385	0.98192
1924.42004	0.98272
1922.36623	0.98354
1920.31242	0.98315
1918.25861	0.98186
1916.20479	0.98129
1914.15098	0.98187
1912.09717	0.98242
1910.04336	0.98222
1907.98955	0.98132
1905.93574	0.98036
1903.88193	0.98010
1901.82812	0.98044
1899.77431	0.98050
1897.72050	0.98012
1895.66669	0.98008
1893.61288	0.98076
1891.55907	0.98134
1889.50526	0.98108
1887.45145	0.98074
1885.39764	0.98091
1883.34383	0.98118
1881.29002	0.98127
1879.23621	0.98113
1877.18240	0.98093
1875.12859	0.98082
1873.07478	0.98079
1871.02097	0.98073
1868.96716	0.98087
1866.91335	0.98133
1864.85954	0.98146
1862.80573	0.98121
1860.75192	0.98092
1858.69811	0.98071
1856.64430	0.98077
1854.59049	0.98094
1852.53668	0.98101
1850.48287	0.98120
1848.42906	0.98127
1846.37525	0.98114
1844.32144	0.98120
1842.26763	0.98128
1840.21382	0.98119
1838.16001	0.98087
1836.10620	0.98025
1834.05239	0.97975
1831.99858	0.97959
1829.94477	0.97973
1827.89096	0.98000
1825.83715	0.98001
1823.78334	0.97965
1821.72953	0.97931
1819.67572	0.97954
1817.62191	0.98018
1815.56810	0.98021
1813.51429	0.97959
1811.46048	0.97904
1809.40667	0.97852
1807.35286	0.97788
1805.29905	0.97747
1803.24524	0.97710
1801.19143	0.97641
1799.13762	0.97565
1797.08381	0.97516
1795.03000	0.97471
1792.97619	0.97381
1790.92238	0.97234
1788.86857	0.97103
1786.81476	0.97015
1784.76095	0.96920
1782.70714	0.96820
1780.65333	0.96752
1778.59952	0.96721
1776.54571	0.96711
1774.49190	0.96680
1772.43809	0.96614
1770.38428	0.96566
1768.33047	0.96539
1766.27666	0.96513
1764.22285	0.96498
1762.16904	0.96464
1760.11523	0.96411
1758.06142	0.96340
1756.00761	0.96218
1753.95380	0.96073
1751.89999	0.95903
1749.84618	0.95664
1747.79237	0.95361
1745.73856	0.95007
1743.68475	0.94608
1741.63094	0.94196
1739.57713	0.93803
1737.52332	0.93563
1735.46951	0.93500
1733.41570	0.93473
1731.36189	0.93389
1729.30808	0.93200
1727.25427	0.92801
1725.20046	0.92143
1723.14665	0.91304
1721.09284	0.90556
1719.03903	0.89945
1716.98522	0.89276
1714.93141	0.88761
1712.87760	0.88641
1710.82379	0.88878
1708.76998	0.89382
1706.71617	0.90086
1704.66236	0.90839
1702.60855	0.91431
1700.55474	0.91997
1698.50093	0.92579
1696.44712	0.93164
1694.39331	0.93749
1692.33950	0.94143
1690.28569	0.94450
1688.23188	0.94724
1686.17807	0.94946
1684.12426	0.95134
1682.07045	0.95259
1680.01664	0.95341
1677.96283	0.95396
1675.90902	0.95423
1673.85521	0.95458
1671.80140	0.95508
1669.74759	0.95537
1667.69378	0.95539
1665.63997	0.95537
1663.58616	0.95540
1661.53235	0.95547
1659.47854	0.95553
1657.42473	0.95556
1655.37092	0.95580
1653.31711	0.95607
1651.26330	0.95621
1649.20949	0.95671
1647.15568	0.95722
1645.10187	0.95710
1643.04806	0.95678
1640.99425	0.95676
1638.94044	0.95712
1636.88663	0.95760
1634.83282	0.95748
1632.77901	0.95721
1630.72520	0.95728
1628.67139	0.95747
1626.61758	0.95777
1624.56377	0.95811
1622.50996	0.95850
1620.45614	0.95890
1618.40233	0.95919
1616.34852	0.95941
1614.29471	0.95974
1612.24090	0.96026
1610.18709	0.96078
1608.13328	0.96097
1606.07947	0.96093
1604.02566	0.96095
1601.97185	0.96116
1599.91804	0.96146
1597.86423	0.96158
1595.81042	0.96159
1593.75661	0.96169
1591.70280	0.96174
1589.64899	0.96158
1587.59518	0.96140
1585.54137	0.96133
1583.48756	0.96128
1581.43375	0.96128
1579.37994	0.96142
1577.32613	0.96139
1575.27232	0.96110
1573.21851	0.96103
1571.16470	0.96112
1569.11089	0.96111
1567.05708	0.96095
1565.00327	0.96094
1562.94946	0.96129
1560.89565	0.96172
1558.84184	0.96147
1556.78803	0.96090
1554.73422	0.96076
1552.68041	0.96080
1550.62660	0.96096
1548.57279	0.96114
1546.51898	0.96133
1544.46517	0.96162
1542.41136	0.96229
1540.35755	0.96299
1538.30374	0.96302
1536.24993	0.96301
1534.19612	0.96322
1532.14231	0.96354
1530.08850	0.96398
1528.03469	0.96442
1525.98088	0.96475
1523.92707	0.96528
1521.87326	0.96585
1519.81945	0.96590
1517.76564	0.96562
1515.71183	0.96529
1513.65802	0.96497
1511.60421	0.96497
1509.55040	0.96522
1507.49659	0.96490
1505.44278	0.96389
1503.38897	0.96352
1501.33516	0.96345
1499.28135	0.96307
1497.22754	0.96215
1495.17373	0.96101
1493.11992	0.96022
1491.06611	0.95943
1489.01230	0.95812
1486.95849	0.95629
1484.90468	0.95409
1482.85087	0.95095
1480.79706	0.94508
1478.74325	0.93204
1476.68944	0.89942
1474.63563	0.83816
1472.58182	0.77977
1470.52801	0.77248
1468.47420	0.78946
1466.42039	0.79493
1464.36658	0.78582
1462.31277	0.78818
1460.25896	0.81290
1458.20515	0.84684
1456.15134	0.87265
1454.09753	0.88516
1452.04372	0.89350
1449.98991	0.90022
1447.93610	0.90505
1445.88229	0.90806
1443.82848	0.90980
1441.77467	0.91117
1439.72086	0.91248
1437.66705	0.91390
1435.61324	0.91555
1433.55943	0.91722
1431.50562	0.91896
1429.45181	0.92069
1427.39800	0.92213
1425.34419	0.92311
1423.29038	0.92357
1421.23657	0.92359
1419.18276	0.92280
1417.12895	0.92121
1415.07514	0.91995
1413.02133	0.91920
1410.96752	0.91939
1408.91371	0.92088
1406.85990	0.92312
1404.80609	0.92571
1402.75228	0.92833
1400.69847	0.93067
1398.64466	0.93288
1396.59085	0.93510
1394.53704	0.93703
1392.48323	0.93818
1390.42942	0.93874
1388.37561	0.93898
1386.32180	0.93845
1384.26799	0.93692
1382.21418	0.93443
1380.16037	0.93128
1378.10656	0.92877
1376.05275	0.92793
1373.99894	0.92832
1371.94513	0.92886
1369.89132	0.92938
1367.83751	0.93030
1365.78370	0.93159
1363.72989	0.93303
1361.67608	0.93430
1359.62227	0.93528
1357.56846	0.93622
1355.51465	0.93691
1353.46084	0.93720
1351.40703	0.93770
1349.35322	0.93866
1347.29941	0.93984
1345.24560	0.94092
1343.19179	0.94181
1341.13798	0.94273
1339.08417	0.94382
1337.03036	0.94472
1334.97655	0.94510
1332.92274	0.94517
1330.86893	0.94524
1328.81512	0.94528
1326.76130	0.94509
1324.70749	0.94467
1322.65368	0.94419
1320.59987	0.94373
1318.54606	0.94324
1316.49225	0.94263
1314.43844	0.94173
1312.38463	0.94071
1310.33082	0.94017
1308.27701	0.94000
1306.22320	0.93953
1304.16939	0.93885
1302.11558	0.93833
1300.06177	0.93789
1298.00796	0.93734
1295.95415	0.93671
1293.90034	0.93637
1291.84653	0.93636
1289.79272	0.93635
1287.73891	0.93617
1285.68510	0.93582
1283.63129	0.93564
1281.57748	0.93590
1279.52367	0.93621
1277.46986	0.93604
1275.41605	0.93560
1273.36224	0.93558
1271.30843	0.93605
1269.25462	0.93637
1267.20081	0.93610
1265.14700	0.93554
1263.09319	0.93497
1261.03938	0.93439
1258.98557	0.93370
1256.93176	0.93283
1254.87795	0.93167
1252.82414	0.93024
1250.77033	0.92866
1248.71652	0.92680
1246.66271	0.92511
1244.60890	0.92452
1242.55509	0.92508
1240.50128	0.92593
1238.44747	0.92640
1236.39366	0.92658
1234.33985	0.92689
1232.28604	0.92719
1230.23223	0.92714
1228.17842	0.92663
1226.12461	0.92584
1224.07080	0.92491
1222.01699	0.92372
1219.96318	0.92234
1217.90937	0.92088
1215.85556	0.91971
1213.80175	0.91924
1211.74794	0.91926
1209.69413	0.91920
1207.64032	0.91879
1205.58651	0.91829
1203.53270	0.91798
1201.47889	0.91769
1199.42508	0.91708
1197.37127	0.91621
1195.31746	0.91535
1193.26365	0.91439
1191.20984	0.91318
1189.15603	0.91181
1187.10222	0.91040
1185.04841	0.90893
1182.99460	0.90735
1180.94079	0.90561
1178.88698	0.90378
1176.83317	0.90200
1174.77936	0.90041
1172.72555	0.89896
1170.67174	0.89752
1168.61793	0.89607
1166.56412	0.89494
1164.51031	0.89432
1162.45650	0.89408
1160.40269	0.89422
1158.34888	0.89474
1156.29507	0.89555
1154.24126	0.89637
1152.18745	0.89667
1150.13364	0.89650
1148.07983	0.89639
1146.02602	0.89653
1143.97221	0.89647
1141.91840	0.89590
1139.86459	0.89509
1137.81078	0.89446
1135.75697	0.89398
1133.70316	0.89305
1131.64935	0.89140
1129.59554	0.88965
1127.54173	0.88820
1125.48792	0.88691
1123.43411	0.88545
1121.38030	0.88347
1119.32649	0.88120
1117.27268	0.87921
1115.21887	0.87730
1113.16506	0.87501
1111.11125	0.87241
1109.05744	0.86982
1107.00363	0.86753
1104.94982	0.86582
1102.89601	0.86490
1100.84220	0.86423
1098.78839	0.86334
1096.73458	0.86258
1094.68077	0.86190
1092.62696	0.86116
1090.57315	0.86058
1088.51934	0.86013
1086.46553	0.85965
1084.41172	0.85915
1082.35791	0.85875
1080.30410	0.85873
1078.25029	0.85877
1076.19648	0.85855
1074.14267	0.85827
1072.08886	0.85793
1070.03505	0.85749
1067.98124	0.85680
1065.92743	0.85563
1063.87362	0.85408
1061.81981	0.85266
1059.76600	0.85175
1057.71219	0.85087
1055.65838	0.84960
1053.60457	0.84816
1051.55076	0.84692
1049.49695	0.84603
1047.44314	0.84486
1045.38933	0.84317
1043.33552	0.84158
1041.28171	0.84021
1039.22790	0.83929
1037.17409	0.83891
1035.12028	0.83835
1033.06647	0.83763
1031.01265	0.83725
1028.95884	0.83721
1026.90503	0.83720
1024.85122	0.83706
1022.79741	0.83704
1020.74360	0.83721
1018.68979	0.83745
1016.63598	0.83768
1014.58217	0.83807
1012.52836	0.83906
1010.47455	0.84050
1008.42074	0.84183
1006.36693	0.84301
1004.31312	0.84436
1002.25931	0.84599
1000.20550	0.84760
998.15169	0.84889
996.09788	0.85014
994.04407	0.85165
991.99026	0.85332
989.93645	0.85509
987.88264	0.85703
985.82883	0.85928
983.77502	0.86168
981.72121	0.86383
979.66740	0.86569
977.61359	0.86749
975.55978	0.86943
973.50597	0.87140
971.45216	0.87306
969.39835	0.87407
967.34454	0.87480
965.29073	0.87628
963.23692	0.87886
961.18311	0.88194
959.12930	0.88475
957.07549	0.88692
955.02168	0.88895
952.96787	0.89111
950.91406	0.89282
948.86025	0.89413
946.80644	0.89535
944.75263	0.89646
942.69882	0.89777
940.64501	0.89917
938.59120	0.90021
936.53739	0.90126
934.48358	0.90263
932.42977	0.90404
930.37596	0.90510
928.32215	0.90590
926.26834	0.90699
924.21453	0.90839
922.16072	0.90958
920.10691	0.91034
918.05310	0.91070
915.99929	0.91070
913.94548	0.91085
911.89167	0.91148
909.83786	0.91222
907.78405	0.91323
905.73024	0.91491
903.67643	0.91683
901.62262	0.91874
899.56881	0.92040
897.51500	0.92147
895.46119	0.92257
893.40738	0.92389
891.35357	0.92487
889.29976	0.92540
887.24595	0.92563
885.19214	0.92551
883.13833	0.92480
881.08452	0.92358
879.03071	0.92219
876.97690	0.92083
874.92309	0.92040
872.86928	0.92190
870.81547	0.92505
868.76166	0.92862
866.70785	0.93154
864.65404	0.93358
862.60023	0.93450
860.54642	0.93451
858.49261	0.93478
856.43880	0.93563
854.38499	0.93666
852.33118	0.93749
850.27737	0.93793
848.22356	0.93865
846.16975	0.94034
844.11594	0.94209
842.06213	0.94260
840.00832	0.94209
837.95451	0.94179
835.90070	0.94204
833.84689	0.94210
831.79308	0.94180
829.73927	0.94176
827.68546	0.94249
825.63165	0.94351
823.57784	0.94347
821.52403	0.94236
819.47022	0.94168
817.41641	0.94188
815.36260	0.94166
813.30879	0.94039
811.25498	0.93882
809.20117	0.93710
807.14736	0.93498
805.09355	0.93249
803.03974	0.92931
800.98593	0.92619
798.93212	0.92431
796.87831	0.92358
794.82450	0.92400
792.77069	0.92543
790.71688	0.92683
788.66307	0.92765
786.60926	0.92781
784.55545	0.92699
782.50164	0.92534
780.44783	0.92385
778.39402	0.92351
776.34021	0.92411
774.28640	0.92518
772.23259	0.92655
770.17878	0.92785
768.12497	0.92890
766.07116	0.92907
764.01735	0.92859
761.96354	0.92893
759.90973	0.92975
757.85592	0.92981
755.80211	0.92893
753.74830	0.92749
751.69449	0.92681
749.64068	0.92720
747.58687	0.92723
745.53306	0.92624
743.47925	0.92455
741.42544	0.92255
739.37163	0.92000
737.31781	0.91449
735.26400	0.89949
733.21019	0.86726
731.15638	0.82817
729.10257	0.81153
727.04876	0.82026
724.99495	0.82393
722.94114	0.80069
720.88733	0.75519
718.83352	0.72024
716.77971	0.72786
714.72590	0.77184
712.67209	0.82271
710.61828	0.85948
708.56447	0.88047
706.51066	0.89185
704.45685	0.89880
702.40304	0.90348
700.34923	0.90641
698.29542	0.90817
696.24161	0.90871
694.18780	0.90892
692.13399	0.91015
690.08018	0.91189
688.02637	0.91331
685.97256	0.91407
683.91875	0.91417
681.86494	0.91434
679.81113	0.91474
677.75732	0.91498
675.70351	0.91485
673.64970	0.91481
671.59589	0.91488
669.54208	0.91419
667.48827	0.91311
665.43446	0.91351
663.38065	0.91443
661.32684	0.91431
659.27303	0.91321
657.21922	0.91234
655.16541	0.91183
653.11160	0.91140
651.05779	0.91107
649.00398	0.91035
646.95017	0.90897
644.89636	0.90794
642.84255	0.90791
640.78874	0.90759
638.73493	0.90623
636.68112	0.90557
634.62731	0.90623
632.57350	0.90655
630.51969	0.90633
628.46588	0.90561
626.41207	0.90439
624.35826	0.90428
622.30445	0.90516
620.25064	0.90558
618.19683	0.90488
616.14302	0.90350
614.08921	0.90297
612.03540	0.90266
609.98159	0.90158
607.92778	0.90089
605.87397	0.90050
603.82016	0.89923
601.76635	0.89767
599.71254	0.89649
597.65873	0.89467
595.60492	0.89165
593.55111	0.88875
591.49730	0.88713
589.44349	0.88685
587.38968	0.88711
585.33587	0.88692
583.28206	0.88653
581.22825	0.88636
579.17444	0.88685
577.12063	0.88763
575.06682	0.88717
573.01301	0.88642
570.95920	0.88704
568.90539	0.88842
566.85158	0.88930
564.79777	0.88931
562.74396	0.88884
560.69015	0.88931
558.63634	0.89100
556.58253	0.89132
554.52872	0.88858
552.47491	0.88501
550.42110	0.88319
548.36729	0.88273
546.31348	0.88247
544.25967	0.88122
542.20586	0.87849
540.15205	0.87609
538.09824	0.87446
536.04443	0.87339
533.99062	0.87340
531.93681	0.87302
529.88300	0.87211
527.82919	0.87169
525.77538	0.87103
523.72157	0.86985
521.66776	0.86906
519.61395	0.86933
517.56014	0.86931
515.50633	0.86870
513.45252	0.86954
511.39871	0.87081
509.34490	0.87121
507.29109	0.87211
505.23728	0.87427
503.18347	0.87630
501.12966	0.87586
499.07585	0.87376
497.02204	0.87318
494.96823	0.87386
492.91442	0.87361
490.86061	0.87151
488.80680	0.86809
486.75299	0.86447
484.69918	0.86112
482.64537	0.85895
480.59156	0.85757
478.53775	0.85415
476.48394	0.84850
474.43013	0.84261
472.37632	0.83741
470.32251	0.83449
468.26870	0.83387
466.21489	0.83484
464.16108	0.83596
462.10727	0.83542
460.05346	0.83515
457.99965	0.83757
455.94584	0.84157
453.89203	0.84472
451.83822	0.84777
449.78441	0.85271
447.73060	0.85762
445.67679	0.86084
443.62298	0.86294
441.56916	0.86341
439.51535	0.86395
437.46154	0.86375
435.40773	0.86145
433.35392	0.86040
431.30011	0.86097
429.24630	0.86246
427.19249	0.86438
425.13868	0.86383
423.08487	0.86207
421.03106	0.86120
418.97725	0.85846
416.92344	0.85868
414.86963	0.86258
412.81582	0.86323
410.76201	0.86168
408.70820	0.86315
406.65439	0.86534
404.60058	0.86331
402.54677	0.85954
400.49296	0.85736
398.43915	0.85895
