3996.70104	0.97720
3994.64724	0.97706
3992.59344	0.97705
3990.53964	0.97743
3988.48583	0.97765
3986.43203	0.97719
3984.37823	0.97677
3982.32442	0.97692
3980.27062	0.97709
3978.21682	0.97713
3976.16301	0.97729
3974.10921	0.97722
3972.05541	0.97696
3970.00160	0.97703
3967.94780	0.97740
3965.89400	0.97756
3963.84019	0.97728
3961.78639	0.97719
3959.73259	0.97758
3957.67878	0.97754
3955.62498	0.97717
3953.57118	0.97722
3951.51737	0.97708
3949.46357	0.97663
3947.40977	0.97660
3945.35596	0.97704
3943.30216	0.97762
3941.24836	0.97779
3939.19455	0.97745
3937.14075	0.97715
3935.08695	0.97680
3933.03315	0.97635
3930.97934	0.97638
3928.92554	0.97684
3926.87174	0.97706
3924.81793	0.97684
3922.76413	0.97658
3920.71033	0.97686
3918.65652	0.97747
3916.60272	0.97759
3914.54892	0.97723
3912.49511	0.97684
3910.44131	0.97641
3908.38751	0.97625
3906.33370	0.97653
3904.27990	0.97701
3902.22610	0.97742
3900.17229	0.97755
3898.11849	0.97765
3896.06469	0.97759
3894.01088	0.97711
3891.95708	0.97659
3889.90328	0.97680
3887.84947	0.97785
3885.79567	0.97885
3883.74187	0.97836
3881.68807	0.97699
3879.63426	0.97645
3877.58046	0.97685
3875.52666	0.97700
3873.47285	0.97669
3871.41905	0.97732
3869.36525	0.97884
3867.31144	0.97897
3865.25764	0.97825
3863.20384	0.97809
3861.15003	0.97809
3859.09623	0.97782
3857.04243	0.97760
3854.98862	0.97757
3852.93482	0.97749
3850.88102	0.97756
3848.82721	0.97773
3846.77341	0.97764
3844.71961	0.97724
3842.66580	0.97693
3840.61200	0.97683
3838.55820	0.97639
3836.50439	0.97644
3834.45059	0.97713
3832.39679	0.97697
3830.34298	0.97675
3828.28918	0.97757
3826.23538	0.97822
3824.18158	0.97809
3822.12777	0.97802
3820.07397	0.97804
3818.02017	0.97774
3815.96636	0.97761
3813.91256	0.97801
3811.85876	0.97842
3809.80495	0.97849
3807.75115	0.97824
3805.69735	0.97757
3803.64354	0.97703
3801.58974	0.97664
3799.53594	0.97583
3797.48213	0.97566
3795.42833	0.97639
3793.37453	0.97722
3791.32072	0.97781
3789.26692	0.97802
3787.21312	0.97790
3785.15931	0.97781
3783.10551	0.97770
3781.05171	0.97749
3778.99790	0.97734
3776.94410	0.97711
3774.89030	0.97684
3772.83650	0.97689
3770.78269	0.97708
3768.72889	0.97706
3766.67509	0.97728
3764.62128	0.97777
3762.56748	0.97801
3760.51368	0.97819
3758.45987	0.97830
3756.40607	0.97845
3754.35227	0.97916
3752.29846	0.97978
3750.24466	0.97938
3748.19086	0.97880
3746.13705	0.97911
3744.08325	0.97975
3742.02945	0.97884
3739.97564	0.97732
3737.92184	0.97686
3735.86804	0.97747
3733.81423	0.97712
3731.76043	0.97620
3729.70663	0.97617
3727.65282	0.97625
3725.59902	0.97609
3723.54522	0.97586
3721.49141	0.97536
3719.43761	0.97423
3717.38381	0.97215
3715.33001	0.97001
3713.27620	0.96806
3711.22240	0.96444
3709.16860	0.95962
3707.11479	0.95577
3705.06099	0.95261
3703.00719	0.94937
3700.95338	0.94577
3698.89958	0.94331
3696.84578	0.94287
3694.79197	0.94383
3692.73817	0.94584
3690.68437	0.94895
3688.63056	0.95232
3686.57676	0.95380
3684.52296	0.95405
3682.46915	0.95449
3680.41535	0.95507
3678.36155	0.95556
3676.30774	0.95596
3674.25394	0.95669
3672.20014	0.95757
3670.14633	0.95674
3668.09253	0.95418
3666.03873	0.95245
3663.98492	0.95157
3661.93112	0.95080
3659.87732	0.95004
3657.82352	0.94934
3655.76971	0.94804
3653.71591	0.94668
3651.66211	0.94583
3649.60830	0.94518
3647.55450	0.94509
3645.50070	0.94485
3643.44689	0.94418
3641.39309	0.94304
3639.33929	0.94152
3637.28548	0.94063
3635.23168	0.94042
3633.17788	0.94002
3631.12407	0.93923
3629.07027	0.93708
3627.01647	0.93413
3624.96266	0.93273
3622.90886	0.93223
3620.85506	0.93222
3618.80125	0.93290
3616.74745	0.93407
3614.69365	0.93495
3612.63984	0.93507
3610.58604	0.93554
3608.53224	0.93673
3606.47844	0.93692
3604.42463	0.93615
3602.37083	0.93588
3600.31703	0.93619
3598.26322	0.93643
3596.20942	0.93658
3594.15562	0.93687
3592.10181	0.93683
3590.04801	0.93657
3587.99421	0.93673
3585.94040	0.93701
3583.88660	0.93733
3581.83280	0.93738
3579.77899	0.93627
3577.72519	0.93459
3575.67139	0.93362
3573.61758	0.93360
3571.56378	0.93367
3569.50998	0.93280
3567.45617	0.93095
3565.40237	0.92984
3563.34857	0.93027
3561.29476	0.93064
3559.24096	0.92988
3557.18716	0.92857
3555.13335	0.92759
3553.07955	0.92670
3551.02575	0.92581
3548.97195	0.92559
3546.91814	0.92592
3544.86434	0.92616
3542.81054	0.92593
3540.75673	0.92550
3538.70293	0.92551
3536.64913	0.92577
3534.59532	0.92573
3532.54152	0.92583
3530.48772	0.92627
3528.43391	0.92627
3526.38011	0.92592
3524.32631	0.92568
3522.27250	0.92533
3520.21870	0.92531
3518.16490	0.92601
3516.11109	0.92664
3514.05729	0.92676
3512.00349	0.92693
3509.94968	0.92722
3507.89588	0.92709
3505.84208	0.92678
3503.78827	0.92688
3501.73447	0.92721
3499.68067	0.92715
3497.62687	0.92663
3495.57306	0.92622
3493.51926	0.92610
3491.46546	0.92587
3489.41165	0.92575
3487.35785	0.92602
3485.30405	0.92619
3483.25024	0.92594
3481.19644	0.92560
3479.14264	0.92554
3477.08883	0.92573
3475.03503	0.92566
3472.98123	0.92513
3470.92742	0.92475
3468.87362	0.92483
3466.81982	0.92482
3464.76601	0.92419
3462.71221	0.92354
3460.65841	0.92340
3458.60460	0.92337
3456.55080	0.92325
3454.49700	0.92297
3452.44319	0.92254
3450.38939	0.92254
3448.33559	0.92277
3446.28178	0.92218
3444.22798	0.92143
3442.17418	0.92166
3440.12038	0.92187
3438.06657	0.92141
3436.01277	0.92088
3433.95897	0.92011
3431.90516	0.91918
3429.85136	0.91870
3427.79756	0.91838
3425.74375	0.91792
3423.68995	0.91744
3421.63615	0.91687
3419.58234	0.91616
3417.52854	0.91560
3415.47474	0.91516
3413.42093	0.91467
3411.36713	0.91412
3409.31333	0.91363
3407.25952	0.91333
3405.20572	0.91309
3403.15192	0.91283
3401.09811	0.91280
3399.04431	0.91285
3396.99051	0.91281
3394.93670	0.91292
3392.88290	0.91313
3390.82910	0.91338
3388.77529	0.91379
3386.72149	0.91448
3384.66769	0.91534
3382.61389	0.91612
3380.56008	0.91662
3378.50628	0.91680
3376.45248	0.91677
3374.39867	0.91661
3372.34487	0.91674
3370.29107	0.91719
3368.23726	0.91751
3366.18346	0.91757
3364.12966	0.91778
3362.07585	0.91831
3360.02205	0.91879
3357.96825	0.91925
3355.91444	0.91992
3353.86064	0.92061
3351.80684	0.92062
3349.75303	0.92006
3347.69923	0.92006
3345.64543	0.92074
3343.59162	0.92139
3341.53782	0.92189
3339.48402	0.92197
3337.43021	0.92157
3335.37641	0.92158
3333.32261	0.92235
3331.26881	0.92291
3329.21500	0.92311
3327.16120	0.92361
3325.10740	0.92438
3323.05359	0.92504
3320.99979	0.92525
3318.94599	0.92527
3316.89218	0.92546
3314.83838	0.92557
3312.78458	0.92550
3310.73077	0.92519
3308.67697	0.92464
3306.62317	0.92462
3304.56936	0.92540
3302.51556	0.92596
3300.46176	0.92623
3298.40795	0.92694
3296.35415	0.92770
3294.30035	0.92811
3292.24654	0.92842
3290.19274	0.92840
3288.13894	0.92808
3286.08513	0.92798
3284.03133	0.92815
3281.97753	0.92811
3279.92372	0.92774
3277.86992	0.92777
3275.81612	0.92871
3273.76232	0.93003
3271.70851	0.93082
3269.65471	0.93097
3267.60091	0.93080
3265.54710	0.93061
3263.49330	0.93104
3261.43950	0.93164
3259.38569	0.93139
3257.33189	0.93079
3255.27809	0.93098
3253.22428	0.93178
3251.17048	0.93260
3249.11668	0.93290
3247.06287	0.93235
3245.00907	0.93192
3242.95527	0.93259
3240.90146	0.93372
3238.84766	0.93429
3236.79386	0.93424
3234.74005	0.93426
3232.68625	0.93484
3230.63245	0.93548
3228.57864	0.93575
3226.52484	0.93618
3224.47104	0.93690
3222.41724	0.93751
3220.36343	0.93772
3218.30963	0.93758
3216.25583	0.93783
3214.20202	0.93851
3212.14822	0.93883
3210.09442	0.93938
3208.04061	0.94032
3205.98681	0.94073
3203.93301	0.94087
3201.87920	0.94097
3199.82540	0.94082
3197.77160	0.94076
3195.71779	0.94130
3193.66399	0.94219
3191.61019	0.94298
3189.55638	0.94345
3187.50258	0.94356
3185.44878	0.94370
3183.39497	0.94392
3181.34117	0.94409
3179.28737	0.94459
3177.23356	0.94535
3175.17976	0.94576
3173.12596	0.94591
3171.07215	0.94627
3169.01835	0.94683
3166.96455	0.94715
3164.91075	0.94714
3162.85694	0.94712
3160.80314	0.94742
3158.74934	0.94812
3156.69553	0.94884
3154.64173	0.94918
3152.58793	0.94954
3150.53412	0.95021
3148.48032	0.95080
3146.42652	0.95129
3144.37271	0.95160
3142.31891	0.95179
3140.26511	0.95212
3138.21130	0.95248
3136.15750	0.95288
3134.10370	0.95323
3132.04989	0.95352
3129.99609	0.95384
3127.94229	0.95403
3125.88848	0.95424
3123.83468	0.95465
3121.78088	0.95514
3119.72707	0.95543
3117.67327	0.95547
3115.61947	0.95567
3113.56566	0.95632
3111.51186	0.95687
3109.45806	0.95660
3107.40426	0.95606
3105.35045	0.95616
3103.29665	0.95677
3101.24285	0.95726
3099.18904	0.95711
3097.13524	0.95674
3095.08144	0.95686
3093.02763	0.95707
3090.97383	0.95697
3088.92003	0.95683
3086.86622	0.95684
3084.81242	0.95682
3082.75862	0.95708
3080.70481	0.95767
3078.65101	0.95799
3076.59721	0.95818
3074.54340	0.95850
3072.48960	0.95885
3070.43580	0.95917
3068.38199	0.95936
3066.32819	0.95944
3064.27439	0.95944
3062.22058	0.95947
3060.16678	0.95974
3058.11298	0.96021
3056.05918	0.96045
3054.00537	0.96028
3051.95157	0.96019
3049.89777	0.96055
3047.84396	0.96109
3045.79016	0.96123
3043.73636	0.96099
3041.68255	0.96088
3039.62875	0.96105
3037.57495	0.96121
3035.52114	0.96113
3033.46734	0.96107
3031.41354	0.96133
3029.35973	0.96186
3027.30593	0.96252
3025.25213	0.96302
3023.19832	0.96315
3021.14452	0.96296
3019.09072	0.96266
3017.03691	0.96257
3014.98311	0.96273
3012.92931	0.96294
3010.87550	0.96317
3008.82170	0.96332
3006.76790	0.96326
3004.71409	0.96318
3002.66029	0.96339
3000.60649	0.96372
2998.55269	0.96395
2996.49888	0.96381
2994.44508	0.96328
2992.39128	0.96307
2990.33747	0.96313
2988.28367	0.96280
2986.22987	0.96229
2984.17606	0.96191
2982.12226	0.96156
2980.06846	0.96128
2978.01465	0.96112
2975.96085	0.96099
2973.90705	0.96064
2971.85324	0.95976
2969.79944	0.95826
2967.74564	0.95672
2965.69183	0.95559
2963.63803	0.95434
2961.58423	0.95283
2959.53042	0.95164
2957.47662	0.95031
2955.42282	0.94832
2953.36901	0.94610
2951.31521	0.94350
2949.26141	0.94018
2947.20761	0.93598
2945.15380	0.93004
2943.10000	0.92195
2941.04620	0.91207
2938.99239	0.90015
2936.93859	0.88564
2934.88479	0.86835
2932.83098	0.84799
2930.77718	0.82382
2928.72338	0.79527
2926.66957	0.76144
2924.61577	0.72100
2922.56197	0.67371
2920.50816	0.62216
2918.45436	0.57295
2916.40056	0.53685
2914.34675	0.52469
2912.29295	0.53828
2910.23915	0.56820
2908.18534	0.60278
2906.13154	0.63470
2904.07774	0.66100
2902.02393	0.68200
2899.97013	0.69918
2897.91633	0.71363
2895.86252	0.72693
2893.80872	0.74028
2891.75492	0.75383
2889.70112	0.76758
2887.64731	0.78174
2885.59351	0.79648
2883.53971	0.81163
2881.48590	0.82697
2879.43210	0.84250
2877.37830	0.85777
2875.32449	0.87141
2873.27069	0.88222
2871.21689	0.88972
2869.16308	0.89346
2867.10928	0.89356
2865.05548	0.89035
2863.00167	0.88260
2860.94787	0.86811
2858.89407	0.84461
2856.84026	0.80859
2854.78646	0.75601
2852.73266	0.68755
2850.67885	0.61597
2848.62505	0.56711
2846.57125	0.56134
2844.51744	0.59438
2842.46364	0.64622
2840.40984	0.69992
2838.35603	0.74671
2836.30223	0.78392
2834.24843	0.81268
2832.19463	0.83518
2830.14082	0.85292
2828.08702	0.86698
2826.03322	0.87828
2823.97941	0.88758
2821.92561	0.89534
2819.87181	0.90187
2817.81800	0.90777
2815.76420	0.91289
2813.71040	0.91682
2811.65659	0.92030
2809.60279	0.92398
2807.54899	0.92745
2805.49518	0.93007
2803.44138	0.93211
2801.38758	0.93429
2799.33377	0.93654
2797.27997	0.93839
2795.22617	0.93997
2793.17236	0.94177
2791.11856	0.94350
2789.06476	0.94483
2787.01095	0.94629
2784.95715	0.94789
2782.90335	0.94925
2780.84955	0.95035
2778.79574	0.95134
2776.74194	0.95232
2774.68814	0.95311
2772.63433	0.95377
2770.58053	0.95456
2768.52673	0.95528
2766.47292	0.95576
2764.41912	0.95610
2762.36532	0.95657
2760.31151	0.95721
2758.25771	0.95774
2756.20391	0.95796
2754.15010	0.95792
2752.09630	0.95811
2750.04250	0.95884
2747.98869	0.95949
2745.93489	0.95961
2743.88109	0.95954
2741.82728	0.95963
2739.77348	0.95983
2737.71968	0.96008
2735.66587	0.96025
2733.61207	0.96040
2731.55827	0.96091
2729.50446	0.96175
2727.45066	0.96236
2725.39686	0.96251
2723.34306	0.96268
2721.28925	0.96312
2719.23545	0.96345
2717.18165	0.96347
2715.12784	0.96343
2713.07404	0.96364
2711.02024	0.96390
2708.96643	0.96399
2706.91263	0.96399
2704.85883	0.96387
2702.80502	0.96380
2700.75122	0.96421
2698.69742	0.96506
2696.64361	0.96570
2694.58981	0.96589
2692.53601	0.96584
2690.48220	0.96583
2688.42840	0.96594
2686.37460	0.96591
2684.32079	0.96571
2682.26699	0.96569
2680.21319	0.96578
2678.15938	0.96573
2676.10558	0.96558
2674.05178	0.96548
2671.99797	0.96544
2669.94417	0.96525
2667.89037	0.96487
2665.83657	0.96445
2663.78276	0.96428
2661.72896	0.96442
2659.67516	0.96442
2657.62135	0.96430
2655.56755	0.96453
2653.51375	0.96494
2651.45994	0.96510
2649.40614	0.96497
2647.35234	0.96482
2645.29853	0.96489
2643.24473	0.96486
2641.19093	0.96470
2639.13712	0.96473
2637.08332	0.96482
2635.02952	0.96482
2632.97571	0.96474
2630.92191	0.96474
2628.86811	0.96509
2626.81430	0.96576
2624.76050	0.96636
2622.70670	0.96676
2620.65289	0.96728
2618.59909	0.96789
2616.54529	0.96816
2614.49149	0.96833
2612.43768	0.96876
2610.38388	0.96916
2608.33008	0.96928
2606.27627	0.96946
2604.22247	0.96993
2602.16867	0.97016
2600.11486	0.97007
2598.06106	0.97029
2596.00726	0.97083
2593.95345	0.97118
2591.89965	0.97117
2589.84585	0.97099
2587.79204	0.97073
2585.73824	0.97090
2583.68444	0.97176
2581.63063	0.97266
2579.57683	0.97302
2577.52303	0.97268
2575.46922	0.97216
2573.41542	0.97207
2571.36162	0.97207
2569.30781	0.97183
2567.25401	0.97198
2565.20021	0.97253
2563.14640	0.97306
2561.09260	0.97350
2559.03880	0.97355
2556.98500	0.97348
2554.93119	0.97367
2552.87739	0.97396
2550.82359	0.97450
2548.76978	0.97452
2546.71598	0.97353
2544.66218	0.97311
2542.60837	0.97375
2540.55457	0.97399
2538.50077	0.97335
2536.44696	0.97289
2534.39316	0.97304
2532.33936	0.97349
2530.28555	0.97395
2528.23175	0.97394
2526.17795	0.97387
2524.12414	0.97437
2522.07034	0.97481
2520.01654	0.97496
2517.96273	0.97505
2515.90893	0.97484
2513.85513	0.97430
2511.80132	0.97410
2509.74752	0.97500
2507.69372	0.97626
2505.63992	0.97627
2503.58611	0.97539
2501.53231	0.97510
2499.47851	0.97562
2497.42470	0.97641
2495.37090	0.97698
2493.31710	0.97713
2491.26329	0.97676
2489.20949	0.97597
2487.15569	0.97572
2485.10188	0.97616
2483.04808	0.97627
2480.99428	0.97618
2478.94047	0.97663
2476.88667	0.97702
2474.83287	0.97666
2472.77906	0.97612
2470.72526	0.97582
2468.67146	0.97542
2466.61765	0.97515
2464.56385	0.97530
2462.51005	0.97561
2460.45624	0.97583
2458.40244	0.97576
2456.34864	0.97584
2454.29483	0.97632
2452.24103	0.97654
2450.18723	0.97618
2448.13343	0.97561
2446.07962	0.97544
2444.02582	0.97584
2441.97202	0.97607
2439.91821	0.97579
2437.86441	0.97574
2435.81061	0.97626
2433.75680	0.97657
2431.70300	0.97608
2429.64920	0.97562
2427.59539	0.97590
2425.54159	0.97635
2423.48779	0.97644
2421.43398	0.97633
2419.38018	0.97618
2417.32638	0.97589
2415.27257	0.97549
2413.21877	0.97531
2411.16497	0.97524
2409.11116	0.97522
2407.05736	0.97575
2405.00356	0.97667
2402.94975	0.97715
2400.89595	0.97739
2398.84215	0.97752
2396.78834	0.97713
2394.73454	0.97666
2392.68074	0.97648
2390.62694	0.97646
2388.57313	0.97642
2386.51933	0.97603
2384.46553	0.97579
2382.41172	0.97593
2380.35792	0.97579
2378.30412	0.97550
2376.25031	0.97588
2374.19651	0.97667
2372.14271	0.97667
2370.08890	0.97576
2368.03510	0.97501
2365.98130	0.97497
2363.92749	0.97536
2361.87369	0.97523
2359.81989	0.97388
2357.76608	0.97328
2355.71228	0.97445
2353.65848	0.97507
2351.60467	0.97435
2349.55087	0.97360
2347.49707	0.97346
2345.44326	0.97363
2343.38946	0.97358
2341.33566	0.97317
2339.28186	0.97302
2337.22805	0.97351
2335.17425	0.97415
2333.12045	0.97426
2331.06664	0.97382
2329.01284	0.97338
2326.95904	0.97290
2324.90523	0.97235
2322.85143	0.97234
2320.79763	0.97331
2318.74382	0.97424
2316.69002	0.97399
2314.63622	0.97355
2312.58241	0.97381
2310.52861	0.97419
2308.47481	0.97424
2306.42100	0.97441
2304.36720	0.97487
2302.31340	0.97488
2300.25959	0.97448
2298.20579	0.97436
2296.15199	0.97411
2294.09818	0.97326
2292.04438	0.97276
2289.99058	0.97327
2287.93677	0.97400
2285.88297	0.97445
2283.82917	0.97483
2281.77537	0.97490
2279.72156	0.97467
2277.66776	0.97512
2275.61396	0.97641
2273.56015	0.97719
2271.50635	0.97668
2269.45255	0.97564
2267.39874	0.97577
2265.34494	0.97623
2263.29114	0.97537
2261.23733	0.97507
2259.18353	0.97567
2257.12973	0.97532
2255.07592	0.97456
2253.02212	0.97488
2250.96832	0.97616
2248.91451	0.97756
2246.86071	0.97871
2244.80691	0.97847
2242.75310	0.97663
2240.69930	0.97501
2238.64550	0.97473
2236.59169	0.97548
2234.53789	0.97623
2232.48409	0.97670
2230.43029	0.97673
2228.37648	0.97579
2226.32268	0.97459
2224.26888	0.97386
2222.21507	0.97406
2220.16127	0.97509
2218.10747	0.97580
2216.05366	0.97578
2213.99986	0.97596
2211.94606	0.97689
2209.89225	0.97736
2207.83845	0.97768
2205.78465	0.97901
2203.73084	0.97971
2201.67704	0.97892
2199.62324	0.97820
2197.56943	0.97872
2195.51563	0.97989
2193.46183	0.98036
2191.40802	0.98009
2189.35422	0.98034
2187.30042	0.98068
2185.24661	0.97907
2183.19281	0.97800
2181.13901	0.98059
2179.08520	0.98235
2177.03140	0.98070
2174.97760	0.98010
2172.92380	0.98136
2170.86999	0.97984
2168.81619	0.97521
2166.76239	0.97314
2164.70858	0.97608
2162.65478	0.97946
2160.60098	0.98106
2158.54717	0.98347
2156.49337	0.98442
2154.43957	0.98188
2152.38576	0.97882
2150.33196	0.97743
2148.27816	0.97917
2146.22435	0.98296
2144.17055	0.98441
2142.11675	0.98253
2140.06294	0.98016
2138.00914	0.97929
2135.95534	0.97953
2133.90153	0.97963
2131.84773	0.97992
2129.79393	0.98025
2127.74012	0.98027
2125.68632	0.98037
2123.63252	0.97924
2121.57871	0.97750
2119.52491	0.97748
2117.47111	0.97767
2115.41731	0.97738
2113.36350	0.97846
2111.30970	0.97982
2109.25590	0.97951
2107.20209	0.97823
2105.14829	0.97756
2103.09449	0.97788
2101.04068	0.97827
2098.98688	0.97802
2096.93308	0.97742
2094.87927	0.97808
2092.82547	0.97997
2090.77167	0.98084
2088.71786	0.98048
2086.66406	0.97955
2084.61026	0.97869
2082.55645	0.97838
2080.50265	0.97805
2078.44885	0.97787
2076.39504	0.97810
2074.34124	0.97798
2072.28744	0.97788
2070.23363	0.97878
2068.17983	0.97913
2066.12603	0.97753
2064.07223	0.97646
2062.01842	0.97792
2059.96462	0.97926
2057.91082	0.97922
2055.85701	0.97939
2053.80321	0.97921
2051.74941	0.97841
2049.69560	0.97825
2047.64180	0.97801
2045.58800	0.97663
2043.53419	0.97645
2041.48039	0.97908
2039.42659	0.98177
2037.37278	0.98114
2035.31898	0.97942
2033.26518	0.98003
2031.21137	0.98047
2029.15757	0.98069
2027.10377	0.98360
2025.04996	0.98612
2022.99616	0.98382
2020.94236	0.97845
2018.88855	0.97462
2016.83475	0.97483
2014.78095	0.97556
2012.72714	0.97439
2010.67334	0.97456
2008.61954	0.97628
2006.56574	0.97804
2004.51193	0.97916
2002.45813	0.97882
2000.40433	0.97793
1998.35052	0.97981
1996.29672	0.98382
1994.24292	0.98530
1992.18911	0.98508
1990.13531	0.98482
1988.08151	0.98281
1986.02770	0.98066
1983.97390	0.98045
1981.92010	0.98029
1979.86629	0.97982
1977.81249	0.98053
1975.75869	0.97993
1973.70488	0.97787
1971.65108	0.97812
1969.59728	0.97953
1967.54347	0.97980
1965.48967	0.97925
1963.43587	0.97990
1961.38206	0.98336
1959.32826	0.98527
1957.27446	0.98320
1955.22066	0.98109
1953.16685	0.98038
1951.11305	0.98047
1949.05925	0.98123
1947.00544	0.98160
1944.95164	0.98121
1942.89784	0.98099
1940.84403	0.98074
1938.79023	0.98079
1936.73643	0.98131
1934.68262	0.98113
1932.62882	0.98072
1930.57502	0.98058
1928.52121	0.97973
1926.46741	0.97852
1924.41361	0.97757
1922.35980	0.97639
1920.30600	0.97521
1918.25220	0.97513
1916.19839	0.97613
1914.14459	0.97662
1912.09079	0.97662
1910.03698	0.97749
1907.98318	0.97880
1905.92938	0.97860
1903.87557	0.97727
1901.82177	0.97712
1899.76797	0.97807
1897.71417	0.97787
1895.66036	0.97671
1893.60656	0.97680
1891.55276	0.97816
1889.49895	0.97883
1887.44515	0.97779
1885.39135	0.97691
1883.33754	0.97754
1881.28374	0.97814
1879.22994	0.97765
1877.17613	0.97716
1875.12233	0.97764
1873.06853	0.97814
1871.01472	0.97790
1868.96092	0.97778
1866.90712	0.97809
1864.85331	0.97810
1862.79951	0.97781
1860.74571	0.97737
1858.69190	0.97723
1856.63810	0.97735
1854.58430	0.97706
1852.53049	0.97691
1850.47669	0.97756
1848.42289	0.97881
1846.36908	0.97960
1844.31528	0.97886
1842.26148	0.97767
1840.20768	0.97724
1838.15387	0.97731
1836.10007	0.97773
1834.04627	0.97806
1831.99246	0.97813
1829.93866	0.97829
1827.88486	0.97821
1825.83105	0.97801
1823.77725	0.97808
1821.72345	0.97791
1819.66964	0.97744
1817.61584	0.97711
1815.56204	0.97691
1813.50823	0.97688
1811.45443	0.97716
1809.40063	0.97733
1807.34682	0.97719
1805.29302	0.97710
1803.23922	0.97697
1801.18541	0.97658
1799.13161	0.97632
1797.07781	0.97638
1795.02400	0.97661
1792.97020	0.97664
1790.91640	0.97604
1788.86260	0.97589
1786.80879	0.97630
1784.75499	0.97616
1782.70119	0.97550
1780.64738	0.97522
1778.59358	0.97523
1776.53978	0.97515
1774.48597	0.97523
1772.43217	0.97562
1770.37837	0.97576
1768.32456	0.97520
1766.27076	0.97465
1764.21696	0.97456
1762.16315	0.97455
1760.10935	0.97435
1758.05555	0.97399
1756.00174	0.97349
1753.94794	0.97320
1751.89414	0.97315
1749.84033	0.97311
1747.78653	0.97284
1745.73273	0.97228
1743.67892	0.97131
1741.62512	0.97014
1739.57132	0.96950
1737.51751	0.96946
1735.46371	0.96976
1733.40991	0.96979
1731.35611	0.96881
1729.30230	0.96775
1727.24850	0.96739
1725.19470	0.96739
1723.14089	0.96712
1721.08709	0.96669
1719.03329	0.96648
1716.97948	0.96662
1714.92568	0.96624
1712.87188	0.96507
1710.81807	0.96409
1708.76427	0.96352
1706.71047	0.96292
1704.65666	0.96217
1702.60286	0.96139
1700.54906	0.96059
1698.49525	0.95964
1696.44145	0.95783
1694.38765	0.95543
1692.33384	0.95398
1690.28004	0.95291
1688.22624	0.95130
1686.17243	0.94933
1684.11863	0.94667
1682.06483	0.94456
1680.01103	0.94393
1677.95722	0.94362
1675.90342	0.94282
1673.84962	0.94162
1671.79581	0.94074
1669.74201	0.93939
1667.68821	0.93756
1665.63440	0.93648
1663.58060	0.93579
1661.52680	0.93521
1659.47299	0.93470
1657.41919	0.93420
1655.36539	0.93383
1653.31158	0.93290
1651.25778	0.93168
1649.20398	0.93146
1647.15017	0.93141
1645.09637	0.93106
1643.04257	0.93073
1640.98876	0.93077
1638.93496	0.93145
1636.88116	0.93224
1634.82735	0.93189
1632.77355	0.93122
1630.71975	0.93093
1628.66594	0.93049
1626.61214	0.92998
1624.55834	0.92967
1622.50454	0.92960
1620.45073	0.93010
1618.39693	0.93144
1616.34313	0.93378
1614.28932	0.93600
1612.23552	0.93762
1610.18172	0.93923
1608.12791	0.94090
1606.07411	0.94234
1604.02031	0.94322
1601.96650	0.94369
1599.91270	0.94423
1597.85890	0.94491
1595.80509	0.94570
1593.75129	0.94646
1591.69749	0.94708
1589.64368	0.94775
1587.58988	0.94845
1585.53608	0.94893
1583.48227	0.94929
1581.42847	0.94963
1579.37467	0.94988
1577.32086	0.94994
1575.26706	0.94994
1573.21326	0.95043
1571.15945	0.95094
1569.10565	0.95104
1567.05185	0.95106
1564.99805	0.95127
1562.94424	0.95168
1560.89044	0.95235
1558.83664	0.95308
1556.78283	0.95262
1554.72903	0.95191
1552.67523	0.95180
1550.62142	0.95204
1548.56762	0.95210
1546.51382	0.95226
1544.46001	0.95265
1542.40621	0.95294
1540.35241	0.95328
1538.29860	0.95399
1536.24480	0.95473
1534.19100	0.95546
1532.13719	0.95593
1530.08339	0.95605
1528.02959	0.95614
1525.97578	0.95640
1523.92198	0.95703
1521.86818	0.95766
1519.81437	0.95821
1517.76057	0.95897
1515.70677	0.95951
1513.65297	0.95945
1511.59916	0.95952
1509.54536	0.96041
1507.49156	0.96171
1505.43775	0.96191
1503.38395	0.96158
1501.33015	0.96167
1499.27634	0.96192
1497.22254	0.96170
1495.16874	0.96095
1493.11493	0.96063
1491.06113	0.96088
1489.00733	0.96088
1486.95352	0.95942
1484.89972	0.95713
1482.84592	0.95416
1480.79211	0.94882
1478.73831	0.93648
1476.68451	0.90439
1474.63070	0.84341
1472.57690	0.78651
1470.52310	0.78483
1468.46929	0.80727
1466.41549	0.81764
1464.36169	0.80622
1462.30788	0.80020
1460.25408	0.82201
1458.20028	0.86383
1456.14648	0.90029
1454.09267	0.91419
1452.03887	0.92096
1449.98507	0.92608
1447.93126	0.92993
1445.87746	0.93263
1443.82366	0.93422
1441.76985	0.93523
1439.71605	0.93625
1437.66225	0.93771
1435.60844	0.93935
1433.55464	0.94072
1431.50084	0.94247
1429.44703	0.94459
1427.39323	0.94623
1425.33943	0.94710
1423.28562	0.94754
1421.23182	0.94799
1419.17802	0.94886
1417.12421	0.95002
1415.07041	0.95077
1413.01661	0.95120
1410.96280	0.95172
1408.90900	0.95227
1406.85520	0.95264
1404.80139	0.95305
1402.74759	0.95347
1400.69379	0.95382
1398.63999	0.95402
1396.58618	0.95389
1394.53238	0.95367
1392.47858	0.95386
1390.42477	0.95431
1388.37097	0.95443
1386.31717	0.95410
1384.26336	0.95385
1382.20956	0.95368
1380.15576	0.95315
1378.10195	0.95234
1376.04815	0.95174
1373.99435	0.95129
1371.94054	0.95041
1369.88674	0.94945
1367.83294	0.94917
1365.77913	0.94974
1363.72533	0.95070
1361.67153	0.95162
1359.61772	0.95222
1357.56392	0.95240
1355.51012	0.95237
1353.45631	0.95242
1351.40251	0.95264
1349.34871	0.95285
1347.29491	0.95305
1345.24110	0.95345
1343.18730	0.95415
1341.13350	0.95482
1339.07969	0.95513
1337.02589	0.95531
1334.97209	0.95559
1332.91828	0.95585
1330.86448	0.95594
1328.81068	0.95577
1326.75687	0.95552
1324.70307	0.95533
1322.64927	0.95508
1320.59546	0.95474
1318.54166	0.95450
1316.48786	0.95435
1314.43405	0.95404
1312.38025	0.95347
1310.32645	0.95293
1308.27264	0.95273
1306.21884	0.95276
1304.16504	0.95280
1302.11123	0.95291
1300.05743	0.95305
1298.00363	0.95316
1295.94982	0.95322
1293.89602	0.95308
1291.84222	0.95285
1289.78842	0.95281
1287.73461	0.95288
1285.68081	0.95275
1283.62701	0.95244
1281.57320	0.95217
1279.51940	0.95183
1277.46560	0.95138
1275.41179	0.95098
1273.35799	0.95061
1271.30419	0.95036
1269.25038	0.95010
1267.19658	0.94972
1265.14278	0.94942
1263.08897	0.94908
1261.03517	0.94856
1258.98137	0.94817
1256.92756	0.94791
1254.87376	0.94740
1252.81996	0.94672
1250.76615	0.94607
1248.71235	0.94528
1246.65855	0.94441
1244.60474	0.94380
1242.55094	0.94330
1240.49714	0.94268
1238.44334	0.94201
1236.38953	0.94142
1234.33573	0.94092
1232.28193	0.94047
1230.22812	0.93997
1228.17432	0.93932
1226.12052	0.93859
1224.06671	0.93790
1222.01291	0.93716
1219.95911	0.93630
1217.90530	0.93543
1215.85150	0.93445
1213.79770	0.93333
1211.74389	0.93217
1209.69009	0.93101
1207.63629	0.92974
1205.58248	0.92800
1203.52868	0.92593
1201.47488	0.92398
1199.42107	0.92221
1197.36727	0.92032
1195.31347	0.91818
1193.25966	0.91595
1191.20586	0.91364
1189.15206	0.91107
1187.09825	0.90810
1185.04445	0.90496
1182.99065	0.90185
1180.93685	0.89837
1178.88304	0.89413
1176.82924	0.88943
1174.77544	0.88512
1172.72163	0.88136
1170.66783	0.87748
1168.61403	0.87366
1166.56022	0.87032
1164.50642	0.86727
1162.45262	0.86452
1160.39881	0.86208
1158.34501	0.85947
1156.29121	0.85655
1154.23740	0.85344
1152.18360	0.85029
1150.12980	0.84732
1148.07599	0.84452
1146.02219	0.84170
1143.96839	0.83897
1141.91458	0.83642
1139.86078	0.83390
1137.80698	0.83128
1135.75317	0.82837
1133.69937	0.82495
1131.64557	0.82135
1129.59176	0.81774
1127.53796	0.81363
1125.48416	0.80861
1123.43036	0.80255
1121.37655	0.79554
1119.32275	0.78855
1117.26895	0.78237
1115.21514	0.77670
1113.16134	0.77138
1111.10754	0.76664
1109.05373	0.76264
1106.99993	0.75924
1104.94613	0.75616
1102.89232	0.75342
1100.83852	0.75117
1098.78472	0.74961
1096.73091	0.74886
1094.67711	0.74850
1092.62331	0.74798
1090.56950	0.74705
1088.51570	0.74589
1086.46190	0.74492
1084.40809	0.74412
1082.35429	0.74324
1080.30049	0.74188
1078.24668	0.73989
1076.19288	0.73777
1074.13908	0.73562
1072.08528	0.73316
1070.03147	0.73025
1067.97767	0.72671
1065.92387	0.72241
1063.87006	0.71752
1061.81626	0.71228
1059.76246	0.70679
1057.70865	0.70091
1055.65485	0.69435
1053.60105	0.68757
1051.54724	0.68114
1049.49344	0.67442
1047.43964	0.66688
1045.38583	0.65915
1043.33203	0.65205
1041.27823	0.64561
1039.22442	0.63945
1037.17062	0.63402
1035.11682	0.62974
1033.06301	0.62658
1031.00921	0.62513
1028.95541	0.62570
1026.90160	0.62787
1024.84780	0.63080
1022.79400	0.63361
1020.74019	0.63581
1018.68639	0.63737
1016.63259	0.63829
1014.57879	0.63832
1012.52498	0.63789
1010.47118	0.63800
1008.41738	0.63898
1006.36357	0.64106
1004.30977	0.64471
1002.25597	0.65033
1000.20216	0.65804
998.14836	0.66742
996.09456	0.67758
994.04075	0.68799
991.98695	0.69868
989.93315	0.70983
987.87934	0.72140
985.82554	0.73272
983.77174	0.74351
981.71793	0.75430
979.66413	0.76515
977.61033	0.77563
975.55652	0.78533
973.50272	0.79423
971.44892	0.80267
969.39511	0.81065
967.34131	0.81798
965.28751	0.82440
963.23371	0.82975
961.17990	0.83431
959.12610	0.83876
957.07230	0.84329
955.01849	0.84729
952.96469	0.85024
950.91089	0.85264
948.85708	0.85500
946.80328	0.85693
944.74948	0.85795
942.69567	0.85857
940.64187	0.85967
938.58807	0.86132
936.53426	0.86311
934.48046	0.86475
932.42666	0.86602
930.37285	0.86657
928.31905	0.86628
926.26525	0.86556
924.21144	0.86470
922.15764	0.86359
920.10384	0.86186
918.05003	0.85936
915.99623	0.85668
913.94243	0.85510
911.88862	0.85597
909.83482	0.85927
907.78102	0.86397
905.72722	0.86955
903.67341	0.87577
901.61961	0.88189
899.56581	0.88725
897.51200	0.89175
895.45820	0.89523
893.40440	0.89786
891.35059	0.90015
889.29679	0.90237
887.24299	0.90464
885.18918	0.90612
883.13538	0.90661
881.08158	0.90757
879.02777	0.90921
876.97397	0.91044
874.92017	0.91127
872.86636	0.91251
870.81256	0.91438
868.75876	0.91651
866.70495	0.91843
864.65115	0.92004
862.59735	0.92143
860.54354	0.92250
858.48974	0.92316
856.43594	0.92368
854.38213	0.92470
852.32833	0.92631
850.27453	0.92744
848.22073	0.92740
846.16692	0.92716
844.11312	0.92742
842.05932	0.92741
840.00551	0.92690
837.95171	0.92653
835.89791	0.92600
833.84410	0.92520
831.79030	0.92459
829.73650	0.92380
827.68269	0.92259
825.62889	0.92175
823.57509	0.92119
821.52128	0.92049
819.46748	0.92030
817.41368	0.92060
815.35987	0.92057
813.30607	0.91977
811.25227	0.91835
809.19846	0.91669
807.14466	0.91479
805.09086	0.91248
803.03705	0.90994
800.98325	0.90827
798.92945	0.90783
796.87565	0.90758
794.82184	0.90681
792.76804	0.90662
790.71424	0.90784
788.66043	0.90865
786.60663	0.90830
784.55283	0.90804
782.49902	0.90767
780.44522	0.90658
778.39142	0.90590
776.33761	0.90629
774.28381	0.90668
772.23001	0.90630
770.17620	0.90591
768.12240	0.90572
766.06860	0.90469
764.01479	0.90282
761.96099	0.90116
759.90719	0.90014
757.85338	0.89964
755.79958	0.89921
753.74578	0.89834
751.69197	0.89763
749.63817	0.89739
747.58437	0.89697
745.53056	0.89668
743.47676	0.89662
741.42296	0.89619
739.36916	0.89494
737.31535	0.89055
735.26155	0.87457
733.20775	0.83760
731.15394	0.79670
729.10014	0.78737
727.04634	0.80573
724.99253	0.81390
722.93873	0.78999
720.88493	0.74000
718.83112	0.69826
716.77732	0.69909
714.72352	0.73912
712.66971	0.78951
710.61591	0.82571
708.56211	0.84340
706.50830	0.85039
704.45450	0.85300
702.40070	0.85366
700.34689	0.85364
698.29309	0.85361
696.23929	0.85401
694.18548	0.85490
692.13168	0.85619
690.07788	0.85767
688.02408	0.85857
685.97027	0.85946
683.91647	0.86086
681.86267	0.86200
679.80886	0.86223
677.75506	0.86158
675.70126	0.86062
673.64745	0.85994
671.59365	0.86011
669.53985	0.86155
667.48604	0.86391
665.43224	0.86552
663.37844	0.86728
661.32463	0.86959
659.27083	0.87174
657.21703	0.87342
655.16322	0.87346
653.10942	0.87204
651.05562	0.87087
649.00181	0.87038
646.94801	0.87023
644.89421	0.87016
642.84040	0.87015
640.78660	0.87094
638.73280	0.87259
636.67899	0.87331
634.62519	0.87250
632.57139	0.87119
630.51759	0.87038
628.46378	0.87041
626.40998	0.87004
624.35618	0.86901
622.30237	0.86799
620.24857	0.86613
618.19477	0.86322
616.14096	0.86067
614.08716	0.85923
612.03336	0.85740
609.97955	0.85453
607.92575	0.85134
605.87195	0.84736
603.81814	0.84307
601.76434	0.84007
599.71054	0.83921
597.65673	0.84001
595.60293	0.84052
593.54913	0.83909
591.49532	0.83704
589.44152	0.83724
587.38772	0.83891
585.33391	0.83851
583.28011	0.83501
581.22631	0.83124
579.17250	0.82915
577.11870	0.82785
575.06490	0.82671
573.01110	0.82501
570.95729	0.82268
568.90349	0.81989
566.84969	0.81549
564.79588	0.81138
562.74208	0.80915
560.68828	0.80678
558.63447	0.80445
556.58067	0.80295
554.52687	0.80134
552.47306	0.79860
550.41926	0.79378
548.36546	0.78739
546.31165	0.78215
544.25785	0.77919
542.20405	0.77618
540.15024	0.77243
538.09644	0.76857
536.04264	0.76450
533.98883	0.76155
531.93503	0.76061
529.88123	0.76095
527.82742	0.76285
525.77362	0.76686
523.71982	0.77039
521.66602	0.77189
519.61221	0.77432
517.55841	0.77903
515.50461	0.78327
513.45080	0.78551
511.39700	0.78801
509.34320	0.79253
507.28939	0.79688
505.23559	0.79901
503.18179	0.80021
501.12798	0.80222
499.07418	0.80359
497.02038	0.80304
494.96657	0.80252
492.91277	0.80150
490.85897	0.79808
488.80516	0.79399
486.75136	0.79048
484.69756	0.78524
482.64375	0.77629
480.58995	0.76442
478.53615	0.75168
476.48234	0.74028
474.42854	0.72889
472.37474	0.71662
470.32093	0.70837
468.26713	0.70587
466.21333	0.70773
464.15953	0.71198
462.10572	0.71646
460.05192	0.72262
457.99812	0.73235
455.94431	0.74241
453.89051	0.74982
451.83671	0.75572
449.78290	0.76046
447.72910	0.76319
445.67530	0.76415
443.62149	0.76725
441.56769	0.77183
439.51389	0.77181
437.46008	0.76719
435.40628	0.76086
433.35248	0.75710
431.29867	0.76028
429.24487	0.76611
427.19107	0.76888
425.13726	0.77193
423.08346	0.77781
421.02966	0.78529
418.97585	0.78882
416.92205	0.78298
414.86825	0.78370
412.81445	0.79737
410.76064	0.81475
408.70684	0.82571
406.65304	0.83129
404.59923	0.83402
402.54543	0.83637
400.49163	0.84405
398.43782	0.85506
