3996.70104	0.96899
3994.64724	0.96869
3992.59344	0.96836
3990.53964	0.96823
3988.48583	0.96872
3986.43203	0.96928
3984.37823	0.96924
3982.32442	0.96905
3980.27062	0.96912
3978.21682	0.96915
3976.16301	0.96919
3974.10921	0.96965
3972.05541	0.96996
3970.00160	0.96962
3967.94780	0.96910
3965.89400	0.96882
3963.84019	0.96881
3961.78639	0.96915
3959.73259	0.96963
3957.67878	0.96971
3955.62498	0.96992
3953.57118	0.97055
3951.51737	0.97084
3949.46357	0.97091
3947.40977	0.97116
3945.35596	0.97120
3943.30216	0.97086
3941.24836	0.97068
3939.19455	0.97087
3937.14075	0.97094
3935.08695	0.97072
3933.03315	0.97057
3930.97934	0.97047
3928.92554	0.97043
3926.87174	0.97034
3924.81793	0.97004
3922.76413	0.97041
3920.71033	0.97115
3918.65652	0.97098
3916.60272	0.97053
3914.54892	0.97080
3912.49511	0.97117
3910.44131	0.97111
3908.38751	0.97063
3906.33370	0.97001
3904.27990	0.96995
3902.22610	0.97039
3900.17229	0.97049
3898.11849	0.97009
3896.06469	0.96931
3894.01088	0.96855
3891.95708	0.96835
3889.90328	0.96870
3887.84947	0.96920
3885.79567	0.97003
3883.74187	0.97072
3881.68807	0.97086
3879.63426	0.97118
3877.58046	0.97138
3875.52666	0.97128
3873.47285	0.97136
3871.41905	0.97127
3869.36525	0.97126
3867.31144	0.97167
3865.25764	0.97150
3863.20384	0.97081
3861.15003	0.97039
3859.09623	0.97016
3857.04243	0.97010
3854.98862	0.96993
3852.93482	0.96979
3850.88102	0.97059
3848.82721	0.97091
3846.77341	0.97038
3844.71961	0.96976
3842.66580	0.96969
3840.61200	0.96999
3838.55820	0.97070
3836.50439	0.97171
3834.45059	0.97200
3832.39679	0.97159
3830.34298	0.97096
3828.28918	0.97077
3826.23538	0.97111
3824.18158	0.97099
3822.12777	0.97046
3820.07397	0.97066
3818.02017	0.97104
3815.96636	0.97144
3813.91256	0.97225
3811.85876	0.97260
3809.80495	0.97235
3807.75115	0.97183
3805.69735	0.97166
3803.64354	0.97209
3801.58974	0.97222
3799.53594	0.97157
3797.48213	0.97150
3795.42833	0.97230
3793.37453	0.97283
3791.32072	0.97275
3789.26692	0.97270
3787.21312	0.97281
3785.15931	0.97250
3783.10551	0.97180
3781.05171	0.97188
3778.99790	0.97301
3776.94410	0.97322
3774.89030	0.97225
3772.83650	0.97176
3770.78269	0.97195
3768.72889	0.97167
3766.67509	0.97127
3764.62128	0.97154
3762.56748	0.97192
3760.51368	0.97226
3758.45987	0.97246
3756.40607	0.97215
3754.35227	0.97156
3752.29846	0.97142
3750.24466	0.97250
3748.19086	0.97334
3746.13705	0.97283
3744.08325	0.97247
3742.02945	0.97331
3739.97564	0.97356
3737.92184	0.97345
3735.86804	0.97431
3733.81423	0.97529
3731.76043	0.97466
3729.70663	0.97359
3727.65282	0.97297
3725.59902	0.97253
3723.54522	0.97168
3721.49141	0.97018
3719.43761	0.96835
3717.38381	0.96676
3715.33001	0.96505
3713.27620	0.96246
3711.22240	0.95902
3709.16860	0.95530
3707.11479	0.95115
3705.06099	0.94673
3703.00719	0.94182
3700.95338	0.93597
3698.89958	0.93104
3696.84578	0.92865
3694.79197	0.92832
3692.73817	0.92935
3690.68437	0.93138
3688.63056	0.93407
3686.57676	0.93659
3684.52296	0.93902
3682.46915	0.94144
3680.41535	0.94273
3678.36155	0.94282
3676.30774	0.94245
3674.25394	0.94121
3672.20014	0.94008
3670.14633	0.93930
3668.09253	0.93844
3666.03873	0.93791
3663.98492	0.93735
3661.93112	0.93630
3659.87732	0.93462
3657.82352	0.93283
3655.76971	0.93161
3653.71591	0.93113
3651.66211	0.93049
3649.60830	0.92857
3647.55450	0.92648
3645.50070	0.92596
3643.44689	0.92612
3641.39309	0.92571
3639.33929	0.92483
3637.28548	0.92423
3635.23168	0.92315
3633.17788	0.92060
3631.12407	0.91679
3629.07027	0.91237
3627.01647	0.90983
3624.96266	0.90881
3622.90886	0.90756
3620.85506	0.90648
3618.80125	0.90610
3616.74745	0.90686
3614.69365	0.90830
3612.63984	0.90967
3610.58604	0.91092
3608.53224	0.91199
3606.47844	0.91273
3604.42463	0.91314
3602.37083	0.91299
3600.31703	0.91263
3598.26322	0.91294
3596.20942	0.91326
3594.15562	0.91264
3592.10181	0.91190
3590.04801	0.91200
3587.99421	0.91247
3585.94040	0.91210
3583.88660	0.91171
3581.83280	0.91170
3579.77899	0.91119
3577.72519	0.91044
3575.67139	0.91009
3573.61758	0.90962
3571.56378	0.90894
3569.50998	0.90828
3567.45617	0.90700
3565.40237	0.90578
3563.34857	0.90561
3561.29476	0.90572
3559.24096	0.90582
3557.18716	0.90584
3555.13335	0.90534
3553.07955	0.90395
3551.02575	0.90259
3548.97195	0.90212
3546.91814	0.90182
3544.86434	0.90158
3542.81054	0.90149
3540.75673	0.90083
3538.70293	0.89972
3536.64913	0.89896
3534.59532	0.89872
3532.54152	0.89848
3530.48772	0.89790
3528.43391	0.89735
3526.38011	0.89725
3524.32631	0.89720
3522.27250	0.89673
3520.21870	0.89601
3518.16490	0.89562
3516.11109	0.89540
3514.05729	0.89436
3512.00349	0.89286
3509.94968	0.89165
3507.89588	0.89071
3505.84208	0.89028
3503.78827	0.89039
3501.73447	0.89026
3499.68067	0.88938
3497.62687	0.88833
3495.57306	0.88754
3493.51926	0.88689
3491.46546	0.88620
3489.41165	0.88549
3487.35785	0.88529
3485.30405	0.88544
3483.25024	0.88533
3481.19644	0.88487
3479.14264	0.88396
3477.08883	0.88274
3475.03503	0.88144
3472.98123	0.88001
3470.92742	0.87869
3468.87362	0.87806
3466.81982	0.87783
3464.76601	0.87708
3462.71221	0.87630
3460.65841	0.87608
3458.60460	0.87590
3456.55080	0.87526
3454.49700	0.87427
3452.44319	0.87360
3450.38939	0.87318
3448.33559	0.87241
3446.28178	0.87141
3444.22798	0.87037
3442.17418	0.86938
3440.12038	0.86889
3438.06657	0.86843
3436.01277	0.86731
3433.95897	0.86621
3431.90516	0.86576
3429.85136	0.86534
3427.79756	0.86455
3425.74375	0.86377
3423.68995	0.86292
3421.63615	0.86197
3419.58234	0.86139
3417.52854	0.86113
3415.47474	0.86085
3413.42093	0.86018
3411.36713	0.85879
3409.31333	0.85726
3407.25952	0.85644
3405.20572	0.85629
3403.15192	0.85620
3401.09811	0.85588
3399.04431	0.85540
3396.99051	0.85472
3394.93670	0.85418
3392.88290	0.85399
3390.82910	0.85370
3388.77529	0.85343
3386.72149	0.85347
3384.66769	0.85337
3382.61389	0.85280
3380.56008	0.85213
3378.50628	0.85186
3376.45248	0.85193
3374.39867	0.85196
3372.34487	0.85168
3370.29107	0.85117
3368.23726	0.85091
3366.18346	0.85121
3364.12966	0.85165
3362.07585	0.85176
3360.02205	0.85177
3357.96825	0.85196
3355.91444	0.85218
3353.86064	0.85211
3351.80684	0.85164
3349.75303	0.85141
3347.69923	0.85173
3345.64543	0.85173
3343.59162	0.85140
3341.53782	0.85140
3339.48402	0.85152
3337.43021	0.85190
3335.37641	0.85264
3333.32261	0.85306
3331.26881	0.85316
3329.21500	0.85337
3327.16120	0.85348
3325.10740	0.85350
3323.05359	0.85361
3320.99979	0.85412
3318.94599	0.85532
3316.89218	0.85650
3314.83838	0.85685
3312.78458	0.85653
3310.73077	0.85635
3308.67697	0.85663
3306.62317	0.85695
3304.56936	0.85722
3302.51556	0.85746
3300.46176	0.85794
3298.40795	0.85880
3296.35415	0.85923
3294.30035	0.85879
3292.24654	0.85824
3290.19274	0.85826
3288.13894	0.85853
3286.08513	0.85883
3284.03133	0.85951
3281.97753	0.86046
3279.92372	0.86122
3277.86992	0.86170
3275.81612	0.86219
3273.76232	0.86287
3271.70851	0.86345
3269.65471	0.86355
3267.60091	0.86337
3265.54710	0.86344
3263.49330	0.86387
3261.43950	0.86451
3259.38569	0.86506
3257.33189	0.86515
3255.27809	0.86509
3253.22428	0.86548
3251.17048	0.86590
3249.11668	0.86614
3247.06287	0.86675
3245.00907	0.86740
3242.95527	0.86730
3240.90146	0.86688
3238.84766	0.86707
3236.79386	0.86777
3234.74005	0.86857
3232.68625	0.86952
3230.63245	0.87032
3228.57864	0.87050
3226.52484	0.87053
3224.47104	0.87080
3222.41724	0.87112
3220.36343	0.87186
3218.30963	0.87286
3216.25583	0.87357
3214.20202	0.87412
3212.14822	0.87452
3210.09442	0.87498
3208.04061	0.87589
3205.98681	0.87673
3203.93301	0.87730
3201.87920	0.87852
3199.82540	0.88003
3197.77160	0.88064
3195.71779	0.88085
3193.66399	0.88113
3191.61019	0.88137
3189.55638	0.88195
3187.50258	0.88286
3185.44878	0.88382
3183.39497	0.88497
3181.34117	0.88588
3179.28737	0.88634
3177.23356	0.88717
3175.17976	0.88826
3173.12596	0.88884
3171.07215	0.88896
3169.01835	0.88936
3166.96455	0.89047
3164.91075	0.89169
3162.85694	0.89260
3160.80314	0.89332
3158.74934	0.89381
3156.69553	0.89427
3154.64173	0.89494
3152.58793	0.89554
3150.53412	0.89602
3148.48032	0.89691
3146.42652	0.89826
3144.37271	0.89952
3142.31891	0.90031
3140.26511	0.90080
3138.21130	0.90135
3136.15750	0.90212
3134.10370	0.90302
3132.04989	0.90369
3129.99609	0.90398
3127.94229	0.90445
3125.88848	0.90545
3123.83468	0.90656
3121.78088	0.90748
3119.72707	0.90832
3117.67327	0.90914
3115.61947	0.90981
3113.56566	0.91056
3111.51186	0.91121
3109.45806	0.91150
3107.40426	0.91170
3105.35045	0.91195
3103.29665	0.91243
3101.24285	0.91340
3099.18904	0.91433
3097.13524	0.91469
3095.08144	0.91488
3093.02763	0.91528
3090.97383	0.91605
3088.92003	0.91710
3086.86622	0.91792
3084.81242	0.91835
3082.75862	0.91879
3080.70481	0.91947
3078.65101	0.91979
3076.59721	0.91969
3074.54340	0.92005
3072.48960	0.92106
3070.43580	0.92208
3068.38199	0.92268
3066.32819	0.92298
3064.27439	0.92333
3062.22058	0.92371
3060.16678	0.92413
3058.11298	0.92481
3056.05918	0.92551
3054.00537	0.92592
3051.95157	0.92629
3049.89777	0.92706
3047.84396	0.92795
3045.79016	0.92845
3043.73636	0.92882
3041.68255	0.92917
3039.62875	0.92962
3037.57495	0.93024
3035.52114	0.93058
3033.46734	0.93066
3031.41354	0.93084
3029.35973	0.93113
3027.30593	0.93141
3025.25213	0.93190
3023.19832	0.93258
3021.14452	0.93325
3019.09072	0.93391
3017.03691	0.93438
3014.98311	0.93459
3012.92931	0.93489
3010.87550	0.93542
3008.82170	0.93606
3006.76790	0.93682
3004.71409	0.93744
3002.66029	0.93766
3000.60649	0.93767
2998.55269	0.93750
2996.49888	0.93745
2994.44508	0.93775
2992.39128	0.93823
2990.33747	0.93869
2988.28367	0.93894
2986.22987	0.93889
2984.17606	0.93884
2982.12226	0.93897
2980.06846	0.93901
2978.01465	0.93910
2975.96085	0.93929
2973.90705	0.93908
2971.85324	0.93861
2969.79944	0.93849
2967.74564	0.93868
2965.69183	0.93845
2963.63803	0.93770
2961.58423	0.93716
2959.53042	0.93717
2957.47662	0.93746
2955.42282	0.93746
2953.36901	0.93706
2951.31521	0.93655
2949.26141	0.93609
2947.20761	0.93539
2945.15380	0.93408
2943.10000	0.93196
2941.04620	0.92898
2938.99239	0.92544
2936.93859	0.92166
2934.88479	0.91723
2932.83098	0.91163
2930.77718	0.90478
2928.72338	0.89658
2926.66957	0.88691
2924.61577	0.87557
2922.56197	0.86202
2920.50816	0.84666
2918.45436	0.83165
2916.40056	0.82046
2914.34675	0.81687
2912.29295	0.82221
2910.23915	0.83320
2908.18534	0.84526
2906.13154	0.85618
2904.07774	0.86513
2902.02393	0.87182
2899.97013	0.87689
2897.91633	0.88121
2895.86252	0.88513
2893.80872	0.88884
2891.75492	0.89265
2889.70112	0.89674
2887.64731	0.90109
2885.59351	0.90531
2883.53971	0.90906
2881.48590	0.91282
2879.43210	0.91703
2877.37830	0.92118
2875.32449	0.92482
2873.27069	0.92806
2871.21689	0.93043
2869.16308	0.93148
2867.10928	0.93155
2865.05548	0.93076
2863.00167	0.92863
2860.94787	0.92478
2858.89407	0.91865
2856.84026	0.90890
2854.78646	0.89418
2852.73266	0.87424
2850.67885	0.85236
2848.62505	0.83656
2846.57125	0.83406
2844.51744	0.84436
2842.46364	0.86113
2840.40984	0.87829
2838.35603	0.89230
2836.30223	0.90268
2834.24843	0.91082
2832.19463	0.91744
2830.14082	0.92239
2828.08702	0.92615
2826.03322	0.92942
2823.97941	0.93235
2821.92561	0.93483
2819.87181	0.93683
2817.81800	0.93834
2815.76420	0.93957
2813.71040	0.94083
2811.65659	0.94208
2809.60279	0.94304
2807.54899	0.94378
2805.49518	0.94448
2803.44138	0.94514
2801.38758	0.94582
2799.33377	0.94659
2797.27997	0.94742
2795.22617	0.94824
2793.17236	0.94899
2791.11856	0.94937
2789.06476	0.94944
2787.01095	0.94980
2784.95715	0.95041
2782.90335	0.95096
2780.84955	0.95150
2778.79574	0.95196
2776.74194	0.95219
2774.68814	0.95230
2772.63433	0.95249
2770.58053	0.95287
2768.52673	0.95321
2766.47292	0.95334
2764.41912	0.95372
2762.36532	0.95440
2760.31151	0.95490
2758.25771	0.95511
2756.20391	0.95516
2754.15010	0.95509
2752.09630	0.95495
2750.04250	0.95489
2747.98869	0.95504
2745.93489	0.95540
2743.88109	0.95593
2741.82728	0.95628
2739.77348	0.95626
2737.71968	0.95619
2735.66587	0.95611
2733.61207	0.95617
2731.55827	0.95652
2729.50446	0.95675
2727.45066	0.95679
2725.39686	0.95682
2723.34306	0.95690
2721.28925	0.95699
2719.23545	0.95705
2717.18165	0.95703
2715.12784	0.95716
2713.07404	0.95766
2711.02024	0.95786
2708.96643	0.95760
2706.91263	0.95768
2704.85883	0.95820
2702.80502	0.95855
2700.75122	0.95860
2698.69742	0.95858
2696.64361	0.95859
2694.58981	0.95853
2692.53601	0.95839
2690.48220	0.95833
2688.42840	0.95840
2686.37460	0.95857
2684.32079	0.95888
2682.26699	0.95931
2680.21319	0.95962
2678.15938	0.95954
2676.10558	0.95925
2674.05178	0.95905
2671.99797	0.95900
2669.94417	0.95898
2667.89037	0.95907
2665.83657	0.95940
2663.78276	0.95965
2661.72896	0.95958
2659.67516	0.95943
2657.62135	0.95934
2655.56755	0.95937
2653.51375	0.95979
2651.45994	0.96011
2649.40614	0.96008
2647.35234	0.96016
2645.29853	0.96030
2643.24473	0.96028
2641.19093	0.96022
2639.13712	0.96007
2637.08332	0.95988
2635.02952	0.95989
2632.97571	0.96015
2630.92191	0.96035
2628.86811	0.96023
2626.81430	0.96017
2624.76050	0.96061
2622.70670	0.96127
2620.65289	0.96186
2618.59909	0.96212
2616.54529	0.96189
2614.49149	0.96166
2612.43768	0.96154
2610.38388	0.96153
2608.33008	0.96195
2606.27627	0.96260
2604.22247	0.96302
2602.16867	0.96320
2600.11486	0.96338
2598.06106	0.96356
2596.00726	0.96338
2593.95345	0.96337
2591.89965	0.96413
2589.84585	0.96479
2587.79204	0.96459
2585.73824	0.96379
2583.68444	0.96317
2581.63063	0.96330
2579.57683	0.96370
2577.52303	0.96364
2575.46922	0.96325
2573.41542	0.96303
2571.36162	0.96318
2569.30781	0.96349
2567.25401	0.96379
2565.20021	0.96377
2563.14640	0.96346
2561.09260	0.96335
2559.03880	0.96340
2556.98500	0.96357
2554.93119	0.96400
2552.87739	0.96428
2550.82359	0.96403
2548.76978	0.96340
2546.71598	0.96284
2544.66218	0.96270
2542.60837	0.96307
2540.55457	0.96368
2538.50077	0.96410
2536.44696	0.96426
2534.39316	0.96471
2532.33936	0.96538
2530.28555	0.96549
2528.23175	0.96509
2526.17795	0.96474
2524.12414	0.96458
2522.07034	0.96465
2520.01654	0.96447
2517.96273	0.96368
2515.90893	0.96342
2513.85513	0.96422
2511.80132	0.96496
2509.74752	0.96524
2507.69372	0.96536
2505.63992	0.96537
2503.58611	0.96526
2501.53231	0.96526
2499.47851	0.96560
2497.42470	0.96581
2495.37090	0.96554
2493.31710	0.96546
2491.26329	0.96541
2489.20949	0.96481
2487.15569	0.96446
2485.10188	0.96472
2483.04808	0.96512
2480.99428	0.96542
2478.94047	0.96539
2476.88667	0.96529
2474.83287	0.96533
2472.77906	0.96536
2470.72526	0.96554
2468.67146	0.96578
2466.61765	0.96567
2464.56385	0.96572
2462.51005	0.96617
2460.45624	0.96607
2458.40244	0.96555
2456.34864	0.96584
2454.29483	0.96663
2452.24103	0.96648
2450.18723	0.96543
2448.13343	0.96496
2446.07962	0.96530
2444.02582	0.96558
2441.97202	0.96574
2439.91821	0.96590
2437.86441	0.96588
2435.81061	0.96578
2433.75680	0.96585
2431.70300	0.96615
2429.64920	0.96628
2427.59539	0.96584
2425.54159	0.96514
2423.48779	0.96449
2421.43398	0.96427
2419.38018	0.96478
2417.32638	0.96532
2415.27257	0.96557
2413.21877	0.96562
2411.16497	0.96518
2409.11116	0.96492
2407.05736	0.96498
2405.00356	0.96506
2402.94975	0.96567
2400.89595	0.96647
2398.84215	0.96652
2396.78834	0.96589
2394.73454	0.96547
2392.68074	0.96570
2390.62694	0.96586
2388.57313	0.96554
2386.51933	0.96548
2384.46553	0.96584
2382.41172	0.96587
2380.35792	0.96556
2378.30412	0.96541
2376.25031	0.96506
2374.19651	0.96444
2372.14271	0.96468
2370.08890	0.96571
2368.03510	0.96615
2365.98130	0.96626
2363.92749	0.96614
2361.87369	0.96517
2359.81989	0.96422
2357.76608	0.96306
2355.71228	0.96221
2353.65848	0.96285
2351.60467	0.96379
2349.55087	0.96432
2347.49707	0.96448
2345.44326	0.96422
2343.38946	0.96354
2341.33566	0.96293
2339.28186	0.96321
2337.22805	0.96382
2335.17425	0.96407
2333.12045	0.96435
2331.06664	0.96412
2329.01284	0.96335
2326.95904	0.96311
2324.90523	0.96309
2322.85143	0.96298
2320.79763	0.96292
2318.74382	0.96266
2316.69002	0.96263
2314.63622	0.96314
2312.58241	0.96348
2310.52861	0.96365
2308.47481	0.96380
2306.42100	0.96337
2304.36720	0.96319
2302.31340	0.96388
2300.25959	0.96444
2298.20579	0.96436
2296.15199	0.96410
2294.09818	0.96388
2292.04438	0.96365
2289.99058	0.96362
2287.93677	0.96394
2285.88297	0.96421
2283.82917	0.96422
2281.77537	0.96418
2279.72156	0.96393
2277.66776	0.96328
2275.61396	0.96288
2273.56015	0.96349
2271.50635	0.96469
2269.45255	0.96575
2267.39874	0.96625
2265.34494	0.96578
2263.29114	0.96499
2261.23733	0.96513
2259.18353	0.96548
2257.12973	0.96521
2255.07592	0.96504
2253.02212	0.96478
2250.96832	0.96448
2248.91451	0.96468
2246.86071	0.96468
2244.80691	0.96383
2242.75310	0.96303
2240.69930	0.96364
2238.64550	0.96475
2236.59169	0.96504
2234.53789	0.96516
2232.48409	0.96515
2230.43029	0.96418
2228.37648	0.96350
2226.32268	0.96410
2224.26888	0.96467
2222.21507	0.96531
2220.16127	0.96673
2218.10747	0.96671
2216.05366	0.96511
2213.99986	0.96451
2211.94606	0.96435
2209.89225	0.96404
2207.83845	0.96405
2205.78465	0.96349
2203.73084	0.96395
2201.67704	0.96672
2199.62324	0.96820
2197.56943	0.96687
2195.51563	0.96472
2193.46183	0.96355
2191.40802	0.96494
2189.35422	0.96658
2187.30042	0.96558
2185.24661	0.96461
2183.19281	0.96577
2181.13901	0.96785
2179.08520	0.96951
2177.03140	0.96980
2174.97760	0.96911
2172.92380	0.96789
2170.86999	0.96654
2168.81619	0.96693
2166.76239	0.96800
2164.70858	0.96663
2162.65478	0.96411
2160.60098	0.96527
2158.54717	0.97065
2156.49337	0.97381
2154.43957	0.97337
2152.38576	0.97082
2150.33196	0.96715
2148.27816	0.96590
2146.22435	0.96642
2144.17055	0.96677
2142.11675	0.96764
2140.06294	0.96828
2138.00914	0.96820
2135.95534	0.96823
2133.90153	0.96807
2131.84773	0.96728
2129.79393	0.96663
2127.74012	0.96727
2125.68632	0.96961
2123.63252	0.97106
2121.57871	0.97014
2119.52491	0.96926
2117.47111	0.96861
2115.41731	0.96687
2113.36350	0.96547
2111.30970	0.96597
2109.25590	0.96751
2107.20209	0.96830
2105.14829	0.96835
2103.09449	0.96874
2101.04068	0.96886
2098.98688	0.96787
2096.93308	0.96725
2094.87927	0.96836
2092.82547	0.96954
2090.77167	0.96935
2088.71786	0.96852
2086.66406	0.96690
2084.61026	0.96539
2082.55645	0.96670
2080.50265	0.96926
2078.44885	0.96963
2076.39504	0.96781
2074.34124	0.96595
2072.28744	0.96612
2070.23363	0.96746
2068.17983	0.96801
2066.12603	0.96776
2064.07223	0.96766
2062.01842	0.96715
2059.96462	0.96524
2057.91082	0.96480
2055.85701	0.96728
2053.80321	0.96946
2051.74941	0.96962
2049.69560	0.96903
2047.64180	0.96900
2045.58800	0.96988
2043.53419	0.97089
2041.48039	0.96984
2039.42659	0.96765
2037.37278	0.96762
2035.31898	0.96810
2033.26518	0.96701
2031.21137	0.96625
2029.15757	0.96655
2027.10377	0.96829
2025.04996	0.97061
2022.99616	0.97032
2020.94236	0.96960
2018.88855	0.97061
2016.83475	0.97073
2014.78095	0.97076
2012.72714	0.97213
2010.67334	0.97243
2008.61954	0.97130
2006.56574	0.97077
2004.51193	0.97183
2002.45813	0.97388
2000.40433	0.97388
1998.35052	0.97025
1996.29672	0.96687
1994.24292	0.96668
1992.18911	0.96700
1990.13531	0.96705
1988.08151	0.96848
1986.02770	0.96980
1983.97390	0.97038
1981.92010	0.96983
1979.86629	0.96819
1977.81249	0.96834
1975.75869	0.97041
1973.70488	0.97178
1971.65108	0.97159
1969.59728	0.97022
1967.54347	0.96908
1965.48967	0.96948
1963.43587	0.97032
1961.38206	0.97116
1959.32826	0.97226
1957.27446	0.97163
1955.22066	0.96888
1953.16685	0.96721
1951.11305	0.96886
1949.05925	0.97179
1947.00544	0.97287
1944.95164	0.97192
1942.89784	0.97064
1940.84403	0.97041
1938.79023	0.97054
1936.73643	0.97003
1934.68262	0.96943
1932.62882	0.96938
1930.57502	0.96957
1928.52121	0.96956
1926.46741	0.96970
1924.41361	0.97033
1922.35980	0.97071
1920.30600	0.97043
1918.25220	0.96995
1916.19839	0.96937
1914.14459	0.96929
1912.09079	0.96982
1910.03698	0.96996
1907.98318	0.96938
1905.92938	0.96864
1903.87557	0.96853
1901.82177	0.96901
1899.76797	0.96924
1897.71417	0.96905
1895.66036	0.96889
1893.60656	0.96890
1891.55276	0.96913
1889.49895	0.96969
1887.44515	0.97060
1885.39135	0.97116
1883.33754	0.97101
1881.28374	0.97093
1879.22994	0.97045
1877.17613	0.96945
1875.12233	0.96945
1873.06853	0.97020
1871.01472	0.97035
1868.96092	0.97009
1866.90712	0.97028
1864.85331	0.97046
1862.79951	0.96979
1860.74571	0.96922
1858.69190	0.97013
1856.63810	0.97142
1854.58430	0.97156
1852.53049	0.97101
1850.47669	0.97041
1848.42289	0.96945
1846.36908	0.96867
1844.31528	0.96906
1842.26148	0.96989
1840.20768	0.97040
1838.15387	0.97097
1836.10007	0.97120
1834.04627	0.97077
1831.99246	0.97047
1829.93866	0.97076
1827.88486	0.97114
1825.83105	0.97122
1823.77725	0.97111
1821.72345	0.97092
1819.66964	0.97063
1817.61584	0.97023
1815.56204	0.97000
1813.50823	0.97015
1811.45443	0.97057
1809.40063	0.97075
1807.34682	0.97049
1805.29302	0.97015
1803.23922	0.96998
1801.18541	0.97010
1799.13161	0.97043
1797.07781	0.97074
1795.02400	0.97082
1792.97020	0.97069
1790.91640	0.97079
1788.86260	0.97090
1786.80879	0.97065
1784.75499	0.97031
1782.70119	0.97017
1780.64738	0.96996
1778.59358	0.96980
1776.53978	0.96991
1774.48597	0.96982
1772.43217	0.96949
1770.37837	0.96922
1768.32456	0.96909
1766.27076	0.96907
1764.21696	0.96885
1762.16315	0.96833
1760.10935	0.96777
1758.05555	0.96745
1756.00174	0.96729
1753.94794	0.96721
1751.89414	0.96699
1749.84033	0.96602
1747.78653	0.96452
1745.73273	0.96353
1743.67892	0.96341
1741.62512	0.96362
1739.57132	0.96313
1737.51751	0.96231
1735.46371	0.96195
1733.40991	0.96176
1731.35611	0.96153
1729.30230	0.96111
1727.24850	0.96038
1725.19470	0.95956
1723.14089	0.95888
1721.08709	0.95836
1719.03329	0.95766
1716.97948	0.95660
1714.92568	0.95547
1712.87188	0.95460
1710.81807	0.95411
1708.76427	0.95384
1706.71047	0.95321
1704.65666	0.95215
1702.60286	0.95117
1700.54906	0.94970
1698.49525	0.94735
1696.44145	0.94506
1694.38765	0.94286
1692.33384	0.94090
1690.28004	0.93847
1688.22624	0.93578
1686.17243	0.93364
1684.11863	0.93040
1682.06483	0.92697
1680.01103	0.92536
1677.95722	0.92425
1675.90342	0.92249
1673.84962	0.91988
1671.79581	0.91733
1669.74201	0.91443
1667.68821	0.91183
1665.63440	0.91023
1663.58060	0.90836
1661.52680	0.90599
1659.47299	0.90409
1657.41919	0.90270
1655.36539	0.90125
1653.31158	0.89863
1651.25778	0.89667
1649.20398	0.89617
1647.15017	0.89545
1645.09637	0.89481
1643.04257	0.89454
1640.98876	0.89435
1638.93496	0.89438
1636.88116	0.89456
1634.82735	0.89465
1632.77355	0.89497
1630.71975	0.89557
1628.66594	0.89633
1626.61214	0.89702
1624.55834	0.89749
1622.50454	0.89819
1620.45073	0.89941
1618.39693	0.90110
1616.34313	0.90363
1614.28932	0.90634
1612.23552	0.90865
1610.18172	0.91086
1608.12791	0.91300
1606.07411	0.91489
1604.02031	0.91652
1601.96650	0.91815
1599.91270	0.91989
1597.85890	0.92162
1595.80509	0.92329
1593.75129	0.92488
1591.69749	0.92624
1589.64368	0.92733
1587.58988	0.92827
1585.53608	0.92937
1583.48227	0.93083
1581.42847	0.93206
1579.37467	0.93274
1577.32086	0.93341
1575.26706	0.93428
1573.21326	0.93477
1571.15945	0.93520
1569.10565	0.93590
1567.05185	0.93624
1564.99805	0.93633
1562.94424	0.93670
1560.89044	0.93736
1558.83664	0.93848
1556.78283	0.93898
1554.72903	0.93887
1552.67523	0.93902
1550.62142	0.93951
1548.56762	0.94004
1546.51382	0.94039
1544.46001	0.94075
1542.40621	0.94166
1540.35241	0.94301
1538.29860	0.94371
1536.24480	0.94418
1534.19100	0.94522
1532.13719	0.94639
1530.08339	0.94681
1528.02959	0.94704
1525.97578	0.94752
1523.92198	0.94841
1521.86818	0.94951
1519.81437	0.94980
1517.76057	0.94945
1515.70677	0.94976
1513.65297	0.95084
1511.59916	0.95190
1509.54536	0.95293
1507.49156	0.95416
1505.43775	0.95456
1503.38395	0.95453
1501.33015	0.95473
1499.27634	0.95482
1497.22254	0.95492
1495.16874	0.95519
1493.11493	0.95540
1491.06113	0.95553
1489.00733	0.95574
1486.95352	0.95587
1484.89972	0.95553
1482.84592	0.95463
1480.79211	0.95297
1478.73831	0.94954
1476.68451	0.94073
1474.63070	0.92368
1472.57690	0.90783
1470.52310	0.90702
1468.46929	0.91208
1466.41549	0.91314
1464.36169	0.90729
1462.30788	0.90319
1460.25408	0.90842
1458.20028	0.92003
1456.14648	0.92989
1454.09267	0.93397
1452.03887	0.93639
1449.98507	0.93806
1447.93126	0.93913
1445.87746	0.94000
1443.82366	0.94063
1441.76985	0.94101
1439.71605	0.94126
1437.66225	0.94150
1435.60844	0.94179
1433.55464	0.94211
1431.50084	0.94258
1429.44703	0.94309
1427.39323	0.94347
1425.33943	0.94380
1423.28562	0.94431
1421.23182	0.94485
1419.17802	0.94515
1417.12421	0.94528
1415.07041	0.94536
1413.01661	0.94547
1410.96280	0.94570
1408.90900	0.94608
1406.85520	0.94654
1404.80139	0.94694
1402.74759	0.94726
1400.69379	0.94764
1398.63999	0.94813
1396.58618	0.94869
1394.53238	0.94901
1392.47858	0.94900
1390.42477	0.94899
1388.37097	0.94891
1386.31717	0.94864
1384.26336	0.94831
1382.20956	0.94788
1380.15576	0.94738
1378.10195	0.94719
1376.04815	0.94747
1373.99435	0.94784
1371.94054	0.94790
1369.88674	0.94790
1367.83294	0.94814
1365.77913	0.94865
1363.72533	0.94923
1361.67153	0.94966
1359.61772	0.95002
1357.56392	0.95058
1355.51012	0.95114
1353.45631	0.95137
1351.40251	0.95134
1349.34871	0.95139
1347.29491	0.95176
1345.24110	0.95235
1343.18730	0.95288
1341.13350	0.95318
1339.07969	0.95316
1337.02589	0.95265
1334.97209	0.95217
1332.91828	0.95227
1330.86448	0.95254
1328.81068	0.95255
1326.75687	0.95256
1324.70307	0.95265
1322.64927	0.95277
1320.59546	0.95301
1318.54166	0.95317
1316.48786	0.95298
1314.43405	0.95267
1312.38025	0.95229
1310.32645	0.95194
1308.27264	0.95206
1306.21884	0.95248
1304.16504	0.95265
1302.11123	0.95260
1300.05743	0.95260
1298.00363	0.95261
1295.94982	0.95251
1293.89602	0.95232
1291.84222	0.95226
1289.78842	0.95241
1287.73461	0.95239
1285.68081	0.95199
1283.62701	0.95159
1281.57320	0.95133
1279.51940	0.95095
1277.46560	0.95054
1275.41179	0.95041
1273.35799	0.95035
1271.30419	0.95004
1269.25038	0.94990
1267.19658	0.94992
1265.14278	0.94952
1263.08897	0.94897
1261.03517	0.94864
1258.98137	0.94826
1256.92756	0.94774
1254.87376	0.94731
1252.81996	0.94706
1250.76615	0.94667
1248.71235	0.94590
1246.65855	0.94498
1244.60474	0.94424
1242.55094	0.94383
1240.49714	0.94355
1238.44334	0.94297
1236.38953	0.94210
1234.33573	0.94148
1232.28193	0.94115
1230.22812	0.94074
1228.17432	0.94039
1226.12052	0.94015
1224.06671	0.93952
1222.01291	0.93843
1219.95911	0.93731
1217.90530	0.93626
1215.85150	0.93525
1213.79770	0.93436
1211.74389	0.93315
1209.69009	0.93138
1207.63629	0.92960
1205.58248	0.92803
1203.52868	0.92659
1201.47488	0.92507
1199.42107	0.92317
1197.36727	0.92102
1195.31347	0.91885
1193.25966	0.91677
1191.20586	0.91465
1189.15206	0.91207
1187.09825	0.90922
1185.04445	0.90635
1182.99065	0.90325
1180.93685	0.89994
1178.88304	0.89644
1176.82924	0.89300
1174.77544	0.88982
1172.72163	0.88642
1170.66783	0.88270
1168.61403	0.87893
1166.56022	0.87493
1164.50642	0.87110
1162.45262	0.86806
1160.39881	0.86557
1158.34501	0.86312
1156.29121	0.86047
1154.23740	0.85751
1152.18360	0.85420
1150.12980	0.85082
1148.07599	0.84757
1146.02219	0.84415
1143.96839	0.84046
1141.91458	0.83666
1139.86078	0.83292
1137.80698	0.82913
1135.75317	0.82491
1133.69937	0.82044
1131.64557	0.81593
1129.59176	0.81081
1127.53796	0.80485
1125.48416	0.79844
1123.43036	0.79181
1121.37655	0.78510
1119.32275	0.77812
1117.26895	0.77104
1115.21514	0.76459
1113.16134	0.75895
1111.10754	0.75400
1109.05373	0.74965
1106.99993	0.74513
1104.94613	0.74018
1102.89232	0.73586
1100.83852	0.73253
1098.78472	0.72927
1096.73091	0.72585
1094.67711	0.72297
1092.62331	0.72078
1090.56950	0.71881
1088.51570	0.71685
1086.46190	0.71486
1084.40809	0.71278
1082.35429	0.71081
1080.30049	0.70882
1078.24668	0.70667
1076.19288	0.70446
1074.13908	0.70179
1072.08528	0.69824
1070.03147	0.69395
1067.97767	0.68941
1065.92387	0.68456
1063.87006	0.67917
1061.81626	0.67310
1059.76246	0.66611
1057.70865	0.65803
1055.65485	0.64921
1053.60105	0.64011
1051.54724	0.63041
1049.49344	0.61999
1047.43964	0.60941
1045.38583	0.59878
1043.33203	0.58767
1041.27823	0.57631
1039.22442	0.56545
1037.17062	0.55515
1035.11682	0.54535
1033.06301	0.53672
1031.00921	0.52990
1028.95541	0.52477
1026.90160	0.52114
1024.84780	0.51909
1022.79400	0.51817
1020.74019	0.51739
1018.68639	0.51611
1016.63259	0.51419
1014.57879	0.51145
1012.52498	0.50744
1010.47118	0.50238
1008.41738	0.49734
1006.36357	0.49344
1004.30977	0.49100
1002.25597	0.48974
1000.20216	0.48975
998.14836	0.49177
996.09456	0.49593
994.04075	0.50143
991.98695	0.50768
989.93315	0.51452
987.87934	0.52161
985.82554	0.52884
983.77174	0.53644
981.71793	0.54474
979.66413	0.55386
977.61033	0.56321
975.55652	0.57217
973.50272	0.58079
971.44892	0.58959
969.39511	0.59850
967.34131	0.60713
965.28751	0.61551
963.23371	0.62355
961.17990	0.63122
959.12610	0.63844
957.07230	0.64482
955.01849	0.65059
952.96469	0.65610
950.91089	0.66119
948.85708	0.66552
946.80328	0.66921
944.74948	0.67237
942.69567	0.67467
940.64187	0.67661
938.58807	0.67887
936.53426	0.68089
934.48046	0.68245
932.42666	0.68421
930.37285	0.68627
928.31905	0.68783
926.26525	0.68809
924.21144	0.68719
922.15764	0.68524
920.10384	0.68184
918.05003	0.67722
915.99623	0.67234
913.94243	0.66820
911.88862	0.66604
909.83482	0.66699
907.78102	0.67152
905.72722	0.67914
903.67341	0.68860
901.61961	0.69883
899.56581	0.70916
897.51200	0.71856
895.45820	0.72662
893.40440	0.73400
891.35059	0.74084
889.29679	0.74676
887.24299	0.75190
885.18918	0.75667
883.13538	0.76097
881.08158	0.76433
879.02777	0.76714
876.97397	0.77042
874.92017	0.77451
872.86636	0.77887
870.81256	0.78291
868.75876	0.78698
866.70495	0.79138
864.65115	0.79594
862.59735	0.80085
860.54354	0.80558
858.48974	0.80975
856.43594	0.81353
854.38213	0.81630
852.32833	0.81826
850.27453	0.82110
848.22073	0.82492
846.16692	0.82772
844.11312	0.82885
842.05932	0.82943
840.00551	0.83023
837.95171	0.83101
835.89791	0.83121
833.84410	0.83085
831.79030	0.83032
829.73650	0.82971
827.68269	0.82912
825.62889	0.82928
823.57509	0.83031
821.52128	0.83113
819.46748	0.83160
817.41368	0.83166
815.35987	0.83115
813.30607	0.83036
811.25227	0.82924
809.19846	0.82770
807.14466	0.82506
805.09086	0.82059
803.03705	0.81514
800.98325	0.80962
798.92945	0.80434
796.87565	0.80075
794.82184	0.79961
792.76804	0.79948
790.71424	0.79924
788.66043	0.79890
786.60663	0.79865
784.55283	0.79821
782.49902	0.79688
780.44522	0.79502
778.39142	0.79402
776.33761	0.79405
774.28381	0.79449
772.23001	0.79481
770.17620	0.79456
768.12240	0.79365
766.06860	0.79251
764.01479	0.79140
761.96099	0.78988
759.90719	0.78770
757.85338	0.78540
755.79958	0.78382
753.74578	0.78289
751.69197	0.78197
749.63817	0.78103
747.58437	0.78017
745.53056	0.77938
743.47676	0.77928
741.42296	0.78055
739.36916	0.78270
737.31535	0.78391
735.26155	0.78166
733.20775	0.77290
731.15394	0.76098
729.10014	0.75721
727.04634	0.76294
724.99253	0.76694
722.93873	0.76106
720.88493	0.74533
718.83112	0.73103
716.77732	0.73096
714.72352	0.74246
712.66971	0.75466
710.61591	0.76175
708.56211	0.76377
706.50830	0.76195
704.45450	0.75810
702.40070	0.75405
700.34689	0.74962
698.29309	0.74475
696.23929	0.74086
694.18548	0.73850
692.13168	0.73681
690.07788	0.73481
688.02408	0.73327
685.97027	0.73301
683.91647	0.73310
681.86267	0.73340
679.80886	0.73394
677.75506	0.73392
675.70126	0.73367
673.64745	0.73373
671.59365	0.73406
669.53985	0.73474
667.48604	0.73513
665.43224	0.73490
663.37844	0.73508
661.32463	0.73587
659.27083	0.73680
657.21703	0.73678
655.16322	0.73542
653.10942	0.73364
651.05562	0.73244
649.00181	0.73185
646.94801	0.73143
644.89421	0.73101
642.84040	0.73058
640.78660	0.73100
638.73280	0.73214
636.67899	0.73187
634.62519	0.73069
632.57139	0.73081
630.51759	0.73129
628.46378	0.73039
626.40998	0.72901
624.35618	0.72802
622.30237	0.72664
620.24857	0.72493
618.19477	0.72362
616.14096	0.72197
614.08716	0.71870
612.03336	0.71468
609.97955	0.71204
607.92575	0.71014
605.87195	0.70688
603.81814	0.70299
601.76434	0.69980
599.71054	0.69690
597.65673	0.69395
595.60293	0.69153
593.54913	0.68994
591.49532	0.68794
589.44152	0.68496
587.38772	0.68221
585.33391	0.68014
583.28011	0.67812
581.22631	0.67563
579.17250	0.67231
577.11870	0.66760
575.06490	0.66303
573.01110	0.66035
570.95729	0.65722
568.90349	0.65180
566.84969	0.64637
564.79588	0.64273
562.74208	0.63945
560.68828	0.63482
558.63447	0.62914
556.58067	0.62400
554.52687	0.61946
552.47306	0.61362
550.41926	0.60663
548.36546	0.60001
546.31165	0.59242
544.25785	0.58195
542.20405	0.57084
540.15024	0.56223
538.09644	0.55573
536.04264	0.54958
533.98883	0.54347
531.93503	0.53792
529.88123	0.53368
527.82742	0.53187
525.77362	0.53263
523.71982	0.53471
521.66602	0.53716
519.61221	0.54060
517.55841	0.54503
515.50461	0.54803
513.45080	0.55049
511.39700	0.55580
509.34320	0.56237
507.28939	0.56678
505.23559	0.57032
503.18179	0.57533
501.12798	0.57967
499.07418	0.58173
497.02038	0.58384
494.96657	0.58579
492.91277	0.58610
490.85897	0.58527
488.80516	0.58365
486.75136	0.57994
484.69756	0.57260
482.64375	0.56326
480.58995	0.55301
478.53615	0.53963
476.48234	0.52288
474.42854	0.50530
472.37474	0.48835
470.32093	0.47342
468.26713	0.46147
466.21333	0.45346
464.15953	0.45120
462.10572	0.45261
460.05192	0.45382
457.99812	0.45579
455.94431	0.46052
453.89051	0.46571
451.83671	0.46904
449.78290	0.47053
447.72910	0.47305
445.67530	0.47743
443.62149	0.48047
441.56769	0.48053
439.51389	0.47980
437.46008	0.47694
435.40628	0.46956
433.35248	0.46215
431.29867	0.45686
429.24487	0.45455
427.19107	0.45705
425.13726	0.45917
423.08346	0.45756
421.02966	0.45916
418.97585	0.46704
416.92205	0.46791
414.86825	0.46422
412.81445	0.46557
410.76064	0.46912
408.70684	0.47232
406.65304	0.47859
404.59923	0.48651
402.54543	0.48837
400.49163	0.48197
398.43782	0.47658
