3996.70104	0.98271
3994.64724	0.98309
3992.59344	0.98343
3990.53964	0.98367
3988.48583	0.98333
3986.43203	0.98274
3984.37823	0.98302
3982.32442	0.98350
3980.27062	0.98345
3978.21682	0.98344
3976.16301	0.98355
3974.10921	0.98331
3972.05541	0.98279
3970.00160	0.98257
3967.94780	0.98281
3965.89400	0.98331
3963.84019	0.98372
3961.78639	0.98389
3959.73259	0.98401
3957.67878	0.98412
3955.62498	0.98379
3953.57118	0.98295
3951.51737	0.98243
3949.46357	0.98266
3947.40977	0.98283
3945.35596	0.98234
3943.30216	0.98160
3941.24836	0.98131
3939.19455	0.98165
3937.14075	0.98213
3935.08695	0.98241
3933.03315	0.98265
3930.97934	0.98313
3928.92554	0.98343
3926.87174	0.98312
3924.81793	0.98293
3922.76413	0.98301
3920.71033	0.98291
3918.65652	0.98321
3916.60272	0.98392
3914.54892	0.98432
3912.49511	0.98455
3910.44131	0.98492
3908.38751	0.98513
3906.33370	0.98459
3904.27990	0.98363
3902.22610	0.98354
3900.17229	0.98385
3898.11849	0.98361
3896.06469	0.98341
3894.01088	0.98352
3891.95708	0.98346
3889.90328	0.98300
3887.84947	0.98305
3885.79567	0.98323
3883.74187	0.98258
3881.68807	0.98235
3879.63426	0.98337
3877.58046	0.98428
3875.52666	0.98427
3873.47285	0.98376
3871.41905	0.98322
3869.36525	0.98272
3867.31144	0.98256
3865.25764	0.98314
3863.20384	0.98392
3861.15003	0.98410
3859.09623	0.98429
3857.04243	0.98455
3854.98862	0.98415
3852.93482	0.98313
3850.88102	0.98295
3848.82721	0.98336
3846.77341	0.98360
3844.71961	0.98355
3842.66580	0.98366
3840.61200	0.98419
3838.55820	0.98448
3836.50439	0.98405
3834.45059	0.98358
3832.39679	0.98348
3830.34298	0.98373
3828.28918	0.98428
3826.23538	0.98511
3824.18158	0.98566
3822.12777	0.98523
3820.07397	0.98385
3818.02017	0.98299
3815.96636	0.98334
3813.91256	0.98418
3811.85876	0.98422
3809.80495	0.98343
3807.75115	0.98294
3805.69735	0.98347
3803.64354	0.98371
3801.58974	0.98309
3799.53594	0.98293
3797.48213	0.98351
3795.42833	0.98414
3793.37453	0.98461
3791.32072	0.98454
3789.26692	0.98385
3787.21312	0.98337
3785.15931	0.98337
3783.10551	0.98326
3781.05171	0.98307
3778.99790	0.98310
3776.94410	0.98334
3774.89030	0.98367
3772.83650	0.98393
3770.78269	0.98408
3768.72889	0.98442
3766.67509	0.98497
3764.62128	0.98512
3762.56748	0.98480
3760.51368	0.98452
3758.45987	0.98446
3756.40607	0.98455
3754.35227	0.98486
3752.29846	0.98519
3750.24466	0.98505
3748.19086	0.98502
3746.13705	0.98552
3744.08325	0.98561
3742.02945	0.98473
3739.97564	0.98447
3737.92184	0.98558
3735.86804	0.98643
3733.81423	0.98501
3731.76043	0.98389
3729.70663	0.98440
3727.65282	0.98512
3725.59902	0.98527
3723.54522	0.98500
3721.49141	0.98464
3719.43761	0.98436
3717.38381	0.98421
3715.33001	0.98417
3713.27620	0.98407
3711.22240	0.98400
3709.16860	0.98389
3707.11479	0.98369
3705.06099	0.98345
3703.00719	0.98259
3700.95338	0.98110
3698.89958	0.98042
3696.84578	0.98065
3694.79197	0.98072
3692.73817	0.98068
3690.68437	0.98060
3688.63056	0.97995
3686.57676	0.97956
3684.52296	0.97980
3682.46915	0.98004
3680.41535	0.98017
3678.36155	0.98041
3676.30774	0.98014
3674.25394	0.97918
3672.20014	0.97889
3670.14633	0.97909
3668.09253	0.97908
3666.03873	0.97894
3663.98492	0.97856
3661.93112	0.97781
3659.87732	0.97725
3657.82352	0.97693
3655.76971	0.97673
3653.71591	0.97671
3651.66211	0.97666
3649.60830	0.97684
3647.55450	0.97691
3645.50070	0.97630
3643.44689	0.97559
3641.39309	0.97488
3639.33929	0.97420
3637.28548	0.97358
3635.23168	0.97251
3633.17788	0.97148
3631.12407	0.97143
3629.07027	0.97186
3627.01647	0.97216
3624.96266	0.97245
3622.90886	0.97260
3620.85506	0.97248
3618.80125	0.97219
3616.74745	0.97196
3614.69365	0.97156
3612.63984	0.97107
3610.58604	0.97066
3608.53224	0.97049
3606.47844	0.97126
3604.42463	0.97229
3602.37083	0.97275
3600.31703	0.97303
3598.26322	0.97343
3596.20942	0.97357
3594.15562	0.97299
3592.10181	0.97227
3590.04801	0.97230
3587.99421	0.97282
3585.94040	0.97245
3583.88660	0.97174
3581.83280	0.97161
3579.77899	0.97139
3577.72519	0.97101
3575.67139	0.97078
3573.61758	0.97099
3571.56378	0.97155
3569.50998	0.97187
3567.45617	0.97158
3565.40237	0.97116
3563.34857	0.97111
3561.29476	0.97087
3559.24096	0.97045
3557.18716	0.97020
3555.13335	0.96994
3553.07955	0.96983
3551.02575	0.96995
3548.97195	0.97002
3546.91814	0.96988
3544.86434	0.96940
3542.81054	0.96892
3540.75673	0.96885
3538.70293	0.96882
3536.64913	0.96867
3534.59532	0.96878
3532.54152	0.96894
3530.48772	0.96879
3528.43391	0.96898
3526.38011	0.96950
3524.32631	0.96939
3522.27250	0.96922
3520.21870	0.96938
3518.16490	0.96921
3516.11109	0.96880
3514.05729	0.96860
3512.00349	0.96875
3509.94968	0.96926
3507.89588	0.96999
3505.84208	0.97065
3503.78827	0.97059
3501.73447	0.96992
3499.68067	0.96939
3497.62687	0.96928
3495.57306	0.96961
3493.51926	0.96974
3491.46546	0.96918
3489.41165	0.96859
3487.35785	0.96889
3485.30405	0.96970
3483.25024	0.96990
3481.19644	0.96933
3479.14264	0.96886
3477.08883	0.96909
3475.03503	0.96979
3472.98123	0.97037
3470.92742	0.97021
3468.87362	0.96955
3466.81982	0.96927
3464.76601	0.96921
3462.71221	0.96875
3460.65841	0.96828
3458.60460	0.96817
3456.55080	0.96790
3454.49700	0.96748
3452.44319	0.96745
3450.38939	0.96762
3448.33559	0.96779
3446.28178	0.96805
3444.22798	0.96817
3442.17418	0.96833
3440.12038	0.96859
3438.06657	0.96882
3436.01277	0.96894
3433.95897	0.96868
3431.90516	0.96820
3429.85136	0.96796
3427.79756	0.96775
3425.74375	0.96720
3423.68995	0.96666
3421.63615	0.96666
3419.58234	0.96696
3417.52854	0.96696
3415.47474	0.96674
3413.42093	0.96670
3411.36713	0.96681
3409.31333	0.96699
3407.25952	0.96735
3405.20572	0.96764
3403.15192	0.96760
3401.09811	0.96762
3399.04431	0.96765
3396.99051	0.96721
3394.93670	0.96662
3392.88290	0.96649
3390.82910	0.96654
3388.77529	0.96659
3386.72149	0.96704
3384.66769	0.96767
3382.61389	0.96784
3380.56008	0.96759
3378.50628	0.96745
3376.45248	0.96752
3374.39867	0.96768
3372.34487	0.96769
3370.29107	0.96755
3368.23726	0.96779
3366.18346	0.96822
3364.12966	0.96840
3362.07585	0.96847
3360.02205	0.96857
3357.96825	0.96863
3355.91444	0.96849
3353.86064	0.96817
3351.80684	0.96802
3349.75303	0.96818
3347.69923	0.96829
3345.64543	0.96814
3343.59162	0.96788
3341.53782	0.96797
3339.48402	0.96840
3337.43021	0.96853
3335.37641	0.96831
3333.32261	0.96822
3331.26881	0.96845
3329.21500	0.96868
3327.16120	0.96886
3325.10740	0.96930
3323.05359	0.96973
3320.99979	0.96980
3318.94599	0.96970
3316.89218	0.96954
3314.83838	0.96921
3312.78458	0.96907
3310.73077	0.96939
3308.67697	0.96987
3306.62317	0.96997
3304.56936	0.96975
3302.51556	0.96974
3300.46176	0.96954
3298.40795	0.96905
3296.35415	0.96925
3294.30035	0.96995
3292.24654	0.97029
3290.19274	0.97038
3288.13894	0.97017
3286.08513	0.96983
3284.03133	0.96991
3281.97753	0.97009
3279.92372	0.96977
3277.86992	0.96950
3275.81612	0.96997
3273.76232	0.97063
3271.70851	0.97089
3269.65471	0.97078
3267.60091	0.97060
3265.54710	0.97081
3263.49330	0.97132
3261.43950	0.97145
3259.38569	0.97110
3257.33189	0.97076
3255.27809	0.97046
3253.22428	0.97008
3251.17048	0.96989
3249.11668	0.96984
3247.06287	0.96973
3245.00907	0.96991
3242.95527	0.97052
3240.90146	0.97099
3238.84766	0.97101
3236.79386	0.97096
3234.74005	0.97103
3232.68625	0.97125
3230.63245	0.97149
3228.57864	0.97158
3226.52484	0.97160
3224.47104	0.97165
3222.41724	0.97177
3220.36343	0.97196
3218.30963	0.97206
3216.25583	0.97201
3214.20202	0.97188
3212.14822	0.97165
3210.09442	0.97132
3208.04061	0.97135
3205.98681	0.97199
3203.93301	0.97266
3201.87920	0.97282
3199.82540	0.97285
3197.77160	0.97293
3195.71779	0.97269
3193.66399	0.97233
3191.61019	0.97233
3189.55638	0.97241
3187.50258	0.97228
3185.44878	0.97224
3183.39497	0.97247
3181.34117	0.97286
3179.28737	0.97292
3177.23356	0.97266
3175.17976	0.97260
3173.12596	0.97266
3171.07215	0.97279
3169.01835	0.97306
3166.96455	0.97314
3164.91075	0.97321
3162.85694	0.97370
3160.80314	0.97408
3158.74934	0.97400
3156.69553	0.97381
3154.64173	0.97372
3152.58793	0.97393
3150.53412	0.97424
3148.48032	0.97427
3146.42652	0.97423
3144.37271	0.97431
3142.31891	0.97440
3140.26511	0.97446
3138.21130	0.97454
3136.15750	0.97441
3134.10370	0.97419
3132.04989	0.97418
3129.99609	0.97424
3127.94229	0.97436
3125.88848	0.97445
3123.83468	0.97442
3121.78088	0.97444
3119.72707	0.97443
3117.67327	0.97440
3115.61947	0.97441
3113.56566	0.97445
3111.51186	0.97437
3109.45806	0.97436
3107.40426	0.97478
3105.35045	0.97509
3103.29665	0.97507
3101.24285	0.97529
3099.18904	0.97557
3097.13524	0.97562
3095.08144	0.97573
3093.02763	0.97562
3090.97383	0.97527
3088.92003	0.97531
3086.86622	0.97542
3084.81242	0.97539
3082.75862	0.97557
3080.70481	0.97563
3078.65101	0.97529
3076.59721	0.97494
3074.54340	0.97500
3072.48960	0.97502
3070.43580	0.97459
3068.38199	0.97443
3066.32819	0.97483
3064.27439	0.97532
3062.22058	0.97553
3060.16678	0.97554
3058.11298	0.97585
3056.05918	0.97618
3054.00537	0.97597
3051.95157	0.97568
3049.89777	0.97571
3047.84396	0.97593
3045.79016	0.97607
3043.73636	0.97598
3041.68255	0.97595
3039.62875	0.97600
3037.57495	0.97587
3035.52114	0.97580
3033.46734	0.97584
3031.41354	0.97577
3029.35973	0.97573
3027.30593	0.97574
3025.25213	0.97566
3023.19832	0.97551
3021.14452	0.97524
3019.09072	0.97506
3017.03691	0.97522
3014.98311	0.97527
3012.92931	0.97488
3010.87550	0.97456
3008.82170	0.97463
3006.76790	0.97475
3004.71409	0.97475
3002.66029	0.97453
3000.60649	0.97386
2998.55269	0.97289
2996.49888	0.97209
2994.44508	0.97161
2992.39128	0.97132
2990.33747	0.97086
2988.28367	0.97017
2986.22987	0.96920
2984.17606	0.96790
2982.12226	0.96652
2980.06846	0.96484
2978.01465	0.96271
2975.96085	0.96027
2973.90705	0.95726
2971.85324	0.95371
2969.79944	0.94996
2967.74564	0.94607
2965.69183	0.94225
2963.63803	0.93863
2961.58423	0.93553
2959.53042	0.93360
2957.47662	0.93279
2955.42282	0.93321
2953.36901	0.93489
2951.31521	0.93702
2949.26141	0.93907
2947.20761	0.94076
2945.15380	0.94162
2943.10000	0.94130
2941.04620	0.93974
2938.99239	0.93740
2936.93859	0.93498
2934.88479	0.93274
2932.83098	0.93103
2930.77718	0.93015
2928.72338	0.92983
2926.66957	0.93015
2924.61577	0.93127
2922.56197	0.93262
2920.50816	0.93374
2918.45436	0.93526
2916.40056	0.93772
2914.34675	0.94073
2912.29295	0.94351
2910.23915	0.94576
2908.18534	0.94775
2906.13154	0.94972
2904.07774	0.95127
2902.02393	0.95235
2899.97013	0.95351
2897.91633	0.95481
2895.86252	0.95577
2893.80872	0.95665
2891.75492	0.95775
2889.70112	0.95837
2887.64731	0.95836
2885.59351	0.95833
2883.53971	0.95798
2881.48590	0.95673
2879.43210	0.95473
2877.37830	0.95248
2875.32449	0.95071
2873.27069	0.94989
2871.21689	0.95002
2869.16308	0.95080
2867.10928	0.95141
2865.05548	0.95108
2863.00167	0.95020
2860.94787	0.94978
2858.89407	0.95034
2856.84026	0.95165
2854.78646	0.95351
2852.73266	0.95580
2850.67885	0.95853
2848.62505	0.96137
2846.57125	0.96356
2844.51744	0.96530
2842.46364	0.96736
2840.40984	0.96932
2838.35603	0.97025
2836.30223	0.97059
2834.24843	0.97123
2832.19463	0.97213
2830.14082	0.97317
2828.08702	0.97398
2826.03322	0.97417
2823.97941	0.97404
2821.92561	0.97415
2819.87181	0.97473
2817.81800	0.97538
2815.76420	0.97563
2813.71040	0.97560
2811.65659	0.97570
2809.60279	0.97586
2807.54899	0.97599
2805.49518	0.97626
2803.44138	0.97644
2801.38758	0.97629
2799.33377	0.97631
2797.27997	0.97674
2795.22617	0.97692
2793.17236	0.97668
2791.11856	0.97648
2789.06476	0.97652
2787.01095	0.97673
2784.95715	0.97695
2782.90335	0.97709
2780.84955	0.97732
2778.79574	0.97749
2776.74194	0.97749
2774.68814	0.97755
2772.63433	0.97759
2770.58053	0.97765
2768.52673	0.97800
2766.47292	0.97836
2764.41912	0.97823
2762.36532	0.97788
2760.31151	0.97749
2758.25771	0.97731
2756.20391	0.97765
2754.15010	0.97789
2752.09630	0.97781
2750.04250	0.97805
2747.98869	0.97841
2745.93489	0.97817
2743.88109	0.97757
2741.82728	0.97741
2739.77348	0.97777
2737.71968	0.97806
2735.66587	0.97790
2733.61207	0.97779
2731.55827	0.97805
2729.50446	0.97829
2727.45066	0.97838
2725.39686	0.97844
2723.34306	0.97842
2721.28925	0.97838
2719.23545	0.97853
2717.18165	0.97890
2715.12784	0.97930
2713.07404	0.97933
2711.02024	0.97903
2708.96643	0.97883
2706.91263	0.97877
2704.85883	0.97877
2702.80502	0.97881
2700.75122	0.97887
2698.69742	0.97892
2696.64361	0.97886
2694.58981	0.97866
2692.53601	0.97870
2690.48220	0.97918
2688.42840	0.97952
2686.37460	0.97936
2684.32079	0.97922
2682.26699	0.97946
2680.21319	0.97973
2678.15938	0.97961
2676.10558	0.97937
2674.05178	0.97933
2671.99797	0.97918
2669.94417	0.97903
2667.89037	0.97928
2665.83657	0.97980
2663.78276	0.98011
2661.72896	0.97987
2659.67516	0.97958
2657.62135	0.97975
2655.56755	0.97973
2653.51375	0.97927
2651.45994	0.97891
2649.40614	0.97870
2647.35234	0.97865
2645.29853	0.97865
2643.24473	0.97850
2641.19093	0.97847
2639.13712	0.97847
2637.08332	0.97828
2635.02952	0.97829
2632.97571	0.97852
2630.92191	0.97876
2628.86811	0.97892
2626.81430	0.97904
2624.76050	0.97931
2622.70670	0.97949
2620.65289	0.97941
2618.59909	0.97947
2616.54529	0.97997
2614.49149	0.98053
2612.43768	0.98064
2610.38388	0.98032
2608.33008	0.97974
2606.27627	0.97929
2604.22247	0.97943
2602.16867	0.97997
2600.11486	0.98019
2598.06106	0.97971
2596.00726	0.97908
2593.95345	0.97918
2591.89965	0.97970
2589.84585	0.97974
2587.79204	0.97966
2585.73824	0.98022
2583.68444	0.98059
2581.63063	0.98022
2579.57683	0.97960
2577.52303	0.97911
2575.46922	0.97923
2573.41542	0.97991
2571.36162	0.98052
2569.30781	0.98092
2567.25401	0.98108
2565.20021	0.98120
2563.14640	0.98154
2561.09260	0.98179
2559.03880	0.98160
2556.98500	0.98139
2554.93119	0.98172
2552.87739	0.98231
2550.82359	0.98255
2548.76978	0.98216
2546.71598	0.98144
2544.66218	0.98101
2542.60837	0.98103
2540.55457	0.98132
2538.50077	0.98150
2536.44696	0.98146
2534.39316	0.98147
2532.33936	0.98146
2530.28555	0.98150
2528.23175	0.98195
2526.17795	0.98245
2524.12414	0.98235
2522.07034	0.98152
2520.01654	0.98053
2517.96273	0.97996
2515.90893	0.97994
2513.85513	0.98029
2511.80132	0.98058
2509.74752	0.98049
2507.69372	0.98039
2505.63992	0.98090
2503.58611	0.98193
2501.53231	0.98258
2499.47851	0.98228
2497.42470	0.98173
2495.37090	0.98150
2493.31710	0.98145
2491.26329	0.98167
2489.20949	0.98200
2487.15569	0.98194
2485.10188	0.98155
2483.04808	0.98132
2480.99428	0.98124
2478.94047	0.98097
2476.88667	0.98096
2474.83287	0.98130
2472.77906	0.98130
2470.72526	0.98134
2468.67146	0.98192
2466.61765	0.98264
2464.56385	0.98305
2462.51005	0.98292
2460.45624	0.98239
2458.40244	0.98200
2456.34864	0.98208
2454.29483	0.98207
2452.24103	0.98181
2450.18723	0.98194
2448.13343	0.98235
2446.07962	0.98214
2444.02582	0.98121
2441.97202	0.98082
2439.91821	0.98161
2437.86441	0.98248
2435.81061	0.98254
2433.75680	0.98220
2431.70300	0.98183
2429.64920	0.98166
2427.59539	0.98193
2425.54159	0.98223
2423.48779	0.98246
2421.43398	0.98249
2419.38018	0.98195
2417.32638	0.98169
2415.27257	0.98223
2413.21877	0.98288
2411.16497	0.98306
2409.11116	0.98278
2407.05736	0.98266
2405.00356	0.98280
2402.94975	0.98265
2400.89595	0.98225
2398.84215	0.98185
2396.78834	0.98149
2394.73454	0.98138
2392.68074	0.98158
2390.62694	0.98204
2388.57313	0.98228
2386.51933	0.98206
2384.46553	0.98182
2382.41172	0.98193
2380.35792	0.98212
2378.30412	0.98166
2376.25031	0.98119
2374.19651	0.98111
2372.14271	0.98077
2370.08890	0.98097
2368.03510	0.98202
2365.98130	0.98252
2363.92749	0.98194
2361.87369	0.98100
2359.81989	0.98031
2357.76608	0.97972
2355.71228	0.97997
2353.65848	0.98159
2351.60467	0.98268
2349.55087	0.98268
2347.49707	0.98256
2345.44326	0.98263
2343.38946	0.98233
2341.33566	0.98094
2339.28186	0.97982
2337.22805	0.98037
2335.17425	0.98173
2333.12045	0.98270
2331.06664	0.98266
2329.01284	0.98177
2326.95904	0.98099
2324.90523	0.98049
2322.85143	0.97984
2320.79763	0.97937
2318.74382	0.97914
2316.69002	0.97891
2314.63622	0.97912
2312.58241	0.97995
2310.52861	0.98053
2308.47481	0.98045
2306.42100	0.98039
2304.36720	0.98042
2302.31340	0.98020
2300.25959	0.98016
2298.20579	0.98068
2296.15199	0.98115
2294.09818	0.98110
2292.04438	0.98073
2289.99058	0.98069
2287.93677	0.98139
2285.88297	0.98160
2283.82917	0.98094
2281.77537	0.98091
2279.72156	0.98136
2277.66776	0.98107
2275.61396	0.98044
2273.56015	0.98045
2271.50635	0.98096
2269.45255	0.98136
2267.39874	0.98182
2265.34494	0.98222
2263.29114	0.98181
2261.23733	0.98105
2259.18353	0.98100
2257.12973	0.98157
2255.07592	0.98244
2253.02212	0.98354
2250.96832	0.98397
2248.91451	0.98351
2246.86071	0.98321
2244.80691	0.98271
2242.75310	0.98146
2240.69930	0.98090
2238.64550	0.98099
2236.59169	0.98094
2234.53789	0.98243
2232.48409	0.98445
2230.43029	0.98463
2228.37648	0.98397
2226.32268	0.98402
2224.26888	0.98515
2222.21507	0.98516
2220.16127	0.98330
2218.10747	0.98261
2216.05366	0.98345
2213.99986	0.98391
2211.94606	0.98379
2209.89225	0.98370
2207.83845	0.98340
2205.78465	0.98302
2203.73084	0.98404
2201.67704	0.98628
2199.62324	0.98676
2197.56943	0.98465
2195.51563	0.98280
2193.46183	0.98343
2191.40802	0.98454
2189.35422	0.98401
2187.30042	0.98417
2185.24661	0.98462
2183.19281	0.98285
2181.13901	0.98078
2179.08520	0.98000
2177.03140	0.98041
2174.97760	0.98209
2172.92380	0.98404
2170.86999	0.98392
2168.81619	0.98117
2166.76239	0.97957
2164.70858	0.97993
2162.65478	0.97830
2160.60098	0.97818
2158.54717	0.98482
2156.49337	0.99023
2154.43957	0.98850
2152.38576	0.98645
2150.33196	0.98882
2148.27816	0.99219
2146.22435	0.99277
2144.17055	0.99058
2142.11675	0.98786
2140.06294	0.98641
2138.00914	0.98560
2135.95534	0.98545
2133.90153	0.98638
2131.84773	0.98626
2129.79393	0.98417
2127.74012	0.98335
2125.68632	0.98526
2123.63252	0.98574
2121.57871	0.98398
2119.52491	0.98354
2117.47111	0.98414
2115.41731	0.98399
2113.36350	0.98341
2111.30970	0.98323
2109.25590	0.98295
2107.20209	0.98268
2105.14829	0.98330
2103.09449	0.98452
2101.04068	0.98591
2098.98688	0.98665
2096.93308	0.98619
2094.87927	0.98520
2092.82547	0.98451
2090.77167	0.98434
2088.71786	0.98427
2086.66406	0.98381
2084.61026	0.98322
2082.55645	0.98346
2080.50265	0.98387
2078.44885	0.98379
2076.39504	0.98328
2074.34124	0.98266
2072.28744	0.98310
2070.23363	0.98368
2068.17983	0.98324
2066.12603	0.98358
2064.07223	0.98541
2062.01842	0.98614
2059.96462	0.98502
2057.91082	0.98434
2055.85701	0.98472
2053.80321	0.98517
2051.74941	0.98482
2049.69560	0.98456
2047.64180	0.98549
2045.58800	0.98550
2043.53419	0.98362
2041.48039	0.98220
2039.42659	0.98213
2037.37278	0.98258
2035.31898	0.98334
2033.26518	0.98280
2031.21137	0.98009
2029.15757	0.97862
2027.10377	0.97942
2025.04996	0.98160
2022.99616	0.98516
2020.94236	0.98724
2018.88855	0.98697
2016.83475	0.98669
2014.78095	0.98696
2012.72714	0.98714
2010.67334	0.98717
2008.61954	0.98815
2006.56574	0.98960
2004.51193	0.99074
2002.45813	0.99109
2000.40433	0.98881
1998.35052	0.98672
1996.29672	0.98782
1994.24292	0.98811
1992.18911	0.98500
1990.13531	0.98221
1988.08151	0.98208
1986.02770	0.98290
1983.97390	0.98312
1981.92010	0.98284
1979.86629	0.98296
1977.81249	0.98437
1975.75869	0.98660
1973.70488	0.98682
1971.65108	0.98558
1969.59728	0.98563
1967.54347	0.98528
1965.48967	0.98381
1963.43587	0.98422
1961.38206	0.98672
1959.32826	0.98820
1957.27446	0.98725
1955.22066	0.98591
1953.16685	0.98531
1951.11305	0.98461
1949.05925	0.98462
1947.00544	0.98561
1944.95164	0.98572
1942.89784	0.98513
1940.84403	0.98504
1938.79023	0.98559
1936.73643	0.98637
1934.68262	0.98650
1932.62882	0.98607
1930.57502	0.98626
1928.52121	0.98671
1926.46741	0.98619
1924.41361	0.98493
1922.35980	0.98373
1920.30600	0.98293
1918.25220	0.98280
1916.19839	0.98350
1914.14459	0.98441
1912.09079	0.98472
1910.03698	0.98467
1907.98318	0.98480
1905.92938	0.98435
1903.87557	0.98316
1901.82177	0.98277
1899.76797	0.98367
1897.71417	0.98466
1895.66036	0.98453
1893.60656	0.98396
1891.55276	0.98433
1889.49895	0.98498
1887.44515	0.98496
1885.39135	0.98461
1883.33754	0.98424
1881.28374	0.98394
1879.22994	0.98369
1877.17613	0.98346
1875.12233	0.98358
1873.06853	0.98431
1871.01472	0.98500
1868.96092	0.98500
1866.90712	0.98476
1864.85331	0.98435
1862.79951	0.98367
1860.74571	0.98335
1858.69190	0.98371
1856.63810	0.98433
1854.58430	0.98450
1852.53049	0.98431
1850.47669	0.98449
1848.42289	0.98503
1846.36908	0.98536
1844.31528	0.98535
1842.26148	0.98512
1840.20768	0.98505
1838.15387	0.98524
1836.10007	0.98508
1834.04627	0.98457
1831.99246	0.98421
1829.93866	0.98408
1827.88486	0.98378
1825.83105	0.98319
1823.77725	0.98280
1821.72345	0.98277
1819.66964	0.98286
1817.61584	0.98334
1815.56204	0.98413
1813.50823	0.98447
1811.45443	0.98416
1809.40063	0.98368
1807.34682	0.98337
1805.29302	0.98342
1803.23922	0.98386
1801.18541	0.98410
1799.13161	0.98387
1797.07781	0.98349
1795.02400	0.98323
1792.97020	0.98315
1790.91640	0.98304
1788.86260	0.98250
1786.80879	0.98172
1784.75499	0.98141
1782.70119	0.98164
1780.64738	0.98168
1778.59358	0.98137
1776.53978	0.98139
1774.48597	0.98191
1772.43217	0.98226
1770.37837	0.98155
1768.32456	0.98058
1766.27076	0.98021
1764.21696	0.97997
1762.16315	0.97918
1760.10935	0.97800
1758.05555	0.97647
1756.00174	0.97372
1753.94794	0.97007
1751.89414	0.96509
1749.84033	0.95719
1747.78653	0.94738
1745.73273	0.93714
1743.67892	0.92583
1741.62512	0.91360
1739.57132	0.90126
1737.51751	0.89202
1735.46371	0.88576
1733.40991	0.87920
1731.35611	0.87638
1729.30230	0.87870
1727.24850	0.88425
1725.19470	0.89231
1723.14089	0.90221
1721.08709	0.91180
1719.03329	0.92148
1716.97948	0.93251
1714.92568	0.94099
1712.87188	0.94634
1710.81807	0.95042
1708.76427	0.95383
1706.71047	0.95704
1704.65666	0.95979
1702.60286	0.96187
1700.54906	0.96383
1698.49525	0.96509
1696.44145	0.96534
1694.38765	0.96554
1692.33384	0.96591
1690.28004	0.96631
1688.22624	0.96669
1686.17243	0.96704
1684.11863	0.96721
1682.06483	0.96714
1680.01103	0.96740
1677.95722	0.96801
1675.90342	0.96895
1673.84962	0.96977
1671.79581	0.96991
1669.74201	0.96992
1667.68821	0.96985
1665.63440	0.96943
1663.58060	0.96908
1661.52680	0.96929
1659.47299	0.96971
1657.41919	0.96981
1655.36539	0.96950
1653.31158	0.96876
1651.25778	0.96877
1649.20398	0.96940
1647.15017	0.96960
1645.09637	0.96943
1643.04257	0.96962
1640.98876	0.96996
1638.93496	0.97033
1636.88116	0.97064
1634.82735	0.97053
1632.77355	0.97043
1630.71975	0.97068
1628.66594	0.97097
1626.61214	0.97111
1624.55834	0.97124
1622.50454	0.97132
1620.45073	0.97120
1618.39693	0.97115
1616.34313	0.97168
1614.28932	0.97240
1612.23552	0.97268
1610.18172	0.97260
1608.12791	0.97243
1606.07411	0.97257
1604.02031	0.97316
1601.96650	0.97390
1599.91270	0.97447
1597.85890	0.97481
1595.80509	0.97495
1593.75129	0.97486
1591.69749	0.97487
1589.64368	0.97517
1587.58988	0.97536
1585.53608	0.97527
1583.48227	0.97535
1581.42847	0.97564
1579.37467	0.97598
1577.32086	0.97636
1575.26706	0.97646
1573.21326	0.97645
1571.15945	0.97653
1569.10565	0.97632
1567.05185	0.97591
1564.99805	0.97561
1562.94424	0.97558
1560.89044	0.97615
1558.83664	0.97673
1556.78283	0.97613
1554.72903	0.97592
1552.67523	0.97630
1550.62142	0.97670
1548.56762	0.97682
1546.51382	0.97679
1544.46001	0.97668
1542.40621	0.97632
1540.35241	0.97582
1538.29860	0.97573
1536.24480	0.97582
1534.19100	0.97587
1532.13719	0.97562
1530.08339	0.97519
1528.02959	0.97505
1525.97578	0.97531
1523.92198	0.97546
1521.86818	0.97486
1519.81437	0.97386
1517.76057	0.97324
1515.70677	0.97293
1513.65297	0.97281
1511.59916	0.97293
1509.54536	0.97329
1507.49156	0.97342
1505.43775	0.97234
1503.38395	0.97109
1501.33015	0.97021
1499.27634	0.96962
1497.22254	0.96905
1495.16874	0.96853
1493.11493	0.96831
1491.06113	0.96795
1489.00733	0.96712
1486.95352	0.96617
1484.89972	0.96523
1482.84592	0.96424
1480.79211	0.96306
1478.73831	0.96146
1476.68451	0.95933
1474.63070	0.95655
1472.57690	0.95240
1470.52310	0.94794
1468.46929	0.94484
1466.41549	0.94228
1464.36169	0.93991
1462.30788	0.93851
1460.25408	0.93810
1458.20028	0.93813
1456.14648	0.93841
1454.09267	0.93908
1452.03887	0.94010
1449.98507	0.94133
1447.93126	0.94264
1445.87746	0.94395
1443.82366	0.94542
1441.76985	0.94734
1439.71605	0.94936
1437.66225	0.95114
1435.60844	0.95262
1433.55464	0.95395
1431.50084	0.95569
1429.44703	0.95761
1427.39323	0.95900
1425.33943	0.96013
1423.28562	0.96128
1421.23182	0.96240
1419.17802	0.96349
1417.12421	0.96411
1415.07041	0.96434
1413.01661	0.96467
1410.96280	0.96501
1408.90900	0.96498
1406.85520	0.96460
1404.80139	0.96399
1402.74759	0.96324
1400.69379	0.96223
1398.63999	0.96088
1396.58618	0.95987
1394.53238	0.95961
1392.47858	0.95974
1390.42477	0.95971
1388.37097	0.95906
1386.31717	0.95786
1384.26336	0.95679
1382.20956	0.95603
1380.15576	0.95549
1378.10195	0.95561
1376.04815	0.95684
1373.99435	0.95860
1371.94054	0.95982
1369.88674	0.96049
1367.83294	0.96106
1365.77913	0.96168
1363.72533	0.96245
1361.67153	0.96336
1359.61772	0.96423
1357.56392	0.96510
1355.51012	0.96586
1353.45631	0.96650
1351.40251	0.96706
1349.34871	0.96734
1347.29491	0.96731
1345.24110	0.96736
1343.18730	0.96773
1341.13350	0.96825
1339.07969	0.96851
1337.02589	0.96824
1334.97209	0.96800
1332.91828	0.96818
1330.86448	0.96845
1328.81068	0.96855
1326.75687	0.96853
1324.70307	0.96835
1322.64927	0.96801
1320.59546	0.96761
1318.54166	0.96729
1316.48786	0.96719
1314.43405	0.96719
1312.38025	0.96719
1310.32645	0.96721
1308.27264	0.96709
1306.21884	0.96681
1304.16504	0.96656
1302.11123	0.96624
1300.05743	0.96587
1298.00363	0.96559
1295.94982	0.96529
1293.89602	0.96484
1291.84222	0.96426
1289.78842	0.96364
1287.73461	0.96297
1285.68081	0.96198
1283.62701	0.96071
1281.57320	0.95923
1279.51940	0.95756
1277.46560	0.95602
1275.41179	0.95459
1273.35799	0.95275
1271.30419	0.95061
1269.25038	0.94864
1267.19658	0.94687
1265.14278	0.94512
1263.08897	0.94337
1261.03517	0.94170
1258.98137	0.94030
1256.92756	0.93925
1254.87376	0.93834
1252.81996	0.93717
1250.76615	0.93553
1248.71235	0.93372
1246.65855	0.93196
1244.60474	0.93003
1242.55094	0.92790
1240.49714	0.92590
1238.44334	0.92410
1236.38953	0.92265
1234.33573	0.92197
1232.28193	0.92216
1230.22812	0.92285
1228.17432	0.92361
1226.12052	0.92442
1224.06671	0.92525
1222.01291	0.92616
1219.95911	0.92722
1217.90530	0.92818
1215.85150	0.92875
1213.79770	0.92863
1211.74389	0.92788
1209.69009	0.92709
1207.63629	0.92653
1205.58248	0.92569
1203.52868	0.92418
1201.47488	0.92242
1199.42107	0.92083
1197.36727	0.91911
1195.31347	0.91681
1193.25966	0.91391
1191.20586	0.91071
1189.15206	0.90734
1187.09825	0.90359
1185.04445	0.89919
1182.99065	0.89407
1180.93685	0.88843
1178.88304	0.88237
1176.82924	0.87619
1174.77544	0.86996
1172.72163	0.86350
1170.66783	0.85739
1168.61403	0.85190
1166.56022	0.84673
1164.50642	0.84220
1162.45262	0.83920
1160.39881	0.83803
1158.34501	0.83787
1156.29121	0.83787
1154.23740	0.83817
1152.18360	0.83882
1150.12980	0.83954
1148.07599	0.84025
1146.02219	0.84099
1143.96839	0.84169
1141.91458	0.84193
1139.86078	0.84150
1137.80698	0.84085
1135.75317	0.84028
1133.69937	0.83956
1131.64557	0.83856
1129.59176	0.83702
1127.53796	0.83479
1125.48416	0.83246
1123.43036	0.83055
1121.37655	0.82879
1119.32275	0.82695
1117.26895	0.82524
1115.21514	0.82360
1113.16134	0.82209
1111.10754	0.82067
1109.05373	0.81907
1106.99993	0.81746
1104.94613	0.81592
1102.89232	0.81422
1100.83852	0.81241
1098.78472	0.81086
1096.73091	0.80939
1094.67711	0.80777
1092.62331	0.80603
1090.56950	0.80416
1088.51570	0.80278
1086.46190	0.80220
1084.40809	0.80143
1082.35429	0.80017
1080.30049	0.79928
1078.24668	0.79873
1076.19288	0.79799
1074.13908	0.79707
1072.08528	0.79592
1070.03147	0.79453
1067.97767	0.79308
1065.92387	0.79134
1063.87006	0.78903
1061.81626	0.78635
1059.76246	0.78348
1057.70865	0.78041
1055.65485	0.77712
1053.60105	0.77346
1051.54724	0.76961
1049.49344	0.76575
1047.43964	0.76176
1045.38583	0.75762
1043.33203	0.75304
1041.27823	0.74800
1039.22442	0.74328
1037.17062	0.73918
1035.11682	0.73527
1033.06301	0.73170
1031.00921	0.72871
1028.95541	0.72604
1026.90160	0.72339
1024.84780	0.72079
1022.79400	0.71844
1020.74019	0.71619
1018.68639	0.71407
1016.63259	0.71234
1014.57879	0.71063
1012.52498	0.70856
1010.47118	0.70630
1008.41738	0.70418
1006.36357	0.70237
1004.30977	0.70079
1002.25597	0.69917
1000.20216	0.69757
998.14836	0.69618
996.09456	0.69495
994.04075	0.69392
991.98695	0.69295
989.93315	0.69188
987.87934	0.69129
985.82554	0.69164
983.77174	0.69208
981.71793	0.69201
979.66413	0.69216
977.61033	0.69304
975.55652	0.69429
973.50272	0.69583
971.44892	0.69805
969.39511	0.70077
967.34131	0.70323
965.28751	0.70512
963.23371	0.70674
961.17990	0.70823
959.12610	0.70986
957.07230	0.71219
955.01849	0.71497
952.96469	0.71754
950.91089	0.71990
948.85708	0.72238
946.80328	0.72478
944.74948	0.72673
942.69567	0.72854
940.64187	0.73059
938.58807	0.73273
936.53426	0.73471
934.48046	0.73673
932.42666	0.73908
930.37285	0.74153
928.31905	0.74336
926.26525	0.74490
924.21144	0.74711
922.15764	0.74952
920.10384	0.75120
918.05003	0.75235
915.99623	0.75369
913.94243	0.75524
911.88862	0.75667
909.83482	0.75809
907.78102	0.75946
905.72722	0.76071
903.67341	0.76280
901.61961	0.76639
899.56581	0.77045
897.51200	0.77400
895.45820	0.77753
893.40440	0.78131
891.35059	0.78463
889.29679	0.78777
887.24299	0.79135
885.18918	0.79472
883.13538	0.79728
881.08158	0.79936
879.02777	0.80133
876.97397	0.80324
874.92017	0.80551
872.86636	0.80860
870.81256	0.81239
868.75876	0.81645
866.70495	0.82004
864.65115	0.82289
862.59735	0.82543
860.54354	0.82802
858.48974	0.83113
856.43594	0.83502
854.38213	0.83972
852.32833	0.84453
850.27453	0.84833
848.22073	0.85124
846.16692	0.85413
844.11312	0.85735
842.05932	0.86018
840.00551	0.86216
837.95171	0.86412
835.89791	0.86643
833.84410	0.86815
831.79030	0.86903
829.73650	0.86977
827.68269	0.87054
825.62889	0.87154
823.57509	0.87296
821.52128	0.87449
819.46748	0.87607
817.41368	0.87773
815.35987	0.87891
813.30607	0.87876
811.25227	0.87718
809.19846	0.87372
807.14466	0.86766
805.09086	0.85966
803.03705	0.85090
800.98325	0.84230
798.92945	0.83522
796.87565	0.83064
794.82184	0.82844
792.76804	0.82767
790.71424	0.82687
788.66043	0.82514
786.60663	0.82292
784.55283	0.82071
782.49902	0.81779
780.44522	0.81386
778.39142	0.81051
776.33761	0.80906
774.28381	0.80889
772.23001	0.80908
770.17620	0.80944
768.12240	0.80938
766.06860	0.80874
764.01479	0.80868
761.96099	0.80928
759.90719	0.80993
757.85338	0.81130
755.79958	0.81353
753.74578	0.81593
751.69197	0.81813
749.63817	0.82027
747.58437	0.82225
745.53056	0.82347
743.47676	0.82420
741.42296	0.82512
739.36916	0.82663
737.31535	0.82897
735.26155	0.83148
733.20775	0.83299
731.15394	0.83317
729.10014	0.83232
727.04634	0.83119
724.99253	0.83109
722.93873	0.83274
720.88493	0.83609
718.83112	0.84037
716.77732	0.84436
714.72352	0.84755
712.66971	0.85017
710.61591	0.85212
708.56211	0.85344
706.50830	0.85439
704.45450	0.85425
702.40070	0.85238
700.34689	0.84944
698.29309	0.84579
696.23929	0.84152
694.18548	0.83896
692.13168	0.83993
690.07788	0.84284
688.02408	0.84608
685.97027	0.84966
683.91647	0.85277
681.86267	0.85431
679.80886	0.85575
677.75506	0.85811
675.70126	0.85968
673.64745	0.85994
671.59365	0.86037
669.53985	0.86144
667.48604	0.86256
665.43224	0.86375
663.37844	0.86448
661.32463	0.86437
659.27083	0.86329
657.21703	0.86054
655.16322	0.85664
653.10942	0.85277
651.05562	0.84935
649.00181	0.84688
646.94801	0.84554
644.89421	0.84549
642.84040	0.84647
640.78660	0.84783
638.73280	0.85005
636.67899	0.85277
634.62519	0.85500
632.57139	0.85691
630.51759	0.85870
628.46378	0.86045
626.40998	0.86265
624.35618	0.86423
622.30237	0.86308
620.24857	0.85993
618.19477	0.85740
616.14096	0.85515
614.08716	0.85138
612.03336	0.84756
609.97955	0.84483
607.92575	0.84187
605.87195	0.83865
603.81814	0.83588
601.76434	0.83357
599.71054	0.83131
597.65673	0.82897
595.60293	0.82704
593.54913	0.82488
591.49532	0.82156
589.44152	0.81848
587.38772	0.81735
585.33391	0.81723
583.28011	0.81621
581.22631	0.81479
579.17250	0.81465
577.11870	0.81546
575.06490	0.81623
573.01110	0.81651
570.95729	0.81624
568.90349	0.81552
566.84969	0.81472
564.79588	0.81492
562.74208	0.81529
560.68828	0.81346
558.63447	0.81050
556.58067	0.80803
554.52687	0.80543
552.47306	0.80218
550.41926	0.79883
548.36546	0.79549
546.31165	0.79024
544.25785	0.78248
542.20405	0.77390
540.15024	0.76672
538.09644	0.76163
536.04264	0.75637
533.98883	0.75105
531.93503	0.74707
529.88123	0.74354
527.82742	0.74136
525.77362	0.74135
523.71982	0.74150
521.66602	0.74132
519.61221	0.74135
517.55841	0.74165
515.50461	0.74366
513.45080	0.74757
511.39700	0.75059
509.34320	0.75159
507.28939	0.75210
505.23559	0.75129
503.18179	0.74858
501.12798	0.74721
499.07418	0.74732
497.02038	0.74619
494.96657	0.74442
492.91277	0.74213
490.85897	0.73760
488.80516	0.73227
486.75136	0.72829
484.69756	0.72302
482.64375	0.71401
480.58995	0.70365
478.53615	0.69399
476.48234	0.68603
474.42854	0.67955
472.37474	0.67392
470.32093	0.66898
468.26713	0.66304
466.21333	0.65578
464.15953	0.64860
462.10572	0.64359
460.05192	0.64155
457.99812	0.63954
455.94431	0.63848
453.89051	0.64079
451.83671	0.64464
449.78290	0.64748
447.72910	0.64528
445.67530	0.63995
443.62149	0.63681
441.56769	0.63465
439.51389	0.63344
437.46008	0.63278
435.40628	0.62961
433.35248	0.62602
431.29867	0.62319
429.24487	0.61944
427.19107	0.61585
425.13726	0.61075
423.08346	0.60342
421.02966	0.59689
418.97585	0.59278
416.92205	0.59583
414.86825	0.60265
412.81445	0.61017
410.76064	0.62154
408.70684	0.63466
406.65304	0.64212
404.59923	0.64233
402.54543	0.63861
400.49163	0.63104
398.43782	0.61953
