3996.70104	0.99462
3994.64724	0.99452
3992.59344	0.99486
3990.53964	0.99527
3988.48583	0.99494
3986.43203	0.99435
3984.37823	0.99431
3982.32442	0.99432
3980.27062	0.99386
3978.21682	0.99360
3976.16301	0.99427
3974.10921	0.99532
3972.05541	0.99571
3970.00160	0.99563
3967.94780	0.99552
3965.89400	0.99514
3963.84019	0.99460
3961.78639	0.99432
3959.73259	0.99431
3957.67878	0.99449
3955.62498	0.99489
3953.57118	0.99512
3951.51737	0.99502
3949.46357	0.99508
3947.40977	0.99532
3945.35596	0.99502
3943.30216	0.99461
3941.24836	0.99468
3939.19455	0.99480
3937.14075	0.99472
3935.08695	0.99461
3933.03315	0.99463
3930.97934	0.99459
3928.92554	0.99430
3926.87174	0.99435
3924.81793	0.99474
3922.76413	0.99452
3920.71033	0.99394
3918.65652	0.99416
3916.60272	0.99507
3914.54892	0.99538
3912.49511	0.99488
3910.44131	0.99419
3908.38751	0.99374
3906.33370	0.99345
3904.27990	0.99361
3902.22610	0.99502
3900.17229	0.99600
3898.11849	0.99527
3896.06469	0.99444
3894.01088	0.99447
3891.95708	0.99499
3889.90328	0.99532
3887.84947	0.99542
3885.79567	0.99563
3883.74187	0.99573
3881.68807	0.99586
3879.63426	0.99598
3877.58046	0.99542
3875.52666	0.99464
3873.47285	0.99432
3871.41905	0.99422
3869.36525	0.99419
3867.31144	0.99467
3865.25764	0.99554
3863.20384	0.99616
3861.15003	0.99608
3859.09623	0.99561
3857.04243	0.99483
3854.98862	0.99358
3852.93482	0.99272
3850.88102	0.99329
3848.82721	0.99406
3846.77341	0.99445
3844.71961	0.99462
3842.66580	0.99502
3840.61200	0.99563
3838.55820	0.99641
3836.50439	0.99683
3834.45059	0.99635
3832.39679	0.99581
3830.34298	0.99566
3828.28918	0.99548
3826.23538	0.99521
3824.18158	0.99496
3822.12777	0.99434
3820.07397	0.99346
3818.02017	0.99353
3815.96636	0.99440
3813.91256	0.99519
3811.85876	0.99552
3809.80495	0.99525
3807.75115	0.99498
3805.69735	0.99526
3803.64354	0.99507
3801.58974	0.99466
3799.53594	0.99497
3797.48213	0.99506
3795.42833	0.99495
3793.37453	0.99504
3791.32072	0.99497
3789.26692	0.99474
3787.21312	0.99473
3785.15931	0.99506
3783.10551	0.99505
3781.05171	0.99460
3778.99790	0.99443
3776.94410	0.99465
3774.89030	0.99478
3772.83650	0.99483
3770.78269	0.99530
3768.72889	0.99610
3766.67509	0.99643
3764.62128	0.99594
3762.56748	0.99520
3760.51368	0.99506
3758.45987	0.99560
3756.40607	0.99602
3754.35227	0.99609
3752.29846	0.99659
3750.24466	0.99708
3748.19086	0.99672
3746.13705	0.99643
3744.08325	0.99642
3742.02945	0.99623
3739.97564	0.99590
3737.92184	0.99585
3735.86804	0.99575
3733.81423	0.99511
3731.76043	0.99476
3729.70663	0.99446
3727.65282	0.99421
3725.59902	0.99477
3723.54522	0.99560
3721.49141	0.99538
3719.43761	0.99472
3717.38381	0.99466
3715.33001	0.99456
3713.27620	0.99415
3711.22240	0.99470
3709.16860	0.99550
3707.11479	0.99498
3705.06099	0.99440
3703.00719	0.99435
3700.95338	0.99414
3698.89958	0.99362
3696.84578	0.99306
3694.79197	0.99277
3692.73817	0.99333
3690.68437	0.99402
3688.63056	0.99377
3686.57676	0.99395
3684.52296	0.99466
3682.46915	0.99463
3680.41535	0.99396
3678.36155	0.99352
3676.30774	0.99378
3674.25394	0.99436
3672.20014	0.99439
3670.14633	0.99398
3668.09253	0.99321
3666.03873	0.99268
3663.98492	0.99227
3661.93112	0.99157
3659.87732	0.99117
3657.82352	0.99126
3655.76971	0.99112
3653.71591	0.99071
3651.66211	0.99101
3649.60830	0.99170
3647.55450	0.99115
3645.50070	0.99080
3643.44689	0.99053
3641.39309	0.98936
3639.33929	0.98796
3637.28548	0.98722
3635.23168	0.98727
3633.17788	0.98732
3631.12407	0.98702
3629.07027	0.98680
3627.01647	0.98675
3624.96266	0.98669
3622.90886	0.98676
3620.85506	0.98704
3618.80125	0.98652
3616.74745	0.98512
3614.69365	0.98461
3612.63984	0.98484
3610.58604	0.98481
3608.53224	0.98467
3606.47844	0.98424
3604.42463	0.98325
3602.37083	0.98222
3600.31703	0.98151
3598.26322	0.98118
3596.20942	0.98121
3594.15562	0.98130
3592.10181	0.98112
3590.04801	0.98082
3587.99421	0.98038
3585.94040	0.97970
3583.88660	0.97918
3581.83280	0.97889
3579.77899	0.97869
3577.72519	0.97816
3575.67139	0.97713
3573.61758	0.97637
3571.56378	0.97604
3569.50998	0.97543
3567.45617	0.97451
3565.40237	0.97449
3563.34857	0.97509
3561.29476	0.97497
3559.24096	0.97399
3557.18716	0.97317
3555.13335	0.97318
3553.07955	0.97321
3551.02575	0.97269
3548.97195	0.97211
3546.91814	0.97169
3544.86434	0.97164
3542.81054	0.97156
3540.75673	0.97067
3538.70293	0.96936
3536.64913	0.96828
3534.59532	0.96767
3532.54152	0.96799
3530.48772	0.96862
3528.43391	0.96792
3526.38011	0.96643
3524.32631	0.96567
3522.27250	0.96567
3520.21870	0.96614
3518.16490	0.96641
3516.11109	0.96564
3514.05729	0.96443
3512.00349	0.96383
3509.94968	0.96373
3507.89588	0.96344
3505.84208	0.96264
3503.78827	0.96151
3501.73447	0.96093
3499.68067	0.96103
3497.62687	0.96075
3495.57306	0.95983
3493.51926	0.95889
3491.46546	0.95852
3489.41165	0.95886
3487.35785	0.95909
3485.30405	0.95850
3483.25024	0.95772
3481.19644	0.95723
3479.14264	0.95684
3477.08883	0.95635
3475.03503	0.95573
3472.98123	0.95540
3470.92742	0.95552
3468.87362	0.95522
3466.81982	0.95408
3464.76601	0.95298
3462.71221	0.95261
3460.65841	0.95267
3458.60460	0.95278
3456.55080	0.95266
3454.49700	0.95208
3452.44319	0.95121
3450.38939	0.95063
3448.33559	0.95046
3446.28178	0.95018
3444.22798	0.94953
3442.17418	0.94878
3440.12038	0.94803
3438.06657	0.94739
3436.01277	0.94700
3433.95897	0.94675
3431.90516	0.94676
3429.85136	0.94705
3427.79756	0.94741
3425.74375	0.94732
3423.68995	0.94678
3421.63615	0.94627
3419.58234	0.94566
3417.52854	0.94489
3415.47474	0.94413
3413.42093	0.94359
3411.36713	0.94372
3409.31333	0.94418
3407.25952	0.94420
3405.20572	0.94369
3403.15192	0.94308
3401.09811	0.94285
3399.04431	0.94278
3396.99051	0.94248
3394.93670	0.94229
3392.88290	0.94212
3390.82910	0.94191
3388.77529	0.94189
3386.72149	0.94186
3384.66769	0.94202
3382.61389	0.94227
3380.56008	0.94208
3378.50628	0.94165
3376.45248	0.94126
3374.39867	0.94104
3372.34487	0.94116
3370.29107	0.94142
3368.23726	0.94154
3366.18346	0.94155
3364.12966	0.94142
3362.07585	0.94106
3360.02205	0.94062
3357.96825	0.94047
3355.91444	0.94094
3353.86064	0.94137
3351.80684	0.94114
3349.75303	0.94081
3347.69923	0.94064
3345.64543	0.94062
3343.59162	0.94087
3341.53782	0.94119
3339.48402	0.94145
3337.43021	0.94150
3335.37641	0.94126
3333.32261	0.94114
3331.26881	0.94124
3329.21500	0.94119
3327.16120	0.94115
3325.10740	0.94153
3323.05359	0.94207
3320.99979	0.94240
3318.94599	0.94225
3316.89218	0.94184
3314.83838	0.94183
3312.78458	0.94206
3310.73077	0.94219
3308.67697	0.94235
3306.62317	0.94224
3304.56936	0.94173
3302.51556	0.94147
3300.46176	0.94199
3298.40795	0.94290
3296.35415	0.94347
3294.30035	0.94341
3292.24654	0.94296
3290.19274	0.94274
3288.13894	0.94315
3286.08513	0.94383
3284.03133	0.94416
3281.97753	0.94430
3279.92372	0.94456
3277.86992	0.94464
3275.81612	0.94488
3273.76232	0.94545
3271.70851	0.94576
3269.65471	0.94591
3267.60091	0.94606
3265.54710	0.94597
3263.49330	0.94600
3261.43950	0.94639
3259.38569	0.94665
3257.33189	0.94663
3255.27809	0.94681
3253.22428	0.94709
3251.17048	0.94708
3249.11668	0.94683
3247.06287	0.94691
3245.00907	0.94750
3242.95527	0.94788
3240.90146	0.94782
3238.84766	0.94795
3236.79386	0.94852
3234.74005	0.94907
3232.68625	0.94928
3230.63245	0.94932
3228.57864	0.94943
3226.52484	0.94975
3224.47104	0.94994
3222.41724	0.95009
3220.36343	0.95066
3218.30963	0.95123
3216.25583	0.95141
3214.20202	0.95153
3212.14822	0.95171
3210.09442	0.95207
3208.04061	0.95253
3205.98681	0.95289
3203.93301	0.95330
3201.87920	0.95362
3199.82540	0.95372
3197.77160	0.95376
3195.71779	0.95372
3193.66399	0.95361
3191.61019	0.95384
3189.55638	0.95434
3187.50258	0.95445
3185.44878	0.95425
3183.39497	0.95409
3181.34117	0.95426
3179.28737	0.95487
3177.23356	0.95533
3175.17976	0.95531
3173.12596	0.95516
3171.07215	0.95516
3169.01835	0.95535
3166.96455	0.95560
3164.91075	0.95579
3162.85694	0.95599
3160.80314	0.95618
3158.74934	0.95623
3156.69553	0.95617
3154.64173	0.95628
3152.58793	0.95690
3150.53412	0.95777
3148.48032	0.95818
3146.42652	0.95803
3144.37271	0.95784
3142.31891	0.95822
3140.26511	0.95915
3138.21130	0.95958
3136.15750	0.95932
3134.10370	0.95913
3132.04989	0.95916
3129.99609	0.95947
3127.94229	0.96028
3125.88848	0.96088
3123.83468	0.96072
3121.78088	0.96045
3119.72707	0.96031
3117.67327	0.96035
3115.61947	0.96079
3113.56566	0.96112
3111.51186	0.96118
3109.45806	0.96120
3107.40426	0.96123
3105.35045	0.96125
3103.29665	0.96115
3101.24285	0.96102
3099.18904	0.96134
3097.13524	0.96209
3095.08144	0.96248
3093.02763	0.96221
3090.97383	0.96234
3088.92003	0.96306
3086.86622	0.96346
3084.81242	0.96349
3082.75862	0.96353
3080.70481	0.96373
3078.65101	0.96423
3076.59721	0.96466
3074.54340	0.96462
3072.48960	0.96445
3070.43580	0.96445
3068.38199	0.96464
3066.32819	0.96504
3064.27439	0.96528
3062.22058	0.96527
3060.16678	0.96504
3058.11298	0.96463
3056.05918	0.96468
3054.00537	0.96533
3051.95157	0.96590
3049.89777	0.96595
3047.84396	0.96594
3045.79016	0.96628
3043.73636	0.96657
3041.68255	0.96641
3039.62875	0.96622
3037.57495	0.96647
3035.52114	0.96674
3033.46734	0.96672
3031.41354	0.96656
3029.35973	0.96642
3027.30593	0.96636
3025.25213	0.96635
3023.19832	0.96643
3021.14452	0.96660
3019.09072	0.96664
3017.03691	0.96670
3014.98311	0.96711
3012.92931	0.96744
3010.87550	0.96743
3008.82170	0.96757
3006.76790	0.96793
3004.71409	0.96820
3002.66029	0.96834
3000.60649	0.96839
2998.55269	0.96844
2996.49888	0.96865
2994.44508	0.96876
2992.39128	0.96865
2990.33747	0.96872
2988.28367	0.96926
2986.22987	0.96962
2984.17606	0.96927
2982.12226	0.96875
2980.06846	0.96857
2978.01465	0.96890
2975.96085	0.96963
2973.90705	0.97011
2971.85324	0.97020
2969.79944	0.97031
2967.74564	0.97024
2965.69183	0.97003
2963.63803	0.97027
2961.58423	0.97072
2959.53042	0.97080
2957.47662	0.97046
2955.42282	0.97009
2953.36901	0.97024
2951.31521	0.97066
2949.26141	0.97069
2947.20761	0.97050
2945.15380	0.97044
2943.10000	0.97062
2941.04620	0.97093
2938.99239	0.97093
2936.93859	0.97063
2934.88479	0.97031
2932.83098	0.97018
2930.77718	0.97033
2928.72338	0.97043
2926.66957	0.97035
2924.61577	0.97023
2922.56197	0.97012
2920.50816	0.97029
2918.45436	0.97068
2916.40056	0.97078
2914.34675	0.97061
2912.29295	0.97079
2910.23915	0.97152
2908.18534	0.97222
2906.13154	0.97235
2904.07774	0.97215
2902.02393	0.97219
2899.97013	0.97257
2897.91633	0.97295
2895.86252	0.97323
2893.80872	0.97365
2891.75492	0.97400
2889.70112	0.97431
2887.64731	0.97479
2885.59351	0.97501
2883.53971	0.97495
2881.48590	0.97513
2879.43210	0.97537
2877.37830	0.97539
2875.32449	0.97530
2873.27069	0.97517
2871.21689	0.97521
2869.16308	0.97573
2867.10928	0.97633
2865.05548	0.97637
2863.00167	0.97600
2860.94787	0.97582
2858.89407	0.97599
2856.84026	0.97624
2854.78646	0.97624
2852.73266	0.97597
2850.67885	0.97581
2848.62505	0.97598
2846.57125	0.97625
2844.51744	0.97662
2842.46364	0.97711
2840.40984	0.97759
2838.35603	0.97807
2836.30223	0.97835
2834.24843	0.97825
2832.19463	0.97811
2830.14082	0.97830
2828.08702	0.97872
2826.03322	0.97910
2823.97941	0.97938
2821.92561	0.97959
2819.87181	0.97971
2817.81800	0.97971
2815.76420	0.97972
2813.71040	0.97996
2811.65659	0.98006
2809.60279	0.98011
2807.54899	0.98065
2805.49518	0.98120
2803.44138	0.98142
2801.38758	0.98159
2799.33377	0.98151
2797.27997	0.98118
2795.22617	0.98105
2793.17236	0.98107
2791.11856	0.98123
2789.06476	0.98162
2787.01095	0.98180
2784.95715	0.98170
2782.90335	0.98174
2780.84955	0.98193
2778.79574	0.98216
2776.74194	0.98253
2774.68814	0.98274
2772.63433	0.98255
2770.58053	0.98239
2768.52673	0.98264
2766.47292	0.98309
2764.41912	0.98334
2762.36532	0.98326
2760.31151	0.98319
2758.25771	0.98348
2756.20391	0.98390
2754.15010	0.98420
2752.09630	0.98425
2750.04250	0.98408
2747.98869	0.98404
2745.93489	0.98426
2743.88109	0.98445
2741.82728	0.98438
2739.77348	0.98425
2737.71968	0.98436
2735.66587	0.98462
2733.61207	0.98475
2731.55827	0.98483
2729.50446	0.98486
2727.45066	0.98494
2725.39686	0.98524
2723.34306	0.98556
2721.28925	0.98563
2719.23545	0.98569
2717.18165	0.98581
2715.12784	0.98584
2713.07404	0.98593
2711.02024	0.98609
2708.96643	0.98631
2706.91263	0.98668
2704.85883	0.98686
2702.80502	0.98657
2700.75122	0.98623
2698.69742	0.98629
2696.64361	0.98637
2694.58981	0.98615
2692.53601	0.98614
2690.48220	0.98629
2688.42840	0.98613
2686.37460	0.98612
2684.32079	0.98667
2682.26699	0.98725
2680.21319	0.98726
2678.15938	0.98697
2676.10558	0.98682
2674.05178	0.98676
2671.99797	0.98684
2669.94417	0.98713
2667.89037	0.98749
2665.83657	0.98767
2663.78276	0.98751
2661.72896	0.98713
2659.67516	0.98673
2657.62135	0.98652
2655.56755	0.98656
2653.51375	0.98661
2651.45994	0.98672
2649.40614	0.98701
2647.35234	0.98716
2645.29853	0.98708
2643.24473	0.98709
2641.19093	0.98712
2639.13712	0.98688
2637.08332	0.98684
2635.02952	0.98733
2632.97571	0.98774
2630.92191	0.98797
2628.86811	0.98820
2626.81430	0.98813
2624.76050	0.98769
2622.70670	0.98752
2620.65289	0.98780
2618.59909	0.98787
2616.54529	0.98795
2614.49149	0.98840
2612.43768	0.98861
2610.38388	0.98838
2608.33008	0.98808
2606.27627	0.98794
2604.22247	0.98792
2602.16867	0.98807
2600.11486	0.98834
2598.06106	0.98857
2596.00726	0.98894
2593.95345	0.98903
2591.89965	0.98853
2589.84585	0.98821
2587.79204	0.98827
2585.73824	0.98829
2583.68444	0.98814
2581.63063	0.98803
2579.57683	0.98813
2577.52303	0.98868
2575.46922	0.98961
2573.41542	0.99003
2571.36162	0.98970
2569.30781	0.98904
2567.25401	0.98826
2565.20021	0.98789
2563.14640	0.98810
2561.09260	0.98836
2559.03880	0.98831
2556.98500	0.98816
2554.93119	0.98836
2552.87739	0.98916
2550.82359	0.98988
2548.76978	0.98913
2546.71598	0.98771
2544.66218	0.98776
2542.60837	0.98860
2540.55457	0.98855
2538.50077	0.98837
2536.44696	0.98874
2534.39316	0.98863
2532.33936	0.98789
2530.28555	0.98759
2528.23175	0.98784
2526.17795	0.98793
2524.12414	0.98834
2522.07034	0.98918
2520.01654	0.98950
2517.96273	0.98942
2515.90893	0.98932
2513.85513	0.98900
2511.80132	0.98846
2509.74752	0.98842
2507.69372	0.98922
2505.63992	0.98966
2503.58611	0.98949
2501.53231	0.98950
2499.47851	0.98943
2497.42470	0.98869
2495.37090	0.98793
2493.31710	0.98812
2491.26329	0.98888
2489.20949	0.98964
2487.15569	0.99008
2485.10188	0.99006
2483.04808	0.99022
2480.99428	0.99067
2478.94047	0.99073
2476.88667	0.99056
2474.83287	0.99090
2472.77906	0.99143
2470.72526	0.99134
2468.67146	0.99086
2466.61765	0.99052
2464.56385	0.99047
2462.51005	0.99079
2460.45624	0.99112
2458.40244	0.99117
2456.34864	0.99123
2454.29483	0.99153
2452.24103	0.99147
2450.18723	0.99082
2448.13343	0.99083
2446.07962	0.99151
2444.02582	0.99161
2441.97202	0.99089
2439.91821	0.99013
2437.86441	0.98988
2435.81061	0.99003
2433.75680	0.99042
2431.70300	0.99087
2429.64920	0.99117
2427.59539	0.99125
2425.54159	0.99075
2423.48779	0.98996
2421.43398	0.98986
2419.38018	0.99051
2417.32638	0.99088
2415.27257	0.99062
2413.21877	0.99068
2411.16497	0.99114
2409.11116	0.99114
2407.05736	0.99129
2405.00356	0.99186
2402.94975	0.99179
2400.89595	0.99138
2398.84215	0.99113
2396.78834	0.99121
2394.73454	0.99166
2392.68074	0.99167
2390.62694	0.99139
2388.57313	0.99155
2386.51933	0.99177
2384.46553	0.99166
2382.41172	0.99170
2380.35792	0.99203
2378.30412	0.99194
2376.25031	0.99111
2374.19651	0.98995
2372.14271	0.98991
2370.08890	0.99168
2368.03510	0.99291
2365.98130	0.99158
2363.92749	0.98987
2361.87369	0.98984
2359.81989	0.99006
2357.76608	0.98958
2355.71228	0.98920
2353.65848	0.98936
2351.60467	0.98948
2349.55087	0.98946
2347.49707	0.98984
2345.44326	0.99007
2343.38946	0.98951
2341.33566	0.98912
2339.28186	0.98892
2337.22805	0.98877
2335.17425	0.98908
2333.12045	0.98964
2331.06664	0.99052
2329.01284	0.99130
2326.95904	0.99105
2324.90523	0.99025
2322.85143	0.98966
2320.79763	0.98909
2318.74382	0.98909
2316.69002	0.98962
2314.63622	0.98966
2312.58241	0.98989
2310.52861	0.99073
2308.47481	0.99140
2306.42100	0.99184
2304.36720	0.99216
2302.31340	0.99220
2300.25959	0.99195
2298.20579	0.99144
2296.15199	0.99078
2294.09818	0.99047
2292.04438	0.99035
2289.99058	0.99004
2287.93677	0.99034
2285.88297	0.99098
2283.82917	0.99117
2281.77537	0.99134
2279.72156	0.99185
2277.66776	0.99215
2275.61396	0.99196
2273.56015	0.99158
2271.50635	0.99147
2269.45255	0.99186
2267.39874	0.99177
2265.34494	0.99111
2263.29114	0.99109
2261.23733	0.99162
2259.18353	0.99189
2257.12973	0.99158
2255.07592	0.99073
2253.02212	0.99020
2250.96832	0.99110
2248.91451	0.99205
2246.86071	0.99166
2244.80691	0.99085
2242.75310	0.99036
2240.69930	0.99010
2238.64550	0.98974
2236.59169	0.98942
2234.53789	0.98940
2232.48409	0.98947
2230.43029	0.98982
2228.37648	0.98999
2226.32268	0.98950
2224.26888	0.99036
2222.21507	0.99253
2220.16127	0.99281
2218.10747	0.99190
2216.05366	0.99209
2213.99986	0.99247
2211.94606	0.99167
2209.89225	0.99077
2207.83845	0.99119
2205.78465	0.99151
2203.73084	0.98997
2201.67704	0.98812
2199.62324	0.98824
2197.56943	0.98980
2195.51563	0.99103
2193.46183	0.99106
2191.40802	0.99042
2189.35422	0.98983
2187.30042	0.98977
2185.24661	0.99110
2183.19281	0.99375
2181.13901	0.99554
2179.08520	0.99360
2177.03140	0.99042
2174.97760	0.99046
2172.92380	0.99165
2170.86999	0.99084
2168.81619	0.98972
2166.76239	0.99042
2164.70858	0.99123
2162.65478	0.98981
2160.60098	0.98741
2158.54717	0.98690
2156.49337	0.98876
2154.43957	0.99105
2152.38576	0.99154
2150.33196	0.99061
2148.27816	0.99022
2146.22435	0.98863
2144.17055	0.98619
2142.11675	0.98685
2140.06294	0.98985
2138.00914	0.99151
2135.95534	0.99120
2133.90153	0.99123
2131.84773	0.99212
2129.79393	0.99354
2127.74012	0.99542
2125.68632	0.99564
2123.63252	0.99324
2121.57871	0.99020
2119.52491	0.98907
2117.47111	0.99004
2115.41731	0.99050
2113.36350	0.98970
2111.30970	0.98955
2109.25590	0.99034
2107.20209	0.99043
2105.14829	0.98954
2103.09449	0.98917
2101.04068	0.99027
2098.98688	0.99215
2096.93308	0.99285
2094.87927	0.99173
2092.82547	0.99055
2090.77167	0.99025
2088.71786	0.98997
2086.66406	0.98971
2084.61026	0.98991
2082.55645	0.98952
2080.50265	0.98814
2078.44885	0.98742
2076.39504	0.98733
2074.34124	0.98677
2072.28744	0.98752
2070.23363	0.98913
2068.17983	0.98867
2066.12603	0.98798
2064.07223	0.98892
2062.01842	0.98955
2059.96462	0.98902
2057.91082	0.98847
2055.85701	0.98887
2053.80321	0.98806
2051.74941	0.98537
2049.69560	0.98530
2047.64180	0.98840
2045.58800	0.99045
2043.53419	0.99093
2041.48039	0.99162
2039.42659	0.99293
2037.37278	0.99307
2035.31898	0.99116
2033.26518	0.98995
2031.21137	0.99029
2029.15757	0.99000
2027.10377	0.98921
2025.04996	0.98897
2022.99616	0.98957
2020.94236	0.98981
2018.88855	0.98822
2016.83475	0.98629
2014.78095	0.98508
2012.72714	0.98576
2010.67334	0.98859
2008.61954	0.98886
2006.56574	0.98746
2004.51193	0.98891
2002.45813	0.98951
2000.40433	0.98799
1998.35052	0.98770
1996.29672	0.98868
1994.24292	0.98975
1992.18911	0.99010
1990.13531	0.99000
1988.08151	0.98974
1986.02770	0.98911
1983.97390	0.98936
1981.92010	0.99059
1979.86629	0.99148
1977.81249	0.99235
1975.75869	0.99395
1973.70488	0.99412
1971.65108	0.99125
1969.59728	0.98872
1967.54347	0.98892
1965.48967	0.99058
1963.43587	0.99248
1961.38206	0.99287
1959.32826	0.99123
1957.27446	0.99031
1955.22066	0.99068
1953.16685	0.99039
1951.11305	0.99021
1949.05925	0.99078
1947.00544	0.99033
1944.95164	0.98906
1942.89784	0.98854
1940.84403	0.98919
1938.79023	0.99043
1936.73643	0.99125
1934.68262	0.99171
1932.62882	0.99211
1930.57502	0.99187
1928.52121	0.99161
1926.46741	0.99206
1924.41361	0.99230
1922.35980	0.99245
1920.30600	0.99314
1918.25220	0.99304
1916.19839	0.99190
1914.14459	0.99104
1912.09079	0.99036
1910.03698	0.98962
1907.98318	0.98952
1905.92938	0.99007
1903.87557	0.99037
1901.82177	0.99059
1899.76797	0.99097
1897.71417	0.99067
1895.66036	0.99000
1893.60656	0.98982
1891.55276	0.98965
1889.49895	0.98945
1887.44515	0.98985
1885.39135	0.99073
1883.33754	0.99152
1881.28374	0.99195
1879.22994	0.99217
1877.17613	0.99215
1875.12233	0.99163
1873.06853	0.99100
1871.01472	0.99094
1868.96092	0.99098
1866.90712	0.99052
1864.85331	0.99035
1862.79951	0.99074
1860.74571	0.99113
1858.69190	0.99121
1856.63810	0.99055
1854.58430	0.98941
1852.53049	0.98941
1850.47669	0.99058
1848.42289	0.99137
1846.36908	0.99154
1844.31528	0.99157
1842.26148	0.99112
1840.20768	0.99046
1838.15387	0.99040
1836.10007	0.99075
1834.04627	0.99088
1831.99246	0.99085
1829.93866	0.99070
1827.88486	0.99047
1825.83105	0.99059
1823.77725	0.99080
1821.72345	0.99055
1819.66964	0.99039
1817.61584	0.99089
1815.56204	0.99130
1813.50823	0.99115
1811.45443	0.99086
1809.40063	0.99050
1807.34682	0.99011
1805.29302	0.98998
1803.23922	0.98992
1801.18541	0.98970
1799.13161	0.98890
1797.07781	0.98761
1795.02400	0.98677
1792.97020	0.98664
1790.91640	0.98626
1788.86260	0.98525
1786.80879	0.98430
1784.75499	0.98407
1782.70119	0.98455
1780.64738	0.98503
1778.59358	0.98554
1776.53978	0.98661
1774.48597	0.98776
1772.43217	0.98843
1770.37837	0.98925
1768.32456	0.98989
1766.27076	0.98945
1764.21696	0.98838
1762.16315	0.98766
1760.10935	0.98789
1758.05555	0.98863
1756.00174	0.98919
1753.94794	0.98952
1751.89414	0.98982
1749.84033	0.98973
1747.78653	0.98898
1745.73273	0.98821
1743.67892	0.98768
1741.62512	0.98746
1739.57132	0.98750
1737.51751	0.98742
1735.46371	0.98740
1733.40991	0.98750
1731.35611	0.98738
1729.30230	0.98720
1727.24850	0.98706
1725.19470	0.98712
1723.14089	0.98749
1721.08709	0.98775
1719.03329	0.98758
1716.97948	0.98735
1714.92568	0.98738
1712.87188	0.98702
1710.81807	0.98641
1708.76427	0.98617
1706.71047	0.98614
1704.65666	0.98566
1702.60286	0.98499
1700.54906	0.98459
1698.49525	0.98442
1696.44145	0.98443
1694.38765	0.98420
1692.33384	0.98349
1690.28004	0.98269
1688.22624	0.98229
1686.17243	0.98248
1684.11863	0.98260
1682.06483	0.98175
1680.01103	0.98093
1677.95722	0.98067
1675.90342	0.98059
1673.84962	0.98012
1671.79581	0.97969
1669.74201	0.97935
1667.68821	0.97854
1665.63440	0.97786
1663.58060	0.97752
1661.52680	0.97726
1659.47299	0.97692
1657.41919	0.97642
1655.36539	0.97578
1653.31158	0.97516
1651.25778	0.97509
1649.20398	0.97542
1647.15017	0.97552
1645.09637	0.97500
1643.04257	0.97465
1640.98876	0.97457
1638.93496	0.97427
1636.88116	0.97368
1634.82735	0.97324
1632.77355	0.97312
1630.71975	0.97305
1628.66594	0.97282
1626.61214	0.97250
1624.55834	0.97264
1622.50454	0.97308
1620.45073	0.97305
1618.39693	0.97280
1616.34313	0.97279
1614.28932	0.97307
1612.23552	0.97324
1610.18172	0.97306
1608.12791	0.97265
1606.07411	0.97238
1604.02031	0.97232
1601.96650	0.97214
1599.91270	0.97188
1597.85890	0.97168
1595.80509	0.97140
1593.75129	0.97111
1591.69749	0.97073
1589.64368	0.97026
1587.58988	0.96986
1585.53608	0.96941
1583.48227	0.96863
1581.42847	0.96758
1579.37467	0.96660
1577.32086	0.96546
1575.26706	0.96337
1573.21326	0.96130
1571.15945	0.95948
1569.10565	0.95705
1567.05185	0.95534
1564.99805	0.95490
1562.94424	0.95464
1560.89044	0.95427
1558.83664	0.95340
1556.78283	0.95134
1554.72903	0.94949
1552.67523	0.94776
1550.62142	0.94568
1548.56762	0.94332
1546.51382	0.94125
1544.46001	0.93935
1542.40621	0.93757
1540.35241	0.93548
1538.29860	0.93287
1536.24480	0.93105
1534.19100	0.92907
1532.13719	0.92627
1530.08339	0.92397
1528.02959	0.92233
1525.97578	0.92070
1523.92198	0.91919
1521.86818	0.91717
1519.81437	0.91412
1517.76057	0.91143
1515.70677	0.90919
1513.65297	0.90695
1511.59916	0.90484
1509.54536	0.90310
1507.49156	0.90083
1505.43775	0.89722
1503.38395	0.89434
1501.33015	0.89209
1499.27634	0.89004
1497.22254	0.88748
1495.16874	0.88457
1493.11493	0.88251
1491.06113	0.88037
1489.00733	0.87740
1486.95352	0.87485
1484.89972	0.87272
1482.84592	0.87028
1480.79211	0.86764
1478.73831	0.86525
1476.68451	0.86314
1474.63070	0.86106
1472.57690	0.85866
1470.52310	0.85673
1468.46929	0.85592
1466.41549	0.85562
1464.36169	0.85559
1462.30788	0.85598
1460.25408	0.85660
1458.20028	0.85675
1456.14648	0.85555
1454.09267	0.85432
1452.03887	0.85366
1449.98507	0.85309
1447.93126	0.85237
1445.87746	0.85173
1443.82366	0.85166
1441.76985	0.85245
1439.71605	0.85385
1437.66225	0.85538
1435.60844	0.85681
1433.55464	0.85791
1431.50084	0.85892
1429.44703	0.86012
1427.39323	0.86121
1425.33943	0.86197
1423.28562	0.86281
1421.23182	0.86372
1419.17802	0.86443
1417.12421	0.86513
1415.07041	0.86597
1413.01661	0.86687
1410.96280	0.86746
1408.90900	0.86773
1406.85520	0.86850
1404.80139	0.86970
1402.74759	0.87022
1400.69379	0.87012
1398.63999	0.87022
1396.58618	0.87098
1394.53238	0.87194
1392.47858	0.87245
1390.42477	0.87276
1388.37097	0.87326
1386.31717	0.87377
1384.26336	0.87389
1382.20956	0.87392
1380.15576	0.87426
1378.10195	0.87451
1376.04815	0.87423
1373.99435	0.87362
1371.94054	0.87302
1369.88674	0.87234
1367.83294	0.87152
1365.77913	0.87084
1363.72533	0.87042
1361.67153	0.86989
1359.61772	0.86929
1357.56392	0.86900
1355.51012	0.86898
1353.45631	0.86917
1351.40251	0.86962
1349.34871	0.87012
1347.29491	0.87076
1345.24110	0.87201
1343.18730	0.87385
1341.13350	0.87602
1339.07969	0.87865
1337.02589	0.88149
1334.97209	0.88427
1332.91828	0.88721
1330.86448	0.89040
1328.81068	0.89382
1326.75687	0.89731
1324.70307	0.90078
1322.64927	0.90414
1320.59546	0.90725
1318.54166	0.91029
1316.48786	0.91326
1314.43405	0.91599
1312.38025	0.91843
1310.32645	0.92078
1308.27264	0.92346
1306.21884	0.92616
1304.16504	0.92836
1302.11123	0.93033
1300.05743	0.93233
1298.00363	0.93428
1295.94982	0.93601
1293.89602	0.93754
1291.84222	0.93893
1289.78842	0.94022
1287.73461	0.94141
1285.68081	0.94251
1283.62701	0.94367
1281.57320	0.94487
1279.51940	0.94586
1277.46560	0.94655
1275.41179	0.94708
1273.35799	0.94778
1271.30419	0.94881
1269.25038	0.94980
1267.19658	0.95061
1265.14278	0.95132
1263.08897	0.95214
1261.03517	0.95306
1258.98137	0.95352
1256.92756	0.95372
1254.87376	0.95440
1252.81996	0.95509
1250.76615	0.95543
1248.71235	0.95602
1246.65855	0.95689
1244.60474	0.95754
1242.55094	0.95787
1240.49714	0.95793
1238.44334	0.95796
1236.38953	0.95822
1234.33573	0.95868
1232.28193	0.95931
1230.22812	0.95991
1228.17432	0.96016
1226.12052	0.96019
1224.06671	0.96023
1222.01291	0.96029
1219.95911	0.96060
1217.90530	0.96128
1215.85150	0.96193
1213.79770	0.96213
1211.74389	0.96188
1209.69009	0.96167
1207.63629	0.96169
1205.58248	0.96153
1203.52868	0.96139
1201.47488	0.96160
1199.42107	0.96175
1197.36727	0.96141
1195.31347	0.96085
1193.25966	0.96059
1191.20586	0.96057
1189.15206	0.96032
1187.09825	0.96013
1185.04445	0.96029
1182.99065	0.96027
1180.93685	0.95997
1178.88304	0.95966
1176.82924	0.95933
1174.77544	0.95882
1172.72163	0.95829
1170.66783	0.95820
1168.61403	0.95833
1166.56022	0.95805
1164.50642	0.95762
1162.45262	0.95748
1160.39881	0.95776
1158.34501	0.95838
1156.29121	0.95884
1154.23740	0.95888
1152.18360	0.95842
1150.12980	0.95762
1148.07599	0.95713
1146.02219	0.95735
1143.96839	0.95785
1141.91458	0.95812
1139.86078	0.95813
1137.80698	0.95804
1135.75317	0.95793
1133.69937	0.95754
1131.64557	0.95665
1129.59176	0.95585
1127.53796	0.95584
1125.48416	0.95629
1123.43036	0.95645
1121.37655	0.95611
1119.32275	0.95539
1117.26895	0.95469
1115.21514	0.95424
1113.16134	0.95372
1111.10754	0.95322
1109.05373	0.95302
1106.99993	0.95276
1104.94613	0.95266
1102.89232	0.95303
1100.83852	0.95323
1098.78472	0.95297
1096.73091	0.95255
1094.67711	0.95194
1092.62331	0.95124
1090.56950	0.95062
1088.51570	0.94937
1086.46190	0.94566
1084.40809	0.93946
1082.35429	0.93564
1080.30049	0.93772
1078.24668	0.94209
1076.19288	0.94471
1074.13908	0.94571
1072.08528	0.94615
1070.03147	0.94631
1067.97767	0.94628
1065.92387	0.94620
1063.87006	0.94605
1061.81626	0.94564
1059.76246	0.94500
1057.70865	0.94419
1055.65485	0.94339
1053.60105	0.94293
1051.54724	0.94244
1049.49344	0.94164
1047.43964	0.94118
1045.38583	0.94134
1043.33203	0.94150
1041.27823	0.94129
1039.22442	0.94055
1037.17062	0.93938
1035.11682	0.93847
1033.06301	0.93815
1031.00921	0.93796
1028.95541	0.93775
1026.90160	0.93750
1024.84780	0.93697
1022.79400	0.93649
1020.74019	0.93643
1018.68639	0.93634
1016.63259	0.93607
1014.57879	0.93611
1012.52498	0.93619
1010.47118	0.93596
1008.41738	0.93558
1006.36357	0.93501
1004.30977	0.93461
1002.25597	0.93491
1000.20216	0.93557
998.14836	0.93569
996.09456	0.93517
994.04075	0.93487
991.98695	0.93505
989.93315	0.93528
987.87934	0.93541
985.82554	0.93562
983.77174	0.93568
981.71793	0.93547
979.66413	0.93562
977.61033	0.93634
975.55652	0.93702
973.50272	0.93722
971.44892	0.93722
969.39511	0.93757
967.34131	0.93794
965.28751	0.93782
963.23371	0.93767
961.17990	0.93761
959.12610	0.93741
957.07230	0.93740
955.01849	0.93770
952.96469	0.93775
950.91089	0.93753
948.85708	0.93750
946.80328	0.93731
944.74948	0.93674
942.69567	0.93622
940.64187	0.93584
938.58807	0.93571
936.53426	0.93603
934.48046	0.93626
932.42666	0.93614
930.37285	0.93603
928.31905	0.93577
926.26525	0.93530
924.21144	0.93517
922.15764	0.93537
920.10384	0.93541
918.05003	0.93509
915.99623	0.93507
913.94243	0.93586
911.88862	0.93616
909.83482	0.93513
907.78102	0.93393
905.72722	0.93366
903.67341	0.93418
901.61961	0.93477
899.56581	0.93494
897.51200	0.93468
895.45820	0.93396
893.40440	0.93308
891.35059	0.93259
889.29679	0.93261
887.24299	0.93280
885.18918	0.93232
883.13538	0.93099
881.08158	0.92935
879.02777	0.92742
876.97397	0.92482
874.92017	0.92072
872.86636	0.91329
870.81256	0.90164
868.75876	0.88779
866.70495	0.87396
864.65115	0.86075
862.59735	0.84912
860.54354	0.84036
858.48974	0.83486
856.43594	0.83246
854.38213	0.83340
852.32833	0.83854
850.27453	0.84752
848.22073	0.85751
846.16692	0.86436
844.11312	0.86683
842.05932	0.86900
840.00551	0.87389
837.95171	0.87941
835.89791	0.88374
833.84410	0.88804
831.79030	0.89225
829.73650	0.89501
827.68269	0.89709
825.62889	0.89928
823.57509	0.90076
821.52128	0.90144
819.46748	0.90145
817.41368	0.90137
815.35987	0.90233
813.30607	0.90393
811.25227	0.90500
809.19846	0.90516
807.14466	0.90474
805.09086	0.90421
803.03705	0.90383
800.98325	0.90380
798.92945	0.90391
796.87565	0.90387
794.82184	0.90377
792.76804	0.90358
790.71424	0.90282
788.66043	0.90188
786.60663	0.90132
784.55283	0.90096
782.49902	0.90068
780.44522	0.90043
778.39142	0.90043
776.33761	0.90077
774.28381	0.90127
772.23001	0.90160
770.17620	0.90112
768.12240	0.89999
766.06860	0.89968
764.01479	0.90052
761.96099	0.90090
759.90719	0.90015
757.85338	0.89950
755.79958	0.89928
753.74578	0.89905
751.69197	0.89941
749.63817	0.90043
747.58437	0.90105
745.53056	0.90089
743.47676	0.90076
741.42296	0.90096
739.36916	0.90124
737.31535	0.90221
735.26155	0.90353
733.20775	0.90386
731.15394	0.90343
729.10014	0.90320
727.04634	0.90354
724.99253	0.90458
722.93873	0.90579
720.88493	0.90545
718.83112	0.90242
716.77732	0.89493
714.72352	0.88214
712.66971	0.87426
710.61591	0.88107
708.56211	0.89379
706.50830	0.90096
704.45450	0.90088
702.40070	0.89476
700.34689	0.88850
698.29309	0.88956
696.23929	0.89597
694.18548	0.90164
692.13168	0.90550
690.07788	0.90775
688.02408	0.90751
685.97027	0.90619
683.91647	0.90612
681.86267	0.90732
679.80886	0.90867
677.75506	0.90949
675.70126	0.90997
673.64745	0.91046
671.59365	0.91076
669.53985	0.91067
667.48604	0.91113
665.43224	0.91261
663.37844	0.91376
661.32463	0.91402
659.27083	0.91418
657.21703	0.91534
655.16322	0.91630
653.10942	0.91624
651.05562	0.91640
649.00181	0.91669
646.94801	0.91653
644.89421	0.91637
642.84040	0.91633
640.78660	0.91569
638.73280	0.91431
636.67899	0.91330
634.62519	0.91327
632.57139	0.91346
630.51759	0.91241
628.46378	0.90952
626.40998	0.90653
624.35618	0.90507
622.30237	0.90458
620.24857	0.90354
618.19477	0.90183
616.14096	0.90079
614.08716	0.90020
612.03336	0.89920
609.97955	0.89865
607.92575	0.89927
605.87195	0.89983
603.81814	0.89967
601.76434	0.89911
599.71054	0.89706
597.65673	0.89406
595.60293	0.89290
593.54913	0.89392
591.49532	0.89499
589.44152	0.89469
587.38772	0.89421
585.33391	0.89477
583.28011	0.89542
581.22631	0.89543
579.17250	0.89499
577.11870	0.89427
575.06490	0.89346
573.01110	0.89317
570.95729	0.89289
568.90349	0.89195
566.84969	0.89181
564.79588	0.89168
562.74208	0.89043
560.68828	0.88886
558.63447	0.88706
556.58067	0.88611
554.52687	0.88566
552.47306	0.88409
550.41926	0.88258
548.36546	0.88141
546.31165	0.87957
544.25785	0.87813
542.20405	0.87811
540.15024	0.87856
538.09644	0.87883
536.04264	0.87991
533.98883	0.88137
531.93503	0.88241
529.88123	0.88283
527.82742	0.88221
525.77362	0.88190
523.71982	0.88282
521.66602	0.88319
519.61221	0.88319
517.55841	0.88499
515.50461	0.88688
513.45080	0.88803
511.39700	0.88976
509.34320	0.89134
507.28939	0.89324
505.23559	0.89576
503.18179	0.89869
501.12798	0.90201
499.07418	0.90307
497.02038	0.90113
494.96657	0.89938
492.91277	0.89995
490.85897	0.90241
488.80516	0.90551
486.75136	0.90766
484.69756	0.90704
482.64375	0.90408
480.58995	0.90171
478.53615	0.90168
476.48234	0.90318
474.42854	0.90354
472.37474	0.90242
470.32093	0.90331
468.26713	0.90529
466.21333	0.90432
464.15953	0.90204
462.10572	0.90158
460.05192	0.90283
457.99812	0.90390
455.94431	0.90272
453.89051	0.90040
451.83671	0.89797
449.78290	0.89574
447.72910	0.89412
445.67530	0.89311
443.62149	0.89274
441.56769	0.89283
439.51389	0.89133
437.46008	0.88714
435.40628	0.88298
433.35248	0.88019
431.29867	0.87684
429.24487	0.87116
427.19107	0.86500
425.13726	0.86389
423.08346	0.86620
421.02966	0.86426
418.97585	0.86327
416.92205	0.86856
414.86825	0.86983
412.81445	0.86676
410.76064	0.86585
408.70684	0.86817
406.65304	0.86543
404.59923	0.85997
402.54543	0.86113
400.49163	0.86531
398.43782	0.86917
