3996.70104	0.97588
3994.64724	0.97532
3992.59344	0.97463
3990.53964	0.97431
3988.48583	0.97458
3986.43203	0.97494
3984.37823	0.97519
3982.32442	0.97513
3980.27062	0.97465
3978.21682	0.97440
3976.16301	0.97455
3974.10921	0.97455
3972.05541	0.97435
3970.00160	0.97433
3967.94780	0.97452
3965.89400	0.97472
3963.84019	0.97475
3961.78639	0.97468
3959.73259	0.97459
3957.67878	0.97457
3955.62498	0.97455
3953.57118	0.97458
3951.51737	0.97462
3949.46357	0.97441
3947.40977	0.97451
3945.35596	0.97505
3943.30216	0.97530
3941.24836	0.97506
3939.19455	0.97475
3937.14075	0.97459
3935.08695	0.97460
3933.03315	0.97494
3930.97934	0.97520
3928.92554	0.97485
3926.87174	0.97454
3924.81793	0.97471
3922.76413	0.97509
3920.71033	0.97542
3918.65652	0.97553
3916.60272	0.97541
3914.54892	0.97526
3912.49511	0.97515
3910.44131	0.97505
3908.38751	0.97505
3906.33370	0.97551
3904.27990	0.97617
3902.22610	0.97595
3900.17229	0.97499
3898.11849	0.97430
3896.06469	0.97445
3894.01088	0.97492
3891.95708	0.97495
3889.90328	0.97473
3887.84947	0.97510
3885.79567	0.97586
3883.74187	0.97645
3881.68807	0.97676
3879.63426	0.97643
3877.58046	0.97561
3875.52666	0.97532
3873.47285	0.97588
3871.41905	0.97643
3869.36525	0.97627
3867.31144	0.97592
3865.25764	0.97553
3863.20384	0.97520
3861.15003	0.97524
3859.09623	0.97527
3857.04243	0.97525
3854.98862	0.97562
3852.93482	0.97582
3850.88102	0.97547
3848.82721	0.97542
3846.77341	0.97552
3844.71961	0.97588
3842.66580	0.97667
3840.61200	0.97726
3838.55820	0.97698
3836.50439	0.97626
3834.45059	0.97587
3832.39679	0.97563
3830.34298	0.97573
3828.28918	0.97653
3826.23538	0.97725
3824.18158	0.97726
3822.12777	0.97705
3820.07397	0.97703
3818.02017	0.97699
3815.96636	0.97651
3813.91256	0.97584
3811.85876	0.97566
3809.80495	0.97606
3807.75115	0.97660
3805.69735	0.97666
3803.64354	0.97691
3801.58974	0.97740
3799.53594	0.97687
3797.48213	0.97578
3795.42833	0.97512
3793.37453	0.97502
3791.32072	0.97517
3789.26692	0.97541
3787.21312	0.97576
3785.15931	0.97629
3783.10551	0.97686
3781.05171	0.97726
3778.99790	0.97764
3776.94410	0.97774
3774.89030	0.97740
3772.83650	0.97734
3770.78269	0.97758
3768.72889	0.97716
3766.67509	0.97621
3764.62128	0.97572
3762.56748	0.97581
3760.51368	0.97609
3758.45987	0.97648
3756.40607	0.97702
3754.35227	0.97763
3752.29846	0.97817
3750.24466	0.97834
3748.19086	0.97820
3746.13705	0.97806
3744.08325	0.97761
3742.02945	0.97717
3739.97564	0.97720
3737.92184	0.97748
3735.86804	0.97735
3733.81423	0.97645
3731.76043	0.97618
3729.70663	0.97699
3727.65282	0.97799
3725.59902	0.97814
3723.54522	0.97761
3721.49141	0.97743
3719.43761	0.97727
3717.38381	0.97711
3715.33001	0.97731
3713.27620	0.97734
3711.22240	0.97671
3709.16860	0.97660
3707.11479	0.97671
3705.06099	0.97606
3703.00719	0.97531
3700.95338	0.97478
3698.89958	0.97429
3696.84578	0.97395
3694.79197	0.97376
3692.73817	0.97405
3690.68437	0.97540
3688.63056	0.97665
3686.57676	0.97600
3684.52296	0.97499
3682.46915	0.97460
3680.41535	0.97446
3678.36155	0.97450
3676.30774	0.97501
3674.25394	0.97515
3672.20014	0.97430
3670.14633	0.97349
3668.09253	0.97328
3666.03873	0.97318
3663.98492	0.97287
3661.93112	0.97255
3659.87732	0.97222
3657.82352	0.97195
3655.76971	0.97171
3653.71591	0.97116
3651.66211	0.97073
3649.60830	0.97099
3647.55450	0.97069
3645.50070	0.96919
3643.44689	0.96821
3641.39309	0.96785
3639.33929	0.96768
3637.28548	0.96764
3635.23168	0.96730
3633.17788	0.96679
3631.12407	0.96641
3629.07027	0.96576
3627.01647	0.96463
3624.96266	0.96353
3622.90886	0.96263
3620.85506	0.96211
3618.80125	0.96194
3616.74745	0.96184
3614.69365	0.96197
3612.63984	0.96223
3610.58604	0.96200
3608.53224	0.96156
3606.47844	0.96110
3604.42463	0.96058
3602.37083	0.96014
3600.31703	0.95937
3598.26322	0.95846
3596.20942	0.95824
3594.15562	0.95847
3592.10181	0.95848
3590.04801	0.95814
3587.99421	0.95780
3585.94040	0.95768
3583.88660	0.95731
3581.83280	0.95673
3579.77899	0.95602
3577.72519	0.95540
3575.67139	0.95509
3573.61758	0.95453
3571.56378	0.95363
3569.50998	0.95286
3567.45617	0.95203
3565.40237	0.95118
3563.34857	0.95078
3561.29476	0.95037
3559.24096	0.94977
3557.18716	0.94922
3555.13335	0.94878
3553.07955	0.94859
3551.02575	0.94837
3548.97195	0.94801
3546.91814	0.94740
3544.86434	0.94588
3542.81054	0.94416
3540.75673	0.94335
3538.70293	0.94322
3536.64913	0.94295
3534.59532	0.94253
3532.54152	0.94236
3530.48772	0.94219
3528.43391	0.94173
3526.38011	0.94095
3524.32631	0.94003
3522.27250	0.93937
3520.21870	0.93898
3518.16490	0.93838
3516.11109	0.93772
3514.05729	0.93773
3512.00349	0.93818
3509.94968	0.93789
3507.89588	0.93686
3505.84208	0.93604
3503.78827	0.93576
3501.73447	0.93554
3499.68067	0.93475
3497.62687	0.93379
3495.57306	0.93304
3493.51926	0.93244
3491.46546	0.93181
3489.41165	0.93109
3487.35785	0.93042
3485.30405	0.92984
3483.25024	0.92942
3481.19644	0.92915
3479.14264	0.92876
3477.08883	0.92830
3475.03503	0.92756
3472.98123	0.92662
3470.92742	0.92641
3468.87362	0.92645
3466.81982	0.92595
3464.76601	0.92530
3462.71221	0.92462
3460.65841	0.92385
3458.60460	0.92333
3456.55080	0.92274
3454.49700	0.92165
3452.44319	0.92079
3450.38939	0.92039
3448.33559	0.91980
3446.28178	0.91885
3444.22798	0.91806
3442.17418	0.91778
3440.12038	0.91753
3438.06657	0.91677
3436.01277	0.91603
3433.95897	0.91537
3431.90516	0.91451
3429.85136	0.91398
3427.79756	0.91382
3425.74375	0.91320
3423.68995	0.91233
3421.63615	0.91207
3419.58234	0.91190
3417.52854	0.91121
3415.47474	0.91046
3413.42093	0.90974
3411.36713	0.90894
3409.31333	0.90845
3407.25952	0.90818
3405.20572	0.90785
3403.15192	0.90735
3401.09811	0.90655
3399.04431	0.90577
3396.99051	0.90509
3394.93670	0.90443
3392.88290	0.90411
3390.82910	0.90403
3388.77529	0.90398
3386.72149	0.90408
3384.66769	0.90399
3382.61389	0.90346
3380.56008	0.90311
3378.50628	0.90304
3376.45248	0.90264
3374.39867	0.90186
3372.34487	0.90147
3370.29107	0.90151
3368.23726	0.90092
3366.18346	0.89970
3364.12966	0.89889
3362.07585	0.89871
3360.02205	0.89849
3357.96825	0.89809
3355.91444	0.89778
3353.86064	0.89774
3351.80684	0.89770
3349.75303	0.89737
3347.69923	0.89721
3345.64543	0.89731
3343.59162	0.89704
3341.53782	0.89676
3339.48402	0.89699
3337.43021	0.89702
3335.37641	0.89653
3333.32261	0.89601
3331.26881	0.89596
3329.21500	0.89665
3327.16120	0.89749
3325.10740	0.89761
3323.05359	0.89754
3320.99979	0.89784
3318.94599	0.89793
3316.89218	0.89748
3314.83838	0.89706
3312.78458	0.89723
3310.73077	0.89802
3308.67697	0.89859
3306.62317	0.89851
3304.56936	0.89842
3302.51556	0.89824
3300.46176	0.89776
3298.40795	0.89767
3296.35415	0.89825
3294.30035	0.89888
3292.24654	0.89896
3290.19274	0.89863
3288.13894	0.89826
3286.08513	0.89795
3284.03133	0.89799
3281.97753	0.89890
3279.92372	0.89998
3277.86992	0.90019
3275.81612	0.89985
3273.76232	0.89978
3271.70851	0.90012
3269.65471	0.90061
3267.60091	0.90127
3265.54710	0.90208
3263.49330	0.90283
3261.43950	0.90342
3259.38569	0.90369
3257.33189	0.90350
3255.27809	0.90357
3253.22428	0.90429
3251.17048	0.90452
3249.11668	0.90427
3247.06287	0.90494
3245.00907	0.90595
3242.95527	0.90628
3240.90146	0.90674
3238.84766	0.90758
3236.79386	0.90793
3234.74005	0.90782
3232.68625	0.90790
3230.63245	0.90824
3228.57864	0.90872
3226.52484	0.90930
3224.47104	0.90980
3222.41724	0.91024
3220.36343	0.91081
3218.30963	0.91138
3216.25583	0.91165
3214.20202	0.91182
3212.14822	0.91229
3210.09442	0.91297
3208.04061	0.91363
3205.98681	0.91428
3203.93301	0.91517
3201.87920	0.91625
3199.82540	0.91675
3197.77160	0.91647
3195.71779	0.91647
3193.66399	0.91714
3191.61019	0.91792
3189.55638	0.91852
3187.50258	0.91889
3185.44878	0.91928
3183.39497	0.91993
3181.34117	0.92081
3179.28737	0.92156
3177.23356	0.92166
3175.17976	0.92164
3173.12596	0.92216
3171.07215	0.92254
3169.01835	0.92242
3166.96455	0.92255
3164.91075	0.92325
3162.85694	0.92404
3160.80314	0.92459
3158.74934	0.92511
3156.69553	0.92596
3154.64173	0.92691
3152.58793	0.92751
3150.53412	0.92800
3148.48032	0.92863
3146.42652	0.92934
3144.37271	0.93003
3142.31891	0.93054
3140.26511	0.93064
3138.21130	0.93066
3136.15750	0.93076
3134.10370	0.93067
3132.04989	0.93092
3129.99609	0.93157
3127.94229	0.93214
3125.88848	0.93294
3123.83468	0.93407
3121.78088	0.93501
3119.72707	0.93559
3117.67327	0.93580
3115.61947	0.93572
3113.56566	0.93602
3111.51186	0.93669
3109.45806	0.93725
3107.40426	0.93788
3105.35045	0.93827
3103.29665	0.93843
3101.24285	0.93908
3099.18904	0.93977
3097.13524	0.93972
3095.08144	0.93951
3093.02763	0.93992
3090.97383	0.94075
3088.92003	0.94124
3086.86622	0.94124
3084.81242	0.94125
3082.75862	0.94139
3080.70481	0.94155
3078.65101	0.94193
3076.59721	0.94242
3074.54340	0.94264
3072.48960	0.94295
3070.43580	0.94345
3068.38199	0.94349
3066.32819	0.94350
3064.27439	0.94418
3062.22058	0.94487
3060.16678	0.94526
3058.11298	0.94581
3056.05918	0.94644
3054.00537	0.94688
3051.95157	0.94689
3049.89777	0.94646
3047.84396	0.94645
3045.79016	0.94749
3043.73636	0.94860
3041.68255	0.94898
3039.62875	0.94909
3037.57495	0.94919
3035.52114	0.94922
3033.46734	0.94932
3031.41354	0.94964
3029.35973	0.95005
3027.30593	0.95041
3025.25213	0.95066
3023.19832	0.95080
3021.14452	0.95099
3019.09072	0.95126
3017.03691	0.95145
3014.98311	0.95135
3012.92931	0.95115
3010.87550	0.95153
3008.82170	0.95239
3006.76790	0.95287
3004.71409	0.95286
3002.66029	0.95281
3000.60649	0.95303
2998.55269	0.95326
2996.49888	0.95329
2994.44508	0.95341
2992.39128	0.95352
2990.33747	0.95338
2988.28367	0.95323
2986.22987	0.95324
2984.17606	0.95318
2982.12226	0.95275
2980.06846	0.95218
2978.01465	0.95222
2975.96085	0.95266
2973.90705	0.95252
2971.85324	0.95206
2969.79944	0.95193
2967.74564	0.95179
2965.69183	0.95130
2963.63803	0.95083
2961.58423	0.95065
2959.53042	0.95064
2957.47662	0.95055
2955.42282	0.95029
2953.36901	0.95005
2951.31521	0.94956
2949.26141	0.94877
2947.20761	0.94815
2945.15380	0.94759
2943.10000	0.94705
2941.04620	0.94685
2938.99239	0.94688
2936.93859	0.94694
2934.88479	0.94694
2932.83098	0.94672
2930.77718	0.94658
2928.72338	0.94673
2926.66957	0.94679
2924.61577	0.94659
2922.56197	0.94640
2920.50816	0.94637
2918.45436	0.94634
2916.40056	0.94631
2914.34675	0.94630
2912.29295	0.94639
2910.23915	0.94650
2908.18534	0.94633
2906.13154	0.94607
2904.07774	0.94603
2902.02393	0.94602
2899.97013	0.94592
2897.91633	0.94578
2895.86252	0.94592
2893.80872	0.94634
2891.75492	0.94649
2889.70112	0.94639
2887.64731	0.94643
2885.59351	0.94675
2883.53971	0.94721
2881.48590	0.94747
2879.43210	0.94765
2877.37830	0.94801
2875.32449	0.94844
2873.27069	0.94879
2871.21689	0.94908
2869.16308	0.94935
2867.10928	0.94966
2865.05548	0.95018
2863.00167	0.95072
2860.94787	0.95087
2858.89407	0.95073
2856.84026	0.95085
2854.78646	0.95137
2852.73266	0.95199
2850.67885	0.95246
2848.62505	0.95265
2846.57125	0.95279
2844.51744	0.95296
2842.46364	0.95308
2840.40984	0.95329
2838.35603	0.95361
2836.30223	0.95398
2834.24843	0.95451
2832.19463	0.95522
2830.14082	0.95604
2828.08702	0.95669
2826.03322	0.95699
2823.97941	0.95730
2821.92561	0.95770
2819.87181	0.95794
2817.81800	0.95819
2815.76420	0.95852
2813.71040	0.95887
2811.65659	0.95917
2809.60279	0.95937
2807.54899	0.95966
2805.49518	0.95983
2803.44138	0.95989
2801.38758	0.96030
2799.33377	0.96085
2797.27997	0.96104
2795.22617	0.96090
2793.17236	0.96089
2791.11856	0.96121
2789.06476	0.96151
2787.01095	0.96148
2784.95715	0.96136
2782.90335	0.96147
2780.84955	0.96177
2778.79574	0.96181
2776.74194	0.96159
2774.68814	0.96148
2772.63433	0.96156
2770.58053	0.96179
2768.52673	0.96208
2766.47292	0.96232
2764.41912	0.96261
2762.36532	0.96280
2760.31151	0.96278
2758.25771	0.96297
2756.20391	0.96325
2754.15010	0.96324
2752.09630	0.96312
2750.04250	0.96306
2747.98869	0.96302
2745.93489	0.96302
2743.88109	0.96321
2741.82728	0.96355
2739.77348	0.96372
2737.71968	0.96365
2735.66587	0.96362
2733.61207	0.96373
2731.55827	0.96391
2729.50446	0.96403
2727.45066	0.96390
2725.39686	0.96374
2723.34306	0.96393
2721.28925	0.96431
2719.23545	0.96466
2717.18165	0.96475
2715.12784	0.96457
2713.07404	0.96448
2711.02024	0.96444
2708.96643	0.96431
2706.91263	0.96443
2704.85883	0.96479
2702.80502	0.96508
2700.75122	0.96507
2698.69742	0.96481
2696.64361	0.96481
2694.58981	0.96499
2692.53601	0.96500
2690.48220	0.96500
2688.42840	0.96533
2686.37460	0.96582
2684.32079	0.96604
2682.26699	0.96593
2680.21319	0.96580
2678.15938	0.96585
2676.10558	0.96590
2674.05178	0.96584
2671.99797	0.96591
2669.94417	0.96618
2667.89037	0.96637
2665.83657	0.96642
2663.78276	0.96635
2661.72896	0.96607
2659.67516	0.96589
2657.62135	0.96583
2655.56755	0.96555
2653.51375	0.96521
2651.45994	0.96522
2649.40614	0.96546
2647.35234	0.96550
2645.29853	0.96550
2643.24473	0.96564
2641.19093	0.96581
2639.13712	0.96610
2637.08332	0.96647
2635.02952	0.96679
2632.97571	0.96712
2630.92191	0.96710
2628.86811	0.96696
2626.81430	0.96716
2624.76050	0.96731
2622.70670	0.96751
2620.65289	0.96768
2618.59909	0.96722
2616.54529	0.96701
2614.49149	0.96753
2612.43768	0.96804
2610.38388	0.96829
2608.33008	0.96804
2606.27627	0.96756
2604.22247	0.96754
2602.16867	0.96780
2600.11486	0.96817
2598.06106	0.96892
2596.00726	0.96929
2593.95345	0.96836
2591.89965	0.96755
2589.84585	0.96806
2587.79204	0.96874
2585.73824	0.96886
2583.68444	0.96889
2581.63063	0.96879
2579.57683	0.96872
2577.52303	0.96883
2575.46922	0.96884
2573.41542	0.96899
2571.36162	0.96907
2569.30781	0.96870
2567.25401	0.96856
2565.20021	0.96897
2563.14640	0.96943
2561.09260	0.96961
2559.03880	0.96963
2556.98500	0.96973
2554.93119	0.96974
2552.87739	0.96963
2550.82359	0.96982
2548.76978	0.97011
2546.71598	0.97008
2544.66218	0.97005
2542.60837	0.97011
2540.55457	0.96992
2538.50077	0.96965
2536.44696	0.96944
2534.39316	0.96934
2532.33936	0.96965
2530.28555	0.97053
2528.23175	0.97143
2526.17795	0.97139
2524.12414	0.97081
2522.07034	0.97050
2520.01654	0.97043
2517.96273	0.97055
2515.90893	0.97112
2513.85513	0.97185
2511.80132	0.97212
2509.74752	0.97199
2507.69372	0.97163
2505.63992	0.97123
2503.58611	0.97098
2501.53231	0.97093
2499.47851	0.97108
2497.42470	0.97105
2495.37090	0.97073
2493.31710	0.97057
2491.26329	0.97098
2489.20949	0.97150
2487.15569	0.97173
2485.10188	0.97192
2483.04808	0.97161
2480.99428	0.97097
2478.94047	0.97103
2476.88667	0.97149
2474.83287	0.97199
2472.77906	0.97256
2470.72526	0.97279
2468.67146	0.97266
2466.61765	0.97232
2464.56385	0.97165
2462.51005	0.97093
2460.45624	0.97090
2458.40244	0.97148
2456.34864	0.97173
2454.29483	0.97171
2452.24103	0.97180
2450.18723	0.97167
2448.13343	0.97129
2446.07962	0.97085
2444.02582	0.97066
2441.97202	0.97073
2439.91821	0.97099
2437.86441	0.97165
2435.81061	0.97239
2433.75680	0.97264
2431.70300	0.97263
2429.64920	0.97297
2427.59539	0.97336
2425.54159	0.97316
2423.48779	0.97303
2421.43398	0.97340
2419.38018	0.97353
2417.32638	0.97319
2415.27257	0.97260
2413.21877	0.97195
2411.16497	0.97152
2409.11116	0.97170
2407.05736	0.97239
2405.00356	0.97281
2402.94975	0.97307
2400.89595	0.97356
2398.84215	0.97375
2396.78834	0.97346
2394.73454	0.97326
2392.68074	0.97344
2390.62694	0.97380
2388.57313	0.97381
2386.51933	0.97336
2384.46553	0.97328
2382.41172	0.97388
2380.35792	0.97436
2378.30412	0.97425
2376.25031	0.97392
2374.19651	0.97371
2372.14271	0.97354
2370.08890	0.97367
2368.03510	0.97393
2365.98130	0.97338
2363.92749	0.97230
2361.87369	0.97200
2359.81989	0.97210
2357.76608	0.97166
2355.71228	0.97165
2353.65848	0.97259
2351.60467	0.97318
2349.55087	0.97305
2347.49707	0.97278
2345.44326	0.97247
2343.38946	0.97251
2341.33566	0.97317
2339.28186	0.97351
2337.22805	0.97311
2335.17425	0.97232
2333.12045	0.97164
2331.06664	0.97177
2329.01284	0.97269
2326.95904	0.97338
2324.90523	0.97294
2322.85143	0.97224
2320.79763	0.97224
2318.74382	0.97257
2316.69002	0.97333
2314.63622	0.97374
2312.58241	0.97294
2310.52861	0.97233
2308.47481	0.97287
2306.42100	0.97337
2304.36720	0.97305
2302.31340	0.97239
2300.25959	0.97197
2298.20579	0.97209
2296.15199	0.97249
2294.09818	0.97271
2292.04438	0.97293
2289.99058	0.97327
2287.93677	0.97319
2285.88297	0.97240
2283.82917	0.97128
2281.77537	0.97056
2279.72156	0.97089
2277.66776	0.97219
2275.61396	0.97380
2273.56015	0.97512
2271.50635	0.97590
2269.45255	0.97559
2267.39874	0.97453
2265.34494	0.97393
2263.29114	0.97343
2261.23733	0.97294
2259.18353	0.97329
2257.12973	0.97408
2255.07592	0.97442
2253.02212	0.97412
2250.96832	0.97383
2248.91451	0.97409
2246.86071	0.97434
2244.80691	0.97455
2242.75310	0.97508
2240.69930	0.97550
2238.64550	0.97537
2236.59169	0.97490
2234.53789	0.97515
2232.48409	0.97554
2230.43029	0.97438
2228.37648	0.97309
2226.32268	0.97378
2224.26888	0.97502
2222.21507	0.97471
2220.16127	0.97409
2218.10747	0.97481
2216.05366	0.97629
2213.99986	0.97782
2211.94606	0.97780
2209.89225	0.97612
2207.83845	0.97566
2205.78465	0.97622
2203.73084	0.97668
2201.67704	0.97710
2199.62324	0.97637
2197.56943	0.97452
2195.51563	0.97350
2193.46183	0.97496
2191.40802	0.97718
2189.35422	0.97705
2187.30042	0.97538
2185.24661	0.97442
2183.19281	0.97414
2181.13901	0.97381
2179.08520	0.97368
2177.03140	0.97530
2174.97760	0.97729
2172.92380	0.97729
2170.86999	0.97668
2168.81619	0.97558
2166.76239	0.97441
2164.70858	0.97546
2162.65478	0.97656
2160.60098	0.97651
2158.54717	0.97755
2156.49337	0.97842
2154.43957	0.97917
2152.38576	0.97959
2150.33196	0.97917
2148.27816	0.97938
2146.22435	0.97986
2144.17055	0.98032
2142.11675	0.98014
2140.06294	0.97888
2138.00914	0.97844
2135.95534	0.97882
2133.90153	0.97769
2131.84773	0.97639
2129.79393	0.97687
2127.74012	0.97654
2125.68632	0.97544
2123.63252	0.97597
2121.57871	0.97650
2119.52491	0.97589
2117.47111	0.97572
2115.41731	0.97602
2113.36350	0.97567
2111.30970	0.97503
2109.25590	0.97492
2107.20209	0.97499
2105.14829	0.97535
2103.09449	0.97623
2101.04068	0.97653
2098.98688	0.97592
2096.93308	0.97576
2094.87927	0.97621
2092.82547	0.97628
2090.77167	0.97625
2088.71786	0.97584
2086.66406	0.97511
2084.61026	0.97469
2082.55645	0.97428
2080.50265	0.97436
2078.44885	0.97531
2076.39504	0.97658
2074.34124	0.97805
2072.28744	0.97958
2070.23363	0.98018
2068.17983	0.97888
2066.12603	0.97742
2064.07223	0.97782
2062.01842	0.97855
2059.96462	0.97850
2057.91082	0.97790
2055.85701	0.97714
2053.80321	0.97695
2051.74941	0.97623
2049.69560	0.97458
2047.64180	0.97416
2045.58800	0.97595
2043.53419	0.97837
2041.48039	0.97926
2039.42659	0.97808
2037.37278	0.97688
2035.31898	0.97796
2033.26518	0.98026
2031.21137	0.98003
2029.15757	0.97807
2027.10377	0.97882
2025.04996	0.98201
2022.99616	0.98462
2020.94236	0.98535
2018.88855	0.98335
2016.83475	0.97965
2014.78095	0.97816
2012.72714	0.97973
2010.67334	0.98039
2008.61954	0.98017
2006.56574	0.98171
2004.51193	0.98274
2002.45813	0.98252
2000.40433	0.98189
1998.35052	0.98055
1996.29672	0.97997
1994.24292	0.98020
1992.18911	0.97976
1990.13531	0.97957
1988.08151	0.98001
1986.02770	0.97919
1983.97390	0.97889
1981.92010	0.98019
1979.86629	0.97846
1977.81249	0.97496
1975.75869	0.97564
1973.70488	0.97807
1971.65108	0.97896
1969.59728	0.97995
1967.54347	0.98091
1965.48967	0.98116
1963.43587	0.98137
1961.38206	0.98093
1959.32826	0.97972
1957.27446	0.97886
1955.22066	0.97888
1953.16685	0.97958
1951.11305	0.98007
1949.05925	0.97976
1947.00544	0.97992
1944.95164	0.98073
1942.89784	0.98039
1940.84403	0.97913
1938.79023	0.97834
1936.73643	0.97807
1934.68262	0.97743
1932.62882	0.97704
1930.57502	0.97903
1928.52121	0.98152
1926.46741	0.98174
1924.41361	0.98089
1922.35980	0.98037
1920.30600	0.97999
1918.25220	0.97947
1916.19839	0.97912
1914.14459	0.97895
1912.09079	0.97883
1910.03698	0.97885
1907.98318	0.97925
1905.92938	0.98031
1903.87557	0.98067
1901.82177	0.97963
1899.76797	0.97895
1897.71417	0.97941
1895.66036	0.97997
1893.60656	0.97999
1891.55276	0.97974
1889.49895	0.97961
1887.44515	0.97960
1885.39135	0.97948
1883.33754	0.97938
1881.28374	0.97983
1879.22994	0.98028
1877.17613	0.98000
1875.12233	0.97993
1873.06853	0.97993
1871.01472	0.97917
1868.96092	0.97865
1866.90712	0.97893
1864.85331	0.97908
1862.79951	0.97911
1860.74571	0.97935
1858.69190	0.97950
1856.63810	0.97938
1854.58430	0.97918
1852.53049	0.97953
1850.47669	0.98048
1848.42289	0.98099
1846.36908	0.98083
1844.31528	0.98058
1842.26148	0.98045
1840.20768	0.98018
1838.15387	0.97992
1836.10007	0.97984
1834.04627	0.97967
1831.99246	0.97956
1829.93866	0.97986
1827.88486	0.98036
1825.83105	0.98078
1823.77725	0.98084
1821.72345	0.98075
1819.66964	0.98095
1817.61584	0.98101
1815.56204	0.98058
1813.50823	0.98011
1811.45443	0.98006
1809.40063	0.98017
1807.34682	0.97999
1805.29302	0.97964
1803.23922	0.97924
1801.18541	0.97886
1799.13161	0.97885
1797.07781	0.97913
1795.02400	0.97943
1792.97020	0.97961
1790.91640	0.97929
1788.86260	0.97888
1786.80879	0.97885
1784.75499	0.97912
1782.70119	0.97935
1780.64738	0.97930
1778.59358	0.97907
1776.53978	0.97887
1774.48597	0.97878
1772.43217	0.97851
1770.37837	0.97808
1768.32456	0.97789
1766.27076	0.97767
1764.21696	0.97736
1762.16315	0.97717
1760.10935	0.97682
1758.05555	0.97618
1756.00174	0.97551
1753.94794	0.97506
1751.89414	0.97469
1749.84033	0.97411
1747.78653	0.97348
1745.73273	0.97313
1743.67892	0.97284
1741.62512	0.97237
1739.57132	0.97189
1737.51751	0.97150
1735.46371	0.97069
1733.40991	0.96948
1731.35611	0.96909
1729.30230	0.96910
1727.24850	0.96901
1725.19470	0.96912
1723.14089	0.96923
1721.08709	0.96916
1719.03329	0.96937
1716.97948	0.96991
1714.92568	0.96972
1712.87188	0.96897
1710.81807	0.96835
1708.76427	0.96806
1706.71047	0.96787
1704.65666	0.96752
1702.60286	0.96687
1700.54906	0.96599
1698.49525	0.96526
1696.44145	0.96427
1694.38765	0.96284
1692.33384	0.96172
1690.28004	0.96071
1688.22624	0.95964
1686.17243	0.95863
1684.11863	0.95731
1682.06483	0.95581
1680.01103	0.95430
1677.95722	0.95298
1675.90342	0.95178
1673.84962	0.95011
1671.79581	0.94851
1669.74201	0.94693
1667.68821	0.94538
1665.63440	0.94442
1663.58060	0.94345
1661.52680	0.94187
1659.47299	0.94018
1657.41919	0.93899
1655.36539	0.93820
1653.31158	0.93682
1651.25778	0.93530
1649.20398	0.93497
1647.15017	0.93474
1645.09637	0.93371
1643.04257	0.93256
1640.98876	0.93190
1638.93496	0.93171
1636.88116	0.93142
1634.82735	0.93043
1632.77355	0.92976
1630.71975	0.92983
1628.66594	0.93018
1626.61214	0.93044
1624.55834	0.93038
1622.50454	0.93014
1620.45073	0.93007
1618.39693	0.93008
1616.34313	0.92994
1614.28932	0.92989
1612.23552	0.92990
1610.18172	0.92956
1608.12791	0.92918
1606.07411	0.92907
1604.02031	0.92896
1601.96650	0.92899
1599.91270	0.92905
1597.85890	0.92876
1595.80509	0.92843
1593.75129	0.92852
1591.69749	0.92934
1589.64368	0.93104
1587.58988	0.93305
1585.53608	0.93508
1583.48227	0.93724
1581.42847	0.93934
1579.37467	0.94154
1577.32086	0.94425
1575.26706	0.94720
1573.21326	0.94947
1571.15945	0.95132
1569.10565	0.95268
1567.05185	0.95351
1564.99805	0.95456
1562.94424	0.95596
1560.89044	0.95766
1558.83664	0.95931
1556.78283	0.95938
1554.72903	0.95917
1552.67523	0.95938
1550.62142	0.95989
1548.56762	0.96036
1546.51382	0.96079
1544.46001	0.96138
1542.40621	0.96170
1540.35241	0.96154
1538.29860	0.96140
1536.24480	0.96163
1534.19100	0.96197
1532.13719	0.96204
1530.08339	0.96199
1528.02959	0.96186
1525.97578	0.96111
1523.92198	0.95969
1521.86818	0.95703
1519.81437	0.95326
1517.76057	0.94936
1515.70677	0.94497
1513.65297	0.94130
1511.59916	0.93891
1509.54536	0.93729
1507.49156	0.93612
1505.43775	0.93647
1503.38395	0.93809
1501.33015	0.94034
1499.27634	0.94342
1497.22254	0.94702
1495.16874	0.94997
1493.11493	0.95169
1491.06113	0.95288
1489.00733	0.95377
1486.95352	0.95420
1484.89972	0.95435
1482.84592	0.95433
1480.79211	0.95410
1478.73831	0.95345
1476.68451	0.95218
1474.63070	0.95010
1472.57690	0.94644
1470.52310	0.94236
1468.46929	0.93943
1466.41549	0.93698
1464.36169	0.93480
1462.30788	0.93367
1460.25408	0.93363
1458.20028	0.93397
1456.14648	0.93362
1454.09267	0.93291
1452.03887	0.93263
1449.98507	0.93262
1447.93126	0.93315
1445.87746	0.93467
1443.82366	0.93640
1441.76985	0.93725
1439.71605	0.93690
1437.66225	0.93558
1435.60844	0.93335
1433.55464	0.93115
1431.50084	0.92911
1429.44703	0.92671
1427.39323	0.92445
1425.33943	0.92302
1423.28562	0.92229
1421.23182	0.92211
1419.17802	0.92266
1417.12421	0.92388
1415.07041	0.92539
1413.01661	0.92714
1410.96280	0.92909
1408.90900	0.93106
1406.85520	0.93282
1404.80139	0.93429
1402.74759	0.93536
1400.69379	0.93615
1398.63999	0.93677
1396.58618	0.93699
1394.53238	0.93717
1392.47858	0.93774
1390.42477	0.93838
1388.37097	0.93856
1386.31717	0.93790
1384.26336	0.93675
1382.20956	0.93550
1380.15576	0.93412
1378.10195	0.93293
1376.04815	0.93213
1373.99435	0.93129
1371.94054	0.93074
1369.88674	0.93076
1367.83294	0.93091
1365.77913	0.93109
1363.72533	0.93158
1361.67153	0.93229
1359.61772	0.93309
1357.56392	0.93388
1355.51012	0.93439
1353.45631	0.93486
1351.40251	0.93533
1349.34871	0.93532
1347.29491	0.93479
1345.24110	0.93424
1343.18730	0.93380
1341.13350	0.93304
1339.07969	0.93197
1337.02589	0.93089
1334.97209	0.93004
1332.91828	0.92961
1330.86448	0.92945
1328.81068	0.92926
1326.75687	0.92898
1324.70307	0.92857
1322.64927	0.92795
1320.59546	0.92762
1318.54166	0.92782
1316.48786	0.92810
1314.43405	0.92872
1312.38025	0.93014
1310.32645	0.93177
1308.27264	0.93322
1306.21884	0.93477
1304.16504	0.93622
1302.11123	0.93726
1300.05743	0.93802
1298.00363	0.93863
1295.94982	0.93906
1293.89602	0.93905
1291.84222	0.93847
1289.78842	0.93765
1287.73461	0.93662
1285.68081	0.93522
1283.62701	0.93341
1281.57320	0.93144
1279.51940	0.92959
1277.46560	0.92743
1275.41179	0.92480
1273.35799	0.92225
1271.30419	0.92000
1269.25038	0.91809
1267.19658	0.91691
1265.14278	0.91660
1263.08897	0.91675
1261.03517	0.91718
1258.98137	0.91808
1256.92756	0.91944
1254.87376	0.92084
1252.81996	0.92191
1250.76615	0.92264
1248.71235	0.92316
1246.65855	0.92353
1244.60474	0.92377
1242.55094	0.92396
1240.49714	0.92407
1238.44334	0.92379
1236.38953	0.92281
1234.33573	0.92158
1232.28193	0.92089
1230.22812	0.92058
1228.17432	0.92045
1226.12052	0.92067
1224.06671	0.92080
1222.01291	0.92056
1219.95911	0.92048
1217.90530	0.92073
1215.85150	0.92100
1213.79770	0.92144
1211.74389	0.92207
1209.69009	0.92237
1207.63629	0.92222
1205.58248	0.92221
1203.52868	0.92252
1201.47488	0.92287
1199.42107	0.92314
1197.36727	0.92336
1195.31347	0.92361
1193.25966	0.92392
1191.20586	0.92381
1189.15206	0.92281
1187.09825	0.92130
1185.04445	0.91985
1182.99065	0.91840
1180.93685	0.91667
1178.88304	0.91427
1176.82924	0.91085
1174.77544	0.90661
1172.72163	0.90172
1170.66783	0.89610
1168.61403	0.88990
1166.56022	0.88385
1164.50642	0.87870
1162.45262	0.87472
1160.39881	0.87192
1158.34501	0.87008
1156.29121	0.86870
1154.23740	0.86747
1152.18360	0.86642
1150.12980	0.86572
1148.07599	0.86483
1146.02219	0.86327
1143.96839	0.86167
1141.91458	0.86052
1139.86078	0.85952
1137.80698	0.85826
1135.75317	0.85655
1133.69937	0.85426
1131.64557	0.85149
1129.59176	0.84832
1127.53796	0.84488
1125.48416	0.84156
1123.43036	0.83845
1121.37655	0.83527
1119.32275	0.83180
1117.26895	0.82796
1115.21514	0.82389
1113.16134	0.81967
1111.10754	0.81533
1109.05373	0.81134
1106.99993	0.80846
1104.94613	0.80687
1102.89232	0.80599
1100.83852	0.80531
1098.78472	0.80453
1096.73091	0.80353
1094.67711	0.80254
1092.62331	0.80164
1090.56950	0.80077
1088.51570	0.79994
1086.46190	0.79878
1084.40809	0.79698
1082.35429	0.79523
1080.30049	0.79365
1078.24668	0.79170
1076.19288	0.78935
1074.13908	0.78656
1072.08528	0.78346
1070.03147	0.78023
1067.97767	0.77601
1065.92387	0.77029
1063.87006	0.76406
1061.81626	0.75790
1059.76246	0.75187
1057.70865	0.74700
1055.65485	0.74360
1053.60105	0.74067
1051.54724	0.73774
1049.49344	0.73489
1047.43964	0.73206
1045.38583	0.72920
1043.33203	0.72579
1041.27823	0.72092
1039.22442	0.71507
1037.17062	0.70946
1035.11682	0.70435
1033.06301	0.70014
1031.00921	0.69737
1028.95541	0.69579
1026.90160	0.69542
1024.84780	0.69638
1022.79400	0.69790
1020.74019	0.69947
1018.68639	0.70131
1016.63259	0.70313
1014.57879	0.70470
1012.52498	0.70659
1010.47118	0.70865
1008.41738	0.71013
1006.36357	0.71102
1004.30977	0.71219
1002.25597	0.71450
1000.20216	0.71786
998.14836	0.72149
996.09456	0.72519
994.04075	0.72899
991.98695	0.73272
989.93315	0.73661
987.87934	0.74106
985.82554	0.74634
983.77174	0.75250
981.71793	0.75963
979.66413	0.76746
977.61033	0.77526
975.55652	0.78271
973.50272	0.78972
971.44892	0.79628
969.39511	0.80242
967.34131	0.80787
965.28751	0.81275
963.23371	0.81768
961.17990	0.82290
959.12610	0.82801
957.07230	0.83268
955.01849	0.83720
952.96469	0.84197
950.91089	0.84670
948.85708	0.85090
946.80328	0.85478
944.74948	0.85856
942.69567	0.86191
940.64187	0.86459
938.58807	0.86684
936.53426	0.86898
934.48046	0.87110
932.42666	0.87297
930.37285	0.87454
928.31905	0.87607
926.26525	0.87733
924.21144	0.87777
922.15764	0.87793
920.10384	0.87863
918.05003	0.87947
915.99623	0.87965
913.94243	0.87926
911.88862	0.87955
909.83482	0.88094
907.78102	0.88201
905.72722	0.88194
903.67341	0.88164
901.61961	0.88187
899.56581	0.88253
897.51200	0.88333
895.45820	0.88443
893.40440	0.88632
891.35059	0.88861
889.29679	0.89059
887.24299	0.89262
885.18918	0.89511
883.13538	0.89743
881.08158	0.89887
879.02777	0.89963
876.97397	0.90038
874.92017	0.90167
872.86636	0.90300
870.81256	0.90354
868.75876	0.90380
866.70495	0.90441
864.65115	0.90494
862.59735	0.90504
860.54354	0.90491
858.48974	0.90472
856.43594	0.90511
854.38213	0.90629
852.32833	0.90756
850.27453	0.90860
848.22073	0.90922
846.16692	0.90915
844.11312	0.90894
842.05932	0.90880
840.00551	0.90808
837.95171	0.90661
835.89791	0.90504
833.84410	0.90449
831.79030	0.90498
829.73650	0.90507
827.68269	0.90418
825.62889	0.90322
823.57509	0.90289
821.52128	0.90245
819.46748	0.90122
817.41368	0.90004
815.35987	0.89994
813.30607	0.90000
811.25227	0.89896
809.19846	0.89753
807.14466	0.89646
805.09086	0.89535
803.03705	0.89368
800.98325	0.89127
798.92945	0.88954
796.87565	0.88985
794.82184	0.89096
792.76804	0.89171
790.71424	0.89189
788.66043	0.89102
786.60663	0.88929
784.55283	0.88757
782.49902	0.88641
780.44522	0.88611
778.39142	0.88594
776.33761	0.88530
774.28381	0.88507
772.23001	0.88513
770.17620	0.88464
768.12240	0.88372
766.06860	0.88256
764.01479	0.88163
761.96099	0.88083
759.90719	0.87990
757.85338	0.87938
755.79958	0.87917
753.74578	0.87883
751.69197	0.87833
749.63817	0.87747
747.58437	0.87636
745.53056	0.87527
743.47676	0.87438
741.42296	0.87418
739.36916	0.87427
737.31535	0.87410
735.26155	0.87385
733.20775	0.87313
731.15394	0.87170
729.10014	0.87029
727.04634	0.86958
724.99253	0.86886
722.93873	0.86749
720.88493	0.86648
718.83112	0.86612
716.77732	0.86555
714.72352	0.86444
712.66971	0.86304
710.61591	0.86193
708.56211	0.86117
706.50830	0.86005
704.45450	0.85839
702.40070	0.85665
700.34689	0.85537
698.29309	0.85436
696.23929	0.85310
694.18548	0.85217
692.13168	0.85187
690.07788	0.85136
688.02408	0.85061
685.97027	0.84989
683.91647	0.84914
681.86267	0.84841
679.80886	0.84710
677.75506	0.84474
675.70126	0.84189
673.64745	0.83888
671.59365	0.83647
669.53985	0.83484
667.48604	0.83273
665.43224	0.83073
663.37844	0.82908
661.32463	0.82766
659.27083	0.82669
657.21703	0.82474
655.16322	0.82211
653.10942	0.82116
651.05562	0.82199
649.00181	0.82277
646.94801	0.82290
644.89421	0.82345
642.84040	0.82401
640.78660	0.82286
638.73280	0.82088
636.67899	0.81991
634.62519	0.81969
632.57139	0.81926
630.51759	0.81821
628.46378	0.81739
626.40998	0.81737
624.35618	0.81622
622.30237	0.81319
620.24857	0.81099
618.19477	0.81041
616.14096	0.80951
614.08716	0.80764
612.03336	0.80500
609.97955	0.80243
607.92575	0.80140
605.87195	0.80092
603.81814	0.79873
601.76434	0.79506
599.71054	0.79174
597.65673	0.78999
595.60293	0.78990
593.54913	0.79054
591.49532	0.79089
589.44152	0.79068
587.38772	0.79026
585.33391	0.78969
583.28011	0.78878
581.22631	0.78808
579.17250	0.78840
577.11870	0.78943
575.06490	0.78948
573.01110	0.78792
570.95729	0.78554
568.90349	0.78303
566.84969	0.78096
564.79588	0.77928
562.74208	0.77711
560.68828	0.77408
558.63447	0.77115
556.58067	0.76933
554.52687	0.76884
552.47306	0.76790
550.41926	0.76552
548.36546	0.76320
546.31165	0.76120
544.25785	0.75927
542.20405	0.75790
540.15024	0.75596
538.09644	0.75195
536.04264	0.74652
533.98883	0.74320
531.93503	0.74385
529.88123	0.74563
527.82742	0.74602
525.77362	0.74485
523.71982	0.74342
521.66602	0.74411
519.61221	0.74785
517.55841	0.75271
515.50461	0.75552
513.45080	0.75582
511.39700	0.75541
509.34320	0.75553
507.28939	0.75649
505.23559	0.75782
503.18179	0.75959
501.12798	0.76135
499.07418	0.76184
497.02038	0.76268
494.96657	0.76414
492.91277	0.76312
490.85897	0.75829
488.80516	0.75213
486.75136	0.74736
484.69756	0.74282
482.64375	0.73717
480.58995	0.73225
478.53615	0.72779
476.48234	0.72256
474.42854	0.71834
472.37474	0.71591
470.32093	0.71448
468.26713	0.71250
466.21333	0.70956
464.15953	0.70846
462.10572	0.71047
460.05192	0.71379
457.99812	0.71673
455.94431	0.72045
453.89051	0.72477
451.83671	0.72708
449.78290	0.72851
447.72910	0.73073
445.67530	0.73174
443.62149	0.73210
441.56769	0.73441
439.51389	0.73651
437.46008	0.73543
435.40628	0.73203
433.35248	0.72819
431.29867	0.72474
429.24487	0.72322
427.19107	0.72338
425.13726	0.72472
423.08346	0.72755
421.02966	0.73068
418.97585	0.73261
416.92205	0.73220
414.86825	0.73431
412.81445	0.73951
410.76064	0.74308
408.70684	0.74506
406.65304	0.74646
404.59923	0.74592
402.54543	0.74618
400.49163	0.74732
398.43782	0.74524
