3996.70104	0.93970
3994.64724	0.93956
3992.59344	0.93990
3990.53964	0.94002
3988.48583	0.93994
3986.43203	0.94010
3984.37823	0.94032
3982.32442	0.94038
3980.27062	0.94027
3978.21682	0.94019
3976.16301	0.94036
3974.10921	0.94039
3972.05541	0.94021
3970.00160	0.94011
3967.94780	0.94003
3965.89400	0.93982
3963.84019	0.93939
3961.78639	0.93902
3959.73259	0.93921
3957.67878	0.94013
3955.62498	0.94097
3953.57118	0.94098
3951.51737	0.94091
3949.46357	0.94099
3947.40977	0.94073
3945.35596	0.94077
3943.30216	0.94117
3941.24836	0.94119
3939.19455	0.94088
3937.14075	0.94061
3935.08695	0.94047
3933.03315	0.94023
3930.97934	0.93990
3928.92554	0.94006
3926.87174	0.94050
3924.81793	0.94077
3922.76413	0.94079
3920.71033	0.94056
3918.65652	0.94033
3916.60272	0.94044
3914.54892	0.94055
3912.49511	0.94081
3910.44131	0.94155
3908.38751	0.94187
3906.33370	0.94104
3904.27990	0.93997
3902.22610	0.93989
3900.17229	0.94047
3898.11849	0.94096
3896.06469	0.94098
3894.01088	0.94089
3891.95708	0.94117
3889.90328	0.94132
3887.84947	0.94123
3885.79567	0.94110
3883.74187	0.94116
3881.68807	0.94161
3879.63426	0.94160
3877.58046	0.94125
3875.52666	0.94150
3873.47285	0.94178
3871.41905	0.94120
3869.36525	0.94041
3867.31144	0.94049
3865.25764	0.94139
3863.20384	0.94185
3861.15003	0.94103
3859.09623	0.94029
3857.04243	0.94001
3854.98862	0.93942
3852.93482	0.93912
3850.88102	0.93997
3848.82721	0.94070
3846.77341	0.94114
3844.71961	0.94141
3842.66580	0.94154
3840.61200	0.94163
3838.55820	0.94176
3836.50439	0.94189
3834.45059	0.94183
3832.39679	0.94149
3830.34298	0.94098
3828.28918	0.94078
3826.23538	0.94136
3824.18158	0.94227
3822.12777	0.94250
3820.07397	0.94207
3818.02017	0.94187
3815.96636	0.94210
3813.91256	0.94269
3811.85876	0.94338
3809.80495	0.94384
3807.75115	0.94372
3805.69735	0.94295
3803.64354	0.94198
3801.58974	0.94151
3799.53594	0.94202
3797.48213	0.94208
3795.42833	0.94155
3793.37453	0.94154
3791.32072	0.94188
3789.26692	0.94225
3787.21312	0.94264
3785.15931	0.94262
3783.10551	0.94220
3781.05171	0.94213
3778.99790	0.94235
3776.94410	0.94215
3774.89030	0.94205
3772.83650	0.94236
3770.78269	0.94232
3768.72889	0.94166
3766.67509	0.94137
3764.62128	0.94161
3762.56748	0.94165
3760.51368	0.94122
3758.45987	0.94087
3756.40607	0.94148
3754.35227	0.94277
3752.29846	0.94374
3750.24466	0.94369
3748.19086	0.94370
3746.13705	0.94330
3744.08325	0.94190
3742.02945	0.94198
3739.97564	0.94323
3737.92184	0.94466
3735.86804	0.94580
3733.81423	0.94555
3731.76043	0.94487
3729.70663	0.94457
3727.65282	0.94476
3725.59902	0.94533
3723.54522	0.94527
3721.49141	0.94412
3719.43761	0.94294
3717.38381	0.94212
3715.33001	0.94128
3713.27620	0.94114
3711.22240	0.94200
3709.16860	0.94188
3707.11479	0.94052
3705.06099	0.93917
3703.00719	0.93826
3700.95338	0.93741
3698.89958	0.93624
3696.84578	0.93542
3694.79197	0.93557
3692.73817	0.93619
3690.68437	0.93664
3688.63056	0.93708
3686.57676	0.93770
3684.52296	0.93810
3682.46915	0.93818
3680.41535	0.93796
3678.36155	0.93765
3676.30774	0.93786
3674.25394	0.93834
3672.20014	0.93824
3670.14633	0.93722
3668.09253	0.93561
3666.03873	0.93511
3663.98492	0.93540
3661.93112	0.93524
3659.87732	0.93464
3657.82352	0.93430
3655.76971	0.93377
3653.71591	0.93318
3651.66211	0.93298
3649.60830	0.93235
3647.55450	0.93099
3645.50070	0.93051
3643.44689	0.93045
3641.39309	0.92987
3639.33929	0.92909
3637.28548	0.92880
3635.23168	0.92905
3633.17788	0.92926
3631.12407	0.92917
3629.07027	0.92876
3627.01647	0.92811
3624.96266	0.92778
3622.90886	0.92717
3620.85506	0.92592
3618.80125	0.92479
3616.74745	0.92455
3614.69365	0.92498
3612.63984	0.92565
3610.58604	0.92624
3608.53224	0.92664
3606.47844	0.92643
3604.42463	0.92610
3602.37083	0.92609
3600.31703	0.92593
3598.26322	0.92564
3596.20942	0.92540
3594.15562	0.92519
3592.10181	0.92503
3590.04801	0.92494
3587.99421	0.92533
3585.94040	0.92575
3583.88660	0.92539
3581.83280	0.92505
3579.77899	0.92518
3577.72519	0.92529
3575.67139	0.92502
3573.61758	0.92448
3571.56378	0.92396
3569.50998	0.92383
3567.45617	0.92372
3565.40237	0.92317
3563.34857	0.92281
3561.29476	0.92244
3559.24096	0.92190
3557.18716	0.92175
3555.13335	0.92178
3553.07955	0.92159
3551.02575	0.92131
3548.97195	0.92084
3546.91814	0.92015
3544.86434	0.91971
3542.81054	0.91929
3540.75673	0.91884
3538.70293	0.91915
3536.64913	0.92000
3534.59532	0.92026
3532.54152	0.91977
3530.48772	0.91911
3528.43391	0.91903
3526.38011	0.91964
3524.32631	0.91986
3522.27250	0.91929
3520.21870	0.91866
3518.16490	0.91839
3516.11109	0.91823
3514.05729	0.91801
3512.00349	0.91794
3509.94968	0.91788
3507.89588	0.91761
3505.84208	0.91735
3503.78827	0.91719
3501.73447	0.91721
3499.68067	0.91711
3497.62687	0.91674
3495.57306	0.91639
3493.51926	0.91596
3491.46546	0.91585
3489.41165	0.91619
3487.35785	0.91605
3485.30405	0.91548
3483.25024	0.91514
3481.19644	0.91491
3479.14264	0.91464
3477.08883	0.91422
3475.03503	0.91367
3472.98123	0.91357
3470.92742	0.91383
3468.87362	0.91371
3466.81982	0.91308
3464.76601	0.91250
3462.71221	0.91232
3460.65841	0.91228
3458.60460	0.91194
3456.55080	0.91154
3454.49700	0.91139
3452.44319	0.91138
3450.38939	0.91131
3448.33559	0.91120
3446.28178	0.91131
3444.22798	0.91127
3442.17418	0.91083
3440.12038	0.91036
3438.06657	0.91010
3436.01277	0.91018
3433.95897	0.91024
3431.90516	0.90987
3429.85136	0.90927
3427.79756	0.90895
3425.74375	0.90888
3423.68995	0.90880
3421.63615	0.90876
3419.58234	0.90878
3417.52854	0.90862
3415.47474	0.90810
3413.42093	0.90797
3411.36713	0.90846
3409.31333	0.90844
3407.25952	0.90769
3405.20572	0.90723
3403.15192	0.90752
3401.09811	0.90786
3399.04431	0.90771
3396.99051	0.90750
3394.93670	0.90764
3392.88290	0.90802
3390.82910	0.90793
3388.77529	0.90731
3386.72149	0.90712
3384.66769	0.90713
3382.61389	0.90700
3380.56008	0.90717
3378.50628	0.90744
3376.45248	0.90756
3374.39867	0.90726
3372.34487	0.90681
3370.29107	0.90664
3368.23726	0.90652
3366.18346	0.90649
3364.12966	0.90690
3362.07585	0.90739
3360.02205	0.90725
3357.96825	0.90671
3355.91444	0.90646
3353.86064	0.90639
3351.80684	0.90666
3349.75303	0.90738
3347.69923	0.90797
3345.64543	0.90814
3343.59162	0.90821
3341.53782	0.90875
3339.48402	0.90941
3337.43021	0.90942
3335.37641	0.90933
3333.32261	0.90971
3331.26881	0.90989
3329.21500	0.90966
3327.16120	0.90952
3325.10740	0.90960
3323.05359	0.90970
3320.99979	0.90957
3318.94599	0.90939
3316.89218	0.90954
3314.83838	0.90981
3312.78458	0.91015
3310.73077	0.91061
3308.67697	0.91083
3306.62317	0.91104
3304.56936	0.91135
3302.51556	0.91150
3300.46176	0.91180
3298.40795	0.91200
3296.35415	0.91172
3294.30035	0.91139
3292.24654	0.91118
3290.19274	0.91106
3288.13894	0.91136
3286.08513	0.91198
3284.03133	0.91251
3281.97753	0.91297
3279.92372	0.91339
3277.86992	0.91344
3275.81612	0.91324
3273.76232	0.91306
3271.70851	0.91281
3269.65471	0.91279
3267.60091	0.91319
3265.54710	0.91344
3263.49330	0.91346
3261.43950	0.91352
3259.38569	0.91369
3257.33189	0.91392
3255.27809	0.91424
3253.22428	0.91472
3251.17048	0.91481
3249.11668	0.91453
3247.06287	0.91472
3245.00907	0.91536
3242.95527	0.91575
3240.90146	0.91567
3238.84766	0.91549
3236.79386	0.91545
3234.74005	0.91560
3232.68625	0.91596
3230.63245	0.91644
3228.57864	0.91693
3226.52484	0.91745
3224.47104	0.91751
3222.41724	0.91713
3220.36343	0.91722
3218.30963	0.91736
3216.25583	0.91718
3214.20202	0.91732
3212.14822	0.91762
3210.09442	0.91759
3208.04061	0.91746
3205.98681	0.91785
3203.93301	0.91874
3201.87920	0.91952
3199.82540	0.91972
3197.77160	0.91952
3195.71779	0.91956
3193.66399	0.91967
3191.61019	0.91957
3189.55638	0.91965
3187.50258	0.91986
3185.44878	0.91999
3183.39497	0.92021
3181.34117	0.92056
3179.28737	0.92097
3177.23356	0.92119
3175.17976	0.92128
3173.12596	0.92172
3171.07215	0.92224
3169.01835	0.92223
3166.96455	0.92200
3164.91075	0.92220
3162.85694	0.92277
3160.80314	0.92306
3158.74934	0.92284
3156.69553	0.92285
3154.64173	0.92345
3152.58793	0.92420
3150.53412	0.92488
3148.48032	0.92518
3146.42652	0.92520
3144.37271	0.92513
3142.31891	0.92521
3140.26511	0.92578
3138.21130	0.92624
3136.15750	0.92654
3134.10370	0.92710
3132.04989	0.92723
3129.99609	0.92691
3127.94229	0.92695
3125.88848	0.92752
3123.83468	0.92828
3121.78088	0.92862
3119.72707	0.92834
3117.67327	0.92797
3115.61947	0.92786
3113.56566	0.92786
3111.51186	0.92771
3109.45806	0.92743
3107.40426	0.92697
3105.35045	0.92640
3103.29665	0.92626
3101.24285	0.92637
3099.18904	0.92640
3097.13524	0.92674
3095.08144	0.92711
3093.02763	0.92686
3090.97383	0.92604
3088.92003	0.92462
3086.86622	0.92254
3084.81242	0.92031
3082.75862	0.91894
3080.70481	0.91909
3078.65101	0.92018
3076.59721	0.92148
3074.54340	0.92265
3072.48960	0.92327
3070.43580	0.92299
3068.38199	0.92182
3066.32819	0.92004
3064.27439	0.91756
3062.22058	0.91471
3060.16678	0.91296
3058.11298	0.91320
3056.05918	0.91505
3054.00537	0.91764
3051.95157	0.92031
3049.89777	0.92253
3047.84396	0.92415
3045.79016	0.92516
3043.73636	0.92522
3041.68255	0.92469
3039.62875	0.92415
3037.57495	0.92312
3035.52114	0.92067
3033.46734	0.91617
3031.41354	0.90986
3029.35973	0.90291
3027.30593	0.89697
3025.25213	0.89390
3023.19832	0.89515
3021.14452	0.90039
3019.09072	0.90723
3017.03691	0.91346
3014.98311	0.91838
3012.92931	0.92167
3010.87550	0.92355
3008.82170	0.92457
3006.76790	0.92495
3004.71409	0.92501
3002.66029	0.92493
3000.60649	0.92516
2998.55269	0.92598
2996.49888	0.92706
2994.44508	0.92830
2992.39128	0.92950
2990.33747	0.93046
2988.28367	0.93118
2986.22987	0.93146
2984.17606	0.93145
2982.12226	0.93138
2980.06846	0.93136
2978.01465	0.93164
2975.96085	0.93197
2973.90705	0.93206
2971.85324	0.93183
2969.79944	0.93151
2967.74564	0.93136
2965.69183	0.93083
2963.63803	0.92966
2961.58423	0.92837
2959.53042	0.92748
2957.47662	0.92704
2955.42282	0.92647
2953.36901	0.92553
2951.31521	0.92430
2949.26141	0.92291
2947.20761	0.92164
2945.15380	0.92009
2943.10000	0.91759
2941.04620	0.91430
2938.99239	0.91087
2936.93859	0.90691
2934.88479	0.90218
2932.83098	0.89754
2930.77718	0.89307
2928.72338	0.88850
2926.66957	0.88417
2924.61577	0.88069
2922.56197	0.87858
2920.50816	0.87777
2918.45436	0.87806
2916.40056	0.87946
2914.34675	0.88201
2912.29295	0.88538
2910.23915	0.88900
2908.18534	0.89264
2906.13154	0.89601
2904.07774	0.89893
2902.02393	0.90166
2899.97013	0.90435
2897.91633	0.90701
2895.86252	0.90951
2893.80872	0.91153
2891.75492	0.91320
2889.70112	0.91463
2887.64731	0.91567
2885.59351	0.91651
2883.53971	0.91764
2881.48590	0.91913
2879.43210	0.92041
2877.37830	0.92109
2875.32449	0.92142
2873.27069	0.92177
2871.21689	0.92221
2869.16308	0.92284
2867.10928	0.92329
2865.05548	0.92300
2863.00167	0.92203
2860.94787	0.92047
2858.89407	0.91844
2856.84026	0.91621
2854.78646	0.91377
2852.73266	0.91143
2850.67885	0.90980
2848.62505	0.90964
2846.57125	0.91112
2844.51744	0.91355
2842.46364	0.91651
2840.40984	0.91954
2838.35603	0.92231
2836.30223	0.92484
2834.24843	0.92689
2832.19463	0.92825
2830.14082	0.92913
2828.08702	0.92997
2826.03322	0.93081
2823.97941	0.93160
2821.92561	0.93224
2819.87181	0.93244
2817.81800	0.93254
2815.76420	0.93298
2813.71040	0.93340
2811.65659	0.93366
2809.60279	0.93397
2807.54899	0.93413
2805.49518	0.93408
2803.44138	0.93411
2801.38758	0.93419
2799.33377	0.93426
2797.27997	0.93447
2795.22617	0.93485
2793.17236	0.93536
2791.11856	0.93581
2789.06476	0.93586
2787.01095	0.93556
2784.95715	0.93562
2782.90335	0.93606
2780.84955	0.93623
2778.79574	0.93633
2776.74194	0.93646
2774.68814	0.93638
2772.63433	0.93639
2770.58053	0.93664
2768.52673	0.93687
2766.47292	0.93684
2764.41912	0.93675
2762.36532	0.93695
2760.31151	0.93732
2758.25771	0.93752
2756.20391	0.93758
2754.15010	0.93767
2752.09630	0.93778
2750.04250	0.93774
2747.98869	0.93766
2745.93489	0.93758
2743.88109	0.93744
2741.82728	0.93752
2739.77348	0.93794
2737.71968	0.93832
2735.66587	0.93827
2733.61207	0.93820
2731.55827	0.93840
2729.50446	0.93834
2727.45066	0.93807
2725.39686	0.93827
2723.34306	0.93864
2721.28925	0.93866
2719.23545	0.93834
2717.18165	0.93800
2715.12784	0.93808
2713.07404	0.93838
2711.02024	0.93846
2708.96643	0.93844
2706.91263	0.93864
2704.85883	0.93896
2702.80502	0.93902
2700.75122	0.93883
2698.69742	0.93858
2696.64361	0.93845
2694.58981	0.93842
2692.53601	0.93851
2690.48220	0.93868
2688.42840	0.93864
2686.37460	0.93843
2684.32079	0.93841
2682.26699	0.93852
2680.21319	0.93860
2678.15938	0.93874
2676.10558	0.93913
2674.05178	0.93966
2671.99797	0.93989
2669.94417	0.93959
2667.89037	0.93915
2665.83657	0.93905
2663.78276	0.93912
2661.72896	0.93920
2659.67516	0.93935
2657.62135	0.93950
2655.56755	0.93965
2653.51375	0.93964
2651.45994	0.93943
2649.40614	0.93954
2647.35234	0.94001
2645.29853	0.94016
2643.24473	0.93981
2641.19093	0.93947
2639.13712	0.93963
2637.08332	0.93989
2635.02952	0.93990
2632.97571	0.94008
2630.92191	0.94042
2628.86811	0.94065
2626.81430	0.94088
2624.76050	0.94111
2622.70670	0.94107
2620.65289	0.94102
2618.59909	0.94124
2616.54529	0.94139
2614.49149	0.94141
2612.43768	0.94152
2610.38388	0.94146
2608.33008	0.94103
2606.27627	0.94080
2604.22247	0.94095
2602.16867	0.94109
2600.11486	0.94121
2598.06106	0.94137
2596.00726	0.94181
2593.95345	0.94220
2591.89965	0.94219
2589.84585	0.94222
2587.79204	0.94232
2585.73824	0.94251
2583.68444	0.94292
2581.63063	0.94314
2579.57683	0.94316
2577.52303	0.94316
2575.46922	0.94316
2573.41542	0.94307
2571.36162	0.94252
2569.30781	0.94186
2567.25401	0.94195
2565.20021	0.94240
2563.14640	0.94253
2561.09260	0.94261
2559.03880	0.94265
2556.98500	0.94251
2554.93119	0.94283
2552.87739	0.94353
2550.82359	0.94349
2548.76978	0.94321
2546.71598	0.94338
2544.66218	0.94325
2542.60837	0.94255
2540.55457	0.94203
2538.50077	0.94247
2536.44696	0.94322
2534.39316	0.94352
2532.33936	0.94369
2530.28555	0.94378
2528.23175	0.94336
2526.17795	0.94276
2524.12414	0.94280
2522.07034	0.94321
2520.01654	0.94366
2517.96273	0.94419
2515.90893	0.94446
2513.85513	0.94460
2511.80132	0.94474
2509.74752	0.94461
2507.69372	0.94418
2505.63992	0.94341
2503.58611	0.94271
2501.53231	0.94289
2499.47851	0.94368
2497.42470	0.94407
2495.37090	0.94394
2493.31710	0.94418
2491.26329	0.94468
2489.20949	0.94452
2487.15569	0.94415
2485.10188	0.94440
2483.04808	0.94474
2480.99428	0.94485
2478.94047	0.94488
2476.88667	0.94468
2474.83287	0.94441
2472.77906	0.94402
2470.72526	0.94353
2468.67146	0.94351
2466.61765	0.94413
2464.56385	0.94503
2462.51005	0.94546
2460.45624	0.94500
2458.40244	0.94420
2456.34864	0.94368
2454.29483	0.94392
2452.24103	0.94475
2450.18723	0.94530
2448.13343	0.94534
2446.07962	0.94491
2444.02582	0.94442
2441.97202	0.94439
2439.91821	0.94465
2437.86441	0.94513
2435.81061	0.94569
2433.75680	0.94584
2431.70300	0.94574
2429.64920	0.94581
2427.59539	0.94578
2425.54159	0.94543
2423.48779	0.94530
2421.43398	0.94586
2419.38018	0.94640
2417.32638	0.94598
2415.27257	0.94512
2413.21877	0.94484
2411.16497	0.94497
2409.11116	0.94504
2407.05736	0.94502
2405.00356	0.94498
2402.94975	0.94520
2400.89595	0.94522
2398.84215	0.94484
2396.78834	0.94494
2394.73454	0.94568
2392.68074	0.94624
2390.62694	0.94612
2388.57313	0.94574
2386.51933	0.94556
2384.46553	0.94532
2382.41172	0.94519
2380.35792	0.94553
2378.30412	0.94569
2376.25031	0.94530
2374.19651	0.94474
2372.14271	0.94444
2370.08890	0.94396
2368.03510	0.94318
2365.98130	0.94375
2363.92749	0.94551
2361.87369	0.94652
2359.81989	0.94648
2357.76608	0.94595
2355.71228	0.94515
2353.65848	0.94447
2351.60467	0.94423
2349.55087	0.94457
2347.49707	0.94509
2345.44326	0.94521
2343.38946	0.94521
2341.33566	0.94495
2339.28186	0.94454
2337.22805	0.94485
2335.17425	0.94538
2333.12045	0.94524
2331.06664	0.94495
2329.01284	0.94520
2326.95904	0.94531
2324.90523	0.94479
2322.85143	0.94438
2320.79763	0.94445
2318.74382	0.94435
2316.69002	0.94424
2314.63622	0.94471
2312.58241	0.94481
2310.52861	0.94438
2308.47481	0.94457
2306.42100	0.94515
2304.36720	0.94527
2302.31340	0.94482
2300.25959	0.94458
2298.20579	0.94524
2296.15199	0.94604
2294.09818	0.94598
2292.04438	0.94554
2289.99058	0.94524
2287.93677	0.94490
2285.88297	0.94472
2283.82917	0.94488
2281.77537	0.94567
2279.72156	0.94666
2277.66776	0.94635
2275.61396	0.94520
2273.56015	0.94513
2271.50635	0.94624
2269.45255	0.94701
2267.39874	0.94690
2265.34494	0.94699
2263.29114	0.94804
2261.23733	0.94851
2259.18353	0.94712
2257.12973	0.94612
2255.07592	0.94716
2253.02212	0.94810
2250.96832	0.94784
2248.91451	0.94786
2246.86071	0.94788
2244.80691	0.94714
2242.75310	0.94665
2240.69930	0.94692
2238.64550	0.94731
2236.59169	0.94749
2234.53789	0.94750
2232.48409	0.94673
2230.43029	0.94602
2228.37648	0.94673
2226.32268	0.94757
2224.26888	0.94819
2222.21507	0.95011
2220.16127	0.95147
2218.10747	0.95047
2216.05366	0.94919
2213.99986	0.94809
2211.94606	0.94791
2209.89225	0.95047
2207.83845	0.95320
2205.78465	0.95271
2203.73084	0.94992
2201.67704	0.94853
2199.62324	0.95039
2197.56943	0.95289
2195.51563	0.95303
2193.46183	0.95176
2191.40802	0.95080
2189.35422	0.94998
2187.30042	0.94932
2185.24661	0.94982
2183.19281	0.95149
2181.13901	0.95253
2179.08520	0.95237
2177.03140	0.95163
2174.97760	0.95104
2172.92380	0.95054
2170.86999	0.94937
2168.81619	0.94969
2166.76239	0.95218
2164.70858	0.95317
2162.65478	0.95103
2160.60098	0.94909
2158.54717	0.95030
2156.49337	0.95245
2154.43957	0.95471
2152.38576	0.95729
2150.33196	0.95736
2148.27816	0.95556
2146.22435	0.95403
2144.17055	0.95265
2142.11675	0.95222
2140.06294	0.95267
2138.00914	0.95312
2135.95534	0.95355
2133.90153	0.95415
2131.84773	0.95471
2129.79393	0.95498
2127.74012	0.95457
2125.68632	0.95304
2123.63252	0.95195
2121.57871	0.95225
2119.52491	0.95176
2117.47111	0.94992
2115.41731	0.94833
2113.36350	0.94782
2111.30970	0.94893
2109.25590	0.95120
2107.20209	0.95296
2105.14829	0.95333
2103.09449	0.95283
2101.04068	0.95267
2098.98688	0.95311
2096.93308	0.95290
2094.87927	0.95189
2092.82547	0.95162
2090.77167	0.95223
2088.71786	0.95220
2086.66406	0.95088
2084.61026	0.94965
2082.55645	0.94978
2080.50265	0.95044
2078.44885	0.95056
2076.39504	0.95026
2074.34124	0.95071
2072.28744	0.95256
2070.23363	0.95429
2068.17983	0.95437
2066.12603	0.95319
2064.07223	0.95167
2062.01842	0.95048
2059.96462	0.94977
2057.91082	0.94986
2055.85701	0.95081
2053.80321	0.95174
2051.74941	0.95254
2049.69560	0.95274
2047.64180	0.95194
2045.58800	0.95172
2043.53419	0.95271
2041.48039	0.95397
2039.42659	0.95514
2037.37278	0.95484
2035.31898	0.95209
2033.26518	0.94981
2031.21137	0.95066
2029.15757	0.95353
2027.10377	0.95534
2025.04996	0.95635
2022.99616	0.95793
2020.94236	0.95678
2018.88855	0.95359
2016.83475	0.95273
2014.78095	0.95277
2012.72714	0.95194
2010.67334	0.95185
2008.61954	0.95361
2006.56574	0.95568
2004.51193	0.95505
2002.45813	0.95265
2000.40433	0.95200
1998.35052	0.95282
1996.29672	0.95287
1994.24292	0.95341
1992.18911	0.95495
1990.13531	0.95566
1988.08151	0.95606
1986.02770	0.95603
1983.97390	0.95412
1981.92010	0.95193
1979.86629	0.95272
1977.81249	0.95587
1975.75869	0.95776
1973.70488	0.95700
1971.65108	0.95408
1969.59728	0.95099
1967.54347	0.94974
1965.48967	0.95055
1963.43587	0.95270
1961.38206	0.95362
1959.32826	0.95250
1957.27446	0.95266
1955.22066	0.95343
1953.16685	0.95218
1951.11305	0.95046
1949.05925	0.94979
1947.00544	0.94967
1944.95164	0.94923
1942.89784	0.94848
1940.84403	0.94802
1938.79023	0.94796
1936.73643	0.94833
1934.68262	0.94927
1932.62882	0.95023
1930.57502	0.95059
1928.52121	0.95063
1926.46741	0.95107
1924.41361	0.95201
1922.35980	0.95248
1920.30600	0.95226
1918.25220	0.95198
1916.19839	0.95236
1914.14459	0.95323
1912.09079	0.95305
1910.03698	0.95218
1907.98318	0.95205
1905.92938	0.95228
1903.87557	0.95237
1901.82177	0.95254
1899.76797	0.95309
1897.71417	0.95353
1895.66036	0.95323
1893.60656	0.95272
1891.55276	0.95239
1889.49895	0.95202
1887.44515	0.95136
1885.39135	0.95039
1883.33754	0.94974
1881.28374	0.94977
1879.22994	0.95043
1877.17613	0.95111
1875.12233	0.95069
1873.06853	0.94977
1871.01472	0.94933
1868.96092	0.94897
1866.90712	0.94876
1864.85331	0.94891
1862.79951	0.94908
1860.74571	0.94969
1858.69190	0.95092
1856.63810	0.95176
1854.58430	0.95198
1852.53049	0.95235
1850.47669	0.95259
1848.42289	0.95226
1846.36908	0.95204
1844.31528	0.95260
1842.26148	0.95318
1840.20768	0.95329
1838.15387	0.95342
1836.10007	0.95374
1834.04627	0.95378
1831.99246	0.95317
1829.93866	0.95240
1827.88486	0.95208
1825.83105	0.95193
1823.77725	0.95155
1821.72345	0.95135
1819.66964	0.95173
1817.61584	0.95209
1815.56204	0.95169
1813.50823	0.95104
1811.45443	0.95072
1809.40063	0.95035
1807.34682	0.94987
1805.29302	0.94950
1803.23922	0.94927
1801.18541	0.94894
1799.13161	0.94853
1797.07781	0.94851
1795.02400	0.94892
1792.97020	0.94962
1790.91640	0.95072
1788.86260	0.95165
1786.80879	0.95205
1784.75499	0.95203
1782.70119	0.95184
1780.64738	0.95185
1778.59358	0.95202
1776.53978	0.95211
1774.48597	0.95209
1772.43217	0.95204
1770.37837	0.95187
1768.32456	0.95161
1766.27076	0.95168
1764.21696	0.95210
1762.16315	0.95239
1760.10935	0.95210
1758.05555	0.95139
1756.00174	0.95046
1753.94794	0.94950
1751.89414	0.94866
1749.84033	0.94784
1747.78653	0.94679
1745.73273	0.94580
1743.67892	0.94538
1741.62512	0.94555
1739.57132	0.94598
1737.51751	0.94649
1735.46371	0.94688
1733.40991	0.94721
1731.35611	0.94764
1729.30230	0.94800
1727.24850	0.94828
1725.19470	0.94847
1723.14089	0.94859
1721.08709	0.94877
1719.03329	0.94911
1716.97948	0.94939
1714.92568	0.94908
1712.87188	0.94895
1710.81807	0.94904
1708.76427	0.94894
1706.71047	0.94873
1704.65666	0.94838
1702.60286	0.94763
1700.54906	0.94637
1698.49525	0.94560
1696.44145	0.94543
1694.38765	0.94486
1692.33384	0.94424
1690.28004	0.94374
1688.22624	0.94314
1686.17243	0.94225
1684.11863	0.94075
1682.06483	0.93932
1680.01103	0.93826
1677.95722	0.93725
1675.90342	0.93632
1673.84962	0.93558
1671.79581	0.93526
1669.74201	0.93490
1667.68821	0.93387
1665.63440	0.93274
1663.58060	0.93188
1661.52680	0.93122
1659.47299	0.93074
1657.41919	0.93053
1655.36539	0.93046
1653.31158	0.93029
1651.25778	0.93032
1649.20398	0.93043
1647.15017	0.93042
1645.09637	0.93073
1643.04257	0.93119
1640.98876	0.93128
1638.93496	0.93092
1636.88116	0.93052
1634.82735	0.93064
1632.77355	0.93084
1630.71975	0.93077
1628.66594	0.93081
1626.61214	0.93130
1624.55834	0.93211
1622.50454	0.93277
1620.45073	0.93304
1618.39693	0.93317
1616.34313	0.93311
1614.28932	0.93294
1612.23552	0.93256
1610.18172	0.93092
1608.12791	0.92703
1606.07411	0.92089
1604.02031	0.91333
1601.96650	0.90704
1599.91270	0.90624
1597.85890	0.91114
1595.80509	0.91799
1593.75129	0.92381
1591.69749	0.92782
1589.64368	0.93012
1587.58988	0.93049
1585.53608	0.92902
1583.48227	0.92773
1581.42847	0.92890
1579.37467	0.93179
1577.32086	0.93493
1575.26706	0.93741
1573.21326	0.93835
1571.15945	0.93882
1569.10565	0.93933
1567.05185	0.93969
1564.99805	0.94022
1562.94424	0.94094
1560.89044	0.94167
1558.83664	0.94174
1556.78283	0.94081
1554.72903	0.94063
1552.67523	0.94085
1550.62142	0.94096
1548.56762	0.94084
1546.51382	0.94060
1544.46001	0.94039
1542.40621	0.94036
1540.35241	0.94084
1538.29860	0.94140
1536.24480	0.94148
1534.19100	0.94207
1532.13719	0.94330
1530.08339	0.94397
1528.02959	0.94442
1525.97578	0.94494
1523.92198	0.94514
1521.86818	0.94501
1519.81437	0.94525
1517.76057	0.94567
1515.70677	0.94591
1513.65297	0.94631
1511.59916	0.94677
1509.54536	0.94686
1507.49156	0.94629
1505.43775	0.94559
1503.38395	0.94460
1501.33015	0.94194
1499.27634	0.93417
1497.22254	0.91193
1495.16874	0.87830
1493.11493	0.85806
1491.06113	0.86265
1489.00733	0.88927
1486.95352	0.91192
1484.89972	0.92257
1482.84592	0.92892
1480.79211	0.93352
1478.73831	0.93620
1476.68451	0.93690
1474.63070	0.93645
1472.57690	0.93585
1470.52310	0.93539
1468.46929	0.93519
1466.41549	0.93488
1464.36169	0.93394
1462.30788	0.93260
1460.25408	0.93029
1458.20028	0.91979
1456.14648	0.88883
1454.09267	0.86054
1452.03887	0.84949
1449.98507	0.85461
1447.93126	0.86945
1445.87746	0.88323
1443.82366	0.89283
1441.76985	0.90055
1439.71605	0.90693
1437.66225	0.91317
1435.60844	0.91982
1433.55464	0.92409
1431.50084	0.92668
1429.44703	0.92906
1427.39323	0.93100
1425.33943	0.93232
1423.28562	0.93321
1421.23182	0.93396
1419.17802	0.93508
1417.12421	0.93617
1415.07041	0.93664
1413.01661	0.93703
1410.96280	0.93785
1408.90900	0.93888
1406.85520	0.93966
1404.80139	0.94035
1402.74759	0.94080
1400.69379	0.94116
1398.63999	0.94187
1396.58618	0.94249
1394.53238	0.94274
1392.47858	0.94264
1390.42477	0.94190
1388.37097	0.94076
1386.31717	0.93940
1384.26336	0.93787
1382.20956	0.93656
1380.15576	0.93561
1378.10195	0.93479
1376.04815	0.93396
1373.99435	0.93332
1371.94054	0.93309
1369.88674	0.93320
1367.83294	0.93347
1365.77913	0.93376
1363.72533	0.93426
1361.67153	0.93511
1359.61772	0.93596
1357.56392	0.93679
1355.51012	0.93762
1353.45631	0.93815
1351.40251	0.93820
1349.34871	0.93815
1347.29491	0.93841
1345.24110	0.93912
1343.18730	0.94002
1341.13350	0.94074
1339.07969	0.94119
1337.02589	0.94130
1334.97209	0.94102
1332.91828	0.94042
1330.86448	0.93969
1328.81068	0.93925
1326.75687	0.93933
1324.70307	0.93974
1322.64927	0.93995
1320.59546	0.94000
1318.54166	0.94026
1316.48786	0.94050
1314.43405	0.94039
1312.38025	0.94011
1310.32645	0.94002
1308.27264	0.94049
1306.21884	0.94135
1304.16504	0.94196
1302.11123	0.94232
1300.05743	0.94259
1298.00363	0.94277
1295.94982	0.94306
1293.89602	0.94325
1291.84222	0.94324
1289.78842	0.94344
1287.73461	0.94400
1285.68081	0.94460
1283.62701	0.94472
1281.57320	0.94445
1279.51940	0.94419
1277.46560	0.94392
1275.41179	0.94362
1273.35799	0.94354
1271.30419	0.94388
1269.25038	0.94437
1267.19658	0.94452
1265.14278	0.94458
1263.08897	0.94478
1261.03517	0.94491
1258.98137	0.94499
1256.92756	0.94495
1254.87376	0.94476
1252.81996	0.94462
1250.76615	0.94437
1248.71235	0.94394
1246.65855	0.94358
1244.60474	0.94346
1242.55094	0.94334
1240.49714	0.94309
1238.44334	0.94293
1236.38953	0.94275
1234.33573	0.94245
1232.28193	0.94221
1230.22812	0.94192
1228.17432	0.94124
1226.12052	0.94033
1224.06671	0.93970
1222.01291	0.93933
1219.95911	0.93867
1217.90530	0.93759
1215.85150	0.93624
1213.79770	0.93485
1211.74389	0.93342
1209.69009	0.93154
1207.63629	0.92938
1205.58248	0.92747
1203.52868	0.92558
1201.47488	0.92343
1199.42107	0.92102
1197.36727	0.91837
1195.31347	0.91583
1193.25966	0.91342
1191.20586	0.91080
1189.15206	0.90791
1187.09825	0.90477
1185.04445	0.90118
1182.99065	0.89737
1180.93685	0.89414
1178.88304	0.89216
1176.82924	0.89113
1174.77544	0.89012
1172.72163	0.88884
1170.66783	0.88740
1168.61403	0.88569
1166.56022	0.88364
1164.50642	0.88160
1162.45262	0.87990
1160.39881	0.87810
1158.34501	0.87552
1156.29121	0.87245
1154.23740	0.86985
1152.18360	0.86855
1150.12980	0.86865
1148.07599	0.86915
1146.02219	0.86925
1143.96839	0.86916
1141.91458	0.86892
1139.86078	0.86823
1137.80698	0.86702
1135.75317	0.86570
1133.69937	0.86450
1131.64557	0.86296
1129.59176	0.86096
1127.53796	0.85867
1125.48416	0.85602
1123.43036	0.85281
1121.37655	0.84892
1119.32275	0.84445
1117.26895	0.83966
1115.21514	0.83489
1113.16134	0.83031
1111.10754	0.82593
1109.05373	0.82201
1106.99993	0.81853
1104.94613	0.81555
1102.89232	0.81328
1100.83852	0.81155
1098.78472	0.81012
1096.73091	0.80867
1094.67711	0.80685
1092.62331	0.80483
1090.56950	0.80306
1088.51570	0.80166
1086.46190	0.80034
1084.40809	0.79895
1082.35429	0.79737
1080.30049	0.79555
1078.24668	0.79359
1076.19288	0.79131
1074.13908	0.78839
1072.08528	0.78477
1070.03147	0.78108
1067.97767	0.77802
1065.92387	0.77572
1063.87006	0.77399
1061.81626	0.77239
1059.76246	0.77051
1057.70865	0.76822
1055.65485	0.76551
1053.60105	0.76216
1051.54724	0.75788
1049.49344	0.75276
1047.43964	0.74720
1045.38583	0.74117
1043.33203	0.73441
1041.27823	0.72687
1039.22442	0.71867
1037.17062	0.71010
1035.11682	0.70078
1033.06301	0.69050
1031.00921	0.68046
1028.95541	0.67257
1026.90160	0.66848
1024.84780	0.66820
1022.79400	0.66970
1020.74019	0.67112
1018.68639	0.67193
1016.63259	0.67203
1014.57879	0.67161
1012.52498	0.67104
1010.47118	0.67046
1008.41738	0.66996
1006.36357	0.66953
1004.30977	0.66931
1002.25597	0.67069
1000.20216	0.67466
998.14836	0.67980
996.09456	0.68441
994.04075	0.68877
991.98695	0.69389
989.93315	0.69963
987.87934	0.70550
985.82554	0.71157
983.77174	0.71805
981.71793	0.72512
979.66413	0.73260
977.61033	0.74074
975.55652	0.74985
973.50272	0.75909
971.44892	0.76730
969.39511	0.77456
967.34131	0.78140
965.28751	0.78793
963.23371	0.79436
961.17990	0.80094
959.12610	0.80757
957.07230	0.81375
955.01849	0.81890
952.96469	0.82309
950.91089	0.82679
948.85708	0.83001
946.80328	0.83245
944.74948	0.83417
942.69567	0.83596
940.64187	0.83847
938.58807	0.84147
936.53426	0.84454
934.48046	0.84758
932.42666	0.85033
930.37285	0.85261
928.31905	0.85447
926.26525	0.85578
924.21144	0.85615
922.15764	0.85585
920.10384	0.85519
918.05003	0.85373
915.99623	0.85157
913.94243	0.84911
911.88862	0.84632
909.83482	0.84392
907.78102	0.84316
905.72722	0.84527
903.67341	0.85080
901.61961	0.85871
899.56581	0.86701
897.51200	0.87411
895.45820	0.87959
893.40440	0.88397
891.35059	0.88731
889.29679	0.88938
887.24299	0.89133
885.18918	0.89397
883.13538	0.89600
881.08158	0.89671
879.02777	0.89730
876.97397	0.89843
874.92017	0.89989
872.86636	0.90212
870.81256	0.90499
868.75876	0.90712
866.70495	0.90824
864.65115	0.90942
862.59735	0.91125
860.54354	0.91342
858.48974	0.91490
856.43594	0.91517
854.38213	0.91543
852.32833	0.91579
850.27453	0.91522
848.22073	0.91359
846.16692	0.91140
844.11312	0.90958
842.05932	0.90867
840.00551	0.90818
837.95171	0.90787
835.89791	0.90849
833.84410	0.90974
831.79030	0.91054
829.73650	0.91115
827.68269	0.91185
825.62889	0.91216
823.57509	0.91204
821.52128	0.91214
819.46748	0.91279
817.41368	0.91319
815.35987	0.91294
813.30607	0.91250
811.25227	0.91154
809.19846	0.90921
807.14466	0.90563
805.09086	0.90220
803.03705	0.89932
800.98325	0.89648
798.92945	0.89492
796.87565	0.89507
794.82184	0.89503
792.76804	0.89390
790.71424	0.89247
788.66043	0.89120
786.60663	0.88951
784.55283	0.88699
782.49902	0.88344
780.44522	0.87874
778.39142	0.87366
776.33761	0.86849
774.28381	0.86196
772.23001	0.85268
770.17620	0.84067
768.12240	0.82725
766.06860	0.81356
764.01479	0.79980
761.96099	0.78617
759.90719	0.77387
757.85338	0.76465
755.79958	0.75980
753.74578	0.75891
751.69197	0.76002
749.63817	0.76225
747.58437	0.76678
745.53056	0.77644
743.47676	0.79285
741.42296	0.81231
739.36916	0.82950
737.31535	0.84318
735.26155	0.85507
733.20775	0.86579
731.15394	0.87427
729.10014	0.87977
727.04634	0.88276
724.99253	0.88436
722.93873	0.88593
720.88493	0.88815
718.83112	0.89006
716.77732	0.89085
714.72352	0.89027
712.66971	0.88576
710.61591	0.87250
708.56211	0.84535
706.50830	0.80017
704.45450	0.73569
702.40070	0.65440
700.34689	0.56326
698.29309	0.48021
696.23929	0.44208
694.18548	0.48185
692.13168	0.58053
690.07788	0.67967
688.02408	0.74449
685.97027	0.77976
683.91647	0.80006
681.86267	0.81326
679.80886	0.82169
677.75506	0.82667
675.70126	0.83018
673.64745	0.83381
671.59365	0.83772
669.53985	0.84117
667.48604	0.84258
665.43224	0.84170
663.37844	0.84123
661.32463	0.84192
659.27083	0.84311
657.21703	0.84426
655.16322	0.84409
653.10942	0.84234
651.05562	0.84124
649.00181	0.84189
646.94801	0.84372
644.89421	0.84525
642.84040	0.84552
640.78660	0.84557
638.73280	0.84603
636.67899	0.84687
634.62519	0.84804
632.57139	0.84892
630.51759	0.84862
628.46378	0.84721
626.40998	0.84631
624.35618	0.84646
622.30237	0.84570
620.24857	0.84332
618.19477	0.84131
616.14096	0.84033
614.08716	0.83882
612.03336	0.83637
609.97955	0.83445
607.92575	0.83326
605.87195	0.83119
603.81814	0.82910
601.76434	0.82708
599.71054	0.82375
597.65673	0.82073
595.60293	0.81853
593.54913	0.81649
591.49532	0.81555
589.44152	0.81484
587.38772	0.81329
585.33391	0.81167
583.28011	0.81057
581.22631	0.81025
579.17250	0.80914
577.11870	0.80529
575.06490	0.80074
573.01110	0.79713
570.95729	0.79325
568.90349	0.78888
566.84969	0.78314
564.79588	0.77638
562.74208	0.77019
560.68828	0.76376
558.63447	0.75656
556.58067	0.74892
554.52687	0.74202
552.47306	0.73580
550.41926	0.72752
548.36546	0.71702
546.31165	0.70591
544.25785	0.69394
542.20405	0.68058
540.15024	0.66835
538.09644	0.66068
536.04264	0.65813
533.98883	0.66103
531.93503	0.66822
529.88123	0.67648
527.82742	0.68449
525.77362	0.69232
523.71982	0.69973
521.66602	0.70655
519.61221	0.71260
517.55841	0.71741
515.50461	0.72244
513.45080	0.72925
511.39700	0.73693
509.34320	0.74311
507.28939	0.74680
505.23559	0.74984
503.18179	0.75214
501.12798	0.75287
499.07418	0.75365
497.02038	0.75348
494.96657	0.75079
492.91277	0.74626
490.85897	0.73981
488.80516	0.73208
486.75136	0.72413
484.69756	0.71414
482.64375	0.70153
480.58995	0.68937
478.53615	0.67761
476.48234	0.66449
474.42854	0.65183
472.37474	0.64220
470.32093	0.63596
468.26713	0.63208
466.21333	0.63088
464.15953	0.63412
462.10572	0.64076
460.05192	0.64748
457.99812	0.65474
455.94431	0.66253
453.89051	0.66876
451.83671	0.67576
449.78290	0.68396
447.72910	0.68936
445.67530	0.69007
443.62149	0.69005
441.56769	0.69158
439.51389	0.69122
437.46008	0.68729
435.40628	0.68246
433.35248	0.68002
431.29867	0.67924
429.24487	0.67759
427.19107	0.67717
425.13726	0.68362
423.08346	0.69134
421.02966	0.68917
418.97585	0.68400
416.92205	0.68828
414.86825	0.69459
412.81445	0.70182
410.76064	0.71166
408.70684	0.72074
406.65304	0.72985
404.59923	0.73875
402.54543	0.74120
400.49163	0.73706
398.43782	0.73077
