3996.71440	0.99096
3994.66059	0.99096
3992.60678	0.99102
3990.55297	0.99110
3988.49916	0.99119
3986.44535	0.99132
3984.39154	0.99131
3982.33773	0.99120
3980.28391	0.99108
3978.23010	0.99070
3976.17629	0.99032
3974.12248	0.99042
3972.06867	0.99065
3970.01486	0.99088
3967.96105	0.99118
3965.90724	0.99116
3963.85343	0.99095
3961.79962	0.99093
3959.74581	0.99113
3957.69200	0.99127
3955.63819	0.99126
3953.58438	0.99127
3951.53057	0.99133
3949.47676	0.99112
3947.42295	0.99080
3945.36914	0.99078
3943.31533	0.99099
3941.26152	0.99101
3939.20771	0.99080
3937.15390	0.99079
3935.10009	0.99099
3933.04628	0.99113
3930.99247	0.99109
3928.93866	0.99096
3926.88485	0.99088
3924.83104	0.99069
3922.77723	0.99046
3920.72342	0.99035
3918.66961	0.99026
3916.61580	0.99015
3914.56199	0.99020
3912.50818	0.99045
3910.45437	0.99079
3908.40056	0.99091
3906.34675	0.99072
3904.29294	0.99044
3902.23913	0.99036
3900.18532	0.99068
3898.13151	0.99108
3896.07770	0.99124
3894.02389	0.99116
3891.97008	0.99081
3889.91627	0.99035
3887.86246	0.99008
3885.80865	0.98998
3883.75484	0.99002
3881.70103	0.99030
3879.64722	0.99082
3877.59341	0.99114
3875.53960	0.99115
3873.48579	0.99101
3871.43198	0.99084
3869.37817	0.99079
3867.32436	0.99076
3865.27055	0.99073
3863.21674	0.99095
3861.16293	0.99117
3859.10912	0.99118
3857.05531	0.99119
3855.00150	0.99154
3852.94769	0.99197
3850.89388	0.99199
3848.84007	0.99185
3846.78626	0.99151
3844.73245	0.99110
3842.67864	0.99102
3840.62483	0.99106
3838.57102	0.99072
3836.51721	0.99047
3834.46340	0.99068
3832.40959	0.99094
3830.35578	0.99134
3828.30197	0.99173
3826.24816	0.99173
3824.19435	0.99146
3822.14054	0.99105
3820.08673	0.99052
3818.03292	0.99048
3815.97911	0.99094
3813.92530	0.99117
3811.87149	0.99115
3809.81768	0.99130
3807.76387	0.99151
3805.71006	0.99159
3803.65625	0.99165
3801.60244	0.99144
3799.54863	0.99127
3797.49482	0.99154
3795.44101	0.99177
3793.38720	0.99169
3791.33339	0.99152
3789.27958	0.99142
3787.22577	0.99132
3785.17196	0.99115
3783.11815	0.99113
3781.06434	0.99131
3779.01053	0.99138
3776.95672	0.99117
3774.90291	0.99087
3772.84910	0.99071
3770.79529	0.99085
3768.74148	0.99105
3766.68767	0.99102
3764.63386	0.99104
3762.58005	0.99113
3760.52624	0.99126
3758.47243	0.99163
3756.41862	0.99189
3754.36481	0.99172
3752.31100	0.99167
3750.25719	0.99180
3748.20338	0.99169
3746.14957	0.99199
3744.09576	0.99238
3742.04195	0.99199
3739.98814	0.99145
3737.93433	0.99109
3735.88052	0.99069
3733.82671	0.99055
3731.77290	0.99104
3729.71909	0.99150
3727.66528	0.99152
3725.61147	0.99150
3723.55766	0.99167
3721.50385	0.99168
3719.45004	0.99139
3717.39623	0.99100
3715.34242	0.99082
3713.28861	0.99081
3711.23480	0.99070
3709.18099	0.99057
3707.12718	0.99035
3705.07337	0.98994
3703.01956	0.98959
3700.96575	0.98949
3698.91194	0.98945
3696.85813	0.98918
3694.80432	0.98872
3692.75051	0.98839
3690.69670	0.98823
3688.64289	0.98822
3686.58907	0.98855
3684.53526	0.98895
3682.48145	0.98926
3680.42764	0.98938
3678.37383	0.98913
3676.32002	0.98849
3674.26621	0.98804
3672.21240	0.98827
3670.15859	0.98836
3668.10478	0.98771
3666.05097	0.98719
3663.99716	0.98721
3661.94335	0.98728
3659.88954	0.98702
3657.83573	0.98638
3655.78192	0.98568
3653.72811	0.98536
3651.67430	0.98495
3649.62049	0.98384
3647.56668	0.98281
3645.51287	0.98245
3643.45906	0.98243
3641.40525	0.98256
3639.35144	0.98243
3637.29763	0.98219
3635.24382	0.98211
3633.19001	0.98197
3631.13620	0.98185
3629.08239	0.98152
3627.02858	0.98074
3624.97477	0.98001
3622.92096	0.97946
3620.86715	0.97915
3618.81334	0.97895
3616.75953	0.97871
3614.70572	0.97836
3612.65191	0.97770
3610.59810	0.97661
3608.54429	0.97520
3606.49048	0.97411
3604.43667	0.97382
3602.38286	0.97401
3600.32905	0.97423
3598.27524	0.97417
3596.22143	0.97374
3594.16762	0.97344
3592.11381	0.97360
3590.06000	0.97357
3588.00619	0.97294
3585.95238	0.97221
3583.89857	0.97188
3581.84476	0.97185
3579.79095	0.97173
3577.73714	0.97128
3575.68333	0.97062
3573.62952	0.97011
3571.57571	0.97003
3569.52190	0.96998
3567.46809	0.96945
3565.41428	0.96880
3563.36047	0.96835
3561.30666	0.96787
3559.25285	0.96744
3557.19904	0.96721
3555.14523	0.96706
3553.09142	0.96677
3551.03761	0.96618
3548.98380	0.96557
3546.92999	0.96517
3544.87618	0.96475
3542.82237	0.96425
3540.76856	0.96389
3538.71475	0.96380
3536.66094	0.96377
3534.60713	0.96345
3532.55332	0.96288
3530.49951	0.96263
3528.44570	0.96272
3526.39189	0.96257
3524.33808	0.96208
3522.28427	0.96149
3520.23046	0.96106
3518.17665	0.96053
3516.12284	0.95978
3514.06903	0.95930
3512.01522	0.95921
3509.96141	0.95906
3507.90760	0.95885
3505.85379	0.95873
3503.79998	0.95856
3501.74617	0.95838
3499.69236	0.95811
3497.63855	0.95766
3495.58474	0.95747
3493.53093	0.95757
3491.47712	0.95737
3489.42331	0.95696
3487.36950	0.95675
3485.31569	0.95654
3483.26188	0.95603
3481.20807	0.95533
3479.15426	0.95492
3477.10045	0.95496
3475.04664	0.95502
3472.99283	0.95448
3470.93902	0.95373
3468.88521	0.95357
3466.83140	0.95384
3464.77759	0.95397
3462.72378	0.95379
3460.66997	0.95362
3458.61616	0.95349
3456.56235	0.95328
3454.50854	0.95317
3452.45473	0.95309
3450.40092	0.95293
3448.34711	0.95265
3446.29330	0.95220
3444.23949	0.95195
3442.18568	0.95202
3440.13187	0.95208
3438.07806	0.95208
3436.02425	0.95191
3433.97044	0.95148
3431.91663	0.95136
3429.86282	0.95161
3427.80901	0.95150
3425.75520	0.95108
3423.70139	0.95099
3421.64758	0.95105
3419.59377	0.95075
3417.53996	0.95043
3415.48615	0.95051
3413.43234	0.95068
3411.37853	0.95073
3409.32472	0.95075
3407.27091	0.95060
3405.21710	0.95014
3403.16329	0.94983
3401.10948	0.94995
3399.05567	0.95016
3397.00186	0.95025
3394.94805	0.95029
3392.89424	0.95023
3390.84042	0.95003
3388.78661	0.94985
3386.73280	0.94971
3384.67899	0.94965
3382.62518	0.94959
3380.57137	0.94939
3378.51756	0.94921
3376.46375	0.94925
3374.40994	0.94948
3372.35613	0.94970
3370.30232	0.94987
3368.24851	0.95003
3366.19470	0.95007
3364.14089	0.94996
3362.08708	0.94997
3360.03327	0.95018
3357.97946	0.95022
3355.92565	0.95005
3353.87184	0.94988
3351.81803	0.94977
3349.76422	0.94969
3347.71041	0.94953
3345.65660	0.94940
3343.60279	0.94959
3341.54898	0.94991
3339.49517	0.95014
3337.44136	0.95031
3335.38755	0.95042
3333.33374	0.95036
3331.27993	0.95004
3329.22612	0.94980
3327.17231	0.94978
3325.11850	0.94974
3323.06469	0.94980
3321.01088	0.95005
3318.95707	0.95023
3316.90326	0.95027
3314.84945	0.95031
3312.79564	0.95043
3310.74183	0.95054
3308.68802	0.95041
3306.63421	0.95014
3304.58040	0.95000
3302.52659	0.94989
3300.47278	0.94981
3298.41897	0.94977
3296.36516	0.94957
3294.31135	0.94939
3292.25754	0.94950
3290.20373	0.94966
3288.14992	0.94962
3286.09611	0.94956
3284.04230	0.94961
3281.98849	0.94970
3279.93468	0.94971
3277.88087	0.94958
3275.82706	0.94935
3273.77325	0.94920
3271.71944	0.94925
3269.66563	0.94939
3267.61182	0.94934
3265.55801	0.94914
3263.50420	0.94920
3261.45039	0.94965
3259.39658	0.95014
3257.34277	0.95029
3255.28896	0.95032
3253.23515	0.95051
3251.18134	0.95066
3249.12753	0.95060
3247.07372	0.95032
3245.01991	0.94999
3242.96610	0.95008
3240.91229	0.95051
3238.85848	0.95072
3236.80467	0.95077
3234.75086	0.95109
3232.69705	0.95145
3230.64324	0.95135
3228.58943	0.95100
3226.53562	0.95092
3224.48181	0.95120
3222.42800	0.95151
3220.37419	0.95154
3218.32038	0.95139
3216.26657	0.95147
3214.21276	0.95175
3212.15895	0.95177
3210.10514	0.95171
3208.05133	0.95191
3205.99752	0.95219
3203.94371	0.95234
3201.88990	0.95231
3199.83609	0.95238
3197.78228	0.95276
3195.72847	0.95308
3193.67466	0.95332
3191.62085	0.95358
3189.56704	0.95381
3187.51323	0.95398
3185.45942	0.95413
3183.40561	0.95427
3181.35180	0.95429
3179.29799	0.95422
3177.24418	0.95432
3175.19037	0.95466
3173.13656	0.95501
3171.08275	0.95517
3169.02894	0.95513
3166.97513	0.95495
3164.92132	0.95481
3162.86751	0.95486
3160.81370	0.95522
3158.75989	0.95580
3156.70608	0.95622
3154.65227	0.95618
3152.59846	0.95605
3150.54465	0.95632
3148.49084	0.95668
3146.43703	0.95671
3144.38322	0.95670
3142.32941	0.95675
3140.27560	0.95675
3138.22179	0.95683
3136.16798	0.95694
3134.11417	0.95698
3132.06036	0.95695
3130.00655	0.95697
3127.95274	0.95702
3125.89893	0.95710
3123.84512	0.95749
3121.79131	0.95792
3119.73750	0.95777
3117.68369	0.95739
3115.62988	0.95743
3113.57607	0.95754
3111.52226	0.95749
3109.46845	0.95746
3107.41464	0.95741
3105.36083	0.95721
3103.30702	0.95710
3101.25321	0.95724
3099.19940	0.95729
3097.14559	0.95683
3095.09177	0.95618
3093.03796	0.95608
3090.98415	0.95642
3088.93034	0.95644
3086.87653	0.95616
3084.82272	0.95611
3082.76891	0.95622
3080.71510	0.95619
3078.66129	0.95613
3076.60748	0.95609
3074.55367	0.95613
3072.49986	0.95623
3070.44605	0.95623
3068.39224	0.95618
3066.33843	0.95612
3064.28462	0.95582
3062.23081	0.95536
3060.17700	0.95521
3058.12319	0.95543
3056.06938	0.95566
3054.01557	0.95563
3051.96176	0.95534
3049.90795	0.95500
3047.85414	0.95490
3045.80033	0.95508
3043.74652	0.95525
3041.69271	0.95528
3039.63890	0.95524
3037.58509	0.95516
3035.53128	0.95510
3033.47747	0.95507
3031.42366	0.95502
3029.36985	0.95497
3027.31604	0.95483
3025.26223	0.95464
3023.20842	0.95457
3021.15461	0.95446
3019.10080	0.95430
3017.04699	0.95437
3014.99318	0.95457
3012.93937	0.95467
3010.88556	0.95450
3008.83175	0.95401
3006.77794	0.95355
3004.72413	0.95332
3002.67032	0.95316
3000.61651	0.95296
2998.56270	0.95257
2996.50889	0.95202
2994.45508	0.95148
2992.40127	0.95095
2990.34746	0.95029
2988.29365	0.94922
2986.23984	0.94782
2984.18603	0.94652
2982.13222	0.94530
2980.07841	0.94384
2978.02460	0.94216
2975.97079	0.94014
2973.91698	0.93738
2971.86317	0.93401
2969.80936	0.93051
2967.75555	0.92673
2965.70174	0.92229
2963.64793	0.91740
2961.59412	0.91285
2959.54031	0.90893
2957.48650	0.90516
2955.43269	0.90139
2953.37888	0.89804
2951.32507	0.89506
2949.27126	0.89134
2947.21745	0.88539
2945.16364	0.87657
2943.10983	0.86498
2941.05602	0.85064
2939.00221	0.83340
2936.94840	0.81324
2934.89459	0.79039
2932.84078	0.76492
2930.78697	0.73638
2928.73316	0.70375
2926.67935	0.66605
2924.62554	0.62247
2922.57173	0.57333
2920.51792	0.52214
2918.46411	0.47644
2916.41030	0.44649
2914.35649	0.44065
2912.30268	0.45892
2910.24887	0.49268
2908.19506	0.53121
2906.14125	0.56711
2904.08744	0.59746
2902.03363	0.62243
2899.97982	0.64339
2897.92601	0.66186
2895.87220	0.67905
2893.81839	0.69563
2891.76458	0.71190
2889.71077	0.72823
2887.65696	0.74474
2885.60315	0.76102
2883.54934	0.77675
2881.49553	0.79182
2879.44172	0.80566
2877.38791	0.81777
2875.33410	0.82773
2873.28029	0.83477
2871.22648	0.83878
2869.17267	0.84003
2867.11886	0.83806
2865.06505	0.83173
2863.01124	0.81943
2860.95743	0.79921
2858.90362	0.76890
2856.84981	0.72547
2854.79600	0.66580
2852.74219	0.59197
2850.68838	0.51967
2848.63457	0.47752
2846.58076	0.48594
2844.52695	0.53773
2842.47314	0.60815
2840.41933	0.67648
2838.36552	0.73314
2836.31171	0.77661
2834.25790	0.80907
2832.20409	0.83335
2830.15028	0.85174
2828.09647	0.86585
2826.04266	0.87699
2823.98885	0.88617
2821.93504	0.89375
2819.88123	0.89994
2817.82742	0.90516
2815.77361	0.90964
2813.71980	0.91351
2811.66599	0.91699
2809.61218	0.92009
2807.55837	0.92284
2805.50456	0.92535
2803.45075	0.92753
2801.39693	0.92944
2799.34312	0.93130
2797.28931	0.93304
2795.23550	0.93466
2793.18169	0.93636
2791.12788	0.93808
2789.07407	0.93966
2787.02026	0.94112
2784.96645	0.94237
2782.91264	0.94340
2780.85883	0.94455
2778.80502	0.94582
2776.75121	0.94691
2774.69740	0.94765
2772.64359	0.94815
2770.58978	0.94884
2768.53597	0.94977
2766.48216	0.95049
2764.42835	0.95080
2762.37454	0.95105
2760.32073	0.95164
2758.26692	0.95241
2756.21311	0.95288
2754.15930	0.95305
2752.10549	0.95330
2750.05168	0.95367
2747.99787	0.95385
2745.94406	0.95382
2743.89025	0.95410
2741.83644	0.95472
2739.78263	0.95512
2737.72882	0.95508
2735.67501	0.95492
2733.62120	0.95505
2731.56739	0.95544
2729.51358	0.95585
2727.45977	0.95630
2725.40596	0.95675
2723.35215	0.95714
2721.29834	0.95758
2719.24453	0.95803
2717.19072	0.95829
2715.13691	0.95850
2713.08310	0.95870
2711.02929	0.95869
2708.97548	0.95879
2706.92167	0.95922
2704.86786	0.95967
2702.81405	0.95996
2700.76024	0.96018
2698.70643	0.96024
2696.65262	0.96026
2694.59881	0.96039
2692.54500	0.96066
2690.49119	0.96095
2688.43738	0.96093
2686.38357	0.96081
2684.32976	0.96098
2682.27595	0.96122
2680.22214	0.96109
2678.16833	0.96068
2676.11452	0.96043
2674.06071	0.96053
2672.00690	0.96075
2669.95309	0.96079
2667.89928	0.96064
2665.84547	0.96055
2663.79166	0.96055
2661.73785	0.96050
2659.68404	0.96041
2657.63023	0.96047
2655.57642	0.96071
2653.52261	0.96106
2651.46880	0.96148
2649.41499	0.96188
2647.36118	0.96218
2645.30737	0.96227
2643.25356	0.96219
2641.19975	0.96212
2639.14594	0.96221
2637.09213	0.96236
2635.03832	0.96244
2632.98451	0.96265
2630.93070	0.96289
2628.87689	0.96315
2626.82308	0.96369
2624.76927	0.96427
2622.71546	0.96476
2620.66165	0.96528
2618.60784	0.96570
2616.55403	0.96616
2614.50022	0.96676
2612.44641	0.96711
2610.39260	0.96729
2608.33879	0.96745
2606.28498	0.96760
2604.23117	0.96793
2602.17736	0.96834
2600.12355	0.96856
2598.06974	0.96873
2596.01593	0.96894
2593.96212	0.96905
2591.90831	0.96921
2589.85450	0.96952
2587.80069	0.96987
2585.74688	0.97020
2583.69307	0.97057
2581.63926	0.97079
2579.58545	0.97079
2577.53164	0.97085
2575.47783	0.97101
2573.42402	0.97103
2571.37021	0.97075
2569.31640	0.97064
2567.26259	0.97112
2565.20878	0.97155
2563.15497	0.97154
2561.10116	0.97157
2559.04735	0.97180
2556.99354	0.97195
2554.93973	0.97197
2552.88592	0.97207
2550.83211	0.97233
2548.77830	0.97240
2546.72449	0.97231
2544.67068	0.97249
2542.61687	0.97276
2540.56306	0.97271
2538.50925	0.97254
2536.45544	0.97266
2534.40163	0.97295
2532.34782	0.97321
2530.29401	0.97346
2528.24020	0.97346
2526.18639	0.97325
2524.13258	0.97326
2522.07877	0.97350
2520.02496	0.97372
2517.97115	0.97389
2515.91734	0.97383
2513.86353	0.97357
2511.80972	0.97341
2509.75591	0.97341
2507.70210	0.97351
2505.64828	0.97373
2503.59447	0.97391
2501.54066	0.97386
2499.48685	0.97370
2497.43304	0.97350
2495.37923	0.97354
2493.32542	0.97386
2491.27161	0.97411
2489.21780	0.97439
2487.16399	0.97478
2485.11018	0.97479
2483.05637	0.97417
2481.00256	0.97357
2478.94875	0.97363
2476.89494	0.97410
2474.84113	0.97432
2472.78732	0.97420
2470.73351	0.97436
2468.67970	0.97478
2466.62589	0.97474
2464.57208	0.97426
2462.51827	0.97389
2460.46446	0.97393
2458.41065	0.97434
2456.35684	0.97466
2454.30303	0.97447
2452.24922	0.97410
2450.19541	0.97421
2448.14160	0.97456
2446.08779	0.97447
2444.03398	0.97405
2441.98017	0.97415
2439.92636	0.97443
2437.87255	0.97432
2435.81874	0.97433
2433.76493	0.97464
2431.71112	0.97469
2429.65731	0.97439
2427.60350	0.97418
2425.54969	0.97410
2423.49588	0.97390
2421.44207	0.97374
2419.38826	0.97379
2417.33445	0.97385
2415.28064	0.97385
2413.22683	0.97370
2411.17302	0.97337
2409.11921	0.97348
2407.06540	0.97418
2405.01159	0.97464
2402.95778	0.97462
2400.90397	0.97461
2398.85016	0.97467
2396.79635	0.97454
2394.74254	0.97418
2392.68873	0.97378
2390.63492	0.97364
2388.58111	0.97391
2386.52730	0.97413
2384.47349	0.97402
2382.41968	0.97386
2380.36587	0.97380
2378.31206	0.97362
2376.25825	0.97315
2374.20444	0.97289
2372.15063	0.97360
2370.09682	0.97460
2368.04301	0.97465
2365.98920	0.97418
2363.93539	0.97387
2361.88158	0.97380
2359.82777	0.97365
2357.77396	0.97310
2355.72015	0.97303
2353.66634	0.97338
2351.61253	0.97316
2349.55872	0.97268
2347.50491	0.97250
2345.45110	0.97252
2343.39729	0.97252
2341.34348	0.97250
2339.28967	0.97230
2337.23586	0.97192
2335.18205	0.97177
2333.12824	0.97203
2331.07443	0.97252
2329.02062	0.97237
2326.96681	0.97110
2324.91300	0.96988
2322.85919	0.97005
2320.80538	0.97131
2318.75157	0.97243
2316.69776	0.97320
2314.64395	0.97355
2312.59014	0.97337
2310.53633	0.97334
2308.48252	0.97371
2306.42871	0.97386
2304.37490	0.97369
2302.32109	0.97349
2300.26728	0.97348
2298.21347	0.97384
2296.15966	0.97428
2294.10585	0.97433
2292.05204	0.97413
2289.99823	0.97410
2287.94442	0.97440
2285.89061	0.97488
2283.83680	0.97560
2281.78299	0.97619
2279.72918	0.97618
2277.67537	0.97580
2275.62156	0.97552
2273.56775	0.97580
2271.51394	0.97639
2269.46013	0.97660
2267.40632	0.97664
2265.35251	0.97708
2263.29870	0.97764
2261.24489	0.97756
2259.19108	0.97701
2257.13727	0.97684
2255.08346	0.97728
2253.02965	0.97758
2250.97584	0.97752
2248.92203	0.97798
2246.86822	0.97855
2244.81441	0.97832
2242.76060	0.97852
2240.70679	0.97989
2238.65298	0.98094
2236.59917	0.98056
2234.54536	0.97981
2232.49155	0.97995
2230.43774	0.98015
2228.38393	0.97950
2226.33012	0.97906
2224.27631	0.97938
2222.22250	0.97958
2220.16869	0.97984
2218.11488	0.98071
2216.06107	0.98178
2214.00726	0.98254
2211.95344	0.98276
2209.89963	0.98243
2207.84582	0.98202
2205.79201	0.98252
2203.73820	0.98353
2201.68439	0.98320
2199.63058	0.98171
2197.57677	0.98083
2195.52296	0.98093
2193.46915	0.98081
2191.41534	0.97971
2189.36153	0.97862
2187.30772	0.97854
2185.25391	0.97928
2183.20010	0.98057
2181.14629	0.98208
2179.09248	0.98287
2177.03867	0.98275
2174.98486	0.98305
2172.93105	0.98346
2170.87724	0.98232
2168.82343	0.98077
2166.76962	0.98010
2164.71581	0.98017
2162.66200	0.98076
2160.60819	0.98194
2158.55438	0.98427
2156.50057	0.98624
2154.44676	0.98649
2152.39295	0.98571
2150.33914	0.98501
2148.28533	0.98495
2146.23152	0.98534
2144.17771	0.98539
2142.12390	0.98462
2140.07009	0.98387
2138.01628	0.98345
2135.96247	0.98401
2133.90866	0.98563
2131.85485	0.98615
2129.80104	0.98540
2127.74723	0.98509
2125.69342	0.98533
2123.63961	0.98492
2121.58580	0.98377
2119.53199	0.98307
2117.47818	0.98332
2115.42437	0.98374
2113.37056	0.98362
2111.31675	0.98320
2109.26294	0.98272
2107.20913	0.98210
2105.15532	0.98199
2103.10151	0.98254
2101.04770	0.98250
2098.99389	0.98203
2096.94008	0.98278
2094.88627	0.98414
2092.83246	0.98434
2090.77865	0.98409
2088.72484	0.98450
2086.67103	0.98491
2084.61722	0.98466
2082.56341	0.98403
2080.50960	0.98349
2078.45579	0.98337
2076.40198	0.98358
2074.34817	0.98378
2072.29436	0.98389
2070.24055	0.98386
2068.18674	0.98339
2066.13293	0.98325
2064.07912	0.98385
2062.02531	0.98415
2059.97150	0.98460
2057.91769	0.98543
2055.86388	0.98549
2053.81007	0.98444
2051.75626	0.98314
2049.70245	0.98317
2047.64864	0.98427
2045.59483	0.98467
2043.54102	0.98466
2041.48721	0.98510
2039.43340	0.98568
2037.37959	0.98541
2035.32578	0.98423
2033.27197	0.98311
2031.21816	0.98310
2029.16435	0.98458
2027.11054	0.98565
2025.05673	0.98547
2023.00292	0.98543
2020.94911	0.98594
2018.89530	0.98684
2016.84149	0.98705
2014.78768	0.98620
2012.73387	0.98635
2010.68006	0.98747
2008.62625	0.98817
2006.57244	0.98878
2004.51863	0.98885
2002.46482	0.98763
2000.41101	0.98640
1998.35720	0.98593
1996.30339	0.98561
1994.24958	0.98573
1992.19577	0.98592
1990.14196	0.98517
1988.08815	0.98470
1986.03434	0.98511
1983.98053	0.98454
1981.92672	0.98336
1979.87291	0.98438
1977.81910	0.98727
1975.76529	0.98914
1973.71148	0.98941
1971.65767	0.98925
1969.60386	0.98888
1967.55005	0.98780
1965.49624	0.98673
1963.44243	0.98610
1961.38862	0.98584
1959.33481	0.98612
1957.28100	0.98658
1955.22719	0.98702
1953.17338	0.98687
1951.11957	0.98602
1949.06576	0.98557
1947.01195	0.98568
1944.95814	0.98577
1942.90433	0.98564
1940.85052	0.98543
1938.79671	0.98538
1936.74290	0.98525
1934.68909	0.98524
1932.63528	0.98548
1930.58147	0.98533
1928.52766	0.98504
1926.47385	0.98519
1924.42004	0.98541
1922.36623	0.98542
1920.31242	0.98515
1918.25861	0.98464
1916.20479	0.98437
1914.15098	0.98427
1912.09717	0.98391
1910.04336	0.98336
1907.98955	0.98296
1905.93574	0.98276
1903.88193	0.98271
1901.82812	0.98285
1899.77431	0.98300
1897.72050	0.98300
1895.66669	0.98282
1893.61288	0.98275
1891.55907	0.98271
1889.50526	0.98254
1887.45145	0.98263
1885.39764	0.98296
1883.34383	0.98306
1881.29002	0.98281
1879.23621	0.98262
1877.18240	0.98278
1875.12859	0.98284
1873.07478	0.98246
1871.02097	0.98218
1868.96716	0.98244
1866.91335	0.98250
1864.85954	0.98165
1862.80573	0.98081
1860.75192	0.98098
1858.69811	0.98167
1856.64430	0.98200
1854.59049	0.98214
1852.53668	0.98227
1850.48287	0.98224
1848.42906	0.98213
1846.37525	0.98191
1844.32144	0.98151
1842.26763	0.98111
1840.21382	0.98078
1838.16001	0.98054
1836.10620	0.98050
1834.05239	0.98043
1831.99858	0.98010
1829.94477	0.97976
1827.89096	0.97997
1825.83715	0.98043
1823.78334	0.98039
1821.72953	0.98007
1819.67572	0.97999
1817.62191	0.97998
1815.56810	0.97975
1813.51429	0.97931
1811.46048	0.97875
1809.40667	0.97816
1807.35286	0.97769
1805.29905	0.97736
1803.24524	0.97703
1801.19143	0.97679
1799.13762	0.97659
1797.08381	0.97622
1795.03000	0.97569
1792.97619	0.97495
1790.92238	0.97406
1788.86857	0.97311
1786.81476	0.97213
1784.76095	0.97132
1782.70714	0.97079
1780.65333	0.97023
1778.59952	0.96961
1776.54571	0.96931
1774.49190	0.96912
1772.43809	0.96847
1770.38428	0.96775
1768.33047	0.96739
1766.27666	0.96696
1764.22285	0.96643
1762.16904	0.96585
1760.11523	0.96522
1758.06142	0.96451
1756.00761	0.96350
1753.95380	0.96220
1751.89999	0.96046
1749.84618	0.95815
1747.79237	0.95592
1745.73856	0.95374
1743.68475	0.95107
1741.63094	0.94818
1739.57713	0.94561
1737.52332	0.94394
1735.46951	0.94261
1733.41570	0.94057
1731.36189	0.93807
1729.30808	0.93460
1727.25427	0.92902
1725.20046	0.92116
1723.14665	0.91186
1721.09284	0.90370
1719.03903	0.89666
1716.98522	0.88898
1714.93141	0.88369
1712.87760	0.88270
1710.82379	0.88486
1708.76998	0.88922
1706.71617	0.89541
1704.66236	0.90239
1702.60855	0.90818
1700.55474	0.91393
1698.50093	0.91932
1696.44712	0.92386
1694.39331	0.92853
1692.33950	0.93204
1690.28569	0.93483
1688.23188	0.93712
1686.17807	0.93877
1684.12426	0.94029
1682.07045	0.94137
1680.01664	0.94199
1677.96283	0.94248
1675.90902	0.94274
1673.85521	0.94279
1671.80140	0.94280
1669.74759	0.94259
1667.69378	0.94223
1665.63997	0.94196
1663.58616	0.94176
1661.53235	0.94164
1659.47854	0.94160
1657.42473	0.94146
1655.37092	0.94139
1653.31711	0.94153
1651.26330	0.94152
1649.20949	0.94127
1647.15568	0.94123
1645.10187	0.94176
1643.04806	0.94233
1640.99425	0.94256
1638.94044	0.94247
1636.88663	0.94249
1634.83282	0.94271
1632.77901	0.94275
1630.72520	0.94285
1628.67139	0.94323
1626.61758	0.94375
1624.56377	0.94436
1622.50996	0.94538
1620.45614	0.94653
1618.40233	0.94768
1616.34852	0.94912
1614.29471	0.95050
1612.24090	0.95165
1610.18709	0.95276
1608.13328	0.95363
1606.07947	0.95421
1604.02566	0.95474
1601.97185	0.95537
1599.91804	0.95587
1597.86423	0.95615
1595.81042	0.95634
1593.75661	0.95639
1591.70280	0.95634
1589.64899	0.95627
1587.59518	0.95624
1585.54137	0.95611
1583.48756	0.95566
1581.43375	0.95515
1579.37994	0.95482
1577.32613	0.95457
1575.27232	0.95454
1573.21851	0.95490
1571.16470	0.95528
1569.11089	0.95555
1567.05708	0.95573
1565.00327	0.95595
1562.94946	0.95613
1560.89565	0.95609
1558.84184	0.95584
1556.78803	0.95566
1554.73422	0.95554
1552.68041	0.95535
1550.62660	0.95514
1548.57279	0.95498
1546.51898	0.95506
1544.46517	0.95550
1542.41136	0.95641
1540.35755	0.95761
1538.30374	0.95841
1536.24993	0.95895
1534.19612	0.96004
1532.14231	0.96142
1530.08850	0.96216
1528.03469	0.96277
1525.98088	0.96360
1523.92707	0.96418
1521.87326	0.96464
1519.81945	0.96512
1517.76564	0.96515
1515.71183	0.96491
1513.65802	0.96479
1511.60421	0.96481
1509.55040	0.96486
1507.49659	0.96482
1505.44278	0.96464
1503.38897	0.96443
1501.33516	0.96427
1499.28135	0.96405
1497.22754	0.96352
1495.17373	0.96267
1493.11992	0.96184
1491.06611	0.96074
1489.01230	0.95914
1486.95849	0.95705
1484.90468	0.95438
1482.85087	0.95049
1480.79706	0.94384
1478.74325	0.93035
1476.68944	0.89791
1474.63563	0.83739
1472.58182	0.77657
1470.52801	0.76121
1468.47420	0.77096
1466.42039	0.77593
1464.36658	0.77525
1462.31277	0.78530
1460.25896	0.80968
1458.20515	0.83908
1456.15134	0.86222
1454.09753	0.87492
1452.04372	0.88417
1449.98991	0.89209
1447.93610	0.89810
1445.88229	0.90199
1443.82848	0.90437
1441.77467	0.90631
1439.72086	0.90799
1437.66705	0.90969
1435.61324	0.91187
1433.55943	0.91421
1431.50562	0.91665
1429.45181	0.91918
1427.39800	0.92139
1425.34419	0.92330
1423.29038	0.92475
1421.23657	0.92532
1419.18276	0.92496
1417.12895	0.92381
1415.07514	0.92249
1413.02133	0.92156
1410.96752	0.92193
1408.91371	0.92368
1406.85990	0.92595
1404.80609	0.92846
1402.75228	0.93114
1400.69847	0.93384
1398.64466	0.93636
1396.59085	0.93807
1394.53704	0.93900
1392.48323	0.93986
1390.42942	0.94055
1388.37561	0.94052
1386.32180	0.93959
1384.26799	0.93765
1382.21418	0.93431
1380.16037	0.92997
1378.10656	0.92663
1376.05275	0.92564
1373.99894	0.92609
1371.94513	0.92660
1369.89132	0.92719
1367.83751	0.92817
1365.78370	0.92934
1363.72989	0.93065
1361.67608	0.93211
1359.62227	0.93332
1357.56846	0.93400
1355.51465	0.93436
1353.46084	0.93471
1351.40703	0.93527
1349.35322	0.93607
1347.29941	0.93686
1345.24560	0.93763
1343.19179	0.93842
1341.13798	0.93901
1339.08417	0.93935
1337.03036	0.93954
1334.97655	0.93958
1332.92274	0.93943
1330.86893	0.93901
1328.81512	0.93823
1326.76130	0.93716
1324.70749	0.93599
1322.65368	0.93473
1320.59987	0.93342
1318.54606	0.93238
1316.49225	0.93166
1314.43844	0.93097
1312.38463	0.93029
1310.33082	0.92956
1308.27701	0.92872
1306.22320	0.92767
1304.16939	0.92639
1302.11558	0.92526
1300.06177	0.92452
1298.00796	0.92385
1295.95415	0.92299
1293.90034	0.92211
1291.84653	0.92136
1289.79272	0.92067
1287.73891	0.91976
1285.68510	0.91870
1283.63129	0.91797
1281.57748	0.91756
1279.52367	0.91699
1277.46986	0.91629
1275.41605	0.91577
1273.36224	0.91544
1271.30843	0.91522
1269.25462	0.91488
1267.20081	0.91429
1265.14700	0.91346
1263.09319	0.91251
1261.03938	0.91145
1258.98557	0.91028
1256.93176	0.90914
1254.87795	0.90799
1252.82414	0.90661
1250.77033	0.90517
1248.71652	0.90404
1246.66271	0.90329
1244.60890	0.90286
1242.55509	0.90266
1240.50128	0.90242
1238.44747	0.90207
1236.39366	0.90148
1234.33985	0.90050
1232.28604	0.89934
1230.23223	0.89824
1228.17842	0.89716
1226.12461	0.89600
1224.07080	0.89485
1222.01699	0.89382
1219.96318	0.89297
1217.90937	0.89239
1215.85556	0.89219
1213.80175	0.89247
1211.74794	0.89302
1209.69413	0.89343
1207.64032	0.89379
1205.58651	0.89427
1203.53270	0.89478
1201.47889	0.89508
1199.42508	0.89508
1197.37127	0.89485
1195.31746	0.89440
1193.26365	0.89389
1191.20984	0.89325
1189.15603	0.89223
1187.10222	0.89120
1185.04841	0.89023
1182.99460	0.88887
1180.94079	0.88744
1178.88698	0.88634
1176.83317	0.88528
1174.77936	0.88416
1172.72555	0.88315
1170.67174	0.88233
1168.61793	0.88161
1166.56412	0.88107
1164.51031	0.88080
1162.45650	0.88070
1160.40269	0.88073
1158.34888	0.88103
1156.29507	0.88143
1154.24126	0.88176
1152.18745	0.88206
1150.13364	0.88238
1148.07983	0.88268
1146.02602	0.88293
1143.97221	0.88318
1141.91840	0.88329
1139.86459	0.88304
1137.81078	0.88244
1135.75697	0.88178
1133.70316	0.88119
1131.64935	0.88038
1129.59554	0.87950
1127.54173	0.87879
1125.48792	0.87798
1123.43411	0.87693
1121.38030	0.87572
1119.32649	0.87435
1117.27268	0.87294
1115.21887	0.87161
1113.16506	0.87009
1111.11125	0.86823
1109.05744	0.86627
1107.00363	0.86456
1104.94982	0.86342
1102.89601	0.86280
1100.84220	0.86220
1098.78839	0.86134
1096.73458	0.86047
1094.68077	0.85986
1092.62696	0.85947
1090.57315	0.85886
1088.51934	0.85747
1086.46553	0.85496
1084.41172	0.85229
1082.35791	0.85108
1080.30410	0.85132
1078.25029	0.85216
1076.19648	0.85313
1074.14267	0.85389
1072.08886	0.85433
1070.03505	0.85444
1067.98124	0.85443
1065.92743	0.85467
1063.87362	0.85514
1061.81981	0.85567
1059.76600	0.85630
1057.71219	0.85691
1055.65838	0.85723
1053.60457	0.85741
1051.55076	0.85766
1049.49695	0.85790
1047.44314	0.85813
1045.38933	0.85835
1043.33552	0.85865
1041.28171	0.85923
1039.22790	0.85997
1037.17409	0.86066
1035.12028	0.86141
1033.06647	0.86223
1031.01265	0.86298
1028.95884	0.86364
1026.90503	0.86411
1024.85122	0.86453
1022.79741	0.86521
1020.74360	0.86625
1018.68979	0.86765
1016.63598	0.86921
1014.58217	0.87084
1012.52836	0.87263
1010.47455	0.87437
1008.42074	0.87571
1006.36693	0.87685
1004.31312	0.87813
1002.25931	0.87936
1000.20550	0.88020
998.15169	0.88096
996.09788	0.88193
994.04407	0.88292
991.99026	0.88377
989.93645	0.88474
987.88264	0.88570
985.82883	0.88612
983.77502	0.88597
981.72121	0.88576
979.66740	0.88580
977.61359	0.88586
975.55978	0.88569
973.50597	0.88527
971.45216	0.88455
969.39835	0.88371
967.34454	0.88311
965.29073	0.88263
963.23692	0.88254
961.18311	0.88320
959.12930	0.88395
957.07549	0.88433
955.02168	0.88461
952.96787	0.88507
950.91406	0.88566
948.86025	0.88629
946.80644	0.88713
944.75263	0.88835
942.69882	0.88976
940.64501	0.89117
938.59120	0.89263
936.53739	0.89431
934.48358	0.89609
932.42977	0.89778
930.37596	0.89944
928.32215	0.90112
926.26834	0.90263
924.21453	0.90406
922.16072	0.90560
920.10691	0.90710
918.05310	0.90818
915.99929	0.90868
913.94548	0.90935
911.89167	0.91055
909.83786	0.91148
907.78405	0.91209
905.73024	0.91300
903.67643	0.91385
901.62262	0.91439
899.56881	0.91491
897.51500	0.91537
895.46119	0.91557
893.40738	0.91553
891.35357	0.91558
889.29976	0.91579
887.24595	0.91588
885.19214	0.91558
883.13833	0.91469
881.08452	0.91357
879.03071	0.91272
876.97690	0.91232
874.92309	0.91284
872.86928	0.91492
870.81547	0.91820
868.76166	0.92117
866.70785	0.92306
864.65404	0.92444
862.60023	0.92555
860.54642	0.92602
858.49261	0.92602
856.43880	0.92618
854.38499	0.92684
852.33118	0.92760
850.27737	0.92788
848.22356	0.92778
846.16975	0.92793
844.11594	0.92840
842.06213	0.92848
840.00832	0.92787
837.95451	0.92721
835.90070	0.92692
833.84689	0.92660
831.79308	0.92626
829.73927	0.92644
827.68546	0.92687
825.63165	0.92711
823.57784	0.92734
821.52403	0.92753
819.47022	0.92722
817.41641	0.92646
815.36260	0.92596
813.30879	0.92596
811.25498	0.92587
809.20117	0.92549
807.14736	0.92513
805.09355	0.92483
803.03974	0.92397
800.98593	0.92261
798.93212	0.92182
796.87831	0.92167
794.82450	0.92143
792.77069	0.92095
790.71688	0.92049
788.66307	0.91987
786.60926	0.91883
784.55545	0.91726
782.50164	0.91566
780.44783	0.91484
778.39402	0.91474
776.34021	0.91455
774.28640	0.91377
772.23259	0.91257
770.17878	0.91164
768.12497	0.91135
766.07116	0.91094
764.01735	0.90960
761.96354	0.90777
759.90973	0.90626
757.85592	0.90528
755.80211	0.90401
753.74830	0.90168
751.69449	0.89907
749.64068	0.89707
747.58687	0.89524
745.53306	0.89317
743.47925	0.89110
741.42544	0.88892
739.37163	0.88571
737.31781	0.87965
735.26400	0.86598
733.21019	0.83844
731.15638	0.80502
729.10257	0.78807
727.04876	0.78948
724.99495	0.78661
722.94114	0.76333
720.88733	0.72341
718.83352	0.69237
716.77971	0.69644
714.72590	0.73283
712.67209	0.77738
710.61828	0.81074
708.56447	0.83026
706.51066	0.84065
704.45685	0.84646
702.40304	0.85031
700.34923	0.85312
698.29542	0.85522
696.24161	0.85618
694.18780	0.85639
692.13399	0.85716
690.08018	0.85797
688.02637	0.85795
685.97256	0.85774
683.91875	0.85763
681.86494	0.85752
679.81113	0.85733
677.75732	0.85709
675.70351	0.85707
673.64970	0.85739
671.59589	0.85788
669.54208	0.85793
667.48827	0.85692
665.43446	0.85623
663.38065	0.85615
661.32684	0.85567
659.27303	0.85477
657.21922	0.85463
655.16541	0.85517
653.11160	0.85505
651.05779	0.85408
649.00398	0.85335
646.95017	0.85345
644.89636	0.85349
642.84255	0.85280
640.78874	0.85170
638.73493	0.85070
636.68112	0.85039
634.62731	0.85052
632.57350	0.85028
630.51969	0.84977
628.46588	0.84933
626.41207	0.84906
624.35826	0.84944
622.30445	0.85034
620.25064	0.85106
618.19683	0.85102
616.14302	0.85032
614.08921	0.84991
612.03540	0.84952
609.98159	0.84856
607.92778	0.84809
605.87397	0.84834
603.82016	0.84817
601.76635	0.84767
599.71254	0.84747
597.65873	0.84694
595.60492	0.84614
593.55111	0.84604
591.49730	0.84537
589.44349	0.84312
587.38968	0.84124
585.33587	0.84090
583.28206	0.84138
581.22825	0.84135
579.17444	0.84078
577.12063	0.84025
575.06682	0.83887
573.01301	0.83660
570.95920	0.83502
568.90539	0.83482
566.85158	0.83472
564.79777	0.83272
562.74396	0.82973
560.69015	0.82838
558.63634	0.82782
556.58253	0.82576
554.52872	0.82297
552.47491	0.82177
550.42110	0.82244
548.36729	0.82279
546.31348	0.82166
544.25967	0.82044
542.20586	0.81943
540.15205	0.81740
538.09824	0.81498
536.04443	0.81392
533.99062	0.81285
531.93681	0.81078
529.88300	0.80968
527.82919	0.80907
525.77538	0.80746
523.72157	0.80638
521.66776	0.80729
519.61395	0.80900
517.56014	0.80969
515.50633	0.80917
513.45252	0.80812
511.39871	0.80763
509.34490	0.80950
507.29109	0.81323
505.23728	0.81598
503.18347	0.81717
501.12966	0.81809
499.07585	0.81934
497.02204	0.82129
494.96823	0.82354
492.91442	0.82596
490.86061	0.83004
488.80680	0.83411
486.75299	0.83538
484.69918	0.83530
482.64537	0.83539
480.59156	0.83519
478.53775	0.83427
476.48394	0.83414
474.43013	0.83619
472.37632	0.83826
470.32251	0.83809
468.26870	0.83757
466.21489	0.83929
464.16108	0.84220
462.10727	0.84418
460.05346	0.84617
457.99965	0.84881
455.94584	0.85025
453.89203	0.85134
451.83822	0.85289
449.78441	0.85356
447.73060	0.85284
445.67679	0.85167
443.62298	0.85143
441.56916	0.84987
439.51535	0.84700
437.46154	0.84552
435.40773	0.84394
433.35392	0.84256
431.30011	0.84212
429.24630	0.84030
427.19249	0.83745
425.13868	0.83542
423.08487	0.83343
421.03106	0.83186
418.97725	0.83151
416.92344	0.83013
414.86963	0.82900
412.81582	0.82883
410.76201	0.82794
408.70820	0.82773
406.65439	0.83097
404.60058	0.83493
402.54677	0.83695
400.49296	0.83900
398.43915	0.84306
