3996.70104	0.93569
3994.64724	0.93618
3992.59344	0.93626
3990.53964	0.93610
3988.48583	0.93627
3986.43203	0.93673
3984.37823	0.93726
3982.32442	0.93747
3980.27062	0.93700
3978.21682	0.93669
3976.16301	0.93702
3974.10921	0.93733
3972.05541	0.93715
3970.00160	0.93696
3967.94780	0.93684
3965.89400	0.93635
3963.84019	0.93572
3961.78639	0.93552
3959.73259	0.93611
3957.67878	0.93678
3955.62498	0.93658
3953.57118	0.93600
3951.51737	0.93601
3949.46357	0.93651
3947.40977	0.93699
3945.35596	0.93738
3943.30216	0.93772
3941.24836	0.93773
3939.19455	0.93744
3937.14075	0.93730
3935.08695	0.93736
3933.03315	0.93713
3930.97934	0.93670
3928.92554	0.93662
3926.87174	0.93694
3924.81793	0.93745
3922.76413	0.93779
3920.71033	0.93767
3918.65652	0.93721
3916.60272	0.93687
3914.54892	0.93686
3912.49511	0.93693
3910.44131	0.93708
3908.38751	0.93707
3906.33370	0.93659
3904.27990	0.93595
3902.22610	0.93588
3900.17229	0.93638
3898.11849	0.93705
3896.06469	0.93731
3894.01088	0.93705
3891.95708	0.93683
3889.90328	0.93672
3887.84947	0.93677
3885.79567	0.93757
3883.74187	0.93870
3881.68807	0.93893
3879.63426	0.93835
3877.58046	0.93772
3875.52666	0.93750
3873.47285	0.93775
3871.41905	0.93806
3869.36525	0.93810
3867.31144	0.93817
3865.25764	0.93852
3863.20384	0.93843
3861.15003	0.93764
3859.09623	0.93710
3857.04243	0.93713
3854.98862	0.93730
3852.93482	0.93766
3850.88102	0.93827
3848.82721	0.93825
3846.77341	0.93778
3844.71961	0.93752
3842.66580	0.93756
3840.61200	0.93749
3838.55820	0.93800
3836.50439	0.93889
3834.45059	0.93858
3832.39679	0.93795
3830.34298	0.93819
3828.28918	0.93839
3826.23538	0.93802
3824.18158	0.93788
3822.12777	0.93857
3820.07397	0.93952
3818.02017	0.93940
3815.96636	0.93841
3813.91256	0.93777
3811.85876	0.93781
3809.80495	0.93777
3807.75115	0.93768
3805.69735	0.93795
3803.64354	0.93865
3801.58974	0.93998
3799.53594	0.94038
3797.48213	0.93906
3795.42833	0.93791
3793.37453	0.93791
3791.32072	0.93801
3789.26692	0.93820
3787.21312	0.93894
3785.15931	0.93951
3783.10551	0.93925
3781.05171	0.93891
3778.99790	0.93916
3776.94410	0.93901
3774.89030	0.93818
3772.83650	0.93754
3770.78269	0.93792
3768.72889	0.93894
3766.67509	0.93950
3764.62128	0.93984
3762.56748	0.94003
3760.51368	0.93951
3758.45987	0.93883
3756.40607	0.93920
3754.35227	0.93962
3752.29846	0.93939
3750.24466	0.93934
3748.19086	0.93977
3746.13705	0.94002
3744.08325	0.94023
3742.02945	0.94074
3739.97564	0.94082
3737.92184	0.94042
3735.86804	0.94112
3733.81423	0.94248
3731.76043	0.94201
3729.70663	0.94107
3727.65282	0.94071
3725.59902	0.94071
3723.54522	0.94074
3721.49141	0.94033
3719.43761	0.93926
3717.38381	0.93851
3715.33001	0.93858
3713.27620	0.93856
3711.22240	0.93777
3709.16860	0.93635
3707.11479	0.93463
3705.06099	0.93297
3703.00719	0.93114
3700.95338	0.92870
3698.89958	0.92702
3696.84578	0.92691
3694.79197	0.92750
3692.73817	0.92836
3690.68437	0.92941
3688.63056	0.93012
3686.57676	0.93046
3684.52296	0.93036
3682.46915	0.93024
3680.41535	0.93072
3678.36155	0.93089
3676.30774	0.92998
3674.25394	0.92941
3672.20014	0.92929
3670.14633	0.92874
3668.09253	0.92857
3666.03873	0.92864
3663.98492	0.92836
3661.93112	0.92820
3659.87732	0.92820
3657.82352	0.92791
3655.76971	0.92731
3653.71591	0.92695
3651.66211	0.92679
3649.60830	0.92667
3647.55450	0.92641
3645.50070	0.92545
3643.44689	0.92483
3641.39309	0.92488
3639.33929	0.92464
3637.28548	0.92422
3635.23168	0.92414
3633.17788	0.92352
3631.12407	0.92204
3629.07027	0.92045
3627.01647	0.91960
3624.96266	0.91960
3622.90886	0.91968
3620.85506	0.91949
3618.80125	0.91930
3616.74745	0.91922
3614.69365	0.91939
3612.63984	0.91977
3610.58604	0.91974
3608.53224	0.91957
3606.47844	0.91941
3604.42463	0.91895
3602.37083	0.91858
3600.31703	0.91857
3598.26322	0.91887
3596.20942	0.91913
3594.15562	0.91838
3592.10181	0.91694
3590.04801	0.91634
3587.99421	0.91694
3585.94040	0.91740
3583.88660	0.91718
3581.83280	0.91702
3579.77899	0.91678
3577.72519	0.91637
3575.67139	0.91578
3573.61758	0.91478
3571.56378	0.91386
3569.50998	0.91348
3567.45617	0.91349
3565.40237	0.91362
3563.34857	0.91325
3561.29476	0.91227
3559.24096	0.91157
3557.18716	0.91153
3555.13335	0.91133
3553.07955	0.91083
3551.02575	0.91036
3548.97195	0.90959
3546.91814	0.90917
3544.86434	0.90933
3542.81054	0.90892
3540.75673	0.90825
3538.70293	0.90794
3536.64913	0.90753
3534.59532	0.90692
3532.54152	0.90658
3530.48772	0.90672
3528.43391	0.90713
3526.38011	0.90689
3524.32631	0.90632
3522.27250	0.90655
3520.21870	0.90682
3518.16490	0.90667
3516.11109	0.90674
3514.05729	0.90677
3512.00349	0.90652
3509.94968	0.90630
3507.89588	0.90587
3505.84208	0.90550
3503.78827	0.90586
3501.73447	0.90634
3499.68067	0.90622
3497.62687	0.90584
3495.57306	0.90548
3493.51926	0.90531
3491.46546	0.90541
3489.41165	0.90536
3487.35785	0.90487
3485.30405	0.90445
3483.25024	0.90428
3481.19644	0.90409
3479.14264	0.90401
3477.08883	0.90410
3475.03503	0.90394
3472.98123	0.90350
3470.92742	0.90282
3468.87362	0.90210
3466.81982	0.90186
3464.76601	0.90199
3462.71221	0.90227
3460.65841	0.90205
3458.60460	0.90093
3456.55080	0.90001
3454.49700	0.89982
3452.44319	0.89975
3450.38939	0.89977
3448.33559	0.90010
3446.28178	0.89976
3444.22798	0.89881
3442.17418	0.89858
3440.12038	0.89876
3438.06657	0.89875
3436.01277	0.89847
3433.95897	0.89808
3431.90516	0.89777
3429.85136	0.89753
3427.79756	0.89748
3425.74375	0.89760
3423.68995	0.89734
3421.63615	0.89662
3419.58234	0.89598
3417.52854	0.89532
3415.47474	0.89452
3413.42093	0.89399
3411.36713	0.89375
3409.31333	0.89357
3407.25952	0.89319
3405.20572	0.89255
3403.15192	0.89214
3401.09811	0.89227
3399.04431	0.89237
3396.99051	0.89251
3394.93670	0.89289
3392.88290	0.89297
3390.82910	0.89308
3388.77529	0.89347
3386.72149	0.89368
3384.66769	0.89387
3382.61389	0.89407
3380.56008	0.89397
3378.50628	0.89360
3376.45248	0.89329
3374.39867	0.89304
3372.34487	0.89301
3370.29107	0.89370
3368.23726	0.89452
3366.18346	0.89465
3364.12966	0.89452
3362.07585	0.89455
3360.02205	0.89465
3357.96825	0.89479
3355.91444	0.89480
3353.86064	0.89487
3351.80684	0.89498
3349.75303	0.89481
3347.69923	0.89486
3345.64543	0.89539
3343.59162	0.89549
3341.53782	0.89517
3339.48402	0.89534
3337.43021	0.89570
3335.37641	0.89596
3333.32261	0.89626
3331.26881	0.89627
3329.21500	0.89614
3327.16120	0.89625
3325.10740	0.89649
3323.05359	0.89689
3320.99979	0.89749
3318.94599	0.89783
3316.89218	0.89784
3314.83838	0.89766
3312.78458	0.89727
3310.73077	0.89742
3308.67697	0.89786
3306.62317	0.89783
3304.56936	0.89808
3302.51556	0.89850
3300.46176	0.89836
3298.40795	0.89815
3296.35415	0.89828
3294.30035	0.89861
3292.24654	0.89903
3290.19274	0.89946
3288.13894	0.89964
3286.08513	0.89949
3284.03133	0.89923
3281.97753	0.89922
3279.92372	0.89955
3277.86992	0.89993
3275.81612	0.90024
3273.76232	0.90059
3271.70851	0.90103
3269.65471	0.90148
3267.60091	0.90153
3265.54710	0.90108
3263.49330	0.90089
3261.43950	0.90124
3259.38569	0.90158
3257.33189	0.90185
3255.27809	0.90181
3253.22428	0.90118
3251.17048	0.90117
3249.11668	0.90228
3247.06287	0.90305
3245.00907	0.90322
3242.95527	0.90342
3240.90146	0.90335
3238.84766	0.90321
3236.79386	0.90368
3234.74005	0.90427
3232.68625	0.90456
3230.63245	0.90477
3228.57864	0.90467
3226.52484	0.90444
3224.47104	0.90458
3222.41724	0.90490
3220.36343	0.90505
3218.30963	0.90508
3216.25583	0.90538
3214.20202	0.90626
3212.14822	0.90711
3210.09442	0.90722
3208.04061	0.90707
3205.98681	0.90729
3203.93301	0.90795
3201.87920	0.90869
3199.82540	0.90910
3197.77160	0.90903
3195.71779	0.90909
3193.66399	0.90996
3191.61019	0.91053
3189.55638	0.91038
3187.50258	0.91030
3185.44878	0.91037
3183.39497	0.91083
3181.34117	0.91178
3179.28737	0.91222
3177.23356	0.91200
3175.17976	0.91178
3173.12596	0.91158
3171.07215	0.91157
3169.01835	0.91195
3166.96455	0.91231
3164.91075	0.91270
3162.85694	0.91303
3160.80314	0.91290
3158.74934	0.91294
3156.69553	0.91377
3154.64173	0.91464
3152.58793	0.91510
3150.53412	0.91519
3148.48032	0.91510
3146.42652	0.91553
3144.37271	0.91608
3142.31891	0.91624
3140.26511	0.91688
3138.21130	0.91780
3136.15750	0.91792
3134.10370	0.91779
3132.04989	0.91780
3129.99609	0.91763
3127.94229	0.91780
3125.88848	0.91846
3123.83468	0.91910
3121.78088	0.91943
3119.72707	0.91934
3117.67327	0.91901
3115.61947	0.91878
3113.56566	0.91879
3111.51186	0.91873
3109.45806	0.91835
3107.40426	0.91769
3105.35045	0.91708
3103.29665	0.91668
3101.24285	0.91657
3099.18904	0.91685
3097.13524	0.91724
3095.08144	0.91739
3093.02763	0.91692
3090.97383	0.91575
3088.92003	0.91357
3086.86622	0.91020
3084.81242	0.90684
3082.75862	0.90503
3080.70481	0.90551
3078.65101	0.90747
3076.59721	0.90927
3074.54340	0.91052
3072.48960	0.91145
3070.43580	0.91150
3068.38199	0.91048
3066.32819	0.90850
3064.27439	0.90534
3062.22058	0.90173
3060.16678	0.89936
3058.11298	0.89935
3056.05918	0.90156
3054.00537	0.90485
3051.95157	0.90805
3049.89777	0.91069
3047.84396	0.91282
3045.79016	0.91440
3043.73636	0.91514
3041.68255	0.91493
3039.62875	0.91398
3037.57495	0.91203
3035.52114	0.90847
3033.46734	0.90279
3031.41354	0.89500
3029.35973	0.88600
3027.30593	0.87790
3025.25213	0.87363
3023.19832	0.87507
3021.14452	0.88139
3019.09072	0.88998
3017.03691	0.89823
3014.98311	0.90455
3012.92931	0.90889
3010.87550	0.91180
3008.82170	0.91348
3006.76790	0.91395
3004.71409	0.91377
3002.66029	0.91375
3000.60649	0.91406
2998.55269	0.91466
2996.49888	0.91595
2994.44508	0.91796
2992.39128	0.91987
2990.33747	0.92111
2988.28367	0.92203
2986.22987	0.92302
2984.17606	0.92387
2982.12226	0.92421
2980.06846	0.92418
2978.01465	0.92405
2975.96085	0.92393
2973.90705	0.92371
2971.85324	0.92321
2969.79944	0.92277
2967.74564	0.92233
2965.69183	0.92158
2963.63803	0.92094
2961.58423	0.92037
2959.53042	0.91981
2957.47662	0.91947
2955.42282	0.91866
2953.36901	0.91732
2951.31521	0.91613
2949.26141	0.91428
2947.20761	0.91146
2945.15380	0.90872
2943.10000	0.90607
2941.04620	0.90277
2938.99239	0.89861
2936.93859	0.89374
2934.88479	0.88838
2932.83098	0.88261
2930.77718	0.87686
2928.72338	0.87167
2926.66957	0.86691
2924.61577	0.86257
2922.56197	0.85944
2920.50816	0.85805
2918.45436	0.85815
2916.40056	0.85965
2914.34675	0.86228
2912.29295	0.86554
2910.23915	0.86931
2908.18534	0.87333
2906.13154	0.87729
2904.07774	0.88120
2902.02393	0.88485
2899.97013	0.88831
2897.91633	0.89191
2895.86252	0.89523
2893.80872	0.89767
2891.75492	0.89962
2889.70112	0.90161
2887.64731	0.90338
2885.59351	0.90476
2883.53971	0.90593
2881.48590	0.90733
2879.43210	0.90908
2877.37830	0.91039
2875.32449	0.91101
2873.27069	0.91167
2871.21689	0.91238
2869.16308	0.91265
2867.10928	0.91254
2865.05548	0.91209
2863.00167	0.91129
2860.94787	0.91018
2858.89407	0.90834
2856.84026	0.90572
2854.78646	0.90293
2852.73266	0.90027
2850.67885	0.89797
2848.62505	0.89694
2846.57125	0.89780
2844.51744	0.90037
2842.46364	0.90395
2840.40984	0.90753
2838.35603	0.91099
2836.30223	0.91461
2834.24843	0.91752
2832.19463	0.91913
2830.14082	0.92049
2828.08702	0.92184
2826.03322	0.92253
2823.97941	0.92281
2821.92561	0.92317
2819.87181	0.92381
2817.81800	0.92453
2815.76420	0.92488
2813.71040	0.92500
2811.65659	0.92534
2809.60279	0.92588
2807.54899	0.92628
2805.49518	0.92641
2803.44138	0.92635
2801.38758	0.92647
2799.33377	0.92686
2797.27997	0.92705
2795.22617	0.92728
2793.17236	0.92768
2791.11856	0.92785
2789.06476	0.92796
2787.01095	0.92823
2784.95715	0.92837
2782.90335	0.92831
2780.84955	0.92830
2778.79574	0.92845
2776.74194	0.92865
2774.68814	0.92863
2772.63433	0.92855
2770.58053	0.92878
2768.52673	0.92910
2766.47292	0.92928
2764.41912	0.92950
2762.36532	0.92970
2760.31151	0.92973
2758.25771	0.92967
2756.20391	0.92955
2754.15010	0.92955
2752.09630	0.92973
2750.04250	0.92976
2747.98869	0.92994
2745.93489	0.93074
2743.88109	0.93139
2741.82728	0.93116
2739.77348	0.93081
2737.71968	0.93092
2735.66587	0.93100
2733.61207	0.93086
2731.55827	0.93075
2729.50446	0.93078
2727.45066	0.93097
2725.39686	0.93110
2723.34306	0.93095
2721.28925	0.93069
2719.23545	0.93059
2717.18165	0.93074
2715.12784	0.93107
2713.07404	0.93138
2711.02024	0.93156
2708.96643	0.93167
2706.91263	0.93155
2704.85883	0.93122
2702.80502	0.93107
2700.75122	0.93107
2698.69742	0.93112
2696.64361	0.93133
2694.58981	0.93151
2692.53601	0.93171
2690.48220	0.93201
2688.42840	0.93226
2686.37460	0.93229
2684.32079	0.93208
2682.26699	0.93183
2680.21319	0.93162
2678.15938	0.93168
2676.10558	0.93200
2674.05178	0.93232
2671.99797	0.93273
2669.94417	0.93302
2667.89037	0.93289
2665.83657	0.93271
2663.78276	0.93270
2661.72896	0.93282
2659.67516	0.93275
2657.62135	0.93224
2655.56755	0.93198
2653.51375	0.93220
2651.45994	0.93234
2649.40614	0.93231
2647.35234	0.93229
2645.29853	0.93243
2643.24473	0.93288
2641.19093	0.93307
2639.13712	0.93267
2637.08332	0.93233
2635.02952	0.93218
2632.97571	0.93210
2630.92191	0.93258
2628.86811	0.93343
2626.81430	0.93383
2624.76050	0.93385
2622.70670	0.93417
2620.65289	0.93463
2618.59909	0.93488
2616.54529	0.93492
2614.49149	0.93448
2612.43768	0.93407
2610.38388	0.93430
2608.33008	0.93483
2606.27627	0.93497
2604.22247	0.93452
2602.16867	0.93417
2600.11486	0.93431
2598.06106	0.93439
2596.00726	0.93429
2593.95345	0.93440
2591.89965	0.93452
2589.84585	0.93478
2587.79204	0.93527
2585.73824	0.93527
2583.68444	0.93511
2581.63063	0.93558
2579.57683	0.93589
2577.52303	0.93550
2575.46922	0.93507
2573.41542	0.93487
2571.36162	0.93502
2569.30781	0.93569
2567.25401	0.93608
2565.20021	0.93574
2563.14640	0.93549
2561.09260	0.93566
2559.03880	0.93583
2556.98500	0.93589
2554.93119	0.93598
2552.87739	0.93652
2550.82359	0.93739
2548.76978	0.93744
2546.71598	0.93675
2544.66218	0.93613
2542.60837	0.93520
2540.55457	0.93454
2538.50077	0.93532
2536.44696	0.93642
2534.39316	0.93695
2532.33936	0.93710
2530.28555	0.93651
2528.23175	0.93593
2526.17795	0.93625
2524.12414	0.93647
2522.07034	0.93631
2520.01654	0.93642
2517.96273	0.93671
2515.90893	0.93701
2513.85513	0.93696
2511.80132	0.93651
2509.74752	0.93624
2507.69372	0.93624
2505.63992	0.93627
2503.58611	0.93648
2501.53231	0.93682
2499.47851	0.93694
2497.42470	0.93690
2495.37090	0.93661
2493.31710	0.93595
2491.26329	0.93586
2489.20949	0.93664
2487.15569	0.93710
2485.10188	0.93722
2483.04808	0.93773
2480.99428	0.93810
2478.94047	0.93788
2476.88667	0.93730
2474.83287	0.93680
2472.77906	0.93675
2470.72526	0.93678
2468.67146	0.93673
2466.61765	0.93675
2464.56385	0.93669
2462.51005	0.93667
2460.45624	0.93671
2458.40244	0.93654
2456.34864	0.93659
2454.29483	0.93696
2452.24103	0.93715
2450.18723	0.93718
2448.13343	0.93688
2446.07962	0.93650
2444.02582	0.93685
2441.97202	0.93773
2439.91821	0.93851
2437.86441	0.93873
2435.81061	0.93819
2433.75680	0.93774
2431.70300	0.93807
2429.64920	0.93831
2427.59539	0.93773
2425.54159	0.93747
2423.48779	0.93789
2421.43398	0.93781
2419.38018	0.93718
2417.32638	0.93679
2415.27257	0.93697
2413.21877	0.93766
2411.16497	0.93854
2409.11116	0.93906
2407.05736	0.93934
2405.00356	0.93958
2402.94975	0.93930
2400.89595	0.93881
2398.84215	0.93871
2396.78834	0.93873
2394.73454	0.93839
2392.68074	0.93782
2390.62694	0.93757
2388.57313	0.93776
2386.51933	0.93782
2384.46553	0.93790
2382.41172	0.93845
2380.35792	0.93850
2378.30412	0.93779
2376.25031	0.93791
2374.19651	0.93877
2372.14271	0.93867
2370.08890	0.93827
2368.03510	0.93873
2365.98130	0.93911
2363.92749	0.93931
2361.87369	0.93914
2359.81989	0.93751
2357.76608	0.93544
2355.71228	0.93481
2353.65848	0.93557
2351.60467	0.93630
2349.55087	0.93614
2347.49707	0.93605
2345.44326	0.93701
2343.38946	0.93824
2341.33566	0.93877
2339.28186	0.93874
2337.22805	0.93837
2335.17425	0.93792
2333.12045	0.93793
2331.06664	0.93802
2329.01284	0.93717
2326.95904	0.93590
2324.90523	0.93516
2322.85143	0.93539
2320.79763	0.93649
2318.74382	0.93734
2316.69002	0.93754
2314.63622	0.93793
2312.58241	0.93792
2310.52861	0.93703
2308.47481	0.93672
2306.42100	0.93706
2304.36720	0.93710
2302.31340	0.93679
2300.25959	0.93673
2298.20579	0.93747
2296.15199	0.93828
2294.09818	0.93795
2292.04438	0.93752
2289.99058	0.93824
2287.93677	0.93862
2285.88297	0.93793
2283.82917	0.93756
2281.77537	0.93751
2279.72156	0.93702
2277.66776	0.93692
2275.61396	0.93779
2273.56015	0.93912
2271.50635	0.94025
2269.45255	0.94016
2267.39874	0.93919
2265.34494	0.93929
2263.29114	0.94078
2261.23733	0.94177
2259.18353	0.94139
2257.12973	0.94070
2255.07592	0.94065
2253.02212	0.94135
2250.96832	0.94101
2248.91451	0.93896
2246.86071	0.93768
2244.80691	0.93822
2242.75310	0.93939
2240.69930	0.93969
2238.64550	0.93953
2236.59169	0.94022
2234.53789	0.94074
2232.48409	0.94047
2230.43029	0.94064
2228.37648	0.94105
2226.32268	0.94075
2224.26888	0.94080
2222.21507	0.94228
2220.16127	0.94372
2218.10747	0.94364
2216.05366	0.94318
2213.99986	0.94371
2211.94606	0.94423
2209.89225	0.94260
2207.83845	0.94022
2205.78465	0.94087
2203.73084	0.94321
2201.67704	0.94322
2199.62324	0.94205
2197.56943	0.94197
2195.51563	0.94158
2193.46183	0.94104
2191.40802	0.94083
2189.35422	0.94013
2187.30042	0.94104
2185.24661	0.94256
2183.19281	0.94171
2181.13901	0.94113
2179.08520	0.94191
2177.03140	0.94241
2174.97760	0.94243
2172.92380	0.94193
2170.86999	0.94164
2168.81619	0.94255
2166.76239	0.94533
2164.70858	0.94871
2162.65478	0.94920
2160.60098	0.94737
2158.54717	0.94717
2156.49337	0.94705
2154.43957	0.94439
2152.38576	0.94212
2150.33196	0.94267
2148.27816	0.94387
2146.22435	0.94344
2144.17055	0.94277
2142.11675	0.94285
2140.06294	0.94316
2138.00914	0.94377
2135.95534	0.94460
2133.90153	0.94498
2131.84773	0.94511
2129.79393	0.94492
2127.74012	0.94447
2125.68632	0.94463
2123.63252	0.94446
2121.57871	0.94373
2119.52491	0.94353
2117.47111	0.94311
2115.41731	0.94221
2113.36350	0.94142
2111.30970	0.94036
2109.25590	0.93993
2107.20209	0.94113
2105.14829	0.94199
2103.09449	0.94195
2101.04068	0.94241
2098.98688	0.94236
2096.93308	0.94136
2094.87927	0.94139
2092.82547	0.94237
2090.77167	0.94282
2088.71786	0.94247
2086.66406	0.94158
2084.61026	0.94172
2082.55645	0.94313
2080.50265	0.94333
2078.44885	0.94245
2076.39504	0.94233
2074.34124	0.94240
2072.28744	0.94250
2070.23363	0.94304
2068.17983	0.94342
2066.12603	0.94366
2064.07223	0.94354
2062.01842	0.94301
2059.96462	0.94292
2057.91082	0.94333
2055.85701	0.94371
2053.80321	0.94412
2051.74941	0.94399
2049.69560	0.94180
2047.64180	0.93939
2045.58800	0.94000
2043.53419	0.94267
2041.48039	0.94552
2039.42659	0.94696
2037.37278	0.94600
2035.31898	0.94454
2033.26518	0.94395
2031.21137	0.94489
2029.15757	0.94811
2027.10377	0.94921
2025.04996	0.94619
2022.99616	0.94535
2020.94236	0.94600
2018.88855	0.94473
2016.83475	0.94519
2014.78095	0.94574
2012.72714	0.94462
2010.67334	0.94471
2008.61954	0.94453
2006.56574	0.94423
2004.51193	0.94600
2002.45813	0.94763
2000.40433	0.94789
1998.35052	0.94729
1996.29672	0.94571
1994.24292	0.94515
1992.18911	0.94580
1990.13531	0.94548
1988.08151	0.94549
1986.02770	0.94625
1983.97390	0.94564
1981.92010	0.94467
1979.86629	0.94473
1977.81249	0.94410
1975.75869	0.94474
1973.70488	0.94776
1971.65108	0.94797
1969.59728	0.94563
1967.54347	0.94552
1965.48967	0.94705
1963.43587	0.94754
1961.38206	0.94652
1959.32826	0.94329
1957.27446	0.94022
1955.22066	0.94041
1953.16685	0.94221
1951.11305	0.94299
1949.05925	0.94172
1947.00544	0.93977
1944.95164	0.93950
1942.89784	0.93982
1940.84403	0.93925
1938.79023	0.93962
1936.73643	0.94034
1934.68262	0.94075
1932.62882	0.94285
1930.57502	0.94525
1928.52121	0.94556
1926.46741	0.94494
1924.41361	0.94471
1922.35980	0.94480
1920.30600	0.94494
1918.25220	0.94472
1916.19839	0.94411
1914.14459	0.94392
1912.09079	0.94426
1910.03698	0.94472
1907.98318	0.94559
1905.92938	0.94607
1903.87557	0.94517
1901.82177	0.94415
1899.76797	0.94355
1897.71417	0.94337
1895.66036	0.94371
1893.60656	0.94354
1891.55276	0.94316
1889.49895	0.94335
1887.44515	0.94291
1885.39135	0.94175
1883.33754	0.94109
1881.28374	0.94045
1879.22994	0.93997
1877.17613	0.94083
1875.12233	0.94162
1873.06853	0.94106
1871.01472	0.94042
1868.96092	0.94027
1866.90712	0.94043
1864.85331	0.94116
1862.79951	0.94154
1860.74571	0.94147
1858.69190	0.94187
1856.63810	0.94229
1854.58430	0.94290
1852.53049	0.94414
1850.47669	0.94484
1848.42289	0.94476
1846.36908	0.94462
1844.31528	0.94459
1842.26148	0.94483
1840.20768	0.94502
1838.15387	0.94488
1836.10007	0.94467
1834.04627	0.94461
1831.99246	0.94439
1829.93866	0.94386
1827.88486	0.94342
1825.83105	0.94309
1823.77725	0.94269
1821.72345	0.94240
1819.66964	0.94197
1817.61584	0.94136
1815.56204	0.94112
1813.50823	0.94109
1811.45443	0.94089
1809.40063	0.94044
1807.34682	0.93965
1805.29302	0.93901
1803.23922	0.93893
1801.18541	0.93900
1799.13161	0.93915
1797.07781	0.93941
1795.02400	0.93990
1792.97020	0.94108
1790.91640	0.94216
1788.86260	0.94212
1786.80879	0.94180
1784.75499	0.94187
1782.70119	0.94211
1780.64738	0.94219
1778.59358	0.94189
1776.53978	0.94154
1774.48597	0.94187
1772.43217	0.94239
1770.37837	0.94206
1768.32456	0.94162
1766.27076	0.94153
1764.21696	0.94149
1762.16315	0.94136
1760.10935	0.94101
1758.05555	0.94043
1756.00174	0.93986
1753.94794	0.93942
1751.89414	0.93884
1749.84033	0.93805
1747.78653	0.93728
1745.73273	0.93665
1743.67892	0.93631
1741.62512	0.93599
1739.57132	0.93552
1737.51751	0.93522
1735.46371	0.93507
1733.40991	0.93483
1731.35611	0.93466
1729.30230	0.93448
1727.24850	0.93434
1725.19470	0.93436
1723.14089	0.93443
1721.08709	0.93476
1719.03329	0.93556
1716.97948	0.93576
1714.92568	0.93514
1712.87188	0.93502
1710.81807	0.93494
1708.76427	0.93485
1706.71047	0.93474
1704.65666	0.93417
1702.60286	0.93332
1700.54906	0.93267
1698.49525	0.93207
1696.44145	0.93094
1694.38765	0.92934
1692.33384	0.92780
1690.28004	0.92651
1688.22624	0.92548
1686.17243	0.92446
1684.11863	0.92288
1682.06483	0.92124
1680.01103	0.92014
1677.95722	0.91921
1675.90342	0.91822
1673.84962	0.91701
1671.79581	0.91614
1669.74201	0.91553
1667.68821	0.91481
1665.63440	0.91406
1663.58060	0.91317
1661.52680	0.91234
1659.47299	0.91193
1657.41919	0.91164
1655.36539	0.91118
1653.31158	0.91083
1651.25778	0.91065
1649.20398	0.91041
1647.15017	0.91060
1645.09637	0.91100
1643.04257	0.91120
1640.98876	0.91134
1638.93496	0.91142
1636.88116	0.91158
1634.82735	0.91208
1632.77355	0.91238
1630.71975	0.91232
1628.66594	0.91245
1626.61214	0.91293
1624.55834	0.91331
1622.50454	0.91355
1620.45073	0.91387
1618.39693	0.91445
1616.34313	0.91558
1614.28932	0.91644
1612.23552	0.91633
1610.18172	0.91495
1608.12791	0.91081
1606.07411	0.90302
1604.02031	0.89288
1601.96650	0.88459
1599.91270	0.88367
1597.85890	0.89019
1595.80509	0.89929
1593.75129	0.90693
1591.69749	0.91198
1589.64368	0.91487
1587.58988	0.91558
1585.53608	0.91405
1583.48227	0.91211
1581.42847	0.91291
1579.37467	0.91645
1577.32086	0.92072
1575.26706	0.92402
1573.21326	0.92519
1571.15945	0.92566
1569.10565	0.92637
1567.05185	0.92693
1564.99805	0.92718
1562.94424	0.92757
1560.89044	0.92829
1558.83664	0.92885
1556.78283	0.92819
1554.72903	0.92753
1552.67523	0.92696
1550.62142	0.92654
1548.56762	0.92639
1546.51382	0.92632
1544.46001	0.92647
1542.40621	0.92700
1540.35241	0.92714
1538.29860	0.92669
1536.24480	0.92667
1534.19100	0.92743
1532.13719	0.92883
1530.08339	0.93000
1528.02959	0.93091
1525.97578	0.93168
1523.92198	0.93232
1521.86818	0.93303
1519.81437	0.93375
1517.76057	0.93427
1515.70677	0.93452
1513.65297	0.93464
1511.59916	0.93523
1509.54536	0.93601
1507.49156	0.93602
1505.43775	0.93490
1503.38395	0.93350
1501.33015	0.93082
1499.27634	0.92198
1497.22254	0.89520
1495.16874	0.85428
1493.11493	0.82854
1491.06113	0.83221
1489.00733	0.86365
1486.95352	0.89261
1484.89972	0.90710
1482.84592	0.91550
1480.79211	0.92104
1478.73831	0.92432
1476.68451	0.92624
1474.63070	0.92720
1472.57690	0.92735
1470.52310	0.92769
1468.46929	0.92802
1466.41549	0.92787
1464.36169	0.92716
1462.30788	0.92582
1460.25408	0.92309
1458.20028	0.91063
1456.14648	0.87315
1454.09267	0.83732
1452.03887	0.82138
1449.98507	0.82499
1447.93126	0.84168
1445.87746	0.85830
1443.82366	0.87007
1441.76985	0.87971
1439.71605	0.88779
1437.66225	0.89530
1435.60844	0.90306
1433.55464	0.90877
1431.50084	0.91289
1429.44703	0.91621
1427.39323	0.91863
1425.33943	0.92059
1423.28562	0.92211
1421.23182	0.92285
1419.17802	0.92311
1417.12421	0.92328
1415.07041	0.92366
1413.01661	0.92429
1410.96280	0.92489
1408.90900	0.92539
1406.85520	0.92601
1404.80139	0.92664
1402.74759	0.92696
1400.69379	0.92702
1398.63999	0.92720
1396.58618	0.92753
1394.53238	0.92739
1392.47858	0.92666
1390.42477	0.92557
1388.37097	0.92396
1386.31717	0.92214
1384.26336	0.92071
1382.20956	0.91938
1380.15576	0.91807
1378.10195	0.91680
1376.04815	0.91550
1373.99435	0.91452
1371.94054	0.91409
1369.88674	0.91406
1367.83294	0.91434
1365.77913	0.91491
1363.72533	0.91573
1361.67153	0.91663
1359.61772	0.91726
1357.56392	0.91791
1355.51012	0.91876
1353.45631	0.91923
1351.40251	0.91934
1349.34871	0.91967
1347.29491	0.92016
1345.24110	0.92083
1343.18730	0.92171
1341.13350	0.92229
1339.07969	0.92247
1337.02589	0.92239
1334.97209	0.92196
1332.91828	0.92152
1330.86448	0.92139
1328.81068	0.92130
1326.75687	0.92120
1324.70307	0.92124
1322.64927	0.92124
1320.59546	0.92147
1318.54166	0.92196
1316.48786	0.92196
1314.43405	0.92140
1312.38025	0.92090
1310.32645	0.92092
1308.27264	0.92156
1306.21884	0.92255
1304.16504	0.92323
1302.11123	0.92359
1300.05743	0.92404
1298.00363	0.92447
1295.94982	0.92483
1293.89602	0.92509
1291.84222	0.92510
1289.78842	0.92517
1287.73461	0.92527
1285.68081	0.92503
1283.62701	0.92501
1281.57320	0.92532
1279.51940	0.92526
1277.46560	0.92469
1275.41179	0.92401
1273.35799	0.92383
1271.30419	0.92434
1269.25038	0.92485
1267.19658	0.92488
1265.14278	0.92495
1263.08897	0.92518
1261.03517	0.92528
1258.98137	0.92568
1256.92756	0.92605
1254.87376	0.92580
1252.81996	0.92543
1250.76615	0.92508
1248.71235	0.92441
1246.65855	0.92376
1244.60474	0.92355
1242.55094	0.92377
1240.49714	0.92412
1238.44334	0.92413
1236.38953	0.92377
1234.33573	0.92347
1232.28193	0.92319
1230.22812	0.92272
1228.17432	0.92233
1226.12052	0.92213
1224.06671	0.92188
1222.01291	0.92168
1219.95911	0.92141
1217.90530	0.92074
1215.85150	0.92000
1213.79770	0.91927
1211.74389	0.91820
1209.69009	0.91707
1207.63629	0.91586
1205.58248	0.91410
1203.52868	0.91200
1201.47488	0.91007
1199.42107	0.90854
1197.36727	0.90718
1195.31347	0.90546
1193.25966	0.90344
1191.20586	0.90146
1189.15206	0.89914
1187.09825	0.89592
1185.04445	0.89201
1182.99065	0.88787
1180.93685	0.88432
1178.88304	0.88247
1176.82924	0.88173
1174.77544	0.88072
1172.72163	0.87911
1170.66783	0.87692
1168.61403	0.87437
1166.56022	0.87194
1164.50642	0.86982
1162.45262	0.86760
1160.39881	0.86479
1158.34501	0.86103
1156.29121	0.85667
1154.23740	0.85308
1152.18360	0.85155
1150.12980	0.85196
1148.07599	0.85282
1146.02219	0.85295
1143.96839	0.85258
1141.91458	0.85218
1139.86078	0.85159
1137.80698	0.85076
1135.75317	0.84970
1133.69937	0.84830
1131.64557	0.84672
1129.59176	0.84468
1127.53796	0.84188
1125.48416	0.83852
1123.43036	0.83471
1121.37655	0.83035
1119.32275	0.82573
1117.26895	0.82109
1115.21514	0.81654
1113.16134	0.81238
1111.10754	0.80864
1109.05373	0.80557
1106.99993	0.80313
1104.94613	0.80068
1102.89232	0.79835
1100.83852	0.79689
1098.78472	0.79597
1096.73091	0.79500
1094.67711	0.79416
1092.62331	0.79322
1090.56950	0.79225
1088.51570	0.79172
1086.46190	0.79122
1084.40809	0.79020
1082.35429	0.78877
1080.30049	0.78726
1078.24668	0.78574
1076.19288	0.78390
1074.13908	0.78105
1072.08528	0.77742
1070.03147	0.77386
1067.97767	0.77074
1065.92387	0.76841
1063.87006	0.76705
1061.81626	0.76586
1059.76246	0.76385
1057.70865	0.76091
1055.65485	0.75723
1053.60105	0.75315
1051.54724	0.74881
1049.49344	0.74369
1047.43964	0.73788
1045.38583	0.73212
1043.33203	0.72651
1041.27823	0.72088
1039.22442	0.71507
1037.17062	0.70847
1035.11682	0.70043
1033.06301	0.69081
1031.00921	0.68100
1028.95541	0.67418
1026.90160	0.67289
1024.84780	0.67671
1022.79400	0.68250
1020.74019	0.68741
1018.68639	0.69076
1016.63259	0.69317
1014.57879	0.69521
1012.52498	0.69666
1010.47118	0.69762
1008.41738	0.69823
1006.36357	0.69845
1004.30977	0.69980
1002.25597	0.70405
1000.20216	0.71070
998.14836	0.71827
996.09456	0.72607
994.04075	0.73368
991.98695	0.74110
989.93315	0.74822
987.87934	0.75497
985.82554	0.76142
983.77174	0.76733
981.71793	0.77284
979.66413	0.77888
977.61033	0.78586
975.55652	0.79305
973.50272	0.79972
971.44892	0.80524
969.39511	0.80940
967.34131	0.81282
965.28751	0.81609
963.23371	0.81976
961.17990	0.82429
959.12610	0.82893
957.07230	0.83279
955.01849	0.83634
952.96469	0.83966
950.91089	0.84227
948.85708	0.84421
946.80328	0.84544
944.74948	0.84613
942.69567	0.84684
940.64187	0.84793
938.58807	0.84972
936.53426	0.85226
934.48046	0.85491
932.42666	0.85695
930.37285	0.85825
928.31905	0.85865
926.26525	0.85879
924.21144	0.85913
922.15764	0.85849
920.10384	0.85633
918.05003	0.85321
915.99623	0.84913
913.94243	0.84481
911.88862	0.84089
909.83482	0.83760
907.78102	0.83647
905.72722	0.83850
903.67341	0.84342
901.61961	0.85088
899.56581	0.85956
897.51200	0.86730
895.45820	0.87321
893.40440	0.87744
891.35059	0.88008
889.29679	0.88252
887.24299	0.88532
885.18918	0.88706
883.13538	0.88763
881.08158	0.88851
879.02777	0.89009
876.97397	0.89155
874.92017	0.89268
872.86636	0.89383
870.81256	0.89528
868.75876	0.89696
866.70495	0.89853
864.65115	0.89983
862.59735	0.90065
860.54354	0.90153
858.48974	0.90303
856.43594	0.90429
854.38213	0.90432
852.32833	0.90359
850.27453	0.90254
848.22073	0.90075
846.16692	0.89861
844.11312	0.89676
842.05932	0.89583
840.00551	0.89660
837.95171	0.89826
835.89791	0.89950
833.84410	0.90100
831.79030	0.90293
829.73650	0.90414
827.68269	0.90474
825.62889	0.90478
823.57509	0.90445
821.52128	0.90489
819.46748	0.90594
817.41368	0.90604
815.35987	0.90501
813.30607	0.90416
811.25227	0.90335
809.19846	0.90218
807.14466	0.90084
805.09086	0.89877
803.03705	0.89602
800.98325	0.89333
798.92945	0.89150
796.87565	0.89056
794.82184	0.88950
792.76804	0.88831
790.71424	0.88746
788.66043	0.88607
786.60663	0.88401
784.55283	0.88163
782.49902	0.87779
780.44522	0.87232
778.39142	0.86657
776.33761	0.85963
774.28381	0.84967
772.23001	0.83762
770.17620	0.82433
768.12240	0.80979
766.06860	0.79469
764.01479	0.77898
761.96099	0.76302
759.90719	0.74782
757.85338	0.73495
755.79958	0.72721
753.74578	0.72491
751.69197	0.72494
749.63817	0.72614
747.58437	0.73054
745.53056	0.74065
743.47676	0.75784
741.42296	0.77922
739.36916	0.79946
737.31535	0.81659
735.26155	0.83172
733.20775	0.84518
731.15394	0.85640
729.10014	0.86479
727.04634	0.87028
724.99253	0.87436
722.93873	0.87788
720.88493	0.88008
718.83112	0.88118
716.77732	0.88161
714.72352	0.87992
712.66971	0.87386
710.61591	0.85908
708.56211	0.82894
706.50830	0.77919
704.45450	0.70926
702.40070	0.62254
700.34689	0.52724
698.29309	0.43943
696.23929	0.39002
694.18548	0.40941
692.13168	0.48780
690.07788	0.57950
688.02408	0.65156
685.97027	0.69917
683.91647	0.72908
681.86267	0.74910
679.80886	0.76308
677.75506	0.77213
675.70126	0.77846
673.64745	0.78368
671.59365	0.78736
669.53985	0.79162
667.48604	0.79915
665.43224	0.80537
663.37844	0.81001
661.32463	0.81410
659.27083	0.81680
657.21703	0.81857
655.16322	0.82003
653.10942	0.82160
651.05562	0.82337
649.00181	0.82456
646.94801	0.82543
644.89421	0.82699
642.84040	0.82774
640.78660	0.82697
638.73280	0.82601
636.67899	0.82507
634.62519	0.82487
632.57139	0.82594
630.51759	0.82626
628.46378	0.82463
626.40998	0.82263
624.35618	0.82087
622.30237	0.81964
620.24857	0.81899
618.19477	0.81798
616.14096	0.81729
614.08716	0.81713
612.03336	0.81639
609.97955	0.81537
607.92575	0.81435
605.87195	0.81220
603.81814	0.80926
601.76434	0.80680
599.71054	0.80507
597.65673	0.80442
595.60293	0.80415
593.54913	0.80336
591.49532	0.80255
589.44152	0.80138
587.38772	0.79927
585.33391	0.79748
583.28011	0.79547
581.22631	0.79092
579.17250	0.78545
577.11870	0.78145
575.06490	0.77894
573.01110	0.77786
570.95729	0.77578
568.90349	0.76993
566.84969	0.76261
564.79588	0.75646
562.74208	0.75078
560.68828	0.74624
558.63447	0.74243
556.58067	0.73683
554.52687	0.73093
552.47306	0.72448
550.41926	0.71401
548.36546	0.70185
546.31165	0.69077
544.25785	0.67936
542.20405	0.66759
540.15024	0.65643
538.09644	0.64831
536.04264	0.64669
533.98883	0.65154
531.93503	0.66015
529.88123	0.67083
527.82742	0.68286
525.77362	0.69545
523.71982	0.70614
521.66602	0.71264
519.61221	0.71819
517.55841	0.72657
515.50461	0.73368
513.45080	0.73766
511.39700	0.74285
509.34320	0.74759
507.28939	0.74970
505.23559	0.75388
503.18179	0.75876
501.12798	0.76028
499.07418	0.76121
497.02038	0.76256
494.96657	0.76265
492.91277	0.76200
490.85897	0.76156
488.80516	0.76006
486.75136	0.75650
484.69756	0.75031
482.64375	0.74272
480.58995	0.73377
478.53615	0.72198
476.48234	0.71159
474.42854	0.70207
472.37474	0.69084
470.32093	0.68347
468.26713	0.67955
466.21333	0.67688
464.15953	0.67966
462.10572	0.68739
460.05192	0.69279
457.99812	0.69614
455.94431	0.70282
453.89051	0.71068
451.83671	0.71715
449.78290	0.71969
447.72910	0.71821
445.67530	0.71889
443.62149	0.72449
441.56769	0.72790
439.51389	0.72658
437.46008	0.72480
435.40628	0.72424
433.35248	0.72458
431.29867	0.72281
429.24487	0.71821
427.19107	0.71648
425.13726	0.71940
423.08346	0.72309
421.02966	0.72757
418.97585	0.73180
416.92205	0.73385
414.86825	0.74067
412.81445	0.74910
410.76064	0.75247
408.70684	0.75495
406.65304	0.75829
404.59923	0.76132
402.54543	0.77009
400.49163	0.77856
398.43782	0.77236
