3996.70104	0.99041
3994.64724	0.98981
3992.59344	0.98910
3990.53964	0.98857
3988.48583	0.98832
3986.43203	0.98818
3984.37823	0.98846
3982.32442	0.98922
3980.27062	0.98961
3978.21682	0.98947
3976.16301	0.98929
3974.10921	0.98946
3972.05541	0.98987
3970.00160	0.98997
3967.94780	0.98975
3965.89400	0.98951
3963.84019	0.98925
3961.78639	0.98866
3959.73259	0.98842
3957.67878	0.98889
3955.62498	0.98908
3953.57118	0.98899
3951.51737	0.98929
3949.46357	0.98991
3947.40977	0.99001
3945.35596	0.98925
3943.30216	0.98842
3941.24836	0.98818
3939.19455	0.98873
3937.14075	0.98927
3935.08695	0.98902
3933.03315	0.98878
3930.97934	0.98926
3928.92554	0.98943
3926.87174	0.98896
3924.81793	0.98874
3922.76413	0.98895
3920.71033	0.98892
3918.65652	0.98856
3916.60272	0.98828
3914.54892	0.98875
3912.49511	0.98952
3910.44131	0.98951
3908.38751	0.98900
3906.33370	0.98881
3904.27990	0.98922
3902.22610	0.98962
3900.17229	0.98933
3898.11849	0.98885
3896.06469	0.98863
3894.01088	0.98899
3891.95708	0.98963
3889.90328	0.98954
3887.84947	0.98908
3885.79567	0.98898
3883.74187	0.98917
3881.68807	0.98936
3879.63426	0.98952
3877.58046	0.98956
3875.52666	0.98945
3873.47285	0.98929
3871.41905	0.98909
3869.36525	0.98910
3867.31144	0.98920
3865.25764	0.98874
3863.20384	0.98795
3861.15003	0.98744
3859.09623	0.98750
3857.04243	0.98838
3854.98862	0.98966
3852.93482	0.98999
3850.88102	0.98956
3848.82721	0.98931
3846.77341	0.98927
3844.71961	0.98964
3842.66580	0.99003
3840.61200	0.98994
3838.55820	0.98979
3836.50439	0.98979
3834.45059	0.98947
3832.39679	0.98900
3830.34298	0.98892
3828.28918	0.98918
3826.23538	0.98933
3824.18158	0.98912
3822.12777	0.98896
3820.07397	0.98912
3818.02017	0.98950
3815.96636	0.98984
3813.91256	0.98976
3811.85876	0.98965
3809.80495	0.98970
3807.75115	0.98903
3805.69735	0.98766
3803.64354	0.98764
3801.58974	0.98883
3799.53594	0.98913
3797.48213	0.98860
3795.42833	0.98847
3793.37453	0.98887
3791.32072	0.98942
3789.26692	0.98988
3787.21312	0.98995
3785.15931	0.98988
3783.10551	0.99005
3781.05171	0.98977
3778.99790	0.98883
3776.94410	0.98862
3774.89030	0.98917
3772.83650	0.98958
3770.78269	0.98977
3768.72889	0.98971
3766.67509	0.98990
3764.62128	0.99028
3762.56748	0.98985
3760.51368	0.98895
3758.45987	0.98878
3756.40607	0.98913
3754.35227	0.98917
3752.29846	0.98892
3750.24466	0.98866
3748.19086	0.98874
3746.13705	0.98891
3744.08325	0.98882
3742.02945	0.98881
3739.97564	0.98907
3737.92184	0.98961
3735.86804	0.99017
3733.81423	0.98979
3731.76043	0.98929
3729.70663	0.98948
3727.65282	0.98958
3725.59902	0.98945
3723.54522	0.98976
3721.49141	0.99000
3719.43761	0.98946
3717.38381	0.98913
3715.33001	0.98970
3713.27620	0.98991
3711.22240	0.98858
3709.16860	0.98742
3707.11479	0.98726
3705.06099	0.98734
3703.00719	0.98742
3700.95338	0.98690
3698.89958	0.98601
3696.84578	0.98579
3694.79197	0.98639
3692.73817	0.98682
3690.68437	0.98639
3688.63056	0.98575
3686.57676	0.98551
3684.52296	0.98552
3682.46915	0.98588
3680.41535	0.98623
3678.36155	0.98618
3676.30774	0.98518
3674.25394	0.98362
3672.20014	0.98324
3670.14633	0.98299
3668.09253	0.98224
3666.03873	0.98150
3663.98492	0.98031
3661.93112	0.97880
3659.87732	0.97774
3657.82352	0.97693
3655.76971	0.97623
3653.71591	0.97629
3651.66211	0.97562
3649.60830	0.97273
3647.55450	0.97090
3645.50070	0.97152
3643.44689	0.97192
3641.39309	0.97160
3639.33929	0.97135
3637.28548	0.97127
3635.23168	0.97067
3633.17788	0.96949
3631.12407	0.96864
3629.07027	0.96796
3627.01647	0.96654
3624.96266	0.96560
3622.90886	0.96547
3620.85506	0.96558
3618.80125	0.96557
3616.74745	0.96569
3614.69365	0.96597
3612.63984	0.96651
3610.58604	0.96759
3608.53224	0.96908
3606.47844	0.97069
3604.42463	0.97198
3602.37083	0.97279
3600.31703	0.97337
3598.26322	0.97392
3596.20942	0.97452
3594.15562	0.97542
3592.10181	0.97659
3590.04801	0.97767
3587.99421	0.97836
3585.94040	0.97889
3583.88660	0.97955
3581.83280	0.98039
3579.77899	0.98107
3577.72519	0.98097
3575.67139	0.98077
3573.61758	0.98091
3571.56378	0.98072
3569.50998	0.98050
3567.45617	0.98086
3565.40237	0.98117
3563.34857	0.98113
3561.29476	0.98110
3559.24096	0.98124
3557.18716	0.98185
3555.13335	0.98235
3553.07955	0.98213
3551.02575	0.98171
3548.97195	0.98145
3546.91814	0.98153
3544.86434	0.98193
3542.81054	0.98183
3540.75673	0.98141
3538.70293	0.98160
3536.64913	0.98210
3534.59532	0.98217
3532.54152	0.98189
3530.48772	0.98159
3528.43391	0.98147
3526.38011	0.98170
3524.32631	0.98201
3522.27250	0.98207
3520.21870	0.98211
3518.16490	0.98234
3516.11109	0.98279
3514.05729	0.98333
3512.00349	0.98353
3509.94968	0.98334
3507.89588	0.98323
3505.84208	0.98290
3503.78827	0.98242
3501.73447	0.98279
3499.68067	0.98379
3497.62687	0.98422
3495.57306	0.98394
3493.51926	0.98364
3491.46546	0.98360
3489.41165	0.98348
3487.35785	0.98328
3485.30405	0.98368
3483.25024	0.98439
3481.19644	0.98427
3479.14264	0.98352
3477.08883	0.98306
3475.03503	0.98300
3472.98123	0.98332
3470.92742	0.98375
3468.87362	0.98394
3466.81982	0.98409
3464.76601	0.98425
3462.71221	0.98421
3460.65841	0.98418
3458.60460	0.98433
3456.55080	0.98435
3454.49700	0.98426
3452.44319	0.98432
3450.38939	0.98416
3448.33559	0.98390
3446.28178	0.98417
3444.22798	0.98455
3442.17418	0.98434
3440.12038	0.98376
3438.06657	0.98319
3436.01277	0.98283
3433.95897	0.98303
3431.90516	0.98357
3429.85136	0.98391
3427.79756	0.98406
3425.74375	0.98393
3423.68995	0.98349
3421.63615	0.98365
3419.58234	0.98439
3417.52854	0.98428
3415.47474	0.98365
3413.42093	0.98337
3411.36713	0.98324
3409.31333	0.98345
3407.25952	0.98401
3405.20572	0.98415
3403.15192	0.98379
3401.09811	0.98366
3399.04431	0.98379
3396.99051	0.98367
3394.93670	0.98363
3392.88290	0.98411
3390.82910	0.98451
3388.77529	0.98450
3386.72149	0.98447
3384.66769	0.98456
3382.61389	0.98465
3380.56008	0.98447
3378.50628	0.98438
3376.45248	0.98486
3374.39867	0.98547
3372.34487	0.98539
3370.29107	0.98465
3368.23726	0.98420
3366.18346	0.98472
3364.12966	0.98527
3362.07585	0.98517
3360.02205	0.98495
3357.96825	0.98488
3355.91444	0.98481
3353.86064	0.98470
3351.80684	0.98486
3349.75303	0.98518
3347.69923	0.98535
3345.64543	0.98544
3343.59162	0.98541
3341.53782	0.98525
3339.48402	0.98491
3337.43021	0.98452
3335.37641	0.98432
3333.32261	0.98421
3331.26881	0.98407
3329.21500	0.98405
3327.16120	0.98434
3325.10740	0.98514
3323.05359	0.98613
3320.99979	0.98621
3318.94599	0.98527
3316.89218	0.98444
3314.83838	0.98431
3312.78458	0.98449
3310.73077	0.98455
3308.67697	0.98443
3306.62317	0.98442
3304.56936	0.98460
3302.51556	0.98457
3300.46176	0.98453
3298.40795	0.98486
3296.35415	0.98510
3294.30035	0.98468
3292.24654	0.98400
3290.19274	0.98369
3288.13894	0.98391
3286.08513	0.98438
3284.03133	0.98447
3281.97753	0.98421
3279.92372	0.98424
3277.86992	0.98464
3275.81612	0.98491
3273.76232	0.98504
3271.70851	0.98532
3269.65471	0.98560
3267.60091	0.98554
3265.54710	0.98536
3263.49330	0.98535
3261.43950	0.98520
3259.38569	0.98475
3257.33189	0.98441
3255.27809	0.98453
3253.22428	0.98494
3251.17048	0.98499
3249.11668	0.98491
3247.06287	0.98519
3245.00907	0.98538
3242.95527	0.98541
3240.90146	0.98568
3238.84766	0.98595
3236.79386	0.98593
3234.74005	0.98557
3232.68625	0.98489
3230.63245	0.98431
3228.57864	0.98436
3226.52484	0.98476
3224.47104	0.98494
3222.41724	0.98518
3220.36343	0.98577
3218.30963	0.98625
3216.25583	0.98616
3214.20202	0.98581
3212.14822	0.98567
3210.09442	0.98570
3208.04061	0.98585
3205.98681	0.98620
3203.93301	0.98660
3201.87920	0.98690
3199.82540	0.98717
3197.77160	0.98724
3195.71779	0.98684
3193.66399	0.98647
3191.61019	0.98637
3189.55638	0.98616
3187.50258	0.98605
3185.44878	0.98616
3183.39497	0.98624
3181.34117	0.98639
3179.28737	0.98666
3177.23356	0.98674
3175.17976	0.98656
3173.12596	0.98664
3171.07215	0.98681
3169.01835	0.98638
3166.96455	0.98569
3164.91075	0.98564
3162.85694	0.98629
3160.80314	0.98655
3158.74934	0.98621
3156.69553	0.98613
3154.64173	0.98631
3152.58793	0.98624
3150.53412	0.98599
3148.48032	0.98587
3146.42652	0.98613
3144.37271	0.98663
3142.31891	0.98708
3140.26511	0.98728
3138.21130	0.98698
3136.15750	0.98674
3134.10370	0.98688
3132.04989	0.98657
3129.99609	0.98584
3127.94229	0.98563
3125.88848	0.98600
3123.83468	0.98642
3121.78088	0.98655
3119.72707	0.98629
3117.67327	0.98585
3115.61947	0.98581
3113.56566	0.98614
3111.51186	0.98627
3109.45806	0.98625
3107.40426	0.98639
3105.35045	0.98668
3103.29665	0.98678
3101.24285	0.98648
3099.18904	0.98609
3097.13524	0.98609
3095.08144	0.98646
3093.02763	0.98664
3090.97383	0.98682
3088.92003	0.98721
3086.86622	0.98731
3084.81242	0.98691
3082.75862	0.98665
3080.70481	0.98707
3078.65101	0.98745
3076.59721	0.98711
3074.54340	0.98688
3072.48960	0.98735
3070.43580	0.98784
3068.38199	0.98785
3066.32819	0.98773
3064.27439	0.98743
3062.22058	0.98694
3060.16678	0.98680
3058.11298	0.98692
3056.05918	0.98690
3054.00537	0.98703
3051.95157	0.98740
3049.89777	0.98767
3047.84396	0.98778
3045.79016	0.98774
3043.73636	0.98709
3041.68255	0.98616
3039.62875	0.98618
3037.57495	0.98710
3035.52114	0.98770
3033.46734	0.98755
3031.41354	0.98733
3029.35973	0.98752
3027.30593	0.98771
3025.25213	0.98766
3023.19832	0.98773
3021.14452	0.98802
3019.09072	0.98844
3017.03691	0.98861
3014.98311	0.98823
3012.92931	0.98782
3010.87550	0.98772
3008.82170	0.98774
3006.76790	0.98770
3004.71409	0.98761
3002.66029	0.98761
3000.60649	0.98784
2998.55269	0.98815
2996.49888	0.98825
2994.44508	0.98811
2992.39128	0.98785
2990.33747	0.98771
2988.28367	0.98796
2986.22987	0.98809
2984.17606	0.98771
2982.12226	0.98764
2980.06846	0.98832
2978.01465	0.98897
2975.96085	0.98916
2973.90705	0.98906
2971.85324	0.98905
2969.79944	0.98953
2967.74564	0.99019
2965.69183	0.99075
2963.63803	0.99136
2961.58423	0.99201
2959.53042	0.99248
2957.47662	0.99263
2955.42282	0.99264
2953.36901	0.99296
2951.31521	0.99321
2949.26141	0.99287
2947.20761	0.99289
2945.15380	0.99388
2943.10000	0.99507
2941.04620	0.99586
2938.99239	0.99636
2936.93859	0.99690
2934.88479	0.99797
2932.83098	0.99988
2930.77718	1.00176
2928.72338	1.00276
2926.66957	1.00368
2924.61577	1.00498
2922.56197	1.00527
2920.50816	1.00406
2918.45436	1.00268
2916.40056	1.00159
2914.34675	1.00020
2912.29295	0.99875
2910.23915	0.99785
2908.18534	0.99716
2906.13154	0.99636
2904.07774	0.99581
2902.02393	0.99550
2899.97013	0.99507
2897.91633	0.99465
2895.86252	0.99437
2893.80872	0.99404
2891.75492	0.99350
2889.70112	0.99274
2887.64731	0.99207
2885.59351	0.99181
2883.53971	0.99185
2881.48590	0.99172
2879.43210	0.99152
2877.37830	0.99185
2875.32449	0.99251
2873.27069	0.99290
2871.21689	0.99310
2869.16308	0.99316
2867.10928	0.99289
2865.05548	0.99277
2863.00167	0.99345
2860.94787	0.99474
2858.89407	0.99601
2856.84026	0.99709
2854.78646	0.99819
2852.73266	0.99892
2850.67885	0.99860
2848.62505	0.99726
2846.57125	0.99565
2844.51744	0.99431
2842.46364	0.99309
2840.40984	0.99191
2838.35603	0.99094
2836.30223	0.99049
2834.24843	0.99058
2832.19463	0.99074
2830.14082	0.99075
2828.08702	0.99065
2826.03322	0.99044
2823.97941	0.99014
2821.92561	0.98983
2819.87181	0.98973
2817.81800	0.98984
2815.76420	0.99003
2813.71040	0.99009
2811.65659	0.98984
2809.60279	0.98960
2807.54899	0.98966
2805.49518	0.98986
2803.44138	0.98988
2801.38758	0.98984
2799.33377	0.98974
2797.27997	0.98948
2795.22617	0.98929
2793.17236	0.98936
2791.11856	0.98962
2789.06476	0.98991
2787.01095	0.98995
2784.95715	0.98970
2782.90335	0.98942
2780.84955	0.98937
2778.79574	0.98951
2776.74194	0.98941
2774.68814	0.98897
2772.63433	0.98860
2770.58053	0.98855
2768.52673	0.98897
2766.47292	0.98961
2764.41912	0.98998
2762.36532	0.99001
2760.31151	0.98986
2758.25771	0.98956
2756.20391	0.98913
2754.15010	0.98875
2752.09630	0.98870
2750.04250	0.98909
2747.98869	0.98947
2745.93489	0.98963
2743.88109	0.98971
2741.82728	0.98966
2739.77348	0.98946
2737.71968	0.98938
2735.66587	0.98954
2733.61207	0.98981
2731.55827	0.98990
2729.50446	0.98972
2727.45066	0.98948
2725.39686	0.98929
2723.34306	0.98933
2721.28925	0.98976
2719.23545	0.99015
2717.18165	0.98998
2715.12784	0.98953
2713.07404	0.98913
2711.02024	0.98872
2708.96643	0.98858
2706.91263	0.98898
2704.85883	0.98959
2702.80502	0.98990
2700.75122	0.98997
2698.69742	0.98992
2696.64361	0.98962
2694.58981	0.98919
2692.53601	0.98915
2690.48220	0.98958
2688.42840	0.98992
2686.37460	0.99000
2684.32079	0.98989
2682.26699	0.98972
2680.21319	0.98967
2678.15938	0.98967
2676.10558	0.98973
2674.05178	0.98994
2671.99797	0.98992
2669.94417	0.98952
2667.89037	0.98908
2665.83657	0.98895
2663.78276	0.98925
2661.72896	0.98970
2659.67516	0.98989
2657.62135	0.98956
2655.56755	0.98902
2653.51375	0.98882
2651.45994	0.98909
2649.40614	0.98950
2647.35234	0.98950
2645.29853	0.98906
2643.24473	0.98901
2641.19093	0.98943
2639.13712	0.98954
2637.08332	0.98946
2635.02952	0.98949
2632.97571	0.98917
2630.92191	0.98862
2628.86811	0.98847
2626.81430	0.98894
2624.76050	0.98980
2622.70670	0.99043
2620.65289	0.99046
2618.59909	0.99012
2616.54529	0.98986
2614.49149	0.98980
2612.43768	0.98958
2610.38388	0.98918
2608.33008	0.98912
2606.27627	0.98941
2604.22247	0.98958
2602.16867	0.98945
2600.11486	0.98935
2598.06106	0.98964
2596.00726	0.99000
2593.95345	0.99035
2591.89965	0.99069
2589.84585	0.99047
2587.79204	0.98982
2585.73824	0.98939
2583.68444	0.98947
2581.63063	0.98978
2579.57683	0.98997
2577.52303	0.98994
2575.46922	0.98995
2573.41542	0.99018
2571.36162	0.99039
2569.30781	0.99036
2567.25401	0.99018
2565.20021	0.98993
2563.14640	0.98969
2561.09260	0.98974
2559.03880	0.99009
2556.98500	0.99028
2554.93119	0.98993
2552.87739	0.98946
2550.82359	0.98950
2548.76978	0.98959
2546.71598	0.98958
2544.66218	0.98992
2542.60837	0.99001
2540.55457	0.98992
2538.50077	0.99022
2536.44696	0.99047
2534.39316	0.99048
2532.33936	0.99045
2530.28555	0.99044
2528.23175	0.99011
2526.17795	0.98973
2524.12414	0.99024
2522.07034	0.99109
2520.01654	0.99134
2517.96273	0.99110
2515.90893	0.99049
2513.85513	0.98958
2511.80132	0.98890
2509.74752	0.98907
2507.69372	0.98961
2505.63992	0.98994
2503.58611	0.99018
2501.53231	0.99037
2499.47851	0.99066
2497.42470	0.99056
2495.37090	0.99010
2493.31710	0.99054
2491.26329	0.99131
2489.20949	0.99112
2487.15569	0.99048
2485.10188	0.98996
2483.04808	0.98962
2480.99428	0.98941
2478.94047	0.98930
2476.88667	0.98976
2474.83287	0.99043
2472.77906	0.99068
2470.72526	0.99068
2468.67146	0.99085
2466.61765	0.99118
2464.56385	0.99119
2462.51005	0.99083
2460.45624	0.99042
2458.40244	0.99017
2456.34864	0.99008
2454.29483	0.99016
2452.24103	0.99070
2450.18723	0.99137
2448.13343	0.99122
2446.07962	0.99036
2444.02582	0.98997
2441.97202	0.99022
2439.91821	0.99053
2437.86441	0.99068
2435.81061	0.99052
2433.75680	0.98997
2431.70300	0.98968
2429.64920	0.99030
2427.59539	0.99119
2425.54159	0.99138
2423.48779	0.99083
2421.43398	0.99017
2419.38018	0.99015
2417.32638	0.99083
2415.27257	0.99136
2413.21877	0.99123
2411.16497	0.99118
2409.11116	0.99143
2407.05736	0.99113
2405.00356	0.99079
2402.94975	0.99110
2400.89595	0.99140
2398.84215	0.99145
2396.78834	0.99140
2394.73454	0.99118
2392.68074	0.99105
2390.62694	0.99140
2388.57313	0.99162
2386.51933	0.99087
2384.46553	0.98983
2382.41172	0.98966
2380.35792	0.99002
2378.30412	0.99015
2376.25031	0.99053
2374.19651	0.99099
2372.14271	0.99075
2370.08890	0.99085
2368.03510	0.99148
2365.98130	0.99082
2363.92749	0.98866
2361.87369	0.98690
2359.81989	0.98738
2357.76608	0.98959
2355.71228	0.99072
2353.65848	0.99025
2351.60467	0.99002
2349.55087	0.98985
2347.49707	0.98926
2345.44326	0.98876
2343.38946	0.98846
2341.33566	0.98863
2339.28186	0.98935
2337.22805	0.98924
2335.17425	0.98892
2333.12045	0.98984
2331.06664	0.99065
2329.01284	0.99021
2326.95904	0.98950
2324.90523	0.98889
2322.85143	0.98814
2320.79763	0.98774
2318.74382	0.98770
2316.69002	0.98782
2314.63622	0.98871
2312.58241	0.98966
2310.52861	0.98979
2308.47481	0.98994
2306.42100	0.99039
2304.36720	0.99072
2302.31340	0.99098
2300.25959	0.99131
2298.20579	0.99133
2296.15199	0.99062
2294.09818	0.98985
2292.04438	0.98971
2289.99058	0.98983
2287.93677	0.98961
2285.88297	0.98961
2283.82917	0.99019
2281.77537	0.99071
2279.72156	0.99133
2277.66776	0.99224
2275.61396	0.99237
2273.56015	0.99128
2271.50635	0.98975
2269.45255	0.98898
2267.39874	0.98949
2265.34494	0.98959
2263.29114	0.98838
2261.23733	0.98772
2259.18353	0.98855
2257.12973	0.98985
2255.07592	0.99093
2253.02212	0.99144
2250.96832	0.99100
2248.91451	0.99019
2246.86071	0.99016
2244.80691	0.99118
2242.75310	0.99146
2240.69930	0.99053
2238.64550	0.99060
2236.59169	0.99092
2234.53789	0.98961
2232.48409	0.98884
2230.43029	0.98971
2228.37648	0.99095
2226.32268	0.99291
2224.26888	0.99500
2222.21507	0.99461
2220.16127	0.99256
2218.10747	0.99192
2216.05366	0.99229
2213.99986	0.99173
2211.94606	0.99117
2209.89225	0.99201
2207.83845	0.99305
2205.78465	0.99350
2203.73084	0.99351
2201.67704	0.99312
2199.62324	0.99167
2197.56943	0.98959
2195.51563	0.98911
2193.46183	0.98810
2191.40802	0.98601
2189.35422	0.98744
2187.30042	0.99041
2185.24661	0.99066
2183.19281	0.99072
2181.13901	0.99161
2179.08520	0.99143
2177.03140	0.99102
2174.97760	0.99073
2172.92380	0.98984
2170.86999	0.98899
2168.81619	0.98925
2166.76239	0.99004
2164.70858	0.99068
2162.65478	0.99188
2160.60098	0.99276
2158.54717	0.99365
2156.49337	0.99547
2154.43957	0.99567
2152.38576	0.99398
2150.33196	0.99281
2148.27816	0.99307
2146.22435	0.99341
2144.17055	0.99342
2142.11675	0.99454
2140.06294	0.99569
2138.00914	0.99581
2135.95534	0.99585
2133.90153	0.99558
2131.84773	0.99435
2129.79393	0.99231
2127.74012	0.99139
2125.68632	0.99222
2123.63252	0.99331
2121.57871	0.99343
2119.52491	0.99232
2117.47111	0.99126
2115.41731	0.99142
2113.36350	0.99289
2111.30970	0.99402
2109.25590	0.99324
2107.20209	0.99221
2105.14829	0.99221
2103.09449	0.99171
2101.04068	0.99058
2098.98688	0.99034
2096.93308	0.99096
2094.87927	0.99243
2092.82547	0.99367
2090.77167	0.99297
2088.71786	0.99131
2086.66406	0.98999
2084.61026	0.98981
2082.55645	0.99075
2080.50265	0.99157
2078.44885	0.99208
2076.39504	0.99150
2074.34124	0.98959
2072.28744	0.98922
2070.23363	0.99086
2068.17983	0.99204
2066.12603	0.99243
2064.07223	0.99232
2062.01842	0.99131
2059.96462	0.99032
2057.91082	0.99021
2055.85701	0.99061
2053.80321	0.99116
2051.74941	0.99099
2049.69560	0.99155
2047.64180	0.99428
2045.58800	0.99513
2043.53419	0.99324
2041.48039	0.99152
2039.42659	0.98953
2037.37278	0.98799
2035.31898	0.98882
2033.26518	0.99034
2031.21137	0.98980
2029.15757	0.98822
2027.10377	0.98885
2025.04996	0.99125
2022.99616	0.99261
2020.94236	0.99307
2018.88855	0.99372
2016.83475	0.99546
2014.78095	0.99640
2012.72714	0.99437
2010.67334	0.99277
2008.61954	0.99197
2006.56574	0.99024
2004.51193	0.99027
2002.45813	0.99125
2000.40433	0.99094
1998.35052	0.99065
1996.29672	0.99123
1994.24292	0.99156
1992.18911	0.99140
1990.13531	0.99155
1988.08151	0.99156
1986.02770	0.99127
1983.97390	0.99159
1981.92010	0.99351
1979.86629	0.99577
1977.81249	0.99522
1975.75869	0.99288
1973.70488	0.99183
1971.65108	0.99251
1969.59728	0.99413
1967.54347	0.99450
1965.48967	0.99460
1963.43587	0.99605
1961.38206	0.99552
1959.32826	0.99371
1957.27446	0.99403
1955.22066	0.99499
1953.16685	0.99468
1951.11305	0.99401
1949.05925	0.99403
1947.00544	0.99422
1944.95164	0.99381
1942.89784	0.99285
1940.84403	0.99287
1938.79023	0.99405
1936.73643	0.99372
1934.68262	0.99221
1932.62882	0.99249
1930.57502	0.99329
1928.52121	0.99285
1926.46741	0.99247
1924.41361	0.99278
1922.35980	0.99305
1920.30600	0.99291
1918.25220	0.99262
1916.19839	0.99249
1914.14459	0.99251
1912.09079	0.99259
1910.03698	0.99241
1907.98318	0.99200
1905.92938	0.99240
1903.87557	0.99320
1901.82177	0.99319
1899.76797	0.99316
1897.71417	0.99316
1895.66036	0.99225
1893.60656	0.99087
1891.55276	0.98983
1889.49895	0.98999
1887.44515	0.99122
1885.39135	0.99190
1883.33754	0.99173
1881.28374	0.99149
1879.22994	0.99133
1877.17613	0.99101
1875.12233	0.99063
1873.06853	0.99044
1871.01472	0.99032
1868.96092	0.99006
1866.90712	0.99018
1864.85331	0.99105
1862.79951	0.99173
1860.74571	0.99177
1858.69190	0.99188
1856.63810	0.99195
1854.58430	0.99141
1852.53049	0.99117
1850.47669	0.99175
1848.42289	0.99213
1846.36908	0.99192
1844.31528	0.99160
1842.26148	0.99167
1840.20768	0.99212
1838.15387	0.99250
1836.10007	0.99223
1834.04627	0.99164
1831.99246	0.99146
1829.93866	0.99125
1827.88486	0.99086
1825.83105	0.99090
1823.77725	0.99138
1821.72345	0.99177
1819.66964	0.99192
1817.61584	0.99198
1815.56204	0.99181
1813.50823	0.99178
1811.45443	0.99214
1809.40063	0.99226
1807.34682	0.99185
1805.29302	0.99123
1803.23922	0.99074
1801.18541	0.99055
1799.13161	0.99068
1797.07781	0.99100
1795.02400	0.99137
1792.97020	0.99162
1790.91640	0.99148
1788.86260	0.99102
1786.80879	0.99069
1784.75499	0.99084
1782.70119	0.99128
1780.64738	0.99127
1778.59358	0.99092
1776.53978	0.99107
1774.48597	0.99148
1772.43217	0.99177
1770.37837	0.99218
1768.32456	0.99232
1766.27076	0.99223
1764.21696	0.99236
1762.16315	0.99273
1760.10935	0.99316
1758.05555	0.99331
1756.00174	0.99331
1753.94794	0.99377
1751.89414	0.99461
1749.84033	0.99555
1747.78653	0.99635
1745.73273	0.99673
1743.67892	0.99681
1741.62512	0.99682
1739.57132	0.99648
1737.51751	0.99584
1735.46371	0.99541
1733.40991	0.99524
1731.35611	0.99513
1729.30230	0.99496
1727.24850	0.99498
1725.19470	0.99517
1723.14089	0.99536
1721.08709	0.99559
1719.03329	0.99576
1716.97948	0.99580
1714.92568	0.99599
1712.87188	0.99602
1710.81807	0.99568
1708.76427	0.99528
1706.71047	0.99490
1704.65666	0.99435
1702.60286	0.99377
1700.54906	0.99354
1698.49525	0.99376
1696.44145	0.99348
1694.38765	0.99304
1692.33384	0.99333
1690.28004	0.99365
1688.22624	0.99354
1686.17243	0.99344
1684.11863	0.99324
1682.06483	0.99292
1680.01103	0.99301
1677.95722	0.99319
1675.90342	0.99314
1673.84962	0.99301
1671.79581	0.99304
1669.74201	0.99308
1667.68821	0.99318
1665.63440	0.99352
1663.58060	0.99360
1661.52680	0.99306
1659.47299	0.99271
1657.41919	0.99298
1655.36539	0.99317
1653.31158	0.99240
1651.25778	0.99168
1649.20398	0.99172
1647.15017	0.99163
1645.09637	0.99129
1643.04257	0.99124
1640.98876	0.99137
1638.93496	0.99140
1636.88116	0.99163
1634.82735	0.99234
1632.77355	0.99290
1630.71975	0.99314
1628.66594	0.99294
1626.61214	0.99255
1624.55834	0.99257
1622.50454	0.99255
1620.45073	0.99241
1618.39693	0.99270
1616.34313	0.99329
1614.28932	0.99354
1612.23552	0.99345
1610.18172	0.99328
1608.12791	0.99326
1606.07411	0.99354
1604.02031	0.99385
1601.96650	0.99409
1599.91270	0.99437
1597.85890	0.99455
1595.80509	0.99459
1593.75129	0.99451
1591.69749	0.99432
1589.64368	0.99415
1587.58988	0.99414
1585.53608	0.99429
1583.48227	0.99434
1581.42847	0.99432
1579.37467	0.99443
1577.32086	0.99441
1575.26706	0.99418
1573.21326	0.99431
1571.15945	0.99463
1569.10565	0.99458
1567.05185	0.99446
1564.99805	0.99460
1562.94424	0.99459
1560.89044	0.99433
1558.83664	0.99404
1556.78283	0.99427
1554.72903	0.99430
1552.67523	0.99401
1550.62142	0.99393
1548.56762	0.99398
1546.51382	0.99385
1544.46001	0.99379
1542.40621	0.99423
1540.35241	0.99450
1538.29860	0.99419
1536.24480	0.99421
1534.19100	0.99448
1532.13719	0.99476
1530.08339	0.99496
1528.02959	0.99494
1525.97578	0.99467
1523.92198	0.99446
1521.86818	0.99432
1519.81437	0.99405
1517.76057	0.99398
1515.70677	0.99427
1513.65297	0.99452
1511.59916	0.99446
1509.54536	0.99430
1507.49156	0.99450
1505.43775	0.99487
1503.38395	0.99470
1501.33015	0.99446
1499.27634	0.99445
1497.22254	0.99449
1495.16874	0.99451
1493.11493	0.99470
1491.06113	0.99489
1489.00733	0.99510
1486.95352	0.99528
1484.89972	0.99510
1482.84592	0.99504
1480.79211	0.99550
1478.73831	0.99587
1476.68451	0.99561
1474.63070	0.99550
1472.57690	0.99648
1470.52310	0.99749
1468.46929	0.99792
1466.41549	0.99827
1464.36169	0.99838
1462.30788	0.99819
1460.25408	0.99816
1458.20028	0.99855
1456.14648	0.99882
1454.09267	0.99855
1452.03887	0.99820
1449.98507	0.99787
1447.93126	0.99753
1445.87746	0.99722
1443.82366	0.99702
1441.76985	0.99682
1439.71605	0.99662
1437.66225	0.99636
1435.60844	0.99595
1433.55464	0.99567
1431.50084	0.99560
1429.44703	0.99573
1427.39323	0.99584
1425.33943	0.99575
1423.28562	0.99570
1421.23182	0.99587
1419.17802	0.99612
1417.12421	0.99616
1415.07041	0.99589
1413.01661	0.99563
1410.96280	0.99538
1408.90900	0.99501
1406.85520	0.99480
1404.80139	0.99507
1402.74759	0.99543
1400.69379	0.99537
1398.63999	0.99526
1396.58618	0.99572
1394.53238	0.99623
1392.47858	0.99610
1390.42477	0.99574
1388.37097	0.99560
1386.31717	0.99568
1384.26336	0.99594
1382.20956	0.99623
1380.15576	0.99640
1378.10195	0.99647
1376.04815	0.99640
1373.99435	0.99620
1371.94054	0.99584
1369.88674	0.99535
1367.83294	0.99534
1365.77913	0.99580
1363.72533	0.99613
1361.67153	0.99608
1359.61772	0.99584
1357.56392	0.99574
1355.51012	0.99573
1353.45631	0.99568
1351.40251	0.99561
1349.34871	0.99554
1347.29491	0.99537
1345.24110	0.99504
1343.18730	0.99489
1341.13350	0.99504
1339.07969	0.99525
1337.02589	0.99542
1334.97209	0.99535
1332.91828	0.99485
1330.86448	0.99441
1328.81068	0.99439
1326.75687	0.99439
1324.70307	0.99423
1322.64927	0.99427
1320.59546	0.99444
1318.54166	0.99437
1316.48786	0.99401
1314.43405	0.99368
1312.38025	0.99366
1310.32645	0.99396
1308.27264	0.99428
1306.21884	0.99428
1304.16504	0.99399
1302.11123	0.99379
1300.05743	0.99386
1298.00363	0.99391
1295.94982	0.99363
1293.89602	0.99330
1291.84222	0.99327
1289.78842	0.99339
1287.73461	0.99334
1285.68081	0.99304
1283.62701	0.99277
1281.57320	0.99267
1279.51940	0.99244
1277.46560	0.99197
1275.41179	0.99160
1273.35799	0.99142
1271.30419	0.99143
1269.25038	0.99166
1267.19658	0.99194
1265.14278	0.99201
1263.08897	0.99172
1261.03517	0.99121
1258.98137	0.99081
1256.92756	0.99070
1254.87376	0.99072
1252.81996	0.99031
1250.76615	0.98938
1248.71235	0.98870
1246.65855	0.98855
1244.60474	0.98857
1242.55094	0.98842
1240.49714	0.98793
1238.44334	0.98742
1236.38953	0.98712
1234.33573	0.98653
1232.28193	0.98562
1230.22812	0.98486
1228.17432	0.98425
1226.12052	0.98358
1224.06671	0.98255
1222.01291	0.98100
1219.95911	0.97914
1217.90530	0.97725
1215.85150	0.97546
1213.79770	0.97377
1211.74389	0.97211
1209.69009	0.97009
1207.63629	0.96777
1205.58248	0.96564
1203.52868	0.96378
1201.47488	0.96186
1199.42107	0.95984
1197.36727	0.95779
1195.31347	0.95533
1193.25966	0.95261
1191.20586	0.95022
1189.15206	0.94819
1187.09825	0.94616
1185.04445	0.94392
1182.99065	0.94143
1180.93685	0.93869
1178.88304	0.93596
1176.82924	0.93339
1174.77544	0.93084
1172.72163	0.92803
1170.66783	0.92482
1168.61403	0.92143
1166.56022	0.91833
1164.50642	0.91606
1162.45262	0.91523
1160.39881	0.91604
1158.34501	0.91726
1156.29121	0.91731
1154.23740	0.91590
1152.18360	0.91331
1150.12980	0.91017
1148.07599	0.90707
1146.02219	0.90391
1143.96839	0.90050
1141.91458	0.89695
1139.86078	0.89323
1137.80698	0.88910
1135.75317	0.88488
1133.69937	0.88103
1131.64557	0.87731
1129.59176	0.87318
1127.53796	0.86871
1125.48416	0.86412
1123.43036	0.85959
1121.37655	0.85540
1119.32275	0.85123
1117.26895	0.84672
1115.21514	0.84219
1113.16134	0.83779
1111.10754	0.83328
1109.05373	0.82882
1106.99993	0.82451
1104.94613	0.82008
1102.89232	0.81572
1100.83852	0.81157
1098.78472	0.80735
1096.73091	0.80274
1094.67711	0.79768
1092.62331	0.79273
1090.56950	0.78815
1088.51570	0.78381
1086.46190	0.77962
1084.40809	0.77547
1082.35429	0.77153
1080.30049	0.76779
1078.24668	0.76404
1076.19288	0.76045
1074.13908	0.75717
1072.08528	0.75380
1070.03147	0.75013
1067.97767	0.74613
1065.92387	0.74183
1063.87006	0.73749
1061.81626	0.73334
1059.76246	0.72942
1057.70865	0.72533
1055.65485	0.72073
1053.60105	0.71551
1051.54724	0.70969
1049.49344	0.70337
1047.43964	0.69619
1045.38583	0.68818
1043.33203	0.67971
1041.27823	0.67080
1039.22442	0.66160
1037.17062	0.65227
1035.11682	0.64306
1033.06301	0.63470
1031.00921	0.62750
1028.95541	0.62132
1026.90160	0.61591
1024.84780	0.61089
1022.79400	0.60600
1020.74019	0.60131
1018.68639	0.59719
1016.63259	0.59381
1014.57879	0.59091
1012.52498	0.58816
1010.47118	0.58540
1008.41738	0.58237
1006.36357	0.57925
1004.30977	0.57675
1002.25597	0.57490
1000.20216	0.57299
998.14836	0.57066
996.09456	0.56839
994.04075	0.56664
991.98695	0.56537
989.93315	0.56423
987.87934	0.56329
985.82554	0.56266
983.77174	0.56234
981.71793	0.56255
979.66413	0.56338
977.61033	0.56517
975.55652	0.56798
973.50272	0.57126
971.44892	0.57514
969.39511	0.58013
967.34131	0.58624
965.28751	0.59301
963.23371	0.60024
961.17990	0.60798
959.12610	0.61586
957.07230	0.62346
955.01849	0.63060
952.96469	0.63722
950.91089	0.64362
948.85708	0.64962
946.80328	0.65461
944.74948	0.65858
942.69567	0.66159
940.64187	0.66364
938.58807	0.66520
936.53426	0.66655
934.48046	0.66795
932.42666	0.66945
930.37285	0.67043
928.31905	0.67083
926.26525	0.67121
924.21144	0.67188
922.15764	0.67301
920.10384	0.67404
918.05003	0.67432
915.99623	0.67435
913.94243	0.67444
911.88862	0.67472
909.83482	0.67566
907.78102	0.67743
905.72722	0.68031
903.67341	0.68490
901.61961	0.69160
899.56581	0.69964
897.51200	0.70782
895.45820	0.71589
893.40440	0.72409
891.35059	0.73246
889.29679	0.74050
887.24299	0.74788
885.18918	0.75470
883.13538	0.76058
881.08158	0.76574
879.02777	0.77118
876.97397	0.77715
874.92017	0.78363
872.86636	0.79060
870.81256	0.79776
868.75876	0.80490
866.70495	0.81217
864.65115	0.81955
862.59735	0.82701
860.54354	0.83460
858.48974	0.84130
856.43594	0.84686
854.38213	0.85207
852.32833	0.85703
850.27453	0.86147
848.22073	0.86512
846.16692	0.86788
844.11312	0.86952
842.05932	0.86970
840.00551	0.86843
837.95171	0.86618
835.89791	0.86272
833.84410	0.85833
831.79030	0.85407
829.73650	0.84982
827.68269	0.84653
825.62889	0.84587
823.57509	0.84742
821.52128	0.84996
819.46748	0.85255
817.41368	0.85458
815.35987	0.85587
813.30607	0.85579
811.25227	0.85322
809.19846	0.84721
807.14466	0.83721
805.09086	0.82415
803.03705	0.81041
800.98325	0.79801
798.92945	0.78866
796.87565	0.78414
794.82184	0.78484
792.76804	0.78869
790.71424	0.79260
788.66043	0.79539
786.60663	0.79647
784.55283	0.79469
782.49902	0.79059
780.44522	0.78587
778.39142	0.78259
776.33761	0.78214
774.28381	0.78390
772.23001	0.78767
770.17620	0.79343
768.12240	0.79913
766.06860	0.80306
764.01479	0.80530
761.96099	0.80629
759.90719	0.80660
757.85338	0.80691
755.79958	0.80700
753.74578	0.80681
751.69197	0.80728
749.63817	0.80846
747.58437	0.81040
745.53056	0.81369
743.47676	0.81817
741.42296	0.82339
739.36916	0.82850
737.31535	0.83327
735.26155	0.83795
733.20775	0.84219
731.15394	0.84576
729.10014	0.84872
727.04634	0.85162
724.99253	0.85418
722.93873	0.85544
720.88493	0.85648
718.83112	0.85919
716.77732	0.86307
714.72352	0.86651
712.66971	0.86854
710.61591	0.86931
708.56211	0.87001
706.50830	0.87035
704.45450	0.86891
702.40070	0.86544
700.34689	0.85943
698.29309	0.85011
696.23929	0.84008
694.18548	0.83526
692.13168	0.83795
690.07788	0.84441
688.02408	0.85033
685.97027	0.85493
683.91647	0.85936
681.86267	0.86345
679.80886	0.86669
677.75506	0.86963
675.70126	0.87298
673.64745	0.87643
671.59365	0.87891
669.53985	0.88142
667.48604	0.88474
665.43224	0.88696
663.37844	0.88869
661.32463	0.89065
659.27083	0.89211
657.21703	0.89174
655.16322	0.89051
653.10942	0.89026
651.05562	0.89030
649.00181	0.88986
646.94801	0.88924
644.89421	0.88881
642.84040	0.88805
640.78660	0.88598
638.73280	0.88329
636.67899	0.88162
634.62519	0.88155
632.57139	0.88246
630.51759	0.88237
628.46378	0.88074
626.40998	0.87909
624.35618	0.87833
622.30237	0.87835
620.24857	0.87823
618.19477	0.87734
616.14096	0.87612
614.08716	0.87478
612.03336	0.87251
609.97955	0.86974
607.92575	0.86740
605.87195	0.86541
603.81814	0.86461
601.76434	0.86362
599.71054	0.85950
597.65673	0.85375
595.60293	0.84929
593.54913	0.84553
591.49532	0.84110
589.44152	0.83590
587.38772	0.83025
585.33391	0.82536
583.28011	0.82101
581.22631	0.81576
579.17250	0.81147
577.11870	0.80925
575.06490	0.80588
573.01110	0.79992
570.95729	0.79379
568.90349	0.78894
566.84969	0.78431
564.79588	0.77908
562.74208	0.77254
560.68828	0.76368
558.63447	0.75382
556.58067	0.74415
554.52687	0.73445
552.47306	0.72527
550.41926	0.71666
548.36546	0.70836
546.31165	0.69918
544.25785	0.68769
542.20405	0.67492
540.15024	0.66266
538.09644	0.65155
536.04264	0.64087
533.98883	0.63005
531.93503	0.62044
529.88123	0.61326
527.82742	0.60744
525.77362	0.60239
523.71982	0.59921
521.66602	0.59687
519.61221	0.59523
517.55841	0.59565
515.50461	0.59742
513.45080	0.60014
511.39700	0.60375
509.34320	0.60717
507.28939	0.60982
505.23559	0.61134
503.18179	0.61128
501.12798	0.61076
499.07418	0.61086
497.02038	0.60951
494.96657	0.60471
492.91277	0.59695
490.85897	0.58727
488.80516	0.57667
486.75136	0.56542
484.69756	0.55175
482.64375	0.53640
480.58995	0.52390
478.53615	0.51489
476.48234	0.50736
474.42854	0.49934
472.37474	0.48884
470.32093	0.47822
468.26713	0.47029
466.21333	0.46529
464.15953	0.46274
462.10572	0.46032
460.05192	0.45672
457.99812	0.45366
455.94431	0.45440
453.89051	0.45719
451.83671	0.45930
449.78290	0.46122
447.72910	0.46315
445.67530	0.46550
443.62149	0.46737
441.56769	0.46757
439.51389	0.46982
437.46008	0.47375
435.40628	0.47479
433.35248	0.47597
431.29867	0.48012
429.24487	0.48415
427.19107	0.48590
425.13726	0.48656
423.08346	0.48836
421.02966	0.49121
418.97585	0.49196
416.92205	0.48964
414.86825	0.49006
412.81445	0.49260
410.76064	0.49502
408.70684	0.49958
406.65304	0.50818
404.59923	0.51630
402.54543	0.51623
400.49163	0.50535
398.43782	0.48866
