3996.70104	0.97861
3994.64724	0.97900
3992.59344	0.97912
3990.53964	0.97879
3988.48583	0.97847
3986.43203	0.97876
3984.37823	0.97933
3982.32442	0.97937
3980.27062	0.97887
3978.21682	0.97839
3976.16301	0.97808
3974.10921	0.97774
3972.05541	0.97778
3970.00160	0.97848
3967.94780	0.97893
3965.89400	0.97877
3963.84019	0.97869
3961.78639	0.97915
3959.73259	0.97974
3957.67878	0.97952
3955.62498	0.97847
3953.57118	0.97754
3951.51737	0.97736
3949.46357	0.97787
3947.40977	0.97857
3945.35596	0.97881
3943.30216	0.97859
3941.24836	0.97844
3939.19455	0.97858
3937.14075	0.97910
3935.08695	0.97935
3933.03315	0.97859
3930.97934	0.97789
3928.92554	0.97812
3926.87174	0.97839
3924.81793	0.97835
3922.76413	0.97847
3920.71033	0.97900
3918.65652	0.97979
3916.60272	0.98029
3914.54892	0.98003
3912.49511	0.97935
3910.44131	0.97903
3908.38751	0.97920
3906.33370	0.97929
3904.27990	0.97888
3902.22610	0.97826
3900.17229	0.97795
3898.11849	0.97759
3896.06469	0.97753
3894.01088	0.97798
3891.95708	0.97845
3889.90328	0.97861
3887.84947	0.97845
3885.79567	0.97816
3883.74187	0.97828
3881.68807	0.97892
3879.63426	0.97925
3877.58046	0.97884
3875.52666	0.97871
3873.47285	0.97902
3871.41905	0.97924
3869.36525	0.97960
3867.31144	0.97971
3865.25764	0.97898
3863.20384	0.97818
3861.15003	0.97820
3859.09623	0.97867
3857.04243	0.97894
3854.98862	0.97876
3852.93482	0.97851
3850.88102	0.97861
3848.82721	0.97861
3846.77341	0.97854
3844.71961	0.97858
3842.66580	0.97865
3840.61200	0.97891
3838.55820	0.97935
3836.50439	0.97927
3834.45059	0.97909
3832.39679	0.97917
3830.34298	0.97873
3828.28918	0.97778
3826.23538	0.97718
3824.18158	0.97728
3822.12777	0.97814
3820.07397	0.97960
3818.02017	0.98042
3815.96636	0.98017
3813.91256	0.97903
3811.85876	0.97840
3809.80495	0.97872
3807.75115	0.97898
3805.69735	0.97904
3803.64354	0.97937
3801.58974	0.97950
3799.53594	0.97926
3797.48213	0.97893
3795.42833	0.97877
3793.37453	0.97893
3791.32072	0.97920
3789.26692	0.97952
3787.21312	0.97969
3785.15931	0.97965
3783.10551	0.97953
3781.05171	0.97905
3778.99790	0.97829
3776.94410	0.97816
3774.89030	0.97895
3772.83650	0.97954
3770.78269	0.97906
3768.72889	0.97851
3766.67509	0.97885
3764.62128	0.97939
3762.56748	0.97939
3760.51368	0.97902
3758.45987	0.97886
3756.40607	0.97874
3754.35227	0.97869
3752.29846	0.97923
3750.24466	0.97950
3748.19086	0.97887
3746.13705	0.97862
3744.08325	0.97910
3742.02945	0.97931
3739.97564	0.97927
3737.92184	0.97934
3735.86804	0.97907
3733.81423	0.97881
3731.76043	0.97905
3729.70663	0.97941
3727.65282	0.98001
3725.59902	0.98017
3723.54522	0.97935
3721.49141	0.97864
3719.43761	0.97838
3717.38381	0.97815
3715.33001	0.97820
3713.27620	0.97876
3711.22240	0.97926
3709.16860	0.97916
3707.11479	0.97868
3705.06099	0.97761
3703.00719	0.97607
3700.95338	0.97458
3698.89958	0.97355
3696.84578	0.97276
3694.79197	0.97208
3692.73817	0.97176
3690.68437	0.97200
3688.63056	0.97281
3686.57676	0.97379
3684.52296	0.97471
3682.46915	0.97479
3680.41535	0.97403
3678.36155	0.97354
3676.30774	0.97328
3674.25394	0.97277
3672.20014	0.97263
3670.14633	0.97303
3668.09253	0.97308
3666.03873	0.97278
3663.98492	0.97224
3661.93112	0.97108
3659.87732	0.97029
3657.82352	0.97016
3655.76971	0.96977
3653.71591	0.96928
3651.66211	0.96930
3649.60830	0.96973
3647.55450	0.96942
3645.50070	0.96892
3643.44689	0.96896
3641.39309	0.96865
3639.33929	0.96762
3637.28548	0.96678
3635.23168	0.96696
3633.17788	0.96760
3631.12407	0.96737
3629.07027	0.96603
3627.01647	0.96513
3624.96266	0.96509
3622.90886	0.96495
3620.85506	0.96462
3618.80125	0.96445
3616.74745	0.96457
3614.69365	0.96469
3612.63984	0.96436
3610.58604	0.96385
3608.53224	0.96368
3606.47844	0.96402
3604.42463	0.96451
3602.37083	0.96450
3600.31703	0.96402
3598.26322	0.96409
3596.20942	0.96499
3594.15562	0.96593
3592.10181	0.96620
3590.04801	0.96545
3587.99421	0.96436
3585.94040	0.96422
3583.88660	0.96489
3581.83280	0.96559
3579.77899	0.96609
3577.72519	0.96614
3575.67139	0.96554
3573.61758	0.96450
3571.56378	0.96374
3569.50998	0.96376
3567.45617	0.96433
3565.40237	0.96465
3563.34857	0.96457
3561.29476	0.96425
3559.24096	0.96363
3557.18716	0.96313
3555.13335	0.96297
3553.07955	0.96260
3551.02575	0.96218
3548.97195	0.96236
3546.91814	0.96289
3544.86434	0.96276
3542.81054	0.96200
3540.75673	0.96157
3538.70293	0.96155
3536.64913	0.96152
3534.59532	0.96130
3532.54152	0.96097
3530.48772	0.96043
3528.43391	0.96013
3526.38011	0.96057
3524.32631	0.96141
3522.27250	0.96204
3520.21870	0.96183
3518.16490	0.96115
3516.11109	0.96070
3514.05729	0.96028
3512.00349	0.95998
3509.94968	0.96019
3507.89588	0.96085
3505.84208	0.96147
3503.78827	0.96155
3501.73447	0.96123
3499.68067	0.96096
3497.62687	0.96089
3495.57306	0.96088
3493.51926	0.96078
3491.46546	0.96075
3489.41165	0.96038
3487.35785	0.95959
3485.30405	0.95930
3483.25024	0.95961
3481.19644	0.96018
3479.14264	0.96056
3477.08883	0.96030
3475.03503	0.95984
3472.98123	0.95980
3470.92742	0.96005
3468.87362	0.96003
3466.81982	0.95965
3464.76601	0.95943
3462.71221	0.95965
3460.65841	0.95959
3458.60460	0.95883
3456.55080	0.95822
3454.49700	0.95804
3452.44319	0.95797
3450.38939	0.95819
3448.33559	0.95862
3446.28178	0.95859
3444.22798	0.95782
3442.17418	0.95705
3440.12038	0.95714
3438.06657	0.95800
3436.01277	0.95860
3433.95897	0.95822
3431.90516	0.95763
3429.85136	0.95750
3427.79756	0.95736
3425.74375	0.95734
3423.68995	0.95754
3421.63615	0.95723
3419.58234	0.95619
3417.52854	0.95525
3415.47474	0.95488
3413.42093	0.95489
3411.36713	0.95514
3409.31333	0.95547
3407.25952	0.95551
3405.20572	0.95487
3403.15192	0.95434
3401.09811	0.95488
3399.04431	0.95571
3396.99051	0.95590
3394.93670	0.95547
3392.88290	0.95487
3390.82910	0.95486
3388.77529	0.95543
3386.72149	0.95557
3384.66769	0.95494
3382.61389	0.95437
3380.56008	0.95482
3378.50628	0.95585
3376.45248	0.95617
3374.39867	0.95582
3372.34487	0.95569
3370.29107	0.95600
3368.23726	0.95658
3366.18346	0.95699
3364.12966	0.95672
3362.07585	0.95624
3360.02205	0.95592
3357.96825	0.95555
3355.91444	0.95563
3353.86064	0.95595
3351.80684	0.95576
3349.75303	0.95562
3347.69923	0.95616
3345.64543	0.95686
3343.59162	0.95707
3341.53782	0.95673
3339.48402	0.95637
3337.43021	0.95656
3335.37641	0.95716
3333.32261	0.95738
3331.26881	0.95710
3329.21500	0.95673
3327.16120	0.95651
3325.10740	0.95671
3323.05359	0.95730
3320.99979	0.95774
3318.94599	0.95777
3316.89218	0.95789
3314.83838	0.95809
3312.78458	0.95799
3310.73077	0.95783
3308.67697	0.95775
3306.62317	0.95774
3304.56936	0.95754
3302.51556	0.95738
3300.46176	0.95800
3298.40795	0.95870
3296.35415	0.95864
3294.30035	0.95834
3292.24654	0.95841
3290.19274	0.95881
3288.13894	0.95930
3286.08513	0.95963
3284.03133	0.95953
3281.97753	0.95908
3279.92372	0.95874
3277.86992	0.95866
3275.81612	0.95844
3273.76232	0.95808
3271.70851	0.95824
3269.65471	0.95905
3267.60091	0.95965
3265.54710	0.95949
3263.49330	0.95921
3261.43950	0.95945
3259.38569	0.95981
3257.33189	0.95980
3255.27809	0.95984
3253.22428	0.96009
3251.17048	0.96008
3249.11668	0.95991
3247.06287	0.95995
3245.00907	0.96008
3242.95527	0.96005
3240.90146	0.95993
3238.84766	0.95973
3236.79386	0.95976
3234.74005	0.96021
3232.68625	0.96053
3230.63245	0.96053
3228.57864	0.96047
3226.52484	0.96040
3224.47104	0.96027
3222.41724	0.96024
3220.36343	0.96068
3218.30963	0.96142
3216.25583	0.96185
3214.20202	0.96199
3212.14822	0.96212
3210.09442	0.96225
3208.04061	0.96249
3205.98681	0.96256
3203.93301	0.96243
3201.87920	0.96244
3199.82540	0.96246
3197.77160	0.96268
3195.71779	0.96313
3193.66399	0.96325
3191.61019	0.96323
3189.55638	0.96296
3187.50258	0.96233
3185.44878	0.96226
3183.39497	0.96269
3181.34117	0.96314
3179.28737	0.96358
3177.23356	0.96379
3175.17976	0.96371
3173.12596	0.96336
3171.07215	0.96346
3169.01835	0.96459
3166.96455	0.96543
3164.91075	0.96526
3162.85694	0.96501
3160.80314	0.96484
3158.74934	0.96465
3156.69553	0.96501
3154.64173	0.96559
3152.58793	0.96586
3150.53412	0.96611
3148.48032	0.96593
3146.42652	0.96522
3144.37271	0.96501
3142.31891	0.96528
3140.26511	0.96558
3138.21130	0.96615
3136.15750	0.96663
3134.10370	0.96647
3132.04989	0.96621
3129.99609	0.96636
3127.94229	0.96652
3125.88848	0.96649
3123.83468	0.96658
3121.78088	0.96670
3119.72707	0.96655
3117.67327	0.96677
3115.61947	0.96758
3113.56566	0.96799
3111.51186	0.96774
3109.45806	0.96734
3107.40426	0.96700
3105.35045	0.96685
3103.29665	0.96721
3101.24285	0.96797
3099.18904	0.96860
3097.13524	0.96896
3095.08144	0.96900
3093.02763	0.96855
3090.97383	0.96781
3088.92003	0.96720
3086.86622	0.96691
3084.81242	0.96687
3082.75862	0.96693
3080.70481	0.96689
3078.65101	0.96680
3076.59721	0.96718
3074.54340	0.96797
3072.48960	0.96861
3070.43580	0.96868
3068.38199	0.96833
3066.32819	0.96782
3064.27439	0.96726
3062.22058	0.96684
3060.16678	0.96655
3058.11298	0.96633
3056.05918	0.96652
3054.00537	0.96738
3051.95157	0.96827
3049.89777	0.96888
3047.84396	0.96958
3045.79016	0.97012
3043.73636	0.97017
3041.68255	0.96965
3039.62875	0.96903
3037.57495	0.96869
3035.52114	0.96832
3033.46734	0.96781
3031.41354	0.96688
3029.35973	0.96565
3027.30593	0.96493
3025.25213	0.96490
3023.19832	0.96548
3021.14452	0.96676
3019.09072	0.96831
3017.03691	0.96931
3014.98311	0.96961
3012.92931	0.96970
3010.87550	0.97003
3008.82170	0.97049
3006.76790	0.97077
3004.71409	0.97090
3002.66029	0.97089
3000.60649	0.97064
2998.55269	0.97030
2996.49888	0.97040
2994.44508	0.97091
2992.39128	0.97118
2990.33747	0.97118
2988.28367	0.97151
2986.22987	0.97194
2984.17606	0.97212
2982.12226	0.97227
2980.06846	0.97243
2978.01465	0.97261
2975.96085	0.97302
2973.90705	0.97342
2971.85324	0.97332
2969.79944	0.97282
2967.74564	0.97221
2965.69183	0.97178
2963.63803	0.97194
2961.58423	0.97271
2959.53042	0.97357
2957.47662	0.97408
2955.42282	0.97410
2953.36901	0.97362
2951.31521	0.97310
2949.26141	0.97307
2947.20761	0.97317
2945.15380	0.97298
2943.10000	0.97300
2941.04620	0.97322
2938.99239	0.97299
2936.93859	0.97244
2934.88479	0.97205
2932.83098	0.97179
2930.77718	0.97155
2928.72338	0.97129
2926.66957	0.97074
2924.61577	0.97025
2922.56197	0.97040
2920.50816	0.97055
2918.45436	0.96999
2916.40056	0.96939
2914.34675	0.96909
2912.29295	0.96839
2910.23915	0.96777
2908.18534	0.96802
2906.13154	0.96863
2904.07774	0.96934
2902.02393	0.96983
2899.97013	0.96991
2897.91633	0.97034
2895.86252	0.97117
2893.80872	0.97156
2891.75492	0.97154
2889.70112	0.97163
2887.64731	0.97188
2885.59351	0.97214
2883.53971	0.97246
2881.48590	0.97277
2879.43210	0.97297
2877.37830	0.97320
2875.32449	0.97323
2873.27069	0.97301
2871.21689	0.97308
2869.16308	0.97343
2867.10928	0.97351
2865.05548	0.97354
2863.00167	0.97405
2860.94787	0.97451
2858.89407	0.97425
2856.84026	0.97378
2854.78646	0.97380
2852.73266	0.97404
2850.67885	0.97379
2848.62505	0.97300
2846.57125	0.97231
2844.51744	0.97209
2842.46364	0.97227
2840.40984	0.97265
2838.35603	0.97306
2836.30223	0.97336
2834.24843	0.97360
2832.19463	0.97406
2830.14082	0.97449
2828.08702	0.97432
2826.03322	0.97394
2823.97941	0.97408
2821.92561	0.97449
2819.87181	0.97456
2817.81800	0.97442
2815.76420	0.97440
2813.71040	0.97432
2811.65659	0.97425
2809.60279	0.97434
2807.54899	0.97445
2805.49518	0.97455
2803.44138	0.97463
2801.38758	0.97461
2799.33377	0.97454
2797.27997	0.97457
2795.22617	0.97479
2793.17236	0.97496
2791.11856	0.97474
2789.06476	0.97447
2787.01095	0.97464
2784.95715	0.97503
2782.90335	0.97529
2780.84955	0.97524
2778.79574	0.97495
2776.74194	0.97473
2774.68814	0.97486
2772.63433	0.97528
2770.58053	0.97563
2768.52673	0.97551
2766.47292	0.97510
2764.41912	0.97490
2762.36532	0.97504
2760.31151	0.97537
2758.25771	0.97561
2756.20391	0.97560
2754.15010	0.97541
2752.09630	0.97539
2750.04250	0.97558
2747.98869	0.97562
2745.93489	0.97545
2743.88109	0.97526
2741.82728	0.97537
2739.77348	0.97552
2737.71968	0.97530
2735.66587	0.97522
2733.61207	0.97552
2731.55827	0.97577
2729.50446	0.97584
2727.45066	0.97584
2725.39686	0.97587
2723.34306	0.97585
2721.28925	0.97575
2719.23545	0.97568
2717.18165	0.97593
2715.12784	0.97622
2713.07404	0.97606
2711.02024	0.97590
2708.96643	0.97615
2706.91263	0.97647
2704.85883	0.97642
2702.80502	0.97612
2700.75122	0.97583
2698.69742	0.97560
2696.64361	0.97553
2694.58981	0.97561
2692.53601	0.97576
2690.48220	0.97605
2688.42840	0.97624
2686.37460	0.97622
2684.32079	0.97629
2682.26699	0.97643
2680.21319	0.97648
2678.15938	0.97642
2676.10558	0.97636
2674.05178	0.97647
2671.99797	0.97649
2669.94417	0.97629
2667.89037	0.97633
2665.83657	0.97671
2663.78276	0.97670
2661.72896	0.97605
2659.67516	0.97551
2657.62135	0.97547
2655.56755	0.97564
2653.51375	0.97567
2651.45994	0.97549
2649.40614	0.97542
2647.35234	0.97553
2645.29853	0.97556
2643.24473	0.97555
2641.19093	0.97577
2639.13712	0.97596
2637.08332	0.97582
2635.02952	0.97558
2632.97571	0.97560
2630.92191	0.97595
2628.86811	0.97630
2626.81430	0.97628
2624.76050	0.97607
2622.70670	0.97582
2620.65289	0.97557
2618.59909	0.97549
2616.54529	0.97558
2614.49149	0.97577
2612.43768	0.97588
2610.38388	0.97583
2608.33008	0.97616
2606.27627	0.97691
2604.22247	0.97701
2602.16867	0.97636
2600.11486	0.97631
2598.06106	0.97664
2596.00726	0.97662
2593.95345	0.97676
2591.89965	0.97688
2589.84585	0.97676
2587.79204	0.97675
2585.73824	0.97661
2583.68444	0.97620
2581.63063	0.97624
2579.57683	0.97695
2577.52303	0.97724
2575.46922	0.97679
2573.41542	0.97652
2571.36162	0.97658
2569.30781	0.97651
2567.25401	0.97647
2565.20021	0.97661
2563.14640	0.97636
2561.09260	0.97567
2559.03880	0.97562
2556.98500	0.97637
2554.93119	0.97710
2552.87739	0.97746
2550.82359	0.97721
2548.76978	0.97678
2546.71598	0.97691
2544.66218	0.97720
2542.60837	0.97730
2540.55457	0.97769
2538.50077	0.97826
2536.44696	0.97824
2534.39316	0.97761
2532.33936	0.97723
2530.28555	0.97738
2528.23175	0.97753
2526.17795	0.97748
2524.12414	0.97733
2522.07034	0.97698
2520.01654	0.97702
2517.96273	0.97795
2515.90893	0.97831
2513.85513	0.97766
2511.80132	0.97748
2509.74752	0.97778
2507.69372	0.97788
2505.63992	0.97793
2503.58611	0.97771
2501.53231	0.97681
2499.47851	0.97604
2497.42470	0.97687
2495.37090	0.97867
2493.31710	0.97938
2491.26329	0.97904
2489.20949	0.97867
2487.15569	0.97842
2485.10188	0.97825
2483.04808	0.97756
2480.99428	0.97648
2478.94047	0.97636
2476.88667	0.97700
2474.83287	0.97732
2472.77906	0.97732
2470.72526	0.97711
2468.67146	0.97668
2466.61765	0.97629
2464.56385	0.97637
2462.51005	0.97676
2460.45624	0.97696
2458.40244	0.97732
2456.34864	0.97818
2454.29483	0.97873
2452.24103	0.97823
2450.18723	0.97750
2448.13343	0.97738
2446.07962	0.97760
2444.02582	0.97798
2441.97202	0.97834
2439.91821	0.97839
2437.86441	0.97821
2435.81061	0.97805
2433.75680	0.97794
2431.70300	0.97775
2429.64920	0.97791
2427.59539	0.97833
2425.54159	0.97825
2423.48779	0.97811
2421.43398	0.97813
2419.38018	0.97794
2417.32638	0.97802
2415.27257	0.97833
2413.21877	0.97830
2411.16497	0.97826
2409.11116	0.97840
2407.05736	0.97852
2405.00356	0.97836
2402.94975	0.97799
2400.89595	0.97829
2398.84215	0.97890
2396.78834	0.97873
2394.73454	0.97804
2392.68074	0.97788
2390.62694	0.97848
2388.57313	0.97905
2386.51933	0.97917
2384.46553	0.97885
2382.41172	0.97820
2380.35792	0.97786
2378.30412	0.97797
2376.25031	0.97758
2374.19651	0.97686
2372.14271	0.97675
2370.08890	0.97716
2368.03510	0.97760
2365.98130	0.97756
2363.92749	0.97770
2361.87369	0.97878
2359.81989	0.97864
2357.76608	0.97661
2355.71228	0.97565
2353.65848	0.97635
2351.60467	0.97723
2349.55087	0.97773
2347.49707	0.97744
2345.44326	0.97629
2343.38946	0.97512
2341.33566	0.97489
2339.28186	0.97532
2337.22805	0.97525
2335.17425	0.97538
2333.12045	0.97664
2331.06664	0.97755
2329.01284	0.97711
2326.95904	0.97622
2324.90523	0.97582
2322.85143	0.97588
2320.79763	0.97542
2318.74382	0.97459
2316.69002	0.97446
2314.63622	0.97502
2312.58241	0.97601
2310.52861	0.97692
2308.47481	0.97682
2306.42100	0.97635
2304.36720	0.97683
2302.31340	0.97745
2300.25959	0.97716
2298.20579	0.97691
2296.15199	0.97720
2294.09818	0.97719
2292.04438	0.97645
2289.99058	0.97593
2287.93677	0.97643
2285.88297	0.97694
2283.82917	0.97695
2281.77537	0.97722
2279.72156	0.97749
2277.66776	0.97733
2275.61396	0.97700
2273.56015	0.97669
2271.50635	0.97611
2269.45255	0.97563
2267.39874	0.97661
2265.34494	0.97838
2263.29114	0.97894
2261.23733	0.97800
2259.18353	0.97673
2257.12973	0.97628
2255.07592	0.97705
2253.02212	0.97840
2250.96832	0.97830
2248.91451	0.97730
2246.86071	0.97844
2244.80691	0.98081
2242.75310	0.98144
2240.69930	0.97968
2238.64550	0.97752
2236.59169	0.97747
2234.53789	0.97879
2232.48409	0.97878
2230.43029	0.97724
2228.37648	0.97622
2226.32268	0.97612
2224.26888	0.97616
2222.21507	0.97653
2220.16127	0.97758
2218.10747	0.97906
2216.05366	0.97957
2213.99986	0.97814
2211.94606	0.97717
2209.89225	0.97804
2207.83845	0.97878
2205.78465	0.97839
2203.73084	0.97782
2201.67704	0.97783
2199.62324	0.97832
2197.56943	0.97953
2195.51563	0.97986
2193.46183	0.97868
2191.40802	0.97881
2189.35422	0.98055
2187.30042	0.98122
2185.24661	0.98059
2183.19281	0.98091
2181.13901	0.98109
2179.08520	0.97997
2177.03140	0.97930
2174.97760	0.97964
2172.92380	0.97944
2170.86999	0.97837
2168.81619	0.97876
2166.76239	0.97991
2164.70858	0.97972
2162.65478	0.98056
2160.60098	0.98371
2158.54717	0.98668
2156.49337	0.98824
2154.43957	0.98803
2152.38576	0.98641
2150.33196	0.98576
2148.27816	0.98587
2146.22435	0.98478
2144.17055	0.98441
2142.11675	0.98445
2140.06294	0.98251
2138.00914	0.98090
2135.95534	0.98107
2133.90153	0.98100
2131.84773	0.98030
2129.79393	0.98022
2127.74012	0.98060
2125.68632	0.98036
2123.63252	0.97947
2121.57871	0.97961
2119.52491	0.98079
2117.47111	0.98098
2115.41731	0.98034
2113.36350	0.98021
2111.30970	0.98026
2109.25590	0.97909
2107.20209	0.97735
2105.14829	0.97654
2103.09449	0.97706
2101.04068	0.97873
2098.98688	0.98008
2096.93308	0.98056
2094.87927	0.98062
2092.82547	0.97996
2090.77167	0.97874
2088.71786	0.97776
2086.66406	0.97766
2084.61026	0.97806
2082.55645	0.97839
2080.50265	0.97926
2078.44885	0.98042
2076.39504	0.98023
2074.34124	0.97892
2072.28744	0.97775
2070.23363	0.97772
2068.17983	0.97931
2066.12603	0.98098
2064.07223	0.98113
2062.01842	0.98046
2059.96462	0.98013
2057.91082	0.97964
2055.85701	0.97907
2053.80321	0.97954
2051.74941	0.98011
2049.69560	0.98003
2047.64180	0.97947
2045.58800	0.97762
2043.53419	0.97628
2041.48039	0.97925
2039.42659	0.98430
2037.37278	0.98375
2035.31898	0.97763
2033.26518	0.97351
2031.21137	0.97427
2029.15757	0.97604
2027.10377	0.97484
2025.04996	0.97349
2022.99616	0.97577
2020.94236	0.97967
2018.88855	0.98245
2016.83475	0.98190
2014.78095	0.97939
2012.72714	0.97907
2010.67334	0.97953
2008.61954	0.97893
2006.56574	0.97932
2004.51193	0.98104
2002.45813	0.98225
2000.40433	0.98137
1998.35052	0.97867
1996.29672	0.97717
1994.24292	0.97848
1992.18911	0.98048
1990.13531	0.98043
1988.08151	0.97912
1986.02770	0.97890
1983.97390	0.97915
1981.92010	0.97795
1979.86629	0.97649
1977.81249	0.97778
1975.75869	0.98023
1973.70488	0.98145
1971.65108	0.98258
1969.59728	0.98320
1967.54347	0.98235
1965.48967	0.98112
1963.43587	0.98064
1961.38206	0.98128
1959.32826	0.98349
1957.27446	0.98551
1955.22066	0.98461
1953.16685	0.98197
1951.11305	0.98145
1949.05925	0.98270
1947.00544	0.98248
1944.95164	0.98066
1942.89784	0.97954
1940.84403	0.98025
1938.79023	0.98114
1936.73643	0.98070
1934.68262	0.97973
1932.62882	0.97984
1930.57502	0.98061
1928.52121	0.98115
1926.46741	0.98114
1924.41361	0.98027
1922.35980	0.97983
1920.30600	0.98058
1918.25220	0.98101
1916.19839	0.98071
1914.14459	0.98049
1912.09079	0.98035
1910.03698	0.98072
1907.98318	0.98152
1905.92938	0.98166
1903.87557	0.98118
1901.82177	0.98056
1899.76797	0.97981
1897.71417	0.97915
1895.66036	0.97870
1893.60656	0.97858
1891.55276	0.97936
1889.49895	0.98012
1887.44515	0.97969
1885.39135	0.97932
1883.33754	0.97951
1881.28374	0.97942
1879.22994	0.97883
1877.17613	0.97831
1875.12233	0.97821
1873.06853	0.97810
1871.01472	0.97820
1868.96092	0.97868
1866.90712	0.97883
1864.85331	0.97894
1862.79951	0.97925
1860.74571	0.97944
1858.69190	0.97932
1856.63810	0.97921
1854.58430	0.97943
1852.53049	0.97946
1850.47669	0.97919
1848.42289	0.97902
1846.36908	0.97894
1844.31528	0.97899
1842.26148	0.97939
1840.20768	0.97985
1838.15387	0.97993
1836.10007	0.97971
1834.04627	0.97947
1831.99246	0.97889
1829.93866	0.97831
1827.88486	0.97886
1825.83105	0.97967
1823.77725	0.97960
1821.72345	0.97926
1819.66964	0.97925
1817.61584	0.97941
1815.56204	0.97957
1813.50823	0.97965
1811.45443	0.97947
1809.40063	0.97895
1807.34682	0.97839
1805.29302	0.97823
1803.23922	0.97830
1801.18541	0.97815
1799.13161	0.97825
1797.07781	0.97867
1795.02400	0.97859
1792.97020	0.97814
1790.91640	0.97823
1788.86260	0.97870
1786.80879	0.97887
1784.75499	0.97866
1782.70119	0.97840
1780.64738	0.97842
1778.59358	0.97859
1776.53978	0.97863
1774.48597	0.97865
1772.43217	0.97851
1770.37837	0.97843
1768.32456	0.97894
1766.27076	0.97933
1764.21696	0.97908
1762.16315	0.97895
1760.10935	0.97931
1758.05555	0.97930
1756.00174	0.97888
1753.94794	0.97892
1751.89414	0.97936
1749.84033	0.97946
1747.78653	0.97936
1745.73273	0.97946
1743.67892	0.97965
1741.62512	0.97966
1739.57132	0.97938
1737.51751	0.97901
1735.46371	0.97860
1733.40991	0.97817
1731.35611	0.97795
1729.30230	0.97798
1727.24850	0.97818
1725.19470	0.97846
1723.14089	0.97854
1721.08709	0.97833
1719.03329	0.97818
1716.97948	0.97847
1714.92568	0.97913
1712.87188	0.97972
1710.81807	0.97988
1708.76427	0.97952
1706.71047	0.97873
1704.65666	0.97820
1702.60286	0.97826
1700.54906	0.97804
1698.49525	0.97733
1696.44145	0.97680
1694.38765	0.97628
1692.33384	0.97564
1690.28004	0.97503
1688.22624	0.97474
1686.17243	0.97459
1684.11863	0.97383
1682.06483	0.97300
1680.01103	0.97298
1677.95722	0.97312
1675.90342	0.97280
1673.84962	0.97229
1671.79581	0.97204
1669.74201	0.97163
1667.68821	0.97111
1665.63440	0.97085
1663.58060	0.97080
1661.52680	0.97086
1659.47299	0.97093
1657.41919	0.97098
1655.36539	0.97102
1653.31158	0.97105
1651.25778	0.97088
1649.20398	0.97076
1647.15017	0.97073
1645.09637	0.97027
1643.04257	0.96968
1640.98876	0.96966
1638.93496	0.97011
1636.88116	0.97050
1634.82735	0.97034
1632.77355	0.96987
1630.71975	0.96959
1628.66594	0.96916
1626.61214	0.96867
1624.55834	0.96862
1622.50454	0.96866
1620.45073	0.96878
1618.39693	0.96919
1616.34313	0.96950
1614.28932	0.96966
1612.23552	0.96978
1610.18172	0.96976
1608.12791	0.96963
1606.07411	0.96910
1604.02031	0.96795
1601.96650	0.96674
1599.91270	0.96650
1597.85890	0.96756
1595.80509	0.96911
1593.75129	0.97033
1591.69749	0.97134
1589.64368	0.97213
1587.58988	0.97225
1585.53608	0.97165
1583.48227	0.97115
1581.42847	0.97142
1579.37467	0.97214
1577.32086	0.97280
1575.26706	0.97330
1573.21326	0.97378
1571.15945	0.97439
1569.10565	0.97496
1567.05185	0.97495
1564.99805	0.97464
1562.94424	0.97449
1560.89044	0.97464
1558.83664	0.97493
1556.78283	0.97501
1554.72903	0.97530
1552.67523	0.97566
1550.62142	0.97574
1548.56762	0.97549
1546.51382	0.97508
1544.46001	0.97458
1542.40621	0.97405
1540.35241	0.97392
1538.29860	0.97456
1536.24480	0.97523
1534.19100	0.97572
1532.13719	0.97595
1530.08339	0.97590
1528.02959	0.97580
1525.97578	0.97560
1523.92198	0.97539
1521.86818	0.97545
1519.81437	0.97562
1517.76057	0.97570
1515.70677	0.97615
1513.65297	0.97683
1511.59916	0.97725
1509.54536	0.97733
1507.49156	0.97726
1505.43775	0.97710
1503.38395	0.97677
1501.33015	0.97634
1499.27634	0.97522
1497.22254	0.97174
1495.16874	0.96608
1493.11493	0.96225
1491.06113	0.96273
1489.00733	0.96701
1486.95352	0.97060
1484.89972	0.97227
1482.84592	0.97330
1480.79211	0.97423
1478.73831	0.97491
1476.68451	0.97504
1474.63070	0.97493
1472.57690	0.97517
1470.52310	0.97582
1468.46929	0.97622
1466.41549	0.97605
1464.36169	0.97556
1462.30788	0.97530
1460.25408	0.97513
1458.20028	0.97368
1456.14648	0.96866
1454.09267	0.96358
1452.03887	0.96131
1449.98507	0.96171
1447.93126	0.96355
1445.87746	0.96514
1443.82366	0.96639
1441.76985	0.96794
1439.71605	0.96942
1437.66225	0.97041
1435.60844	0.97116
1433.55464	0.97181
1431.50084	0.97228
1429.44703	0.97266
1427.39323	0.97282
1425.33943	0.97284
1423.28562	0.97313
1421.23182	0.97373
1419.17802	0.97405
1417.12421	0.97384
1415.07041	0.97384
1413.01661	0.97429
1410.96280	0.97477
1408.90900	0.97492
1406.85520	0.97487
1404.80139	0.97487
1402.74759	0.97500
1400.69379	0.97527
1398.63999	0.97537
1396.58618	0.97531
1394.53238	0.97536
1392.47858	0.97556
1390.42477	0.97567
1388.37097	0.97564
1386.31717	0.97549
1384.26336	0.97518
1382.20956	0.97476
1380.15576	0.97436
1378.10195	0.97411
1376.04815	0.97389
1373.99435	0.97392
1371.94054	0.97450
1369.88674	0.97508
1367.83294	0.97509
1365.77913	0.97473
1363.72533	0.97450
1361.67153	0.97449
1359.61772	0.97463
1357.56392	0.97488
1355.51012	0.97517
1353.45631	0.97545
1351.40251	0.97549
1349.34871	0.97549
1347.29491	0.97591
1345.24110	0.97626
1343.18730	0.97622
1341.13350	0.97628
1339.07969	0.97640
1337.02589	0.97619
1334.97209	0.97602
1332.91828	0.97609
1330.86448	0.97625
1328.81068	0.97613
1326.75687	0.97562
1324.70307	0.97520
1322.64927	0.97518
1320.59546	0.97522
1318.54166	0.97518
1316.48786	0.97550
1314.43405	0.97603
1312.38025	0.97621
1310.32645	0.97598
1308.27264	0.97568
1306.21884	0.97566
1304.16504	0.97576
1302.11123	0.97574
1300.05743	0.97561
1298.00363	0.97557
1295.94982	0.97570
1293.89602	0.97584
1291.84222	0.97605
1289.78842	0.97638
1287.73461	0.97639
1285.68081	0.97598
1283.62701	0.97547
1281.57320	0.97493
1279.51940	0.97464
1277.46560	0.97469
1275.41179	0.97474
1273.35799	0.97466
1271.30419	0.97459
1269.25038	0.97464
1267.19658	0.97466
1265.14278	0.97447
1263.08897	0.97425
1261.03517	0.97424
1258.98137	0.97421
1256.92756	0.97401
1254.87376	0.97378
1252.81996	0.97335
1250.76615	0.97277
1248.71235	0.97246
1246.65855	0.97230
1244.60474	0.97206
1242.55094	0.97195
1240.49714	0.97183
1238.44334	0.97151
1236.38953	0.97093
1234.33573	0.97019
1232.28193	0.96971
1230.22812	0.96934
1228.17432	0.96862
1226.12052	0.96766
1224.06671	0.96665
1222.01291	0.96551
1219.95911	0.96434
1217.90530	0.96316
1215.85150	0.96172
1213.79770	0.95987
1211.74389	0.95816
1209.69009	0.95689
1207.63629	0.95538
1205.58248	0.95327
1203.52868	0.95117
1201.47488	0.94959
1199.42107	0.94801
1197.36727	0.94581
1195.31347	0.94312
1193.25966	0.94068
1191.20586	0.93871
1189.15206	0.93680
1187.09825	0.93473
1185.04445	0.93226
1182.99065	0.92957
1180.93685	0.92715
1178.88304	0.92468
1176.82924	0.92191
1174.77544	0.91929
1172.72163	0.91668
1170.66783	0.91364
1168.61403	0.91061
1166.56022	0.90781
1164.50642	0.90508
1162.45262	0.90310
1160.39881	0.90226
1158.34501	0.90168
1156.29121	0.90065
1154.23740	0.89918
1152.18360	0.89762
1150.12980	0.89598
1148.07599	0.89407
1146.02219	0.89204
1143.96839	0.89017
1141.91458	0.88825
1139.86078	0.88630
1137.80698	0.88470
1135.75317	0.88328
1133.69937	0.88137
1131.64557	0.87906
1129.59176	0.87689
1127.53796	0.87480
1125.48416	0.87244
1123.43036	0.86964
1121.37655	0.86649
1119.32275	0.86336
1117.26895	0.86035
1115.21514	0.85700
1113.16134	0.85350
1111.10754	0.85048
1109.05373	0.84770
1106.99993	0.84495
1104.94613	0.84241
1102.89232	0.84001
1100.83852	0.83766
1098.78472	0.83530
1096.73091	0.83307
1094.67711	0.83116
1092.62331	0.82922
1090.56950	0.82727
1088.51570	0.82565
1086.46190	0.82400
1084.40809	0.82217
1082.35429	0.82035
1080.30049	0.81874
1078.24668	0.81769
1076.19288	0.81708
1074.13908	0.81643
1072.08528	0.81544
1070.03147	0.81406
1067.97767	0.81233
1065.92387	0.81053
1063.87006	0.80873
1061.81626	0.80676
1059.76246	0.80485
1057.70865	0.80308
1055.65485	0.80099
1053.60105	0.79875
1051.54724	0.79631
1049.49344	0.79323
1047.43964	0.78979
1045.38583	0.78614
1043.33203	0.78207
1041.27823	0.77762
1039.22442	0.77312
1037.17062	0.76874
1035.11682	0.76457
1033.06301	0.76055
1031.00921	0.75656
1028.95541	0.75311
1026.90160	0.75088
1024.84780	0.74984
1022.79400	0.74916
1020.74019	0.74834
1018.68639	0.74745
1016.63259	0.74647
1014.57879	0.74536
1012.52498	0.74409
1010.47118	0.74259
1008.41738	0.74105
1006.36357	0.73985
1004.30977	0.73922
1002.25597	0.73914
1000.20216	0.73959
998.14836	0.74043
996.09456	0.74128
994.04075	0.74197
991.98695	0.74277
989.93315	0.74403
987.87934	0.74603
985.82554	0.74860
983.77174	0.75106
981.71793	0.75346
979.66413	0.75610
977.61033	0.75900
975.55652	0.76255
973.50272	0.76677
971.44892	0.77108
969.39511	0.77532
967.34131	0.77950
965.28751	0.78375
963.23371	0.78829
961.17990	0.79287
959.12610	0.79722
957.07230	0.80115
955.01849	0.80468
952.96469	0.80801
950.91089	0.81105
948.85708	0.81395
946.80328	0.81693
944.74948	0.81985
942.69567	0.82246
940.64187	0.82461
938.58807	0.82634
936.53426	0.82805
934.48046	0.83023
932.42666	0.83233
930.37285	0.83394
928.31905	0.83591
926.26525	0.83786
924.21144	0.83894
922.15764	0.83969
920.10384	0.84034
918.05003	0.84064
915.99623	0.84100
913.94243	0.84174
911.88862	0.84241
909.83482	0.84302
907.78102	0.84428
905.72722	0.84656
903.67341	0.84984
901.61961	0.85361
899.56581	0.85737
897.51200	0.86145
895.45820	0.86586
893.40440	0.86954
891.35059	0.87206
889.29679	0.87420
887.24299	0.87651
885.18918	0.87889
883.13538	0.88128
881.08158	0.88372
879.02777	0.88589
876.97397	0.88793
874.92017	0.89010
872.86636	0.89233
870.81256	0.89489
868.75876	0.89768
866.70495	0.90023
864.65115	0.90240
862.59735	0.90424
860.54354	0.90640
858.48974	0.90884
856.43594	0.91083
854.38213	0.91280
852.32833	0.91491
850.27453	0.91664
848.22073	0.91793
846.16692	0.91874
844.11312	0.91907
842.05932	0.91943
840.00551	0.91975
837.95171	0.91975
835.89791	0.91984
833.84410	0.91965
831.79030	0.91908
829.73650	0.91890
827.68269	0.91896
825.62889	0.91883
823.57509	0.91885
821.52128	0.91941
819.46748	0.92015
817.41368	0.92025
815.35987	0.91994
813.30607	0.91922
811.25227	0.91648
809.19846	0.91163
807.14466	0.90582
805.09086	0.89923
803.03705	0.89196
800.98325	0.88501
798.92945	0.88025
796.87565	0.87838
794.82184	0.87814
792.76804	0.87888
790.71424	0.88045
788.66043	0.88141
786.60663	0.88086
784.55283	0.87882
782.49902	0.87562
780.44522	0.87251
778.39142	0.87026
776.33761	0.86924
774.28381	0.86981
772.23001	0.87077
770.17620	0.87101
768.12240	0.87041
766.06860	0.86839
764.01479	0.86542
761.96099	0.86303
759.90719	0.86163
757.85338	0.86135
755.79958	0.86214
753.74578	0.86313
751.69197	0.86417
749.63817	0.86512
747.58437	0.86569
745.53056	0.86700
743.47676	0.87019
741.42296	0.87463
739.36916	0.87941
737.31535	0.88376
735.26155	0.88755
733.20775	0.89122
731.15394	0.89399
729.10014	0.89510
727.04634	0.89531
724.99253	0.89617
722.93873	0.89832
720.88493	0.90085
718.83112	0.90270
716.77732	0.90399
714.72352	0.90504
712.66971	0.90504
710.61591	0.90342
708.56211	0.89964
706.50830	0.89198
704.45450	0.87942
702.40070	0.86273
700.34689	0.84342
698.29309	0.82491
696.23929	0.81544
694.18548	0.82152
692.13168	0.83813
690.07788	0.85510
688.02408	0.86740
685.97027	0.87529
683.91647	0.88050
681.86267	0.88425
679.80886	0.88692
677.75506	0.88881
675.70126	0.88992
673.64745	0.88968
671.59365	0.88907
669.53985	0.88977
667.48604	0.89130
665.43224	0.89177
663.37844	0.89230
661.32463	0.89380
659.27083	0.89504
657.21703	0.89457
655.16322	0.89244
653.10942	0.88958
651.05562	0.88716
649.00181	0.88567
646.94801	0.88503
644.89421	0.88602
642.84040	0.88842
640.78660	0.89026
638.73280	0.89128
636.67899	0.89202
634.62519	0.89206
632.57139	0.89201
630.51759	0.89251
628.46378	0.89325
626.40998	0.89382
624.35618	0.89352
622.30237	0.89258
620.24857	0.89192
618.19477	0.89143
616.14096	0.89021
614.08716	0.88849
612.03336	0.88686
609.97955	0.88435
607.92575	0.88138
605.87195	0.87912
603.81814	0.87630
601.76434	0.87354
599.71054	0.87262
597.65673	0.87178
595.60293	0.87023
593.54913	0.86868
591.49532	0.86656
589.44152	0.86448
587.38772	0.86327
585.33391	0.86295
583.28011	0.86314
581.22631	0.86231
579.17250	0.86004
577.11870	0.85823
575.06490	0.85819
573.01110	0.85876
570.95729	0.85894
568.90349	0.85811
566.84969	0.85527
564.79588	0.85183
562.74208	0.84974
560.68828	0.84846
558.63447	0.84589
556.58067	0.84173
554.52687	0.83834
552.47306	0.83575
550.41926	0.83201
548.36546	0.82693
546.31165	0.82025
544.25785	0.81161
542.20405	0.80312
540.15024	0.79619
538.09644	0.78953
536.04264	0.78358
533.98883	0.77934
531.93503	0.77582
529.88123	0.77319
527.82742	0.77203
525.77362	0.77133
523.71982	0.77132
521.66602	0.77378
519.61221	0.77795
517.55841	0.78093
515.50461	0.78133
513.45080	0.78094
511.39700	0.78274
509.34320	0.78668
507.28939	0.78995
505.23559	0.79202
503.18179	0.79440
501.12798	0.79627
499.07418	0.79526
497.02038	0.79149
494.96657	0.78646
492.91277	0.78069
490.85897	0.77452
488.80516	0.76943
486.75136	0.76408
484.69756	0.75521
482.64375	0.74382
480.58995	0.73285
478.53615	0.72318
476.48234	0.71413
474.42854	0.70436
472.37474	0.69452
470.32093	0.68883
468.26713	0.68722
466.21333	0.68524
464.15953	0.68197
462.10572	0.67829
460.05192	0.67752
457.99812	0.68325
455.94431	0.69034
453.89051	0.69279
451.83671	0.69467
449.78290	0.70087
447.72910	0.70796
445.67530	0.70948
443.62149	0.70598
441.56769	0.70513
439.51389	0.70896
437.46008	0.71081
435.40628	0.70895
433.35248	0.70765
431.29867	0.70737
429.24487	0.70577
427.19107	0.70522
425.13726	0.71007
423.08346	0.71639
421.02966	0.71808
418.97585	0.71898
416.92205	0.72238
414.86825	0.72617
412.81445	0.73053
410.76064	0.73359
408.70684	0.73677
406.65304	0.74207
404.59923	0.74366
402.54543	0.73755
400.49163	0.72686
398.43782	0.71592
