3996.70104	0.97205
3994.64724	0.97188
3992.59344	0.97202
3990.53964	0.97182
3988.48583	0.97167
3986.43203	0.97173
3984.37823	0.97146
3982.32442	0.97076
3980.27062	0.96990
3978.21682	0.96996
3976.16301	0.97113
3974.10921	0.97188
3972.05541	0.97199
3970.00160	0.97256
3967.94780	0.97325
3965.89400	0.97292
3963.84019	0.97175
3961.78639	0.97121
3959.73259	0.97176
3957.67878	0.97215
3955.62498	0.97162
3953.57118	0.97084
3951.51737	0.97053
3949.46357	0.97074
3947.40977	0.97124
3945.35596	0.97160
3943.30216	0.97200
3941.24836	0.97259
3939.19455	0.97290
3937.14075	0.97291
3935.08695	0.97275
3933.03315	0.97248
3930.97934	0.97200
3928.92554	0.97209
3926.87174	0.97320
3924.81793	0.97378
3922.76413	0.97313
3920.71033	0.97275
3918.65652	0.97279
3916.60272	0.97232
3914.54892	0.97185
3912.49511	0.97209
3910.44131	0.97257
3908.38751	0.97287
3906.33370	0.97281
3904.27990	0.97242
3902.22610	0.97282
3900.17229	0.97336
3898.11849	0.97268
3896.06469	0.97221
3894.01088	0.97274
3891.95708	0.97303
3889.90328	0.97227
3887.84947	0.97178
3885.79567	0.97214
3883.74187	0.97250
3881.68807	0.97212
3879.63426	0.97201
3877.58046	0.97301
3875.52666	0.97424
3873.47285	0.97474
3871.41905	0.97424
3869.36525	0.97347
3867.31144	0.97239
3865.25764	0.97103
3863.20384	0.97107
3861.15003	0.97241
3859.09623	0.97341
3857.04243	0.97430
3854.98862	0.97533
3852.93482	0.97509
3850.88102	0.97390
3848.82721	0.97363
3846.77341	0.97391
3844.71961	0.97430
3842.66580	0.97429
3840.61200	0.97374
3838.55820	0.97350
3836.50439	0.97341
3834.45059	0.97269
3832.39679	0.97247
3830.34298	0.97326
3828.28918	0.97350
3826.23538	0.97281
3824.18158	0.97261
3822.12777	0.97332
3820.07397	0.97394
3818.02017	0.97356
3815.96636	0.97288
3813.91256	0.97313
3811.85876	0.97369
3809.80495	0.97360
3807.75115	0.97325
3805.69735	0.97330
3803.64354	0.97345
3801.58974	0.97356
3799.53594	0.97379
3797.48213	0.97370
3795.42833	0.97347
3793.37453	0.97370
3791.32072	0.97405
3789.26692	0.97414
3787.21312	0.97393
3785.15931	0.97361
3783.10551	0.97360
3781.05171	0.97399
3778.99790	0.97479
3776.94410	0.97545
3774.89030	0.97520
3772.83650	0.97471
3770.78269	0.97463
3768.72889	0.97455
3766.67509	0.97419
3764.62128	0.97371
3762.56748	0.97336
3760.51368	0.97357
3758.45987	0.97423
3756.40607	0.97468
3754.35227	0.97489
3752.29846	0.97498
3750.24466	0.97485
3748.19086	0.97463
3746.13705	0.97460
3744.08325	0.97458
3742.02945	0.97443
3739.97564	0.97443
3737.92184	0.97407
3735.86804	0.97317
3733.81423	0.97296
3731.76043	0.97323
3729.70663	0.97311
3727.65282	0.97279
3725.59902	0.97276
3723.54522	0.97307
3721.49141	0.97264
3719.43761	0.97050
3717.38381	0.96787
3715.33001	0.96591
3713.27620	0.96418
3711.22240	0.96159
3709.16860	0.95791
3707.11479	0.95451
3705.06099	0.95133
3703.00719	0.94748
3700.95338	0.94282
3698.89958	0.93884
3696.84578	0.93696
3694.79197	0.93766
3692.73817	0.94006
3690.68437	0.94223
3688.63056	0.94363
3686.57676	0.94522
3684.52296	0.94680
3682.46915	0.94812
3680.41535	0.94902
3678.36155	0.94978
3676.30774	0.95063
3674.25394	0.95030
3672.20014	0.94887
3670.14633	0.94699
3668.09253	0.94520
3666.03873	0.94441
3663.98492	0.94390
3661.93112	0.94297
3659.87732	0.94203
3657.82352	0.94139
3655.76971	0.94029
3653.71591	0.93878
3651.66211	0.93775
3649.60830	0.93758
3647.55450	0.93673
3645.50070	0.93571
3643.44689	0.93553
3641.39309	0.93510
3639.33929	0.93427
3637.28548	0.93331
3635.23168	0.93172
3633.17788	0.92987
3631.12407	0.92889
3629.07027	0.92725
3627.01647	0.92438
3624.96266	0.92261
3622.90886	0.92107
3620.85506	0.91964
3618.80125	0.91944
3616.74745	0.91997
3614.69365	0.92093
3612.63984	0.92284
3610.58604	0.92449
3608.53224	0.92501
3606.47844	0.92492
3604.42463	0.92503
3602.37083	0.92533
3600.31703	0.92584
3598.26322	0.92627
3596.20942	0.92570
3594.15562	0.92459
3592.10181	0.92401
3590.04801	0.92378
3587.99421	0.92377
3585.94040	0.92379
3583.88660	0.92358
3581.83280	0.92336
3579.77899	0.92275
3577.72519	0.92175
3575.67139	0.92103
3573.61758	0.92080
3571.56378	0.92102
3569.50998	0.92114
3567.45617	0.92076
3565.40237	0.92021
3563.34857	0.91951
3561.29476	0.91865
3559.24096	0.91771
3557.18716	0.91660
3555.13335	0.91557
3553.07955	0.91525
3551.02575	0.91524
3548.97195	0.91463
3546.91814	0.91435
3544.86434	0.91465
3542.81054	0.91333
3540.75673	0.91128
3538.70293	0.91111
3536.64913	0.91215
3534.59532	0.91256
3532.54152	0.91211
3530.48772	0.91124
3528.43391	0.91102
3526.38011	0.91140
3524.32631	0.91129
3522.27250	0.91098
3520.21870	0.91106
3518.16490	0.91078
3516.11109	0.91040
3514.05729	0.91082
3512.00349	0.91140
3509.94968	0.91180
3507.89588	0.91219
3505.84208	0.91219
3503.78827	0.91167
3501.73447	0.91117
3499.68067	0.91098
3497.62687	0.91080
3495.57306	0.91023
3493.51926	0.90952
3491.46546	0.90947
3489.41165	0.90958
3487.35785	0.90920
3485.30405	0.90871
3483.25024	0.90863
3481.19644	0.90838
3479.14264	0.90740
3477.08883	0.90664
3475.03503	0.90647
3472.98123	0.90620
3470.92742	0.90574
3468.87362	0.90539
3466.81982	0.90485
3464.76601	0.90389
3462.71221	0.90305
3460.65841	0.90274
3458.60460	0.90272
3456.55080	0.90255
3454.49700	0.90212
3452.44319	0.90147
3450.38939	0.90082
3448.33559	0.90054
3446.28178	0.90057
3444.22798	0.90083
3442.17418	0.90098
3440.12038	0.90021
3438.06657	0.89866
3436.01277	0.89756
3433.95897	0.89733
3431.90516	0.89720
3429.85136	0.89651
3427.79756	0.89562
3425.74375	0.89534
3423.68995	0.89555
3421.63615	0.89552
3419.58234	0.89474
3417.52854	0.89350
3415.47474	0.89240
3413.42093	0.89148
3411.36713	0.89098
3409.31333	0.89118
3407.25952	0.89146
3405.20572	0.89094
3403.15192	0.88997
3401.09811	0.88930
3399.04431	0.88897
3396.99051	0.88912
3394.93670	0.88948
3392.88290	0.88921
3390.82910	0.88876
3388.77529	0.88900
3386.72149	0.88949
3384.66769	0.88982
3382.61389	0.89020
3380.56008	0.89057
3378.50628	0.89065
3376.45248	0.89083
3374.39867	0.89132
3372.34487	0.89168
3370.29107	0.89214
3368.23726	0.89265
3366.18346	0.89273
3364.12966	0.89297
3362.07585	0.89389
3360.02205	0.89509
3357.96825	0.89576
3355.91444	0.89541
3353.86064	0.89496
3351.80684	0.89481
3349.75303	0.89473
3347.69923	0.89503
3345.64543	0.89538
3343.59162	0.89532
3341.53782	0.89540
3339.48402	0.89645
3337.43021	0.89763
3335.37641	0.89739
3333.32261	0.89642
3331.26881	0.89629
3329.21500	0.89683
3327.16120	0.89717
3325.10740	0.89720
3323.05359	0.89727
3320.99979	0.89792
3318.94599	0.89872
3316.89218	0.89921
3314.83838	0.89963
3312.78458	0.89956
3310.73077	0.89926
3308.67697	0.89947
3306.62317	0.89965
3304.56936	0.89948
3302.51556	0.89973
3300.46176	0.90053
3298.40795	0.90093
3296.35415	0.90058
3294.30035	0.90012
3292.24654	0.90022
3290.19274	0.90092
3288.13894	0.90158
3286.08513	0.90158
3284.03133	0.90104
3281.97753	0.90105
3279.92372	0.90229
3277.86992	0.90360
3275.81612	0.90394
3273.76232	0.90364
3271.70851	0.90386
3269.65471	0.90481
3267.60091	0.90503
3265.54710	0.90441
3263.49330	0.90467
3261.43950	0.90581
3259.38569	0.90629
3257.33189	0.90612
3255.27809	0.90613
3253.22428	0.90649
3251.17048	0.90695
3249.11668	0.90708
3247.06287	0.90690
3245.00907	0.90748
3242.95527	0.90858
3240.90146	0.90889
3238.84766	0.90867
3236.79386	0.90872
3234.74005	0.90939
3232.68625	0.91022
3230.63245	0.91046
3228.57864	0.91058
3226.52484	0.91086
3224.47104	0.91068
3222.41724	0.91049
3220.36343	0.91156
3218.30963	0.91334
3216.25583	0.91435
3214.20202	0.91472
3212.14822	0.91485
3210.09442	0.91502
3208.04061	0.91605
3205.98681	0.91726
3203.93301	0.91724
3201.87920	0.91672
3199.82540	0.91701
3197.77160	0.91784
3195.71779	0.91857
3193.66399	0.91938
3191.61019	0.92004
3189.55638	0.92024
3187.50258	0.92053
3185.44878	0.92144
3183.39497	0.92249
3181.34117	0.92262
3179.28737	0.92225
3177.23356	0.92257
3175.17976	0.92323
3173.12596	0.92343
3171.07215	0.92359
3169.01835	0.92431
3166.96455	0.92540
3164.91075	0.92622
3162.85694	0.92643
3160.80314	0.92680
3158.74934	0.92787
3156.69553	0.92854
3154.64173	0.92815
3152.58793	0.92799
3150.53412	0.92892
3148.48032	0.93020
3146.42652	0.93088
3144.37271	0.93089
3142.31891	0.93102
3140.26511	0.93191
3138.21130	0.93318
3136.15750	0.93389
3134.10370	0.93400
3132.04989	0.93430
3129.99609	0.93479
3127.94229	0.93490
3125.88848	0.93459
3123.83468	0.93433
3121.78088	0.93447
3119.72707	0.93504
3117.67327	0.93582
3115.61947	0.93650
3113.56566	0.93705
3111.51186	0.93740
3109.45806	0.93767
3107.40426	0.93801
3105.35045	0.93806
3103.29665	0.93788
3101.24285	0.93810
3099.18904	0.93868
3097.13524	0.93918
3095.08144	0.93944
3093.02763	0.93960
3090.97383	0.93984
3088.92003	0.94019
3086.86622	0.94058
3084.81242	0.94119
3082.75862	0.94207
3080.70481	0.94281
3078.65101	0.94309
3076.59721	0.94306
3074.54340	0.94272
3072.48960	0.94220
3070.43580	0.94203
3068.38199	0.94237
3066.32819	0.94320
3064.27439	0.94413
3062.22058	0.94442
3060.16678	0.94442
3058.11298	0.94487
3056.05918	0.94539
3054.00537	0.94545
3051.95157	0.94569
3049.89777	0.94663
3047.84396	0.94745
3045.79016	0.94742
3043.73636	0.94704
3041.68255	0.94710
3039.62875	0.94770
3037.57495	0.94840
3035.52114	0.94893
3033.46734	0.94885
3031.41354	0.94844
3029.35973	0.94863
3027.30593	0.94918
3025.25213	0.94950
3023.19832	0.94968
3021.14452	0.95005
3019.09072	0.95063
3017.03691	0.95100
3014.98311	0.95092
3012.92931	0.95055
3010.87550	0.95031
3008.82170	0.95073
3006.76790	0.95156
3004.71409	0.95198
3002.66029	0.95228
3000.60649	0.95273
2998.55269	0.95289
2996.49888	0.95279
2994.44508	0.95248
2992.39128	0.95207
2990.33747	0.95194
2988.28367	0.95201
2986.22987	0.95174
2984.17606	0.95108
2982.12226	0.95048
2980.06846	0.95020
2978.01465	0.95014
2975.96085	0.94998
2973.90705	0.94931
2971.85324	0.94807
2969.79944	0.94681
2967.74564	0.94579
2965.69183	0.94483
2963.63803	0.94400
2961.58423	0.94312
2959.53042	0.94162
2957.47662	0.94006
2955.42282	0.93925
2953.36901	0.93882
2951.31521	0.93824
2949.26141	0.93746
2947.20761	0.93636
2945.15380	0.93457
2943.10000	0.93161
2941.04620	0.92698
2938.99239	0.92115
2936.93859	0.91457
2934.88479	0.90685
2932.83098	0.89770
2930.77718	0.88634
2928.72338	0.87237
2926.66957	0.85655
2924.61577	0.83841
2922.56197	0.81648
2920.50816	0.79199
2918.45436	0.76901
2916.40056	0.75251
2914.34675	0.74778
2912.29295	0.75664
2910.23915	0.77391
2908.18534	0.79223
2906.13154	0.80844
2904.07774	0.82215
2902.02393	0.83287
2899.97013	0.84084
2897.91633	0.84758
2895.86252	0.85405
2893.80872	0.86016
2891.75492	0.86612
2889.70112	0.87233
2887.64731	0.87875
2885.59351	0.88496
2883.53971	0.89098
2881.48590	0.89705
2879.43210	0.90326
2877.37830	0.90937
2875.32449	0.91483
2873.27069	0.91940
2871.21689	0.92265
2869.16308	0.92434
2867.10928	0.92457
2865.05548	0.92311
2863.00167	0.91997
2860.94787	0.91429
2858.89407	0.90443
2856.84026	0.88945
2854.78646	0.86778
2852.73266	0.83816
2850.67885	0.80534
2848.62505	0.78116
2846.57125	0.77637
2844.51744	0.79085
2842.46364	0.81503
2840.40984	0.83973
2838.35603	0.86107
2836.30223	0.87845
2834.24843	0.89213
2832.19463	0.90263
2830.14082	0.91086
2828.08702	0.91720
2826.03322	0.92173
2823.97941	0.92549
2821.92561	0.92920
2819.87181	0.93229
2817.81800	0.93445
2815.76420	0.93651
2813.71040	0.93865
2811.65659	0.94014
2809.60279	0.94144
2807.54899	0.94321
2805.49518	0.94479
2803.44138	0.94578
2801.38758	0.94653
2799.33377	0.94724
2797.27997	0.94777
2795.22617	0.94809
2793.17236	0.94876
2791.11856	0.94999
2789.06476	0.95110
2787.01095	0.95177
2784.95715	0.95231
2782.90335	0.95276
2780.84955	0.95322
2778.79574	0.95394
2776.74194	0.95469
2774.68814	0.95524
2772.63433	0.95573
2770.58053	0.95623
2768.52673	0.95663
2766.47292	0.95680
2764.41912	0.95686
2762.36532	0.95702
2760.31151	0.95750
2758.25771	0.95817
2756.20391	0.95870
2754.15010	0.95883
2752.09630	0.95843
2750.04250	0.95813
2747.98869	0.95850
2745.93489	0.95891
2743.88109	0.95905
2741.82728	0.95915
2739.77348	0.95892
2737.71968	0.95859
2735.66587	0.95881
2733.61207	0.95949
2731.55827	0.96003
2729.50446	0.96050
2727.45066	0.96079
2725.39686	0.96044
2723.34306	0.96016
2721.28925	0.96056
2719.23545	0.96110
2717.18165	0.96138
2715.12784	0.96167
2713.07404	0.96192
2711.02024	0.96187
2708.96643	0.96172
2706.91263	0.96189
2704.85883	0.96224
2702.80502	0.96244
2700.75122	0.96262
2698.69742	0.96279
2696.64361	0.96271
2694.58981	0.96253
2692.53601	0.96258
2690.48220	0.96254
2688.42840	0.96233
2686.37460	0.96248
2684.32079	0.96297
2682.26699	0.96327
2680.21319	0.96324
2678.15938	0.96310
2676.10558	0.96311
2674.05178	0.96303
2671.99797	0.96258
2669.94417	0.96230
2667.89037	0.96275
2665.83657	0.96341
2663.78276	0.96368
2661.72896	0.96371
2659.67516	0.96356
2657.62135	0.96307
2655.56755	0.96261
2653.51375	0.96257
2651.45994	0.96285
2649.40614	0.96332
2647.35234	0.96354
2645.29853	0.96337
2643.24473	0.96325
2641.19093	0.96351
2639.13712	0.96418
2637.08332	0.96469
2635.02952	0.96472
2632.97571	0.96455
2630.92191	0.96467
2628.86811	0.96493
2626.81430	0.96508
2624.76050	0.96519
2622.70670	0.96517
2620.65289	0.96559
2618.59909	0.96668
2616.54529	0.96742
2614.49149	0.96717
2612.43768	0.96639
2610.38388	0.96572
2608.33008	0.96527
2606.27627	0.96529
2604.22247	0.96599
2602.16867	0.96670
2600.11486	0.96689
2598.06106	0.96678
2596.00726	0.96645
2593.95345	0.96626
2591.89965	0.96638
2589.84585	0.96658
2587.79204	0.96684
2585.73824	0.96709
2583.68444	0.96748
2581.63063	0.96839
2579.57683	0.96945
2577.52303	0.96973
2575.46922	0.96943
2573.41542	0.96925
2571.36162	0.96892
2569.30781	0.96817
2567.25401	0.96763
2565.20021	0.96805
2563.14640	0.96899
2561.09260	0.96959
2559.03880	0.96961
2556.98500	0.96947
2554.93119	0.96954
2552.87739	0.96930
2550.82359	0.96898
2548.76978	0.96921
2546.71598	0.96909
2544.66218	0.96865
2542.60837	0.96867
2540.55457	0.96898
2538.50077	0.96951
2536.44696	0.96972
2534.39316	0.96934
2532.33936	0.96915
2530.28555	0.96927
2528.23175	0.96925
2526.17795	0.96923
2524.12414	0.96959
2522.07034	0.96971
2520.01654	0.96936
2517.96273	0.96900
2515.90893	0.96857
2513.85513	0.96869
2511.80132	0.96962
2509.74752	0.97018
2507.69372	0.97011
2505.63992	0.97006
2503.58611	0.97016
2501.53231	0.97033
2499.47851	0.97088
2497.42470	0.97172
2495.37090	0.97206
2493.31710	0.97146
2491.26329	0.97072
2489.20949	0.97090
2487.15569	0.97150
2485.10188	0.97163
2483.04808	0.97139
2480.99428	0.97114
2478.94047	0.97115
2476.88667	0.97149
2474.83287	0.97158
2472.77906	0.97091
2470.72526	0.97024
2468.67146	0.97045
2466.61765	0.97071
2464.56385	0.97024
2462.51005	0.96987
2460.45624	0.97022
2458.40244	0.97076
2456.34864	0.97115
2454.29483	0.97157
2452.24103	0.97151
2450.18723	0.97081
2448.13343	0.97055
2446.07962	0.97122
2444.02582	0.97174
2441.97202	0.97141
2439.91821	0.97143
2437.86441	0.97197
2435.81061	0.97195
2433.75680	0.97168
2431.70300	0.97146
2429.64920	0.97099
2427.59539	0.97038
2425.54159	0.97009
2423.48779	0.97076
2421.43398	0.97167
2419.38018	0.97192
2417.32638	0.97226
2415.27257	0.97277
2413.21877	0.97236
2411.16497	0.97131
2409.11116	0.97133
2407.05736	0.97255
2405.00356	0.97278
2402.94975	0.97166
2400.89595	0.97106
2398.84215	0.97104
2396.78834	0.97053
2394.73454	0.97001
2392.68074	0.97044
2390.62694	0.97144
2388.57313	0.97196
2386.51933	0.97197
2384.46553	0.97227
2382.41172	0.97267
2380.35792	0.97230
2378.30412	0.97128
2376.25031	0.97117
2374.19651	0.97221
2372.14271	0.97185
2370.08890	0.97029
2368.03510	0.97000
2365.98130	0.97009
2363.92749	0.96941
2361.87369	0.96854
2359.81989	0.96866
2357.76608	0.97009
2355.71228	0.97142
2353.65848	0.97211
2351.60467	0.97221
2349.55087	0.97225
2347.49707	0.97227
2345.44326	0.97187
2343.38946	0.97192
2341.33566	0.97212
2339.28186	0.97052
2337.22805	0.96827
2335.17425	0.96779
2333.12045	0.96897
2331.06664	0.97041
2329.01284	0.97091
2326.95904	0.96997
2324.90523	0.96908
2322.85143	0.96963
2320.79763	0.97042
2318.74382	0.97057
2316.69002	0.97072
2314.63622	0.97066
2312.58241	0.97017
2310.52861	0.96955
2308.47481	0.96918
2306.42100	0.96924
2304.36720	0.96946
2302.31340	0.96988
2300.25959	0.97063
2298.20579	0.97134
2296.15199	0.97155
2294.09818	0.97076
2292.04438	0.96936
2289.99058	0.96897
2287.93677	0.97007
2285.88297	0.97127
2283.82917	0.97187
2281.77537	0.97262
2279.72156	0.97323
2277.66776	0.97257
2275.61396	0.97134
2273.56015	0.97034
2271.50635	0.96961
2269.45255	0.96951
2267.39874	0.96994
2265.34494	0.97104
2263.29114	0.97267
2261.23733	0.97296
2259.18353	0.97195
2257.12973	0.97236
2255.07592	0.97351
2253.02212	0.97293
2250.96832	0.97144
2248.91451	0.97123
2246.86071	0.97227
2244.80691	0.97282
2242.75310	0.97245
2240.69930	0.97149
2238.64550	0.97086
2236.59169	0.97140
2234.53789	0.97191
2232.48409	0.97163
2230.43029	0.97159
2228.37648	0.97275
2226.32268	0.97487
2224.26888	0.97612
2222.21507	0.97557
2220.16127	0.97492
2218.10747	0.97458
2216.05366	0.97341
2213.99986	0.97317
2211.94606	0.97445
2209.89225	0.97443
2207.83845	0.97288
2205.78465	0.97120
2203.73084	0.97017
2201.67704	0.97119
2199.62324	0.97458
2197.56943	0.97719
2195.51563	0.97612
2193.46183	0.97338
2191.40802	0.97256
2189.35422	0.97403
2187.30042	0.97434
2185.24661	0.97375
2183.19281	0.97523
2181.13901	0.97634
2179.08520	0.97768
2177.03140	0.98061
2174.97760	0.98189
2172.92380	0.98075
2170.86999	0.97779
2168.81619	0.97478
2166.76239	0.97421
2164.70858	0.97397
2162.65478	0.97118
2160.60098	0.96892
2158.54717	0.97010
2156.49337	0.97246
2154.43957	0.97551
2152.38576	0.97913
2150.33196	0.98089
2148.27816	0.98065
2146.22435	0.97912
2144.17055	0.97743
2142.11675	0.97741
2140.06294	0.97765
2138.00914	0.97725
2135.95534	0.97714
2133.90153	0.97696
2131.84773	0.97661
2129.79393	0.97615
2127.74012	0.97598
2125.68632	0.97630
2123.63252	0.97584
2121.57871	0.97422
2119.52491	0.97244
2117.47111	0.97175
2115.41731	0.97293
2113.36350	0.97471
2111.30970	0.97583
2109.25590	0.97672
2107.20209	0.97624
2105.14829	0.97353
2103.09449	0.97127
2101.04068	0.97202
2098.98688	0.97416
2096.93308	0.97535
2094.87927	0.97597
2092.82547	0.97596
2090.77167	0.97519
2088.71786	0.97456
2086.66406	0.97477
2084.61026	0.97584
2082.55645	0.97671
2080.50265	0.97657
2078.44885	0.97638
2076.39504	0.97671
2074.34124	0.97583
2072.28744	0.97427
2070.23363	0.97385
2068.17983	0.97372
2066.12603	0.97367
2064.07223	0.97430
2062.01842	0.97570
2059.96462	0.97705
2057.91082	0.97751
2055.85701	0.97745
2053.80321	0.97698
2051.74941	0.97620
2049.69560	0.97593
2047.64180	0.97699
2045.58800	0.97809
2043.53419	0.97649
2041.48039	0.97371
2039.42659	0.97464
2037.37278	0.97892
2035.31898	0.98121
2033.26518	0.97982
2031.21137	0.97912
2029.15757	0.98191
2027.10377	0.98381
2025.04996	0.98333
2022.99616	0.98382
2020.94236	0.98203
2018.88855	0.97566
2016.83475	0.97149
2014.78095	0.97230
2012.72714	0.97357
2010.67334	0.97521
2008.61954	0.97781
2006.56574	0.97850
2004.51193	0.97833
2002.45813	0.97807
2000.40433	0.97569
1998.35052	0.97456
1996.29672	0.97579
1994.24292	0.97571
1992.18911	0.97603
1990.13531	0.97786
1988.08151	0.97896
1986.02770	0.97937
1983.97390	0.97964
1981.92010	0.97974
1979.86629	0.97936
1977.81249	0.97832
1975.75869	0.97858
1973.70488	0.98077
1971.65108	0.98120
1969.59728	0.98006
1967.54347	0.97998
1965.48967	0.97982
1963.43587	0.97758
1961.38206	0.97488
1959.32826	0.97422
1957.27446	0.97492
1955.22066	0.97610
1953.16685	0.97644
1951.11305	0.97552
1949.05925	0.97479
1947.00544	0.97464
1944.95164	0.97516
1942.89784	0.97590
1940.84403	0.97682
1938.79023	0.97716
1936.73643	0.97548
1934.68262	0.97389
1932.62882	0.97436
1930.57502	0.97517
1928.52121	0.97554
1926.46741	0.97569
1924.41361	0.97453
1922.35980	0.97330
1920.30600	0.97399
1918.25220	0.97503
1916.19839	0.97518
1914.14459	0.97470
1912.09079	0.97391
1910.03698	0.97346
1907.98318	0.97350
1905.92938	0.97425
1903.87557	0.97531
1901.82177	0.97567
1899.76797	0.97534
1897.71417	0.97506
1895.66036	0.97504
1893.60656	0.97463
1891.55276	0.97405
1889.49895	0.97443
1887.44515	0.97493
1885.39135	0.97449
1883.33754	0.97423
1881.28374	0.97485
1879.22994	0.97583
1877.17613	0.97628
1875.12233	0.97548
1873.06853	0.97372
1871.01472	0.97211
1868.96092	0.97247
1866.90712	0.97450
1864.85331	0.97542
1862.79951	0.97510
1860.74571	0.97479
1858.69190	0.97486
1856.63810	0.97511
1854.58430	0.97561
1852.53049	0.97541
1850.47669	0.97437
1848.42289	0.97402
1846.36908	0.97409
1844.31528	0.97374
1842.26148	0.97399
1840.20768	0.97501
1838.15387	0.97584
1836.10007	0.97579
1834.04627	0.97496
1831.99246	0.97408
1829.93866	0.97358
1827.88486	0.97332
1825.83105	0.97325
1823.77725	0.97309
1821.72345	0.97255
1819.66964	0.97265
1817.61584	0.97382
1815.56204	0.97465
1813.50823	0.97454
1811.45443	0.97421
1809.40063	0.97408
1807.34682	0.97417
1805.29302	0.97426
1803.23922	0.97442
1801.18541	0.97437
1799.13161	0.97343
1797.07781	0.97256
1795.02400	0.97254
1792.97020	0.97264
1790.91640	0.97268
1788.86260	0.97294
1786.80879	0.97318
1784.75499	0.97308
1782.70119	0.97260
1780.64738	0.97241
1778.59358	0.97249
1776.53978	0.97256
1774.48597	0.97300
1772.43217	0.97346
1770.37837	0.97308
1768.32456	0.97218
1766.27076	0.97147
1764.21696	0.97092
1762.16315	0.97032
1760.10935	0.96986
1758.05555	0.96966
1756.00174	0.96922
1753.94794	0.96820
1751.89414	0.96693
1749.84033	0.96592
1747.78653	0.96524
1745.73273	0.96439
1743.67892	0.96326
1741.62512	0.96198
1739.57132	0.96068
1737.51751	0.95962
1735.46371	0.95905
1733.40991	0.95920
1731.35611	0.95970
1729.30230	0.95948
1727.24850	0.95881
1725.19470	0.95868
1723.14089	0.95871
1721.08709	0.95819
1719.03329	0.95764
1716.97948	0.95756
1714.92568	0.95719
1712.87188	0.95650
1710.81807	0.95579
1708.76427	0.95504
1706.71047	0.95417
1704.65666	0.95301
1702.60286	0.95168
1700.54906	0.94987
1698.49525	0.94766
1696.44145	0.94585
1694.38765	0.94419
1692.33384	0.94265
1690.28004	0.94067
1688.22624	0.93807
1686.17243	0.93531
1684.11863	0.93277
1682.06483	0.93168
1680.01103	0.93073
1677.95722	0.92929
1675.90342	0.92748
1673.84962	0.92547
1671.79581	0.92363
1669.74201	0.92116
1667.68821	0.91839
1665.63440	0.91654
1663.58060	0.91507
1661.52680	0.91350
1659.47299	0.91176
1657.41919	0.91011
1655.36539	0.90876
1653.31158	0.90711
1651.25778	0.90606
1649.20398	0.90602
1647.15017	0.90567
1645.09637	0.90476
1643.04257	0.90401
1640.98876	0.90343
1638.93496	0.90313
1636.88116	0.90324
1634.82735	0.90328
1632.77355	0.90301
1630.71975	0.90286
1628.66594	0.90313
1626.61214	0.90375
1624.55834	0.90420
1622.50454	0.90458
1620.45073	0.90528
1618.39693	0.90666
1616.34313	0.90932
1614.28932	0.91224
1612.23552	0.91466
1610.18172	0.91685
1608.12791	0.91896
1606.07411	0.92092
1604.02031	0.92238
1601.96650	0.92355
1599.91270	0.92464
1597.85890	0.92558
1595.80509	0.92668
1593.75129	0.92775
1591.69749	0.92842
1589.64368	0.92906
1587.58988	0.92996
1585.53608	0.93091
1583.48227	0.93133
1581.42847	0.93110
1579.37467	0.93073
1577.32086	0.93063
1575.26706	0.93138
1573.21326	0.93217
1571.15945	0.93222
1569.10565	0.93225
1567.05185	0.93279
1564.99805	0.93344
1562.94424	0.93382
1560.89044	0.93370
1558.83664	0.93354
1556.78283	0.93402
1554.72903	0.93390
1552.67523	0.93377
1550.62142	0.93423
1548.56762	0.93463
1546.51382	0.93457
1544.46001	0.93463
1542.40621	0.93529
1540.35241	0.93621
1538.29860	0.93712
1536.24480	0.93813
1534.19100	0.93956
1532.13719	0.94096
1530.08339	0.94174
1528.02959	0.94256
1525.97578	0.94357
1523.92198	0.94456
1521.86818	0.94595
1519.81437	0.94753
1517.76057	0.94849
1515.70677	0.94930
1513.65297	0.95028
1511.59916	0.95131
1509.54536	0.95215
1507.49156	0.95287
1505.43775	0.95369
1503.38395	0.95422
1501.33015	0.95455
1499.27634	0.95466
1497.22254	0.95483
1495.16874	0.95536
1493.11493	0.95608
1491.06113	0.95674
1489.00733	0.95687
1486.95352	0.95630
1484.89972	0.95562
1482.84592	0.95475
1480.79211	0.95291
1478.73831	0.94806
1476.68451	0.93460
1474.63070	0.90793
1472.57690	0.88140
1470.52310	0.87835
1468.46929	0.88592
1466.41549	0.88813
1464.36169	0.88020
1462.30788	0.87400
1460.25408	0.88063
1458.20028	0.89783
1456.14648	0.91459
1454.09267	0.92108
1452.03887	0.92421
1449.98507	0.92680
1447.93126	0.92911
1445.87746	0.93078
1443.82366	0.93169
1441.76985	0.93250
1439.71605	0.93324
1437.66225	0.93399
1435.60844	0.93504
1433.55464	0.93590
1431.50084	0.93656
1429.44703	0.93755
1427.39323	0.93863
1425.33943	0.93924
1423.28562	0.93952
1421.23182	0.93955
1419.17802	0.93921
1417.12421	0.93885
1415.07041	0.93899
1413.01661	0.93924
1410.96280	0.93945
1408.90900	0.93986
1406.85520	0.94041
1404.80139	0.94103
1402.74759	0.94152
1400.69379	0.94212
1398.63999	0.94299
1396.58618	0.94363
1394.53238	0.94387
1392.47858	0.94377
1390.42477	0.94349
1388.37097	0.94321
1386.31717	0.94286
1384.26336	0.94236
1382.20956	0.94160
1380.15576	0.94047
1378.10195	0.93938
1376.04815	0.93911
1373.99435	0.93986
1371.94054	0.94069
1369.88674	0.94124
1367.83294	0.94192
1365.77913	0.94272
1363.72533	0.94327
1361.67153	0.94365
1359.61772	0.94425
1357.56392	0.94487
1355.51012	0.94536
1353.45631	0.94570
1351.40251	0.94611
1349.34871	0.94692
1347.29491	0.94787
1345.24110	0.94839
1343.18730	0.94850
1341.13350	0.94854
1339.07969	0.94855
1337.02589	0.94841
1334.97209	0.94841
1332.91828	0.94865
1330.86448	0.94888
1328.81068	0.94892
1326.75687	0.94885
1324.70307	0.94867
1322.64927	0.94820
1320.59546	0.94758
1318.54166	0.94733
1316.48786	0.94757
1314.43405	0.94769
1312.38025	0.94757
1310.32645	0.94771
1308.27264	0.94779
1306.21884	0.94738
1304.16504	0.94703
1302.11123	0.94718
1300.05743	0.94753
1298.00363	0.94755
1295.94982	0.94723
1293.89602	0.94701
1291.84222	0.94690
1289.78842	0.94673
1287.73461	0.94666
1285.68081	0.94654
1283.62701	0.94609
1281.57320	0.94546
1279.51940	0.94485
1277.46560	0.94445
1275.41179	0.94430
1273.35799	0.94389
1271.30419	0.94300
1269.25038	0.94213
1267.19658	0.94157
1265.14278	0.94092
1263.08897	0.93988
1261.03517	0.93857
1258.98137	0.93731
1256.92756	0.93657
1254.87376	0.93640
1252.81996	0.93607
1250.76615	0.93523
1248.71235	0.93418
1246.65855	0.93303
1244.60474	0.93182
1242.55094	0.93092
1240.49714	0.93041
1238.44334	0.92945
1236.38953	0.92771
1234.33573	0.92642
1232.28193	0.92606
1230.22812	0.92579
1228.17432	0.92520
1226.12052	0.92420
1224.06671	0.92280
1222.01291	0.92147
1219.95911	0.92048
1217.90530	0.91953
1215.85150	0.91858
1213.79770	0.91754
1211.74389	0.91615
1209.69009	0.91466
1207.63629	0.91324
1205.58248	0.91145
1203.52868	0.90913
1201.47488	0.90685
1199.42107	0.90512
1197.36727	0.90334
1195.31347	0.90061
1193.25966	0.89740
1191.20586	0.89462
1189.15206	0.89196
1187.09825	0.88886
1185.04445	0.88525
1182.99065	0.88122
1180.93685	0.87688
1178.88304	0.87249
1176.82924	0.86802
1174.77544	0.86340
1172.72163	0.85889
1170.66783	0.85434
1168.61403	0.84951
1166.56022	0.84524
1164.50642	0.84203
1162.45262	0.83894
1160.39881	0.83552
1158.34501	0.83258
1156.29121	0.83003
1154.23740	0.82685
1152.18360	0.82308
1150.12980	0.81947
1148.07599	0.81633
1146.02219	0.81351
1143.96839	0.81065
1141.91458	0.80746
1139.86078	0.80402
1137.80698	0.80071
1135.75317	0.79756
1133.69937	0.79392
1131.64557	0.78939
1129.59176	0.78404
1127.53796	0.77794
1125.48416	0.77135
1123.43036	0.76449
1121.37655	0.75697
1119.32275	0.74875
1117.26895	0.74076
1115.21514	0.73380
1113.16134	0.72778
1111.10754	0.72206
1109.05373	0.71659
1106.99993	0.71201
1104.94613	0.70801
1102.89232	0.70391
1100.83852	0.69980
1098.78472	0.69585
1096.73091	0.69230
1094.67711	0.68932
1092.62331	0.68680
1090.56950	0.68473
1088.51570	0.68313
1086.46190	0.68165
1084.40809	0.67990
1082.35429	0.67780
1080.30049	0.67540
1078.24668	0.67306
1076.19288	0.67075
1074.13908	0.66758
1072.08528	0.66332
1070.03147	0.65861
1067.97767	0.65349
1065.92387	0.64751
1063.87006	0.64056
1061.81626	0.63318
1059.76246	0.62579
1057.70865	0.61800
1055.65485	0.60902
1053.60105	0.59870
1051.54724	0.58785
1049.49344	0.57703
1047.43964	0.56635
1045.38583	0.55589
1043.33203	0.54541
1041.27823	0.53457
1039.22442	0.52368
1037.17062	0.51313
1035.11682	0.50348
1033.06301	0.49557
1031.00921	0.48961
1028.95541	0.48549
1026.90160	0.48311
1024.84780	0.48219
1022.79400	0.48208
1020.74019	0.48160
1018.68639	0.48007
1016.63259	0.47813
1014.57879	0.47623
1012.52498	0.47364
1010.47118	0.47039
1008.41738	0.46714
1006.36357	0.46419
1004.30977	0.46215
1002.25597	0.46201
1000.20216	0.46408
998.14836	0.46801
996.09456	0.47386
994.04075	0.48157
991.98695	0.49032
989.93315	0.49958
987.87934	0.50948
985.82554	0.52002
983.77174	0.53094
981.71793	0.54169
979.66413	0.55231
977.61033	0.56340
975.55652	0.57457
973.50272	0.58536
971.44892	0.59664
969.39511	0.60850
967.34131	0.61990
965.28751	0.63057
963.23371	0.64062
961.17990	0.65002
959.12610	0.65844
957.07230	0.66581
955.01849	0.67268
952.96469	0.67913
950.91089	0.68481
948.85708	0.68950
946.80328	0.69357
944.74948	0.69769
942.69567	0.70149
940.64187	0.70424
938.58807	0.70643
936.53426	0.70850
934.48046	0.71052
932.42666	0.71270
930.37285	0.71450
928.31905	0.71520
926.26525	0.71522
924.21144	0.71505
922.15764	0.71409
920.10384	0.71147
918.05003	0.70712
915.99623	0.70220
913.94243	0.69838
911.88862	0.69687
909.83482	0.69881
907.78102	0.70538
905.72722	0.71566
903.67341	0.72690
901.61961	0.73758
899.56581	0.74738
897.51200	0.75668
895.45820	0.76584
893.40440	0.77388
891.35059	0.78040
889.29679	0.78595
887.24299	0.79044
885.18918	0.79398
883.13538	0.79700
881.08158	0.79977
879.02777	0.80242
876.97397	0.80481
874.92017	0.80715
872.86636	0.81009
870.81256	0.81386
868.75876	0.81807
866.70495	0.82245
864.65115	0.82683
862.59735	0.83118
860.54354	0.83551
858.48974	0.83921
856.43594	0.84200
854.38213	0.84477
852.32833	0.84772
850.27453	0.84983
848.22073	0.85137
846.16692	0.85242
844.11312	0.85221
842.05932	0.85178
840.00551	0.85215
837.95171	0.85218
835.89791	0.85123
833.84410	0.85074
831.79030	0.85073
829.73650	0.84972
827.68269	0.84816
825.62889	0.84735
823.57509	0.84720
821.52128	0.84668
819.46748	0.84597
817.41368	0.84603
815.35987	0.84613
813.30607	0.84531
811.25227	0.84371
809.19846	0.84100
807.14466	0.83682
805.09086	0.83193
803.03705	0.82678
800.98325	0.82192
798.92945	0.81837
796.87565	0.81638
794.82184	0.81576
792.76804	0.81634
790.71424	0.81728
788.66043	0.81732
786.60663	0.81664
784.55283	0.81572
782.49902	0.81430
780.44522	0.81329
778.39142	0.81347
776.33761	0.81471
774.28381	0.81670
772.23001	0.81736
770.17620	0.81557
768.12240	0.81357
766.06860	0.81298
764.01479	0.81273
761.96099	0.81101
759.90719	0.80847
757.85338	0.80658
755.79958	0.80471
753.74578	0.80319
751.69197	0.80287
749.63817	0.80252
747.58437	0.80135
745.53056	0.80036
743.47676	0.80143
741.42296	0.80493
739.36916	0.80809
737.31535	0.80830
735.26155	0.80316
733.20775	0.78823
731.15394	0.76835
729.10014	0.76101
727.04634	0.76858
724.99253	0.77352
722.93873	0.76294
720.88493	0.73684
718.83112	0.71257
716.77732	0.71075
714.72352	0.72901
712.66971	0.75119
710.61591	0.76619
708.56211	0.77202
706.50830	0.77159
704.45450	0.76808
702.40070	0.76353
700.34689	0.75873
698.29309	0.75336
696.23929	0.74845
694.18548	0.74586
692.13168	0.74537
690.07788	0.74510
688.02408	0.74474
685.97027	0.74557
683.91647	0.74645
681.86267	0.74612
679.80886	0.74602
677.75506	0.74611
675.70126	0.74590
673.64745	0.74613
671.59365	0.74661
669.53985	0.74693
667.48604	0.74780
665.43224	0.75001
663.37844	0.75244
661.32463	0.75491
659.27083	0.75749
657.21703	0.75865
655.16322	0.75792
653.10942	0.75631
651.05562	0.75399
649.00181	0.75240
646.94801	0.75272
644.89421	0.75225
642.84040	0.75026
640.78660	0.74908
638.73280	0.74900
636.67899	0.75003
634.62519	0.75093
632.57139	0.74996
630.51759	0.74907
628.46378	0.74907
626.40998	0.74813
624.35618	0.74591
622.30237	0.74339
620.24857	0.74090
618.19477	0.73792
616.14096	0.73521
614.08716	0.73291
612.03336	0.72859
609.97955	0.72261
607.92575	0.71744
605.87195	0.71348
603.81814	0.71052
601.76434	0.70725
599.71054	0.70345
597.65673	0.70161
595.60293	0.70046
593.54913	0.69718
591.49532	0.69344
589.44152	0.69070
587.38772	0.68783
585.33391	0.68485
583.28011	0.68159
581.22631	0.67841
579.17250	0.67598
577.11870	0.67195
575.06490	0.66585
573.01110	0.66046
570.95729	0.65676
568.90349	0.65412
566.84969	0.65216
564.79588	0.64975
562.74208	0.64501
560.68828	0.63763
558.63447	0.63003
556.58067	0.62418
554.52687	0.61956
552.47306	0.61476
550.41926	0.60797
548.36546	0.59857
546.31165	0.58949
544.25785	0.58249
542.20405	0.57445
540.15024	0.56439
538.09644	0.55579
536.04264	0.55118
533.98883	0.54756
531.93503	0.54104
529.88123	0.53577
527.82742	0.53510
525.77362	0.53719
523.71982	0.54073
521.66602	0.54488
519.61221	0.54885
517.55841	0.55150
515.50461	0.55431
513.45080	0.55950
511.39700	0.56468
509.34320	0.56726
507.28939	0.57095
505.23559	0.57868
503.18179	0.58557
501.12798	0.58744
499.07418	0.58673
497.02038	0.58737
494.96657	0.58842
492.91277	0.58671
490.85897	0.58244
488.80516	0.57654
486.75136	0.56948
484.69756	0.56213
482.64375	0.55227
480.58995	0.53882
478.53615	0.52487
476.48234	0.51123
474.42854	0.49432
472.37474	0.47351
470.32093	0.45668
468.26713	0.44554
466.21333	0.43733
464.15953	0.43432
462.10572	0.43670
460.05192	0.44148
457.99812	0.44762
455.94431	0.45474
453.89051	0.46189
451.83671	0.47078
449.78290	0.47772
447.72910	0.47828
445.67530	0.47745
443.62149	0.47982
441.56769	0.48229
439.51389	0.48290
437.46008	0.48197
435.40628	0.47850
433.35248	0.47315
431.29867	0.46847
429.24487	0.46677
427.19107	0.46617
425.13726	0.46533
423.08346	0.46819
421.02966	0.47378
418.97585	0.47664
416.92205	0.47884
414.86825	0.48604
412.81445	0.49779
410.76064	0.50838
408.70684	0.51362
406.65304	0.51741
404.59923	0.52557
402.54543	0.53978
400.49163	0.55075
398.43782	0.55547
