3996.71440	0.00590
3994.66059	0.00587
3992.60678	0.00595
3990.55297	0.00596
3988.49916	0.00588
3986.44535	0.00589
3984.39154	0.00603
3982.33773	0.00618
3980.28391	0.00626
3978.23010	0.00629
3976.17629	0.00624
3974.12248	0.00611
3972.06867	0.00603
3970.01486	0.00603
3967.96105	0.00596
3965.90724	0.00580
3963.85343	0.00572
3961.79962	0.00577
3959.74581	0.00584
3957.69200	0.00596
3955.63819	0.00609
3953.58438	0.00603
3951.53057	0.00579
3949.47676	0.00564
3947.42295	0.00577
3945.36914	0.00607
3943.31533	0.00627
3941.26152	0.00625
3939.20771	0.00615
3937.15390	0.00606
3935.10009	0.00599
3933.04628	0.00593
3930.99247	0.00593
3928.93866	0.00602
3926.88485	0.00612
3924.83104	0.00604
3922.77723	0.00587
3920.72342	0.00588
3918.66961	0.00601
3916.61580	0.00610
3914.56199	0.00620
3912.50818	0.00620
3910.45437	0.00607
3908.40056	0.00600
3906.34675	0.00603
3904.29294	0.00605
3902.23913	0.00595
3900.18532	0.00585
3898.13151	0.00598
3896.07770	0.00611
3894.02389	0.00610
3891.97008	0.00604
3889.91627	0.00595
3887.86246	0.00580
3885.80865	0.00577
3883.75484	0.00597
3881.70103	0.00622
3879.64722	0.00628
3877.59341	0.00610
3875.53960	0.00602
3873.48579	0.00611
3871.43198	0.00619
3869.37817	0.00629
3867.32436	0.00632
3865.27055	0.00620
3863.21674	0.00605
3861.16293	0.00597
3859.10912	0.00598
3857.05531	0.00591
3855.00150	0.00574
3852.94769	0.00586
3850.89388	0.00612
3848.84007	0.00611
3846.78626	0.00597
3844.73245	0.00586
3842.67864	0.00577
3840.62483	0.00564
3838.57102	0.00569
3836.51721	0.00591
3834.46340	0.00597
3832.40959	0.00584
3830.35578	0.00569
3828.30197	0.00559
3826.24816	0.00567
3824.19435	0.00587
3822.14054	0.00596
3820.08673	0.00589
3818.03292	0.00591
3815.97911	0.00610
3813.92530	0.00608
3811.87149	0.00583
3809.81768	0.00566
3807.76387	0.00572
3805.71006	0.00590
3803.65625	0.00597
3801.60244	0.00605
3799.54863	0.00609
3797.49482	0.00601
3795.44101	0.00603
3793.38720	0.00602
3791.33339	0.00588
3789.27958	0.00580
3787.22577	0.00588
3785.17196	0.00602
3783.11815	0.00603
3781.06434	0.00596
3779.01053	0.00599
3776.95672	0.00600
3774.90291	0.00591
3772.84910	0.00578
3770.79529	0.00567
3768.74148	0.00564
3766.68767	0.00568
3764.63386	0.00575
3762.58005	0.00585
3760.52624	0.00598
3758.47243	0.00592
3756.41862	0.00576
3754.36481	0.00579
3752.31100	0.00585
3750.25719	0.00580
3748.20338	0.00574
3746.14957	0.00583
3744.09576	0.00614
3742.04195	0.00618
3739.98814	0.00590
3737.93433	0.00581
3735.88052	0.00604
3733.82671	0.00606
3731.77290	0.00587
3729.71909	0.00581
3727.66528	0.00577
3725.61147	0.00578
3723.55766	0.00592
3721.50385	0.00603
3719.45004	0.00603
3717.39623	0.00598
3715.34242	0.00588
3713.28861	0.00587
3711.23480	0.00613
3709.18099	0.00645
3707.12718	0.00670
3705.07337	0.00702
3703.01956	0.00748
3700.96575	0.00779
3698.91194	0.00757
3696.85813	0.00725
3694.80432	0.00726
3692.75051	0.00737
3690.69670	0.00727
3688.64289	0.00708
3686.58907	0.00713
3684.53526	0.00716
3682.48145	0.00712
3680.42764	0.00722
3678.37383	0.00736
3676.32002	0.00726
3674.26621	0.00702
3672.21240	0.00687
3670.15859	0.00688
3668.10478	0.00707
3666.05097	0.00726
3663.99716	0.00746
3661.94335	0.00766
3659.88954	0.00775
3657.83573	0.00779
3655.78192	0.00787
3653.72811	0.00790
3651.67430	0.00793
3649.62049	0.00820
3647.56668	0.00857
3645.51287	0.00859
3643.45906	0.00848
3641.40525	0.00848
3639.35144	0.00855
3637.29763	0.00861
3635.24382	0.00874
3633.19001	0.00882
3631.13620	0.00877
3629.08239	0.00899
3627.02858	0.00931
3624.97477	0.00931
3622.92096	0.00935
3620.86715	0.00945
3618.81334	0.00946
3616.75953	0.00935
3614.70572	0.00921
3612.65191	0.00919
3610.59810	0.00919
3608.54429	0.00925
3606.49048	0.00936
3604.43667	0.00944
3602.38286	0.00949
3600.32905	0.00941
3598.27524	0.00923
3596.22143	0.00908
3594.16762	0.00902
3592.11381	0.00905
3590.06000	0.00908
3588.00619	0.00914
3585.95238	0.00926
3583.89857	0.00921
3581.84476	0.00913
3579.79095	0.00922
3577.73714	0.00928
3575.68333	0.00924
3573.62952	0.00928
3571.57571	0.00938
3569.52190	0.00938
3567.46809	0.00934
3565.41428	0.00942
3563.36047	0.00951
3561.30666	0.00965
3559.25285	0.00988
3557.19904	0.01005
3555.14523	0.01009
3553.09142	0.01004
3551.03761	0.01003
3548.98380	0.01009
3546.92999	0.01009
3544.87618	0.01003
3542.82237	0.00999
3540.76856	0.00996
3538.71475	0.00998
3536.66094	0.01009
3534.60713	0.01017
3532.55332	0.01016
3530.49951	0.01010
3528.44570	0.01018
3526.39189	0.01039
3524.33808	0.01053
3522.28427	0.01056
3520.23046	0.01062
3518.17665	0.01073
3516.12284	0.01071
3514.06903	0.01062
3512.01522	0.01064
3509.96141	0.01083
3507.90760	0.01098
3505.85379	0.01091
3503.79998	0.01080
3501.74617	0.01083
3499.69236	0.01090
3497.63855	0.01095
3495.58474	0.01099
3493.53093	0.01111
3491.47712	0.01131
3489.42331	0.01136
3487.36950	0.01122
3485.31569	0.01112
3483.26188	0.01121
3481.20807	0.01145
3479.15426	0.01165
3477.10045	0.01177
3475.04664	0.01169
3472.99283	0.01153
3470.93902	0.01157
3468.88521	0.01172
3466.83140	0.01176
3464.77759	0.01169
3462.72378	0.01164
3460.66997	0.01167
3458.61616	0.01176
3456.56235	0.01186
3454.50854	0.01195
3452.45473	0.01203
3450.40092	0.01201
3448.34711	0.01191
3446.29330	0.01192
3444.23949	0.01208
3442.18568	0.01216
3440.13187	0.01219
3438.07806	0.01230
3436.02425	0.01238
3433.97044	0.01230
3431.91663	0.01225
3429.86282	0.01234
3427.80901	0.01248
3425.75520	0.01253
3423.70139	0.01241
3421.64758	0.01227
3419.59377	0.01237
3417.53996	0.01258
3415.48615	0.01270
3413.43234	0.01269
3411.37853	0.01265
3409.32472	0.01273
3407.27091	0.01284
3405.21710	0.01284
3403.16329	0.01278
3401.10948	0.01278
3399.05567	0.01283
3397.00186	0.01286
3394.94805	0.01296
3392.89424	0.01311
3390.84042	0.01307
3388.78661	0.01284
3386.73280	0.01269
3384.67899	0.01271
3382.62518	0.01279
3380.57137	0.01284
3378.51756	0.01292
3376.46375	0.01310
3374.40994	0.01316
3372.35613	0.01303
3370.30232	0.01297
3368.24851	0.01304
3366.19470	0.01310
3364.14089	0.01310
3362.08708	0.01312
3360.03327	0.01317
3357.97946	0.01319
3355.92565	0.01311
3353.87184	0.01297
3351.81803	0.01297
3349.76422	0.01314
3347.71041	0.01330
3345.65660	0.01336
3343.60279	0.01335
3341.54898	0.01330
3339.49517	0.01322
3337.44136	0.01309
3335.38755	0.01299
3333.33374	0.01304
3331.27993	0.01319
3329.22612	0.01325
3327.17231	0.01328
3325.11850	0.01336
3323.06469	0.01336
3321.01088	0.01332
3318.95707	0.01327
3316.90326	0.01314
3314.84945	0.01302
3312.79564	0.01304
3310.74183	0.01308
3308.68802	0.01315
3306.63421	0.01330
3304.58040	0.01340
3302.52659	0.01335
3300.47278	0.01331
3298.41897	0.01330
3296.36516	0.01323
3294.31135	0.01316
3292.25754	0.01320
3290.20373	0.01332
3288.14992	0.01335
3286.09611	0.01318
3284.04230	0.01291
3281.98849	0.01279
3279.93468	0.01281
3277.88087	0.01279
3275.82706	0.01278
3273.77325	0.01284
3271.71944	0.01295
3269.66563	0.01293
3267.61182	0.01279
3265.55801	0.01276
3263.50420	0.01277
3261.45039	0.01266
3259.39658	0.01248
3257.34277	0.01237
3255.28896	0.01236
3253.23515	0.01239
3251.18134	0.01241
3249.12753	0.01246
3247.07372	0.01245
3245.01991	0.01233
3242.96610	0.01220
3240.91229	0.01210
3238.85848	0.01205
3236.80467	0.01206
3234.75086	0.01199
3232.69705	0.01183
3230.64324	0.01178
3228.58943	0.01186
3226.53562	0.01195
3224.48181	0.01193
3222.42800	0.01179
3220.37419	0.01162
3218.32038	0.01159
3216.26657	0.01168
3214.21276	0.01174
3212.15895	0.01169
3210.10514	0.01155
3208.05133	0.01136
3205.99752	0.01124
3203.94371	0.01122
3201.88990	0.01122
3199.83609	0.01128
3197.78228	0.01134
3195.72847	0.01123
3193.67466	0.01112
3191.62085	0.01114
3189.56704	0.01117
3187.51323	0.01113
3185.45942	0.01100
3183.40561	0.01076
3181.35180	0.01057
3179.29799	0.01055
3177.24418	0.01063
3175.19037	0.01064
3173.13656	0.01058
3171.08275	0.01055
3169.02894	0.01061
3166.97513	0.01053
3164.92132	0.01032
3162.86751	0.01017
3160.81370	0.01010
3158.75989	0.01001
3156.70608	0.00995
3154.65227	0.00999
3152.59846	0.01004
3150.54465	0.01004
3148.49084	0.00999
3146.43703	0.00986
3144.38322	0.00975
3142.32941	0.00980
3140.27560	0.00994
3138.22179	0.00999
3136.16798	0.00996
3134.11417	0.00993
3132.06036	0.00983
3130.00655	0.00970
3127.95274	0.00963
3125.89893	0.00961
3123.84512	0.00959
3121.79131	0.00956
3119.73750	0.00959
3117.68369	0.00970
3115.62988	0.00979
3113.57607	0.00980
3111.52226	0.00975
3109.46845	0.00964
3107.41464	0.00953
3105.36083	0.00946
3103.30702	0.00937
3101.25321	0.00936
3099.19940	0.00949
3097.14559	0.00963
3095.09177	0.00964
3093.03796	0.00960
3090.98415	0.00959
3088.93034	0.00965
3086.87653	0.00974
3084.82272	0.00983
3082.76891	0.00992
3080.71510	0.00996
3078.66129	0.00989
3076.60748	0.00990
3074.55367	0.00996
3072.49986	0.00997
3070.44605	0.00991
3068.39224	0.00979
3066.33843	0.00966
3064.28462	0.00961
3062.23081	0.00965
3060.17700	0.00965
3058.12319	0.00967
3056.06938	0.00975
3054.01557	0.00982
3051.96176	0.00985
3049.90795	0.00982
3047.85414	0.00976
3045.80033	0.00971
3043.74652	0.00969
3041.69271	0.00967
3039.63890	0.00967
3037.58509	0.00968
3035.53128	0.00974
3033.47747	0.00990
3031.42366	0.01004
3029.36985	0.00999
3027.31604	0.00988
3025.26223	0.00988
3023.20842	0.00990
3021.15461	0.00986
3019.10080	0.00984
3017.04699	0.00984
3014.99318	0.00980
3012.93937	0.00982
3010.88556	0.00987
3008.83175	0.00987
3006.77794	0.00990
3004.72413	0.01003
3002.67032	0.01010
3000.61651	0.01001
2998.56270	0.00994
2996.50889	0.00998
2994.45508	0.01002
2992.40127	0.01005
2990.34746	0.01010
2988.29365	0.01016
2986.23984	0.01025
2984.18603	0.01046
2982.13222	0.01078
2980.07841	0.01109
2978.02460	0.01130
2975.97079	0.01151
2973.91698	0.01181
2971.86317	0.01213
2969.80936	0.01244
2967.75555	0.01285
2965.70174	0.01332
2963.64793	0.01390
2961.59412	0.01461
2959.54031	0.01535
2957.48650	0.01613
2955.43269	0.01704
2953.37888	0.01800
2951.32507	0.01901
2949.27126	0.02034
2947.21745	0.02215
2945.16364	0.02447
2943.10983	0.02754
2941.05602	0.03155
2939.00221	0.03650
2936.94840	0.04239
2934.89459	0.04938
2932.84078	0.05785
2930.78697	0.06801
2928.73316	0.08006
2926.67935	0.09474
2924.62554	0.11311
2922.57173	0.13574
2920.51792	0.16217
2918.46411	0.18990
2916.41030	0.21336
2914.35649	0.22499
2912.30268	0.22124
2910.24887	0.20661
2908.19506	0.18824
2906.14125	0.17074
2904.08744	0.15600
2902.03363	0.14426
2899.97982	0.13488
2897.92601	0.12709
2895.87220	0.12021
2893.81839	0.11350
2891.76458	0.10660
2889.71077	0.09965
2887.65696	0.09286
2885.60315	0.08621
2883.54934	0.07944
2881.49553	0.07243
2879.44172	0.06528
2877.38791	0.05841
2875.33410	0.05235
2873.28029	0.04754
2871.22648	0.04422
2869.17267	0.04242
2867.11886	0.04210
2865.06505	0.04338
2863.01124	0.04670
2860.95743	0.05282
2858.90362	0.06295
2856.84981	0.07899
2854.79600	0.10347
2852.74219	0.13766
2850.68838	0.17708
2848.63457	0.20759
2846.58076	0.21333
2844.52695	0.19404
2842.47314	0.16343
2840.41933	0.13335
2838.36552	0.10875
2836.31171	0.09020
2834.25790	0.07648
2832.20409	0.06617
2830.15028	0.05824
2828.09647	0.05209
2826.04266	0.04723
2823.98885	0.04319
2821.93504	0.03984
2819.88123	0.03716
2817.82742	0.03497
2815.77361	0.03304
2813.71980	0.03127
2811.66599	0.02968
2809.61218	0.02838
2807.55837	0.02740
2805.50456	0.02651
2803.45075	0.02555
2801.39693	0.02459
2799.34312	0.02376
2797.28931	0.02309
2795.23550	0.02252
2793.18169	0.02189
2791.12788	0.02114
2789.07407	0.02042
2787.02026	0.01988
2784.96645	0.01947
2782.91264	0.01899
2780.85883	0.01840
2778.80502	0.01788
2776.75121	0.01745
2774.69740	0.01706
2772.64359	0.01680
2770.58978	0.01662
2768.53597	0.01634
2766.48216	0.01602
2764.42835	0.01573
2762.37454	0.01550
2760.32073	0.01533
2758.26692	0.01517
2756.21311	0.01503
2754.15930	0.01486
2752.10549	0.01464
2750.05168	0.01446
2747.99787	0.01435
2745.94406	0.01426
2743.89025	0.01415
2741.83644	0.01404
2739.78263	0.01396
2737.72882	0.01393
2735.67501	0.01390
2733.62120	0.01379
2731.56739	0.01363
2729.51358	0.01349
2727.45977	0.01332
2725.40596	0.01323
2723.35215	0.01325
2721.29834	0.01325
2719.24453	0.01315
2717.19072	0.01302
2715.13691	0.01290
2713.08310	0.01285
2711.02929	0.01280
2708.97548	0.01261
2706.92167	0.01239
2704.86786	0.01232
2702.81405	0.01234
2700.76024	0.01236
2698.70643	0.01236
2696.65262	0.01225
2694.59881	0.01207
2692.54500	0.01194
2690.49119	0.01189
2688.43738	0.01189
2686.38357	0.01191
2684.32976	0.01194
2682.27595	0.01192
2680.22214	0.01189
2678.16833	0.01192
2676.11452	0.01198
2674.06071	0.01196
2672.00690	0.01195
2669.95309	0.01210
2667.89928	0.01228
2665.84547	0.01237
2663.79166	0.01241
2661.73785	0.01246
2659.68404	0.01256
2657.63023	0.01273
2655.57642	0.01282
2653.52261	0.01273
2651.46880	0.01261
2649.41499	0.01254
2647.36118	0.01248
2645.30737	0.01244
2643.25356	0.01237
2641.19975	0.01232
2639.14594	0.01229
2637.09213	0.01226
2635.03832	0.01229
2632.98451	0.01240
2630.93070	0.01242
2628.87689	0.01229
2626.82308	0.01200
2624.76927	0.01163
2622.71546	0.01144
2620.66165	0.01143
2618.60784	0.01140
2616.55403	0.01130
2614.50022	0.01115
2612.44641	0.01102
2610.39260	0.01090
2608.33879	0.01076
2606.28498	0.01067
2604.23117	0.01066
2602.17736	0.01064
2600.12355	0.01051
2598.06974	0.01030
2596.01593	0.01011
2593.96212	0.01010
2591.90831	0.01011
2589.85450	0.00997
2587.80069	0.00985
2585.74688	0.00984
2583.69307	0.00978
2581.63926	0.00973
2579.58545	0.00979
2577.53164	0.00984
2575.47783	0.00975
2573.42402	0.00952
2571.37021	0.00935
2569.31640	0.00941
2567.26259	0.00948
2565.20878	0.00941
2563.15497	0.00930
2561.10116	0.00916
2559.04735	0.00915
2556.99354	0.00941
2554.93973	0.00961
2552.88592	0.00946
2550.83211	0.00918
2548.77830	0.00905
2546.72449	0.00902
2544.67068	0.00891
2542.61687	0.00884
2540.56306	0.00894
2538.50925	0.00909
2536.45544	0.00899
2534.40163	0.00870
2532.34782	0.00854
2530.29401	0.00858
2528.24020	0.00866
2526.18639	0.00876
2524.13258	0.00889
2522.07877	0.00889
2520.02496	0.00878
2517.97115	0.00876
2515.91734	0.00879
2513.86353	0.00867
2511.80972	0.00842
2509.75591	0.00832
2507.70210	0.00839
2505.64828	0.00843
2503.59447	0.00839
2501.54066	0.00836
2499.48685	0.00832
2497.43304	0.00826
2495.37923	0.00822
2493.32542	0.00827
2491.27161	0.00840
2489.21780	0.00849
2487.16399	0.00848
2485.11018	0.00844
2483.05637	0.00840
2481.00256	0.00840
2478.94875	0.00840
2476.89494	0.00838
2474.84113	0.00839
2472.78732	0.00837
2470.73351	0.00840
2468.67970	0.00855
2466.62589	0.00856
2464.57208	0.00841
2462.51827	0.00836
2460.46446	0.00840
2458.41065	0.00842
2456.35684	0.00843
2454.30303	0.00839
2452.24922	0.00826
2450.19541	0.00828
2448.14160	0.00853
2446.08779	0.00871
2444.03398	0.00854
2441.98017	0.00826
2439.92636	0.00820
2437.87255	0.00819
2435.81874	0.00808
2433.76493	0.00813
2431.71112	0.00829
2429.65731	0.00824
2427.60350	0.00815
2425.54969	0.00824
2423.49588	0.00819
2421.44207	0.00801
2419.38826	0.00807
2417.33445	0.00826
2415.28064	0.00832
2413.22683	0.00841
2411.17302	0.00856
2409.11921	0.00851
2407.06540	0.00827
2405.01159	0.00814
2402.95778	0.00814
2400.90397	0.00808
2398.85016	0.00792
2396.79635	0.00782
2394.74254	0.00786
2392.68873	0.00793
2390.63492	0.00795
2388.58111	0.00796
2386.52730	0.00795
2384.47349	0.00793
2382.41968	0.00797
2380.36587	0.00814
2378.31206	0.00841
2376.25825	0.00853
2374.20444	0.00833
2372.15063	0.00814
2370.09682	0.00810
2368.04301	0.00808
2365.98920	0.00804
2363.93539	0.00809
2361.88158	0.00831
2359.82777	0.00843
2357.77396	0.00835
2355.72015	0.00831
2353.66634	0.00832
2351.61253	0.00839
2349.55872	0.00854
2347.50491	0.00866
2345.45110	0.00883
2343.39729	0.00920
2341.34348	0.00951
2339.28967	0.00956
2337.23586	0.00946
2335.18205	0.00934
2333.12824	0.00924
2331.07443	0.00902
2329.02062	0.00890
2326.96681	0.00926
2324.91300	0.00986
2322.85919	0.01018
2320.80538	0.01006
2318.75157	0.00977
2316.69776	0.00948
2314.64395	0.00924
2312.59014	0.00915
2310.53633	0.00909
2308.48252	0.00904
2306.42871	0.00901
2304.37490	0.00885
2302.32109	0.00863
2300.26728	0.00869
2298.21347	0.00887
2296.15966	0.00877
2294.10585	0.00850
2292.05204	0.00842
2289.99823	0.00858
2287.94442	0.00886
2285.89061	0.00895
2283.83680	0.00874
2281.78299	0.00852
2279.72918	0.00846
2277.67537	0.00848
2275.62156	0.00848
2273.56775	0.00846
2271.51394	0.00837
2269.46013	0.00809
2267.40632	0.00792
2265.35251	0.00810
2263.29870	0.00812
2261.24489	0.00790
2259.19108	0.00796
2257.13727	0.00819
2255.08346	0.00822
2253.02965	0.00810
2250.97584	0.00787
2248.92203	0.00768
2246.86822	0.00773
2244.81441	0.00798
2242.76060	0.00815
2240.70679	0.00804
2238.65298	0.00779
2236.59917	0.00775
2234.54536	0.00803
2232.49155	0.00812
2230.43774	0.00786
2228.38393	0.00769
2226.33012	0.00741
2224.27631	0.00697
2222.22250	0.00684
2220.16869	0.00696
2218.11488	0.00728
2216.06107	0.00770
2214.00726	0.00766
2211.95344	0.00720
2209.89963	0.00675
2207.84582	0.00643
2205.79201	0.00657
2203.73820	0.00713
2201.68439	0.00724
2199.63058	0.00700
2197.57677	0.00715
2195.52296	0.00751
2193.46915	0.00776
2191.41534	0.00791
2189.36153	0.00788
2187.30772	0.00791
2185.25391	0.00828
2183.20010	0.00808
2181.14629	0.00713
2179.09248	0.00677
2177.03867	0.00696
2174.98486	0.00669
2172.93105	0.00632
2170.87724	0.00665
2168.82343	0.00773
2166.76962	0.00887
2164.71581	0.00892
2162.66200	0.00785
2160.60819	0.00668
2158.55438	0.00591
2156.50057	0.00559
2154.44676	0.00595
2152.39295	0.00675
2150.33914	0.00709
2148.28533	0.00674
2146.23152	0.00665
2144.17771	0.00712
2142.12390	0.00738
2140.07009	0.00703
2138.01628	0.00642
2135.96247	0.00597
2133.90866	0.00589
2131.85485	0.00619
2129.80104	0.00648
2127.74723	0.00658
2125.69342	0.00672
2123.63961	0.00697
2121.58580	0.00717
2119.53199	0.00718
2117.47818	0.00711
2115.42437	0.00705
2113.37056	0.00708
2111.31675	0.00722
2109.26294	0.00742
2107.20913	0.00754
2105.15532	0.00755
2103.10151	0.00780
2101.04770	0.00798
2098.99389	0.00763
2096.94008	0.00705
2094.88627	0.00678
2092.83246	0.00698
2090.77865	0.00730
2088.72484	0.00735
2086.67103	0.00730
2084.61722	0.00741
2082.56341	0.00756
2080.50960	0.00776
2078.45579	0.00793
2076.40198	0.00790
2074.34817	0.00769
2072.29436	0.00732
2070.24055	0.00719
2068.18674	0.00738
2066.13293	0.00737
2064.07912	0.00738
2062.02531	0.00750
2059.97150	0.00710
2057.91769	0.00652
2055.86388	0.00641
2053.81007	0.00660
2051.75626	0.00680
2049.70245	0.00673
2047.64864	0.00651
2045.59483	0.00674
2043.54102	0.00707
2041.48721	0.00698
2039.43340	0.00701
2037.37959	0.00735
2035.32578	0.00744
2033.27197	0.00755
2031.21816	0.00799
2029.16435	0.00806
2027.11054	0.00788
2025.05673	0.00777
2023.00292	0.00759
2020.94911	0.00705
2018.89530	0.00608
2016.84149	0.00570
2014.78768	0.00618
2012.73387	0.00621
2010.68006	0.00561
2008.62625	0.00534
2006.57244	0.00536
2004.51863	0.00555
2002.46482	0.00615
2000.41101	0.00672
1998.35720	0.00723
1996.30339	0.00801
1994.24958	0.00829
1992.19577	0.00753
1990.14196	0.00701
1988.08815	0.00721
1986.03434	0.00726
1983.98053	0.00709
1981.92672	0.00676
1979.87291	0.00615
1977.81910	0.00597
1975.76529	0.00632
1973.71148	0.00603
1971.65767	0.00547
1969.60386	0.00570
1967.55005	0.00625
1965.49624	0.00660
1963.44243	0.00699
1961.38862	0.00715
1959.33481	0.00683
1957.28100	0.00655
1955.22719	0.00680
1953.17338	0.00730
1951.11957	0.00755
1949.06576	0.00770
1947.01195	0.00789
1944.95814	0.00768
1942.90433	0.00702
1940.85052	0.00653
1938.79671	0.00664
1936.74290	0.00715
1934.68909	0.00748
1932.63528	0.00740
1930.58147	0.00719
1928.52766	0.00718
1926.47385	0.00732
1924.42004	0.00741
1922.36623	0.00767
1920.31242	0.00795
1918.25861	0.00801
1916.20479	0.00805
1914.15098	0.00796
1912.09717	0.00768
1910.04336	0.00759
1907.98955	0.00765
1905.93574	0.00765
1903.88193	0.00768
1901.82812	0.00772
1899.77431	0.00775
1897.72050	0.00800
1895.66669	0.00831
1893.61288	0.00821
1891.55907	0.00788
1889.50526	0.00765
1887.45145	0.00753
1885.39764	0.00759
1883.34383	0.00784
1881.29002	0.00807
1879.23621	0.00813
1877.18240	0.00802
1875.12859	0.00784
1873.07478	0.00767
1871.02097	0.00758
1868.96716	0.00766
1866.91335	0.00776
1864.85954	0.00785
1862.80573	0.00798
1860.75192	0.00801
1858.69811	0.00799
1856.64430	0.00795
1854.59049	0.00800
1852.53668	0.00815
1850.48287	0.00817
1848.42906	0.00812
1846.37525	0.00810
1844.32144	0.00809
1842.26763	0.00812
1840.21382	0.00806
1838.16001	0.00790
1836.10620	0.00790
1834.05239	0.00804
1831.99858	0.00810
1829.94477	0.00811
1827.89096	0.00819
1825.83715	0.00825
1823.78334	0.00818
1821.72953	0.00807
1819.67572	0.00814
1817.62191	0.00824
1815.56810	0.00824
1813.51429	0.00826
1811.46048	0.00830
1809.40667	0.00824
1807.35286	0.00820
1805.29905	0.00833
1803.24524	0.00860
1801.19143	0.00879
1799.13762	0.00880
1797.08381	0.00883
1795.03000	0.00894
1792.97619	0.00902
1790.92238	0.00905
1788.86857	0.00902
1786.81476	0.00899
1784.76095	0.00903
1782.70714	0.00908
1780.65333	0.00907
1778.59952	0.00909
1776.54571	0.00915
1774.49190	0.00921
1772.43809	0.00936
1770.38428	0.00957
1768.33047	0.00968
1766.27666	0.00978
1764.22285	0.00986
1762.16904	0.00986
1760.11523	0.00994
1758.06142	0.01009
1756.00761	0.01018
1753.95380	0.01026
1751.89999	0.01043
1749.84618	0.01076
1747.79237	0.01124
1745.73856	0.01171
1743.68475	0.01205
1741.63094	0.01228
1739.57713	0.01250
1737.52332	0.01266
1735.46951	0.01280
1733.41570	0.01306
1731.36189	0.01338
1729.30808	0.01377
1727.25427	0.01437
1725.20046	0.01517
1723.14665	0.01613
1721.09284	0.01703
1719.03903	0.01774
1716.98522	0.01835
1714.93141	0.01870
1712.87760	0.01855
1710.82379	0.01795
1708.76998	0.01719
1706.71617	0.01661
1704.66236	0.01630
1702.60855	0.01609
1700.55474	0.01599
1698.50093	0.01605
1696.44712	0.01602
1694.39331	0.01584
1692.33950	0.01571
1690.28569	0.01568
1688.23188	0.01570
1686.17807	0.01583
1684.12426	0.01617
1682.07045	0.01651
1680.01664	0.01682
1677.96283	0.01714
1675.90902	0.01739
1673.85521	0.01758
1671.80140	0.01775
1669.74759	0.01801
1667.69378	0.01829
1665.63997	0.01845
1663.58616	0.01869
1661.53235	0.01896
1659.47854	0.01911
1657.42473	0.01917
1655.37092	0.01925
1653.31711	0.01944
1651.26330	0.01947
1649.20949	0.01937
1647.15568	0.01940
1645.10187	0.01937
1643.04806	0.01920
1640.99425	0.01903
1638.94044	0.01889
1636.88663	0.01882
1634.83282	0.01884
1632.77901	0.01875
1630.72520	0.01851
1628.67139	0.01820
1626.61758	0.01791
1624.56377	0.01773
1622.50996	0.01762
1620.45614	0.01738
1618.40233	0.01697
1616.34852	0.01655
1614.29471	0.01632
1612.24090	0.01622
1610.18709	0.01614
1608.13328	0.01601
1606.07947	0.01583
1604.02566	0.01561
1601.97185	0.01537
1599.91804	0.01515
1597.86423	0.01495
1595.81042	0.01478
1593.75661	0.01463
1591.70280	0.01455
1589.64899	0.01455
1587.59518	0.01457
1585.54137	0.01452
1583.48756	0.01437
1581.43375	0.01415
1579.37994	0.01398
1577.32613	0.01395
1575.27232	0.01399
1573.21851	0.01388
1571.16470	0.01375
1569.11089	0.01373
1567.05708	0.01378
1565.00327	0.01385
1562.94946	0.01386
1560.89565	0.01391
1558.84184	0.01416
1556.78803	0.01431
1554.73422	0.01436
1552.68041	0.01450
1550.62660	0.01465
1548.57279	0.01466
1546.51898	0.01447
1544.46517	0.01434
1542.41136	0.01437
1540.35755	0.01441
1538.30374	0.01443
1536.24993	0.01434
1534.19612	0.01420
1532.14231	0.01410
1530.08850	0.01406
1528.03469	0.01407
1525.98088	0.01403
1523.92707	0.01387
1521.87326	0.01378
1519.81945	0.01375
1517.76564	0.01368
1515.71183	0.01358
1513.65802	0.01344
1511.60421	0.01329
1509.55040	0.01316
1507.49659	0.01320
1505.44278	0.01339
1503.38897	0.01339
1501.33516	0.01330
1499.28135	0.01324
1497.22754	0.01325
1495.17373	0.01337
1493.11992	0.01348
1491.06611	0.01363
1489.01230	0.01396
1486.95849	0.01446
1484.90468	0.01513
1482.85087	0.01627
1480.79706	0.01856
1478.74325	0.02401
1476.68944	0.03852
1474.63563	0.06716
1472.58182	0.09580
1470.52801	0.09698
1468.47420	0.08345
1466.42039	0.07543
1464.36658	0.07767
1462.31277	0.07837
1460.25896	0.06788
1458.20515	0.05089
1456.15134	0.03770
1454.09753	0.03240
1452.04372	0.02960
1449.98991	0.02748
1447.93610	0.02603
1445.88229	0.02508
1443.82848	0.02443
1441.77467	0.02391
1439.72086	0.02344
1437.66705	0.02294
1435.61324	0.02242
1433.55943	0.02194
1431.50562	0.02140
1429.45181	0.02075
1427.39800	0.02010
1425.34419	0.01962
1423.29038	0.01926
1421.23657	0.01902
1419.18276	0.01892
1417.12895	0.01886
1415.07514	0.01879
1413.02133	0.01881
1410.96752	0.01885
1408.91371	0.01873
1406.85990	0.01846
1404.80609	0.01812
1402.75228	0.01782
1400.69847	0.01759
1398.64466	0.01737
1396.59085	0.01713
1394.53704	0.01703
1392.48323	0.01702
1390.42942	0.01697
1388.37561	0.01699
1386.32180	0.01712
1384.26799	0.01726
1382.21418	0.01749
1380.16037	0.01786
1378.10656	0.01829
1376.05275	0.01868
1373.99894	0.01899
1371.94513	0.01917
1369.89132	0.01919
1367.83751	0.01910
1365.78370	0.01897
1363.72989	0.01883
1361.67608	0.01861
1359.62227	0.01831
1357.56846	0.01796
1355.51465	0.01777
1353.46084	0.01783
1351.40703	0.01791
1349.35322	0.01788
1347.29941	0.01778
1345.24560	0.01764
1343.19179	0.01744
1341.13798	0.01724
1339.08417	0.01709
1337.03036	0.01704
1334.97655	0.01703
1332.92274	0.01701
1330.86893	0.01697
1328.81512	0.01696
1326.76130	0.01700
1324.70749	0.01713
1322.65368	0.01738
1320.59987	0.01762
1318.54606	0.01775
1316.49225	0.01790
1314.43844	0.01810
1312.38463	0.01822
1310.33082	0.01823
1308.27701	0.01826
1306.22320	0.01842
1304.16939	0.01867
1302.11558	0.01885
1300.06177	0.01888
1298.00796	0.01889
1295.95415	0.01899
1293.90034	0.01910
1291.84653	0.01912
1289.79272	0.01913
1287.73891	0.01924
1285.68510	0.01939
1283.63129	0.01951
1281.57748	0.01961
1279.52367	0.01964
1277.46986	0.01959
1275.41605	0.01963
1273.36224	0.01977
1271.30843	0.01993
1269.25462	0.02010
1267.20081	0.02024
1265.14700	0.02033
1263.09319	0.02042
1261.03938	0.02059
1258.98557	0.02082
1256.93176	0.02097
1254.87795	0.02098
1252.82414	0.02099
1250.77033	0.02114
1248.71652	0.02134
1246.66271	0.02148
1244.60890	0.02166
1242.55509	0.02182
1240.50128	0.02189
1238.44747	0.02195
1236.39366	0.02205
1234.33985	0.02216
1232.28604	0.02222
1230.23223	0.02233
1228.17842	0.02250
1226.12461	0.02261
1224.07080	0.02265
1222.01699	0.02274
1219.96318	0.02290
1217.90937	0.02307
1215.85556	0.02334
1213.80175	0.02366
1211.74794	0.02390
1209.69413	0.02396
1207.64032	0.02395
1205.58651	0.02405
1203.53270	0.02430
1201.47889	0.02458
1199.42508	0.02484
1197.37127	0.02506
1195.31746	0.02535
1193.26365	0.02573
1191.20984	0.02607
1189.15603	0.02635
1187.10222	0.02666
1185.04841	0.02705
1182.99460	0.02750
1180.94079	0.02793
1178.88698	0.02838
1176.83317	0.02897
1174.77936	0.02957
1172.72555	0.03008
1170.67174	0.03058
1168.61793	0.03102
1166.56412	0.03132
1164.51031	0.03160
1162.45650	0.03188
1160.40269	0.03205
1158.34888	0.03212
1156.29507	0.03218
1154.24126	0.03239
1152.18745	0.03281
1150.13364	0.03325
1148.07983	0.03366
1146.02602	0.03405
1143.97221	0.03442
1141.91840	0.03484
1139.86459	0.03541
1137.81078	0.03603
1135.75697	0.03670
1133.70316	0.03754
1131.64935	0.03855
1129.59554	0.03953
1127.54173	0.04041
1125.48792	0.04136
1123.43411	0.04246
1121.38030	0.04361
1119.32649	0.04471
1117.27268	0.04578
1115.21887	0.04688
1113.16506	0.04791
1111.11125	0.04876
1109.05744	0.04949
1107.00363	0.05028
1104.94982	0.05111
1102.89601	0.05187
1100.84220	0.05248
1098.78839	0.05303
1096.73458	0.05366
1094.68077	0.05434
1092.62696	0.05497
1090.57315	0.05572
1088.51934	0.05660
1086.46553	0.05740
1084.41172	0.05813
1082.35791	0.05891
1080.30410	0.05983
1078.25029	0.06078
1076.19648	0.06158
1074.14267	0.06237
1072.08886	0.06331
1070.03505	0.06427
1067.98124	0.06518
1065.92743	0.06612
1063.87362	0.06697
1061.81981	0.06787
1059.76600	0.06904
1057.71219	0.07036
1055.65838	0.07154
1053.60457	0.07253
1051.55076	0.07347
1049.49695	0.07450
1047.44314	0.07557
1045.38933	0.07656
1043.33552	0.07739
1041.28171	0.07818
1039.22790	0.07897
1037.17409	0.07962
1035.12028	0.08012
1033.06647	0.08045
1031.01265	0.08073
1028.95884	0.08097
1026.90503	0.08089
1024.85122	0.08049
1022.79741	0.08004
1020.74360	0.07964
1018.68979	0.07924
1016.63598	0.07873
1014.58217	0.07813
1012.52836	0.07763
1010.47455	0.07711
1008.42074	0.07638
1006.36693	0.07554
1004.31312	0.07461
1002.25931	0.07339
1000.20550	0.07181
998.15169	0.07004
996.09788	0.06834
994.04407	0.06679
991.99026	0.06525
989.93645	0.06359
987.88264	0.06198
985.82883	0.06047
983.77502	0.05888
981.72121	0.05713
979.66740	0.05537
977.61359	0.05383
975.55978	0.05252
973.50597	0.05111
971.45216	0.04952
969.39835	0.04808
967.34454	0.04687
965.29073	0.04581
963.23692	0.04483
961.18311	0.04384
959.12930	0.04289
957.07549	0.04205
955.02168	0.04122
952.96787	0.04051
950.91406	0.04005
948.86025	0.03966
946.80644	0.03915
944.75263	0.03862
942.69882	0.03822
940.64501	0.03807
938.59120	0.03802
936.53739	0.03783
934.48358	0.03753
932.42977	0.03724
930.37596	0.03703
928.32215	0.03684
926.26834	0.03654
924.21453	0.03629
922.16072	0.03615
920.10691	0.03599
918.05310	0.03592
915.99929	0.03610
913.94548	0.03633
911.89167	0.03619
909.83786	0.03568
907.78405	0.03504
905.73024	0.03423
903.67643	0.03328
901.62262	0.03240
899.56881	0.03165
897.51500	0.03095
895.46119	0.03029
893.40738	0.02985
891.35357	0.02954
889.29976	0.02908
887.24595	0.02863
885.19214	0.02848
883.13833	0.02844
881.08452	0.02827
879.03071	0.02799
876.97690	0.02769
874.92309	0.02742
872.86928	0.02706
870.81547	0.02653
868.76166	0.02607
866.70785	0.02574
864.65404	0.02549
862.60023	0.02536
860.54642	0.02518
858.49261	0.02486
856.43880	0.02455
854.38499	0.02430
852.33118	0.02413
850.27737	0.02422
848.22356	0.02445
846.16975	0.02456
844.11594	0.02464
842.06213	0.02471
840.00832	0.02466
837.95451	0.02461
835.90070	0.02465
833.84689	0.02470
831.79308	0.02482
829.73927	0.02511
827.68546	0.02540
825.63165	0.02555
823.57784	0.02574
821.52403	0.02597
819.47022	0.02599
817.41641	0.02598
815.36260	0.02618
813.30879	0.02643
811.25498	0.02676
809.20117	0.02724
807.14736	0.02783
805.09355	0.02866
803.03974	0.02978
800.98593	0.03071
798.93212	0.03093
796.87831	0.03068
794.82450	0.03033
792.77069	0.02977
790.71688	0.02935
788.66307	0.02939
786.60926	0.02958
784.55545	0.02981
782.50164	0.03019
780.44783	0.03053
778.39402	0.03058
776.34021	0.03023
774.28640	0.02962
772.23259	0.02918
770.17878	0.02916
768.12497	0.02937
766.07116	0.02962
764.01735	0.02970
761.96354	0.02955
759.90973	0.02935
757.85592	0.02932
755.80211	0.02947
753.74830	0.02960
751.69449	0.02972
749.64068	0.02984
747.58687	0.02977
745.53306	0.02961
743.47925	0.02971
741.42544	0.03017
739.37163	0.03095
737.31781	0.03277
735.26400	0.03887
733.21019	0.05316
731.15638	0.06947
729.10257	0.07333
727.04876	0.06648
724.99495	0.06402
722.94114	0.07454
720.88733	0.09839
718.83352	0.12313
716.77971	0.12896
714.72590	0.11192
712.67209	0.08639
710.61828	0.06690
708.56447	0.05596
706.51066	0.05011
704.45685	0.04709
702.40304	0.04553
700.34923	0.04473
698.29542	0.04438
696.24161	0.04381
694.18780	0.04293
692.13399	0.04229
690.08018	0.04197
688.02637	0.04159
685.97256	0.04097
683.91875	0.04032
681.86494	0.03987
679.81113	0.03966
677.75732	0.03943
675.70351	0.03915
673.64970	0.03898
671.59589	0.03878
669.54208	0.03872
667.48827	0.03882
665.43446	0.03857
663.38065	0.03830
661.32684	0.03836
659.27303	0.03826
657.21922	0.03794
655.16541	0.03800
653.11160	0.03824
651.05779	0.03832
649.00398	0.03848
646.95017	0.03881
644.89636	0.03905
642.84255	0.03930
640.78874	0.03961
638.73493	0.03962
636.68112	0.03937
634.62731	0.03952
632.57350	0.04021
630.51969	0.04083
628.46588	0.04102
626.41207	0.04114
624.35826	0.04133
622.30445	0.04125
620.25064	0.04102
618.19683	0.04127
616.14302	0.04190
614.08921	0.04229
612.03540	0.04233
609.98159	0.04227
607.92778	0.04247
605.87397	0.04316
603.82016	0.04407
601.76635	0.04463
599.71254	0.04479
597.65873	0.04521
595.60492	0.04598
593.55111	0.04677
591.49730	0.04735
589.44349	0.04767
587.38968	0.04818
585.33587	0.04919
583.28206	0.05032
581.22825	0.05130
579.17444	0.05223
577.12063	0.05307
575.06682	0.05379
573.01301	0.05463
570.95920	0.05545
568.90539	0.05596
566.85158	0.05622
564.79777	0.05663
562.74396	0.05771
560.69015	0.05902
558.63634	0.05997
556.58253	0.06053
554.52872	0.06072
552.47491	0.06116
550.42110	0.06176
548.36729	0.06209
546.31348	0.06291
544.25967	0.06460
542.20586	0.06620
540.15205	0.06729
538.09824	0.06823
536.04443	0.06916
533.99062	0.06999
531.93681	0.07057
529.88300	0.07098
527.82919	0.07117
525.77538	0.07089
523.72157	0.07074
521.66776	0.07110
519.61395	0.07118
517.56014	0.07023
515.50633	0.06863
513.45252	0.06762
511.39871	0.06746
509.34490	0.06725
507.29109	0.06726
505.23728	0.06782
503.18347	0.06800
501.12966	0.06744
499.07585	0.06677
497.02204	0.06650
494.96823	0.06641
492.91442	0.06623
490.86061	0.06661
488.80680	0.06788
486.75299	0.06988
484.69918	0.07287
482.64537	0.07607
480.59156	0.07851
478.53775	0.08063
476.48394	0.08286
474.43013	0.08559
472.37632	0.08880
470.32251	0.09113
468.26870	0.09195
466.21489	0.09158
464.16108	0.09067
462.10727	0.08981
460.05346	0.08892
457.99965	0.08803
455.94584	0.08659
453.89203	0.08404
451.83822	0.08162
449.78441	0.08069
447.73060	0.08015
445.67679	0.07854
443.62298	0.07672
441.56916	0.07658
439.51535	0.07742
437.46154	0.07770
435.40773	0.07754
433.35392	0.07719
431.30011	0.07727
429.24630	0.07829
427.19249	0.07904
425.13868	0.07839
423.08487	0.07703
421.03106	0.07556
418.97725	0.07503
416.92344	0.07560
414.86963	0.07404
412.81582	0.07142
410.76201	0.07000
408.70820	0.06839
406.65439	0.06612
404.60058	0.06502
402.54677	0.06549
400.49296	0.06724
398.43915	0.06888
