3996.71440	0.63076
3994.66059	0.63059
3992.60678	0.63045
3990.55297	0.63045
3988.49916	0.63048
3986.44535	0.63044
3984.39154	0.63046
3982.33773	0.63044
3980.28391	0.63033
3978.23010	0.63034
3976.17629	0.63024
3974.12248	0.63011
3972.06867	0.63024
3970.01486	0.63045
3967.96105	0.63059
3965.90724	0.63078
3963.85343	0.63080
3961.79962	0.63065
3959.74581	0.63061
3957.69200	0.63067
3955.63819	0.63062
3953.58438	0.63042
3951.53057	0.63013
3949.47676	0.62981
3947.42295	0.62955
3945.36914	0.62947
3943.31533	0.62962
3941.26152	0.62990
3939.20771	0.63005
3937.15390	0.63013
3935.10009	0.63004
3933.04628	0.62958
3930.99247	0.62934
3928.93866	0.62939
3926.88485	0.62916
3924.83104	0.62896
3922.77723	0.62921
3920.72342	0.62931
3918.66961	0.62913
3916.61580	0.62919
3914.56199	0.62944
3912.50818	0.62956
3910.45437	0.62959
3908.40056	0.62940
3906.34675	0.62890
3904.29294	0.62835
3902.23913	0.62809
3900.18532	0.62833
3898.13151	0.62902
3896.07770	0.62939
3894.02389	0.62894
3891.97008	0.62849
3889.91627	0.62871
3887.86246	0.62862
3885.80865	0.62830
3883.75484	0.62836
3881.70103	0.62854
3879.64722	0.62901
3877.59341	0.62916
3875.53960	0.62861
3873.48579	0.62805
3871.43198	0.62766
3869.37817	0.62772
3867.32436	0.62812
3865.27055	0.62800
3863.21674	0.62771
3861.16293	0.62801
3859.10912	0.62840
3857.05531	0.62796
3855.00150	0.62679
3852.94769	0.62647
3850.89388	0.62762
3848.84007	0.62861
3846.78626	0.62890
3844.73245	0.62846
3842.67864	0.62757
3840.62483	0.62669
3838.57102	0.62646
3836.51721	0.62707
3834.46340	0.62757
3832.40959	0.62790
3830.35578	0.62846
3828.30197	0.62883
3826.24816	0.62877
3824.19435	0.62838
3822.14054	0.62790
3820.08673	0.62794
3818.03292	0.62804
3815.97911	0.62824
3813.92530	0.62894
3811.87149	0.62935
3809.81768	0.62920
3807.76387	0.62874
3805.71006	0.62831
3803.65625	0.62760
3801.60244	0.62696
3799.54863	0.62731
3797.49482	0.62811
3795.44101	0.62881
3793.38720	0.62906
3791.33339	0.62896
3789.27958	0.62893
3787.22577	0.62894
3785.17196	0.62886
3783.11815	0.62860
3781.06434	0.62805
3779.01053	0.62764
3776.95672	0.62772
3774.90291	0.62791
3772.84910	0.62783
3770.79529	0.62756
3768.74148	0.62752
3766.68767	0.62746
3764.63386	0.62714
3762.58005	0.62665
3760.52624	0.62618
3758.47243	0.62605
3756.41862	0.62604
3754.36481	0.62554
3752.31100	0.62456
3750.25719	0.62383
3748.20338	0.62337
3746.14957	0.62257
3744.09576	0.62249
3742.04195	0.62315
3739.98814	0.62267
3737.93433	0.62095
3735.88052	0.61946
3733.82671	0.61989
3731.77290	0.62106
3729.71909	0.62156
3727.66528	0.62177
3725.61147	0.62215
3723.55766	0.62241
3721.50385	0.62235
3719.45004	0.62230
3717.39623	0.62235
3715.34242	0.62220
3713.28861	0.62157
3711.23480	0.62063
3709.18099	0.61983
3707.12718	0.61928
3705.07337	0.61849
3703.01956	0.61718
3700.96575	0.61601
3698.91194	0.61527
3696.85813	0.61454
3694.80432	0.61379
3692.75051	0.61318
3690.69670	0.61296
3688.64289	0.61394
3686.58907	0.61540
3684.53526	0.61598
3682.48145	0.61604
3680.42764	0.61573
3678.37383	0.61478
3676.32002	0.61432
3674.26621	0.61535
3672.21240	0.61562
3670.15859	0.61521
3668.10478	0.61563
3666.05097	0.61604
3663.99716	0.61583
3661.94335	0.61543
3659.88954	0.61495
3657.83573	0.61442
3655.78192	0.61432
3653.72811	0.61411
3651.67430	0.61305
3649.62049	0.61198
3647.56668	0.61228
3645.51287	0.61320
3643.45906	0.61375
3641.40525	0.61398
3639.35144	0.61416
3637.29763	0.61411
3635.24382	0.61345
3633.19001	0.61241
3631.13620	0.61148
3629.08239	0.61108
3627.02858	0.61149
3624.97477	0.61193
3622.92096	0.61190
3620.86715	0.61131
3618.81334	0.61099
3616.75953	0.61139
3614.70572	0.61178
3612.65191	0.61219
3610.59810	0.61269
3608.54429	0.61338
3606.49048	0.61436
3604.43667	0.61480
3602.38286	0.61467
3600.32905	0.61473
3598.27524	0.61483
3596.22143	0.61453
3594.16762	0.61443
3592.11381	0.61475
3590.06000	0.61467
3588.00619	0.61436
3585.95238	0.61478
3583.89857	0.61554
3581.84476	0.61594
3579.79095	0.61589
3577.73714	0.61583
3575.68333	0.61610
3573.62952	0.61623
3571.57571	0.61580
3569.52190	0.61499
3567.46809	0.61442
3565.41428	0.61461
3563.36047	0.61516
3561.30666	0.61566
3559.25285	0.61592
3557.19904	0.61584
3555.14523	0.61550
3553.09142	0.61531
3551.03761	0.61543
3548.98380	0.61538
3546.92999	0.61500
3544.87618	0.61475
3542.82237	0.61476
3540.76856	0.61494
3538.71475	0.61523
3536.66094	0.61535
3534.60713	0.61517
3532.55332	0.61505
3530.49951	0.61496
3528.44570	0.61481
3526.39189	0.61486
3524.33808	0.61510
3522.28427	0.61526
3520.23046	0.61523
3518.17665	0.61513
3516.12284	0.61509
3514.06903	0.61490
3512.01522	0.61460
3509.96141	0.61463
3507.90760	0.61488
3505.85379	0.61500
3503.79998	0.61507
3501.74617	0.61521
3499.69236	0.61528
3497.63855	0.61520
3495.58474	0.61513
3493.53093	0.61508
3491.47712	0.61489
3489.42331	0.61463
3487.36950	0.61446
3485.31569	0.61437
3483.26188	0.61429
3481.20807	0.61439
3479.15426	0.61460
3477.10045	0.61454
3475.04664	0.61429
3472.99283	0.61417
3470.93902	0.61429
3468.88521	0.61444
3466.83140	0.61447
3464.77759	0.61447
3462.72378	0.61431
3460.66997	0.61393
3458.61616	0.61375
3456.56235	0.61386
3454.50854	0.61402
3452.45473	0.61410
3450.40092	0.61402
3448.34711	0.61391
3446.29330	0.61378
3444.23949	0.61342
3442.18568	0.61312
3440.13187	0.61327
3438.07806	0.61360
3436.02425	0.61378
3433.97044	0.61381
3431.91663	0.61360
3429.86282	0.61334
3427.80901	0.61326
3425.75520	0.61323
3423.70139	0.61318
3421.64758	0.61309
3419.59377	0.61298
3417.53996	0.61288
3415.48615	0.61275
3413.43234	0.61258
3411.37853	0.61256
3409.32472	0.61256
3407.27091	0.61249
3405.21710	0.61243
3403.16329	0.61238
3401.10948	0.61228
3399.05567	0.61209
3397.00186	0.61191
3394.94805	0.61180
3392.89424	0.61185
3390.84042	0.61203
3388.78661	0.61222
3386.73280	0.61238
3384.67899	0.61244
3382.62518	0.61252
3380.57137	0.61261
3378.51756	0.61266
3376.46375	0.61274
3374.40994	0.61271
3372.35613	0.61251
3370.30232	0.61243
3368.24851	0.61252
3366.19470	0.61252
3364.14089	0.61242
3362.08708	0.61238
3360.03327	0.61252
3357.97946	0.61280
3355.92565	0.61296
3353.87184	0.61305
3351.81803	0.61341
3349.76422	0.61376
3347.71041	0.61372
3345.65660	0.61344
3343.60279	0.61324
3341.54898	0.61322
3339.49517	0.61327
3337.44136	0.61317
3335.38755	0.61302
3333.33374	0.61313
3331.27993	0.61339
3329.22612	0.61362
3327.17231	0.61377
3325.11850	0.61386
3323.06469	0.61387
3321.01088	0.61364
3318.95707	0.61353
3316.90326	0.61384
3314.84945	0.61418
3312.79564	0.61431
3310.74183	0.61425
3308.68802	0.61418
3306.63421	0.61423
3304.58040	0.61433
3302.52659	0.61436
3300.47278	0.61439
3298.41897	0.61451
3296.36516	0.61454
3294.31135	0.61449
3292.25754	0.61462
3290.20373	0.61479
3288.14992	0.61483
3286.09611	0.61477
3284.04230	0.61473
3281.98849	0.61489
3279.93468	0.61508
3277.88087	0.61515
3275.82706	0.61532
3273.77325	0.61560
3271.71944	0.61571
3269.66563	0.61569
3267.61182	0.61570
3265.55801	0.61576
3263.50420	0.61589
3261.45039	0.61616
3259.39658	0.61629
3257.34277	0.61625
3255.28896	0.61638
3253.23515	0.61660
3251.18134	0.61674
3249.12753	0.61685
3247.07372	0.61703
3245.01991	0.61729
3242.96610	0.61755
3240.91229	0.61778
3238.85848	0.61777
3236.80467	0.61742
3234.75086	0.61710
3232.69705	0.61727
3230.64324	0.61767
3228.58943	0.61783
3226.53562	0.61787
3224.48181	0.61809
3222.42800	0.61837
3220.37419	0.61833
3218.32038	0.61811
3216.26657	0.61817
3214.21276	0.61846
3212.15895	0.61868
3210.10514	0.61893
3208.05133	0.61917
3205.99752	0.61924
3203.94371	0.61932
3201.88990	0.61941
3199.83609	0.61939
3197.78228	0.61947
3195.72847	0.61972
3193.67466	0.61991
3191.62085	0.61997
3189.56704	0.62010
3187.51323	0.62036
3185.45942	0.62055
3183.40561	0.62062
3181.35180	0.62073
3179.29799	0.62097
3177.24418	0.62108
3175.19037	0.62099
3173.13656	0.62087
3171.08275	0.62100
3169.02894	0.62133
3166.97513	0.62156
3164.92132	0.62161
3162.86751	0.62163
3160.81370	0.62169
3158.75989	0.62173
3156.70608	0.62171
3154.65227	0.62171
3152.59846	0.62179
3150.54465	0.62208
3148.49084	0.62247
3146.43703	0.62265
3144.38322	0.62264
3142.32941	0.62266
3140.27560	0.62282
3138.22179	0.62309
3136.16798	0.62333
3134.11417	0.62354
3132.06036	0.62368
3130.00655	0.62372
3127.95274	0.62368
3125.89893	0.62368
3123.84512	0.62382
3121.79131	0.62396
3119.73750	0.62393
3117.68369	0.62382
3115.62988	0.62385
3113.57607	0.62388
3111.52226	0.62380
3109.46845	0.62382
3107.41464	0.62394
3105.36083	0.62403
3103.30702	0.62409
3101.25321	0.62416
3099.19940	0.62415
3097.14559	0.62412
3095.09177	0.62421
3093.03796	0.62433
3090.98415	0.62426
3088.93034	0.62406
3086.87653	0.62400
3084.82272	0.62411
3082.76891	0.62437
3080.71510	0.62465
3078.66129	0.62481
3076.60748	0.62483
3074.55367	0.62474
3072.49986	0.62460
3070.44605	0.62444
3068.39224	0.62438
3066.33843	0.62453
3064.28462	0.62488
3062.23081	0.62525
3060.17700	0.62545
3058.12319	0.62530
3056.06938	0.62495
3054.01557	0.62481
3051.96176	0.62483
3049.90795	0.62497
3047.85414	0.62528
3045.80033	0.62541
3043.74652	0.62528
3041.69271	0.62515
3039.63890	0.62509
3037.58509	0.62508
3035.53128	0.62505
3033.47747	0.62493
3031.42366	0.62499
3029.36985	0.62532
3027.31604	0.62563
3025.26223	0.62578
3023.20842	0.62588
3021.15461	0.62594
3019.10080	0.62582
3017.04699	0.62555
3014.99318	0.62533
3012.93937	0.62519
3010.88556	0.62522
3008.83175	0.62535
3006.77794	0.62533
3004.72413	0.62525
3002.67032	0.62516
3000.61651	0.62498
2998.56270	0.62488
2996.50889	0.62492
2994.45508	0.62494
2992.40127	0.62486
2990.34746	0.62475
2988.29365	0.62468
2986.23984	0.62438
2984.18603	0.62372
2982.13222	0.62312
2980.07841	0.62280
2978.02460	0.62266
2975.97079	0.62278
2973.91698	0.62298
2971.86317	0.62266
2969.80936	0.62193
2967.75555	0.62133
2965.70174	0.62072
2963.64793	0.61994
2961.59412	0.61916
2959.54031	0.61829
2957.48650	0.61733
2955.43269	0.61629
2953.37888	0.61504
2951.32507	0.61349
2949.27126	0.61151
2947.21745	0.60910
2945.16364	0.60622
2943.10983	0.60236
2941.05602	0.59708
2939.00221	0.59054
2936.94840	0.58294
2934.89459	0.57412
2932.84078	0.56385
2930.78697	0.55182
2928.73316	0.53755
2926.67935	0.52062
2924.62554	0.50080
2922.57173	0.47797
2920.51792	0.45317
2918.46411	0.42933
2916.41030	0.41109
2914.35649	0.40349
2912.30268	0.40828
2910.24887	0.42181
2908.19506	0.43851
2906.14125	0.45460
2904.08744	0.46848
2902.03363	0.47985
2899.97982	0.48914
2897.92601	0.49702
2895.87220	0.50415
2893.81839	0.51111
2891.76458	0.51817
2889.71077	0.52541
2887.65696	0.53292
2885.60315	0.54046
2883.54934	0.54778
2881.49553	0.55509
2879.44172	0.56261
2877.38791	0.56999
2875.33410	0.57652
2873.28029	0.58163
2871.22648	0.58513
2869.17267	0.58702
2867.11886	0.58725
2865.06505	0.58557
2863.01124	0.58148
2860.95743	0.57404
2858.90362	0.56198
2856.84981	0.54353
2854.79600	0.51676
2852.74219	0.48185
2850.68838	0.44534
2848.63457	0.42079
2846.58076	0.41902
2844.52695	0.43806
2842.47314	0.46701
2840.41933	0.49610
2838.36552	0.52050
2836.31171	0.53932
2834.25790	0.55352
2832.20409	0.56429
2830.15028	0.57259
2828.09647	0.57905
2826.04266	0.58416
2823.98885	0.58842
2821.93504	0.59198
2819.88123	0.59502
2817.82742	0.59765
2815.77361	0.59979
2813.71980	0.60164
2811.66599	0.60324
2809.61218	0.60457
2807.55837	0.60582
2805.50456	0.60702
2803.45075	0.60800
2801.39693	0.60887
2799.34312	0.60989
2797.28931	0.61106
2795.23550	0.61212
2793.18169	0.61293
2791.12788	0.61362
2789.07407	0.61423
2787.02026	0.61478
2784.96645	0.61539
2782.91264	0.61597
2780.85883	0.61648
2778.80502	0.61703
2776.75121	0.61764
2774.69740	0.61802
2772.64359	0.61809
2770.58978	0.61820
2768.53597	0.61865
2766.48216	0.61924
2764.42835	0.61964
2762.37454	0.61994
2760.32073	0.62020
2758.26692	0.62046
2756.21311	0.62074
2754.15930	0.62090
2752.10549	0.62088
2750.05168	0.62093
2747.99787	0.62119
2745.94406	0.62145
2743.89025	0.62158
2741.83644	0.62165
2739.78263	0.62158
2737.72882	0.62149
2735.67501	0.62157
2733.62120	0.62180
2731.56739	0.62203
2729.51358	0.62214
2727.45977	0.62234
2725.40596	0.62270
2723.35215	0.62291
2721.29834	0.62287
2719.24453	0.62280
2717.19072	0.62278
2715.13691	0.62281
2713.08310	0.62290
2711.02929	0.62302
2708.97548	0.62322
2706.92167	0.62338
2704.86786	0.62336
2702.81405	0.62332
2700.76024	0.62344
2698.70643	0.62373
2696.65262	0.62406
2694.59881	0.62424
2692.54500	0.62425
2690.49119	0.62423
2688.43738	0.62428
2686.38357	0.62429
2684.32976	0.62430
2682.27595	0.62441
2680.22214	0.62451
2678.16833	0.62460
2676.11452	0.62465
2674.06071	0.62455
2672.00690	0.62432
2669.95309	0.62419
2667.89928	0.62425
2665.84547	0.62428
2663.79166	0.62434
2661.73785	0.62458
2659.68404	0.62479
2657.63023	0.62479
2655.57642	0.62481
2653.52261	0.62509
2651.46880	0.62539
2649.41499	0.62554
2647.36118	0.62568
2645.30737	0.62577
2643.25356	0.62575
2641.19975	0.62571
2639.14594	0.62577
2637.09213	0.62591
2635.03832	0.62584
2632.98451	0.62569
2630.93070	0.62584
2628.87689	0.62614
2626.82308	0.62646
2624.76927	0.62689
2622.71546	0.62716
2620.66165	0.62717
2618.60784	0.62721
2616.55403	0.62728
2614.50022	0.62739
2612.44641	0.62774
2610.39260	0.62812
2608.33879	0.62821
2606.28498	0.62813
2604.23117	0.62827
2602.17736	0.62872
2600.12355	0.62905
2598.06974	0.62891
2596.01593	0.62863
2593.96212	0.62869
2591.90831	0.62899
2589.85450	0.62928
2587.80069	0.62949
2585.74688	0.62949
2583.69307	0.62931
2581.63926	0.62917
2579.58545	0.62906
2577.53164	0.62908
2575.47783	0.62941
2573.42402	0.62964
2571.37021	0.62949
2569.31640	0.62936
2567.26259	0.62946
2565.20878	0.62965
2563.15497	0.62995
2561.10116	0.63017
2559.04735	0.63005
2556.99354	0.62982
2554.93973	0.62969
2552.88592	0.62958
2550.83211	0.62946
2548.77830	0.62953
2546.72449	0.62974
2544.67068	0.62976
2542.61687	0.62977
2540.56306	0.62993
2538.50925	0.62984
2536.45544	0.62966
2534.40163	0.63010
2532.34782	0.63084
2530.29401	0.63096
2528.24020	0.63051
2526.18639	0.63021
2524.13258	0.63029
2522.07877	0.63040
2520.02496	0.63042
2517.97115	0.63042
2515.91734	0.63042
2513.86353	0.63061
2511.80972	0.63089
2509.75591	0.63085
2507.70210	0.63051
2505.64828	0.63036
2503.59447	0.63056
2501.54066	0.63084
2499.48685	0.63106
2497.43304	0.63127
2495.37923	0.63128
2493.32542	0.63100
2491.27161	0.63075
2489.21780	0.63079
2487.16399	0.63092
2485.11018	0.63118
2483.05637	0.63156
2481.00256	0.63168
2478.94875	0.63144
2476.89494	0.63104
2474.84113	0.63094
2472.78732	0.63135
2470.73351	0.63188
2468.67970	0.63215
2466.62589	0.63209
2464.57208	0.63181
2462.51827	0.63158
2460.46446	0.63157
2458.41065	0.63176
2456.35684	0.63209
2454.30303	0.63248
2452.24922	0.63265
2450.19541	0.63261
2448.14160	0.63248
2446.08779	0.63232
2444.03398	0.63223
2441.98017	0.63225
2439.92636	0.63235
2437.87255	0.63254
2435.81874	0.63273
2433.76493	0.63284
2431.71112	0.63276
2429.65731	0.63240
2427.60350	0.63207
2425.54969	0.63198
2423.49588	0.63188
2421.44207	0.63174
2419.38826	0.63170
2417.33445	0.63142
2415.28064	0.63106
2413.22683	0.63112
2411.17302	0.63150
2409.11921	0.63194
2407.06540	0.63227
2405.01159	0.63219
2402.95778	0.63173
2400.90397	0.63154
2398.85016	0.63176
2396.79635	0.63194
2394.74254	0.63198
2392.68873	0.63195
2390.63492	0.63186
2388.58111	0.63186
2386.52730	0.63185
2384.47349	0.63178
2382.41968	0.63168
2380.36587	0.63149
2378.31206	0.63141
2376.25825	0.63163
2374.20444	0.63205
2372.15063	0.63232
2370.09682	0.63213
2368.04301	0.63187
2365.98920	0.63202
2363.93539	0.63229
2361.88158	0.63258
2359.82777	0.63283
2357.77396	0.63290
2355.72015	0.63296
2353.66634	0.63262
2351.61253	0.63190
2349.55872	0.63162
2347.50491	0.63180
2345.45110	0.63177
2343.39729	0.63126
2341.34348	0.63100
2339.28967	0.63142
2337.23586	0.63198
2335.18205	0.63210
2333.12824	0.63177
2331.07443	0.63154
2329.02062	0.63203
2326.96681	0.63281
2324.91300	0.63306
2322.85919	0.63288
2320.80538	0.63276
2318.75157	0.63274
2316.69776	0.63270
2314.64395	0.63261
2312.59014	0.63265
2310.53633	0.63295
2308.48252	0.63315
2306.42871	0.63311
2304.37490	0.63320
2302.32109	0.63353
2300.26728	0.63399
2298.21347	0.63426
2296.15966	0.63423
2294.10585	0.63427
2292.05204	0.63445
2289.99823	0.63456
2287.94442	0.63456
2285.89061	0.63460
2283.83680	0.63505
2281.78299	0.63559
2279.72918	0.63553
2277.67537	0.63494
2275.62156	0.63434
2273.56775	0.63403
2271.51394	0.63395
2269.46013	0.63364
2267.40632	0.63300
2265.35251	0.63266
2263.29870	0.63306
2261.24489	0.63401
2259.19108	0.63471
2257.13727	0.63468
2255.08346	0.63447
2253.02965	0.63462
2250.97584	0.63482
2248.92203	0.63484
2246.86822	0.63492
2244.81441	0.63477
2242.76060	0.63413
2240.70679	0.63368
2238.65298	0.63385
2236.59917	0.63429
2234.54536	0.63457
2232.49155	0.63471
2230.43774	0.63484
2228.38393	0.63520
2226.33012	0.63567
2224.27631	0.63545
2222.22250	0.63501
2220.16869	0.63560
2218.11488	0.63640
2216.06107	0.63635
2214.00726	0.63602
2211.95344	0.63625
2209.89963	0.63641
2207.84582	0.63571
2205.79201	0.63511
2203.73820	0.63556
2201.68439	0.63562
2199.63058	0.63491
2197.57677	0.63515
2195.52296	0.63549
2193.46915	0.63547
2191.41534	0.63606
2189.36153	0.63636
2187.30772	0.63617
2185.25391	0.63579
2183.20010	0.63493
2181.14629	0.63466
2179.09248	0.63564
2177.03867	0.63618
2174.98486	0.63531
2172.93105	0.63455
2170.87724	0.63483
2168.82343	0.63511
2166.76962	0.63535
2164.71581	0.63622
2162.66200	0.63693
2160.60819	0.63634
2158.55438	0.63428
2156.50057	0.63221
2154.44676	0.63059
2152.39295	0.62998
2150.33914	0.63099
2148.28533	0.63209
2146.23152	0.63303
2144.17771	0.63435
2142.12390	0.63475
2140.07009	0.63394
2138.01628	0.63280
2135.96247	0.63162
2133.90866	0.63146
2131.85485	0.63241
2129.80104	0.63281
2127.74723	0.63249
2125.69342	0.63270
2123.63961	0.63347
2121.58580	0.63383
2119.53199	0.63389
2117.47818	0.63438
2115.42437	0.63530
2113.37056	0.63576
2111.31675	0.63547
2109.26294	0.63498
2107.20913	0.63441
2105.15532	0.63410
2103.10151	0.63431
2101.04770	0.63475
2098.99389	0.63530
2096.94008	0.63544
2094.88627	0.63503
2092.83246	0.63498
2090.77865	0.63499
2088.72484	0.63476
2086.67103	0.63460
2084.61722	0.63432
2082.56341	0.63424
2080.50960	0.63451
2078.45579	0.63494
2076.40198	0.63531
2074.34817	0.63520
2072.29436	0.63529
2070.24055	0.63621
2068.18674	0.63685
2066.13293	0.63652
2064.07912	0.63590
2062.02531	0.63531
2059.97150	0.63523
2057.91769	0.63587
2055.86388	0.63589
2053.81007	0.63535
2051.75626	0.63557
2049.70245	0.63563
2047.64864	0.63509
2045.59483	0.63563
2043.54102	0.63720
2041.48721	0.63848
2039.43340	0.63916
2037.37959	0.63824
2035.32578	0.63571
2033.27197	0.63455
2031.21816	0.63534
2029.16435	0.63593
2027.11054	0.63563
2025.05673	0.63481
2023.00292	0.63421
2020.94911	0.63496
2018.89530	0.63667
2016.84149	0.63738
2014.78768	0.63670
2012.73387	0.63612
2010.68006	0.63618
2008.62625	0.63608
2006.57244	0.63572
2004.51863	0.63543
2002.46482	0.63526
2000.41101	0.63551
1998.35720	0.63584
1996.30339	0.63573
1994.24958	0.63569
1992.19577	0.63603
1990.14196	0.63627
1988.08815	0.63609
1986.03434	0.63586
1983.98053	0.63633
1981.92672	0.63764
1979.87291	0.63825
1977.81910	0.63749
1975.76529	0.63692
1973.71148	0.63633
1971.65767	0.63507
1969.60386	0.63445
1967.55005	0.63482
1965.49624	0.63550
1963.44243	0.63635
1961.38862	0.63662
1959.33481	0.63598
1957.28100	0.63529
1955.22719	0.63495
1953.17338	0.63487
1951.11957	0.63473
1949.06576	0.63428
1947.01195	0.63403
1944.95814	0.63417
1942.90433	0.63431
1940.85052	0.63427
1938.79671	0.63399
1936.74290	0.63382
1934.68909	0.63396
1932.63528	0.63409
1930.58147	0.63397
1928.52766	0.63380
1926.47385	0.63384
1924.42004	0.63372
1922.36623	0.63357
1920.31242	0.63365
1918.25861	0.63386
1916.20479	0.63439
1914.15098	0.63461
1912.09717	0.63431
1910.04336	0.63413
1907.98955	0.63433
1905.93574	0.63449
1903.88193	0.63421
1901.82812	0.63389
1899.77431	0.63375
1897.72050	0.63361
1895.66669	0.63367
1893.61288	0.63404
1891.55907	0.63413
1889.50526	0.63376
1887.45145	0.63360
1885.39764	0.63408
1883.34383	0.63467
1881.29002	0.63483
1879.23621	0.63472
1877.18240	0.63467
1875.12859	0.63479
1873.07478	0.63498
1871.02097	0.63504
1868.96716	0.63458
1866.91335	0.63389
1864.85954	0.63389
1862.80573	0.63425
1860.75192	0.63443
1858.69811	0.63457
1856.64430	0.63464
1854.59049	0.63472
1852.53668	0.63481
1850.48287	0.63455
1848.42906	0.63429
1846.37525	0.63446
1844.32144	0.63460
1842.26763	0.63453
1840.21382	0.63469
1838.16001	0.63473
1836.10620	0.63425
1834.05239	0.63385
1831.99858	0.63384
1829.94477	0.63410
1827.89096	0.63445
1825.83715	0.63459
1823.78334	0.63459
1821.72953	0.63474
1819.67572	0.63464
1817.62191	0.63404
1815.56810	0.63348
1813.51429	0.63344
1811.46048	0.63377
1809.40667	0.63407
1807.35286	0.63421
1805.29905	0.63414
1803.24524	0.63381
1801.19143	0.63348
1799.13762	0.63332
1797.08381	0.63322
1795.03000	0.63310
1792.97619	0.63299
1790.92238	0.63318
1788.86857	0.63352
1786.81476	0.63366
1784.76095	0.63353
1782.70714	0.63326
1780.65333	0.63312
1778.59952	0.63307
1776.54571	0.63290
1774.49190	0.63251
1772.43809	0.63194
1770.38428	0.63175
1768.33047	0.63213
1766.27666	0.63266
1764.22285	0.63286
1762.16904	0.63266
1760.11523	0.63239
1758.06142	0.63209
1756.00761	0.63176
1753.95380	0.63140
1751.89999	0.63055
1749.84618	0.62942
1747.79237	0.62892
1745.73856	0.62890
1743.68475	0.62898
1741.63094	0.62908
1739.57713	0.62901
1737.52332	0.62877
1735.46951	0.62829
1733.41570	0.62786
1731.36189	0.62811
1729.30808	0.62856
1727.25427	0.62879
1725.20046	0.62867
1723.14665	0.62828
1721.09284	0.62781
1719.03903	0.62693
1716.98522	0.62565
1714.93141	0.62508
1712.87760	0.62548
1710.82379	0.62602
1708.76998	0.62610
1706.71617	0.62564
1704.66236	0.62511
1702.60855	0.62484
1700.55474	0.62446
1698.50093	0.62402
1696.44712	0.62377
1694.39331	0.62369
1692.33950	0.62376
1690.28569	0.62353
1688.23188	0.62272
1686.17807	0.62126
1684.12426	0.61958
1682.07045	0.61936
1680.01664	0.61981
1677.96283	0.61975
1675.90902	0.61915
1673.85521	0.61848
1671.80140	0.61782
1669.74759	0.61708
1667.69378	0.61681
1665.63997	0.61676
1663.58616	0.61642
1661.53235	0.61604
1659.47854	0.61581
1657.42473	0.61542
1655.37092	0.61452
1653.31711	0.61320
1651.26330	0.61308
1649.20949	0.61328
1647.15568	0.61302
1645.10187	0.61332
1643.04806	0.61395
1640.99425	0.61426
1638.94044	0.61421
1636.88663	0.61369
1634.83282	0.61347
1632.77901	0.61417
1630.72520	0.61477
1628.67139	0.61489
1626.61758	0.61478
1624.56377	0.61468
1622.50996	0.61493
1620.45614	0.61556
1618.40233	0.61595
1616.34852	0.61639
1614.29471	0.61736
1612.24090	0.61821
1610.18709	0.61878
1608.13328	0.61927
1606.07947	0.61970
1604.02566	0.62005
1601.97185	0.62038
1599.91804	0.62082
1597.86423	0.62127
1595.81042	0.62149
1593.75661	0.62166
1591.70280	0.62191
1589.64899	0.62216
1587.59518	0.62254
1585.54137	0.62298
1583.48756	0.62325
1581.43375	0.62330
1579.37994	0.62312
1577.32613	0.62289
1575.27232	0.62306
1573.21851	0.62344
1571.16470	0.62336
1569.11089	0.62312
1567.05708	0.62336
1565.00327	0.62365
1562.94946	0.62355
1560.89565	0.62262
1558.84184	0.62071
1556.78803	0.62062
1554.73422	0.62165
1552.68041	0.62223
1550.62660	0.62240
1548.57279	0.62243
1546.51898	0.62225
1544.46517	0.62158
1542.41136	0.62080
1540.35755	0.62065
1538.30374	0.62164
1536.24993	0.62256
1534.19612	0.62275
1532.14231	0.62293
1530.08850	0.62347
1528.03469	0.62369
1525.98088	0.62351
1523.92707	0.62315
1521.87326	0.62270
1519.81945	0.62267
1517.76564	0.62282
1515.71183	0.62321
1513.65802	0.62384
1511.60421	0.62391
1509.55040	0.62314
1507.49659	0.62222
1505.44278	0.62322
1503.38897	0.62479
1501.33516	0.62534
1499.28135	0.62502
1497.22754	0.62454
1495.17373	0.62468
1493.11992	0.62502
1491.06611	0.62461
1489.01230	0.62362
1486.95849	0.62313
1484.90468	0.62292
1482.85087	0.62213
1480.79706	0.61994
1478.74325	0.61397
1476.68944	0.59757
1474.63563	0.56543
1472.58182	0.53287
1470.52801	0.52849
1468.47420	0.54112
1466.42039	0.55030
1464.36658	0.55067
1462.31277	0.55178
1460.25896	0.56167
1458.20515	0.57706
1456.15134	0.59021
1454.09753	0.59696
1452.04372	0.60097
1449.98991	0.60372
1447.93610	0.60539
1445.88229	0.60645
1443.82848	0.60722
1441.77467	0.60799
1439.72086	0.60865
1437.66705	0.60891
1435.61324	0.60941
1433.55943	0.61049
1431.50562	0.61152
1429.45181	0.61249
1427.39800	0.61347
1425.34419	0.61418
1423.29038	0.61470
1421.23657	0.61500
1419.18276	0.61497
1417.12895	0.61546
1415.07514	0.61651
1413.02133	0.61730
1410.96752	0.61792
1408.91371	0.61862
1406.85990	0.61909
1404.80609	0.61937
1402.75228	0.61979
1400.69847	0.62006
1398.64466	0.62000
1396.59085	0.62003
1394.53704	0.62053
1392.48323	0.62139
1390.42942	0.62202
1388.37561	0.62222
1386.32180	0.62237
1384.26799	0.62262
1382.21418	0.62263
1380.16037	0.62233
1378.10656	0.62204
1376.05275	0.62172
1373.99894	0.62129
1371.94513	0.62098
1369.89132	0.62079
1367.83751	0.62080
1365.78370	0.62113
1363.72989	0.62143
1361.67608	0.62192
1359.62227	0.62277
1357.56846	0.62344
1355.51465	0.62366
1353.46084	0.62367
1351.40703	0.62385
1349.35322	0.62424
1347.29941	0.62463
1345.24560	0.62500
1343.19179	0.62530
1341.13798	0.62514
1339.08417	0.62484
1337.03036	0.62507
1334.97655	0.62564
1332.92274	0.62606
1330.86893	0.62617
1328.81512	0.62612
1326.76130	0.62609
1324.70749	0.62618
1322.65368	0.62617
1320.59987	0.62577
1318.54606	0.62523
1316.49225	0.62502
1314.43844	0.62509
1312.38463	0.62519
1310.33082	0.62532
1308.27701	0.62545
1306.22320	0.62547
1304.16939	0.62538
1302.11558	0.62539
1300.06177	0.62558
1298.00796	0.62569
1295.95415	0.62563
1293.90034	0.62566
1291.84653	0.62573
1289.79272	0.62577
1287.73891	0.62586
1285.68510	0.62601
1283.63129	0.62602
1281.57748	0.62583
1279.52367	0.62561
1277.46986	0.62548
1275.41605	0.62535
1273.36224	0.62523
1271.30843	0.62522
1269.25462	0.62520
1267.20081	0.62493
1265.14700	0.62457
1263.09319	0.62435
1261.03938	0.62420
1258.98557	0.62414
1256.93176	0.62413
1254.87795	0.62406
1252.82414	0.62406
1250.77033	0.62425
1248.71652	0.62444
1246.66271	0.62441
1244.60890	0.62423
1242.55509	0.62407
1240.50128	0.62397
1238.44747	0.62379
1236.39366	0.62353
1234.33985	0.62346
1232.28604	0.62364
1230.23223	0.62377
1228.17842	0.62381
1226.12461	0.62383
1224.07080	0.62366
1222.01699	0.62333
1219.96318	0.62295
1217.90937	0.62262
1215.85556	0.62249
1213.80175	0.62244
1211.74794	0.62224
1209.69413	0.62195
1207.64032	0.62171
1205.58651	0.62141
1203.53270	0.62099
1201.47889	0.62060
1199.42508	0.62019
1197.37127	0.61971
1195.31746	0.61925
1193.26365	0.61882
1191.20984	0.61842
1189.15603	0.61781
1187.10222	0.61697
1185.04841	0.61622
1182.99460	0.61559
1180.94079	0.61482
1178.88698	0.61379
1176.83317	0.61255
1174.77936	0.61131
1172.72555	0.61028
1170.67174	0.60930
1168.61793	0.60825
1166.56412	0.60726
1164.51031	0.60643
1162.45650	0.60566
1160.40269	0.60494
1158.34888	0.60413
1156.29507	0.60310
1154.24126	0.60222
1152.18745	0.60159
1150.13364	0.60078
1148.07983	0.59972
1146.02602	0.59863
1143.97221	0.59762
1141.91840	0.59663
1139.86459	0.59538
1137.81078	0.59380
1135.75697	0.59212
1133.70316	0.59027
1131.64935	0.58822
1129.59554	0.58611
1127.54173	0.58391
1125.48792	0.58150
1123.43411	0.57894
1121.38030	0.57642
1119.32649	0.57401
1117.27268	0.57156
1115.21887	0.56922
1113.16506	0.56721
1111.11125	0.56521
1109.05744	0.56309
1107.00363	0.56088
1104.94982	0.55867
1102.89601	0.55692
1100.84220	0.55565
1098.78839	0.55440
1096.73458	0.55309
1094.68077	0.55199
1092.62696	0.55125
1090.57315	0.55067
1088.51934	0.54996
1086.46553	0.54898
1084.41172	0.54788
1082.35791	0.54680
1080.30410	0.54580
1078.25029	0.54484
1076.19648	0.54389
1074.14267	0.54279
1072.08886	0.54141
1070.03505	0.53980
1067.98124	0.53820
1065.92743	0.53648
1063.87362	0.53431
1061.81981	0.53181
1059.76600	0.52933
1057.71219	0.52679
1055.65838	0.52388
1053.60457	0.52078
1051.55076	0.51752
1049.49695	0.51405
1047.44314	0.51075
1045.38933	0.50770
1043.33552	0.50477
1041.28171	0.50223
1039.22790	0.50023
1037.17409	0.49876
1035.12028	0.49774
1033.06647	0.49709
1031.01265	0.49688
1028.95884	0.49706
1026.90503	0.49768
1024.85122	0.49883
1022.79741	0.50008
1020.74360	0.50103
1018.68979	0.50172
1016.63598	0.50224
1014.58217	0.50268
1012.52836	0.50312
1010.47455	0.50377
1008.42074	0.50508
1006.36693	0.50710
1004.31312	0.50941
1002.25931	0.51210
1000.20550	0.51549
998.15169	0.51934
996.09788	0.52350
994.04407	0.52791
991.99026	0.53232
989.93645	0.53674
987.88264	0.54134
985.82883	0.54583
983.77502	0.54990
981.72121	0.55392
979.66740	0.55813
977.61359	0.56203
975.55978	0.56533
973.50597	0.56827
971.45216	0.57109
969.39835	0.57384
967.34454	0.57643
965.29073	0.57891
963.23692	0.58129
961.18311	0.58331
959.12930	0.58505
957.07549	0.58682
955.02168	0.58827
952.96787	0.58928
950.91406	0.59035
948.86025	0.59134
946.80644	0.59191
944.75263	0.59250
942.69882	0.59334
940.64501	0.59395
938.59120	0.59431
936.53739	0.59464
934.48358	0.59494
932.42977	0.59526
930.37596	0.59542
928.32215	0.59515
926.26834	0.59470
924.21453	0.59444
922.16072	0.59407
920.10691	0.59296
918.05310	0.59121
915.99929	0.58957
913.94548	0.58854
911.89167	0.58815
909.83786	0.58828
907.78405	0.58938
905.73024	0.59200
903.67643	0.59557
901.62262	0.59903
899.56881	0.60195
897.51500	0.60437
895.46119	0.60647
893.40738	0.60834
891.35357	0.60983
889.29976	0.61101
887.24595	0.61207
885.19214	0.61291
883.13833	0.61354
881.08452	0.61401
879.03071	0.61408
876.97690	0.61406
874.92309	0.61435
872.86928	0.61513
870.81547	0.61666
868.76166	0.61852
866.70785	0.62017
864.65404	0.62142
862.60023	0.62228
860.54642	0.62292
858.49261	0.62331
856.43880	0.62384
854.38499	0.62501
852.33118	0.62632
850.27737	0.62704
848.22356	0.62718
846.16975	0.62711
844.11594	0.62709
842.06213	0.62712
840.00832	0.62731
837.95451	0.62775
835.90070	0.62808
833.84689	0.62805
831.79308	0.62787
829.73927	0.62779
827.68546	0.62802
825.63165	0.62868
823.57784	0.62918
821.52403	0.62898
819.47022	0.62827
817.41641	0.62764
815.36260	0.62761
813.30879	0.62806
811.25498	0.62860
809.20117	0.62859
807.14736	0.62762
805.09355	0.62646
803.03974	0.62570
800.98593	0.62503
798.93212	0.62463
796.87831	0.62463
794.82450	0.62468
792.77069	0.62488
790.71688	0.62523
788.66307	0.62544
786.60926	0.62527
784.55545	0.62494
782.50164	0.62499
780.44783	0.62517
778.39402	0.62517
776.34021	0.62513
774.28640	0.62517
772.23259	0.62559
770.17878	0.62592
768.12497	0.62564
766.07116	0.62531
764.01735	0.62506
761.96354	0.62480
759.90973	0.62481
757.85592	0.62446
755.80211	0.62338
753.74830	0.62246
751.69449	0.62207
749.64068	0.62184
747.58687	0.62197
745.53306	0.62242
743.47925	0.62246
741.42544	0.62220
739.37163	0.62164
737.31781	0.61966
735.26400	0.61401
733.21019	0.60048
731.15638	0.58369
729.10257	0.57818
727.04876	0.58367
724.99495	0.58527
722.94114	0.57388
720.88733	0.54959
718.83352	0.52424
716.77971	0.51513
714.72590	0.52750
712.67209	0.55135
710.61828	0.57200
708.56447	0.58365
706.51066	0.58895
704.45685	0.59179
702.40304	0.59378
700.34923	0.59471
698.29542	0.59485
696.24161	0.59465
694.18780	0.59442
692.13399	0.59451
690.08018	0.59447
688.02637	0.59444
685.97256	0.59504
683.91875	0.59563
681.86494	0.59592
679.81113	0.59598
677.75732	0.59608
675.70351	0.59686
673.64970	0.59750
671.59589	0.59708
669.54208	0.59638
667.48827	0.59675
665.43446	0.59755
663.38065	0.59828
661.32684	0.59900
659.27303	0.59896
657.21922	0.59869
655.16541	0.59891
653.11160	0.59934
651.05779	0.60001
649.00398	0.60014
646.95017	0.59949
644.89636	0.59958
642.84255	0.60036
640.78874	0.60036
638.73493	0.59975
636.68112	0.59952
634.62731	0.59960
632.57350	0.59964
630.51969	0.59965
628.46588	0.59914
626.41207	0.59816
624.35826	0.59762
622.30445	0.59766
620.25064	0.59752
618.19683	0.59739
616.14302	0.59719
614.08921	0.59586
612.03540	0.59416
609.98159	0.59303
607.92778	0.59177
605.87397	0.59011
603.82016	0.58862
601.76635	0.58831
599.71254	0.58895
597.65873	0.58857
595.60492	0.58710
593.55111	0.58636
591.49730	0.58643
589.44349	0.58619
587.38968	0.58527
585.33587	0.58396
583.28206	0.58306
581.22825	0.58232
579.17444	0.58116
577.12063	0.58025
575.06682	0.57976
573.01301	0.57904
570.95920	0.57793
568.90539	0.57663
566.85158	0.57483
564.79777	0.57284
562.74396	0.57169
560.69015	0.57063
558.63634	0.56859
556.58253	0.56641
554.52872	0.56475
552.47491	0.56315
550.42110	0.56143
548.36729	0.55995
546.31348	0.55868
544.25967	0.55695
542.20586	0.55511
540.15205	0.55407
538.09824	0.55353
536.04443	0.55267
533.99062	0.55175
531.93681	0.55208
529.88300	0.55256
527.82919	0.55206
525.77538	0.55241
523.72157	0.55404
521.66776	0.55577
519.61395	0.55724
517.56014	0.55814
515.50633	0.55917
513.45252	0.56114
511.39871	0.56263
509.34490	0.56306
507.29109	0.56360
505.23728	0.56449
503.18347	0.56537
501.12966	0.56587
499.07585	0.56576
497.02204	0.56546
494.96823	0.56549
492.91442	0.56544
490.86061	0.56500
488.80680	0.56378
486.75299	0.56131
484.69918	0.55873
482.64537	0.55594
480.59156	0.55145
478.53775	0.54627
476.48394	0.54073
474.43013	0.53435
472.37632	0.52884
470.32251	0.52551
468.26870	0.52426
466.21489	0.52516
464.16108	0.52825
462.10727	0.53300
460.05346	0.53753
457.99965	0.54081
455.94584	0.54306
453.89203	0.54477
451.83822	0.54725
449.78441	0.55030
447.73060	0.55249
445.67679	0.55419
443.62298	0.55633
441.56916	0.55723
439.51535	0.55514
437.46154	0.55161
435.40773	0.54894
433.35392	0.54834
431.30011	0.55011
429.24630	0.55299
427.19249	0.55531
425.13868	0.55783
423.08487	0.56023
421.03106	0.56002
418.97725	0.55948
416.92344	0.56168
414.86963	0.56450
412.81582	0.56784
410.76201	0.57120
408.70820	0.57407
406.65439	0.57670
404.60058	0.57945
402.54677	0.58254
400.49296	0.58678
398.43915	0.59369
