3996.70104	0.98883
3994.64724	0.98936
3992.59344	0.98975
3990.53964	0.98984
3988.48583	0.98990
3986.43203	0.98976
3984.37823	0.98943
3982.32442	0.98915
3980.27062	0.98913
3978.21682	0.98939
3976.16301	0.99002
3974.10921	0.99057
3972.05541	0.99053
3970.00160	0.99002
3967.94780	0.98935
3965.89400	0.98900
3963.84019	0.98904
3961.78639	0.98931
3959.73259	0.98972
3957.67878	0.98999
3955.62498	0.98997
3953.57118	0.98981
3951.51737	0.98974
3949.46357	0.98973
3947.40977	0.98954
3945.35596	0.98950
3943.30216	0.98996
3941.24836	0.99011
3939.19455	0.98989
3937.14075	0.99005
3935.08695	0.99009
3933.03315	0.98958
3930.97934	0.98931
3928.92554	0.98962
3926.87174	0.98978
3924.81793	0.98934
3922.76413	0.98878
3920.71033	0.98857
3918.65652	0.98850
3916.60272	0.98844
3914.54892	0.98868
3912.49511	0.98916
3910.44131	0.98951
3908.38751	0.98971
3906.33370	0.98984
3904.27990	0.98995
3902.22610	0.99026
3900.17229	0.99056
3898.11849	0.99021
3896.06469	0.98971
3894.01088	0.98956
3891.95708	0.98962
3889.90328	0.98993
3887.84947	0.98998
3885.79567	0.98984
3883.74187	0.99003
3881.68807	0.99001
3879.63426	0.99016
3877.58046	0.99067
3875.52666	0.99073
3873.47285	0.99074
3871.41905	0.99094
3869.36525	0.99073
3867.31144	0.99068
3865.25764	0.99077
3863.20384	0.99057
3861.15003	0.99051
3859.09623	0.99011
3857.04243	0.98916
3854.98862	0.98859
3852.93482	0.98912
3850.88102	0.98972
3848.82721	0.98988
3846.77341	0.99009
3844.71961	0.99066
3842.66580	0.99091
3840.61200	0.99024
3838.55820	0.98942
3836.50439	0.98875
3834.45059	0.98855
3832.39679	0.98912
3830.34298	0.98988
3828.28918	0.99030
3826.23538	0.99019
3824.18158	0.98985
3822.12777	0.99037
3820.07397	0.99198
3818.02017	0.99229
3815.96636	0.99061
3813.91256	0.98918
3811.85876	0.98916
3809.80495	0.98930
3807.75115	0.98936
3805.69735	0.98983
3803.64354	0.99014
3801.58974	0.99011
3799.53594	0.99028
3797.48213	0.99030
3795.42833	0.98981
3793.37453	0.98910
3791.32072	0.98890
3789.26692	0.98948
3787.21312	0.99019
3785.15931	0.99048
3783.10551	0.99021
3781.05171	0.98977
3778.99790	0.98958
3776.94410	0.98960
3774.89030	0.98972
3772.83650	0.98963
3770.78269	0.98936
3768.72889	0.98956
3766.67509	0.98996
3764.62128	0.98995
3762.56748	0.98966
3760.51368	0.98935
3758.45987	0.98975
3756.40607	0.99074
3754.35227	0.99099
3752.29846	0.99036
3750.24466	0.98945
3748.19086	0.98933
3746.13705	0.99005
3744.08325	0.99068
3742.02945	0.99046
3739.97564	0.99024
3737.92184	0.99021
3735.86804	0.98960
3733.81423	0.98904
3731.76043	0.98908
3729.70663	0.98904
3727.65282	0.98911
3725.59902	0.98955
3723.54522	0.98995
3721.49141	0.98970
3719.43761	0.98910
3717.38381	0.98848
3715.33001	0.98785
3713.27620	0.98752
3711.22240	0.98735
3709.16860	0.98689
3707.11479	0.98645
3705.06099	0.98586
3703.00719	0.98483
3700.95338	0.98395
3698.89958	0.98371
3696.84578	0.98340
3694.79197	0.98316
3692.73817	0.98364
3690.68437	0.98453
3688.63056	0.98487
3686.57676	0.98450
3684.52296	0.98414
3682.46915	0.98401
3680.41535	0.98390
3678.36155	0.98349
3676.30774	0.98290
3674.25394	0.98255
3672.20014	0.98244
3670.14633	0.98202
3668.09253	0.98091
3666.03873	0.98036
3663.98492	0.98012
3661.93112	0.97928
3659.87732	0.97849
3657.82352	0.97825
3655.76971	0.97838
3653.71591	0.97878
3651.66211	0.97865
3649.60830	0.97732
3647.55450	0.97547
3645.50070	0.97394
3643.44689	0.97315
3641.39309	0.97309
3639.33929	0.97303
3637.28548	0.97270
3635.23168	0.97244
3633.17788	0.97232
3631.12407	0.97215
3629.07027	0.97115
3627.01647	0.97003
3624.96266	0.97030
3622.90886	0.97060
3620.85506	0.97015
3618.80125	0.96979
3616.74745	0.97000
3614.69365	0.97012
3612.63984	0.97018
3610.58604	0.97077
3608.53224	0.97130
3606.47844	0.97112
3604.42463	0.97083
3602.37083	0.97078
3600.31703	0.97055
3598.26322	0.97041
3596.20942	0.97073
3594.15562	0.97078
3592.10181	0.97011
3590.04801	0.96917
3587.99421	0.96859
3585.94040	0.96898
3583.88660	0.96975
3581.83280	0.96970
3579.77899	0.96892
3577.72519	0.96845
3575.67139	0.96860
3573.61758	0.96894
3571.56378	0.96899
3569.50998	0.96831
3567.45617	0.96738
3565.40237	0.96713
3563.34857	0.96696
3561.29476	0.96659
3559.24096	0.96650
3557.18716	0.96691
3555.13335	0.96738
3553.07955	0.96731
3551.02575	0.96673
3548.97195	0.96597
3546.91814	0.96571
3544.86434	0.96620
3542.81054	0.96661
3540.75673	0.96672
3538.70293	0.96679
3536.64913	0.96657
3534.59532	0.96636
3532.54152	0.96655
3530.48772	0.96706
3528.43391	0.96791
3526.38011	0.96853
3524.32631	0.96834
3522.27250	0.96782
3520.21870	0.96751
3518.16490	0.96726
3516.11109	0.96731
3514.05729	0.96761
3512.00349	0.96740
3509.94968	0.96705
3507.89588	0.96701
3505.84208	0.96687
3503.78827	0.96689
3501.73447	0.96758
3499.68067	0.96826
3497.62687	0.96849
3495.57306	0.96848
3493.51926	0.96811
3491.46546	0.96773
3489.41165	0.96771
3487.35785	0.96748
3485.30405	0.96700
3483.25024	0.96681
3481.19644	0.96651
3479.14264	0.96618
3477.08883	0.96640
3475.03503	0.96678
3472.98123	0.96686
3470.92742	0.96698
3468.87362	0.96728
3466.81982	0.96751
3464.76601	0.96759
3462.71221	0.96751
3460.65841	0.96736
3458.60460	0.96710
3456.55080	0.96666
3454.49700	0.96613
3452.44319	0.96573
3450.38939	0.96564
3448.33559	0.96593
3446.28178	0.96607
3444.22798	0.96539
3442.17418	0.96446
3440.12038	0.96416
3438.06657	0.96444
3436.01277	0.96496
3433.95897	0.96526
3431.90516	0.96507
3429.85136	0.96481
3427.79756	0.96483
3425.74375	0.96511
3423.68995	0.96554
3421.63615	0.96567
3419.58234	0.96548
3417.52854	0.96532
3415.47474	0.96497
3413.42093	0.96444
3411.36713	0.96420
3409.31333	0.96422
3407.25952	0.96422
3405.20572	0.96428
3403.15192	0.96458
3401.09811	0.96499
3399.04431	0.96534
3396.99051	0.96551
3394.93670	0.96542
3392.88290	0.96519
3390.82910	0.96492
3388.77529	0.96481
3386.72149	0.96504
3384.66769	0.96549
3382.61389	0.96582
3380.56008	0.96600
3378.50628	0.96615
3376.45248	0.96615
3374.39867	0.96627
3372.34487	0.96648
3370.29107	0.96638
3368.23726	0.96644
3366.18346	0.96702
3364.12966	0.96738
3362.07585	0.96727
3360.02205	0.96708
3357.96825	0.96682
3355.91444	0.96650
3353.86064	0.96659
3351.80684	0.96715
3349.75303	0.96740
3347.69923	0.96718
3345.64543	0.96720
3343.59162	0.96765
3341.53782	0.96805
3339.48402	0.96818
3337.43021	0.96811
3335.37641	0.96794
3333.32261	0.96801
3331.26881	0.96834
3329.21500	0.96874
3327.16120	0.96928
3325.10740	0.96971
3323.05359	0.96972
3320.99979	0.96931
3318.94599	0.96874
3316.89218	0.96858
3314.83838	0.96914
3312.78458	0.97003
3310.73077	0.97058
3308.67697	0.97077
3306.62317	0.97070
3304.56936	0.97025
3302.51556	0.96953
3300.46176	0.96906
3298.40795	0.96921
3296.35415	0.96956
3294.30035	0.96980
3292.24654	0.97004
3290.19274	0.97064
3288.13894	0.97121
3286.08513	0.97137
3284.03133	0.97168
3281.97753	0.97180
3279.92372	0.97141
3277.86992	0.97129
3275.81612	0.97160
3273.76232	0.97192
3271.70851	0.97167
3269.65471	0.97092
3267.60091	0.97083
3265.54710	0.97155
3263.49330	0.97192
3261.43950	0.97203
3259.38569	0.97230
3257.33189	0.97244
3255.27809	0.97278
3253.22428	0.97323
3251.17048	0.97305
3249.11668	0.97260
3247.06287	0.97232
3245.00907	0.97226
3242.95527	0.97278
3240.90146	0.97346
3238.84766	0.97340
3236.79386	0.97267
3234.74005	0.97233
3232.68625	0.97300
3230.63245	0.97394
3228.57864	0.97419
3226.52484	0.97384
3224.47104	0.97349
3222.41724	0.97325
3220.36343	0.97323
3218.30963	0.97376
3216.25583	0.97439
3214.20202	0.97474
3212.14822	0.97489
3210.09442	0.97474
3208.04061	0.97465
3205.98681	0.97490
3203.93301	0.97517
3201.87920	0.97519
3199.82540	0.97511
3197.77160	0.97520
3195.71779	0.97548
3193.66399	0.97584
3191.61019	0.97626
3189.55638	0.97650
3187.50258	0.97642
3185.44878	0.97645
3183.39497	0.97650
3181.34117	0.97628
3179.28737	0.97635
3177.23356	0.97680
3175.17976	0.97694
3173.12596	0.97693
3171.07215	0.97706
3169.01835	0.97701
3166.96455	0.97707
3164.91075	0.97735
3162.85694	0.97724
3160.80314	0.97686
3158.74934	0.97706
3156.69553	0.97790
3154.64173	0.97852
3152.58793	0.97864
3150.53412	0.97856
3148.48032	0.97843
3146.42652	0.97835
3144.37271	0.97860
3142.31891	0.97915
3140.26511	0.97919
3138.21130	0.97849
3136.15750	0.97813
3134.10370	0.97842
3132.04989	0.97886
3129.99609	0.97937
3127.94229	0.97980
3125.88848	0.97996
3123.83468	0.97956
3121.78088	0.97901
3119.72707	0.97906
3117.67327	0.97931
3115.61947	0.97937
3113.56566	0.97942
3111.51186	0.97937
3109.45806	0.97920
3107.40426	0.97930
3105.35045	0.97968
3103.29665	0.98012
3101.24285	0.98060
3099.18904	0.98105
3097.13524	0.98131
3095.08144	0.98099
3093.02763	0.98054
3090.97383	0.98048
3088.92003	0.98030
3086.86622	0.98017
3084.81242	0.98033
3082.75862	0.98033
3080.70481	0.98037
3078.65101	0.98053
3076.59721	0.98061
3074.54340	0.98061
3072.48960	0.98055
3070.43580	0.98049
3068.38199	0.98037
3066.32819	0.98037
3064.27439	0.98053
3062.22058	0.98066
3060.16678	0.98084
3058.11298	0.98074
3056.05918	0.98047
3054.00537	0.98067
3051.95157	0.98100
3049.89777	0.98108
3047.84396	0.98131
3045.79016	0.98163
3043.73636	0.98186
3041.68255	0.98215
3039.62875	0.98235
3037.57495	0.98245
3035.52114	0.98292
3033.46734	0.98348
3031.41354	0.98342
3029.35973	0.98319
3027.30593	0.98331
3025.25213	0.98329
3023.19832	0.98290
3021.14452	0.98240
3019.09072	0.98218
3017.03691	0.98225
3014.98311	0.98219
3012.92931	0.98208
3010.87550	0.98195
3008.82170	0.98173
3006.76790	0.98161
3004.71409	0.98135
3002.66029	0.98070
3000.60649	0.98040
2998.55269	0.98072
2996.49888	0.98106
2994.44508	0.98112
2992.39128	0.98069
2990.33747	0.98006
2988.28367	0.97989
2986.22987	0.97958
2984.17606	0.97863
2982.12226	0.97766
2980.06846	0.97670
2978.01465	0.97569
2975.96085	0.97473
2973.90705	0.97340
2971.85324	0.97177
2969.79944	0.97005
2967.74564	0.96805
2965.69183	0.96574
2963.63803	0.96337
2961.58423	0.96116
2959.53042	0.95942
2957.47662	0.95856
2955.42282	0.95788
2953.36901	0.95685
2951.31521	0.95640
2949.26141	0.95755
2947.20761	0.96018
2945.15380	0.96354
2943.10000	0.96701
2941.04620	0.96946
2938.99239	0.96999
2936.93859	0.96885
2934.88479	0.96670
2932.83098	0.96395
2930.77718	0.96092
2928.72338	0.95784
2926.66957	0.95479
2924.61577	0.95191
2922.56197	0.94947
2920.50816	0.94782
2918.45436	0.94762
2916.40056	0.94934
2914.34675	0.95221
2912.29295	0.95492
2910.23915	0.95716
2908.18534	0.95935
2906.13154	0.96180
2904.07774	0.96437
2902.02393	0.96642
2899.97013	0.96764
2897.91633	0.96863
2895.86252	0.96971
2893.80872	0.97072
2891.75492	0.97167
2889.70112	0.97223
2887.64731	0.97235
2885.59351	0.97237
2883.53971	0.97233
2881.48590	0.97210
2879.43210	0.97154
2877.37830	0.97088
2875.32449	0.97086
2873.27069	0.97162
2871.21689	0.97231
2869.16308	0.97230
2867.10928	0.97228
2865.05548	0.97304
2863.00167	0.97439
2860.94787	0.97571
2858.89407	0.97648
2856.84026	0.97652
2854.78646	0.97618
2852.73266	0.97582
2850.67885	0.97551
2848.62505	0.97540
2846.57125	0.97554
2844.51744	0.97538
2842.46364	0.97465
2840.40984	0.97411
2838.35603	0.97443
2836.30223	0.97552
2834.24843	0.97712
2832.19463	0.97890
2830.14082	0.98050
2828.08702	0.98184
2826.03322	0.98287
2823.97941	0.98368
2821.92561	0.98428
2819.87181	0.98465
2817.81800	0.98498
2815.76420	0.98541
2813.71040	0.98575
2811.65659	0.98577
2809.60279	0.98579
2807.54899	0.98601
2805.49518	0.98613
2803.44138	0.98610
2801.38758	0.98637
2799.33377	0.98692
2797.27997	0.98718
2795.22617	0.98719
2793.17236	0.98719
2791.11856	0.98701
2789.06476	0.98683
2787.01095	0.98707
2784.95715	0.98751
2782.90335	0.98769
2780.84955	0.98773
2778.79574	0.98773
2776.74194	0.98769
2774.68814	0.98763
2772.63433	0.98764
2770.58053	0.98781
2768.52673	0.98789
2766.47292	0.98784
2764.41912	0.98784
2762.36532	0.98756
2760.31151	0.98719
2758.25771	0.98734
2756.20391	0.98773
2754.15010	0.98803
2752.09630	0.98835
2750.04250	0.98846
2747.98869	0.98826
2745.93489	0.98813
2743.88109	0.98810
2741.82728	0.98806
2739.77348	0.98817
2737.71968	0.98826
2735.66587	0.98821
2733.61207	0.98843
2731.55827	0.98887
2729.50446	0.98889
2727.45066	0.98857
2725.39686	0.98830
2723.34306	0.98823
2721.28925	0.98840
2719.23545	0.98860
2717.18165	0.98873
2715.12784	0.98886
2713.07404	0.98892
2711.02024	0.98892
2708.96643	0.98891
2706.91263	0.98884
2704.85883	0.98892
2702.80502	0.98909
2700.75122	0.98897
2698.69742	0.98871
2696.64361	0.98853
2694.58981	0.98852
2692.53601	0.98877
2690.48220	0.98909
2688.42840	0.98933
2686.37460	0.98950
2684.32079	0.98958
2682.26699	0.98955
2680.21319	0.98941
2678.15938	0.98918
2676.10558	0.98906
2674.05178	0.98927
2671.99797	0.98950
2669.94417	0.98951
2667.89037	0.98947
2665.83657	0.98928
2663.78276	0.98897
2661.72896	0.98872
2659.67516	0.98851
2657.62135	0.98848
2655.56755	0.98878
2653.51375	0.98910
2651.45994	0.98920
2649.40614	0.98922
2647.35234	0.98922
2645.29853	0.98916
2643.24473	0.98906
2641.19093	0.98917
2639.13712	0.98938
2637.08332	0.98926
2635.02952	0.98881
2632.97571	0.98829
2630.92191	0.98814
2628.86811	0.98829
2626.81430	0.98819
2624.76050	0.98823
2622.70670	0.98865
2620.65289	0.98861
2618.59909	0.98836
2616.54529	0.98875
2614.49149	0.98936
2612.43768	0.98980
2610.38388	0.99011
2608.33008	0.99018
2606.27627	0.99017
2604.22247	0.99020
2602.16867	0.99036
2600.11486	0.99065
2598.06106	0.99079
2596.00726	0.99095
2593.95345	0.99094
2591.89965	0.99022
2589.84585	0.98955
2587.79204	0.98975
2585.73824	0.98992
2583.68444	0.98938
2581.63063	0.98902
2579.57683	0.98937
2577.52303	0.98983
2575.46922	0.98973
2573.41542	0.98929
2571.36162	0.98918
2569.30781	0.98936
2567.25401	0.98946
2565.20021	0.98944
2563.14640	0.98973
2561.09260	0.99049
2559.03880	0.99105
2556.98500	0.99104
2554.93119	0.99086
2552.87739	0.99075
2550.82359	0.99073
2548.76978	0.99103
2546.71598	0.99150
2544.66218	0.99171
2542.60837	0.99155
2540.55457	0.99110
2538.50077	0.99069
2536.44696	0.99085
2534.39316	0.99136
2532.33936	0.99206
2530.28555	0.99276
2528.23175	0.99251
2526.17795	0.99159
2524.12414	0.99079
2522.07034	0.99032
2520.01654	0.99021
2517.96273	0.99008
2515.90893	0.99004
2513.85513	0.99047
2511.80132	0.99130
2509.74752	0.99202
2507.69372	0.99212
2505.63992	0.99158
2503.58611	0.99104
2501.53231	0.99110
2499.47851	0.99176
2497.42470	0.99270
2495.37090	0.99340
2493.31710	0.99366
2491.26329	0.99343
2489.20949	0.99277
2487.15569	0.99214
2485.10188	0.99187
2483.04808	0.99193
2480.99428	0.99176
2478.94047	0.99131
2476.88667	0.99113
2474.83287	0.99132
2472.77906	0.99191
2470.72526	0.99249
2468.67146	0.99255
2466.61765	0.99221
2464.56385	0.99189
2462.51005	0.99190
2460.45624	0.99202
2458.40244	0.99226
2456.34864	0.99245
2454.29483	0.99229
2452.24103	0.99209
2450.18723	0.99184
2448.13343	0.99151
2446.07962	0.99141
2444.02582	0.99145
2441.97202	0.99164
2439.91821	0.99193
2437.86441	0.99222
2435.81061	0.99224
2433.75680	0.99177
2431.70300	0.99167
2429.64920	0.99213
2427.59539	0.99193
2425.54159	0.99151
2423.48779	0.99200
2421.43398	0.99299
2419.38018	0.99368
2417.32638	0.99343
2415.27257	0.99223
2413.21877	0.99126
2411.16497	0.99114
2409.11116	0.99145
2407.05736	0.99175
2405.00356	0.99191
2402.94975	0.99223
2400.89595	0.99264
2398.84215	0.99255
2396.78834	0.99221
2394.73454	0.99192
2392.68074	0.99142
2390.62694	0.99097
2388.57313	0.99073
2386.51933	0.99069
2384.46553	0.99132
2382.41172	0.99216
2380.35792	0.99241
2378.30412	0.99238
2376.25031	0.99235
2374.19651	0.99211
2372.14271	0.99180
2370.08890	0.99163
2368.03510	0.99152
2365.98130	0.99185
2363.92749	0.99237
2361.87369	0.99263
2359.81989	0.99266
2357.76608	0.99199
2355.71228	0.99167
2353.65848	0.99281
2351.60467	0.99359
2349.55087	0.99292
2347.49707	0.99201
2345.44326	0.99179
2343.38946	0.99222
2341.33566	0.99285
2339.28186	0.99296
2337.22805	0.99249
2335.17425	0.99187
2333.12045	0.99112
2331.06664	0.99038
2329.01284	0.99020
2326.95904	0.99014
2324.90523	0.98965
2322.85143	0.98943
2320.79763	0.98989
2318.74382	0.99055
2316.69002	0.99114
2314.63622	0.99143
2312.58241	0.99149
2310.52861	0.99146
2308.47481	0.99118
2306.42100	0.99101
2304.36720	0.99094
2302.31340	0.99105
2300.25959	0.99140
2298.20579	0.99115
2296.15199	0.99065
2294.09818	0.99083
2292.04438	0.99094
2289.99058	0.99005
2287.93677	0.98923
2285.88297	0.98925
2283.82917	0.98933
2281.77537	0.98952
2279.72156	0.99007
2277.66776	0.99071
2275.61396	0.99151
2273.56015	0.99229
2271.50635	0.99230
2269.45255	0.99161
2267.39874	0.99089
2265.34494	0.99117
2263.29114	0.99275
2261.23733	0.99407
2259.18353	0.99389
2257.12973	0.99274
2255.07592	0.99201
2253.02212	0.99186
2250.96832	0.99198
2248.91451	0.99265
2246.86071	0.99410
2244.80691	0.99556
2242.75310	0.99516
2240.69930	0.99390
2238.64550	0.99457
2236.59169	0.99586
2234.53789	0.99502
2232.48409	0.99302
2230.43029	0.99089
2228.37648	0.98899
2226.32268	0.98930
2224.26888	0.99173
2222.21507	0.99446
2220.16127	0.99650
2218.10747	0.99674
2216.05366	0.99562
2213.99986	0.99403
2211.94606	0.99241
2209.89225	0.99277
2207.83845	0.99463
2205.78465	0.99575
2203.73084	0.99534
2201.67704	0.99374
2199.62324	0.99260
2197.56943	0.99292
2195.51563	0.99460
2193.46183	0.99634
2191.40802	0.99632
2189.35422	0.99566
2187.30042	0.99584
2185.24661	0.99544
2183.19281	0.99378
2181.13901	0.99187
2179.08520	0.99032
2177.03140	0.99065
2174.97760	0.99278
2172.92380	0.99363
2170.86999	0.99289
2168.81619	0.99196
2166.76239	0.99224
2164.70858	0.99402
2162.65478	0.99411
2160.60098	0.99347
2158.54717	0.99671
2156.49337	0.99968
2154.43957	0.99782
2152.38576	0.99616
2150.33196	0.99737
2148.27816	0.99955
2146.22435	0.99972
2144.17055	0.99626
2142.11675	0.99312
2140.06294	0.99297
2138.00914	0.99384
2135.95534	0.99441
2133.90153	0.99593
2131.84773	0.99805
2129.79393	0.99824
2127.74012	0.99675
2125.68632	0.99574
2123.63252	0.99509
2121.57871	0.99403
2119.52491	0.99320
2117.47111	0.99297
2115.41731	0.99258
2113.36350	0.99204
2111.30970	0.99269
2109.25590	0.99433
2107.20209	0.99524
2105.14829	0.99441
2103.09449	0.99249
2101.04068	0.99102
2098.98688	0.99094
2096.93308	0.99193
2094.87927	0.99313
2092.82547	0.99378
2090.77167	0.99253
2088.71786	0.99133
2086.66406	0.99275
2084.61026	0.99388
2082.55645	0.99267
2080.50265	0.99168
2078.44885	0.99238
2076.39504	0.99363
2074.34124	0.99499
2072.28744	0.99578
2070.23363	0.99492
2068.17983	0.99349
2066.12603	0.99262
2064.07223	0.99220
2062.01842	0.99173
2059.96462	0.99104
2057.91082	0.99221
2055.85701	0.99548
2053.80321	0.99635
2051.74941	0.99436
2049.69560	0.99354
2047.64180	0.99369
2045.58800	0.99309
2043.53419	0.99277
2041.48039	0.99186
2039.42659	0.99055
2037.37278	0.99194
2035.31898	0.99483
2033.26518	0.99694
2031.21137	0.99871
2029.15757	0.99864
2027.10377	0.99700
2025.04996	0.99627
2022.99616	0.99569
2020.94236	0.99499
2018.88855	0.99477
2016.83475	0.99464
2014.78095	0.99423
2012.72714	0.99384
2010.67334	0.99473
2008.61954	0.99628
2006.56574	0.99738
2004.51193	0.99733
2002.45813	0.99572
2000.40433	0.99404
1998.35052	0.99337
1996.29672	0.99366
1994.24292	0.99441
1992.18911	0.99465
1990.13531	0.99415
1988.08151	0.99360
1986.02770	0.99332
1983.97390	0.99258
1981.92010	0.99137
1979.86629	0.99108
1977.81249	0.99099
1975.75869	0.99091
1973.70488	0.99275
1971.65108	0.99462
1969.59728	0.99524
1967.54347	0.99620
1965.48967	0.99655
1963.43587	0.99580
1961.38206	0.99546
1959.32826	0.99526
1957.27446	0.99489
1955.22066	0.99471
1953.16685	0.99462
1951.11305	0.99405
1949.05925	0.99248
1947.00544	0.99193
1944.95164	0.99353
1942.89784	0.99464
1940.84403	0.99475
1938.79023	0.99529
1936.73643	0.99480
1934.68262	0.99315
1932.62882	0.99312
1930.57502	0.99459
1928.52121	0.99464
1926.46741	0.99361
1924.41361	0.99339
1922.35980	0.99384
1920.30600	0.99442
1918.25220	0.99449
1916.19839	0.99372
1914.14459	0.99310
1912.09079	0.99329
1910.03698	0.99392
1907.98318	0.99399
1905.92938	0.99342
1903.87557	0.99291
1901.82177	0.99255
1899.76797	0.99230
1897.71417	0.99238
1895.66036	0.99298
1893.60656	0.99339
1891.55276	0.99327
1889.49895	0.99322
1887.44515	0.99282
1885.39135	0.99197
1883.33754	0.99169
1881.28374	0.99250
1879.22994	0.99319
1877.17613	0.99323
1875.12233	0.99351
1873.06853	0.99362
1871.01472	0.99313
1868.96092	0.99243
1866.90712	0.99209
1864.85331	0.99232
1862.79951	0.99246
1860.74571	0.99198
1858.69190	0.99117
1856.63810	0.99102
1854.58430	0.99154
1852.53049	0.99161
1850.47669	0.99111
1848.42289	0.99138
1846.36908	0.99242
1844.31528	0.99266
1842.26148	0.99215
1840.20768	0.99167
1838.15387	0.99092
1836.10007	0.99026
1834.04627	0.99004
1831.99246	0.99010
1829.93866	0.99053
1827.88486	0.99067
1825.83105	0.99016
1823.77725	0.98995
1821.72345	0.99013
1819.66964	0.99025
1817.61584	0.99020
1815.56204	0.98963
1813.50823	0.98876
1811.45443	0.98820
1809.40063	0.98800
1807.34682	0.98794
1805.29302	0.98778
1803.23922	0.98754
1801.18541	0.98760
1799.13161	0.98795
1797.07781	0.98826
1795.02400	0.98841
1792.97020	0.98835
1790.91640	0.98801
1788.86260	0.98767
1786.80879	0.98739
1784.75499	0.98699
1782.70119	0.98681
1780.64738	0.98676
1778.59358	0.98636
1776.53978	0.98585
1774.48597	0.98585
1772.43217	0.98637
1770.37837	0.98656
1768.32456	0.98622
1766.27076	0.98581
1764.21696	0.98528
1762.16315	0.98436
1760.10935	0.98355
1758.05555	0.98286
1756.00174	0.98147
1753.94794	0.97942
1751.89414	0.97665
1749.84033	0.97171
1747.78653	0.96432
1745.73273	0.95546
1743.67892	0.94480
1741.62512	0.93212
1739.57132	0.91729
1737.51751	0.90341
1735.46371	0.88909
1733.40991	0.86884
1731.35611	0.85157
1729.30230	0.83859
1727.24850	0.82555
1725.19470	0.81229
1723.14089	0.79884
1721.08709	0.78761
1719.03329	0.77712
1716.97948	0.76487
1714.92568	0.75866
1712.87188	0.76114
1710.81807	0.76975
1708.76427	0.78349
1706.71047	0.80218
1704.65666	0.82349
1702.60286	0.84173
1700.54906	0.86057
1698.49525	0.87876
1696.44145	0.89191
1694.38765	0.90301
1692.33384	0.91081
1690.28004	0.91695
1688.22624	0.92198
1686.17243	0.92569
1684.11863	0.92918
1682.06483	0.93228
1680.01103	0.93504
1677.95722	0.93799
1675.90342	0.94114
1673.84962	0.94431
1671.79581	0.94678
1669.74201	0.94889
1667.68821	0.95089
1665.63440	0.95252
1663.58060	0.95413
1661.52680	0.95576
1659.47299	0.95735
1657.41919	0.95874
1655.36539	0.95954
1653.31158	0.95958
1651.25778	0.96004
1649.20398	0.96094
1647.15017	0.96186
1645.09637	0.96255
1643.04257	0.96294
1640.98876	0.96330
1638.93496	0.96362
1636.88116	0.96376
1634.82735	0.96357
1632.77355	0.96373
1630.71975	0.96444
1628.66594	0.96501
1626.61214	0.96485
1624.55834	0.96456
1622.50454	0.96459
1620.45073	0.96472
1618.39693	0.96441
1616.34313	0.96330
1614.28932	0.96272
1612.23552	0.96326
1610.18172	0.96427
1608.12791	0.96529
1606.07411	0.96627
1604.02031	0.96722
1601.96650	0.96791
1599.91270	0.96838
1597.85890	0.96896
1595.80509	0.96961
1593.75129	0.96990
1591.69749	0.96978
1589.64368	0.96970
1587.58988	0.96976
1585.53608	0.96928
1583.48227	0.96795
1581.42847	0.96628
1579.37467	0.96502
1577.32086	0.96473
1575.26706	0.96607
1573.21326	0.96822
1571.15945	0.97008
1569.10565	0.97170
1567.05185	0.97291
1564.99805	0.97344
1562.94424	0.97328
1560.89044	0.97287
1558.83664	0.97337
1556.78283	0.97519
1554.72903	0.97603
1552.67523	0.97584
1550.62142	0.97530
1548.56762	0.97485
1546.51382	0.97466
1544.46001	0.97479
1542.40621	0.97528
1540.35241	0.97525
1538.29860	0.97397
1536.24480	0.97307
1534.19100	0.97223
1532.13719	0.97104
1530.08339	0.97017
1528.02959	0.96941
1525.97578	0.96827
1523.92198	0.96695
1521.86818	0.96545
1519.81437	0.96412
1517.76057	0.96323
1515.70677	0.96238
1513.65297	0.96142
1511.59916	0.95964
1509.54536	0.95642
1507.49156	0.94996
1505.43775	0.94366
1503.38395	0.94404
1501.33015	0.94689
1499.27634	0.94969
1497.22254	0.95132
1495.16874	0.95160
1493.11493	0.95139
1491.06113	0.95061
1489.00733	0.94875
1486.95352	0.94631
1484.89972	0.94387
1482.84592	0.94148
1480.79211	0.93923
1478.73831	0.93747
1476.68451	0.93594
1474.63070	0.93426
1472.57690	0.93263
1470.52310	0.93170
1468.46929	0.93145
1466.41549	0.93063
1464.36169	0.92857
1462.30788	0.92687
1460.25408	0.92600
1458.20028	0.92464
1456.14648	0.92294
1454.09267	0.92292
1452.03887	0.92415
1449.98507	0.92615
1447.93126	0.92893
1445.87746	0.93203
1443.82366	0.93458
1441.76985	0.93634
1439.71605	0.93763
1437.66225	0.93887
1435.60844	0.94067
1433.55464	0.94318
1431.50084	0.94582
1429.44703	0.94823
1427.39323	0.95017
1425.33943	0.95178
1423.28562	0.95272
1421.23182	0.95217
1419.17802	0.94911
1417.12421	0.94302
1415.07041	0.93459
1413.01661	0.92331
1410.96280	0.91142
1408.90900	0.90473
1406.85520	0.90676
1404.80139	0.91636
1402.74759	0.92794
1400.69379	0.93739
1398.63999	0.94470
1396.58618	0.94982
1394.53238	0.95359
1392.47858	0.95635
1390.42477	0.95814
1388.37097	0.95922
1386.31717	0.95907
1384.26336	0.95734
1382.20956	0.95379
1380.15576	0.94813
1378.10195	0.94237
1376.04815	0.94020
1373.99435	0.94264
1371.94054	0.94676
1369.88674	0.95039
1367.83294	0.95386
1365.77913	0.95717
1363.72533	0.95996
1361.67153	0.96190
1359.61772	0.96298
1357.56392	0.96349
1355.51012	0.96344
1353.45631	0.96249
1351.40251	0.96006
1349.34871	0.95558
1347.29491	0.94882
1345.24110	0.93980
1343.18730	0.92965
1341.13350	0.92087
1339.07969	0.91714
1337.02589	0.92109
1334.97209	0.93071
1332.91828	0.94212
1330.86448	0.95204
1328.81068	0.95881
1326.75687	0.96233
1324.70307	0.96326
1322.64927	0.96250
1320.59546	0.96087
1318.54166	0.95891
1316.48786	0.95680
1314.43405	0.95435
1312.38025	0.95152
1310.32645	0.94856
1308.27264	0.94538
1306.21884	0.94193
1304.16504	0.93842
1302.11123	0.93443
1300.05743	0.92918
1298.00363	0.92253
1295.94982	0.91502
1293.89602	0.90750
1291.84222	0.90029
1289.78842	0.89322
1287.73461	0.88642
1285.68081	0.88020
1283.62701	0.87424
1281.57320	0.86812
1279.51940	0.86195
1277.46560	0.85543
1275.41179	0.84806
1273.35799	0.83947
1271.30419	0.82935
1269.25038	0.81829
1267.19658	0.80739
1265.14278	0.79742
1263.08897	0.78906
1261.03517	0.78292
1258.98137	0.77912
1256.92756	0.77669
1254.87376	0.77406
1252.81996	0.77037
1250.76615	0.76568
1248.71235	0.76020
1246.65855	0.75457
1244.60474	0.75008
1242.55094	0.74807
1240.49714	0.74955
1238.44334	0.75476
1236.38953	0.76360
1234.33573	0.77562
1232.28193	0.78942
1230.22812	0.80339
1228.17432	0.81671
1226.12052	0.82906
1224.06671	0.84033
1222.01291	0.85071
1219.95911	0.86038
1217.90530	0.86940
1215.85150	0.87757
1213.79770	0.88431
1211.74389	0.88937
1209.69009	0.89319
1207.63629	0.89629
1205.58248	0.89855
1203.52868	0.89983
1201.47488	0.90070
1199.42107	0.90158
1197.36727	0.90208
1195.31347	0.90174
1193.25966	0.90070
1191.20586	0.89921
1189.15206	0.89725
1187.09825	0.89504
1185.04445	0.89264
1182.99065	0.88940
1180.93685	0.88505
1178.88304	0.88029
1176.82924	0.87588
1174.77544	0.87222
1172.72163	0.86949
1170.66783	0.86758
1168.61403	0.86646
1166.56022	0.86571
1164.50642	0.86473
1162.45262	0.86373
1160.39881	0.86306
1158.34501	0.86231
1156.29121	0.86095
1154.23740	0.85884
1152.18360	0.85626
1150.12980	0.85355
1148.07599	0.85068
1146.02219	0.84741
1143.96839	0.84361
1141.91458	0.83947
1139.86078	0.83512
1137.80698	0.83017
1135.75317	0.82434
1133.69937	0.81763
1131.64557	0.80999
1129.59176	0.80161
1127.53796	0.79277
1125.48416	0.78365
1123.43036	0.77461
1121.37655	0.76633
1119.32275	0.75952
1117.26895	0.75464
1115.21514	0.75207
1113.16134	0.75122
1111.10754	0.74983
1109.05373	0.74550
1106.99993	0.73773
1104.94613	0.72786
1102.89232	0.71754
1100.83852	0.70793
1098.78472	0.69977
1096.73091	0.69329
1094.67711	0.68862
1092.62331	0.68608
1090.56950	0.68524
1088.51570	0.68542
1086.46190	0.68637
1084.40809	0.68805
1082.35429	0.69038
1080.30049	0.69345
1078.24668	0.69780
1076.19288	0.70356
1074.13908	0.71020
1072.08528	0.71653
1070.03147	0.72146
1067.97767	0.72518
1065.92387	0.72827
1063.87006	0.73060
1061.81626	0.73203
1059.76246	0.73284
1057.70865	0.73297
1055.65485	0.73238
1053.60105	0.73105
1051.54724	0.72896
1049.49344	0.72620
1047.43964	0.72269
1045.38583	0.71911
1043.33203	0.71614
1041.27823	0.71302
1039.22442	0.70949
1037.17062	0.70654
1035.11682	0.70451
1033.06301	0.70333
1031.00921	0.70288
1028.95541	0.70246
1026.90160	0.70080
1024.84780	0.69645
1022.79400	0.68832
1020.74019	0.67690
1018.68639	0.66510
1016.63259	0.65770
1014.57879	0.65795
1012.52498	0.66408
1010.47118	0.67158
1008.41738	0.67788
1006.36357	0.68280
1004.30977	0.68636
1002.25597	0.68871
1000.20216	0.69075
998.14836	0.69306
996.09456	0.69561
994.04075	0.69837
991.98695	0.70122
989.93315	0.70423
987.87934	0.70771
985.82554	0.71155
983.77174	0.71562
981.71793	0.71995
979.66413	0.72428
977.61033	0.72837
975.55652	0.73251
973.50272	0.73749
971.44892	0.74370
969.39511	0.75080
967.34131	0.75876
965.28751	0.76752
963.23371	0.77652
961.17990	0.78519
959.12610	0.79280
957.07230	0.79944
955.01849	0.80559
952.96469	0.81125
950.91089	0.81665
948.85708	0.82194
946.80328	0.82687
944.74948	0.83115
942.69567	0.83477
940.64187	0.83810
938.58807	0.84142
936.53426	0.84468
934.48046	0.84802
932.42666	0.85171
930.37285	0.85536
928.31905	0.85854
926.26525	0.86123
924.21144	0.86330
922.15764	0.86498
920.10384	0.86657
918.05003	0.86778
915.99623	0.86881
913.94243	0.87008
911.88862	0.87112
909.83482	0.87218
907.78102	0.87370
905.72722	0.87492
903.67341	0.87567
901.61961	0.87675
899.56581	0.87851
897.51200	0.88093
895.45820	0.88402
893.40440	0.88715
891.35059	0.88942
889.29679	0.89039
887.24299	0.88983
885.18918	0.88694
883.13538	0.88008
881.08158	0.86889
879.02777	0.85494
876.97397	0.84020
874.92017	0.82750
872.86636	0.82277
870.81256	0.83109
868.75876	0.84790
866.70495	0.86256
864.65115	0.87059
862.59735	0.87476
860.54354	0.87828
858.48974	0.88185
856.43594	0.88497
854.38213	0.88747
852.32833	0.88899
850.27453	0.88906
848.22073	0.88840
846.16692	0.88874
844.11312	0.89073
842.05932	0.89308
840.00551	0.89503
837.95171	0.89712
835.89791	0.89967
833.84410	0.90260
831.79030	0.90563
829.73650	0.90799
827.68269	0.90958
825.62889	0.91116
823.57509	0.91268
821.52128	0.91365
819.46748	0.91440
817.41368	0.91483
815.35987	0.91420
813.30607	0.91277
811.25227	0.91066
809.19846	0.90746
807.14466	0.90295
805.09086	0.89690
803.03705	0.89109
800.98325	0.88791
798.92945	0.88640
796.87565	0.88412
794.82184	0.88160
792.76804	0.88178
790.71424	0.88511
788.66043	0.88930
786.60663	0.89241
784.55283	0.89363
782.49902	0.89382
780.44522	0.89467
778.39142	0.89714
776.33761	0.90087
774.28381	0.90464
772.23001	0.90756
770.17620	0.90923
768.12240	0.90988
766.06860	0.91007
764.01479	0.91038
761.96099	0.91125
759.90719	0.91232
757.85338	0.91306
755.79958	0.91369
753.74578	0.91423
751.69197	0.91449
749.63817	0.91463
747.58437	0.91390
745.53056	0.91133
743.47676	0.90606
741.42296	0.89610
739.36916	0.87906
737.31535	0.85409
735.26155	0.82386
733.20775	0.79273
731.15394	0.76156
729.10014	0.72969
727.04634	0.70026
724.99253	0.67879
722.93873	0.67039
720.88493	0.67761
718.83112	0.69742
716.77732	0.72224
714.72352	0.74544
712.66971	0.76495
710.61591	0.78147
708.56211	0.79513
706.50830	0.80584
704.45450	0.81455
702.40070	0.82254
700.34689	0.83072
698.29309	0.83901
696.23929	0.84673
694.18548	0.85346
692.13168	0.85903
690.07788	0.86355
688.02408	0.86692
685.97027	0.86858
683.91647	0.86867
681.86267	0.86840
679.80886	0.86941
677.75506	0.87196
675.70126	0.87481
673.64745	0.87735
671.59365	0.87985
669.53985	0.88188
667.48604	0.88265
665.43224	0.88382
663.37844	0.88577
661.32463	0.88648
659.27083	0.88519
657.21703	0.88361
655.16322	0.88228
653.10942	0.88023
651.05562	0.87834
649.00181	0.87811
646.94801	0.87895
644.89421	0.88049
642.84040	0.88312
640.78660	0.88578
638.73280	0.88700
636.67899	0.88645
634.62519	0.88512
632.57139	0.88474
630.51759	0.88555
628.46378	0.88689
626.40998	0.88830
624.35618	0.88911
622.30237	0.88881
620.24857	0.88718
618.19477	0.88494
616.14096	0.88222
614.08716	0.87865
612.03336	0.87525
609.97955	0.87270
607.92575	0.87107
605.87195	0.87044
603.81814	0.86982
601.76434	0.86802
599.71054	0.86469
597.65673	0.86076
595.60293	0.85767
593.54913	0.85613
591.49532	0.85639
589.44152	0.85742
587.38772	0.85674
585.33391	0.85488
583.28011	0.85503
581.22631	0.85709
579.17250	0.85869
577.11870	0.85967
575.06490	0.86052
573.01110	0.86047
570.95729	0.85935
568.90349	0.85732
566.84969	0.85560
564.79588	0.85461
562.74208	0.85225
560.68828	0.84848
558.63447	0.84459
556.58067	0.84137
554.52687	0.84004
552.47306	0.83893
550.41926	0.83554
548.36546	0.83085
546.31165	0.82704
544.25785	0.82442
542.20405	0.82061
540.15024	0.81480
538.09644	0.80917
536.04264	0.80567
533.98883	0.80425
531.93503	0.80298
529.88123	0.80155
527.82742	0.80137
525.77362	0.80214
523.71982	0.80244
521.66602	0.80373
519.61221	0.80664
517.55841	0.80876
515.50461	0.80991
513.45080	0.81056
511.39700	0.81067
509.34320	0.80967
507.28939	0.80638
505.23559	0.80355
503.18179	0.80334
501.12798	0.80377
499.07418	0.80523
497.02038	0.80829
494.96657	0.81003
492.91277	0.80770
490.85897	0.80202
488.80516	0.79663
486.75136	0.79271
484.69756	0.78760
482.64375	0.77921
480.58995	0.76909
478.53615	0.76076
476.48234	0.75674
474.42854	0.75540
472.37474	0.75369
470.32093	0.75032
468.26713	0.74701
466.21333	0.74833
464.15953	0.75283
462.10572	0.75555
460.05192	0.75896
457.99812	0.76693
455.94431	0.77573
453.89051	0.78179
451.83671	0.78586
449.78290	0.78755
447.72910	0.78811
445.67530	0.78842
443.62149	0.78732
441.56769	0.78596
439.51389	0.78514
437.46008	0.78123
435.40628	0.77608
433.35248	0.77475
431.29867	0.77507
429.24487	0.77445
427.19107	0.77364
425.13726	0.77498
423.08346	0.78143
421.02966	0.79414
418.97585	0.80461
416.92205	0.80243
414.86825	0.79974
412.81445	0.80270
410.76064	0.80685
408.70684	0.80805
406.65304	0.81115
404.59923	0.81559
402.54543	0.81371
400.49163	0.80784
398.43782	0.80195
