3996.71440	0.99204
3994.66059	0.99220
3992.60678	0.99219
3990.55297	0.99178
3988.49916	0.99132
3986.44535	0.99117
3984.39154	0.99115
3982.33773	0.99130
3980.28391	0.99157
3978.23010	0.99186
3976.17629	0.99204
3974.12248	0.99200
3972.06867	0.99213
3970.01486	0.99224
3967.96105	0.99197
3965.90724	0.99177
3963.85343	0.99177
3961.79962	0.99168
3959.74581	0.99155
3957.69200	0.99145
3955.63819	0.99138
3953.58438	0.99142
3951.53057	0.99150
3949.47676	0.99153
3947.42295	0.99156
3945.36914	0.99152
3943.31533	0.99151
3941.26152	0.99169
3939.20771	0.99185
3937.15390	0.99191
3935.10009	0.99200
3933.04628	0.99210
3930.99247	0.99194
3928.93866	0.99190
3926.88485	0.99222
3924.83104	0.99235
3922.77723	0.99205
3920.72342	0.99166
3918.66961	0.99167
3916.61580	0.99190
3914.56199	0.99193
3912.50818	0.99194
3910.45437	0.99182
3908.40056	0.99154
3906.34675	0.99143
3904.29294	0.99146
3902.23913	0.99137
3900.18532	0.99118
3898.13151	0.99130
3896.07770	0.99168
3894.02389	0.99184
3891.97008	0.99178
3889.91627	0.99177
3887.86246	0.99174
3885.80865	0.99186
3883.75484	0.99205
3881.70103	0.99182
3879.64722	0.99160
3877.59341	0.99188
3875.53960	0.99214
3873.48579	0.99194
3871.43198	0.99159
3869.37817	0.99132
3867.32436	0.99132
3865.27055	0.99159
3863.21674	0.99194
3861.16293	0.99206
3859.10912	0.99195
3857.05531	0.99180
3855.00150	0.99139
3852.94769	0.99097
3850.89388	0.99120
3848.84007	0.99163
3846.78626	0.99196
3844.73245	0.99182
3842.67864	0.99123
3840.62483	0.99110
3838.57102	0.99165
3836.51721	0.99208
3834.46340	0.99220
3832.40959	0.99211
3830.35578	0.99205
3828.30197	0.99219
3826.24816	0.99221
3824.19435	0.99202
3822.14054	0.99191
3820.08673	0.99220
3818.03292	0.99271
3815.97911	0.99289
3813.92530	0.99252
3811.87149	0.99200
3809.81768	0.99168
3807.76387	0.99148
3805.71006	0.99121
3803.65625	0.99112
3801.60244	0.99156
3799.54863	0.99179
3797.49482	0.99112
3795.44101	0.99064
3793.38720	0.99093
3791.33339	0.99131
3789.27958	0.99162
3787.22577	0.99181
3785.17196	0.99161
3783.11815	0.99118
3781.06434	0.99091
3779.01053	0.99101
3776.95672	0.99132
3774.90291	0.99144
3772.84910	0.99133
3770.79529	0.99119
3768.74148	0.99101
3766.68767	0.99074
3764.63386	0.99055
3762.58005	0.99060
3760.52624	0.99073
3758.47243	0.99086
3756.41862	0.99087
3754.36481	0.99076
3752.31100	0.99066
3750.25719	0.99043
3748.20338	0.99041
3746.14957	0.99071
3744.09576	0.99093
3742.04195	0.99093
3739.98814	0.99088
3737.93433	0.99100
3735.88052	0.99101
3733.82671	0.99040
3731.77290	0.99008
3729.71909	0.99032
3727.66528	0.99046
3725.61147	0.99023
3723.55766	0.98969
3721.50385	0.98927
3719.45004	0.98928
3717.39623	0.98948
3715.34242	0.98938
3713.28861	0.98879
3711.23480	0.98806
3709.18099	0.98764
3707.12718	0.98729
3705.07337	0.98705
3703.01956	0.98684
3700.96575	0.98643
3698.91194	0.98612
3696.85813	0.98583
3694.80432	0.98548
3692.75051	0.98494
3690.69670	0.98388
3688.64289	0.98268
3686.58907	0.98187
3684.53526	0.98138
3682.48145	0.98094
3680.42764	0.98031
3678.37383	0.97951
3676.32002	0.97848
3674.26621	0.97688
3672.21240	0.97542
3670.15859	0.97438
3668.10478	0.97337
3666.05097	0.97202
3663.99716	0.97059
3661.94335	0.96970
3659.88954	0.96911
3657.83573	0.96826
3655.78192	0.96704
3653.72811	0.96583
3651.67430	0.96457
3649.62049	0.96294
3647.56668	0.96129
3645.51287	0.95996
3643.45906	0.95851
3641.40525	0.95671
3639.35144	0.95516
3637.29763	0.95422
3635.24382	0.95339
3633.19001	0.95219
3631.13620	0.95066
3629.08239	0.94884
3627.02858	0.94766
3624.97477	0.94717
3622.92096	0.94638
3620.86715	0.94550
3618.81334	0.94480
3616.75953	0.94376
3614.70572	0.94253
3612.65191	0.94131
3610.59810	0.94009
3608.54429	0.93907
3606.49048	0.93836
3604.43667	0.93773
3602.38286	0.93669
3600.32905	0.93520
3598.27524	0.93382
3596.22143	0.93266
3594.16762	0.93169
3592.11381	0.93099
3590.06000	0.93038
3588.00619	0.92962
3585.95238	0.92869
3583.89857	0.92771
3581.84476	0.92660
3579.79095	0.92544
3577.73714	0.92446
3575.68333	0.92368
3573.62952	0.92282
3571.57571	0.92163
3569.52190	0.92023
3567.46809	0.91898
3565.41428	0.91811
3563.36047	0.91712
3561.30666	0.91569
3559.25285	0.91427
3557.19904	0.91316
3555.14523	0.91215
3553.09142	0.91117
3551.03761	0.91050
3548.98380	0.90984
3546.92999	0.90870
3544.87618	0.90738
3542.82237	0.90634
3540.76856	0.90568
3538.71475	0.90497
3536.66094	0.90387
3534.60713	0.90282
3532.55332	0.90199
3530.49951	0.90103
3528.44570	0.89992
3526.39189	0.89891
3524.33808	0.89782
3522.28427	0.89661
3520.23046	0.89590
3518.17665	0.89549
3516.12284	0.89468
3514.06903	0.89356
3512.01522	0.89251
3509.96141	0.89170
3507.90760	0.89109
3505.85379	0.89061
3503.79998	0.89000
3501.74617	0.88897
3499.69236	0.88780
3497.63855	0.88682
3495.58474	0.88588
3493.53093	0.88488
3491.47712	0.88385
3489.42331	0.88275
3487.36950	0.88186
3485.31569	0.88134
3483.26188	0.88070
3481.20807	0.87986
3479.15426	0.87918
3477.10045	0.87860
3475.04664	0.87806
3472.99283	0.87766
3470.93902	0.87708
3468.88521	0.87609
3466.83140	0.87498
3464.77759	0.87414
3462.72378	0.87359
3460.66997	0.87308
3458.61616	0.87259
3456.56235	0.87201
3454.50854	0.87118
3452.45473	0.87040
3450.40092	0.86989
3448.34711	0.86951
3446.29330	0.86893
3444.23949	0.86813
3442.18568	0.86744
3440.13187	0.86677
3438.07806	0.86594
3436.02425	0.86498
3433.97044	0.86417
3431.91663	0.86363
3429.86282	0.86311
3427.80901	0.86244
3425.75520	0.86178
3423.70139	0.86115
3421.64758	0.86067
3419.59377	0.86023
3417.53996	0.85934
3415.48615	0.85824
3413.43234	0.85755
3411.37853	0.85741
3409.32472	0.85768
3407.27091	0.85805
3405.21710	0.85813
3403.16329	0.85804
3401.10948	0.85806
3399.05567	0.85821
3397.00186	0.85847
3394.94805	0.85884
3392.89424	0.85916
3390.84042	0.85932
3388.78661	0.85921
3386.73280	0.85907
3384.67899	0.85929
3382.62518	0.85965
3380.57137	0.85971
3378.51756	0.85956
3376.46375	0.85945
3374.40994	0.85953
3372.35613	0.85991
3370.30232	0.86043
3368.24851	0.86069
3366.19470	0.86072
3364.14089	0.86084
3362.08708	0.86122
3360.03327	0.86158
3357.97946	0.86159
3355.92565	0.86142
3353.87184	0.86145
3351.81803	0.86158
3349.76422	0.86171
3347.71041	0.86206
3345.65660	0.86236
3343.60279	0.86256
3341.54898	0.86292
3339.49517	0.86304
3337.44136	0.86280
3335.38755	0.86262
3333.33374	0.86277
3331.27993	0.86306
3329.22612	0.86338
3327.17231	0.86376
3325.11850	0.86397
3323.06469	0.86407
3321.01088	0.86423
3318.95707	0.86460
3316.90326	0.86517
3314.84945	0.86549
3312.79564	0.86551
3310.74183	0.86552
3308.68802	0.86577
3306.63421	0.86625
3304.58040	0.86658
3302.52659	0.86670
3300.47278	0.86699
3298.41897	0.86736
3296.36516	0.86740
3294.31135	0.86719
3292.25754	0.86723
3290.20373	0.86760
3288.14992	0.86792
3286.09611	0.86815
3284.04230	0.86850
3281.98849	0.86901
3279.93468	0.86959
3277.88087	0.87001
3275.82706	0.87031
3273.77325	0.87068
3271.71944	0.87116
3269.66563	0.87176
3267.61182	0.87260
3265.55801	0.87338
3263.50420	0.87360
3261.45039	0.87350
3259.39658	0.87378
3257.34277	0.87450
3255.28896	0.87531
3253.23515	0.87617
3251.18134	0.87698
3249.12753	0.87768
3247.07372	0.87833
3245.01991	0.87873
3242.96610	0.87919
3240.91229	0.88008
3238.85848	0.88074
3236.80467	0.88078
3234.75086	0.88087
3232.69705	0.88151
3230.64324	0.88246
3228.58943	0.88327
3226.53562	0.88371
3224.48181	0.88398
3222.42800	0.88445
3220.37419	0.88515
3218.32038	0.88595
3216.26657	0.88681
3214.21276	0.88767
3212.15895	0.88854
3210.10514	0.88957
3208.05133	0.89059
3205.99752	0.89130
3203.94371	0.89187
3201.88990	0.89254
3199.83609	0.89334
3197.78228	0.89409
3195.72847	0.89478
3193.67466	0.89552
3191.62085	0.89626
3189.56704	0.89725
3187.51323	0.89836
3185.45942	0.89918
3183.40561	0.90007
3181.35180	0.90125
3179.29799	0.90243
3177.24418	0.90340
3175.19037	0.90419
3173.13656	0.90499
3171.08275	0.90589
3169.02894	0.90698
3166.97513	0.90818
3164.92132	0.90926
3162.86751	0.91002
3160.81370	0.91082
3158.75989	0.91196
3156.70608	0.91301
3154.65227	0.91383
3152.59846	0.91487
3150.54465	0.91604
3148.49084	0.91687
3146.43703	0.91738
3144.38322	0.91793
3142.32941	0.91878
3140.27560	0.91967
3138.22179	0.92028
3136.16798	0.92092
3134.11417	0.92196
3132.06036	0.92310
3130.00655	0.92404
3127.95274	0.92479
3125.89893	0.92548
3123.84512	0.92647
3121.79131	0.92758
3119.73750	0.92823
3117.68369	0.92868
3115.62988	0.92944
3113.57607	0.93035
3111.52226	0.93105
3109.46845	0.93152
3107.41464	0.93200
3105.36083	0.93262
3103.30702	0.93319
3101.25321	0.93380
3099.19940	0.93467
3097.14559	0.93566
3095.09177	0.93633
3093.03796	0.93696
3090.98415	0.93805
3088.93034	0.93896
3086.87653	0.93922
3084.82272	0.93945
3082.76891	0.93991
3080.71510	0.94035
3078.66129	0.94087
3076.60748	0.94162
3074.55367	0.94244
3072.49986	0.94319
3070.44605	0.94378
3068.39224	0.94422
3066.33843	0.94467
3064.28462	0.94529
3062.23081	0.94595
3060.17700	0.94664
3058.12319	0.94726
3056.06938	0.94751
3054.01557	0.94757
3051.96176	0.94792
3049.90795	0.94888
3047.85414	0.95028
3045.80033	0.95169
3043.74652	0.95290
3041.69271	0.95376
3039.63890	0.95423
3037.58509	0.95462
3035.53128	0.95510
3033.47747	0.95558
3031.42366	0.95612
3029.36985	0.95668
3027.31604	0.95721
3025.26223	0.95751
3023.20842	0.95758
3021.15461	0.95778
3019.10080	0.95788
3017.04699	0.95762
3014.99318	0.95738
3012.93937	0.95735
3010.88556	0.95739
3008.83175	0.95721
3006.77794	0.95658
3004.72413	0.95571
3002.67032	0.95468
3000.61651	0.95323
2998.56270	0.95153
2996.50889	0.94976
2994.45508	0.94798
2992.40127	0.94614
2990.34746	0.94433
2988.29365	0.94270
2986.23984	0.94106
2984.18603	0.93896
2982.13222	0.93617
2980.07841	0.93273
2978.02460	0.92850
2975.97079	0.92328
2973.91698	0.91693
2971.86317	0.90921
2969.80936	0.90011
2967.75555	0.89024
2965.70174	0.88118
2963.64793	0.87485
2961.59412	0.87198
2959.54031	0.87175
2957.48650	0.87277
2955.43269	0.87415
2953.37888	0.87556
2951.32507	0.87683
2949.27126	0.87789
2947.21745	0.87900
2945.16364	0.88039
2943.10983	0.88191
2941.05602	0.88342
2939.00221	0.88492
2936.94840	0.88648
2934.89459	0.88828
2932.84078	0.89028
2930.78697	0.89254
2928.73316	0.89536
2926.67935	0.89835
2924.62554	0.90084
2922.57173	0.90289
2920.51792	0.90500
2918.46411	0.90723
2916.41030	0.90944
2914.35649	0.91188
2912.30268	0.91446
2910.24887	0.91683
2908.19506	0.91876
2906.14125	0.92015
2904.08744	0.92087
2902.03363	0.92101
2899.97982	0.92105
2897.92601	0.92128
2895.87220	0.92174
2893.81839	0.92255
2891.76458	0.92351
2889.71077	0.92407
2887.65696	0.92418
2885.60315	0.92406
2883.54934	0.92316
2881.49553	0.92094
2879.44172	0.91759
2877.38791	0.91365
2875.33410	0.90952
2873.28029	0.90533
2871.22648	0.90121
2869.17267	0.89748
2867.11886	0.89467
2865.06505	0.89287
2863.01124	0.89160
2860.95743	0.89059
2858.90362	0.89005
2856.84981	0.89036
2854.79600	0.89178
2852.74219	0.89447
2850.68838	0.89834
2848.63457	0.90326
2846.58076	0.90918
2844.52695	0.91577
2842.47314	0.92264
2840.41933	0.92934
2838.36552	0.93560
2836.31171	0.94140
2834.25790	0.94649
2832.20409	0.95080
2830.15028	0.95469
2828.09647	0.95827
2826.04266	0.96142
2823.98885	0.96406
2821.93504	0.96608
2819.88123	0.96741
2817.82742	0.96822
2815.77361	0.96872
2813.71980	0.96889
2811.66599	0.96869
2809.61218	0.96826
2807.55837	0.96761
2805.50456	0.96673
2803.45075	0.96583
2801.39693	0.96517
2799.34312	0.96483
2797.28931	0.96487
2795.23550	0.96540
2793.18169	0.96640
2791.12788	0.96764
2789.07407	0.96893
2787.02026	0.97021
2784.96645	0.97164
2782.91264	0.97315
2780.85883	0.97440
2778.80502	0.97540
2776.75121	0.97631
2774.69740	0.97714
2772.64359	0.97789
2770.58978	0.97852
2768.53597	0.97899
2766.48216	0.97921
2764.42835	0.97917
2762.37454	0.97906
2760.32073	0.97904
2758.26692	0.97926
2756.21311	0.97966
2754.15930	0.97989
2752.10549	0.97994
2750.05168	0.98003
2747.99787	0.98016
2745.94406	0.98021
2743.89025	0.98033
2741.83644	0.98062
2739.78263	0.98078
2737.72882	0.98081
2735.67501	0.98105
2733.62120	0.98152
2731.56739	0.98189
2729.51358	0.98207
2727.45977	0.98233
2725.40596	0.98266
2723.35215	0.98293
2721.29834	0.98321
2719.24453	0.98344
2717.19072	0.98353
2715.13691	0.98360
2713.08310	0.98379
2711.02929	0.98410
2708.97548	0.98436
2706.92167	0.98448
2704.86786	0.98454
2702.81405	0.98462
2700.76024	0.98474
2698.70643	0.98504
2696.65262	0.98540
2694.59881	0.98563
2692.54500	0.98580
2690.49119	0.98596
2688.43738	0.98610
2686.38357	0.98636
2684.32976	0.98667
2682.27595	0.98686
2680.22214	0.98703
2678.16833	0.98717
2676.11452	0.98726
2674.06071	0.98750
2672.00690	0.98765
2669.95309	0.98748
2667.89928	0.98740
2665.84547	0.98757
2663.79166	0.98767
2661.73785	0.98772
2659.68404	0.98782
2657.63023	0.98793
2655.57642	0.98813
2653.52261	0.98829
2651.46880	0.98822
2649.41499	0.98812
2647.36118	0.98822
2645.30737	0.98850
2643.25356	0.98875
2641.19975	0.98880
2639.14594	0.98868
2637.09213	0.98853
2635.03832	0.98843
2632.98451	0.98823
2630.93070	0.98796
2628.87689	0.98808
2626.82308	0.98866
2624.76927	0.98935
2622.71546	0.98965
2620.66165	0.98931
2618.60784	0.98883
2616.55403	0.98875
2614.50022	0.98913
2612.44641	0.98966
2610.39260	0.98986
2608.33879	0.98972
2606.28498	0.98954
2604.23117	0.98945
2602.17736	0.98954
2600.12355	0.98972
2598.06974	0.98985
2596.01593	0.98996
2593.96212	0.99016
2591.90831	0.99044
2589.85450	0.99050
2587.80069	0.99014
2585.74688	0.98988
2583.69307	0.99004
2581.63926	0.99027
2579.58545	0.99034
2577.53164	0.99033
2575.47783	0.99047
2573.42402	0.99071
2571.37021	0.99079
2569.31640	0.99080
2567.26259	0.99081
2565.20878	0.99077
2563.15497	0.99066
2561.10116	0.99073
2559.04735	0.99128
2556.99354	0.99185
2554.93973	0.99205
2552.88592	0.99220
2550.83211	0.99224
2548.77830	0.99179
2546.72449	0.99117
2544.67068	0.99113
2542.61687	0.99168
2540.56306	0.99197
2538.50925	0.99185
2536.45544	0.99212
2534.40163	0.99268
2532.34782	0.99262
2530.29401	0.99192
2528.24020	0.99145
2526.18639	0.99151
2524.13258	0.99176
2522.07877	0.99211
2520.02496	0.99255
2517.97115	0.99285
2515.91734	0.99307
2513.86353	0.99337
2511.80972	0.99328
2509.75591	0.99287
2507.70210	0.99269
2505.64828	0.99275
2503.59447	0.99283
2501.54066	0.99285
2499.48685	0.99286
2497.43304	0.99289
2495.37923	0.99286
2493.32542	0.99255
2491.27161	0.99217
2489.21780	0.99221
2487.16399	0.99281
2485.11018	0.99352
2483.05637	0.99363
2481.00256	0.99319
2478.94875	0.99308
2476.89494	0.99341
2474.84113	0.99333
2472.78732	0.99299
2470.73351	0.99289
2468.67970	0.99290
2466.62589	0.99296
2464.57208	0.99315
2462.51827	0.99325
2460.46446	0.99296
2458.41065	0.99241
2456.35684	0.99198
2454.30303	0.99205
2452.24922	0.99275
2450.19541	0.99334
2448.14160	0.99305
2446.08779	0.99232
2444.03398	0.99193
2441.98017	0.99189
2439.92636	0.99188
2437.87255	0.99177
2435.81874	0.99168
2433.76493	0.99175
2431.71112	0.99180
2429.65731	0.99158
2427.60350	0.99130
2425.54969	0.99115
2423.49588	0.99098
2421.44207	0.99087
2419.38826	0.99092
2417.33445	0.99086
2415.28064	0.99069
2413.22683	0.99044
2411.17302	0.99004
2409.11921	0.98970
2407.06540	0.98960
2405.01159	0.98966
2402.95778	0.98962
2400.90397	0.98935
2398.85016	0.98900
2396.79635	0.98904
2394.74254	0.98930
2392.68873	0.98927
2390.63492	0.98922
2388.58111	0.98916
2386.52730	0.98878
2384.47349	0.98838
2382.41968	0.98831
2380.36587	0.98840
2378.31206	0.98869
2376.25825	0.98924
2374.20444	0.98959
2372.15063	0.98995
2370.09682	0.99065
2368.04301	0.99100
2365.98920	0.99091
2363.93539	0.99069
2361.88158	0.99012
2359.82777	0.98973
2357.77396	0.99041
2355.72015	0.99105
2353.66634	0.99019
2351.61253	0.98905
2349.55872	0.98889
2347.50491	0.98939
2345.45110	0.99034
2343.39729	0.99137
2341.34348	0.99156
2339.28967	0.99065
2337.23586	0.98952
2335.18205	0.98940
2333.12824	0.98998
2331.07443	0.99040
2329.02062	0.99023
2326.96681	0.98940
2324.91300	0.98876
2322.85919	0.98853
2320.80538	0.98819
2318.75157	0.98803
2316.69776	0.98824
2314.64395	0.98841
2312.59014	0.98855
2310.53633	0.98886
2308.48252	0.98889
2306.42871	0.98845
2304.37490	0.98824
2302.32109	0.98835
2300.26728	0.98822
2298.21347	0.98805
2296.15966	0.98821
2294.10585	0.98837
2292.05204	0.98816
2289.99823	0.98762
2287.94442	0.98706
2285.89061	0.98681
2283.83680	0.98708
2281.78299	0.98781
2279.72918	0.98857
2277.67537	0.98879
2275.62156	0.98832
2273.56775	0.98796
2271.51394	0.98859
2269.46013	0.98968
2267.40632	0.99065
2265.35251	0.99131
2263.29870	0.99083
2261.24489	0.98956
2259.19108	0.98890
2257.13727	0.98909
2255.08346	0.98922
2253.02965	0.98896
2250.97584	0.98901
2248.92203	0.98948
2246.86822	0.98981
2244.81441	0.99005
2242.76060	0.99060
2240.70679	0.99081
2238.65298	0.99030
2236.59917	0.98988
2234.54536	0.98994
2232.49155	0.98993
2230.43774	0.98992
2228.38393	0.99089
2226.33012	0.99193
2224.27631	0.99114
2222.22250	0.98966
2220.16869	0.98982
2218.11488	0.99059
2216.06107	0.99002
2214.00726	0.98920
2211.95344	0.98953
2209.89963	0.99083
2207.84582	0.99182
2205.79201	0.99121
2203.73820	0.99026
2201.68439	0.99053
2199.63058	0.99142
2197.57677	0.99218
2195.52296	0.99203
2193.46915	0.99163
2191.41534	0.99183
2189.36153	0.99115
2187.30772	0.99002
2185.25391	0.99030
2183.20010	0.99179
2181.14629	0.99316
2179.09248	0.99358
2177.03867	0.99328
2174.98486	0.99260
2172.93105	0.99204
2170.87724	0.99221
2168.82343	0.99212
2166.76962	0.99127
2164.71581	0.99125
2162.66200	0.99254
2160.60819	0.99480
2158.55438	0.99692
2156.50057	0.99648
2154.44676	0.99384
2152.39295	0.99163
2150.33914	0.99049
2148.28533	0.99018
2146.23152	0.99119
2144.17771	0.99193
2142.12390	0.99165
2140.07009	0.99132
2138.01628	0.99042
2135.96247	0.98916
2133.90866	0.98887
2131.85485	0.98958
2129.80104	0.99009
2127.74723	0.98971
2125.69342	0.98890
2123.63961	0.98792
2121.58580	0.98665
2119.53199	0.98602
2117.47818	0.98623
2115.42437	0.98590
2113.37056	0.98504
2111.31675	0.98476
2109.26294	0.98527
2107.20913	0.98613
2105.15532	0.98668
2103.10151	0.98621
2101.04770	0.98535
2098.99389	0.98538
2096.94008	0.98628
2094.88627	0.98713
2092.83246	0.98746
2090.77865	0.98730
2088.72484	0.98651
2086.67103	0.98585
2084.61722	0.98616
2082.56341	0.98654
2080.50960	0.98591
2078.45579	0.98499
2076.40198	0.98516
2074.34817	0.98617
2072.29436	0.98661
2070.24055	0.98584
2068.18674	0.98506
2066.13293	0.98524
2064.07912	0.98597
2062.02531	0.98686
2059.97150	0.98717
2057.91769	0.98671
2055.86388	0.98675
2053.81007	0.98746
2051.75626	0.98768
2049.70245	0.98764
2047.64864	0.98841
2045.59483	0.98961
2043.54102	0.98969
2041.48721	0.98878
2039.43340	0.98909
2037.37959	0.99091
2035.32578	0.99285
2033.27197	0.99383
2031.21816	0.99311
2029.16435	0.99222
2027.11054	0.99284
2025.05673	0.99334
2023.00292	0.99242
2020.94911	0.99154
2018.89530	0.99099
2016.84149	0.98937
2014.78768	0.98724
2012.73387	0.98688
2010.68006	0.98893
2008.62625	0.99122
2006.57244	0.99208
2004.51863	0.99201
2002.46482	0.99169
2000.41101	0.99074
1998.35720	0.98935
1996.30339	0.98899
1994.24958	0.98957
1992.19577	0.99000
1990.14196	0.98993
1988.08815	0.98941
1986.03434	0.98985
1983.98053	0.99152
1981.92672	0.99187
1979.87291	0.99088
1977.81910	0.99054
1975.76529	0.99047
1973.71148	0.98993
1971.65767	0.98986
1969.60386	0.99005
1967.55005	0.98944
1965.49624	0.98847
1963.44243	0.98742
1961.38862	0.98585
1959.33481	0.98360
1957.28100	0.98193
1955.22719	0.98221
1953.17338	0.98377
1951.11957	0.98531
1949.06576	0.98594
1947.01195	0.98604
1944.95814	0.98668
1942.90433	0.98747
1940.85052	0.98758
1938.79671	0.98787
1936.74290	0.98904
1934.68909	0.98999
1932.63528	0.98964
1930.58147	0.98937
1928.52766	0.99003
1926.47385	0.99071
1924.42004	0.99056
1922.36623	0.98981
1920.31242	0.98956
1918.25861	0.99006
1916.20479	0.99060
1914.15098	0.99102
1912.09717	0.99127
1910.04336	0.99082
1907.98955	0.99015
1905.93574	0.98994
1903.88193	0.98972
1901.82812	0.98919
1899.77431	0.98883
1897.72050	0.98852
1895.66669	0.98832
1893.61288	0.98862
1891.55907	0.98909
1889.50526	0.98939
1887.45145	0.98959
1885.39764	0.98991
1883.34383	0.99017
1881.29002	0.99008
1879.23621	0.99005
1877.18240	0.99023
1875.12859	0.98981
1873.07478	0.98913
1871.02097	0.98907
1868.96716	0.98895
1866.91335	0.98858
1864.85954	0.98851
1862.80573	0.98841
1860.75192	0.98824
1858.69811	0.98836
1856.64430	0.98847
1854.59049	0.98821
1852.53668	0.98769
1850.48287	0.98742
1848.42906	0.98735
1846.37525	0.98703
1844.32144	0.98647
1842.26763	0.98596
1840.21382	0.98536
1838.16001	0.98479
1836.10620	0.98455
1834.05239	0.98406
1831.99858	0.98307
1829.94477	0.98202
1827.89096	0.98159
1825.83715	0.98131
1823.78334	0.98085
1821.72953	0.98076
1819.67572	0.98107
1817.62191	0.98133
1815.56810	0.98117
1813.51429	0.98072
1811.46048	0.98016
1809.40667	0.97962
1807.35286	0.97916
1805.29905	0.97876
1803.24524	0.97813
1801.19143	0.97746
1799.13762	0.97718
1797.08381	0.97717
1795.03000	0.97694
1792.97619	0.97616
1790.92238	0.97532
1788.86857	0.97479
1786.81476	0.97431
1784.76095	0.97366
1782.70714	0.97320
1780.65333	0.97269
1778.59952	0.97207
1776.54571	0.97154
1774.49190	0.97122
1772.43809	0.97079
1770.38428	0.97020
1768.33047	0.96976
1766.27666	0.96923
1764.22285	0.96854
1762.16904	0.96770
1760.11523	0.96708
1758.06142	0.96605
1756.00761	0.96430
1753.95380	0.96236
1751.89999	0.96042
1749.84618	0.95773
1747.79237	0.95428
1745.73856	0.94999
1743.68475	0.94404
1741.63094	0.93541
1739.57713	0.92182
1737.52332	0.90525
1735.46951	0.88245
1733.41570	0.84366
1731.36189	0.80204
1729.30808	0.76272
1727.25427	0.72137
1725.20046	0.67943
1723.14665	0.63644
1721.09284	0.59824
1719.03903	0.56150
1716.98522	0.51814
1714.93141	0.48347
1712.87760	0.46472
1710.82379	0.45748
1708.76998	0.46219
1706.71617	0.48240
1704.66236	0.51798
1702.60855	0.55839
1700.55474	0.61115
1698.50093	0.66731
1696.44712	0.71051
1694.39331	0.74858
1692.33950	0.77494
1690.28569	0.79499
1688.23188	0.81150
1686.17807	0.82295
1684.12426	0.83227
1682.07045	0.83834
1680.01664	0.84010
1677.96283	0.83974
1675.90902	0.83826
1673.85521	0.83815
1671.80140	0.84182
1669.74759	0.84967
1667.69378	0.85890
1665.63997	0.86539
1663.58616	0.87029
1661.53235	0.87422
1659.47854	0.87684
1657.42473	0.87842
1655.37092	0.87953
1653.31711	0.88043
1651.26330	0.88128
1649.20949	0.88186
1647.15568	0.88258
1645.10187	0.88343
1643.04806	0.88394
1640.99425	0.88424
1638.94044	0.88424
1636.88663	0.88436
1634.83282	0.88582
1632.77901	0.88843
1630.72520	0.89101
1628.67139	0.89399
1626.61758	0.89724
1624.56377	0.90053
1622.50996	0.90381
1620.45614	0.90626
1618.40233	0.90807
1616.34852	0.91007
1614.29471	0.91249
1612.24090	0.91539
1610.18709	0.91900
1608.13328	0.92284
1606.07947	0.92643
1604.02566	0.92966
1601.97185	0.93270
1599.91804	0.93546
1597.86423	0.93775
1595.81042	0.93953
1593.75661	0.94081
1591.70280	0.94164
1589.64899	0.94223
1587.59518	0.94244
1585.54137	0.94112
1583.48756	0.93763
1581.43375	0.93279
1579.37994	0.92870
1577.32613	0.92755
1575.27232	0.93064
1573.21851	0.93479
1571.16470	0.93814
1569.11089	0.94114
1567.05708	0.94298
1565.00327	0.94392
1562.94946	0.94450
1560.89565	0.94478
1558.84184	0.94469
1556.78803	0.94453
1554.73422	0.94437
1552.68041	0.94419
1550.62660	0.94399
1548.57279	0.94401
1546.51898	0.94433
1544.46517	0.94481
1542.41136	0.94546
1540.35755	0.94633
1538.30374	0.94700
1536.24993	0.94707
1534.19612	0.94666
1532.14231	0.94583
1530.08850	0.94528
1528.03469	0.94540
1525.98088	0.94637
1523.92707	0.94761
1521.87326	0.94877
1519.81945	0.94996
1517.76564	0.95040
1515.71183	0.94980
1513.65802	0.94814
1511.60421	0.94461
1509.55040	0.93723
1507.49659	0.91748
1505.44278	0.89193
1503.38897	0.89079
1501.33516	0.90652
1499.28135	0.92653
1497.22754	0.94194
1495.17373	0.94965
1493.11992	0.95144
1491.06611	0.94949
1489.01230	0.94470
1486.95849	0.93957
1484.90468	0.93556
1482.85087	0.93184
1480.79706	0.92729
1478.74325	0.92201
1476.68944	0.91667
1474.63563	0.91170
1472.58182	0.90714
1470.52801	0.90367
1468.47420	0.90170
1466.42039	0.89906
1464.36658	0.89016
1462.31277	0.87132
1460.25896	0.84854
1458.20515	0.83143
1456.15134	0.82776
1454.09753	0.82716
1452.04372	0.82802
1449.98991	0.83909
1447.93610	0.86043
1445.88229	0.88159
1443.82848	0.89660
1441.77467	0.90703
1439.72086	0.91373
1437.66705	0.91828
1435.61324	0.92228
1433.55943	0.92617
1431.50562	0.93069
1429.45181	0.93572
1427.39800	0.93935
1425.34419	0.94075
1423.29038	0.93975
1421.23657	0.93525
1419.18276	0.92211
1417.12895	0.89634
1415.07514	0.86186
1413.02133	0.82056
1410.96752	0.78224
1408.91371	0.76531
1406.85990	0.77841
1404.80609	0.81270
1402.75228	0.84611
1400.69847	0.86596
1398.64466	0.87431
1396.59085	0.87337
1394.53704	0.86541
1392.48323	0.85405
1390.42942	0.84222
1388.37561	0.83193
1386.32180	0.82905
1384.26799	0.83613
1382.21418	0.84742
1380.16037	0.85819
1378.10656	0.86731
1376.05275	0.87531
1373.99894	0.88240
1371.94513	0.88801
1369.89132	0.89240
1367.83751	0.89665
1365.78370	0.90115
1363.72989	0.90627
1361.67608	0.91187
1359.62227	0.91650
1357.56846	0.91965
1355.51465	0.92116
1353.46084	0.92056
1351.40703	0.91924
1349.35322	0.92038
1347.29941	0.92477
1345.24560	0.92954
1343.19179	0.93249
1341.13798	0.93347
1339.08417	0.93266
1337.03036	0.93032
1334.97655	0.92674
1332.92274	0.92160
1330.86893	0.91419
1328.81512	0.90379
1326.76130	0.89005
1324.70749	0.87468
1322.65368	0.86314
1320.59987	0.86113
1318.54606	0.86789
1316.49225	0.87671
1314.43844	0.88262
1312.38463	0.88438
1310.33082	0.88217
1308.27701	0.87702
1306.22320	0.87033
1304.16939	0.86329
1302.11558	0.85615
1300.06177	0.84836
1298.00796	0.83900
1295.95415	0.82704
1293.90034	0.81135
1291.84653	0.79129
1289.79272	0.76730
1287.73891	0.74073
1285.68510	0.71328
1283.63129	0.68579
1281.57748	0.65811
1279.52367	0.63012
1277.46986	0.60194
1275.41605	0.57373
1273.36224	0.54546
1271.30843	0.51748
1269.25462	0.49156
1267.20081	0.47050
1265.14700	0.45676
1263.09319	0.45133
1261.03938	0.45240
1258.98557	0.45616
1256.93176	0.45902
1254.87795	0.45885
1252.82414	0.45475
1250.77033	0.44737
1248.71652	0.43905
1246.66271	0.43273
1244.60890	0.43105
1242.55509	0.43567
1240.50128	0.44671
1238.44747	0.46315
1236.39366	0.48384
1234.33985	0.50768
1232.28604	0.53349
1230.23223	0.56053
1228.17842	0.58841
1226.12461	0.61631
1224.07080	0.64272
1222.01699	0.66638
1219.96318	0.68671
1217.90937	0.70321
1215.85556	0.71502
1213.80175	0.71985
1211.74794	0.71375
1209.69413	0.69789
1207.64032	0.68600
1205.58651	0.69269
1203.53270	0.71661
1201.47889	0.74665
1199.42508	0.77551
1197.37127	0.80122
1195.31746	0.82352
1193.26365	0.84248
1191.20984	0.85830
1189.15603	0.87118
1187.10222	0.88111
1185.04841	0.88779
1182.99460	0.89105
1180.94079	0.89132
1178.88698	0.88963
1176.83317	0.88708
1174.77936	0.88529
1172.72555	0.88619
1170.67174	0.89059
1168.61793	0.89711
1166.56412	0.90320
1164.51031	0.90691
1162.45650	0.90792
1160.40269	0.90688
1158.34888	0.90424
1156.29507	0.90027
1154.24126	0.89525
1152.18745	0.88937
1150.13364	0.88301
1148.07983	0.87668
1146.02602	0.87047
1143.97221	0.86417
1141.91840	0.85695
1139.86459	0.84721
1137.81078	0.83352
1135.75697	0.81477
1133.70316	0.78999
1131.64935	0.75913
1129.59554	0.72367
1127.54173	0.68641
1125.48792	0.65068
1123.43411	0.61829
1121.38030	0.58851
1119.32649	0.56084
1117.27268	0.53981
1115.21887	0.53305
1113.16506	0.54038
1111.11125	0.54837
1109.05744	0.54132
1107.00363	0.51562
1104.94982	0.47960
1102.89601	0.44413
1100.84220	0.41740
1098.78839	0.40348
1096.73458	0.40181
1094.68077	0.40899
1092.62696	0.42118
1090.57315	0.43457
1088.51934	0.44597
1086.46553	0.45466
1084.41172	0.46368
1082.35791	0.47796
1080.30410	0.49952
1078.25029	0.52636
1076.19648	0.55528
1074.14267	0.58340
1072.08886	0.60876
1070.03505	0.63059
1067.98124	0.64927
1065.92743	0.66577
1063.87362	0.68085
1061.81981	0.69487
1059.76600	0.70794
1057.71219	0.72003
1055.65838	0.73094
1053.60457	0.74016
1051.55076	0.74692
1049.49695	0.75096
1047.44314	0.75336
1045.38933	0.75568
1043.33552	0.75848
1041.28171	0.76111
1039.22790	0.76194
1037.17409	0.75951
1035.12028	0.75227
1033.06647	0.73695
1031.01265	0.71237
1028.95884	0.68669
1026.90503	0.67222
1024.85122	0.66785
1022.79741	0.65468
1020.74360	0.61660
1018.68979	0.56537
1016.63598	0.53876
1014.58217	0.56020
1012.52836	0.61235
1010.47455	0.66649
1008.42074	0.71012
1006.36693	0.74139
1004.31312	0.76224
1002.25931	0.77579
1000.20550	0.78383
998.15169	0.78706
996.09788	0.78609
994.04407	0.78235
991.99026	0.77831
989.93645	0.77576
987.88264	0.77451
985.82883	0.77410
983.77502	0.77536
981.72121	0.77952
979.66740	0.78564
977.61359	0.79018
975.55978	0.79048
973.50597	0.78728
971.45216	0.78313
969.39835	0.77934
967.34454	0.77549
965.29073	0.77133
963.23692	0.76750
961.18311	0.76477
959.12930	0.76357
957.07549	0.76400
955.02168	0.76573
952.96787	0.76824
950.91406	0.77071
948.86025	0.77198
946.80644	0.77067
944.75263	0.76561
942.69882	0.75656
940.64501	0.74456
938.59120	0.73221
936.53739	0.72270
934.48358	0.71774
932.42977	0.71828
930.37596	0.72567
928.32215	0.73884
926.26834	0.75229
924.21453	0.75853
922.16072	0.75241
920.10691	0.73280
918.05310	0.70362
915.99929	0.67903
913.94548	0.67882
911.89167	0.70786
909.83786	0.75002
907.78405	0.78715
905.73024	0.81278
903.67643	0.82894
901.62262	0.83967
899.56881	0.84742
897.51500	0.85313
895.46119	0.85761
893.40738	0.86166
891.35357	0.86506
889.29976	0.86649
887.24595	0.86440
885.19214	0.85733
883.13833	0.84377
881.08452	0.82301
879.03071	0.79440
876.97690	0.75428
874.92309	0.70359
872.86928	0.66923
870.81547	0.68425
868.76166	0.73561
866.70785	0.78302
864.65404	0.81103
862.60023	0.82568
860.54642	0.83355
858.49261	0.83798
856.43880	0.84048
854.38499	0.84181
852.33118	0.84251
850.27737	0.84280
848.22356	0.84277
846.16975	0.84317
844.11594	0.84455
842.06213	0.84633
840.00832	0.84785
837.95451	0.84923
835.90070	0.85014
833.84689	0.85008
831.79308	0.84952
829.73927	0.84924
827.68546	0.84899
825.63165	0.84834
823.57784	0.84675
821.52403	0.84291
819.47022	0.83605
817.41641	0.82627
815.36260	0.81393
813.30879	0.80073
811.25498	0.79192
809.20117	0.79289
807.14736	0.80281
805.09355	0.81555
803.03974	0.82579
800.98593	0.83088
798.93212	0.82915
796.87831	0.82265
794.82450	0.81976
792.77069	0.82613
790.71688	0.83780
788.66307	0.84886
786.60926	0.85748
784.55545	0.86381
782.50164	0.86826
780.44783	0.87144
778.39402	0.87368
776.34021	0.87526
774.28640	0.87636
772.23259	0.87691
770.17878	0.87690
768.12497	0.87670
766.07116	0.87588
764.01735	0.87352
761.96354	0.86927
759.90973	0.86166
757.85592	0.84865
755.80211	0.83045
753.74830	0.81148
751.69449	0.79947
749.64068	0.79947
747.58687	0.80885
745.53306	0.81959
743.47925	0.82347
741.42544	0.81361
739.37163	0.78369
737.31781	0.73062
735.26400	0.66005
733.21019	0.58505
731.15638	0.51536
729.10257	0.45361
727.04876	0.40488
724.99495	0.37964
722.94114	0.38212
720.88733	0.40845
718.83352	0.45246
716.77971	0.50416
714.72590	0.55366
712.67209	0.59546
710.61828	0.62676
708.56447	0.64742
706.51066	0.66080
704.45685	0.67318
702.40304	0.68889
700.34923	0.70672
698.29542	0.72337
696.24161	0.73702
694.18780	0.74758
692.13399	0.75586
690.08018	0.76249
688.02637	0.76753
685.97256	0.77096
683.91875	0.77295
681.86494	0.77436
679.81113	0.77660
677.75732	0.78035
675.70351	0.78503
673.64970	0.78976
671.59589	0.79367
669.54208	0.79683
667.48827	0.79996
665.43446	0.80218
663.38065	0.80414
661.32684	0.80648
659.27303	0.80830
657.21922	0.80965
655.16541	0.81129
653.11160	0.81286
651.05779	0.81392
649.00398	0.81469
646.95017	0.81556
644.89636	0.81653
642.84255	0.81734
640.78874	0.81801
638.73493	0.81828
636.68112	0.81709
634.62731	0.81300
632.57350	0.80824
630.51969	0.80851
628.46588	0.81334
626.41207	0.81753
624.35826	0.81972
622.30445	0.82102
620.25064	0.82207
618.19683	0.82311
616.14302	0.82379
614.08921	0.82448
612.03540	0.82568
609.98159	0.82664
607.92778	0.82687
605.87397	0.82693
603.82016	0.82717
601.76635	0.82716
599.71254	0.82677
597.65873	0.82652
595.60492	0.82664
593.55111	0.82656
591.49730	0.82586
589.44349	0.82520
587.38968	0.82460
585.33587	0.82375
583.28206	0.82356
581.22825	0.82385
579.17444	0.82300
577.12063	0.82160
575.06682	0.82154
573.01301	0.82224
570.95920	0.82227
568.90539	0.82166
566.85158	0.82099
564.79777	0.82040
562.74396	0.81946
560.69015	0.81781
558.63634	0.81624
556.58253	0.81498
554.52872	0.81396
552.47491	0.81371
550.42110	0.81372
548.36729	0.81316
546.31348	0.81191
544.25967	0.81027
542.20586	0.80853
540.15205	0.80672
538.09824	0.80453
536.04443	0.80240
533.99062	0.80145
531.93681	0.80086
529.88300	0.79902
527.82919	0.79715
525.77538	0.79737
523.72157	0.79891
521.66776	0.79957
519.61395	0.79841
517.56014	0.79608
515.50633	0.79317
513.45252	0.78853
511.39871	0.78126
509.34490	0.77267
507.29109	0.76335
505.23728	0.75133
503.18347	0.73539
501.12966	0.71877
499.07585	0.70640
497.02204	0.69922
494.96823	0.69803
492.91442	0.70507
490.86061	0.71983
488.80680	0.73688
486.75299	0.75058
484.69918	0.75965
482.64537	0.76571
480.59156	0.77050
478.53775	0.77519
476.48394	0.77791
474.43013	0.77760
472.37632	0.77790
470.32251	0.78060
468.26870	0.78287
466.21489	0.78249
464.16108	0.78157
462.10727	0.78274
460.05346	0.78571
457.99965	0.78951
455.94584	0.79185
453.89203	0.79089
451.83822	0.78884
449.78441	0.78913
447.73060	0.79219
445.67679	0.79621
443.62298	0.79998
441.56916	0.80174
439.51535	0.80010
437.46154	0.79791
435.40773	0.79754
433.35392	0.79917
431.30011	0.80244
429.24630	0.80432
427.19249	0.80453
425.13868	0.80676
423.08487	0.81168
421.03106	0.81574
418.97725	0.81378
416.92344	0.80788
414.86963	0.80509
412.81582	0.80315
410.76201	0.80191
408.70820	0.80261
406.65439	0.80117
404.60058	0.79881
402.54677	0.79793
400.49296	0.79437
398.43915	0.78760
