3996.71440	0.99503
3994.66059	0.99513
3992.60678	0.99502
3990.55297	0.99475
3988.49916	0.99436
3986.44535	0.99414
3984.39154	0.99440
3982.33773	0.99483
3980.28391	0.99491
3978.23010	0.99469
3976.17629	0.99440
3974.12248	0.99417
3972.06867	0.99407
3970.01486	0.99415
3967.96105	0.99430
3965.90724	0.99420
3963.85343	0.99390
3961.79962	0.99388
3959.74581	0.99398
3957.69200	0.99398
3955.63819	0.99418
3953.58438	0.99442
3951.53057	0.99429
3949.47676	0.99398
3947.42295	0.99390
3945.36914	0.99397
3943.31533	0.99397
3941.26152	0.99399
3939.20771	0.99401
3937.15390	0.99402
3935.10009	0.99424
3933.04628	0.99457
3930.99247	0.99453
3928.93866	0.99413
3926.88485	0.99389
3924.83104	0.99415
3922.77723	0.99462
3920.72342	0.99487
3918.66961	0.99480
3916.61580	0.99444
3914.56199	0.99415
3912.50818	0.99411
3910.45437	0.99400
3908.40056	0.99391
3906.34675	0.99399
3904.29294	0.99410
3902.23913	0.99425
3900.18532	0.99433
3898.13151	0.99431
3896.07770	0.99443
3894.02389	0.99449
3891.97008	0.99439
3889.91627	0.99459
3887.86246	0.99486
3885.80865	0.99470
3883.75484	0.99450
3881.70103	0.99436
3879.64722	0.99395
3877.59341	0.99368
3875.53960	0.99360
3873.48579	0.99344
3871.43198	0.99355
3869.37817	0.99386
3867.32436	0.99374
3865.27055	0.99339
3863.21674	0.99339
3861.16293	0.99347
3859.10912	0.99329
3857.05531	0.99302
3855.00150	0.99268
3852.94769	0.99274
3850.89388	0.99308
3848.84007	0.99302
3846.78626	0.99301
3844.73245	0.99329
3842.67864	0.99357
3840.62483	0.99356
3838.57102	0.99343
3836.51721	0.99344
3834.46340	0.99338
3832.40959	0.99309
3830.35578	0.99280
3828.30197	0.99287
3826.24816	0.99306
3824.19435	0.99303
3822.14054	0.99292
3820.08673	0.99264
3818.03292	0.99237
3815.97911	0.99237
3813.92530	0.99247
3811.87149	0.99260
3809.81768	0.99262
3807.76387	0.99225
3805.71006	0.99196
3803.65625	0.99222
3801.60244	0.99252
3799.54863	0.99249
3797.49482	0.99247
3795.44101	0.99247
3793.38720	0.99244
3791.33339	0.99245
3789.27958	0.99234
3787.22577	0.99210
3785.17196	0.99176
3783.11815	0.99142
3781.06434	0.99136
3779.01053	0.99147
3776.95672	0.99134
3774.90291	0.99122
3772.84910	0.99144
3770.79529	0.99157
3768.74148	0.99142
3766.68767	0.99131
3764.63386	0.99117
3762.58005	0.99103
3760.52624	0.99110
3758.47243	0.99122
3756.41862	0.99109
3754.36481	0.99085
3752.31100	0.99085
3750.25719	0.99079
3748.20338	0.99015
3746.14957	0.98962
3744.09576	0.98962
3742.04195	0.98929
3739.98814	0.98850
3737.93433	0.98789
3735.88052	0.98786
3733.82671	0.98785
3731.77290	0.98778
3729.71909	0.98806
3727.66528	0.98819
3725.61147	0.98783
3723.55766	0.98719
3721.50385	0.98673
3719.45004	0.98618
3717.39623	0.98537
3715.34242	0.98496
3713.28861	0.98467
3711.23480	0.98350
3709.18099	0.98187
3707.12718	0.98046
3705.07337	0.97914
3703.01956	0.97794
3700.96575	0.97676
3698.91194	0.97575
3696.85813	0.97496
3694.80432	0.97446
3692.75051	0.97424
3690.69670	0.97375
3688.64289	0.97304
3686.58907	0.97251
3684.53526	0.97188
3682.48145	0.97121
3680.42764	0.97024
3678.37383	0.96864
3676.32002	0.96665
3674.26621	0.96478
3672.21240	0.96337
3670.15859	0.96133
3668.10478	0.95900
3666.05097	0.95755
3663.99716	0.95608
3661.94335	0.95424
3659.88954	0.95257
3657.83573	0.95073
3655.78192	0.94823
3653.72811	0.94610
3651.67430	0.94448
3649.62049	0.94269
3647.56668	0.94085
3645.51287	0.93920
3643.45906	0.93752
3641.40525	0.93526
3639.35144	0.93240
3637.29763	0.92992
3635.24382	0.92819
3633.19001	0.92659
3631.13620	0.92502
3629.08239	0.92315
3627.02858	0.92075
3624.97477	0.91882
3622.92096	0.91732
3620.86715	0.91565
3618.81334	0.91348
3616.75953	0.91144
3614.70572	0.91024
3612.65191	0.90952
3610.59810	0.90821
3608.54429	0.90597
3606.49048	0.90389
3604.43667	0.90270
3602.38286	0.90170
3600.32905	0.89982
3598.27524	0.89726
3596.22143	0.89499
3594.16762	0.89306
3592.11381	0.89147
3590.06000	0.89016
3588.00619	0.88831
3585.95238	0.88621
3583.89857	0.88453
3581.84476	0.88256
3579.79095	0.88041
3577.73714	0.87868
3575.68333	0.87710
3573.62952	0.87542
3571.57571	0.87378
3569.52190	0.87190
3567.46809	0.86940
3565.41428	0.86696
3563.36047	0.86510
3561.30666	0.86338
3559.25285	0.86152
3557.19904	0.85939
3555.14523	0.85730
3553.09142	0.85536
3551.03761	0.85338
3548.98380	0.85141
3546.92999	0.84934
3544.87618	0.84715
3542.82237	0.84492
3540.76856	0.84263
3538.71475	0.84061
3536.66094	0.83905
3534.60713	0.83749
3532.55332	0.83570
3530.49951	0.83368
3528.44570	0.83157
3526.39189	0.82965
3524.33808	0.82793
3522.28427	0.82641
3520.23046	0.82505
3518.17665	0.82351
3516.12284	0.82146
3514.06903	0.81906
3512.01522	0.81683
3509.96141	0.81493
3507.90760	0.81322
3505.85379	0.81172
3503.79998	0.81048
3501.74617	0.80924
3499.69236	0.80737
3497.63855	0.80511
3495.58474	0.80332
3493.53093	0.80193
3491.47712	0.80063
3489.42331	0.79940
3487.36950	0.79807
3485.31569	0.79664
3483.26188	0.79544
3481.20807	0.79460
3479.15426	0.79374
3477.10045	0.79233
3475.04664	0.79065
3472.99283	0.78936
3470.93902	0.78828
3468.88521	0.78712
3466.83140	0.78597
3464.77759	0.78476
3462.72378	0.78340
3460.66997	0.78219
3458.61616	0.78111
3456.56235	0.77976
3454.50854	0.77839
3452.45473	0.77732
3450.40092	0.77640
3448.34711	0.77557
3446.29330	0.77455
3444.23949	0.77309
3442.18568	0.77167
3440.13187	0.77064
3438.07806	0.76967
3436.02425	0.76857
3433.97044	0.76759
3431.91663	0.76664
3429.86282	0.76551
3427.80901	0.76427
3425.75520	0.76300
3423.70139	0.76171
3421.64758	0.76036
3419.59377	0.75902
3417.53996	0.75791
3415.48615	0.75697
3413.43234	0.75594
3411.37853	0.75482
3409.32472	0.75370
3407.27091	0.75272
3405.21710	0.75185
3403.16329	0.75118
3401.10948	0.75054
3399.05567	0.74981
3397.00186	0.74930
3394.94805	0.74902
3392.89424	0.74872
3390.84042	0.74835
3388.78661	0.74794
3386.73280	0.74760
3384.67899	0.74751
3382.62518	0.74786
3380.57137	0.74845
3378.51756	0.74895
3376.46375	0.74922
3374.40994	0.74932
3372.35613	0.74972
3370.30232	0.75055
3368.24851	0.75130
3366.19470	0.75185
3364.14089	0.75231
3362.08708	0.75280
3360.03327	0.75353
3357.97946	0.75428
3355.92565	0.75468
3353.87184	0.75494
3351.81803	0.75546
3349.76422	0.75602
3347.71041	0.75632
3345.65660	0.75664
3343.60279	0.75722
3341.54898	0.75796
3339.49517	0.75868
3337.44136	0.75945
3335.38755	0.76036
3333.33374	0.76103
3331.27993	0.76145
3329.22612	0.76208
3327.17231	0.76291
3325.11850	0.76348
3323.06469	0.76371
3321.01088	0.76406
3318.95707	0.76463
3316.90326	0.76530
3314.84945	0.76632
3312.79564	0.76754
3310.74183	0.76839
3308.68802	0.76890
3306.63421	0.76941
3304.58040	0.77000
3302.52659	0.77048
3300.47278	0.77074
3298.41897	0.77101
3296.36516	0.77152
3294.31135	0.77208
3292.25754	0.77259
3290.20373	0.77319
3288.14992	0.77379
3286.09611	0.77437
3284.04230	0.77490
3281.98849	0.77535
3279.93468	0.77606
3277.88087	0.77714
3275.82706	0.77821
3273.77325	0.77912
3271.71944	0.77987
3269.66563	0.78056
3267.61182	0.78135
3265.55801	0.78211
3263.50420	0.78302
3261.45039	0.78436
3259.39658	0.78554
3257.34277	0.78630
3255.28896	0.78711
3253.23515	0.78816
3251.18134	0.78934
3249.12753	0.79056
3247.07372	0.79155
3245.01991	0.79243
3242.96610	0.79349
3240.91229	0.79472
3238.85848	0.79595
3236.80467	0.79717
3234.75086	0.79860
3232.69705	0.80017
3230.64324	0.80139
3228.58943	0.80214
3226.53562	0.80309
3224.48181	0.80447
3222.42800	0.80611
3220.37419	0.80777
3218.32038	0.80893
3216.26657	0.80997
3214.21276	0.81166
3212.15895	0.81358
3210.10514	0.81528
3208.05133	0.81703
3205.99752	0.81876
3203.94371	0.82020
3201.88990	0.82145
3199.83609	0.82263
3197.78228	0.82391
3195.72847	0.82547
3193.67466	0.82729
3191.62085	0.82935
3189.56704	0.83146
3187.51323	0.83326
3185.45942	0.83472
3183.40561	0.83635
3181.35180	0.83829
3179.29799	0.84012
3177.24418	0.84191
3175.19037	0.84384
3173.13656	0.84564
3171.08275	0.84741
3169.02894	0.84932
3166.97513	0.85094
3164.92132	0.85231
3162.86751	0.85410
3160.81370	0.85631
3158.75989	0.85815
3156.70608	0.85942
3154.65227	0.86090
3152.59846	0.86278
3150.54465	0.86457
3148.49084	0.86613
3146.43703	0.86771
3144.38322	0.86951
3142.32941	0.87139
3140.27560	0.87309
3138.22179	0.87479
3136.16798	0.87662
3134.11417	0.87818
3132.06036	0.87945
3130.00655	0.88074
3127.95274	0.88212
3125.89893	0.88367
3123.84512	0.88531
3121.79131	0.88686
3119.73750	0.88839
3117.68369	0.89002
3115.62988	0.89171
3113.57607	0.89345
3111.52226	0.89503
3109.46845	0.89626
3107.41464	0.89735
3105.36083	0.89847
3103.30702	0.89968
3101.25321	0.90106
3099.19940	0.90236
3097.14559	0.90354
3095.09177	0.90492
3093.03796	0.90623
3090.98415	0.90733
3088.93034	0.90863
3086.87653	0.91001
3084.82272	0.91110
3082.76891	0.91203
3080.71510	0.91307
3078.66129	0.91427
3076.60748	0.91540
3074.55367	0.91637
3072.49986	0.91741
3070.44605	0.91849
3068.39224	0.91946
3066.33843	0.92056
3064.28462	0.92185
3062.23081	0.92314
3060.17700	0.92429
3058.12319	0.92518
3056.06938	0.92602
3054.01557	0.92718
3051.96176	0.92852
3049.90795	0.92960
3047.85414	0.93057
3045.80033	0.93176
3043.74652	0.93302
3041.69271	0.93425
3039.63890	0.93544
3037.58509	0.93647
3035.53128	0.93732
3033.47747	0.93802
3031.42366	0.93874
3029.36985	0.93952
3027.31604	0.94046
3025.26223	0.94153
3023.20842	0.94247
3021.15461	0.94334
3019.10080	0.94418
3017.04699	0.94492
3014.99318	0.94558
3012.93937	0.94620
3010.88556	0.94709
3008.83175	0.94821
3006.77794	0.94904
3004.72413	0.94953
3002.67032	0.95005
3000.61651	0.95078
2998.56270	0.95145
2996.50889	0.95194
2994.45508	0.95262
2992.40127	0.95347
2990.34746	0.95413
2988.29365	0.95466
2986.23984	0.95512
2984.18603	0.95546
2982.13222	0.95599
2980.07841	0.95678
2978.02460	0.95752
2975.97079	0.95799
2973.91698	0.95819
2971.86317	0.95793
2969.80936	0.95731
2967.75555	0.95683
2965.70174	0.95662
2963.64793	0.95645
2961.59412	0.95647
2959.54031	0.95721
2957.48650	0.95887
2955.43269	0.96118
2953.37888	0.96381
2951.32507	0.96652
2949.27126	0.96913
2947.21745	0.97180
2945.16364	0.97485
2943.10983	0.97835
2941.05602	0.98243
2939.00221	0.98713
2936.94840	0.99249
2934.89459	0.99905
2932.84078	1.00708
2930.78697	1.01679
2928.73316	1.02968
2926.67935	1.04803
2924.62554	1.07447
2922.57173	1.11172
2920.51792	1.16084
2918.46411	1.21875
2916.41030	1.27426
2914.35649	1.30840
2912.30268	1.30932
2910.24887	1.28388
2908.19506	1.24774
2906.14125	1.21337
2904.08744	1.18579
2902.03363	1.16470
2899.97982	1.14837
2897.92601	1.13522
2895.87220	1.12408
2893.81839	1.11396
2891.76458	1.10425
2889.71077	1.09492
2887.65696	1.08567
2885.60315	1.07579
2883.54934	1.06495
2881.49553	1.05331
2879.44172	1.04157
2877.38791	1.03069
2875.33410	1.02132
2873.28029	1.01421
2871.22648	1.01009
2869.17267	1.00874
2867.11886	1.00933
2865.06505	1.01143
2863.01124	1.01525
2860.95743	1.02161
2858.90362	1.03231
2856.84981	1.05058
2854.79600	1.08287
2852.74219	1.14059
2850.68838	1.23177
2848.63457	1.32760
2846.58076	1.34932
2844.52695	1.28596
2842.47314	1.20620
2840.41933	1.14514
2838.36552	1.10399
2836.31171	1.07663
2834.25790	1.05792
2832.20409	1.04453
2830.15028	1.03459
2828.09647	1.02708
2826.04266	1.02122
2823.98885	1.01663
2821.93504	1.01297
2819.88123	1.00977
2817.82742	1.00681
2815.77361	1.00431
2813.71980	1.00233
2811.66599	1.00071
2809.61218	0.99931
2807.55837	0.99821
2805.50456	0.99739
2803.45075	0.99661
2801.39693	0.99572
2799.34312	0.99477
2797.28931	0.99400
2795.23550	0.99350
2793.18169	0.99293
2791.12788	0.99208
2789.07407	0.99123
2787.02026	0.99050
2784.96645	0.98990
2782.91264	0.98938
2780.85883	0.98890
2778.80502	0.98857
2776.75121	0.98837
2774.69740	0.98824
2772.64359	0.98815
2770.58978	0.98805
2768.53597	0.98787
2766.48216	0.98769
2764.42835	0.98760
2762.37454	0.98748
2760.32073	0.98730
2758.26692	0.98721
2756.21311	0.98718
2754.15930	0.98712
2752.10549	0.98715
2750.05168	0.98731
2747.99787	0.98749
2745.94406	0.98751
2743.89025	0.98752
2741.83644	0.98767
2739.78263	0.98774
2737.72882	0.98773
2735.67501	0.98773
2733.62120	0.98774
2731.56739	0.98788
2729.51358	0.98811
2727.45977	0.98810
2725.40596	0.98783
2723.35215	0.98770
2721.29834	0.98775
2719.24453	0.98779
2717.19072	0.98782
2715.13691	0.98779
2713.08310	0.98776
2711.02929	0.98784
2708.97548	0.98788
2706.92167	0.98786
2704.86786	0.98781
2702.81405	0.98768
2700.76024	0.98750
2698.70643	0.98752
2696.65262	0.98768
2694.59881	0.98773
2692.54500	0.98765
2690.49119	0.98760
2688.43738	0.98770
2686.38357	0.98781
2684.32976	0.98797
2682.27595	0.98814
2680.22214	0.98814
2678.16833	0.98826
2676.11452	0.98863
2674.06071	0.98899
2672.00690	0.98930
2669.95309	0.98955
2667.89928	0.98960
2665.84547	0.98961
2663.79166	0.98978
2661.73785	0.99007
2659.68404	0.99032
2657.63023	0.99034
2655.57642	0.99026
2653.52261	0.99029
2651.46880	0.99046
2649.41499	0.99060
2647.36118	0.99065
2645.30737	0.99081
2643.25356	0.99103
2641.19975	0.99114
2639.14594	0.99123
2637.09213	0.99124
2635.03832	0.99103
2632.98451	0.99083
2630.93070	0.99073
2628.87689	0.99060
2626.82308	0.99044
2624.76927	0.99033
2622.71546	0.99018
2620.66165	0.99000
2618.60784	0.98993
2616.55403	0.98970
2614.50022	0.98929
2612.44641	0.98914
2610.39260	0.98913
2608.33879	0.98898
2606.28498	0.98887
2604.23117	0.98904
2602.17736	0.98924
2600.12355	0.98902
2598.06974	0.98847
2596.01593	0.98820
2593.96212	0.98833
2591.90831	0.98828
2589.85450	0.98806
2587.80069	0.98801
2585.74688	0.98812
2583.69307	0.98830
2581.63926	0.98827
2579.58545	0.98806
2577.53164	0.98802
2575.47783	0.98794
2573.42402	0.98762
2571.37021	0.98743
2569.31640	0.98739
2567.26259	0.98742
2565.20878	0.98767
2563.15497	0.98794
2561.10116	0.98798
2559.04735	0.98785
2556.99354	0.98779
2554.93973	0.98788
2552.88592	0.98775
2550.83211	0.98746
2548.77830	0.98749
2546.72449	0.98767
2544.67068	0.98763
2542.61687	0.98727
2540.56306	0.98683
2538.50925	0.98657
2536.45544	0.98634
2534.40163	0.98615
2532.34782	0.98635
2530.29401	0.98690
2528.24020	0.98722
2526.18639	0.98696
2524.13258	0.98656
2522.07877	0.98655
2520.02496	0.98657
2517.97115	0.98630
2515.91734	0.98606
2513.86353	0.98588
2511.80972	0.98577
2509.75591	0.98587
2507.70210	0.98594
2505.64828	0.98601
2503.59447	0.98627
2501.54066	0.98643
2499.48685	0.98634
2497.43304	0.98620
2495.37923	0.98590
2493.32542	0.98544
2491.27161	0.98532
2489.21780	0.98571
2487.16399	0.98622
2485.11018	0.98605
2483.05637	0.98531
2481.00256	0.98518
2478.94875	0.98572
2476.89494	0.98605
2474.84113	0.98598
2472.78732	0.98567
2470.73351	0.98516
2468.67970	0.98478
2466.62589	0.98487
2464.57208	0.98521
2462.51827	0.98524
2460.46446	0.98514
2458.41065	0.98522
2456.35684	0.98499
2454.30303	0.98447
2452.24922	0.98429
2450.19541	0.98457
2448.14160	0.98500
2446.08779	0.98511
2444.03398	0.98482
2441.98017	0.98455
2439.92636	0.98460
2437.87255	0.98486
2435.81874	0.98505
2433.76493	0.98479
2431.71112	0.98447
2429.65731	0.98455
2427.60350	0.98476
2425.54969	0.98485
2423.49588	0.98487
2421.44207	0.98482
2419.38826	0.98463
2417.33445	0.98443
2415.28064	0.98437
2413.22683	0.98443
2411.17302	0.98458
2409.11921	0.98459
2407.06540	0.98441
2405.01159	0.98422
2402.95778	0.98408
2400.90397	0.98393
2398.85016	0.98375
2396.79635	0.98356
2394.74254	0.98332
2392.68873	0.98306
2390.63492	0.98295
2388.58111	0.98299
2386.52730	0.98326
2384.47349	0.98361
2382.41968	0.98362
2380.36587	0.98342
2378.31206	0.98329
2376.25825	0.98305
2374.20444	0.98266
2372.15063	0.98224
2370.09682	0.98201
2368.04301	0.98227
2365.98920	0.98281
2363.93539	0.98273
2361.88158	0.98172
2359.82777	0.98120
2357.77396	0.98184
2355.72015	0.98220
2353.66634	0.98231
2351.61253	0.98308
2349.55872	0.98374
2347.50491	0.98399
2345.45110	0.98435
2343.39729	0.98460
2341.34348	0.98425
2339.28967	0.98381
2337.23586	0.98393
2335.18205	0.98446
2333.12824	0.98450
2331.07443	0.98370
2329.02062	0.98298
2326.96681	0.98319
2324.91300	0.98379
2322.85919	0.98365
2320.80538	0.98281
2318.75157	0.98205
2316.69776	0.98144
2314.64395	0.98101
2312.59014	0.98082
2310.53633	0.98097
2308.48252	0.98152
2306.42871	0.98209
2304.37490	0.98231
2302.32109	0.98199
2300.26728	0.98132
2298.21347	0.98071
2296.15966	0.98031
2294.10585	0.98023
2292.05204	0.98042
2289.99823	0.98076
2287.94442	0.98156
2285.89061	0.98248
2283.83680	0.98249
2281.78299	0.98220
2279.72918	0.98216
2277.67537	0.98165
2275.62156	0.98079
2273.56775	0.98004
2271.51394	0.97951
2269.46013	0.97951
2267.40632	0.97991
2265.35251	0.97983
2263.29870	0.97897
2261.24489	0.97801
2259.19108	0.97783
2257.13727	0.97845
2255.08346	0.97882
2253.02965	0.97851
2250.97584	0.97806
2248.92203	0.97780
2246.86822	0.97789
2244.81441	0.97792
2242.76060	0.97765
2240.70679	0.97765
2238.65298	0.97789
2236.59917	0.97837
2234.54536	0.97903
2232.49155	0.97951
2230.43774	0.98016
2228.38393	0.98043
2226.33012	0.97965
2224.27631	0.97834
2222.22250	0.97736
2220.16869	0.97724
2218.11488	0.97743
2216.06107	0.97732
2214.00726	0.97664
2211.95344	0.97511
2209.89963	0.97329
2207.84582	0.97315
2205.79201	0.97492
2203.73820	0.97659
2201.68439	0.97766
2199.63058	0.97816
2197.57677	0.97827
2195.52296	0.97905
2193.46915	0.97999
2191.41534	0.97957
2189.36153	0.97843
2187.30772	0.97861
2185.25391	0.97966
2183.20010	0.97962
2181.14629	0.97921
2179.09248	0.97946
2177.03867	0.97921
2174.98486	0.97871
2172.93105	0.97925
2170.87724	0.98012
2168.82343	0.97969
2166.76962	0.97844
2164.71581	0.97772
2162.66200	0.97727
2160.60819	0.97633
2158.55438	0.97475
2156.50057	0.97405
2154.44676	0.97511
2152.39295	0.97574
2150.33914	0.97531
2148.28533	0.97593
2146.23152	0.97701
2144.17771	0.97664
2142.12390	0.97563
2140.07009	0.97524
2138.01628	0.97527
2135.96247	0.97478
2133.90866	0.97368
2131.85485	0.97294
2129.80104	0.97261
2127.74723	0.97245
2125.69342	0.97296
2123.63961	0.97384
2121.58580	0.97428
2119.53199	0.97396
2117.47818	0.97318
2115.42437	0.97300
2113.37056	0.97357
2111.31675	0.97391
2109.26294	0.97372
2107.20913	0.97365
2105.15532	0.97408
2103.10151	0.97456
2101.04770	0.97489
2098.99389	0.97511
2096.94008	0.97478
2094.88627	0.97388
2092.83246	0.97330
2090.77865	0.97335
2088.72484	0.97383
2086.67103	0.97490
2084.61722	0.97599
2082.56341	0.97608
2080.50960	0.97534
2078.45579	0.97500
2076.40198	0.97540
2074.34817	0.97559
2072.29436	0.97531
2070.24055	0.97538
2068.18674	0.97571
2066.13293	0.97552
2064.07912	0.97457
2062.02531	0.97416
2059.97150	0.97443
2057.91769	0.97436
2055.86388	0.97465
2053.81007	0.97572
2051.75626	0.97642
2049.70245	0.97593
2047.64864	0.97504
2045.59483	0.97506
2043.54102	0.97612
2041.48721	0.97722
2039.43340	0.97794
2037.37959	0.97859
2035.32578	0.97924
2033.27197	0.97957
2031.21816	0.97893
2029.16435	0.97775
2027.11054	0.97736
2025.05673	0.97818
2023.00292	0.97874
2020.94911	0.97802
2018.89530	0.97675
2016.84149	0.97534
2014.78768	0.97494
2012.73387	0.97600
2010.68006	0.97680
2008.62625	0.97594
2006.57244	0.97422
2004.51863	0.97424
2002.46482	0.97589
2000.41101	0.97625
1998.35720	0.97510
1996.30339	0.97476
1994.24958	0.97567
1992.19577	0.97601
1990.14196	0.97613
1988.08815	0.97705
1986.03434	0.97771
1983.98053	0.97824
1981.92672	0.97895
1979.87291	0.97854
1977.81910	0.97751
1975.76529	0.97823
1973.71148	0.97953
1971.65767	0.97936
1969.60386	0.97781
1967.55005	0.97616
1965.49624	0.97687
1963.44243	0.97886
1961.38862	0.97858
1959.33481	0.97701
1957.28100	0.97696
1955.22719	0.97719
1953.17338	0.97670
1951.11957	0.97686
1949.06576	0.97755
1947.01195	0.97774
1944.95814	0.97729
1942.90433	0.97663
1940.85052	0.97695
1938.79671	0.97814
1936.74290	0.97856
1934.68909	0.97796
1932.63528	0.97750
1930.58147	0.97766
1928.52766	0.97773
1926.47385	0.97785
1924.42004	0.97865
1922.36623	0.97869
1920.31242	0.97725
1918.25861	0.97633
1916.20479	0.97675
1914.15098	0.97732
1912.09717	0.97769
1910.04336	0.97773
1907.98955	0.97736
1905.93574	0.97704
1903.88193	0.97698
1901.82812	0.97700
1899.77431	0.97699
1897.72050	0.97732
1895.66669	0.97774
1893.61288	0.97740
1891.55907	0.97680
1889.50526	0.97671
1887.45145	0.97677
1885.39764	0.97657
1883.34383	0.97598
1881.29002	0.97537
1879.23621	0.97523
1877.18240	0.97530
1875.12859	0.97548
1873.07478	0.97597
1871.02097	0.97653
1868.96716	0.97652
1866.91335	0.97589
1864.85954	0.97533
1862.80573	0.97485
1860.75192	0.97449
1858.69811	0.97439
1856.64430	0.97431
1854.59049	0.97432
1852.53668	0.97457
1850.48287	0.97469
1848.42906	0.97466
1846.37525	0.97462
1844.32144	0.97462
1842.26763	0.97494
1840.21382	0.97526
1838.16001	0.97511
1836.10620	0.97459
1834.05239	0.97436
1831.99858	0.97449
1829.94477	0.97467
1827.89096	0.97457
1825.83715	0.97419
1823.78334	0.97403
1821.72953	0.97429
1819.67572	0.97454
1817.62191	0.97452
1815.56810	0.97439
1813.51429	0.97422
1811.46048	0.97396
1809.40667	0.97366
1807.35286	0.97350
1805.29905	0.97356
1803.24524	0.97392
1801.19143	0.97427
1799.13762	0.97438
1797.08381	0.97476
1795.03000	0.97537
1792.97619	0.97595
1790.92238	0.97664
1788.86857	0.97716
1786.81476	0.97720
1784.76095	0.97722
1782.70714	0.97739
1780.65333	0.97753
1778.59952	0.97774
1776.54571	0.97816
1774.49190	0.97866
1772.43809	0.97887
1770.38428	0.97876
1768.33047	0.97880
1766.27666	0.97899
1764.22285	0.97904
1762.16904	0.97894
1760.11523	0.97866
1758.06142	0.97851
1756.00761	0.97850
1753.95380	0.97855
1751.89999	0.97888
1749.84618	0.97948
1747.79237	0.98023
1745.73856	0.98112
1743.68475	0.98217
1741.63094	0.98346
1739.57713	0.98477
1737.52332	0.98520
1735.46951	0.98509
1733.41570	0.98489
1731.36189	0.98464
1729.30808	0.98516
1727.25427	0.98699
1725.20046	0.98989
1723.14665	0.99375
1721.09284	0.99777
1719.03903	1.00201
1716.98522	1.00727
1714.93141	1.01054
1712.87760	1.01012
1710.82379	1.00653
1708.76998	1.00063
1706.71617	0.99312
1704.66236	0.98513
1702.60855	0.97825
1700.55474	0.97105
1698.50093	0.96354
1696.44712	0.95518
1694.39331	0.94484
1692.33950	0.93586
1690.28569	0.92765
1688.23188	0.91975
1686.17807	0.91271
1684.12426	0.90457
1682.07045	0.89780
1680.01664	0.89372
1677.96283	0.89016
1675.90902	0.88628
1673.85521	0.88215
1671.80140	0.87844
1669.74759	0.87420
1667.69378	0.86942
1665.63997	0.86533
1663.58616	0.86093
1661.53235	0.85579
1659.47854	0.85103
1657.42473	0.84726
1655.37092	0.84437
1653.31711	0.84034
1651.26330	0.83585
1649.20949	0.83352
1647.15568	0.83186
1645.10187	0.83079
1643.04806	0.83052
1640.99425	0.83051
1638.94044	0.83070
1636.88663	0.83126
1634.83282	0.83240
1632.77901	0.83360
1630.72520	0.83477
1628.67139	0.83618
1626.61758	0.83753
1624.56377	0.83893
1622.50996	0.84110
1620.45614	0.84377
1618.40233	0.84745
1616.34852	0.85403
1614.29471	0.86142
1612.24090	0.86790
1610.18709	0.87463
1608.13328	0.88135
1606.07947	0.88734
1604.02566	0.89273
1601.97185	0.89791
1599.91804	0.90258
1597.86423	0.90644
1595.81042	0.90991
1593.75661	0.91343
1591.70280	0.91675
1589.64899	0.91952
1587.59518	0.92167
1585.54137	0.92347
1583.48756	0.92509
1581.43375	0.92648
1579.37994	0.92752
1577.32613	0.92828
1575.27232	0.92893
1573.21851	0.92931
1571.16470	0.92920
1569.11089	0.92856
1567.05708	0.92796
1565.00327	0.92725
1562.94946	0.92626
1560.89565	0.92514
1558.84184	0.92321
1556.78803	0.92104
1554.73422	0.91947
1552.68041	0.91817
1550.62660	0.91711
1548.57279	0.91622
1546.51898	0.91581
1544.46517	0.91610
1542.41136	0.91683
1540.35755	0.91771
1538.30374	0.91863
1536.24993	0.91934
1534.19612	0.92033
1532.14231	0.92168
1530.08850	0.92287
1528.03469	0.92408
1525.98088	0.92549
1523.92707	0.92675
1521.87326	0.92803
1519.81945	0.92909
1517.76564	0.92990
1515.71183	0.93119
1513.65802	0.93284
1511.60421	0.93461
1509.55040	0.93656
1507.49659	0.93911
1505.44278	0.94173
1503.38897	0.94322
1501.33516	0.94452
1499.28135	0.94609
1497.22754	0.94759
1495.17373	0.94882
1493.11992	0.94995
1491.06611	0.95134
1489.01230	0.95306
1486.95849	0.95474
1484.90468	0.95637
1482.85087	0.95844
1480.79706	0.96206
1478.74325	0.97073
1476.68944	0.99430
1474.63563	1.04017
1472.58182	1.07344
1470.52801	1.04514
1468.47420	1.00698
1466.42039	0.99493
1464.36658	1.01519
1462.31277	1.03444
1460.25896	1.01816
1458.20515	0.98310
1456.15134	0.95946
1454.09753	0.95330
1452.04372	0.95181
1449.98991	0.95123
1447.93610	0.95123
1445.88229	0.95170
1443.82848	0.95223
1441.77467	0.95270
1439.72086	0.95323
1437.66705	0.95395
1435.61324	0.95468
1433.55943	0.95521
1431.50562	0.95582
1429.45181	0.95664
1427.39800	0.95720
1425.34419	0.95757
1423.29038	0.95810
1421.23657	0.95882
1419.18276	0.95973
1417.12895	0.96071
1415.07514	0.96172
1413.02133	0.96287
1410.96752	0.96360
1408.91371	0.96350
1406.85990	0.96296
1404.80609	0.96208
1402.75228	0.96085
1400.69847	0.95954
1398.64466	0.95841
1396.59085	0.95759
1394.53704	0.95700
1392.48323	0.95658
1390.42942	0.95637
1388.37561	0.95647
1386.32180	0.95680
1384.26799	0.95702
1382.21418	0.95690
1380.16037	0.95671
1378.10656	0.95695
1376.05275	0.95767
1373.99894	0.95827
1371.94513	0.95833
1369.89132	0.95790
1367.83751	0.95715
1365.78370	0.95632
1363.72989	0.95568
1361.67608	0.95543
1359.62227	0.95530
1357.56846	0.95509
1355.51465	0.95484
1353.46084	0.95445
1351.40703	0.95395
1349.35322	0.95358
1347.29941	0.95323
1345.24560	0.95283
1343.19179	0.95240
1341.13798	0.95181
1339.08417	0.95119
1337.03036	0.95083
1334.97655	0.95081
1332.92274	0.95103
1330.86893	0.95135
1328.81512	0.95161
1326.76130	0.95182
1324.70749	0.95204
1322.65368	0.95221
1320.59987	0.95246
1318.54606	0.95289
1316.49225	0.95309
1314.43844	0.95298
1312.38463	0.95275
1310.33082	0.95262
1308.27701	0.95274
1306.22320	0.95300
1304.16939	0.95330
1302.11558	0.95362
1300.06177	0.95390
1298.00796	0.95404
1295.95415	0.95408
1293.90034	0.95412
1291.84653	0.95397
1289.79272	0.95344
1287.73891	0.95275
1285.68510	0.95212
1283.63129	0.95154
1281.57748	0.95087
1279.52367	0.95000
1277.46986	0.94907
1275.41605	0.94823
1273.36224	0.94748
1271.30843	0.94659
1269.25462	0.94555
1267.20081	0.94447
1265.14700	0.94333
1263.09319	0.94211
1261.03938	0.94092
1258.98557	0.93977
1256.93176	0.93847
1254.87795	0.93681
1252.82414	0.93480
1250.77033	0.93266
1248.71652	0.93057
1246.66271	0.92853
1244.60890	0.92626
1242.55509	0.92390
1240.50128	0.92178
1238.44747	0.91972
1236.39366	0.91738
1234.33985	0.91496
1232.28604	0.91282
1230.23223	0.91084
1228.17842	0.90885
1226.12461	0.90688
1224.07080	0.90497
1222.01699	0.90320
1219.96318	0.90144
1217.90937	0.89963
1215.85556	0.89790
1213.80175	0.89607
1211.74794	0.89403
1209.69413	0.89221
1207.64032	0.89068
1205.58651	0.88906
1203.53270	0.88737
1201.47889	0.88576
1199.42508	0.88422
1197.37127	0.88277
1195.31746	0.88133
1193.26365	0.87981
1191.20984	0.87837
1189.15603	0.87711
1187.10222	0.87592
1185.04841	0.87482
1182.99460	0.87359
1180.94079	0.87205
1178.88698	0.87049
1176.83317	0.86893
1174.77936	0.86686
1172.72555	0.86415
1170.67174	0.86133
1168.61793	0.85848
1166.56412	0.85526
1164.51031	0.85156
1162.45650	0.84742
1160.40269	0.84298
1158.34888	0.83829
1156.29507	0.83342
1154.24126	0.82855
1152.18745	0.82374
1150.13364	0.81897
1148.07983	0.81417
1146.02602	0.80932
1143.97221	0.80459
1141.91840	0.79990
1139.86459	0.79525
1137.81078	0.79117
1135.75697	0.78773
1133.70316	0.78451
1131.64935	0.78137
1129.59554	0.77824
1127.54173	0.77489
1125.48792	0.77110
1123.43411	0.76711
1121.38030	0.76341
1119.32649	0.76020
1117.27268	0.75738
1115.21887	0.75466
1113.16506	0.75205
1111.11125	0.74985
1109.05744	0.74782
1107.00363	0.74559
1104.94982	0.74362
1102.89601	0.74234
1100.84220	0.74155
1098.78839	0.74105
1096.73458	0.74083
1094.68077	0.74090
1092.62696	0.74140
1090.57315	0.74240
1088.51934	0.74386
1086.46553	0.74570
1084.41172	0.74781
1082.35791	0.75008
1080.30410	0.75240
1078.25029	0.75483
1076.19648	0.75763
1074.14267	0.76069
1072.08886	0.76374
1070.03505	0.76650
1067.98124	0.76847
1065.92743	0.76962
1063.87362	0.77026
1061.81981	0.77030
1059.76600	0.76969
1057.71219	0.76861
1055.65838	0.76730
1053.60457	0.76606
1051.55076	0.76521
1049.49695	0.76499
1047.44314	0.76544
1045.38933	0.76619
1043.33552	0.76711
1041.28171	0.76840
1039.22790	0.76996
1037.17409	0.77155
1035.12028	0.77339
1033.06647	0.77585
1031.01265	0.77899
1028.95884	0.78278
1026.90503	0.78687
1024.85122	0.79071
1022.79741	0.79401
1020.74360	0.79681
1018.68979	0.79956
1016.63598	0.80238
1014.58217	0.80516
1012.52836	0.80819
1010.47455	0.81158
1008.42074	0.81480
1006.36693	0.81751
1004.31312	0.82069
1002.25931	0.82549
1000.20550	0.83124
998.15169	0.83680
996.09788	0.84200
994.04407	0.84693
991.99026	0.85130
989.93645	0.85476
987.88264	0.85742
985.82883	0.85962
983.77502	0.86163
981.72121	0.86358
979.66740	0.86557
977.61359	0.86762
975.55978	0.86947
973.50597	0.87104
971.45216	0.87255
969.39835	0.87404
967.34454	0.87548
965.29073	0.87704
963.23692	0.87866
961.18311	0.88014
959.12930	0.88172
957.07549	0.88352
955.02168	0.88507
952.96787	0.88633
950.91406	0.88728
948.86025	0.88777
946.80644	0.88798
944.75263	0.88800
942.69882	0.88786
940.64501	0.88772
938.59120	0.88738
936.53739	0.88665
934.48358	0.88581
932.42977	0.88501
930.37596	0.88432
928.32215	0.88372
926.26834	0.88291
924.21453	0.88185
922.16072	0.88053
920.10691	0.87887
918.05310	0.87691
915.99929	0.87514
913.94548	0.87425
911.89167	0.87424
909.83786	0.87446
907.78405	0.87453
905.73024	0.87465
903.67643	0.87512
901.62262	0.87543
899.56881	0.87504
897.51500	0.87449
895.46119	0.87421
893.40738	0.87395
891.35357	0.87352
889.29976	0.87300
887.24595	0.87237
885.19214	0.87155
883.13833	0.87084
881.08452	0.87022
879.03071	0.86958
876.97690	0.86931
874.92309	0.86929
872.86928	0.86875
870.81547	0.86776
868.76166	0.86700
866.70785	0.86631
864.65404	0.86553
862.60023	0.86506
860.54642	0.86446
858.49261	0.86331
856.43880	0.86222
854.38499	0.86111
852.33118	0.85966
850.27737	0.85844
848.22356	0.85765
846.16975	0.85670
844.11594	0.85514
842.06213	0.85322
840.00832	0.85129
837.95451	0.84948
835.90070	0.84779
833.84689	0.84600
831.79308	0.84400
829.73927	0.84194
827.68546	0.84017
825.63165	0.83869
823.57784	0.83736
821.52403	0.83620
819.47022	0.83483
817.41641	0.83310
815.36260	0.83141
813.30879	0.82980
811.25498	0.82780
809.20117	0.82520
807.14736	0.82250
805.09355	0.82005
803.03974	0.81746
800.98593	0.81461
798.93212	0.81226
796.87831	0.81055
794.82450	0.80879
792.77069	0.80703
790.71688	0.80574
788.66307	0.80460
786.60926	0.80354
784.55545	0.80307
782.50164	0.80280
780.44783	0.80195
778.39402	0.80053
776.34021	0.79901
774.28640	0.79771
772.23259	0.79658
770.17878	0.79553
768.12497	0.79467
766.07116	0.79391
764.01735	0.79301
761.96354	0.79169
759.90973	0.79012
757.85592	0.78853
755.80211	0.78712
753.74830	0.78669
751.69449	0.78694
749.64068	0.78638
747.58687	0.78500
745.53306	0.78419
743.47925	0.78473
741.42544	0.78619
739.37163	0.78841
737.31781	0.79366
735.26400	0.80823
733.21019	0.83692
731.15638	0.86125
729.10257	0.84985
727.04876	0.82051
724.99495	0.80683
722.94114	0.81509
720.88733	0.84033
718.83352	0.86072
716.77971	0.85076
714.72590	0.81953
712.67209	0.78873
710.61828	0.76902
708.56447	0.75913
706.51066	0.75390
704.45685	0.75078
702.40304	0.74847
700.34923	0.74633
698.29542	0.74461
696.24161	0.74329
694.18780	0.74232
692.13399	0.74229
690.08018	0.74251
688.02637	0.74128
685.97256	0.73915
683.91875	0.73738
681.86494	0.73588
679.81113	0.73451
677.75732	0.73251
675.70351	0.72874
673.64970	0.72379
671.59589	0.71923
669.54208	0.71430
667.48827	0.70805
665.43446	0.70608
663.38065	0.70889
661.32684	0.71397
659.27303	0.71874
657.21922	0.72162
655.16541	0.72289
653.11160	0.72370
651.05779	0.72398
649.00398	0.72269
646.95017	0.72044
644.89636	0.71901
642.84255	0.71828
640.78874	0.71697
638.73493	0.71531
636.68112	0.71393
634.62731	0.71286
632.57350	0.71193
630.51969	0.71047
628.46588	0.70843
626.41207	0.70632
624.35826	0.70436
622.30445	0.70242
620.25064	0.70028
618.19683	0.69856
616.14302	0.69686
614.08921	0.69408
612.03540	0.69074
609.98159	0.68621
607.92778	0.68005
605.87397	0.67395
603.82016	0.66835
601.76635	0.66364
599.71254	0.66135
597.65873	0.66106
595.60492	0.66165
593.55111	0.66370
591.49730	0.66648
589.44349	0.66737
587.38968	0.66697
585.33587	0.66748
583.28206	0.66806
581.22825	0.66742
579.17444	0.66687
577.12063	0.66754
575.06682	0.66868
573.01301	0.66883
570.95920	0.66791
568.90539	0.66760
566.85158	0.66901
564.79777	0.67065
562.74396	0.67051
560.69015	0.66917
558.63634	0.66785
556.58253	0.66707
554.52872	0.66783
552.47491	0.66958
550.42110	0.67072
548.36729	0.67070
546.31348	0.66901
544.25967	0.66592
542.20586	0.66335
540.15205	0.66248
538.09824	0.66248
536.04443	0.66194
533.99062	0.66084
531.93681	0.66066
529.88300	0.66128
527.82919	0.66081
525.77538	0.65987
523.72157	0.65982
521.66776	0.66005
519.61395	0.66081
517.56014	0.66202
515.50633	0.66282
513.45252	0.66351
511.39871	0.66430
509.34490	0.66479
507.29109	0.66424
505.23728	0.66228
503.18347	0.66046
501.12966	0.66022
499.07585	0.65970
497.02204	0.65785
494.96823	0.65659
492.91442	0.65581
490.86061	0.65439
488.80680	0.65312
486.75299	0.65124
484.69918	0.64758
482.64537	0.64326
480.59156	0.63918
478.53775	0.63549
476.48394	0.63234
474.43013	0.62833
472.37632	0.62281
470.32251	0.61890
468.26870	0.61719
466.21489	0.61704
464.16108	0.61959
462.10727	0.62247
460.05346	0.62375
457.99965	0.62556
455.94584	0.62814
453.89203	0.62967
451.83822	0.63048
449.78441	0.63166
447.73060	0.63412
445.67679	0.63771
443.62298	0.64091
441.56916	0.64287
439.51535	0.64362
437.46154	0.64426
435.40773	0.64534
433.35392	0.64611
431.30011	0.64685
429.24630	0.64717
427.19249	0.64585
425.13868	0.64417
423.08487	0.64548
421.03106	0.64867
418.97725	0.64852
416.92344	0.64824
414.86963	0.65306
412.81582	0.65922
410.76201	0.66305
408.70820	0.66468
406.65439	0.66457
404.60058	0.66389
402.54677	0.66554
400.49296	0.66831
398.43915	0.66995
