3996.70104	0.94621
3994.64724	0.94590
3992.59344	0.94552
3990.53964	0.94508
3988.48583	0.94469
3986.43203	0.94486
3984.37823	0.94522
3982.32442	0.94518
3980.27062	0.94513
3978.21682	0.94571
3976.16301	0.94650
3974.10921	0.94661
3972.05541	0.94637
3970.00160	0.94638
3967.94780	0.94614
3965.89400	0.94574
3963.84019	0.94590
3961.78639	0.94613
3959.73259	0.94630
3957.67878	0.94684
3955.62498	0.94731
3953.57118	0.94710
3951.51737	0.94611
3949.46357	0.94518
3947.40977	0.94528
3945.35596	0.94552
3943.30216	0.94521
3941.24836	0.94547
3939.19455	0.94636
3937.14075	0.94687
3935.08695	0.94682
3933.03315	0.94662
3930.97934	0.94671
3928.92554	0.94680
3926.87174	0.94651
3924.81793	0.94642
3922.76413	0.94645
3920.71033	0.94583
3918.65652	0.94528
3916.60272	0.94537
3914.54892	0.94532
3912.49511	0.94483
3910.44131	0.94456
3908.38751	0.94513
3906.33370	0.94583
3904.27990	0.94603
3902.22610	0.94643
3900.17229	0.94688
3898.11849	0.94674
3896.06469	0.94650
3894.01088	0.94649
3891.95708	0.94685
3889.90328	0.94742
3887.84947	0.94741
3885.79567	0.94673
3883.74187	0.94642
3881.68807	0.94695
3879.63426	0.94746
3877.58046	0.94743
3875.52666	0.94725
3873.47285	0.94722
3871.41905	0.94733
3869.36525	0.94745
3867.31144	0.94723
3865.25764	0.94681
3863.20384	0.94678
3861.15003	0.94718
3859.09623	0.94725
3857.04243	0.94683
3854.98862	0.94688
3852.93482	0.94723
3850.88102	0.94672
3848.82721	0.94666
3846.77341	0.94714
3844.71961	0.94749
3842.66580	0.94737
3840.61200	0.94718
3838.55820	0.94729
3836.50439	0.94722
3834.45059	0.94699
3832.39679	0.94709
3830.34298	0.94727
3828.28918	0.94698
3826.23538	0.94661
3824.18158	0.94695
3822.12777	0.94775
3820.07397	0.94811
3818.02017	0.94772
3815.96636	0.94772
3813.91256	0.94825
3811.85876	0.94809
3809.80495	0.94734
3807.75115	0.94697
3805.69735	0.94722
3803.64354	0.94713
3801.58974	0.94676
3799.53594	0.94687
3797.48213	0.94734
3795.42833	0.94782
3793.37453	0.94817
3791.32072	0.94857
3789.26692	0.94899
3787.21312	0.94896
3785.15931	0.94819
3783.10551	0.94739
3781.05171	0.94723
3778.99790	0.94753
3776.94410	0.94774
3774.89030	0.94764
3772.83650	0.94766
3770.78269	0.94798
3768.72889	0.94783
3766.67509	0.94716
3764.62128	0.94715
3762.56748	0.94817
3760.51368	0.94913
3758.45987	0.94893
3756.40607	0.94819
3754.35227	0.94785
3752.29846	0.94851
3750.24466	0.94990
3748.19086	0.95024
3746.13705	0.95012
3744.08325	0.94996
3742.02945	0.94927
3739.97564	0.94885
3737.92184	0.94928
3735.86804	0.94985
3733.81423	0.94963
3731.76043	0.95006
3729.70663	0.95088
3727.65282	0.95069
3725.59902	0.94994
3723.54522	0.94915
3721.49141	0.94845
3719.43761	0.94823
3717.38381	0.94797
3715.33001	0.94753
3713.27620	0.94727
3711.22240	0.94665
3709.16860	0.94562
3707.11479	0.94471
3705.06099	0.94290
3703.00719	0.94015
3700.95338	0.93867
3698.89958	0.93907
3696.84578	0.93956
3694.79197	0.93945
3692.73817	0.93918
3690.68437	0.93885
3688.63056	0.93781
3686.57676	0.93706
3684.52296	0.93738
3682.46915	0.93787
3680.41535	0.93807
3678.36155	0.93818
3676.30774	0.93871
3674.25394	0.93927
3672.20014	0.93914
3670.14633	0.93845
3668.09253	0.93689
3666.03873	0.93561
3663.98492	0.93492
3661.93112	0.93391
3659.87732	0.93283
3657.82352	0.93268
3655.76971	0.93273
3653.71591	0.93184
3651.66211	0.93102
3649.60830	0.93015
3647.55450	0.92846
3645.50070	0.92773
3643.44689	0.92764
3641.39309	0.92724
3639.33929	0.92643
3637.28548	0.92535
3635.23168	0.92448
3633.17788	0.92414
3631.12407	0.92416
3629.07027	0.92340
3627.01647	0.92126
3624.96266	0.91942
3622.90886	0.91868
3620.85506	0.91938
3618.80125	0.92046
3616.74745	0.92063
3614.69365	0.92059
3612.63984	0.92067
3610.58604	0.92078
3608.53224	0.92079
3606.47844	0.92064
3604.42463	0.92089
3602.37083	0.92157
3600.31703	0.92186
3598.26322	0.92154
3596.20942	0.92114
3594.15562	0.92113
3592.10181	0.92152
3590.04801	0.92183
3587.99421	0.92190
3585.94040	0.92169
3583.88660	0.92124
3581.83280	0.92087
3579.77899	0.92064
3577.72519	0.92014
3575.67139	0.91942
3573.61758	0.91863
3571.56378	0.91797
3569.50998	0.91779
3567.45617	0.91819
3565.40237	0.91847
3563.34857	0.91796
3561.29476	0.91723
3559.24096	0.91649
3557.18716	0.91573
3555.13335	0.91537
3553.07955	0.91550
3551.02575	0.91564
3548.97195	0.91532
3546.91814	0.91477
3544.86434	0.91430
3542.81054	0.91383
3540.75673	0.91382
3538.70293	0.91449
3536.64913	0.91487
3534.59532	0.91455
3532.54152	0.91423
3530.48772	0.91422
3528.43391	0.91431
3526.38011	0.91416
3524.32631	0.91379
3522.27250	0.91371
3520.21870	0.91371
3518.16490	0.91321
3516.11109	0.91283
3514.05729	0.91314
3512.00349	0.91356
3509.94968	0.91366
3507.89588	0.91388
3505.84208	0.91429
3503.78827	0.91415
3501.73447	0.91352
3499.68067	0.91319
3497.62687	0.91325
3495.57306	0.91311
3493.51926	0.91265
3491.46546	0.91236
3489.41165	0.91261
3487.35785	0.91287
3485.30405	0.91236
3483.25024	0.91151
3481.19644	0.91125
3479.14264	0.91159
3477.08883	0.91165
3475.03503	0.91111
3472.98123	0.91054
3470.92742	0.91057
3468.87362	0.91082
3466.81982	0.91036
3464.76601	0.90948
3462.71221	0.90901
3460.65841	0.90920
3458.60460	0.90955
3456.55080	0.90950
3454.49700	0.90887
3452.44319	0.90778
3450.38939	0.90681
3448.33559	0.90647
3446.28178	0.90669
3444.22798	0.90673
3442.17418	0.90619
3440.12038	0.90553
3438.06657	0.90522
3436.01277	0.90563
3433.95897	0.90664
3431.90516	0.90691
3429.85136	0.90596
3427.79756	0.90511
3425.74375	0.90515
3423.68995	0.90537
3421.63615	0.90488
3419.58234	0.90423
3417.52854	0.90411
3415.47474	0.90401
3413.42093	0.90340
3411.36713	0.90246
3409.31333	0.90173
3407.25952	0.90150
3405.20572	0.90144
3403.15192	0.90154
3401.09811	0.90192
3399.04431	0.90234
3396.99051	0.90286
3394.93670	0.90333
3392.88290	0.90323
3390.82910	0.90287
3388.77529	0.90285
3386.72149	0.90313
3384.66769	0.90343
3382.61389	0.90353
3380.56008	0.90347
3378.50628	0.90325
3376.45248	0.90288
3374.39867	0.90279
3372.34487	0.90289
3370.29107	0.90260
3368.23726	0.90225
3366.18346	0.90284
3364.12966	0.90386
3362.07585	0.90395
3360.02205	0.90337
3357.96825	0.90326
3355.91444	0.90358
3353.86064	0.90368
3351.80684	0.90376
3349.75303	0.90419
3347.69923	0.90469
3345.64543	0.90493
3343.59162	0.90476
3341.53782	0.90457
3339.48402	0.90482
3337.43021	0.90517
3335.37641	0.90545
3333.32261	0.90560
3331.26881	0.90535
3329.21500	0.90506
3327.16120	0.90528
3325.10740	0.90597
3323.05359	0.90637
3320.99979	0.90657
3318.94599	0.90715
3316.89218	0.90740
3314.83838	0.90696
3312.78458	0.90673
3310.73077	0.90720
3308.67697	0.90784
3306.62317	0.90829
3304.56936	0.90843
3302.51556	0.90813
3300.46176	0.90788
3298.40795	0.90812
3296.35415	0.90865
3294.30035	0.90886
3292.24654	0.90858
3290.19274	0.90838
3288.13894	0.90834
3286.08513	0.90811
3284.03133	0.90784
3281.97753	0.90769
3279.92372	0.90781
3277.86992	0.90855
3275.81612	0.90947
3273.76232	0.90991
3271.70851	0.90990
3269.65471	0.90968
3267.60091	0.90968
3265.54710	0.91025
3263.49330	0.91086
3261.43950	0.91130
3259.38569	0.91169
3257.33189	0.91165
3255.27809	0.91161
3253.22428	0.91230
3251.17048	0.91304
3249.11668	0.91306
3247.06287	0.91272
3245.00907	0.91266
3242.95527	0.91292
3240.90146	0.91299
3238.84766	0.91278
3236.79386	0.91274
3234.74005	0.91294
3232.68625	0.91328
3230.63245	0.91345
3228.57864	0.91349
3226.52484	0.91381
3224.47104	0.91441
3222.41724	0.91484
3220.36343	0.91497
3218.30963	0.91509
3216.25583	0.91494
3214.20202	0.91483
3212.14822	0.91515
3210.09442	0.91530
3208.04061	0.91531
3205.98681	0.91571
3203.93301	0.91641
3201.87920	0.91703
3199.82540	0.91747
3197.77160	0.91746
3195.71779	0.91705
3193.66399	0.91705
3191.61019	0.91770
3189.55638	0.91868
3187.50258	0.91955
3185.44878	0.91982
3183.39497	0.91969
3181.34117	0.91983
3179.28737	0.92027
3177.23356	0.92047
3175.17976	0.92023
3173.12596	0.92011
3171.07215	0.92039
3169.01835	0.92069
3166.96455	0.92099
3164.91075	0.92131
3162.85694	0.92133
3160.80314	0.92151
3158.74934	0.92216
3156.69553	0.92285
3154.64173	0.92328
3152.58793	0.92352
3150.53412	0.92371
3148.48032	0.92374
3146.42652	0.92363
3144.37271	0.92368
3142.31891	0.92392
3140.26511	0.92397
3138.21130	0.92385
3136.15750	0.92385
3134.10370	0.92386
3132.04989	0.92416
3129.99609	0.92500
3127.94229	0.92579
3125.88848	0.92620
3123.83468	0.92658
3121.78088	0.92677
3119.72707	0.92655
3117.67327	0.92629
3115.61947	0.92634
3113.56566	0.92649
3111.51186	0.92656
3109.45806	0.92671
3107.40426	0.92665
3105.35045	0.92613
3103.29665	0.92578
3101.24285	0.92611
3099.18904	0.92681
3097.13524	0.92744
3095.08144	0.92769
3093.02763	0.92765
3090.97383	0.92754
3088.92003	0.92691
3086.86622	0.92533
3084.81242	0.92362
3082.75862	0.92283
3080.70481	0.92298
3078.65101	0.92358
3076.59721	0.92437
3074.54340	0.92508
3072.48960	0.92542
3070.43580	0.92532
3068.38199	0.92476
3066.32819	0.92363
3064.27439	0.92224
3062.22058	0.92118
3060.16678	0.92049
3058.11298	0.92036
3056.05918	0.92113
3054.00537	0.92265
3051.95157	0.92432
3049.89777	0.92570
3047.84396	0.92694
3045.79016	0.92776
3043.73636	0.92797
3041.68255	0.92831
3039.62875	0.92827
3037.57495	0.92714
3035.52114	0.92560
3033.46734	0.92350
3031.41354	0.92003
3029.35973	0.91560
3027.30593	0.91145
3025.25213	0.90919
3023.19832	0.90981
3021.14452	0.91266
3019.09072	0.91640
3017.03691	0.92050
3014.98311	0.92445
3012.92931	0.92695
3010.87550	0.92800
3008.82170	0.92859
3006.76790	0.92863
3004.71409	0.92809
3002.66029	0.92786
3000.60649	0.92844
2998.55269	0.92928
2996.49888	0.92994
2994.44508	0.93064
2992.39128	0.93151
2990.33747	0.93248
2988.28367	0.93338
2986.22987	0.93383
2984.17606	0.93373
2982.12226	0.93343
2980.06846	0.93327
2978.01465	0.93342
2975.96085	0.93368
2973.90705	0.93340
2971.85324	0.93294
2969.79944	0.93299
2967.74564	0.93313
2965.69183	0.93275
2963.63803	0.93186
2961.58423	0.93101
2959.53042	0.93039
2957.47662	0.93016
2955.42282	0.93030
2953.36901	0.93020
2951.31521	0.92962
2949.26141	0.92879
2947.20761	0.92785
2945.15380	0.92664
2943.10000	0.92505
2941.04620	0.92336
2938.99239	0.92163
2936.93859	0.91965
2934.88479	0.91734
2932.83098	0.91454
2930.77718	0.91102
2928.72338	0.90718
2926.66957	0.90414
2924.61577	0.90231
2922.56197	0.90090
2920.50816	0.89947
2918.45436	0.89856
2916.40056	0.89877
2914.34675	0.90012
2912.29295	0.90220
2910.23915	0.90453
2908.18534	0.90697
2906.13154	0.90926
2904.07774	0.91116
2902.02393	0.91279
2899.97013	0.91450
2897.91633	0.91626
2895.86252	0.91787
2893.80872	0.91949
2891.75492	0.92109
2889.70112	0.92236
2887.64731	0.92339
2885.59351	0.92434
2883.53971	0.92494
2881.48590	0.92534
2879.43210	0.92597
2877.37830	0.92654
2875.32449	0.92682
2873.27069	0.92707
2871.21689	0.92736
2869.16308	0.92768
2867.10928	0.92808
2865.05548	0.92820
2863.00167	0.92774
2860.94787	0.92698
2858.89407	0.92586
2856.84026	0.92409
2854.78646	0.92208
2852.73266	0.92051
2850.67885	0.91985
2848.62505	0.92001
2846.57125	0.92076
2844.51744	0.92213
2842.46364	0.92392
2840.40984	0.92591
2838.35603	0.92778
2836.30223	0.92930
2834.24843	0.93053
2832.19463	0.93167
2830.14082	0.93286
2828.08702	0.93374
2826.03322	0.93415
2823.97941	0.93443
2821.92561	0.93486
2819.87181	0.93552
2817.81800	0.93608
2815.76420	0.93614
2813.71040	0.93604
2811.65659	0.93607
2809.60279	0.93607
2807.54899	0.93603
2805.49518	0.93631
2803.44138	0.93690
2801.38758	0.93720
2799.33377	0.93709
2797.27997	0.93700
2795.22617	0.93705
2793.17236	0.93714
2791.11856	0.93734
2789.06476	0.93760
2787.01095	0.93777
2784.95715	0.93807
2782.90335	0.93850
2780.84955	0.93868
2778.79574	0.93858
2776.74194	0.93858
2774.68814	0.93880
2772.63433	0.93909
2770.58053	0.93924
2768.52673	0.93912
2766.47292	0.93915
2764.41912	0.93955
2762.36532	0.93968
2760.31151	0.93941
2758.25771	0.93946
2756.20391	0.93985
2754.15010	0.94003
2752.09630	0.94009
2750.04250	0.94019
2747.98869	0.94018
2745.93489	0.94010
2743.88109	0.94013
2741.82728	0.94028
2739.77348	0.94032
2737.71968	0.94010
2735.66587	0.93999
2733.61207	0.94013
2731.55827	0.94019
2729.50446	0.94018
2727.45066	0.94030
2725.39686	0.94047
2723.34306	0.94035
2721.28925	0.94021
2719.23545	0.94050
2717.18165	0.94080
2715.12784	0.94080
2713.07404	0.94095
2711.02024	0.94124
2708.96643	0.94132
2706.91263	0.94122
2704.85883	0.94103
2702.80502	0.94079
2700.75122	0.94062
2698.69742	0.94062
2696.64361	0.94079
2694.58981	0.94088
2692.53601	0.94090
2690.48220	0.94116
2688.42840	0.94154
2686.37460	0.94196
2684.32079	0.94218
2682.26699	0.94176
2680.21319	0.94119
2678.15938	0.94110
2676.10558	0.94141
2674.05178	0.94177
2671.99797	0.94195
2669.94417	0.94188
2667.89037	0.94164
2665.83657	0.94140
2663.78276	0.94144
2661.72896	0.94180
2659.67516	0.94218
2657.62135	0.94232
2655.56755	0.94226
2653.51375	0.94208
2651.45994	0.94184
2649.40614	0.94190
2647.35234	0.94229
2645.29853	0.94254
2643.24473	0.94237
2641.19093	0.94202
2639.13712	0.94210
2637.08332	0.94248
2635.02952	0.94260
2632.97571	0.94248
2630.92191	0.94221
2628.86811	0.94221
2626.81430	0.94274
2624.76050	0.94309
2622.70670	0.94299
2620.65289	0.94298
2618.59909	0.94329
2616.54529	0.94387
2614.49149	0.94430
2612.43768	0.94395
2610.38388	0.94311
2608.33008	0.94262
2606.27627	0.94257
2604.22247	0.94284
2602.16867	0.94362
2600.11486	0.94446
2598.06106	0.94476
2596.00726	0.94498
2593.95345	0.94520
2591.89965	0.94494
2589.84585	0.94435
2587.79204	0.94393
2585.73824	0.94388
2583.68444	0.94402
2581.63063	0.94421
2579.57683	0.94425
2577.52303	0.94397
2575.46922	0.94370
2573.41542	0.94386
2571.36162	0.94433
2569.30781	0.94474
2567.25401	0.94505
2565.20021	0.94523
2563.14640	0.94536
2561.09260	0.94555
2559.03880	0.94555
2556.98500	0.94523
2554.93119	0.94510
2552.87739	0.94525
2550.82359	0.94516
2548.76978	0.94502
2546.71598	0.94517
2544.66218	0.94533
2542.60837	0.94515
2540.55457	0.94459
2538.50077	0.94446
2536.44696	0.94509
2534.39316	0.94578
2532.33936	0.94626
2530.28555	0.94643
2528.23175	0.94610
2526.17795	0.94588
2524.12414	0.94609
2522.07034	0.94623
2520.01654	0.94620
2517.96273	0.94621
2515.90893	0.94595
2513.85513	0.94548
2511.80132	0.94550
2509.74752	0.94573
2507.69372	0.94549
2505.63992	0.94528
2503.58611	0.94543
2501.53231	0.94553
2499.47851	0.94566
2497.42470	0.94593
2495.37090	0.94606
2493.31710	0.94627
2491.26329	0.94661
2489.20949	0.94662
2487.15569	0.94614
2485.10188	0.94568
2483.04808	0.94584
2480.99428	0.94640
2478.94047	0.94684
2476.88667	0.94713
2474.83287	0.94729
2472.77906	0.94713
2470.72526	0.94682
2468.67146	0.94661
2466.61765	0.94672
2464.56385	0.94690
2462.51005	0.94695
2460.45624	0.94705
2458.40244	0.94675
2456.34864	0.94623
2454.29483	0.94580
2452.24103	0.94543
2450.18723	0.94548
2448.13343	0.94614
2446.07962	0.94698
2444.02582	0.94687
2441.97202	0.94600
2439.91821	0.94575
2437.86441	0.94585
2435.81061	0.94564
2433.75680	0.94588
2431.70300	0.94666
2429.64920	0.94673
2427.59539	0.94629
2425.54159	0.94677
2423.48779	0.94772
2421.43398	0.94771
2419.38018	0.94729
2417.32638	0.94732
2415.27257	0.94745
2413.21877	0.94746
2411.16497	0.94747
2409.11116	0.94721
2407.05736	0.94703
2405.00356	0.94739
2402.94975	0.94805
2400.89595	0.94851
2398.84215	0.94798
2396.78834	0.94702
2394.73454	0.94691
2392.68074	0.94739
2390.62694	0.94755
2388.57313	0.94723
2386.51933	0.94691
2384.46553	0.94721
2382.41172	0.94807
2380.35792	0.94840
2378.30412	0.94781
2376.25031	0.94711
2374.19651	0.94648
2372.14271	0.94579
2370.08890	0.94576
2368.03510	0.94684
2365.98130	0.94868
2363.92749	0.95011
2361.87369	0.94899
2359.81989	0.94644
2357.76608	0.94603
2355.71228	0.94705
2353.65848	0.94726
2351.60467	0.94704
2349.55087	0.94687
2347.49707	0.94658
2345.44326	0.94594
2343.38946	0.94503
2341.33566	0.94468
2339.28186	0.94494
2337.22805	0.94570
2335.17425	0.94653
2333.12045	0.94635
2331.06664	0.94582
2329.01284	0.94563
2326.95904	0.94509
2324.90523	0.94425
2322.85143	0.94376
2320.79763	0.94378
2318.74382	0.94442
2316.69002	0.94563
2314.63622	0.94645
2312.58241	0.94692
2310.52861	0.94715
2308.47481	0.94652
2306.42100	0.94603
2304.36720	0.94656
2302.31340	0.94722
2300.25959	0.94736
2298.20579	0.94686
2296.15199	0.94639
2294.09818	0.94691
2292.04438	0.94787
2289.99058	0.94811
2287.93677	0.94733
2285.88297	0.94646
2283.82917	0.94670
2281.77537	0.94777
2279.72156	0.94836
2277.66776	0.94750
2275.61396	0.94647
2273.56015	0.94707
2271.50635	0.94863
2269.45255	0.94999
2267.39874	0.95059
2265.34494	0.95029
2263.29114	0.94962
2261.23733	0.94867
2259.18353	0.94779
2257.12973	0.94737
2255.07592	0.94702
2253.02212	0.94650
2250.96832	0.94641
2248.91451	0.94722
2246.86071	0.94807
2244.80691	0.94824
2242.75310	0.94785
2240.69930	0.94805
2238.64550	0.94907
2236.59169	0.94877
2234.53789	0.94726
2232.48409	0.94697
2230.43029	0.94779
2228.37648	0.94838
2226.32268	0.94925
2224.26888	0.95016
2222.21507	0.94999
2220.16127	0.94973
2218.10747	0.94988
2216.05366	0.94995
2213.99986	0.95061
2211.94606	0.95134
2209.89225	0.95106
2207.83845	0.95098
2205.78465	0.95174
2203.73084	0.95277
2201.67704	0.95303
2199.62324	0.95176
2197.56943	0.95106
2195.51563	0.95173
2193.46183	0.95129
2191.40802	0.94983
2189.35422	0.94975
2187.30042	0.95090
2185.24661	0.95182
2183.19281	0.95236
2181.13901	0.95211
2179.08520	0.95057
2177.03140	0.94978
2174.97760	0.95179
2172.92380	0.95401
2170.86999	0.95339
2168.81619	0.95128
2166.76239	0.94991
2164.70858	0.95064
2162.65478	0.95280
2160.60098	0.95520
2158.54717	0.95822
2156.49337	0.95895
2154.43957	0.95685
2152.38576	0.95554
2150.33196	0.95525
2148.27816	0.95480
2146.22435	0.95465
2144.17055	0.95556
2142.11675	0.95634
2140.06294	0.95578
2138.00914	0.95469
2135.95534	0.95434
2133.90153	0.95433
2131.84773	0.95404
2129.79393	0.95419
2127.74012	0.95404
2125.68632	0.95270
2123.63252	0.95151
2121.57871	0.95142
2119.52491	0.95133
2117.47111	0.95032
2115.41731	0.94891
2113.36350	0.94821
2111.30970	0.94909
2109.25590	0.95062
2107.20209	0.95097
2105.14829	0.95086
2103.09449	0.95123
2101.04068	0.95158
2098.98688	0.95199
2096.93308	0.95175
2094.87927	0.95080
2092.82547	0.95044
2090.77167	0.95053
2088.71786	0.95036
2086.66406	0.94979
2084.61026	0.95002
2082.55645	0.95133
2080.50265	0.95191
2078.44885	0.95160
2076.39504	0.95153
2074.34124	0.95173
2072.28744	0.95154
2070.23363	0.95077
2068.17983	0.95078
2066.12603	0.95239
2064.07223	0.95331
2062.01842	0.95191
2059.96462	0.95037
2057.91082	0.95106
2055.85701	0.95267
2053.80321	0.95279
2051.74941	0.95099
2049.69560	0.94899
2047.64180	0.94876
2045.58800	0.95011
2043.53419	0.95252
2041.48039	0.95519
2039.42659	0.95535
2037.37278	0.95231
2035.31898	0.95016
2033.26518	0.95099
2031.21137	0.95353
2029.15757	0.95591
2027.10377	0.95665
2025.04996	0.95756
2022.99616	0.95908
2020.94236	0.95891
2018.88855	0.95665
2016.83475	0.95505
2014.78095	0.95519
2012.72714	0.95475
2010.67334	0.95396
2008.61954	0.95466
2006.56574	0.95576
2004.51193	0.95545
2002.45813	0.95453
2000.40433	0.95385
1998.35052	0.95412
1996.29672	0.95467
1994.24292	0.95451
1992.18911	0.95486
1990.13531	0.95504
1988.08151	0.95466
1986.02770	0.95529
1983.97390	0.95594
1981.92010	0.95506
1979.86629	0.95356
1977.81249	0.95264
1975.75869	0.95291
1973.70488	0.95407
1971.65108	0.95413
1969.59728	0.95342
1967.54347	0.95446
1965.48967	0.95621
1963.43587	0.95589
1961.38206	0.95501
1959.32826	0.95554
1957.27446	0.95619
1955.22066	0.95581
1953.16685	0.95440
1951.11305	0.95260
1949.05925	0.95168
1947.00544	0.95220
1944.95164	0.95306
1942.89784	0.95250
1940.84403	0.95150
1938.79023	0.95135
1936.73643	0.95099
1934.68262	0.95109
1932.62882	0.95268
1930.57502	0.95409
1928.52121	0.95442
1926.46741	0.95405
1924.41361	0.95328
1922.35980	0.95264
1920.30600	0.95238
1918.25220	0.95279
1916.19839	0.95298
1914.14459	0.95214
1912.09079	0.95145
1910.03698	0.95189
1907.98318	0.95307
1905.92938	0.95331
1903.87557	0.95208
1901.82177	0.95125
1899.76797	0.95148
1897.71417	0.95161
1895.66036	0.95145
1893.60656	0.95109
1891.55276	0.95052
1889.49895	0.95031
1887.44515	0.95078
1885.39135	0.95085
1883.33754	0.95002
1881.28374	0.94976
1879.22994	0.95037
1877.17613	0.95022
1875.12233	0.94945
1873.06853	0.94940
1871.01472	0.94992
1868.96092	0.95070
1866.90712	0.95155
1864.85331	0.95157
1862.79951	0.95105
1860.74571	0.95070
1858.69190	0.95029
1856.63810	0.95012
1854.58430	0.95079
1852.53049	0.95168
1850.47669	0.95195
1848.42289	0.95208
1846.36908	0.95266
1844.31528	0.95310
1842.26148	0.95286
1840.20768	0.95273
1838.15387	0.95290
1836.10007	0.95259
1834.04627	0.95199
1831.99246	0.95180
1829.93866	0.95176
1827.88486	0.95160
1825.83105	0.95196
1823.77725	0.95214
1821.72345	0.95139
1819.66964	0.95092
1817.61584	0.95104
1815.56204	0.95107
1813.50823	0.95084
1811.45443	0.95046
1809.40063	0.95032
1807.34682	0.95036
1805.29302	0.95018
1803.23922	0.94976
1801.18541	0.94947
1799.13161	0.94970
1797.07781	0.95025
1795.02400	0.95071
1792.97020	0.95070
1790.91640	0.95035
1788.86260	0.95038
1786.80879	0.95067
1784.75499	0.95096
1782.70119	0.95120
1780.64738	0.95114
1778.59358	0.95089
1776.53978	0.95067
1774.48597	0.95056
1772.43217	0.95051
1770.37837	0.95065
1768.32456	0.95111
1766.27076	0.95144
1764.21696	0.95130
1762.16315	0.95090
1760.10935	0.95064
1758.05555	0.95051
1756.00174	0.95034
1753.94794	0.95022
1751.89414	0.94994
1749.84033	0.94943
1747.78653	0.94909
1745.73273	0.94900
1743.67892	0.94912
1741.62512	0.94928
1739.57132	0.94881
1737.51751	0.94812
1735.46371	0.94834
1733.40991	0.94897
1731.35611	0.94856
1729.30230	0.94753
1727.24850	0.94656
1725.19470	0.94625
1723.14089	0.94660
1721.08709	0.94664
1719.03329	0.94603
1716.97948	0.94561
1714.92568	0.94568
1712.87188	0.94563
1710.81807	0.94554
1708.76427	0.94548
1706.71047	0.94513
1704.65666	0.94453
1702.60286	0.94404
1700.54906	0.94313
1698.49525	0.94150
1696.44145	0.94019
1694.38765	0.93949
1692.33384	0.93890
1690.28004	0.93763
1688.22624	0.93590
1686.17243	0.93457
1684.11863	0.93314
1682.06483	0.93172
1680.01103	0.93075
1677.95722	0.92975
1675.90342	0.92875
1673.84962	0.92784
1671.79581	0.92692
1669.74201	0.92576
1667.68821	0.92440
1665.63440	0.92343
1663.58060	0.92284
1661.52680	0.92201
1659.47299	0.92105
1657.41919	0.92055
1655.36539	0.92026
1653.31158	0.91944
1651.25778	0.91890
1649.20398	0.91933
1647.15017	0.91989
1645.09637	0.92005
1643.04257	0.92010
1640.98876	0.92024
1638.93496	0.92037
1636.88116	0.92044
1634.82735	0.92048
1632.77355	0.92060
1630.71975	0.92081
1628.66594	0.92102
1626.61214	0.92094
1624.55834	0.92070
1622.50454	0.92076
1620.45073	0.92115
1618.39693	0.92174
1616.34313	0.92280
1614.28932	0.92390
1612.23552	0.92445
1610.18172	0.92405
1608.12791	0.92189
1606.07411	0.91762
1604.02031	0.91224
1601.96650	0.90807
1599.91270	0.90740
1597.85890	0.91044
1595.80509	0.91536
1593.75129	0.91971
1591.69749	0.92253
1589.64368	0.92424
1587.58988	0.92469
1585.53608	0.92379
1583.48227	0.92287
1581.42847	0.92357
1579.37467	0.92550
1577.32086	0.92741
1575.26706	0.92881
1573.21326	0.92937
1571.15945	0.92964
1569.10565	0.93046
1567.05185	0.93150
1564.99805	0.93222
1562.94424	0.93274
1560.89044	0.93309
1558.83664	0.93367
1556.78283	0.93389
1554.72903	0.93338
1552.67523	0.93291
1550.62142	0.93253
1548.56762	0.93185
1546.51382	0.93102
1544.46001	0.93050
1542.40621	0.93043
1540.35241	0.93086
1538.29860	0.93152
1536.24480	0.93198
1534.19100	0.93267
1532.13719	0.93337
1530.08339	0.93356
1528.02959	0.93397
1525.97578	0.93491
1523.92198	0.93560
1521.86818	0.93582
1519.81437	0.93603
1517.76057	0.93627
1515.70677	0.93681
1513.65297	0.93742
1511.59916	0.93751
1509.54536	0.93717
1507.49156	0.93701
1505.43775	0.93718
1503.38395	0.93671
1501.33015	0.93521
1499.27634	0.93052
1497.22254	0.91607
1495.16874	0.89283
1493.11493	0.87713
1491.06113	0.87804
1489.00733	0.89419
1486.95352	0.90930
1484.89972	0.91688
1482.84592	0.92129
1480.79211	0.92442
1478.73831	0.92619
1476.68451	0.92682
1474.63070	0.92704
1472.57690	0.92723
1470.52310	0.92706
1468.46929	0.92665
1466.41549	0.92617
1464.36169	0.92557
1462.30788	0.92506
1460.25408	0.92394
1458.20028	0.91772
1456.14648	0.89866
1454.09267	0.87896
1452.03887	0.86927
1449.98507	0.87067
1447.93126	0.87932
1445.87746	0.88786
1443.82366	0.89430
1441.76985	0.89999
1439.71605	0.90492
1437.66225	0.90955
1435.60844	0.91388
1433.55464	0.91649
1431.50084	0.91817
1429.44703	0.91977
1427.39323	0.92122
1425.33943	0.92253
1423.28562	0.92365
1421.23182	0.92422
1419.17802	0.92447
1417.12421	0.92506
1415.07041	0.92603
1413.01661	0.92717
1410.96280	0.92836
1408.90900	0.92942
1406.85520	0.93034
1404.80139	0.93138
1402.74759	0.93238
1400.69379	0.93313
1398.63999	0.93385
1396.58618	0.93448
1394.53238	0.93473
1392.47858	0.93473
1390.42477	0.93470
1388.37097	0.93449
1386.31717	0.93384
1384.26336	0.93298
1382.20956	0.93232
1380.15576	0.93167
1378.10195	0.93080
1376.04815	0.93013
1373.99435	0.93000
1371.94054	0.93013
1369.88674	0.93034
1367.83294	0.93078
1365.77913	0.93132
1363.72533	0.93181
1361.67153	0.93236
1359.61772	0.93302
1357.56392	0.93342
1355.51012	0.93361
1353.45631	0.93396
1351.40251	0.93439
1349.34871	0.93457
1347.29491	0.93476
1345.24110	0.93528
1343.18730	0.93582
1341.13350	0.93623
1339.07969	0.93648
1337.02589	0.93648
1334.97209	0.93641
1332.91828	0.93615
1330.86448	0.93574
1328.81068	0.93564
1326.75687	0.93583
1324.70307	0.93603
1322.64927	0.93623
1320.59546	0.93641
1318.54166	0.93648
1316.48786	0.93637
1314.43405	0.93619
1312.38025	0.93597
1310.32645	0.93583
1308.27264	0.93614
1306.21884	0.93663
1304.16504	0.93696
1302.11123	0.93728
1300.05743	0.93761
1298.00363	0.93795
1295.94982	0.93821
1293.89602	0.93825
1291.84222	0.93813
1289.78842	0.93799
1287.73461	0.93781
1285.68081	0.93760
1283.62701	0.93742
1281.57320	0.93715
1279.51940	0.93682
1277.46560	0.93652
1275.41179	0.93627
1273.35799	0.93614
1271.30419	0.93612
1269.25038	0.93621
1267.19658	0.93642
1265.14278	0.93641
1263.08897	0.93616
1261.03517	0.93600
1258.98137	0.93582
1256.92756	0.93533
1254.87376	0.93478
1252.81996	0.93458
1250.76615	0.93462
1248.71235	0.93446
1246.65855	0.93409
1244.60474	0.93379
1242.55094	0.93341
1240.49714	0.93291
1238.44334	0.93233
1236.38953	0.93163
1234.33573	0.93090
1232.28193	0.93029
1230.22812	0.92991
1228.17432	0.92945
1226.12052	0.92863
1224.06671	0.92751
1222.01291	0.92620
1219.95911	0.92464
1217.90530	0.92283
1215.85150	0.92110
1213.79770	0.91918
1211.74389	0.91648
1209.69009	0.91338
1207.63629	0.91042
1205.58248	0.90752
1203.52868	0.90454
1201.47488	0.90132
1199.42107	0.89774
1197.36727	0.89412
1195.31347	0.89065
1193.25966	0.88707
1191.20586	0.88326
1189.15206	0.87917
1187.09825	0.87480
1185.04445	0.87011
1182.99065	0.86512
1180.93685	0.86038
1178.88304	0.85644
1176.82924	0.85296
1174.77544	0.84936
1172.72163	0.84563
1170.66783	0.84193
1168.61403	0.83822
1166.56022	0.83439
1164.50642	0.83058
1162.45262	0.82758
1160.39881	0.82561
1158.34501	0.82350
1156.29121	0.82038
1154.23740	0.81689
1152.18360	0.81415
1150.12980	0.81235
1148.07599	0.81087
1146.02219	0.80933
1143.96839	0.80771
1141.91458	0.80576
1139.86078	0.80363
1137.80698	0.80134
1135.75317	0.79859
1133.69937	0.79581
1131.64557	0.79313
1129.59176	0.78981
1127.53796	0.78572
1125.48416	0.78134
1123.43036	0.77650
1121.37655	0.77080
1119.32275	0.76446
1117.26895	0.75765
1115.21514	0.75053
1113.16134	0.74352
1111.10754	0.73710
1109.05373	0.73139
1106.99993	0.72632
1104.94613	0.72175
1102.89232	0.71744
1100.83852	0.71333
1098.78472	0.70970
1096.73091	0.70664
1094.67711	0.70386
1092.62331	0.70105
1090.56950	0.69818
1088.51570	0.69560
1086.46190	0.69352
1084.40809	0.69124
1082.35429	0.68846
1080.30049	0.68593
1078.24668	0.68363
1076.19288	0.68060
1074.13908	0.67669
1072.08528	0.67267
1070.03147	0.66857
1067.97767	0.66390
1065.92387	0.65873
1063.87006	0.65364
1061.81626	0.64884
1059.76246	0.64398
1057.70865	0.63894
1055.65485	0.63337
1053.60105	0.62690
1051.54724	0.61982
1049.49344	0.61221
1047.43964	0.60360
1045.38583	0.59390
1043.33203	0.58336
1041.27823	0.57221
1039.22442	0.56086
1037.17062	0.54955
1035.11682	0.53828
1033.06301	0.52712
1031.00921	0.51624
1028.95541	0.50623
1026.90160	0.49837
1024.84780	0.49322
1022.79400	0.48983
1020.74019	0.48690
1018.68639	0.48378
1016.63259	0.48028
1014.57879	0.47629
1012.52498	0.47226
1010.47118	0.46853
1008.41738	0.46469
1006.36357	0.46099
1004.30977	0.45813
1002.25597	0.45663
1000.20216	0.45693
998.14836	0.45872
996.09456	0.46128
994.04075	0.46425
991.98695	0.46765
989.93315	0.47135
987.87934	0.47567
985.82554	0.48136
983.77174	0.48848
981.71793	0.49662
979.66413	0.50586
977.61033	0.51681
975.55652	0.52953
973.50272	0.54306
971.44892	0.55644
969.39511	0.56951
967.34131	0.58233
965.28751	0.59461
963.23371	0.60631
961.17990	0.61763
959.12610	0.62833
957.07230	0.63826
955.01849	0.64783
952.96469	0.65693
950.91089	0.66486
948.85708	0.67137
946.80328	0.67688
944.74948	0.68194
942.69567	0.68692
940.64187	0.69223
938.58807	0.69784
936.53426	0.70337
934.48046	0.70876
932.42666	0.71382
930.37285	0.71853
928.31905	0.72293
926.26525	0.72656
924.21144	0.72899
922.15764	0.73036
920.10384	0.73112
918.05003	0.73108
915.99623	0.72998
913.94243	0.72832
911.88862	0.72689
909.83482	0.72675
907.78102	0.72892
905.72722	0.73403
903.67341	0.74224
901.61961	0.75293
899.56581	0.76449
897.51200	0.77527
895.45820	0.78476
893.40440	0.79237
891.35059	0.79828
889.29679	0.80386
887.24299	0.80874
885.18918	0.81202
883.13538	0.81475
881.08158	0.81793
879.02777	0.82129
876.97397	0.82458
874.92017	0.82803
872.86636	0.83192
870.81256	0.83606
868.75876	0.83999
866.70495	0.84379
864.65115	0.84701
862.59735	0.84925
860.54354	0.85146
858.48974	0.85389
856.43594	0.85603
854.38213	0.85828
852.32833	0.86072
850.27453	0.86208
848.22073	0.86159
846.16692	0.85999
844.11312	0.85829
842.05932	0.85701
840.00551	0.85569
837.95171	0.85408
835.89791	0.85306
833.84410	0.85278
831.79030	0.85216
829.73650	0.85109
827.68269	0.85089
825.62889	0.85221
823.57509	0.85446
821.52128	0.85624
819.46748	0.85722
817.41368	0.85818
815.35987	0.85879
813.30607	0.85815
811.25227	0.85564
809.19846	0.85082
807.14466	0.84375
805.09086	0.83495
803.03705	0.82581
800.98325	0.81877
798.92945	0.81578
796.87565	0.81670
794.82184	0.81952
792.76804	0.82193
790.71424	0.82325
788.66043	0.82373
786.60663	0.82272
784.55283	0.81973
782.49902	0.81506
780.44522	0.81003
778.39142	0.80662
776.33761	0.80485
774.28381	0.80243
772.23001	0.79741
770.17620	0.78934
768.12240	0.77907
766.06860	0.76790
764.01479	0.75580
761.96099	0.74254
759.90719	0.72960
757.85338	0.71931
755.79958	0.71357
753.74578	0.71189
751.69197	0.71170
749.63817	0.71184
747.58437	0.71369
745.53056	0.71970
743.47676	0.73130
741.42296	0.74682
739.36916	0.76315
737.31535	0.77784
735.26155	0.78933
733.20775	0.79821
731.15394	0.80553
729.10014	0.81074
727.04634	0.81380
724.99253	0.81649
722.93873	0.82027
720.88493	0.82471
718.83112	0.82881
716.77732	0.83172
714.72352	0.83261
712.66971	0.83001
710.61591	0.82132
708.56211	0.80319
706.50830	0.77164
704.45450	0.72397
702.40070	0.66207
700.34689	0.59131
698.29309	0.52111
696.23929	0.47270
694.18548	0.47310
692.13168	0.52340
690.07788	0.59109
688.02408	0.64538
685.97027	0.67949
683.91647	0.70052
681.86267	0.71515
679.80886	0.72539
677.75506	0.73246
675.70126	0.73785
673.64745	0.74152
671.59365	0.74311
669.53985	0.74389
667.48604	0.74620
665.43224	0.74890
663.37844	0.75076
661.32463	0.75232
659.27083	0.75313
657.21703	0.75279
655.16322	0.75119
653.10942	0.74864
651.05562	0.74667
649.00181	0.74630
646.94801	0.74740
644.89421	0.74931
642.84040	0.75084
640.78660	0.75274
638.73280	0.75586
636.67899	0.75846
634.62519	0.75987
632.57139	0.76080
630.51759	0.76173
628.46378	0.76253
626.40998	0.76248
624.35618	0.76094
622.30237	0.75856
620.24857	0.75714
618.19477	0.75524
616.14096	0.75040
614.08716	0.74491
612.03336	0.74126
609.97955	0.73866
607.92575	0.73595
605.87195	0.73310
603.81814	0.72957
601.76434	0.72507
599.71054	0.72122
597.65673	0.71840
595.60293	0.71525
593.54913	0.71149
591.49532	0.70779
589.44152	0.70500
587.38772	0.70289
585.33391	0.70129
583.28011	0.70093
581.22631	0.70015
579.17250	0.69690
577.11870	0.69346
575.06490	0.69180
573.01110	0.68985
570.95729	0.68511
568.90349	0.67766
566.84969	0.67030
564.79588	0.66374
562.74208	0.65579
560.68828	0.64644
558.63447	0.63748
556.58067	0.62945
554.52687	0.62138
552.47306	0.61173
550.41926	0.60041
548.36546	0.58879
546.31165	0.57656
544.25785	0.56242
542.20405	0.54716
540.15024	0.53239
538.09644	0.51921
536.04264	0.50971
533.98883	0.50523
531.93503	0.50401
529.88123	0.50494
527.82742	0.50857
525.77362	0.51378
523.71982	0.51838
521.66602	0.52223
519.61221	0.52729
517.55841	0.53471
515.50461	0.54299
513.45080	0.55109
511.39700	0.55887
509.34320	0.56508
507.28939	0.57018
505.23559	0.57597
503.18179	0.58089
501.12798	0.58171
499.07418	0.57970
497.02038	0.57893
494.96657	0.57849
492.91277	0.57439
490.85897	0.56651
488.80516	0.55634
486.75136	0.54317
484.69756	0.52674
482.64375	0.50792
480.58995	0.48764
478.53615	0.46708
476.48234	0.44845
474.42854	0.43331
472.37474	0.42005
470.32093	0.40829
468.26713	0.40017
466.21333	0.39720
464.15953	0.39957
462.10572	0.40482
460.05192	0.41122
457.99812	0.42018
455.94431	0.42957
453.89051	0.43649
451.83671	0.44324
449.78290	0.45002
447.72910	0.45614
445.67530	0.46211
443.62149	0.46604
441.56769	0.46700
439.51389	0.46616
437.46008	0.46455
435.40628	0.46243
433.35248	0.45701
431.29867	0.45086
429.24487	0.45004
427.19107	0.45100
425.13726	0.45134
423.08346	0.45393
421.02966	0.45662
418.97585	0.45860
416.92205	0.46343
414.86825	0.47028
412.81445	0.47869
410.76064	0.48822
408.70684	0.49626
406.65304	0.50253
404.59923	0.50884
402.54543	0.51140
400.49163	0.50587
398.43782	0.49923
