3996.71440	0.98785
3994.66059	0.98773
3992.60678	0.98735
3990.55297	0.98728
3988.49916	0.98764
3986.44535	0.98778
3984.39154	0.98742
3982.33773	0.98689
3980.28392	0.98678
3978.23011	0.98719
3976.17630	0.98769
3974.12249	0.98787
3972.06868	0.98780
3970.01487	0.98760
3967.96106	0.98737
3965.90725	0.98721
3963.85344	0.98707
3961.79963	0.98710
3959.74582	0.98751
3957.69201	0.98808
3955.63820	0.98835
3953.58439	0.98830
3951.53058	0.98801
3949.47677	0.98757
3947.42296	0.98719
3945.36915	0.98694
3943.31534	0.98692
3941.26153	0.98707
3939.20772	0.98717
3937.15391	0.98721
3935.10010	0.98737
3933.04629	0.98769
3930.99248	0.98780
3928.93867	0.98753
3926.88486	0.98728
3924.83105	0.98737
3922.77724	0.98762
3920.72343	0.98760
3918.66962	0.98726
3916.61581	0.98698
3914.56200	0.98692
3912.50819	0.98705
3910.45438	0.98703
3908.40057	0.98671
3906.34676	0.98648
3904.29295	0.98667
3902.23914	0.98703
3900.18533	0.98753
3898.13152	0.98782
3896.07771	0.98746
3894.02390	0.98685
3891.97009	0.98682
3889.91628	0.98737
3887.86247	0.98757
3885.80866	0.98732
3883.75485	0.98705
3881.70104	0.98696
3879.64723	0.98698
3877.59342	0.98703
3875.53961	0.98710
3873.48580	0.98705
3871.43199	0.98698
3869.37818	0.98730
3867.32437	0.98755
3865.27056	0.98703
3863.21675	0.98637
3861.16294	0.98651
3859.10913	0.98673
3857.05531	0.98673
3855.00150	0.98710
3852.94769	0.98778
3850.89388	0.98803
3848.84007	0.98798
3846.78626	0.98762
3844.73245	0.98735
3842.67864	0.98737
3840.62483	0.98730
3838.57102	0.98732
3836.51721	0.98757
3834.46340	0.98782
3832.40959	0.98796
3830.35578	0.98769
3828.30197	0.98730
3826.24816	0.98739
3824.19435	0.98764
3822.14054	0.98776
3820.08673	0.98798
3818.03292	0.98817
3815.97911	0.98814
3813.92530	0.98808
3811.87149	0.98780
3809.81768	0.98737
3807.76387	0.98710
3805.71006	0.98719
3803.65625	0.98744
3801.60244	0.98760
3799.54863	0.98769
3797.49482	0.98789
3795.44101	0.98823
3793.38720	0.98833
3791.33339	0.98808
3789.27958	0.98792
3787.22577	0.98805
3785.17196	0.98821
3783.11815	0.98828
3781.06434	0.98828
3779.01053	0.98814
3776.95672	0.98808
3774.90291	0.98830
3772.84910	0.98848
3770.79529	0.98823
3768.74148	0.98764
3766.68767	0.98737
3764.63386	0.98773
3762.58005	0.98835
3760.52624	0.98876
3758.47243	0.98883
3756.41862	0.98874
3754.36481	0.98855
3752.31100	0.98842
3750.25719	0.98821
3748.20338	0.98789
3746.14957	0.98769
3744.09576	0.98787
3742.04195	0.98830
3739.98814	0.98842
3737.93433	0.98833
3735.88052	0.98837
3733.82671	0.98823
3731.77290	0.98787
3729.71909	0.98785
3727.66528	0.98814
3725.61147	0.98846
3723.55766	0.98844
3721.50385	0.98805
3719.45004	0.98776
3717.39623	0.98782
3715.34242	0.98819
3713.28861	0.98848
3711.23480	0.98853
3709.18099	0.98837
3707.12718	0.98805
3705.07337	0.98744
3703.01956	0.98678
3700.96575	0.98653
3698.91194	0.98655
3696.85813	0.98660
3694.80432	0.98644
3692.75051	0.98610
3690.69670	0.98596
3688.64289	0.98621
3686.58908	0.98655
3684.53527	0.98664
3682.48146	0.98630
3680.42765	0.98605
3678.37384	0.98621
3676.32003	0.98626
3674.26622	0.98617
3672.21241	0.98630
3670.15860	0.98664
3668.10479	0.98685
3666.05098	0.98648
3663.99717	0.98612
3661.94336	0.98598
3659.88955	0.98571
3657.83574	0.98553
3655.78193	0.98560
3653.72812	0.98542
3651.67431	0.98494
3649.62050	0.98431
3647.56669	0.98390
3645.51288	0.98390
3643.45907	0.98399
3641.40526	0.98397
3639.35145	0.98415
3637.29764	0.98428
3635.24383	0.98392
3633.19002	0.98340
3631.13621	0.98313
3629.08240	0.98283
3627.02859	0.98274
3624.97478	0.98272
3622.92097	0.98249
3620.86716	0.98227
3618.81335	0.98236
3616.75954	0.98252
3614.70573	0.98252
3612.65192	0.98231
3610.59811	0.98184
3608.54430	0.98136
3606.49049	0.98116
3604.43668	0.98102
3602.38287	0.98102
3600.32906	0.98136
3598.27525	0.98148
3596.22144	0.98130
3594.16763	0.98148
3592.11382	0.98177
3590.06001	0.98175
3588.00620	0.98139
3585.95239	0.98089
3583.89858	0.98044
3581.84477	0.98023
3579.79095	0.98010
3577.73714	0.98001
3575.68333	0.98019
3573.62952	0.98048
3571.57571	0.98048
3569.52190	0.98037
3567.46809	0.98019
3565.41428	0.97965
3563.36047	0.97920
3561.30666	0.97906
3559.25285	0.97911
3557.19904	0.97922
3555.14523	0.97924
3553.09142	0.97884
3551.03761	0.97827
3548.98380	0.97805
3546.92999	0.97778
3544.87618	0.97726
3542.82237	0.97703
3540.76856	0.97703
3538.71475	0.97697
3536.66094	0.97683
3534.60713	0.97652
3532.55332	0.97620
3530.49951	0.97620
3528.44570	0.97647
3526.39189	0.97645
3524.33808	0.97614
3522.28427	0.97596
3520.23046	0.97596
3518.17665	0.97582
3516.12284	0.97557
3514.06903	0.97557
3512.01522	0.97566
3509.96141	0.97546
3507.90760	0.97490
3505.85379	0.97468
3503.79998	0.97497
3501.74617	0.97515
3499.69236	0.97503
3497.63855	0.97490
3495.58474	0.97456
3493.53093	0.97409
3491.47712	0.97380
3489.42331	0.97371
3487.36950	0.97367
3485.31569	0.97371
3483.26188	0.97378
3481.20807	0.97369
3479.15426	0.97337
3477.10045	0.97313
3475.04664	0.97308
3472.99283	0.97311
3470.93902	0.97306
3468.88521	0.97295
3466.83140	0.97270
3464.77759	0.97246
3462.72378	0.97237
3460.66997	0.97219
3458.61616	0.97187
3456.56235	0.97185
3454.50854	0.97208
3452.45473	0.97210
3450.40092	0.97192
3448.34711	0.97178
3446.29330	0.97199
3444.23949	0.97230
3442.18568	0.97214
3440.13187	0.97170
3438.07806	0.97158
3436.02425	0.97156
3433.97044	0.97131
3431.91663	0.97134
3429.86282	0.97170
3427.80901	0.97172
3425.75520	0.97140
3423.70139	0.97125
3421.64758	0.97131
3419.59377	0.97127
3417.53996	0.97114
3415.48615	0.97085
3413.43234	0.97055
3411.37853	0.97067
3409.32472	0.97105
3407.27091	0.97123
3405.21710	0.97102
3403.16329	0.97053
3401.10948	0.97033
3399.05567	0.97049
3397.00186	0.97053
3394.94805	0.97038
3392.89424	0.97044
3390.84043	0.97064
3388.78662	0.97051
3386.73281	0.97017
3384.67900	0.96997
3382.62519	0.96993
3380.57138	0.97002
3378.51757	0.97022
3376.46376	0.97042
3374.40995	0.97071
3372.35614	0.97096
3370.30233	0.97085
3368.24852	0.97055
3366.19471	0.97031
3364.14090	0.97020
3362.08709	0.97022
3360.03328	0.97022
3357.97947	0.97011
3355.92566	0.97000
3353.87185	0.97031
3351.81804	0.97076
3349.76423	0.97078
3347.71042	0.97069
3345.65661	0.97069
3343.60280	0.97060
3341.54899	0.97053
3339.49518	0.97064
3337.44137	0.97087
3335.38756	0.97085
3333.33375	0.97067
3331.27994	0.97069
3329.22613	0.97098
3327.17232	0.97111
3325.11851	0.97102
3323.06470	0.97073
3321.01089	0.97058
3318.95708	0.97071
3316.90327	0.97098
3314.84946	0.97114
3312.79565	0.97102
3310.74184	0.97093
3308.68803	0.97091
3306.63422	0.97087
3304.58040	0.97093
3302.52659	0.97111
3300.47278	0.97127
3298.41897	0.97120
3296.36516	0.97102
3294.31135	0.97102
3292.25754	0.97111
3290.20373	0.97105
3288.14992	0.97100
3286.09611	0.97087
3284.04230	0.97058
3281.98849	0.97040
3279.93468	0.97062
3277.88087	0.97107
3275.82706	0.97127
3273.77325	0.97123
3271.71944	0.97127
3269.66563	0.97127
3267.61182	0.97123
3265.55801	0.97116
3263.50420	0.97089
3261.45039	0.97064
3259.39658	0.97091
3257.34277	0.97134
3255.28896	0.97138
3253.23515	0.97138
3251.18134	0.97152
3249.12753	0.97165
3247.07372	0.97156
3245.01991	0.97134
3242.96610	0.97138
3240.91229	0.97176
3238.85848	0.97192
3236.80467	0.97176
3234.75086	0.97190
3232.69705	0.97205
3230.64324	0.97183
3228.58943	0.97154
3226.53562	0.97154
3224.48181	0.97178
3222.42800	0.97163
3220.37419	0.97120
3218.32038	0.97129
3216.26657	0.97181
3214.21276	0.97196
3212.15895	0.97174
3210.10514	0.97158
3208.05133	0.97158
3205.99752	0.97161
3203.94371	0.97158
3201.88990	0.97178
3199.83609	0.97225
3197.78228	0.97264
3195.72847	0.97270
3193.67466	0.97246
3191.62085	0.97223
3189.56704	0.97223
3187.51323	0.97239
3185.45942	0.97268
3183.40561	0.97297
3181.35180	0.97317
3179.29799	0.97299
3177.24418	0.97250
3175.19037	0.97214
3173.13656	0.97214
3171.08275	0.97243
3169.02894	0.97299
3166.97513	0.97331
3164.92132	0.97320
3162.86751	0.97302
3160.81370	0.97308
3158.75989	0.97324
3156.70608	0.97342
3154.65227	0.97360
3152.59846	0.97369
3150.54465	0.97362
3148.49084	0.97355
3146.43703	0.97337
3144.38322	0.97324
3142.32941	0.97331
3140.27560	0.97351
3138.22179	0.97373
3136.16798	0.97369
3134.11417	0.97349
3132.06036	0.97358
3130.00655	0.97364
3127.95274	0.97353
3125.89893	0.97340
3123.84512	0.97322
3121.79131	0.97320
3119.73750	0.97333
3117.68369	0.97346
3115.62988	0.97333
3113.57607	0.97320
3111.52226	0.97317
3109.46845	0.97311
3107.41464	0.97306
3105.36083	0.97304
3103.30702	0.97286
3101.25321	0.97270
3099.19940	0.97259
3097.14559	0.97243
3095.09178	0.97237
3093.03797	0.97223
3090.98416	0.97185
3088.93035	0.97140
3086.87654	0.97105
3084.82273	0.97100
3082.76892	0.97136
3080.71511	0.97158
3078.66130	0.97123
3076.60749	0.97087
3074.55368	0.97089
3072.49987	0.97109
3070.44606	0.97140
3068.39225	0.97163
3066.33844	0.97165
3064.28463	0.97170
3062.23082	0.97165
3060.17701	0.97129
3058.12320	0.97089
3056.06939	0.97064
3054.01558	0.97044
3051.96177	0.97040
3049.90796	0.97053
3047.85415	0.97053
3045.80034	0.97038
3043.74653	0.97017
3041.69272	0.96984
3039.63891	0.96942
3037.58510	0.96926
3035.53129	0.96950
3033.47748	0.96975
3031.42367	0.96964
3029.36986	0.96950
3027.31604	0.96966
3025.26223	0.96968
3023.20842	0.96933
3021.15461	0.96888
3019.10080	0.96861
3017.04699	0.96861
3014.99318	0.96870
3012.93937	0.96872
3010.88556	0.96870
3008.83175	0.96872
3006.77794	0.96848
3004.72413	0.96781
3002.67032	0.96714
3000.61651	0.96672
2998.56270	0.96654
2996.50889	0.96636
2994.45508	0.96587
2992.40127	0.96496
2990.34746	0.96394
2988.29365	0.96292
2986.23984	0.96181
2984.18603	0.96046
2982.13222	0.95883
2980.07841	0.95711
2978.02460	0.95506
2975.97079	0.95255
2973.91698	0.94984
2971.86317	0.94691
2969.80936	0.94332
2967.75555	0.93938
2965.70174	0.93571
2963.64793	0.93229
2961.59412	0.92897
2959.54031	0.92615
2957.48650	0.92378
2955.43269	0.92130
2953.37888	0.91852
2951.32507	0.91506
2949.27126	0.91008
2947.21745	0.90296
2945.16364	0.89343
2943.10983	0.88129
2941.05602	0.86642
2939.00221	0.84881
2936.94840	0.82874
2934.89459	0.80621
2932.84078	0.78053
2930.78697	0.75079
2928.73316	0.71628
2926.67935	0.67580
2924.62554	0.62745
2922.57173	0.57083
2920.51792	0.50995
2918.46411	0.45370
2916.41030	0.41462
2914.35649	0.40400
2912.30268	0.42349
2910.24887	0.46306
2908.19506	0.50882
2906.14125	0.55096
2904.08744	0.58565
2902.03363	0.61307
2899.97982	0.63513
2897.92601	0.65429
2895.87220	0.67220
2893.81839	0.68933
2891.76458	0.70630
2889.71077	0.72362
2887.65696	0.74109
2885.60315	0.75837
2883.54934	0.77535
2881.49553	0.79206
2879.44172	0.80830
2877.38791	0.82327
2875.33410	0.83599
2873.28029	0.84571
2871.22648	0.85210
2869.17267	0.85477
2867.11886	0.85334
2865.06505	0.84721
2863.01124	0.83518
2860.95743	0.81561
2858.90362	0.78616
2856.84981	0.74278
2854.79600	0.68035
2852.74219	0.59698
2850.68838	0.50609
2848.63457	0.44298
2846.58076	0.44011
2844.52695	0.49469
2842.47314	0.57568
2840.41933	0.65474
2838.36552	0.71963
2836.31171	0.76895
2834.25790	0.80534
2832.20409	0.83232
2830.15028	0.85283
2828.09647	0.86880
2826.04266	0.88150
2823.98885	0.89183
2821.93504	0.90022
2819.88123	0.90711
2817.82742	0.91285
2815.77361	0.91776
2813.71980	0.92221
2811.66599	0.92602
2809.61218	0.92912
2807.55837	0.93194
2805.50456	0.93470
2803.45075	0.93713
2801.39694	0.93914
2799.34313	0.94091
2797.28932	0.94278
2795.23551	0.94480
2793.18170	0.94674
2791.12789	0.94846
2789.07408	0.95004
2787.02027	0.95139
2784.96646	0.95273
2782.91265	0.95409
2780.85884	0.95523
2778.80503	0.95620
2776.75122	0.95719
2774.69741	0.95814
2772.64360	0.95900
2770.58979	0.95973
2768.53598	0.96022
2766.48217	0.96064
2764.42836	0.96132
2762.37455	0.96192
2760.32074	0.96219
2758.26693	0.96243
2756.21312	0.96283
2754.15931	0.96336
2752.10550	0.96378
2750.05168	0.96403
2747.99787	0.96407
2745.94406	0.96410
2743.89025	0.96432
2741.83644	0.96452
2739.78263	0.96454
2737.72882	0.96461
2735.67501	0.96481
2733.62120	0.96507
2731.56739	0.96549
2729.51358	0.96585
2727.45977	0.96618
2725.40596	0.96650
2723.35215	0.96672
2721.29834	0.96687
2719.24453	0.96714
2717.19072	0.96745
2715.13691	0.96770
2713.08310	0.96792
2711.02929	0.96808
2708.97548	0.96808
2706.92167	0.96805
2704.86786	0.96812
2702.81405	0.96834
2700.76024	0.96863
2698.70643	0.96888
2696.65262	0.96917
2694.59881	0.96942
2692.54500	0.96942
2690.49119	0.96924
2688.43738	0.96921
2686.38357	0.96933
2684.32976	0.96939
2682.27595	0.96942
2680.22214	0.96933
2678.16833	0.96915
2676.11452	0.96913
2674.06071	0.96910
2672.00690	0.96872
2669.95309	0.96808
2667.89928	0.96761
2665.84547	0.96750
2663.79166	0.96750
2661.73785	0.96741
2659.68404	0.96719
2657.63023	0.96712
2655.57642	0.96734
2653.52261	0.96770
2651.46880	0.96794
2649.41499	0.96790
2647.36118	0.96770
2645.30737	0.96768
2643.25356	0.96774
2641.19975	0.96770
2639.14594	0.96765
2637.09213	0.96770
2635.03832	0.96790
2632.98451	0.96828
2630.93070	0.96863
2628.87689	0.96875
2626.82308	0.96897
2624.76927	0.96968
2622.71546	0.97035
2620.66165	0.97058
2618.60784	0.97049
2616.55403	0.97060
2614.50022	0.97114
2612.44641	0.97167
2610.39260	0.97201
2608.33879	0.97223
2606.28498	0.97243
2604.23117	0.97270
2602.17736	0.97326
2600.12355	0.97391
2598.06974	0.97443
2596.01593	0.97456
2593.96212	0.97452
2591.90831	0.97465
2589.85450	0.97494
2587.80069	0.97542
2585.74688	0.97591
2583.69307	0.97616
2581.63926	0.97605
2579.58545	0.97578
2577.53164	0.97562
2575.47783	0.97573
2573.42402	0.97584
2571.37021	0.97605
2569.31640	0.97652
2567.26259	0.97690
2565.20878	0.97679
2563.15497	0.97654
2561.10116	0.97665
2559.04735	0.97708
2556.99354	0.97742
2554.93973	0.97757
2552.88592	0.97769
2550.83211	0.97760
2548.77830	0.97748
2546.72449	0.97773
2544.67068	0.97794
2542.61687	0.97794
2540.56306	0.97832
2538.50925	0.97881
2536.45544	0.97884
2534.40163	0.97875
2532.34782	0.97872
2530.29401	0.97868
2528.24020	0.97866
2526.18639	0.97866
2524.13258	0.97875
2522.07877	0.97911
2520.02496	0.97944
2517.97115	0.97954
2515.91734	0.97981
2513.86353	0.98030
2511.80972	0.98071
2509.75591	0.98114
2507.70210	0.98161
2505.64829	0.98175
2503.59448	0.98130
2501.54067	0.98071
2499.48686	0.98055
2497.43305	0.98089
2495.37924	0.98127
2493.32543	0.98139
2491.27162	0.98152
2489.21781	0.98193
2487.16400	0.98225
2485.11019	0.98238
2483.05638	0.98254
2481.00257	0.98256
2478.94876	0.98240
2476.89495	0.98204
2474.84114	0.98182
2472.78732	0.98197
2470.73351	0.98231
2468.67970	0.98297
2466.62589	0.98356
2464.57208	0.98342
2462.51827	0.98290
2460.46446	0.98290
2458.41065	0.98329
2456.35684	0.98344
2454.30303	0.98356
2452.24922	0.98369
2450.19541	0.98378
2448.14160	0.98369
2446.08779	0.98342
2444.03398	0.98320
2441.98017	0.98326
2439.92636	0.98351
2437.87255	0.98381
2435.81874	0.98397
2433.76493	0.98372
2431.71112	0.98356
2429.65731	0.98399
2427.60350	0.98426
2425.54969	0.98392
2423.49588	0.98365
2421.44207	0.98369
2419.38826	0.98360
2417.33445	0.98347
2415.28064	0.98372
2413.22683	0.98401
2411.17302	0.98399
2409.11921	0.98403
2407.06540	0.98424
2405.01159	0.98442
2402.95778	0.98467
2400.90397	0.98467
2398.85016	0.98426
2396.79635	0.98410
2394.74254	0.98449
2392.68873	0.98483
2390.63492	0.98480
2388.58111	0.98467
2386.52730	0.98458
2384.47349	0.98467
2382.41968	0.98467
2380.36587	0.98437
2378.31206	0.98422
2376.25825	0.98433
2374.20444	0.98435
2372.15063	0.98433
2370.09682	0.98444
2368.04301	0.98444
2365.98920	0.98440
2363.93539	0.98458
2361.88158	0.98451
2359.82777	0.98394
2357.77396	0.98340
2355.72015	0.98360
2353.66634	0.98388
2351.61253	0.98354
2349.55872	0.98326
2347.50491	0.98308
2345.45110	0.98265
2343.39729	0.98247
2341.34348	0.98258
2339.28967	0.98229
2337.23586	0.98213
2335.18205	0.98254
2333.12824	0.98270
2331.07443	0.98234
2329.02062	0.98211
2326.96681	0.98195
2324.91300	0.98150
2322.85919	0.98143
2320.80538	0.98213
2318.75157	0.98286
2316.69776	0.98315
2314.64395	0.98277
2312.59014	0.98209
2310.53633	0.98222
2308.48252	0.98297
2306.42871	0.98342
2304.37490	0.98335
2302.32109	0.98295
2300.26728	0.98270
2298.21347	0.98299
2296.15966	0.98342
2294.10585	0.98358
2292.05204	0.98344
2289.99823	0.98326
2287.94442	0.98295
2285.89061	0.98281
2283.83680	0.98311
2281.78299	0.98338
2279.72918	0.98351
2277.67537	0.98360
2275.62156	0.98392
2273.56775	0.98476
2271.51394	0.98576
2269.46013	0.98648
2267.40632	0.98712
2265.35251	0.98728
2263.29870	0.98673
2261.24489	0.98632
2259.19108	0.98639
2257.13727	0.98637
2255.08346	0.98614
2253.02965	0.98626
2250.97584	0.98660
2248.92203	0.98610
2246.86822	0.98533
2244.81441	0.98567
2242.76060	0.98678
2240.70679	0.98746
2238.65298	0.98732
2236.59917	0.98651
2234.54536	0.98583
2232.49155	0.98621
2230.43774	0.98701
2228.38393	0.98696
2226.33012	0.98655
2224.27631	0.98676
2222.22250	0.98698
2220.16869	0.98667
2218.11488	0.98596
2216.06107	0.98553
2214.00726	0.98594
2211.95345	0.98644
2209.89964	0.98619
2207.84583	0.98621
2205.79202	0.98746
2203.73821	0.98860
2201.68440	0.98878
2199.63059	0.98833
2197.57677	0.98698
2195.52296	0.98580
2193.46915	0.98560
2191.41534	0.98601
2189.36153	0.98742
2187.30772	0.98935
2185.25391	0.98958
2183.20010	0.98842
2181.14629	0.98817
2179.09248	0.98844
2177.03867	0.98839
2174.98486	0.98864
2172.93105	0.98903
2170.87724	0.98862
2168.82343	0.98757
2166.76962	0.98680
2164.71581	0.98598
2162.66200	0.98501
2160.60819	0.98655
2158.55438	0.99015
2156.50057	0.99177
2154.44676	0.99140
2152.39295	0.99072
2150.33914	0.99035
2148.28533	0.99056
2146.23152	0.99129
2144.17771	0.99168
2142.12390	0.99088
2140.07009	0.98960
2138.01628	0.98842
2135.96247	0.98792
2133.90866	0.98867
2131.85485	0.98930
2129.80104	0.98860
2127.74723	0.98773
2125.69342	0.98801
2123.63961	0.98821
2121.58580	0.98764
2119.53199	0.98764
2117.47818	0.98782
2115.42437	0.98712
2113.37056	0.98619
2111.31675	0.98585
2109.26294	0.98603
2107.20913	0.98648
2105.15532	0.98712
2103.10151	0.98753
2101.04770	0.98764
2098.99389	0.98805
2096.94008	0.98842
2094.88627	0.98794
2092.83246	0.98721
2090.77865	0.98737
2088.72484	0.98746
2086.67103	0.98707
2084.61722	0.98703
2082.56341	0.98735
2080.50960	0.98776
2078.45579	0.98780
2076.40198	0.98737
2074.34817	0.98707
2072.29436	0.98685
2070.24055	0.98632
2068.18674	0.98637
2066.13293	0.98707
2064.07912	0.98751
2062.02531	0.98742
2059.97150	0.98701
2057.91769	0.98646
2055.86388	0.98594
2053.81007	0.98612
2051.75626	0.98682
2049.70245	0.98726
2047.64864	0.98717
2045.59483	0.98671
2043.54102	0.98680
2041.48721	0.98732
2039.43340	0.98728
2037.37959	0.98657
2035.32578	0.98592
2033.27197	0.98628
2031.21816	0.98667
2029.16435	0.98628
2027.11054	0.98687
2025.05673	0.98828
2023.00292	0.98823
2020.94911	0.98719
2018.89530	0.98714
2016.84149	0.98744
2014.78768	0.98705
2012.73387	0.98698
2010.68006	0.98730
2008.62625	0.98826
2006.57244	0.98930
2004.51863	0.98887
2002.46482	0.98787
2000.41101	0.98773
1998.35720	0.98810
1996.30339	0.98821
1994.24958	0.98844
1992.19577	0.98839
1990.14196	0.98753
1988.08815	0.98753
1986.03434	0.98771
1983.98053	0.98608
1981.92672	0.98465
1979.87291	0.98551
1977.81910	0.98735
1975.76529	0.98921
1973.71148	0.99054
1971.65767	0.99035
1969.60386	0.98887
1967.55005	0.98848
1965.49624	0.98953
1963.44243	0.98889
1961.38862	0.98771
1959.33481	0.98848
1957.28100	0.98965
1955.22719	0.98962
1953.17338	0.98878
1951.11957	0.98782
1949.06576	0.98762
1947.01195	0.98860
1944.95814	0.98985
1942.90433	0.98965
1940.85052	0.98819
1938.79671	0.98728
1936.74290	0.98694
1934.68909	0.98651
1932.63528	0.98651
1930.58147	0.98717
1928.52766	0.98771
1926.47385	0.98767
1924.42004	0.98705
1922.36623	0.98630
1920.31241	0.98614
1918.25860	0.98637
1916.20479	0.98614
1914.15098	0.98542
1912.09717	0.98496
1910.04336	0.98526
1907.98955	0.98580
1905.93574	0.98598
1903.88193	0.98601
1901.82812	0.98594
1899.77431	0.98542
1897.72050	0.98492
1895.66669	0.98521
1893.61288	0.98576
1891.55907	0.98617
1889.50526	0.98644
1887.45145	0.98632
1885.39764	0.98594
1883.34383	0.98578
1881.29002	0.98594
1879.23621	0.98612
1877.18240	0.98596
1875.12859	0.98558
1873.07478	0.98539
1871.02097	0.98569
1868.96716	0.98626
1866.91335	0.98637
1864.85954	0.98585
1862.80573	0.98539
1860.75192	0.98548
1858.69811	0.98585
1856.64430	0.98585
1854.59049	0.98555
1852.53668	0.98542
1850.48287	0.98544
1848.42906	0.98544
1846.37525	0.98535
1844.32144	0.98530
1842.26763	0.98521
1840.21382	0.98505
1838.16001	0.98492
1836.10620	0.98494
1834.05239	0.98503
1831.99858	0.98508
1829.94477	0.98501
1827.89096	0.98483
1825.83715	0.98453
1823.78334	0.98403
1821.72953	0.98367
1819.67572	0.98365
1817.62191	0.98374
1815.56810	0.98340
1813.51429	0.98272
1811.46048	0.98215
1809.40667	0.98188
1807.35286	0.98168
1805.29905	0.98141
1803.24524	0.98084
1801.19143	0.98014
1799.13762	0.97931
1797.08381	0.97825
1795.03000	0.97719
1792.97619	0.97596
1790.92238	0.97429
1788.86857	0.97266
1786.81476	0.97136
1784.76095	0.97017
1782.70714	0.96879
1780.65333	0.96728
1778.59952	0.96607
1776.54571	0.96521
1774.49190	0.96410
1772.43809	0.96272
1770.38428	0.96166
1768.33047	0.96108
1766.27666	0.96059
1764.22285	0.95982
1762.16904	0.95858
1760.11523	0.95715
1758.06142	0.95567
1756.00761	0.95389
1753.95380	0.95185
1751.89999	0.94936
1749.84618	0.94567
1747.79237	0.94117
1745.73856	0.93655
1743.68475	0.93182
1741.63094	0.92700
1739.57713	0.92236
1737.52332	0.91888
1735.46951	0.91624
1733.41570	0.91327
1731.36189	0.91035
1729.30808	0.90634
1727.25427	0.89987
1725.20046	0.89098
1723.14665	0.88048
1721.09284	0.87092
1719.03903	0.86210
1716.98522	0.85210
1714.93141	0.84460
1712.87760	0.84186
1710.82379	0.84314
1708.76998	0.84781
1706.71617	0.85554
1704.66236	0.86535
1702.60855	0.87436
1700.55474	0.88381
1698.50093	0.89337
1696.44712	0.90259
1694.39331	0.91266
1692.33950	0.92022
1690.28569	0.92604
1688.23188	0.93117
1686.17807	0.93536
1684.12426	0.93933
1682.07045	0.94239
1680.01664	0.94437
1677.96283	0.94587
1675.90902	0.94722
1673.85521	0.94877
1671.80140	0.95004
1669.74759	0.95080
1667.69378	0.95120
1665.63997	0.95137
1663.58616	0.95161
1661.53235	0.95212
1659.47854	0.95282
1657.42473	0.95328
1655.37092	0.95352
1653.31711	0.95374
1651.26330	0.95407
1649.20949	0.95436
1647.15568	0.95457
1645.10187	0.95475
1643.04805	0.95488
1640.99424	0.95490
1638.94043	0.95479
1636.88662	0.95484
1634.83281	0.95501
1632.77900	0.95510
1630.72519	0.95517
1628.67138	0.95552
1626.61757	0.95614
1624.56376	0.95678
1622.50995	0.95744
1620.45614	0.95794
1618.40233	0.95843
1616.34852	0.95911
1614.29471	0.95967
1612.24090	0.95995
1610.18709	0.96026
1608.13328	0.96064
1606.07947	0.96104
1604.02566	0.96148
1601.97185	0.96186
1599.91804	0.96210
1597.86423	0.96221
1595.81042	0.96237
1593.75661	0.96272
1591.70280	0.96334
1589.64899	0.96392
1587.59518	0.96423
1585.54137	0.96443
1583.48756	0.96463
1581.43375	0.96483
1579.37994	0.96498
1577.32613	0.96503
1575.27232	0.96494
1573.21851	0.96485
1571.16470	0.96483
1569.11089	0.96483
1567.05708	0.96487
1565.00327	0.96505
1562.94946	0.96523
1560.89565	0.96529
1558.84184	0.96565
1556.78803	0.96636
1554.73422	0.96652
1552.68041	0.96632
1550.62660	0.96612
1548.57279	0.96598
1546.51898	0.96596
1544.46517	0.96605
1542.41136	0.96618
1540.35755	0.96630
1538.30374	0.96652
1536.24993	0.96674
1534.19612	0.96696
1532.14231	0.96728
1530.08850	0.96759
1528.03469	0.96788
1525.98088	0.96794
1523.92707	0.96768
1521.87326	0.96732
1519.81945	0.96705
1517.76564	0.96690
1515.71183	0.96719
1513.65802	0.96765
1511.60421	0.96785
1509.55040	0.96808
1507.49659	0.96830
1505.44278	0.96805
1503.38897	0.96756
1501.33516	0.96723
1499.28135	0.96703
1497.22754	0.96696
1495.17373	0.96683
1493.11992	0.96638
1491.06611	0.96527
1489.01230	0.96352
1486.95849	0.96168
1484.90468	0.95975
1482.85087	0.95649
1480.79706	0.95017
1478.74325	0.93592
1476.68944	0.89838
1474.63563	0.82829
1472.58182	0.76814
1470.52801	0.77002
1468.47420	0.79279
1466.42039	0.79394
1464.36658	0.76993
1462.31277	0.76111
1460.25896	0.78895
1458.20515	0.83547
1456.15134	0.87317
1454.09753	0.89025
1452.04372	0.90014
1449.98991	0.90784
1447.93610	0.91333
1445.88229	0.91673
1443.82848	0.91867
1441.77467	0.92013
1439.72086	0.92155
1437.66705	0.92312
1435.61324	0.92493
1433.55943	0.92670
1431.50562	0.92847
1429.45181	0.93019
1427.39800	0.93141
1425.34419	0.93188
1423.29038	0.93173
1421.23657	0.93104
1419.18276	0.92950
1417.12895	0.92728
1415.07514	0.92529
1413.02133	0.92385
1410.96752	0.92349
1408.91371	0.92451
1406.85990	0.92655
1404.80609	0.92935
1402.75228	0.93250
1400.69847	0.93545
1398.64466	0.93789
1396.59085	0.93972
1394.53704	0.94126
1392.48323	0.94250
1390.42942	0.94302
1388.37561	0.94276
1386.32180	0.94156
1384.26799	0.93920
1382.21418	0.93558
1380.16037	0.93154
1378.10656	0.92909
1376.05275	0.92907
1373.99894	0.92987
1371.94513	0.93008
1369.89132	0.93010
1367.83751	0.93059
1365.78369	0.93158
1363.72988	0.93267
1361.67607	0.93379
1359.62226	0.93489
1357.56845	0.93566
1355.51464	0.93607
1353.46083	0.93650
1351.40702	0.93726
1349.35321	0.93834
1347.29940	0.93964
1345.24559	0.94091
1343.19178	0.94189
1341.13797	0.94263
1339.08416	0.94328
1337.03035	0.94391
1334.97654	0.94441
1332.92273	0.94458
1330.86892	0.94439
1328.81511	0.94393
1326.76130	0.94321
1324.70749	0.94250
1322.65368	0.94165
1320.59987	0.94057
1318.54606	0.93933
1316.49225	0.93817
1314.43844	0.93704
1312.38463	0.93603
1310.33082	0.93534
1308.27701	0.93480
1306.22320	0.93416
1304.16939	0.93345
1302.11558	0.93293
1300.06177	0.93246
1298.00796	0.93184
1295.95415	0.93111
1293.90034	0.93046
1291.84653	0.92991
1289.79272	0.92935
1287.73891	0.92899
1285.68510	0.92892
1283.63129	0.92886
1281.57748	0.92875
1279.52367	0.92860
1277.46986	0.92830
1275.41605	0.92803
1273.36224	0.92783
1271.30843	0.92762
1269.25462	0.92711
1267.20081	0.92638
1265.14700	0.92581
1263.09319	0.92559
1261.03938	0.92553
1258.98557	0.92538
1256.93176	0.92506
1254.87795	0.92457
1252.82414	0.92408
1250.77033	0.92363
1248.71652	0.92298
1246.66271	0.92223
1244.60890	0.92189
1242.55509	0.92191
1240.50128	0.92208
1238.44747	0.92219
1236.39366	0.92208
1234.33985	0.92181
1232.28604	0.92153
1230.23223	0.92123
1228.17842	0.92085
1226.12461	0.92041
1224.07080	0.91986
1222.01699	0.91933
1219.96318	0.91890
1217.90937	0.91876
1215.85556	0.91895
1213.80175	0.91914
1211.74794	0.91903
1209.69413	0.91884
1207.64032	0.91876
1205.58651	0.91878
1203.53270	0.91882
1201.47889	0.91876
1199.42508	0.91842
1197.37127	0.91799
1195.31746	0.91770
1193.26365	0.91751
1191.20984	0.91734
1189.15603	0.91702
1187.10222	0.91641
1185.04841	0.91599
1182.99460	0.91574
1180.94079	0.91527
1178.88698	0.91468
1176.83317	0.91445
1174.77936	0.91456
1172.72555	0.91466
1170.67174	0.91485
1168.61793	0.91515
1166.56412	0.91548
1164.51031	0.91622
1162.45650	0.91757
1160.40269	0.91899
1158.34888	0.92017
1156.29507	0.92155
1154.24126	0.92315
1152.18745	0.92468
1150.13364	0.92604
1148.07983	0.92726
1146.02602	0.92828
1143.97221	0.92909
1141.91840	0.92950
1139.86459	0.92959
1137.81078	0.92965
1135.75697	0.92974
1133.70316	0.92957
1131.64935	0.92922
1129.59554	0.92888
1127.54173	0.92856
1125.48792	0.92807
1123.43411	0.92728
1121.38030	0.92649
1119.32649	0.92585
1117.27268	0.92534
1115.21887	0.92474
1113.16506	0.92385
1111.11125	0.92283
1109.05744	0.92217
1107.00363	0.92196
1104.94982	0.92189
1102.89601	0.92183
1100.84220	0.92172
1098.78839	0.92157
1096.73458	0.92149
1094.68077	0.92132
1092.62696	0.92081
1090.57315	0.92039
1088.51933	0.92015
1086.46552	0.91971
1084.41171	0.91912
1082.35790	0.91871
1080.30409	0.91850
1078.25028	0.91878
1076.19647	0.91937
1074.14266	0.91984
1072.08885	0.92007
1070.03504	0.91998
1067.98123	0.91948
1065.92742	0.91882
1063.87361	0.91857
1061.81980	0.91861
1059.76599	0.91861
1057.71218	0.91878
1055.65837	0.91901
1053.60456	0.91871
1051.55075	0.91812
1049.49694	0.91785
1047.44313	0.91764
1045.38932	0.91721
1043.33551	0.91671
1041.28170	0.91635
1039.22789	0.91614
1037.17408	0.91597
1035.12027	0.91578
1033.06646	0.91576
1031.01265	0.91618
1028.95884	0.91690
1026.90503	0.91757
1024.85122	0.91799
1022.79741	0.91818
1020.74360	0.91829
1018.68979	0.91857
1016.63598	0.91907
1014.58217	0.91981
1012.52836	0.92066
1010.47455	0.92126
1008.42074	0.92176
1006.36693	0.92242
1004.31312	0.92327
1002.25931	0.92440
1000.20550	0.92553
998.15169	0.92634
996.09788	0.92709
994.04407	0.92792
991.99026	0.92875
989.93645	0.92954
987.88264	0.93016
985.82883	0.93057
983.77502	0.93100
981.72121	0.93145
979.66740	0.93173
977.61359	0.93214
975.55978	0.93250
973.50597	0.93240
971.45216	0.93199
969.39835	0.93160
967.34454	0.93137
965.29073	0.93119
963.23692	0.93100
961.18311	0.93096
959.12930	0.93104
957.07549	0.93109
955.02168	0.93098
952.96787	0.93087
950.91406	0.93100
948.86025	0.93145
946.80644	0.93197
944.75263	0.93231
942.69882	0.93259
940.64501	0.93297
938.59120	0.93334
936.53739	0.93366
934.48358	0.93407
932.42977	0.93472
930.37596	0.93549
928.32215	0.93599
926.26834	0.93618
924.21453	0.93650
922.16072	0.93691
920.10691	0.93707
918.05310	0.93711
915.99929	0.93720
913.94548	0.93730
911.89167	0.93763
909.83786	0.93812
907.78405	0.93884
905.73024	0.93994
903.67643	0.94096
901.62262	0.94143
899.56881	0.94178
897.51500	0.94250
895.46119	0.94345
893.40738	0.94419
891.35357	0.94482
889.29976	0.94528
887.24595	0.94532
885.19214	0.94534
883.13833	0.94580
881.08452	0.94628
879.03071	0.94654
876.97690	0.94665
874.92309	0.94696
872.86928	0.94763
870.81547	0.94831
868.76166	0.94875
866.70785	0.94881
864.65404	0.94872
862.60023	0.94877
860.54642	0.94899
858.49261	0.94931
856.43880	0.94949
854.38499	0.94936
852.33118	0.94929
850.27737	0.94962
848.22356	0.94980
846.16975	0.94958
844.11594	0.94951
842.06213	0.94966
840.00832	0.94945
837.95451	0.94879
835.90070	0.94824
833.84689	0.94813
831.79308	0.94811
829.73927	0.94787
827.68546	0.94750
825.63165	0.94713
823.57784	0.94713
821.52403	0.94770
819.47022	0.94833
817.41641	0.94805
815.36260	0.94717
813.30878	0.94724
811.25497	0.94827
809.20116	0.94868
807.14735	0.94829
805.09354	0.94792
803.03973	0.94741
800.98592	0.94667
798.93211	0.94624
796.87830	0.94626
794.82449	0.94669
792.77068	0.94704
790.71687	0.94702
788.66306	0.94691
786.60925	0.94680
784.55544	0.94606
782.50163	0.94478
780.44782	0.94417
778.39401	0.94430
776.34020	0.94404
774.28639	0.94382
772.23258	0.94432
770.17877	0.94487
768.12496	0.94500
766.07115	0.94502
764.01734	0.94534
761.96353	0.94589
759.90972	0.94598
757.85591	0.94539
755.80210	0.94495
753.74829	0.94465
751.69448	0.94400
749.64067	0.94341
747.58686	0.94278
745.53305	0.94163
743.47924	0.94005
741.42543	0.93765
739.37162	0.93364
737.31781	0.92529
735.26400	0.90315
733.21019	0.85558
731.15638	0.80090
729.10257	0.78428
727.04876	0.80595
724.99495	0.81948
722.94114	0.79524
720.88733	0.74203
718.83352	0.70968
716.77971	0.73585
714.72590	0.79620
712.67209	0.85055
710.61828	0.88406
708.56447	0.90215
706.51066	0.91294
704.45685	0.91964
702.40304	0.92349
700.34923	0.92591
698.29542	0.92779
696.24161	0.92935
694.18780	0.93064
692.13399	0.93156
690.08018	0.93212
688.02637	0.93252
685.97256	0.93270
683.91875	0.93216
681.86494	0.93134
679.81113	0.93154
677.75732	0.93297
675.70351	0.93383
673.64970	0.93345
671.59589	0.93272
669.54208	0.93190
667.48827	0.93209
665.43446	0.93308
663.38065	0.93368
661.32684	0.93409
659.27303	0.93407
657.21922	0.93362
655.16541	0.93325
653.11160	0.93340
651.05779	0.93347
649.00398	0.93285
646.95017	0.93240
644.89636	0.93257
642.84255	0.93282
640.78874	0.93285
638.73493	0.93261
636.68112	0.93194
634.62731	0.93096
632.57350	0.93040
630.51969	0.93016
628.46588	0.92987
626.41207	0.92982
624.35826	0.93049
622.30445	0.93143
620.25064	0.93192
618.19683	0.93207
616.14302	0.93173
614.08921	0.93074
612.03540	0.93002
609.98159	0.93006
607.92778	0.92978
605.87397	0.92905
603.82016	0.92895
601.76635	0.92877
599.71254	0.92794
597.65873	0.92764
595.60492	0.92775
593.55111	0.92670
591.49730	0.92551
589.44349	0.92587
587.38968	0.92649
585.33587	0.92660
583.28206	0.92687
581.22825	0.92704
579.17444	0.92730
577.12063	0.92758
575.06682	0.92711
573.01301	0.92672
570.95920	0.92700
568.90539	0.92653
566.85158	0.92449
564.79777	0.92249
562.74396	0.92176
560.69015	0.92132
558.63634	0.92149
556.58253	0.92346
554.52872	0.92476
552.47491	0.92287
550.42110	0.92079
548.36729	0.92132
546.31348	0.92236
544.25967	0.92185
542.20586	0.92102
540.15205	0.92041
538.09824	0.91998
536.04442	0.92030
533.99061	0.92039
531.93680	0.91967
529.88299	0.91901
527.82918	0.91854
525.77537	0.91810
523.72156	0.91795
521.66775	0.91812
519.61394	0.91935
517.56013	0.92117
515.50632	0.92151
513.45251	0.92151
511.39870	0.92227
509.34489	0.92232
507.29108	0.92210
505.23727	0.92236
503.18346	0.92249
501.12965	0.92217
499.07584	0.92098
497.02203	0.91969
494.96822	0.91935
492.91441	0.91988
490.86060	0.92075
488.80679	0.92111
486.75298	0.92089
484.69917	0.92096
482.64536	0.92083
480.59155	0.91948
478.53774	0.91757
476.48393	0.91559
474.43012	0.91392
472.37631	0.91319
470.32250	0.91287
468.26869	0.91230
466.21488	0.91130
464.16107	0.91098
462.10726	0.91254
460.05345	0.91586
457.99964	0.91931
455.94583	0.92096
453.89202	0.92189
451.83821	0.92257
449.78440	0.92302
447.73059	0.92380
445.67678	0.92457
443.62297	0.92480
441.56916	0.92357
439.51535	0.92147
437.46154	0.91886
435.40773	0.91620
433.35392	0.91679
431.30011	0.91994
429.24630	0.92064
427.19249	0.92062
425.13868	0.92372
423.08487	0.92559
421.03106	0.92395
418.97725	0.92370
416.92344	0.92604
414.86963	0.92625
412.81582	0.92453
410.76201	0.92483
408.70820	0.92815
406.65439	0.93055
404.60058	0.93124
402.54677	0.93222
400.49296	0.93053
398.43915	0.92553
