3996.70104	0.98993
3994.64724	0.98940
3992.59344	0.98944
3990.53964	0.98993
3988.48583	0.99021
3986.43203	0.98987
3984.37823	0.98933
3982.32442	0.98912
3980.27062	0.98907
3978.21682	0.98914
3976.16301	0.98967
3974.10921	0.98996
3972.05541	0.98940
3970.00160	0.98872
3967.94780	0.98844
3965.89400	0.98848
3963.84019	0.98867
3961.78639	0.98895
3959.73259	0.98949
3957.67878	0.99008
3955.62498	0.99036
3953.57118	0.99021
3951.51737	0.98977
3949.46357	0.98942
3947.40977	0.98958
3945.35596	0.98985
3943.30216	0.98983
3941.24836	0.98966
3939.19455	0.98918
3937.14075	0.98888
3935.08695	0.98898
3933.03315	0.98896
3930.97934	0.98878
3928.92554	0.98850
3926.87174	0.98846
3924.81793	0.98886
3922.76413	0.98896
3920.71033	0.98877
3918.65652	0.98888
3916.60272	0.98919
3914.54892	0.98932
3912.49511	0.98899
3910.44131	0.98858
3908.38751	0.98847
3906.33370	0.98847
3904.27990	0.98862
3902.22610	0.98913
3900.17229	0.98990
3898.11849	0.99040
3896.06469	0.99034
3894.01088	0.99011
3891.95708	0.98952
3889.90328	0.98876
3887.84947	0.98868
3885.79567	0.98887
3883.74187	0.98857
3881.68807	0.98803
3879.63426	0.98798
3877.58046	0.98820
3875.52666	0.98834
3873.47285	0.98872
3871.41905	0.98944
3869.36525	0.99006
3867.31144	0.98989
3865.25764	0.98942
3863.20384	0.98906
3861.15003	0.98890
3859.09623	0.98899
3857.04243	0.98878
3854.98862	0.98852
3852.93482	0.98931
3850.88102	0.98956
3848.82721	0.98891
3846.77341	0.98864
3844.71961	0.98884
3842.66580	0.98914
3840.61200	0.98913
3838.55820	0.98852
3836.50439	0.98793
3834.45059	0.98790
3832.39679	0.98821
3830.34298	0.98847
3828.28918	0.98843
3826.23538	0.98788
3824.18158	0.98760
3822.12777	0.98853
3820.07397	0.98964
3818.02017	0.99001
3815.96636	0.98997
3813.91256	0.98940
3811.85876	0.98912
3809.80495	0.98909
3807.75115	0.98861
3805.69735	0.98793
3803.64354	0.98734
3801.58974	0.98688
3799.53594	0.98694
3797.48213	0.98710
3795.42833	0.98713
3793.37453	0.98720
3791.32072	0.98755
3789.26692	0.98817
3787.21312	0.98890
3785.15931	0.98905
3783.10551	0.98803
3781.05171	0.98689
3778.99790	0.98692
3776.94410	0.98757
3774.89030	0.98815
3772.83650	0.98862
3770.78269	0.98834
3768.72889	0.98804
3766.67509	0.98833
3764.62128	0.98774
3762.56748	0.98691
3760.51368	0.98722
3758.45987	0.98803
3756.40607	0.98804
3754.35227	0.98714
3752.29846	0.98585
3750.24466	0.98531
3748.19086	0.98652
3746.13705	0.98800
3744.08325	0.98824
3742.02945	0.98743
3739.97564	0.98690
3737.92184	0.98675
3735.86804	0.98657
3733.81423	0.98634
3731.76043	0.98576
3729.70663	0.98501
3727.65282	0.98516
3725.59902	0.98573
3723.54522	0.98526
3721.49141	0.98439
3719.43761	0.98353
3717.38381	0.98238
3715.33001	0.98149
3713.27620	0.98045
3711.22240	0.97757
3709.16860	0.97362
3707.11479	0.97107
3705.06099	0.96926
3703.00719	0.96699
3700.95338	0.96412
3698.89958	0.96165
3696.84578	0.96061
3694.79197	0.96116
3692.73817	0.96270
3690.68437	0.96450
3688.63056	0.96539
3686.57676	0.96587
3684.52296	0.96682
3682.46915	0.96758
3680.41535	0.96768
3678.36155	0.96730
3676.30774	0.96665
3674.25394	0.96581
3672.20014	0.96548
3670.14633	0.96570
3668.09253	0.96562
3666.03873	0.96475
3663.98492	0.96312
3661.93112	0.96121
3659.87732	0.95963
3657.82352	0.95791
3655.76971	0.95599
3653.71591	0.95494
3651.66211	0.95409
3649.60830	0.95253
3647.55450	0.95098
3645.50070	0.95009
3643.44689	0.94966
3641.39309	0.94930
3639.33929	0.94865
3637.28548	0.94717
3635.23168	0.94480
3633.17788	0.94233
3631.12407	0.93993
3629.07027	0.93686
3627.01647	0.93504
3624.96266	0.93503
3622.90886	0.93447
3620.85506	0.93263
3618.80125	0.93100
3616.74745	0.93107
3614.69365	0.93113
3612.63984	0.93000
3610.58604	0.92872
3608.53224	0.92752
3606.47844	0.92587
3604.42463	0.92490
3602.37083	0.92470
3600.31703	0.92395
3598.26322	0.92226
3596.20942	0.92057
3594.15562	0.91959
3592.10181	0.91925
3590.04801	0.91893
3587.99421	0.91748
3585.94040	0.91487
3583.88660	0.91334
3581.83280	0.91296
3579.77899	0.91207
3577.72519	0.91006
3575.67139	0.90792
3573.61758	0.90621
3571.56378	0.90502
3569.50998	0.90400
3567.45617	0.90206
3565.40237	0.89963
3563.34857	0.89790
3561.29476	0.89623
3559.24096	0.89468
3557.18716	0.89347
3555.13335	0.89223
3553.07955	0.89075
3551.02575	0.88895
3548.97195	0.88743
3546.91814	0.88635
3544.86434	0.88481
3542.81054	0.88283
3540.75673	0.88136
3538.70293	0.88016
3536.64913	0.87842
3534.59532	0.87666
3532.54152	0.87548
3530.48772	0.87459
3528.43391	0.87358
3526.38011	0.87233
3524.32631	0.87105
3522.27250	0.86958
3520.21870	0.86805
3518.16490	0.86671
3516.11109	0.86580
3514.05729	0.86540
3512.00349	0.86437
3509.94968	0.86219
3507.89588	0.86059
3505.84208	0.86011
3503.78827	0.85922
3501.73447	0.85767
3499.68067	0.85651
3497.62687	0.85551
3495.57306	0.85399
3493.51926	0.85231
3491.46546	0.85101
3489.41165	0.84997
3487.35785	0.84879
3485.30405	0.84744
3483.25024	0.84610
3481.19644	0.84473
3479.14264	0.84345
3477.08883	0.84221
3475.03503	0.84103
3472.98123	0.84009
3470.92742	0.83916
3468.87362	0.83786
3466.81982	0.83620
3464.76601	0.83460
3462.71221	0.83294
3460.65841	0.83095
3458.60460	0.82951
3456.55080	0.82900
3454.49700	0.82830
3452.44319	0.82681
3450.38939	0.82508
3448.33559	0.82334
3446.28178	0.82175
3444.22798	0.82094
3442.17418	0.82000
3440.12038	0.81805
3438.06657	0.81645
3436.01277	0.81581
3433.95897	0.81480
3431.90516	0.81331
3429.85136	0.81239
3427.79756	0.81145
3425.74375	0.80990
3423.68995	0.80816
3421.63615	0.80645
3419.58234	0.80509
3417.52854	0.80419
3415.47474	0.80316
3413.42093	0.80143
3411.36713	0.79952
3409.31333	0.79804
3407.25952	0.79686
3405.20572	0.79567
3403.15192	0.79468
3401.09811	0.79433
3399.04431	0.79418
3396.99051	0.79353
3394.93670	0.79277
3392.88290	0.79205
3390.82910	0.79138
3388.77529	0.79126
3386.72149	0.79118
3384.66769	0.79047
3382.61389	0.78970
3380.56008	0.78950
3378.50628	0.78965
3376.45248	0.78990
3374.39867	0.79032
3372.34487	0.79052
3370.29107	0.79016
3368.23726	0.78946
3366.18346	0.78904
3364.12966	0.78946
3362.07585	0.79041
3360.02205	0.79099
3357.96825	0.79085
3355.91444	0.79037
3353.86064	0.79048
3351.80684	0.79142
3349.75303	0.79227
3347.69923	0.79266
3345.64543	0.79312
3343.59162	0.79377
3341.53782	0.79425
3339.48402	0.79438
3337.43021	0.79434
3335.37641	0.79456
3333.32261	0.79538
3331.26881	0.79662
3329.21500	0.79783
3327.16120	0.79859
3325.10740	0.79882
3323.05359	0.79883
3320.99979	0.79916
3318.94599	0.80001
3316.89218	0.80086
3314.83838	0.80159
3312.78458	0.80246
3310.73077	0.80319
3308.67697	0.80368
3306.62317	0.80443
3304.56936	0.80541
3302.51556	0.80623
3300.46176	0.80679
3298.40795	0.80718
3296.35415	0.80760
3294.30035	0.80831
3292.24654	0.80921
3290.19274	0.80983
3288.13894	0.81028
3286.08513	0.81074
3284.03133	0.81130
3281.97753	0.81211
3279.92372	0.81294
3277.86992	0.81349
3275.81612	0.81387
3273.76232	0.81425
3271.70851	0.81487
3269.65471	0.81584
3267.60091	0.81675
3265.54710	0.81723
3263.49330	0.81738
3261.43950	0.81769
3259.38569	0.81819
3257.33189	0.81880
3255.27809	0.81993
3253.22428	0.82103
3251.17048	0.82163
3249.11668	0.82236
3247.06287	0.82324
3245.00907	0.82389
3242.95527	0.82466
3240.90146	0.82555
3238.84766	0.82637
3236.79386	0.82720
3234.74005	0.82805
3232.68625	0.82921
3230.63245	0.83070
3228.57864	0.83196
3226.52484	0.83283
3224.47104	0.83374
3222.41724	0.83501
3220.36343	0.83626
3218.30963	0.83734
3216.25583	0.83872
3214.20202	0.84025
3212.14822	0.84125
3210.09442	0.84208
3208.04061	0.84366
3205.98681	0.84557
3203.93301	0.84711
3201.87920	0.84837
3199.82540	0.84961
3197.77160	0.85096
3195.71779	0.85246
3193.66399	0.85404
3191.61019	0.85549
3189.55638	0.85661
3187.50258	0.85770
3185.44878	0.85912
3183.39497	0.86062
3181.34117	0.86202
3179.28737	0.86325
3177.23356	0.86430
3175.17976	0.86569
3173.12596	0.86723
3171.07215	0.86867
3169.01835	0.87020
3166.96455	0.87184
3164.91075	0.87383
3162.85694	0.87570
3160.80314	0.87695
3158.74934	0.87814
3156.69553	0.87955
3154.64173	0.88109
3152.58793	0.88257
3150.53412	0.88373
3148.48032	0.88507
3146.42652	0.88697
3144.37271	0.88860
3142.31891	0.88934
3140.26511	0.88982
3138.21130	0.89064
3136.15750	0.89185
3134.10370	0.89351
3132.04989	0.89514
3129.99609	0.89628
3127.94229	0.89717
3125.88848	0.89837
3123.83468	0.89977
3121.78088	0.90076
3119.72707	0.90162
3117.67327	0.90302
3115.61947	0.90466
3113.56566	0.90607
3111.51186	0.90729
3109.45806	0.90815
3107.40426	0.90888
3105.35045	0.90978
3103.29665	0.91078
3101.24285	0.91200
3099.18904	0.91308
3097.13524	0.91346
3095.08144	0.91340
3093.02763	0.91356
3090.97383	0.91432
3088.92003	0.91553
3086.86622	0.91673
3084.81242	0.91776
3082.75862	0.91885
3080.70481	0.92020
3078.65101	0.92124
3076.59721	0.92162
3074.54340	0.92202
3072.48960	0.92292
3070.43580	0.92420
3068.38199	0.92553
3066.32819	0.92656
3064.27439	0.92732
3062.22058	0.92791
3060.16678	0.92821
3058.11298	0.92842
3056.05918	0.92904
3054.00537	0.93000
3051.95157	0.93083
3049.89777	0.93148
3047.84396	0.93216
3045.79016	0.93288
3043.73636	0.93380
3041.68255	0.93479
3039.62875	0.93539
3037.57495	0.93565
3035.52114	0.93610
3033.46734	0.93693
3031.41354	0.93745
3029.35973	0.93759
3027.30593	0.93814
3025.25213	0.93884
3023.19832	0.93945
3021.14452	0.94024
3019.09072	0.94079
3017.03691	0.94092
3014.98311	0.94142
3012.92931	0.94222
3010.87550	0.94253
3008.82170	0.94232
3006.76790	0.94207
3004.71409	0.94198
3002.66029	0.94230
3000.60649	0.94274
2998.55269	0.94281
2996.49888	0.94260
2994.44508	0.94234
2992.39128	0.94202
2990.33747	0.94154
2988.28367	0.94076
2986.22987	0.93976
2984.17606	0.93887
2982.12226	0.93832
2980.06846	0.93770
2978.01465	0.93669
2975.96085	0.93538
2973.90705	0.93368
2971.85324	0.93127
2969.79944	0.92839
2967.74564	0.92563
2965.69183	0.92310
2963.63803	0.92051
2961.58423	0.91768
2959.53042	0.91510
2957.47662	0.91297
2955.42282	0.91086
2953.36901	0.90854
2951.31521	0.90622
2949.26141	0.90389
2947.20761	0.90057
2945.15380	0.89521
2943.10000	0.88745
2941.04620	0.87704
2938.99239	0.86381
2936.93859	0.84779
2934.88479	0.82885
2932.83098	0.80658
2930.77718	0.78038
2928.72338	0.74922
2926.66957	0.71210
2924.61577	0.66858
2922.56197	0.61885
2920.50816	0.56565
2918.45436	0.51599
2916.40056	0.48152
2914.34675	0.47357
2912.29295	0.49274
2910.23915	0.52787
2908.18534	0.56658
2906.13154	0.60182
2904.07774	0.63129
2902.02393	0.65534
2899.97013	0.67508
2897.91633	0.69176
2895.86252	0.70684
2893.80872	0.72173
2891.75492	0.73699
2889.70112	0.75253
2887.64731	0.76829
2885.59351	0.78404
2883.53971	0.79956
2881.48590	0.81512
2879.43210	0.83065
2877.37830	0.84510
2875.32449	0.85760
2873.27069	0.86752
2871.21689	0.87433
2869.16308	0.87786
2867.10928	0.87775
2865.05548	0.87336
2863.00167	0.86387
2860.94787	0.84761
2858.89407	0.82155
2856.84026	0.78150
2854.78646	0.72411
2852.73266	0.65135
2850.67885	0.57722
2848.62505	0.52873
2846.57125	0.52725
2844.51744	0.56835
2842.46364	0.62990
2840.40984	0.69243
2838.35603	0.74600
2836.30223	0.78814
2834.24843	0.82063
2832.19463	0.84586
2830.14082	0.86511
2828.08702	0.87987
2826.03322	0.89205
2823.97941	0.90231
2821.92561	0.91060
2819.87181	0.91737
2817.81800	0.92285
2815.76420	0.92729
2813.71040	0.93109
2811.65659	0.93474
2809.60279	0.93818
2807.54899	0.94095
2805.49518	0.94325
2803.44138	0.94549
2801.38758	0.94768
2799.33377	0.94976
2797.27997	0.95160
2795.22617	0.95322
2793.17236	0.95489
2791.11856	0.95661
2789.06476	0.95794
2787.01095	0.95899
2784.95715	0.96016
2782.90335	0.96120
2780.84955	0.96223
2778.79574	0.96352
2776.74194	0.96444
2774.68814	0.96490
2772.63433	0.96544
2770.58053	0.96612
2768.52673	0.96680
2766.47292	0.96728
2764.41912	0.96757
2762.36532	0.96792
2760.31151	0.96848
2758.25771	0.96922
2756.20391	0.96983
2754.15010	0.97017
2752.09630	0.97031
2750.04250	0.97038
2747.98869	0.97064
2745.93489	0.97095
2743.88109	0.97094
2741.82728	0.97083
2739.77348	0.97089
2737.71968	0.97126
2735.66587	0.97195
2733.61207	0.97233
2731.55827	0.97218
2729.50446	0.97212
2727.45066	0.97242
2725.39686	0.97289
2723.34306	0.97318
2721.28925	0.97342
2719.23545	0.97368
2717.18165	0.97376
2715.12784	0.97400
2713.07404	0.97454
2711.02024	0.97482
2708.96643	0.97478
2706.91263	0.97479
2704.85883	0.97500
2702.80502	0.97537
2700.75122	0.97570
2698.69742	0.97579
2696.64361	0.97562
2694.58981	0.97558
2692.53601	0.97601
2690.48220	0.97667
2688.42840	0.97710
2686.37460	0.97715
2684.32079	0.97708
2682.26699	0.97706
2680.21319	0.97706
2678.15938	0.97701
2676.10558	0.97687
2674.05178	0.97668
2671.99797	0.97647
2669.94417	0.97630
2667.89037	0.97615
2665.83657	0.97597
2663.78276	0.97594
2661.72896	0.97601
2659.67516	0.97585
2657.62135	0.97538
2655.56755	0.97479
2653.51375	0.97468
2651.45994	0.97521
2649.40614	0.97576
2647.35234	0.97605
2645.29853	0.97610
2643.24473	0.97606
2641.19093	0.97614
2639.13712	0.97640
2637.08332	0.97677
2635.02952	0.97712
2632.97571	0.97753
2630.92191	0.97801
2628.86811	0.97832
2626.81430	0.97836
2624.76050	0.97836
2622.70670	0.97844
2620.65289	0.97851
2618.59909	0.97868
2616.54529	0.97902
2614.49149	0.97959
2612.43768	0.98031
2610.38388	0.98073
2608.33008	0.98071
2606.27627	0.98066
2604.22247	0.98070
2602.16867	0.98058
2600.11486	0.98052
2598.06106	0.98097
2596.00726	0.98158
2593.95345	0.98178
2591.89965	0.98180
2589.84585	0.98190
2587.79204	0.98226
2585.73824	0.98311
2583.68444	0.98380
2581.63063	0.98379
2579.57683	0.98327
2577.52303	0.98262
2575.46922	0.98257
2573.41542	0.98282
2571.36162	0.98260
2569.30781	0.98234
2567.25401	0.98252
2565.20021	0.98297
2563.14640	0.98326
2561.09260	0.98327
2559.03880	0.98306
2556.98500	0.98283
2554.93119	0.98304
2552.87739	0.98356
2550.82359	0.98397
2548.76978	0.98393
2546.71598	0.98354
2544.66218	0.98342
2542.60837	0.98383
2540.55457	0.98443
2538.50077	0.98487
2536.44696	0.98486
2534.39316	0.98473
2532.33936	0.98482
2530.28555	0.98475
2528.23175	0.98440
2526.17795	0.98428
2524.12414	0.98483
2522.07034	0.98581
2520.01654	0.98619
2517.96273	0.98558
2515.90893	0.98489
2513.85513	0.98484
2511.80132	0.98538
2509.74752	0.98581
2507.69372	0.98567
2505.63992	0.98559
2503.58611	0.98594
2501.53231	0.98595
2499.47851	0.98523
2497.42470	0.98444
2495.37090	0.98428
2493.31710	0.98481
2491.26329	0.98545
2489.20949	0.98571
2487.15569	0.98576
2485.10188	0.98570
2483.04808	0.98574
2480.99428	0.98573
2478.94047	0.98489
2476.88667	0.98372
2474.83287	0.98361
2472.77906	0.98430
2470.72526	0.98464
2468.67146	0.98452
2466.61765	0.98453
2464.56385	0.98475
2462.51005	0.98486
2460.45624	0.98515
2458.40244	0.98559
2456.34864	0.98561
2454.29483	0.98526
2452.24103	0.98499
2450.18723	0.98463
2448.13343	0.98403
2446.07962	0.98388
2444.02582	0.98455
2441.97202	0.98507
2439.91821	0.98501
2437.86441	0.98542
2435.81061	0.98590
2433.75680	0.98571
2431.70300	0.98550
2429.64920	0.98520
2427.59539	0.98448
2425.54159	0.98357
2423.48779	0.98319
2421.43398	0.98398
2419.38018	0.98514
2417.32638	0.98590
2415.27257	0.98619
2413.21877	0.98572
2411.16497	0.98484
2409.11116	0.98449
2407.05736	0.98474
2405.00356	0.98494
2402.94975	0.98449
2400.89595	0.98390
2398.84215	0.98415
2396.78834	0.98481
2394.73454	0.98505
2392.68074	0.98463
2390.62694	0.98403
2388.57313	0.98388
2386.51933	0.98388
2384.46553	0.98379
2382.41172	0.98396
2380.35792	0.98395
2378.30412	0.98343
2376.25031	0.98299
2374.19651	0.98287
2372.14271	0.98316
2370.08890	0.98340
2368.03510	0.98274
2365.98130	0.98176
2363.92749	0.98143
2361.87369	0.98159
2359.81989	0.98133
2357.76608	0.98105
2355.71228	0.98111
2353.65848	0.98109
2351.60467	0.98116
2349.55087	0.98108
2347.49707	0.98075
2345.44326	0.98032
2343.38946	0.98001
2341.33566	0.98019
2339.28186	0.98046
2337.22805	0.98057
2335.17425	0.98068
2333.12045	0.98033
2331.06664	0.98010
2329.01284	0.98055
2326.95904	0.98046
2324.90523	0.97935
2322.85143	0.97825
2320.79763	0.97815
2318.74382	0.97895
2316.69002	0.97983
2314.63622	0.98031
2312.58241	0.98056
2310.52861	0.98071
2308.47481	0.98079
2306.42100	0.98077
2304.36720	0.98044
2302.31340	0.97981
2300.25959	0.97926
2298.20579	0.97912
2296.15199	0.97939
2294.09818	0.97986
2292.04438	0.98031
2289.99058	0.98044
2287.93677	0.98029
2285.88297	0.98068
2283.82917	0.98181
2281.77537	0.98247
2279.72156	0.98199
2277.66776	0.98163
2275.61396	0.98225
2273.56015	0.98314
2271.50635	0.98366
2269.45255	0.98370
2267.39874	0.98294
2265.34494	0.98175
2263.29114	0.98122
2261.23733	0.98112
2259.18353	0.98100
2257.12973	0.98144
2255.07592	0.98238
2253.02212	0.98294
2250.96832	0.98378
2248.91451	0.98465
2246.86071	0.98336
2244.80691	0.98133
2242.75310	0.98138
2240.69930	0.98271
2238.64550	0.98301
2236.59169	0.98229
2234.53789	0.98260
2232.48409	0.98419
2230.43029	0.98526
2228.37648	0.98474
2226.32268	0.98320
2224.26888	0.98161
2222.21507	0.98120
2220.16127	0.98252
2218.10747	0.98369
2216.05366	0.98416
2213.99986	0.98544
2211.94606	0.98648
2209.89225	0.98604
2207.83845	0.98610
2205.78465	0.98661
2203.73084	0.98576
2201.67704	0.98485
2199.62324	0.98459
2197.56943	0.98461
2195.51563	0.98534
2193.46183	0.98647
2191.40802	0.98678
2189.35422	0.98534
2187.30042	0.98314
2185.24661	0.98204
2183.19281	0.98254
2181.13901	0.98425
2179.08520	0.98662
2177.03140	0.98757
2174.97760	0.98644
2172.92380	0.98551
2170.86999	0.98527
2168.81619	0.98572
2166.76239	0.98752
2164.70858	0.98811
2162.65478	0.98620
2160.60098	0.98588
2158.54717	0.98931
2156.49337	0.99260
2154.43957	0.99215
2152.38576	0.98927
2150.33196	0.98667
2148.27816	0.98564
2146.22435	0.98556
2144.17055	0.98596
2142.11675	0.98812
2140.06294	0.99041
2138.00914	0.98983
2135.95534	0.98765
2133.90153	0.98581
2131.84773	0.98433
2129.79393	0.98399
2127.74012	0.98488
2125.68632	0.98596
2123.63252	0.98649
2121.57871	0.98584
2119.52491	0.98463
2117.47111	0.98375
2115.41731	0.98355
2113.36350	0.98401
2111.30970	0.98376
2109.25590	0.98297
2107.20209	0.98294
2105.14829	0.98295
2103.09449	0.98221
2101.04068	0.98132
2098.98688	0.98106
2096.93308	0.98221
2094.87927	0.98389
2092.82547	0.98401
2090.77167	0.98328
2088.71786	0.98354
2086.66406	0.98405
2084.61026	0.98364
2082.55645	0.98304
2080.50265	0.98287
2078.44885	0.98309
2076.39504	0.98369
2074.34124	0.98382
2072.28744	0.98323
2070.23363	0.98338
2068.17983	0.98453
2066.12603	0.98514
2064.07223	0.98454
2062.01842	0.98431
2059.96462	0.98569
2057.91082	0.98643
2055.85701	0.98492
2053.80321	0.98280
2051.74941	0.98111
2049.69560	0.98040
2047.64180	0.98117
2045.58800	0.98263
2043.53419	0.98294
2041.48039	0.98304
2039.42659	0.98465
2037.37278	0.98402
2035.31898	0.98092
2033.26518	0.98095
2031.21137	0.98474
2029.15757	0.98694
2027.10377	0.98469
2025.04996	0.98170
2022.99616	0.98116
2020.94236	0.98117
2018.88855	0.97946
2016.83475	0.97937
2014.78095	0.98340
2012.72714	0.98621
2010.67334	0.98547
2008.61954	0.98595
2006.56574	0.98937
2004.51193	0.99154
2002.45813	0.98955
2000.40433	0.98607
1998.35052	0.98574
1996.29672	0.98837
1994.24292	0.98983
1992.18911	0.98851
1990.13531	0.98587
1988.08151	0.98385
1986.02770	0.98354
1983.97390	0.98345
1981.92010	0.98187
1979.86629	0.98101
1977.81249	0.98330
1975.75869	0.98685
1973.70488	0.98882
1971.65108	0.98893
1969.59728	0.98757
1967.54347	0.98667
1965.48967	0.98740
1963.43587	0.98815
1961.38206	0.98866
1959.32826	0.98903
1957.27446	0.98883
1955.22066	0.98830
1953.16685	0.98731
1951.11305	0.98604
1949.05925	0.98530
1947.00544	0.98514
1944.95164	0.98492
1942.89784	0.98480
1940.84403	0.98474
1938.79023	0.98445
1936.73643	0.98481
1934.68262	0.98593
1932.62882	0.98739
1930.57502	0.98767
1928.52121	0.98577
1926.46741	0.98412
1924.41361	0.98387
1922.35980	0.98461
1920.30600	0.98638
1918.25220	0.98765
1916.19839	0.98669
1914.14459	0.98498
1912.09079	0.98464
1910.03698	0.98502
1907.98318	0.98480
1905.92938	0.98435
1903.87557	0.98426
1901.82177	0.98449
1899.76797	0.98445
1897.71417	0.98382
1895.66036	0.98376
1893.60656	0.98464
1891.55276	0.98518
1889.49895	0.98489
1887.44515	0.98428
1885.39135	0.98398
1883.33754	0.98401
1881.28374	0.98413
1879.22994	0.98356
1877.17613	0.98241
1875.12233	0.98243
1873.06853	0.98347
1871.01472	0.98385
1868.96092	0.98375
1866.90712	0.98376
1864.85331	0.98319
1862.79951	0.98248
1860.74571	0.98252
1858.69190	0.98287
1856.63810	0.98276
1854.58430	0.98269
1852.53049	0.98318
1850.47669	0.98378
1848.42289	0.98401
1846.36908	0.98404
1844.31528	0.98424
1842.26148	0.98423
1840.20768	0.98411
1838.15387	0.98391
1836.10007	0.98345
1834.04627	0.98329
1831.99246	0.98327
1829.93866	0.98303
1827.88486	0.98319
1825.83105	0.98349
1823.77725	0.98306
1821.72345	0.98225
1819.66964	0.98173
1817.61584	0.98167
1815.56204	0.98177
1813.50823	0.98175
1811.45443	0.98154
1809.40063	0.98131
1807.34682	0.98150
1805.29302	0.98175
1803.23922	0.98156
1801.18541	0.98123
1799.13161	0.98073
1797.07781	0.97995
1795.02400	0.97968
1792.97020	0.98031
1790.91640	0.98106
1788.86260	0.98085
1786.80879	0.98008
1784.75499	0.97971
1782.70119	0.97972
1780.64738	0.97943
1778.59358	0.97894
1776.53978	0.97863
1774.48597	0.97823
1772.43217	0.97781
1770.37837	0.97765
1768.32456	0.97727
1766.27076	0.97647
1764.21696	0.97561
1762.16315	0.97482
1760.10935	0.97399
1758.05555	0.97328
1756.00174	0.97241
1753.94794	0.97110
1751.89414	0.96899
1749.84033	0.96579
1747.78653	0.96203
1745.73273	0.95849
1743.67892	0.95516
1741.62512	0.95140
1739.57132	0.94742
1737.51751	0.94474
1735.46371	0.94338
1733.40991	0.94287
1731.35611	0.94348
1729.30230	0.94426
1727.24850	0.94517
1725.19470	0.94633
1723.14089	0.94732
1721.08709	0.94796
1719.03329	0.94814
1716.97948	0.94747
1714.92568	0.94653
1712.87188	0.94587
1710.81807	0.94510
1708.76427	0.94405
1706.71047	0.94264
1704.65666	0.94135
1702.60286	0.94001
1700.54906	0.93721
1698.49525	0.93414
1696.44145	0.93141
1694.38765	0.92750
1692.33384	0.92429
1690.28004	0.92125
1688.22624	0.91745
1686.17243	0.91327
1684.11863	0.90748
1682.06483	0.90276
1680.01103	0.90049
1677.95722	0.89831
1675.90342	0.89482
1673.84962	0.89074
1671.79581	0.88778
1669.74201	0.88433
1667.68821	0.88074
1665.63440	0.87857
1663.58060	0.87622
1661.52680	0.87308
1659.47299	0.87070
1657.41919	0.86938
1655.36539	0.86818
1653.31158	0.86511
1651.25778	0.86264
1649.20398	0.86259
1647.15017	0.86182
1645.09637	0.86026
1643.04257	0.85991
1640.98876	0.86064
1638.93496	0.86203
1636.88116	0.86353
1634.82735	0.86478
1632.77355	0.86603
1630.71975	0.86758
1628.66594	0.86951
1626.61214	0.87157
1624.55834	0.87358
1622.50454	0.87566
1620.45073	0.87781
1618.39693	0.88064
1616.34313	0.88479
1614.28932	0.88869
1612.23552	0.89186
1610.18172	0.89525
1608.12791	0.89853
1606.07411	0.90123
1604.02031	0.90371
1601.96650	0.90605
1599.91270	0.90823
1597.85890	0.91049
1595.80509	0.91281
1593.75129	0.91512
1591.69749	0.91751
1589.64368	0.91966
1587.58988	0.92136
1585.53608	0.92304
1583.48227	0.92483
1581.42847	0.92675
1579.37467	0.92859
1577.32086	0.92985
1575.26706	0.93071
1573.21326	0.93162
1571.15945	0.93221
1569.10565	0.93265
1567.05185	0.93336
1564.99805	0.93400
1562.94424	0.93456
1560.89044	0.93520
1558.83664	0.93534
1556.78283	0.93458
1554.72903	0.93442
1552.67523	0.93455
1550.62142	0.93480
1548.56762	0.93536
1546.51382	0.93605
1544.46001	0.93640
1542.40621	0.93677
1540.35241	0.93786
1538.29860	0.93882
1536.24480	0.93945
1534.19100	0.94028
1532.13719	0.94120
1530.08339	0.94179
1528.02959	0.94253
1525.97578	0.94359
1523.92198	0.94481
1521.86818	0.94615
1519.81437	0.94732
1517.76057	0.94811
1515.70677	0.94854
1513.65297	0.94885
1511.59916	0.94950
1509.54536	0.95050
1507.49156	0.95166
1505.43775	0.95227
1503.38395	0.95196
1501.33015	0.95166
1499.27634	0.95154
1497.22254	0.95098
1495.16874	0.94968
1493.11493	0.94880
1491.06113	0.94826
1489.00733	0.94708
1486.95352	0.94501
1484.89972	0.94237
1482.84592	0.93858
1480.79211	0.93200
1478.73831	0.91886
1476.68451	0.88722
1474.63070	0.82722
1472.57690	0.76825
1470.52310	0.76102
1468.46929	0.77918
1466.41549	0.78873
1464.36169	0.78190
1462.30788	0.78092
1460.25408	0.80265
1458.20028	0.84008
1456.14648	0.87214
1454.09267	0.88520
1452.03887	0.89275
1449.98507	0.89907
1447.93126	0.90410
1445.87746	0.90784
1443.82366	0.91036
1441.76985	0.91227
1439.71605	0.91382
1437.66225	0.91531
1435.60844	0.91714
1433.55464	0.91899
1431.50084	0.92098
1429.44703	0.92362
1427.39323	0.92660
1425.33943	0.92898
1423.28562	0.93036
1421.23182	0.93113
1419.17802	0.93185
1417.12421	0.93222
1415.07041	0.93242
1413.01661	0.93277
1410.96280	0.93319
1408.90900	0.93357
1406.85520	0.93373
1404.80139	0.93374
1402.74759	0.93392
1400.69379	0.93415
1398.63999	0.93403
1396.58618	0.93366
1394.53238	0.93335
1392.47858	0.93342
1390.42477	0.93346
1388.37097	0.93288
1386.31717	0.93177
1384.26336	0.93048
1382.20956	0.92847
1380.15576	0.92536
1378.10195	0.92255
1376.04815	0.92184
1373.99435	0.92286
1371.94054	0.92348
1369.88674	0.92296
1367.83294	0.92226
1365.77913	0.92289
1363.72533	0.92537
1361.67153	0.92849
1359.61772	0.93086
1357.56392	0.93263
1355.51012	0.93385
1353.45631	0.93442
1351.40251	0.93482
1349.34871	0.93561
1347.29491	0.93679
1345.24110	0.93791
1343.18730	0.93879
1341.13350	0.93957
1339.07969	0.94023
1337.02589	0.94063
1334.97209	0.94097
1332.91828	0.94138
1330.86448	0.94161
1328.81068	0.94155
1326.75687	0.94141
1324.70307	0.94122
1322.64927	0.94075
1320.59546	0.94015
1318.54166	0.93964
1316.48786	0.93913
1314.43405	0.93849
1312.38025	0.93803
1310.32645	0.93797
1308.27264	0.93803
1306.21884	0.93808
1304.16504	0.93810
1302.11123	0.93821
1300.05743	0.93834
1298.00363	0.93819
1295.94982	0.93797
1293.89602	0.93781
1291.84222	0.93750
1289.78842	0.93713
1287.73461	0.93676
1285.68081	0.93648
1283.62701	0.93611
1281.57320	0.93527
1279.51940	0.93413
1277.46560	0.93307
1275.41179	0.93223
1273.35799	0.93157
1271.30419	0.93075
1269.25038	0.92909
1267.19658	0.92661
1265.14278	0.92400
1263.08897	0.92143
1261.03517	0.91911
1258.98137	0.91772
1256.92756	0.91727
1254.87376	0.91721
1252.81996	0.91732
1250.76615	0.91749
1248.71235	0.91729
1246.65855	0.91643
1244.60474	0.91536
1242.55094	0.91455
1240.49714	0.91390
1238.44334	0.91329
1236.38953	0.91260
1234.33573	0.91173
1232.28193	0.91091
1230.22812	0.91039
1228.17432	0.90999
1226.12052	0.90922
1224.06671	0.90812
1222.01291	0.90738
1219.95911	0.90708
1217.90530	0.90658
1215.85150	0.90558
1213.79770	0.90439
1211.74389	0.90317
1209.69009	0.90174
1207.63629	0.90016
1205.58248	0.89856
1203.52868	0.89661
1201.47488	0.89427
1199.42107	0.89185
1197.36727	0.88914
1195.31347	0.88601
1193.25966	0.88295
1191.20586	0.88002
1189.15206	0.87689
1187.09825	0.87341
1185.04445	0.86963
1182.99065	0.86550
1180.93685	0.86082
1178.88304	0.85568
1176.82924	0.85048
1174.77544	0.84545
1172.72163	0.84051
1170.66783	0.83552
1168.61403	0.83059
1166.56022	0.82604
1164.50642	0.82209
1162.45262	0.81877
1160.39881	0.81595
1158.34501	0.81318
1156.29121	0.81035
1154.23740	0.80759
1152.18360	0.80459
1150.12980	0.80135
1148.07599	0.79824
1146.02219	0.79545
1143.96839	0.79290
1141.91458	0.79048
1139.86078	0.78838
1137.80698	0.78621
1135.75317	0.78365
1133.69937	0.78059
1131.64557	0.77683
1129.59176	0.77257
1127.53796	0.76791
1125.48416	0.76298
1123.43036	0.75809
1121.37655	0.75327
1119.32275	0.74824
1117.26895	0.74274
1115.21514	0.73718
1113.16134	0.73228
1111.10754	0.72817
1109.05373	0.72435
1106.99993	0.72065
1104.94613	0.71737
1102.89232	0.71441
1100.83852	0.71188
1098.78472	0.71028
1096.73091	0.70957
1094.67711	0.70923
1092.62331	0.70913
1090.56950	0.70949
1088.51570	0.71056
1086.46190	0.71200
1084.40809	0.71290
1082.35429	0.71311
1080.30049	0.71328
1078.24668	0.71397
1076.19288	0.71499
1074.13908	0.71549
1072.08528	0.71510
1070.03147	0.71398
1067.97767	0.71242
1065.92387	0.71051
1063.87006	0.70791
1061.81626	0.70471
1059.76246	0.70122
1057.70865	0.69735
1055.65485	0.69277
1053.60105	0.68727
1051.54724	0.68116
1049.49344	0.67493
1047.43964	0.66860
1045.38583	0.66228
1043.33203	0.65653
1041.27823	0.65176
1039.22442	0.64782
1037.17062	0.64437
1035.11682	0.64174
1033.06301	0.64049
1031.00921	0.64093
1028.95541	0.64300
1026.90160	0.64582
1024.84780	0.64809
1022.79400	0.64935
1020.74019	0.65044
1018.68639	0.65187
1016.63259	0.65343
1014.57879	0.65528
1012.52498	0.65780
1010.47118	0.66105
1008.41738	0.66518
1006.36357	0.67058
1004.30977	0.67733
1002.25597	0.68485
1000.20216	0.69278
998.14836	0.70144
996.09456	0.71076
994.04075	0.72019
991.98695	0.72958
989.93315	0.73887
987.87934	0.74802
985.82554	0.75729
983.77174	0.76659
981.71793	0.77557
979.66413	0.78427
977.61033	0.79226
975.55652	0.79921
973.50272	0.80570
971.44892	0.81236
969.39511	0.81925
967.34131	0.82582
965.28751	0.83155
963.23371	0.83635
961.17990	0.84064
959.12610	0.84476
957.07230	0.84854
955.01849	0.85166
952.96469	0.85406
950.91089	0.85604
948.85708	0.85776
946.80328	0.85935
944.74948	0.86100
942.69567	0.86262
940.64187	0.86390
938.58807	0.86489
936.53426	0.86605
934.48046	0.86724
932.42666	0.86810
930.37285	0.86887
928.31905	0.86949
926.26525	0.86973
924.21144	0.86982
922.15764	0.86953
920.10384	0.86847
918.05003	0.86714
915.99623	0.86568
913.94243	0.86413
911.88862	0.86344
909.83482	0.86457
907.78102	0.86807
905.72722	0.87305
903.67341	0.87783
901.61961	0.88224
899.56581	0.88655
897.51200	0.89028
895.45820	0.89324
893.40440	0.89565
891.35059	0.89749
889.29679	0.89842
887.24299	0.89872
885.18918	0.89924
883.13538	0.89979
881.08158	0.89975
879.02777	0.89937
876.97397	0.89921
874.92017	0.89931
872.86636	0.89965
870.81256	0.90052
868.75876	0.90161
866.70495	0.90237
864.65115	0.90297
862.59735	0.90378
860.54354	0.90477
858.48974	0.90570
856.43594	0.90641
854.38213	0.90658
852.32833	0.90589
850.27453	0.90531
848.22073	0.90540
846.16692	0.90516
844.11312	0.90427
842.05932	0.90324
840.00551	0.90216
837.95171	0.90093
835.89791	0.89980
833.84410	0.89877
831.79030	0.89747
829.73650	0.89579
827.68269	0.89398
825.62889	0.89266
823.57509	0.89149
821.52128	0.88974
819.46748	0.88801
817.41368	0.88652
815.35987	0.88489
813.30607	0.88298
811.25227	0.88065
809.19846	0.87738
807.14466	0.87293
805.09086	0.86877
803.03705	0.86564
800.98325	0.86285
798.92945	0.86070
796.87565	0.85968
794.82184	0.85963
792.76804	0.86004
790.71424	0.86020
788.66043	0.85972
786.60663	0.85876
784.55283	0.85755
782.49902	0.85639
780.44522	0.85557
778.39142	0.85499
776.33761	0.85428
774.28381	0.85298
772.23001	0.85167
770.17620	0.85132
768.12240	0.85126
766.06860	0.85021
764.01479	0.84817
761.96099	0.84573
759.90719	0.84347
757.85338	0.84250
755.79958	0.84258
753.74578	0.84249
751.69197	0.84174
749.63817	0.83997
747.58437	0.83777
745.53056	0.83642
743.47676	0.83606
741.42296	0.83572
739.36916	0.83407
737.31535	0.82938
735.26155	0.81606
733.20775	0.78708
731.15394	0.75459
729.10014	0.74485
727.04634	0.75486
724.99253	0.75690
722.93873	0.73423
720.88493	0.68853
718.83112	0.64548
716.77732	0.63665
714.72352	0.66572
712.66971	0.71063
710.61591	0.74699
708.56211	0.76797
706.50830	0.77877
704.45450	0.78404
702.40070	0.78623
700.34689	0.78694
698.29309	0.78744
696.23929	0.78818
694.18548	0.78897
692.13168	0.78971
690.07788	0.79083
688.02408	0.79237
685.97027	0.79370
683.91647	0.79449
681.86267	0.79445
679.80886	0.79339
677.75506	0.79124
675.70126	0.78835
673.64745	0.78694
671.59365	0.78803
669.53985	0.78925
667.48604	0.79009
665.43224	0.79264
663.37844	0.79554
661.32463	0.79768
659.27083	0.79871
657.21703	0.79869
655.16322	0.79829
653.10942	0.79777
651.05562	0.79716
649.00181	0.79691
646.94801	0.79676
644.89421	0.79675
642.84040	0.79750
640.78660	0.79816
638.73280	0.79763
636.67899	0.79706
634.62519	0.79682
632.57139	0.79606
630.51759	0.79512
628.46378	0.79458
626.40998	0.79425
624.35618	0.79323
622.30237	0.79197
620.24857	0.79142
618.19477	0.79085
616.14096	0.78981
614.08716	0.78843
612.03336	0.78628
609.97955	0.78344
607.92575	0.78110
605.87195	0.77981
603.81814	0.77871
601.76434	0.77675
599.71054	0.77492
597.65673	0.77456
595.60293	0.77465
593.54913	0.77443
591.49532	0.77389
589.44152	0.77283
587.38772	0.77217
585.33391	0.77254
583.28011	0.77243
581.22631	0.77048
579.17250	0.76857
577.11870	0.76926
575.06490	0.77041
573.01110	0.77096
570.95729	0.77340
568.90349	0.77553
566.84969	0.77439
564.79588	0.77238
562.74208	0.77121
560.68828	0.76910
558.63447	0.76614
556.58067	0.76467
554.52687	0.76482
552.47306	0.76456
550.41926	0.76197
548.36546	0.75766
546.31165	0.75336
544.25785	0.74923
542.20405	0.74549
540.15024	0.74306
538.09644	0.74130
536.04264	0.73914
533.98883	0.73812
531.93503	0.73900
529.88123	0.74033
527.82742	0.74203
525.77362	0.74489
523.71982	0.74906
521.66602	0.75319
519.61221	0.75517
517.55841	0.75615
515.50461	0.75860
513.45080	0.76167
511.39700	0.76451
509.34320	0.76639
507.28939	0.76662
505.23559	0.76642
503.18179	0.76673
501.12798	0.76735
499.07418	0.76809
497.02038	0.76945
494.96657	0.76996
492.91277	0.76823
490.85897	0.76676
488.80516	0.76515
486.75136	0.76082
484.69756	0.75462
482.64375	0.74802
480.58995	0.74036
478.53615	0.73143
476.48234	0.72439
474.42854	0.71879
472.37474	0.70882
470.32093	0.69799
468.26713	0.69296
466.21333	0.69182
464.15953	0.69421
462.10572	0.70108
460.05192	0.70886
457.99812	0.71423
455.94431	0.71804
453.89051	0.72165
451.83671	0.72617
449.78290	0.73096
447.72910	0.73311
445.67530	0.73457
443.62149	0.73821
441.56769	0.74188
439.51389	0.74413
437.46008	0.74443
435.40628	0.74161
433.35248	0.73826
431.29867	0.73727
429.24487	0.73739
427.19107	0.74048
425.13726	0.74803
423.08346	0.75223
421.02966	0.75157
418.97585	0.75604
416.92205	0.76596
414.86825	0.77360
412.81445	0.77742
410.76064	0.77630
408.70684	0.77610
406.65304	0.78226
404.59923	0.79033
402.54543	0.79460
400.49163	0.79671
398.43782	0.80265
