3996.71440	0.00836
3994.66059	0.00844
3992.60678	0.00848
3990.55297	0.00848
3988.49916	0.00841
3986.44535	0.00825
3984.39154	0.00809
3982.33773	0.00812
3980.28391	0.00817
3978.23010	0.00803
3976.17629	0.00791
3974.12248	0.00798
3972.06867	0.00806
3970.01486	0.00805
3967.96105	0.00810
3965.90724	0.00824
3963.85343	0.00830
3961.79962	0.00834
3959.74581	0.00847
3957.69200	0.00849
3955.63819	0.00839
3953.58438	0.00830
3951.53057	0.00819
3949.47676	0.00815
3947.42295	0.00823
3945.36914	0.00832
3943.31533	0.00833
3941.26152	0.00831
3939.20771	0.00834
3937.15390	0.00839
3935.10009	0.00834
3933.04628	0.00825
3930.99247	0.00829
3928.93866	0.00832
3926.88485	0.00821
3924.83104	0.00816
3922.77723	0.00824
3920.72342	0.00829
3918.66961	0.00824
3916.61580	0.00820
3914.56199	0.00829
3912.50818	0.00836
3910.45437	0.00838
3908.40056	0.00850
3906.34675	0.00856
3904.29294	0.00832
3902.23913	0.00806
3900.18532	0.00809
3898.13151	0.00822
3896.07770	0.00831
3894.02389	0.00840
3891.97008	0.00851
3889.91627	0.00855
3887.86246	0.00842
3885.80865	0.00822
3883.75484	0.00813
3881.70103	0.00827
3879.64722	0.00851
3877.59341	0.00860
3875.53960	0.00854
3873.48579	0.00840
3871.43198	0.00825
3869.37817	0.00822
3867.32436	0.00823
3865.27055	0.00826
3863.21674	0.00824
3861.16293	0.00811
3859.10912	0.00800
3857.05531	0.00794
3855.00150	0.00789
3852.94769	0.00795
3850.89388	0.00803
3848.84007	0.00801
3846.78626	0.00794
3844.73245	0.00789
3842.67864	0.00795
3840.62483	0.00804
3838.57102	0.00805
3836.51721	0.00807
3834.46340	0.00813
3832.40959	0.00825
3830.35578	0.00831
3828.30197	0.00822
3826.24816	0.00812
3824.19435	0.00806
3822.14054	0.00800
3820.08673	0.00796
3818.03292	0.00795
3815.97911	0.00793
3813.92530	0.00792
3811.87149	0.00797
3809.81768	0.00802
3807.76387	0.00805
3805.71006	0.00815
3803.65625	0.00829
3801.60244	0.00826
3799.54863	0.00809
3797.49482	0.00804
3795.44101	0.00809
3793.38720	0.00809
3791.33339	0.00801
3789.27958	0.00790
3787.22577	0.00785
3785.17196	0.00791
3783.11815	0.00804
3781.06434	0.00813
3779.01053	0.00812
3776.95672	0.00805
3774.90291	0.00800
3772.84910	0.00790
3770.79529	0.00781
3768.74148	0.00800
3766.68767	0.00821
3764.63386	0.00818
3762.58005	0.00809
3760.52624	0.00797
3758.47243	0.00769
3756.41862	0.00753
3754.36481	0.00762
3752.31100	0.00783
3750.25719	0.00800
3748.20338	0.00801
3746.14957	0.00795
3744.09576	0.00784
3742.04195	0.00765
3739.98814	0.00768
3737.93433	0.00799
3735.88052	0.00815
3733.82671	0.00791
3731.77290	0.00781
3729.71909	0.00787
3727.66528	0.00771
3725.61147	0.00755
3723.55766	0.00774
3721.50385	0.00787
3719.45004	0.00783
3717.39623	0.00786
3715.34242	0.00784
3713.28861	0.00772
3711.23480	0.00775
3709.18099	0.00788
3707.12718	0.00782
3705.07337	0.00780
3703.01956	0.00798
3700.96575	0.00812
3698.91194	0.00804
3696.85813	0.00788
3694.80432	0.00780
3692.75051	0.00770
3690.69670	0.00763
3688.64289	0.00788
3686.58907	0.00813
3684.53526	0.00806
3682.48145	0.00785
3680.42764	0.00774
3678.37383	0.00783
3676.32002	0.00793
3674.26621	0.00780
3672.21240	0.00774
3670.15859	0.00793
3668.10478	0.00800
3666.05097	0.00788
3663.99716	0.00785
3661.94335	0.00788
3659.88954	0.00796
3657.83573	0.00812
3655.78192	0.00822
3653.72811	0.00816
3651.67430	0.00798
3649.62049	0.00781
3647.56668	0.00789
3645.51287	0.00806
3643.45906	0.00823
3641.40525	0.00834
3639.35144	0.00828
3637.29763	0.00817
3635.24382	0.00817
3633.19001	0.00826
3631.13620	0.00842
3629.08239	0.00849
3627.02858	0.00838
3624.97477	0.00829
3622.92096	0.00822
3620.86715	0.00824
3618.81334	0.00834
3616.75953	0.00827
3614.70572	0.00811
3612.65191	0.00803
3610.59810	0.00806
3608.54429	0.00814
3606.49048	0.00834
3604.43667	0.00850
3602.38286	0.00854
3600.32905	0.00853
3598.27524	0.00845
3596.22143	0.00845
3594.16762	0.00857
3592.11381	0.00853
3590.06000	0.00839
3588.00619	0.00837
3585.95238	0.00845
3583.89857	0.00858
3581.84476	0.00870
3579.79095	0.00876
3577.73714	0.00877
3575.68333	0.00874
3573.62952	0.00863
3571.57571	0.00856
3569.52190	0.00867
3567.46809	0.00892
3565.41428	0.00907
3563.36047	0.00908
3561.30666	0.00906
3559.25285	0.00903
3557.19904	0.00891
3555.14523	0.00883
3553.09142	0.00890
3551.03761	0.00902
3548.98380	0.00912
3546.92999	0.00922
3544.87618	0.00928
3542.82237	0.00931
3540.76856	0.00940
3538.71475	0.00951
3536.66094	0.00950
3534.60713	0.00943
3532.55332	0.00941
3530.49951	0.00946
3528.44570	0.00954
3526.39189	0.00954
3524.33808	0.00950
3522.28427	0.00949
3520.23046	0.00943
3518.17665	0.00935
3516.12284	0.00934
3514.06903	0.00945
3512.01522	0.00966
3509.96141	0.00983
3507.90760	0.00978
3505.85379	0.00964
3503.79998	0.00960
3501.74617	0.00963
3499.69236	0.00967
3497.63855	0.00969
3495.58474	0.00969
3493.53093	0.00963
3491.47712	0.00961
3489.42331	0.00973
3487.36950	0.00987
3485.31569	0.00984
3483.26188	0.00987
3481.20807	0.01003
3479.15426	0.01010
3477.10045	0.01010
3475.04664	0.01018
3472.99283	0.01028
3470.93902	0.01022
3468.88521	0.01011
3466.83140	0.01008
3464.77759	0.01016
3462.72378	0.01028
3460.66997	0.01039
3458.61616	0.01049
3456.56235	0.01056
3454.50854	0.01054
3452.45473	0.01049
3450.40092	0.01059
3448.34711	0.01076
3446.29330	0.01082
3444.23949	0.01080
3442.18568	0.01067
3440.13187	0.01056
3438.07806	0.01064
3436.02425	0.01072
3433.97044	0.01067
3431.91663	0.01064
3429.86282	0.01075
3427.80901	0.01089
3425.75520	0.01095
3423.70139	0.01091
3421.64758	0.01085
3419.59377	0.01080
3417.53996	0.01073
3415.48615	0.01069
3413.43234	0.01088
3411.37853	0.01128
3409.32472	0.01147
3407.27091	0.01134
3405.21710	0.01120
3403.16329	0.01116
3401.10948	0.01108
3399.05567	0.01103
3397.00186	0.01106
3394.94805	0.01116
3392.89424	0.01124
3390.84042	0.01117
3388.78661	0.01112
3386.73280	0.01117
3384.67899	0.01126
3382.62518	0.01139
3380.57137	0.01151
3378.51756	0.01152
3376.46375	0.01143
3374.40994	0.01135
3372.35613	0.01136
3370.30232	0.01145
3368.24851	0.01156
3366.19470	0.01160
3364.14089	0.01156
3362.08708	0.01154
3360.03327	0.01154
3357.97946	0.01149
3355.92565	0.01150
3353.87184	0.01163
3351.81803	0.01174
3349.76422	0.01181
3347.71041	0.01188
3345.65660	0.01175
3343.60279	0.01155
3341.54898	0.01162
3339.49517	0.01179
3337.44136	0.01185
3335.38755	0.01185
3333.33374	0.01184
3331.27993	0.01190
3329.22612	0.01192
3327.17231	0.01178
3325.11850	0.01169
3323.06469	0.01176
3321.01088	0.01188
3318.95707	0.01198
3316.90326	0.01198
3314.84945	0.01195
3312.79564	0.01205
3310.74183	0.01214
3308.68802	0.01208
3306.63421	0.01208
3304.58040	0.01218
3302.52659	0.01218
3300.47278	0.01207
3298.41897	0.01207
3296.36516	0.01219
3294.31135	0.01213
3292.25754	0.01196
3290.20373	0.01195
3288.14992	0.01209
3286.09611	0.01218
3284.04230	0.01213
3281.98849	0.01202
3279.93468	0.01201
3277.88087	0.01201
3275.82706	0.01188
3273.77325	0.01179
3271.71944	0.01184
3269.66563	0.01188
3267.61182	0.01190
3265.55801	0.01203
3263.50420	0.01216
3261.45039	0.01210
3259.39658	0.01197
3257.34277	0.01183
3255.28896	0.01168
3253.23515	0.01165
3251.18134	0.01173
3249.12753	0.01177
3247.07372	0.01176
3245.01991	0.01176
3242.96610	0.01164
3240.91229	0.01152
3238.85848	0.01160
3236.80467	0.01171
3234.75086	0.01169
3232.69705	0.01170
3230.64324	0.01171
3228.58943	0.01164
3226.53562	0.01155
3224.48181	0.01151
3222.42800	0.01158
3220.37419	0.01174
3218.32038	0.01195
3216.26657	0.01212
3214.21276	0.01205
3212.15895	0.01181
3210.10514	0.01166
3208.05133	0.01162
3205.99752	0.01154
3203.94371	0.01155
3201.88990	0.01156
3199.83609	0.01141
3197.78228	0.01131
3195.72847	0.01129
3193.67466	0.01127
3191.62085	0.01135
3189.56704	0.01151
3187.51323	0.01152
3185.45942	0.01137
3183.40561	0.01129
3181.35180	0.01128
3179.29799	0.01125
3177.24418	0.01129
3175.19037	0.01128
3173.13656	0.01116
3171.08275	0.01115
3169.02894	0.01123
3166.97513	0.01124
3164.92132	0.01118
3162.86751	0.01109
3160.81370	0.01099
3158.75989	0.01093
3156.70608	0.01092
3154.65227	0.01093
3152.59846	0.01099
3150.54465	0.01096
3148.49084	0.01075
3146.43703	0.01058
3144.38322	0.01059
3142.32941	0.01068
3140.27560	0.01083
3138.22179	0.01094
3136.16798	0.01096
3134.11417	0.01095
3132.06036	0.01091
3130.00655	0.01084
3127.95274	0.01076
3125.89893	0.01064
3123.84512	0.01057
3121.79131	0.01060
3119.73750	0.01057
3117.68369	0.01049
3115.62988	0.01046
3113.57607	0.01046
3111.52226	0.01040
3109.46845	0.01029
3107.41464	0.01018
3105.36083	0.01012
3103.30702	0.01017
3101.25321	0.01024
3099.19940	0.01027
3097.14559	0.01022
3095.09177	0.01023
3093.03796	0.01039
3090.98415	0.01050
3088.93034	0.01048
3086.87653	0.01045
3084.82272	0.01039
3082.76891	0.01030
3080.71510	0.01037
3078.66129	0.01051
3076.60748	0.01050
3074.55367	0.01041
3072.49986	0.01043
3070.44605	0.01049
3068.39224	0.01043
3066.33843	0.01029
3064.28462	0.01021
3062.23081	0.01021
3060.17700	0.01024
3058.12319	0.01031
3056.06938	0.01034
3054.01557	0.01025
3051.96176	0.01018
3049.90795	0.01022
3047.85414	0.01032
3045.80033	0.01037
3043.74652	0.01028
3041.69271	0.01017
3039.63890	0.01016
3037.58509	0.01022
3035.53128	0.01022
3033.47747	0.01005
3031.42366	0.00987
3029.36985	0.00991
3027.31604	0.01016
3025.26223	0.01027
3023.20842	0.01011
3021.15461	0.01004
3019.10080	0.01028
3017.04699	0.01048
3014.99318	0.01050
3012.93937	0.01055
3010.88556	0.01061
3008.83175	0.01070
3006.77794	0.01088
3004.72413	0.01103
3002.67032	0.01114
3000.61651	0.01129
2998.56270	0.01147
2996.50889	0.01173
2994.45508	0.01211
2992.40127	0.01255
2990.34746	0.01307
2988.29365	0.01369
2986.23984	0.01446
2984.18603	0.01550
2982.13222	0.01686
2980.07841	0.01850
2978.02460	0.02053
2975.97079	0.02315
2973.91698	0.02668
2971.86317	0.03142
2969.80936	0.03763
2967.75555	0.04541
2965.70174	0.05453
2963.64793	0.06430
2961.59412	0.07312
2959.54031	0.07925
2957.48650	0.08311
2955.43269	0.08697
2953.37888	0.09227
2951.32507	0.09759
2949.27126	0.09901
2947.21745	0.09374
2945.16364	0.08330
2943.10983	0.07217
2941.05602	0.06415
2939.00221	0.06072
2936.94840	0.06175
2934.89459	0.06652
2932.84078	0.07435
2930.78697	0.08469
2928.73316	0.09681
2926.67935	0.11013
2924.62554	0.12450
2922.57173	0.14013
2920.51792	0.15643
2918.46411	0.17046
2916.41030	0.17714
2914.35649	0.17341
2912.30268	0.16181
2910.24887	0.14801
2908.19506	0.13569
2906.14125	0.12525
2904.08744	0.11581
2902.03363	0.10685
2899.97982	0.09842
2897.92601	0.09077
2895.87220	0.08422
2893.81839	0.07913
2891.76458	0.07557
2889.71077	0.07342
2887.65696	0.07245
2885.60315	0.07236
2883.54934	0.07299
2881.49553	0.07441
2879.44172	0.07632
2877.38791	0.07762
2875.33410	0.07735
2873.28029	0.07622
2871.22648	0.07591
2869.17267	0.07679
2867.11886	0.07726
2865.06505	0.07494
2863.01124	0.06917
2860.95743	0.06247
2858.90362	0.05855
2856.84981	0.05992
2854.79600	0.06743
2852.74219	0.07973
2850.68838	0.09074
2848.63457	0.09266
2846.58076	0.08604
2844.52695	0.07940
2842.47314	0.07814
2840.41933	0.08086
2838.36552	0.08303
2836.31171	0.08071
2834.25790	0.07274
2832.20409	0.06153
2830.15028	0.05090
2828.09647	0.04292
2826.04266	0.03737
2823.98885	0.03348
2821.93504	0.03071
2819.88123	0.02865
2817.82742	0.02710
2815.77361	0.02603
2813.71980	0.02522
2811.66599	0.02444
2809.61218	0.02367
2807.55837	0.02295
2805.50456	0.02213
2803.45075	0.02115
2801.39693	0.02027
2799.34312	0.01965
2797.28931	0.01920
2795.23550	0.01886
2793.18169	0.01854
2791.12788	0.01810
2789.07407	0.01756
2787.02026	0.01712
2784.96645	0.01679
2782.91264	0.01648
2780.85883	0.01617
2778.80502	0.01593
2776.75121	0.01572
2774.69740	0.01548
2772.64359	0.01529
2770.58978	0.01520
2768.53597	0.01509
2766.48216	0.01492
2764.42835	0.01473
2762.37454	0.01450
2760.32073	0.01428
2758.26692	0.01418
2756.21311	0.01418
2754.15930	0.01419
2752.10549	0.01416
2750.05168	0.01403
2747.99787	0.01386
2745.94406	0.01380
2743.89025	0.01386
2741.83644	0.01399
2739.78263	0.01411
2737.72882	0.01424
2735.67501	0.01446
2733.62120	0.01467
2731.56739	0.01481
2729.51358	0.01501
2727.45977	0.01526
2725.40596	0.01549
2723.35215	0.01567
2721.29834	0.01558
2719.24453	0.01526
2717.19072	0.01491
2715.13691	0.01458
2713.08310	0.01428
2711.02929	0.01401
2708.97548	0.01376
2706.92167	0.01362
2704.86786	0.01365
2702.81405	0.01359
2700.76024	0.01335
2698.70643	0.01316
2696.65262	0.01312
2694.59881	0.01309
2692.54500	0.01300
2690.49119	0.01299
2688.43738	0.01312
2686.38357	0.01320
2684.32976	0.01310
2682.27595	0.01291
2680.22214	0.01282
2678.16833	0.01293
2676.11452	0.01306
2674.06071	0.01305
2672.00690	0.01299
2669.95309	0.01296
2667.89928	0.01293
2665.84547	0.01294
2663.79166	0.01304
2661.73785	0.01318
2659.68404	0.01328
2657.63023	0.01323
2655.57642	0.01306
2653.52261	0.01294
2651.46880	0.01285
2649.41499	0.01274
2647.36118	0.01268
2645.30737	0.01270
2643.25356	0.01267
2641.19975	0.01262
2639.14594	0.01259
2637.09213	0.01256
2635.03832	0.01253
2632.98451	0.01250
2630.93070	0.01251
2628.87689	0.01256
2626.82308	0.01252
2624.76927	0.01241
2622.71546	0.01233
2620.66165	0.01233
2618.60784	0.01241
2616.55403	0.01233
2614.50022	0.01210
2612.44641	0.01196
2610.39260	0.01199
2608.33879	0.01211
2606.28498	0.01214
2604.23117	0.01214
2602.17736	0.01205
2600.12355	0.01169
2598.06974	0.01141
2596.01593	0.01150
2593.96212	0.01166
2591.90831	0.01162
2589.85450	0.01149
2587.80069	0.01151
2585.74688	0.01176
2583.69307	0.01206
2581.63926	0.01218
2579.58545	0.01201
2577.53164	0.01174
2575.47783	0.01158
2573.42402	0.01138
2571.37021	0.01114
2569.31640	0.01105
2567.26259	0.01109
2565.20878	0.01120
2563.15497	0.01122
2561.10116	0.01116
2559.04735	0.01106
2556.99354	0.01088
2554.93973	0.01071
2552.88592	0.01065
2550.83211	0.01063
2548.77830	0.01067
2546.72449	0.01077
2544.67068	0.01080
2542.61687	0.01067
2540.56306	0.01051
2538.50925	0.01047
2536.45544	0.01046
2534.40163	0.01045
2532.34782	0.01050
2530.29401	0.01053
2528.24020	0.01047
2526.18639	0.01025
2524.13258	0.01007
2522.07877	0.01016
2520.02496	0.01023
2517.97115	0.01012
2515.91734	0.01000
2513.86353	0.00999
2511.80972	0.01013
2509.75591	0.01028
2507.70210	0.01027
2505.64828	0.01019
2503.59447	0.01010
2501.54066	0.00997
2499.48685	0.00986
2497.43304	0.00979
2495.37923	0.00979
2493.32542	0.00983
2491.27161	0.00984
2489.21780	0.00980
2487.16399	0.00983
2485.11018	0.00991
2483.05637	0.00987
2481.00256	0.00985
2478.94875	0.00998
2476.89494	0.01001
2474.84113	0.00996
2472.78732	0.01004
2470.73351	0.01011
2468.67970	0.01000
2466.62589	0.00988
2464.57208	0.00979
2462.51827	0.00971
2460.46446	0.00976
2458.41065	0.00991
2456.35684	0.01002
2454.30303	0.01009
2452.24922	0.01002
2450.19541	0.00992
2448.14160	0.00997
2446.08779	0.01003
2444.03398	0.00991
2441.98017	0.00984
2439.92636	0.00993
2437.87255	0.00993
2435.81874	0.00982
2433.76493	0.00980
2431.71112	0.00986
2429.65731	0.00980
2427.60350	0.00977
2425.54969	0.00998
2423.49588	0.01010
2421.44207	0.00993
2419.38826	0.00981
2417.33445	0.00989
2415.28064	0.00992
2413.22683	0.00986
2411.17302	0.00987
2409.11921	0.00992
2407.06540	0.01000
2405.01159	0.01000
2402.95778	0.00984
2400.90397	0.00972
2398.85016	0.00968
2396.79635	0.00971
2394.74254	0.00974
2392.68873	0.00969
2390.63492	0.00963
2388.58111	0.00958
2386.52730	0.00953
2384.47349	0.00949
2382.41968	0.00943
2380.36587	0.00947
2378.31206	0.00968
2376.25825	0.00982
2374.20444	0.00971
2372.15063	0.00952
2370.09682	0.00951
2368.04301	0.00961
2365.98920	0.00948
2363.93539	0.00929
2361.88158	0.00951
2359.82777	0.00992
2357.77396	0.01004
2355.72015	0.00996
2353.66634	0.01001
2351.61253	0.01019
2349.55872	0.01024
2347.50491	0.01013
2345.45110	0.01000
2343.39729	0.00976
2341.34348	0.00950
2339.28967	0.00957
2337.23586	0.00980
2335.18205	0.00990
2333.12824	0.00993
2331.07443	0.01000
2329.02062	0.01005
2326.96681	0.01030
2324.91300	0.01064
2322.85919	0.01062
2320.80538	0.01046
2318.75157	0.01040
2316.69776	0.01031
2314.64395	0.01022
2312.59014	0.01019
2310.53633	0.01026
2308.48252	0.01024
2306.42871	0.01008
2304.37490	0.00997
2302.32109	0.00992
2300.26728	0.00982
2298.21347	0.00968
2296.15966	0.00973
2294.10585	0.01004
2292.05204	0.01030
2289.99823	0.01030
2287.94442	0.01013
2285.89061	0.00992
2283.83680	0.00975
2281.78299	0.00970
2279.72918	0.00961
2277.67537	0.00944
2275.62156	0.00937
2273.56775	0.00936
2271.51394	0.00922
2269.46013	0.00908
2267.40632	0.00920
2265.35251	0.00948
2263.29870	0.00954
2261.24489	0.00933
2259.19108	0.00914
2257.13727	0.00915
2255.08346	0.00920
2253.02965	0.00918
2250.97584	0.00932
2248.92203	0.00957
2246.86822	0.00966
2244.81441	0.00953
2242.76060	0.00954
2240.70679	0.00967
2238.65298	0.00928
2236.59917	0.00867
2234.54536	0.00854
2232.49155	0.00895
2230.43774	0.00952
2228.38393	0.00961
2226.33012	0.00919
2224.27631	0.00889
2222.22250	0.00902
2220.16869	0.00929
2218.11488	0.00932
2216.06107	0.00928
2214.00726	0.00942
2211.95344	0.00932
2209.89963	0.00880
2207.84582	0.00832
2205.79201	0.00846
2203.73820	0.00903
2201.68439	0.00882
2199.63058	0.00812
2197.57677	0.00847
2195.52296	0.00931
2193.46915	0.00949
2191.41534	0.00944
2189.36153	0.00955
2187.30772	0.00967
2185.25391	0.00946
2183.20010	0.00904
2181.14629	0.00895
2179.09248	0.00921
2177.03867	0.00951
2174.98486	0.00955
2172.93105	0.00913
2170.87724	0.00848
2168.82343	0.00853
2166.76962	0.00932
2164.71581	0.00984
2162.66200	0.00980
2160.60819	0.00935
2158.55438	0.00845
2156.50057	0.00789
2154.44676	0.00832
2152.39295	0.00875
2150.33914	0.00849
2148.28533	0.00831
2146.23152	0.00845
2144.17771	0.00850
2142.12390	0.00861
2140.07009	0.00862
2138.01628	0.00840
2135.96247	0.00817
2133.90866	0.00796
2131.85485	0.00790
2129.80104	0.00818
2127.74723	0.00845
2125.69342	0.00834
2123.63961	0.00808
2121.58580	0.00811
2119.53199	0.00826
2117.47818	0.00818
2115.42437	0.00815
2113.37056	0.00830
2111.31675	0.00845
2109.26294	0.00862
2107.20913	0.00872
2105.15532	0.00896
2103.10151	0.00927
2101.04770	0.00904
2098.99389	0.00857
2096.94008	0.00848
2094.88627	0.00853
2092.83246	0.00844
2090.77865	0.00844
2088.72484	0.00866
2086.67103	0.00900
2084.61722	0.00917
2082.56341	0.00903
2080.50960	0.00900
2078.45579	0.00914
2076.40198	0.00901
2074.34817	0.00892
2072.29436	0.00916
2070.24055	0.00928
2068.18674	0.00910
2066.13293	0.00895
2064.07912	0.00894
2062.02531	0.00897
2059.97150	0.00920
2057.91769	0.00973
2055.86388	0.00991
2053.81007	0.00940
2051.75626	0.00921
2049.70245	0.00982
2047.64864	0.01031
2045.59483	0.01005
2043.54102	0.00941
2041.48721	0.00875
2039.43340	0.00829
2037.37959	0.00820
2035.32578	0.00840
2033.27197	0.00853
2031.21816	0.00850
2029.16435	0.00871
2027.11054	0.00920
2025.05673	0.00954
2023.00292	0.00939
2020.94911	0.00904
2018.89530	0.00880
2016.84149	0.00811
2014.78768	0.00729
2012.73387	0.00742
2010.68006	0.00837
2008.62625	0.00870
2006.57244	0.00786
2004.51863	0.00713
2002.46482	0.00724
2000.41101	0.00758
1998.35720	0.00778
1996.30339	0.00810
1994.24958	0.00845
1992.19577	0.00863
1990.14196	0.00883
1988.08815	0.00884
1986.03434	0.00870
1983.98053	0.00894
1981.92672	0.00921
1979.87291	0.00906
1977.81910	0.00880
1975.76529	0.00893
1973.71148	0.00910
1971.65767	0.00899
1969.60386	0.00905
1967.55005	0.00887
1965.49624	0.00823
1963.44243	0.00800
1961.38862	0.00793
1959.33481	0.00772
1957.28100	0.00796
1955.22719	0.00837
1953.17338	0.00827
1951.11957	0.00809
1949.06576	0.00820
1947.01195	0.00819
1944.95814	0.00793
1942.90433	0.00769
1940.85052	0.00774
1938.79671	0.00798
1936.74290	0.00823
1934.68909	0.00835
1932.63528	0.00849
1930.58147	0.00887
1928.52766	0.00900
1926.47385	0.00877
1924.42004	0.00874
1922.36623	0.00883
1920.31242	0.00883
1918.25861	0.00887
1916.20479	0.00892
1914.15098	0.00886
1912.09717	0.00862
1910.04336	0.00838
1907.98955	0.00848
1905.93574	0.00875
1903.88193	0.00883
1901.82812	0.00879
1899.77431	0.00888
1897.72050	0.00889
1895.66669	0.00868
1893.61288	0.00876
1891.55907	0.00907
1889.50526	0.00912
1887.45145	0.00904
1885.39764	0.00901
1883.34383	0.00902
1881.29002	0.00908
1879.23621	0.00903
1877.18240	0.00890
1875.12859	0.00877
1873.07478	0.00857
1871.02097	0.00844
1868.96716	0.00872
1866.91335	0.00917
1864.85954	0.00927
1862.80573	0.00916
1860.75192	0.00911
1858.69811	0.00906
1856.64430	0.00896
1854.59049	0.00886
1852.53668	0.00884
1850.48287	0.00887
1848.42906	0.00891
1846.37525	0.00899
1844.32144	0.00904
1842.26763	0.00905
1840.21382	0.00909
1838.16001	0.00907
1836.10620	0.00900
1834.05239	0.00903
1831.99858	0.00915
1829.94477	0.00928
1827.89096	0.00935
1825.83715	0.00932
1823.78334	0.00926
1821.72953	0.00919
1819.67572	0.00912
1817.62191	0.00911
1815.56810	0.00917
1813.51429	0.00922
1811.46048	0.00925
1809.40667	0.00924
1807.35286	0.00916
1805.29905	0.00913
1803.24524	0.00920
1801.19143	0.00924
1799.13762	0.00918
1797.08381	0.00917
1795.03000	0.00929
1792.97619	0.00944
1790.92238	0.00952
1788.86857	0.00956
1786.81476	0.00960
1784.76095	0.00968
1782.70714	0.00974
1780.65333	0.00975
1778.59952	0.00971
1776.54571	0.00968
1774.49190	0.00967
1772.43809	0.00966
1770.38428	0.00973
1768.33047	0.00989
1766.27666	0.01007
1764.22285	0.01017
1762.16904	0.01029
1760.11523	0.01050
1758.06142	0.01069
1756.00761	0.01095
1753.95380	0.01124
1751.89999	0.01154
1749.84618	0.01190
1747.79237	0.01231
1745.73856	0.01278
1743.68475	0.01338
1741.63094	0.01394
1739.57713	0.01424
1737.52332	0.01430
1735.46951	0.01443
1733.41570	0.01498
1731.36189	0.01583
1729.30808	0.01672
1727.25427	0.01744
1725.20046	0.01786
1723.14665	0.01796
1721.09284	0.01778
1719.03903	0.01741
1716.98522	0.01681
1714.93141	0.01621
1712.87760	0.01576
1710.82379	0.01541
1708.76998	0.01510
1706.71617	0.01482
1704.66236	0.01457
1702.60855	0.01436
1700.55474	0.01419
1698.50093	0.01416
1696.44712	0.01429
1694.39331	0.01441
1692.33950	0.01439
1690.28569	0.01439
1688.23188	0.01449
1686.17807	0.01455
1684.12426	0.01458
1682.07045	0.01483
1680.01664	0.01516
1677.96283	0.01544
1675.90902	0.01569
1673.85521	0.01593
1671.80140	0.01618
1669.74759	0.01640
1667.69378	0.01652
1665.63997	0.01666
1663.58616	0.01696
1661.53235	0.01731
1659.47854	0.01759
1657.42473	0.01782
1655.37092	0.01801
1653.31711	0.01827
1651.26330	0.01835
1649.20949	0.01820
1647.15568	0.01810
1645.10187	0.01808
1643.04806	0.01796
1640.99425	0.01779
1638.94044	0.01770
1636.88663	0.01773
1634.83282	0.01775
1632.77901	0.01763
1630.72520	0.01753
1628.67139	0.01750
1626.61758	0.01746
1624.56377	0.01737
1622.50996	0.01725
1620.45614	0.01716
1618.40233	0.01703
1616.34852	0.01683
1614.29471	0.01671
1612.24090	0.01663
1610.18709	0.01649
1608.13328	0.01631
1606.07947	0.01613
1604.02566	0.01599
1601.97185	0.01591
1599.91804	0.01585
1597.86423	0.01578
1595.81042	0.01565
1593.75661	0.01549
1591.70280	0.01539
1589.64899	0.01537
1587.59518	0.01535
1585.54137	0.01533
1583.48756	0.01537
1581.43375	0.01540
1579.37994	0.01538
1577.32613	0.01539
1575.27232	0.01539
1573.21851	0.01527
1571.16470	0.01512
1569.11089	0.01500
1567.05708	0.01500
1565.00327	0.01507
1562.94946	0.01515
1560.89565	0.01522
1558.84184	0.01525
1556.78803	0.01523
1554.73422	0.01537
1552.68041	0.01558
1550.62660	0.01571
1548.57279	0.01574
1546.51898	0.01577
1544.46517	0.01588
1542.41136	0.01611
1540.35755	0.01626
1538.30374	0.01604
1536.24993	0.01580
1534.19612	0.01567
1532.14231	0.01559
1530.08850	0.01551
1528.03469	0.01549
1525.98088	0.01547
1523.92707	0.01542
1521.87326	0.01529
1519.81945	0.01507
1517.76564	0.01498
1515.71183	0.01498
1513.65802	0.01492
1511.60421	0.01484
1509.55040	0.01479
1507.49659	0.01466
1505.44278	0.01451
1503.38897	0.01442
1501.33516	0.01438
1499.28135	0.01439
1497.22754	0.01442
1495.17373	0.01451
1493.11992	0.01461
1491.06611	0.01473
1489.01230	0.01500
1486.95849	0.01547
1484.90468	0.01602
1482.85087	0.01668
1480.79706	0.01778
1478.74325	0.01991
1476.68944	0.02458
1474.63563	0.03259
1472.58182	0.04083
1470.52801	0.04556
1468.47420	0.04954
1466.42039	0.05646
1464.36658	0.06662
1462.31277	0.07421
1460.25896	0.07659
1458.20515	0.07663
1456.15134	0.07649
1454.09753	0.07601
1452.04372	0.07456
1449.98991	0.07085
1447.93610	0.06313
1445.88229	0.05317
1443.82848	0.04488
1441.77467	0.03943
1439.72086	0.03682
1437.66705	0.03627
1435.61324	0.03561
1433.55943	0.03277
1431.50562	0.02856
1429.45181	0.02473
1427.39800	0.02255
1425.34419	0.02154
1423.29038	0.02100
1421.23657	0.02067
1419.18276	0.02040
1417.12895	0.02018
1415.07514	0.01998
1413.02133	0.01982
1410.96752	0.01973
1408.91371	0.01957
1406.85990	0.01924
1404.80609	0.01893
1402.75228	0.01872
1400.69847	0.01854
1398.64466	0.01839
1396.59085	0.01835
1394.53704	0.01854
1392.48323	0.01890
1390.42942	0.01957
1388.37561	0.02113
1386.32180	0.02454
1384.26799	0.03118
1382.21418	0.04364
1380.16037	0.06482
1378.10656	0.09128
1376.05275	0.10779
1373.99894	0.09962
1371.94513	0.07565
1369.89132	0.05434
1367.83751	0.04100
1365.78370	0.03497
1363.72989	0.03366
1361.67608	0.03502
1359.62227	0.03678
1357.56846	0.03648
1355.51465	0.03345
1353.46084	0.02932
1351.40703	0.02589
1349.35322	0.02349
1347.29941	0.02186
1345.24560	0.02081
1343.19179	0.02017
1341.13798	0.01971
1339.08417	0.01932
1337.03036	0.01912
1334.97655	0.01927
1332.92274	0.01972
1330.86893	0.02023
1328.81512	0.02036
1326.76130	0.02000
1324.70749	0.01942
1322.65368	0.01892
1320.59987	0.01859
1318.54606	0.01833
1316.49225	0.01810
1314.43844	0.01796
1312.38463	0.01803
1310.33082	0.01838
1308.27701	0.01913
1306.22320	0.02026
1304.16939	0.02105
1302.11558	0.02095
1300.06177	0.02051
1298.00796	0.02041
1295.95415	0.02055
1293.90034	0.02055
1291.84653	0.02025
1289.79272	0.01986
1287.73891	0.01971
1285.68510	0.01994
1283.63129	0.02036
1281.57748	0.02084
1279.52367	0.02145
1277.46986	0.02222
1275.41605	0.02302
1273.36224	0.02365
1271.30843	0.02408
1269.25462	0.02439
1267.20081	0.02447
1265.14700	0.02413
1263.09319	0.02354
1261.03938	0.02316
1258.98557	0.02331
1256.93176	0.02374
1254.87795	0.02380
1252.82414	0.02339
1250.77033	0.02295
1248.71652	0.02259
1246.66271	0.02215
1244.60890	0.02161
1242.55509	0.02111
1240.50128	0.02066
1238.44747	0.02023
1236.39366	0.01983
1234.33985	0.01955
1232.28604	0.01944
1230.23223	0.01939
1228.17842	0.01941
1226.12461	0.01957
1224.07080	0.01990
1222.01699	0.02036
1219.96318	0.02077
1217.90937	0.02098
1215.85556	0.02095
1213.80175	0.02070
1211.74794	0.02035
1209.69413	0.01997
1207.64032	0.01964
1205.58651	0.01940
1203.53270	0.01920
1201.47889	0.01905
1199.42508	0.01897
1197.37127	0.01890
1195.31746	0.01877
1193.26365	0.01858
1191.20984	0.01846
1189.15603	0.01848
1187.10222	0.01858
1185.04841	0.01868
1182.99460	0.01878
1180.94079	0.01907
1178.88698	0.01969
1176.83317	0.02071
1174.77936	0.02239
1172.72555	0.02500
1170.67174	0.02819
1168.61793	0.03090
1166.56412	0.03194
1164.51031	0.03112
1162.45650	0.02940
1160.40269	0.02772
1158.34888	0.02651
1156.29507	0.02589
1154.24126	0.02562
1152.18745	0.02526
1150.13364	0.02457
1148.07983	0.02368
1146.02602	0.02276
1143.97221	0.02195
1141.91840	0.02138
1139.86459	0.02096
1137.81078	0.02061
1135.75697	0.02031
1133.70316	0.02018
1131.64935	0.02031
1129.59554	0.02062
1127.54173	0.02100
1125.48792	0.02151
1123.43411	0.02216
1121.38030	0.02276
1119.32649	0.02317
1117.27268	0.02347
1115.21887	0.02360
1113.16506	0.02355
1111.11125	0.02356
1109.05744	0.02387
1107.00363	0.02462
1104.94982	0.02580
1102.89601	0.02682
1100.84220	0.02690
1098.78839	0.02602
1096.73458	0.02479
1094.68077	0.02374
1092.62696	0.02304
1090.57315	0.02256
1088.51934	0.02213
1086.46553	0.02180
1084.41172	0.02160
1082.35791	0.02144
1080.30410	0.02121
1078.25029	0.02099
1076.19648	0.02084
1074.14267	0.02078
1072.08886	0.02075
1070.03505	0.02067
1067.98124	0.02053
1065.92743	0.02045
1063.87362	0.02052
1061.81981	0.02069
1059.76600	0.02083
1057.71219	0.02089
1055.65838	0.02092
1053.60457	0.02104
1051.55076	0.02134
1049.49695	0.02185
1047.44314	0.02247
1045.38933	0.02288
1043.33552	0.02277
1041.28171	0.02232
1039.22790	0.02188
1037.17409	0.02157
1035.12028	0.02135
1033.06647	0.02118
1031.01265	0.02106
1028.95884	0.02102
1026.90503	0.02103
1024.85122	0.02114
1022.79741	0.02155
1020.74360	0.02216
1018.68979	0.02225
1016.63598	0.02169
1014.58217	0.02108
1012.52836	0.02080
1010.47455	0.02086
1008.42074	0.02118
1006.36693	0.02181
1004.31312	0.02318
1002.25931	0.02600
1000.20550	0.03013
998.15169	0.03330
996.09788	0.03268
994.04407	0.02890
991.99026	0.02494
989.93645	0.02236
987.88264	0.02096
985.82883	0.02032
983.77502	0.02040
981.72121	0.02134
979.66740	0.02329
977.61359	0.02651
975.55978	0.03077
973.50597	0.03419
971.45216	0.03393
969.39835	0.02988
967.34454	0.02518
965.29073	0.02203
963.23692	0.02022
961.18311	0.01915
959.12930	0.01853
957.07549	0.01810
955.02168	0.01766
952.96787	0.01730
950.91406	0.01708
948.86025	0.01696
946.80644	0.01696
944.75263	0.01716
942.69882	0.01756
940.64501	0.01788
938.59120	0.01772
936.53739	0.01711
934.48358	0.01650
932.42977	0.01607
930.37596	0.01578
928.32215	0.01560
926.26834	0.01555
924.21453	0.01557
922.16072	0.01548
920.10691	0.01531
918.05310	0.01537
915.99929	0.01565
913.94548	0.01587
911.89167	0.01593
909.83786	0.01595
907.78405	0.01629
905.73024	0.01722
903.67643	0.01892
901.62262	0.02119
899.56881	0.02279
897.51500	0.02246
895.46119	0.02059
893.40738	0.01855
891.35357	0.01718
889.29976	0.01650
887.24595	0.01621
885.19214	0.01611
883.13833	0.01615
881.08452	0.01619
879.03071	0.01620
876.97690	0.01627
874.92309	0.01634
872.86928	0.01641
870.81547	0.01655
868.76166	0.01659
866.70785	0.01640
864.65404	0.01634
862.60023	0.01654
860.54642	0.01671
858.49261	0.01675
856.43880	0.01668
854.38499	0.01664
852.33118	0.01683
850.27737	0.01736
848.22356	0.01827
846.16975	0.02006
844.11594	0.02410
842.06213	0.02967
840.00832	0.03180
837.95451	0.02819
835.90070	0.02321
833.84689	0.02038
831.79308	0.01921
829.73927	0.01866
827.68546	0.01824
825.63165	0.01787
823.57784	0.01779
821.52403	0.01801
819.47022	0.01822
817.41641	0.01853
815.36260	0.01950
813.30879	0.02162
811.25498	0.02449
809.20117	0.02643
807.14736	0.02601
805.09355	0.02389
803.03974	0.02170
800.98593	0.02019
798.93212	0.01931
796.87831	0.01882
794.82450	0.01846
792.77069	0.01804
790.71688	0.01756
788.66307	0.01722
786.60926	0.01696
784.55545	0.01670
782.50164	0.01669
780.44783	0.01686
778.39402	0.01682
776.34021	0.01652
774.28640	0.01630
772.23259	0.01641
770.17878	0.01666
768.12497	0.01680
766.07116	0.01671
764.01735	0.01656
761.96354	0.01650
759.90973	0.01659
757.85592	0.01676
755.80211	0.01689
753.74830	0.01699
751.69449	0.01706
749.64068	0.01710
747.58687	0.01726
745.53306	0.01742
743.47925	0.01732
741.42544	0.01719
739.37163	0.01743
737.31781	0.01844
735.26400	0.02100
733.21019	0.02562
731.15638	0.02956
729.10257	0.02910
727.04876	0.02614
724.99495	0.02534
722.94114	0.02845
720.88733	0.03388
718.83352	0.03655
716.77971	0.03349
714.72590	0.02789
712.67209	0.02346
710.61828	0.02104
708.56447	0.02004
706.51066	0.01966
704.45685	0.01914
702.40304	0.01854
700.34923	0.01833
698.29542	0.01841
696.24161	0.01846
694.18780	0.01842
692.13399	0.01831
690.08018	0.01814
688.02637	0.01808
685.97256	0.01831
683.91875	0.01849
681.86494	0.01828
679.81113	0.01805
677.75732	0.01807
675.70351	0.01835
673.64970	0.01868
671.59589	0.01881
669.54208	0.01884
667.48827	0.01887
665.43446	0.01879
663.38065	0.01872
661.32684	0.01867
659.27303	0.01863
657.21922	0.01863
655.16541	0.01858
653.11160	0.01863
651.05779	0.01885
649.00398	0.01900
646.95017	0.01903
644.89636	0.01890
642.84255	0.01883
640.78874	0.01921
638.73493	0.01983
636.68112	0.02024
634.62731	0.02008
632.57350	0.01958
630.51969	0.01955
628.46588	0.01994
626.41207	0.02028
624.35826	0.02040
622.30445	0.02036
620.25064	0.02022
618.19683	0.02010
616.14302	0.02024
614.08921	0.02043
612.03540	0.02015
609.98159	0.01953
607.92778	0.01918
605.87397	0.01916
603.82016	0.01925
601.76635	0.01947
599.71254	0.01981
597.65873	0.02006
595.60492	0.02027
593.55111	0.02036
591.49730	0.02026
589.44349	0.02029
587.38968	0.02041
585.33587	0.02036
583.28206	0.02022
581.22825	0.02016
579.17444	0.02008
577.12063	0.01978
575.06682	0.01944
573.01301	0.01959
570.95920	0.02002
568.90539	0.02014
566.85158	0.02020
564.79777	0.02034
562.74396	0.02061
560.69015	0.02086
558.63634	0.02090
556.58253	0.02101
554.52872	0.02105
552.47491	0.02089
550.42110	0.02081
548.36729	0.02068
546.31348	0.02049
544.25967	0.02046
542.20586	0.02061
540.15205	0.02079
538.09824	0.02076
536.04443	0.02086
533.99062	0.02133
531.93681	0.02196
529.88300	0.02244
527.82919	0.02240
525.77538	0.02204
523.72157	0.02151
521.66776	0.02099
519.61395	0.02085
517.56014	0.02055
515.50633	0.01971
513.45252	0.01908
511.39871	0.01919
509.34490	0.01981
507.29109	0.02022
505.23728	0.02026
503.18347	0.02058
501.12966	0.02130
499.07585	0.02169
497.02204	0.02136
494.96823	0.02066
492.91442	0.01990
490.86061	0.01941
488.80680	0.01962
486.75299	0.02014
484.69918	0.02055
482.64537	0.02090
480.59156	0.02105
478.53775	0.02122
476.48394	0.02218
474.43013	0.02360
472.37632	0.02411
470.32251	0.02382
468.26870	0.02402
466.21489	0.02474
464.16108	0.02549
462.10727	0.02660
460.05346	0.02829
457.99965	0.02931
455.94584	0.02880
453.89203	0.02778
451.83822	0.02632
449.78441	0.02449
447.73060	0.02325
445.67679	0.02351
443.62298	0.02406
441.56916	0.02288
439.51535	0.02173
437.46154	0.02242
435.40773	0.02382
433.35392	0.02392
431.30011	0.02238
429.24630	0.02099
427.19249	0.02045
425.13868	0.02027
423.08487	0.02111
421.03106	0.02271
418.97725	0.02336
416.92344	0.02282
414.86963	0.02179
412.81582	0.02061
410.76201	0.02020
408.70820	0.02044
406.65439	0.02067
404.60058	0.02145
402.54677	0.02342
400.49296	0.02536
398.43915	0.02494
