3996.70104	0.93871
3994.64724	0.93867
3992.59344	0.93851
3990.53964	0.93818
3988.48583	0.93837
3986.43203	0.93890
3984.37823	0.93913
3982.32442	0.93894
3980.27062	0.93853
3978.21682	0.93848
3976.16301	0.93880
3974.10921	0.93899
3972.05541	0.93868
3970.00160	0.93803
3967.94780	0.93766
3965.89400	0.93775
3963.84019	0.93793
3961.78639	0.93786
3959.73259	0.93806
3957.67878	0.93896
3955.62498	0.93966
3953.57118	0.93974
3951.51737	0.93969
3949.46357	0.93966
3947.40977	0.93977
3945.35596	0.94005
3943.30216	0.94003
3941.24836	0.93970
3939.19455	0.93978
3937.14075	0.94018
3935.08695	0.94012
3933.03315	0.93945
3930.97934	0.93903
3928.92554	0.93941
3926.87174	0.94006
3924.81793	0.94041
3922.76413	0.94033
3920.71033	0.94034
3918.65652	0.94059
3916.60272	0.94068
3914.54892	0.94006
3912.49511	0.93915
3910.44131	0.93928
3908.38751	0.94018
3906.33370	0.94012
3904.27990	0.93931
3902.22610	0.93917
3900.17229	0.93929
3898.11849	0.93945
3896.06469	0.93963
3894.01088	0.93940
3891.95708	0.93898
3889.90328	0.93923
3887.84947	0.94050
3885.79567	0.94172
3883.74187	0.94160
3881.68807	0.94075
3879.63426	0.93999
3877.58046	0.93968
3875.52666	0.94009
3873.47285	0.94079
3871.41905	0.94080
3869.36525	0.94005
3867.31144	0.93994
3865.25764	0.94081
3863.20384	0.94151
3861.15003	0.94148
3859.09623	0.94100
3857.04243	0.94006
3854.98862	0.93926
3852.93482	0.93969
3850.88102	0.94012
3848.82721	0.94014
3846.77341	0.94018
3844.71961	0.93986
3842.66580	0.93979
3840.61200	0.94041
3838.55820	0.94056
3836.50439	0.94033
3834.45059	0.94053
3832.39679	0.94080
3830.34298	0.94093
3828.28918	0.94092
3826.23538	0.94117
3824.18158	0.94191
3822.12777	0.94192
3820.07397	0.94039
3818.02017	0.93941
3815.96636	0.93952
3813.91256	0.93986
3811.85876	0.93999
3809.80495	0.93996
3807.75115	0.94011
3805.69735	0.94014
3803.64354	0.93984
3801.58974	0.94004
3799.53594	0.94067
3797.48213	0.94067
3795.42833	0.94028
3793.37453	0.94047
3791.32072	0.94121
3789.26692	0.94180
3787.21312	0.94198
3785.15931	0.94163
3783.10551	0.94130
3781.05171	0.94171
3778.99790	0.94209
3776.94410	0.94168
3774.89030	0.94115
3772.83650	0.94089
3770.78269	0.94086
3768.72889	0.94107
3766.67509	0.94120
3764.62128	0.94116
3762.56748	0.94118
3760.51368	0.94118
3758.45987	0.94100
3756.40607	0.94062
3754.35227	0.94019
3752.29846	0.94022
3750.24466	0.94116
3748.19086	0.94251
3746.13705	0.94359
3744.08325	0.94398
3742.02945	0.94356
3739.97564	0.94313
3737.92184	0.94300
3735.86804	0.94311
3733.81423	0.94305
3731.76043	0.94255
3729.70663	0.94235
3727.65282	0.94281
3725.59902	0.94291
3723.54522	0.94208
3721.49141	0.94133
3719.43761	0.94087
3717.38381	0.94056
3715.33001	0.94037
3713.27620	0.93979
3711.22240	0.93766
3709.16860	0.93516
3707.11479	0.93393
3705.06099	0.93256
3703.00719	0.93002
3700.95338	0.92720
3698.89958	0.92554
3696.84578	0.92480
3694.79197	0.92457
3692.73817	0.92494
3690.68437	0.92616
3688.63056	0.92754
3686.57676	0.92812
3684.52296	0.92869
3682.46915	0.92960
3680.41535	0.92993
3678.36155	0.92938
3676.30774	0.92929
3674.25394	0.92981
3672.20014	0.92948
3670.14633	0.92803
3668.09253	0.92628
3666.03873	0.92514
3663.98492	0.92417
3661.93112	0.92302
3659.87732	0.92184
3657.82352	0.92091
3655.76971	0.92004
3653.71591	0.91946
3651.66211	0.91943
3649.60830	0.91952
3647.55450	0.91899
3645.50070	0.91821
3643.44689	0.91772
3641.39309	0.91749
3639.33929	0.91669
3637.28548	0.91523
3635.23168	0.91445
3633.17788	0.91431
3631.12407	0.91349
3629.07027	0.91116
3627.01647	0.90905
3624.96266	0.90867
3622.90886	0.90866
3620.85506	0.90807
3618.80125	0.90688
3616.74745	0.90681
3614.69365	0.90800
3612.63984	0.90871
3610.58604	0.90913
3608.53224	0.91038
3606.47844	0.91170
3604.42463	0.91226
3602.37083	0.91235
3600.31703	0.91203
3598.26322	0.91173
3596.20942	0.91215
3594.15562	0.91264
3592.10181	0.91290
3590.04801	0.91335
3587.99421	0.91289
3585.94040	0.91140
3583.88660	0.91078
3581.83280	0.91100
3579.77899	0.91119
3577.72519	0.91091
3575.67139	0.91060
3573.61758	0.91077
3571.56378	0.91110
3569.50998	0.91099
3567.45617	0.90981
3565.40237	0.90849
3563.34857	0.90852
3561.29476	0.90913
3559.24096	0.90923
3557.18716	0.90853
3555.13335	0.90790
3553.07955	0.90755
3551.02575	0.90707
3548.97195	0.90693
3546.91814	0.90713
3544.86434	0.90748
3542.81054	0.90791
3540.75673	0.90763
3538.70293	0.90658
3536.64913	0.90597
3534.59532	0.90644
3532.54152	0.90712
3530.48772	0.90728
3528.43391	0.90709
3526.38011	0.90721
3524.32631	0.90755
3522.27250	0.90773
3520.21870	0.90784
3518.16490	0.90736
3516.11109	0.90638
3514.05729	0.90580
3512.00349	0.90576
3509.94968	0.90577
3507.89588	0.90554
3505.84208	0.90553
3503.78827	0.90593
3501.73447	0.90636
3499.68067	0.90640
3497.62687	0.90619
3495.57306	0.90607
3493.51926	0.90559
3491.46546	0.90478
3489.41165	0.90439
3487.35785	0.90413
3485.30405	0.90395
3483.25024	0.90427
3481.19644	0.90455
3479.14264	0.90453
3477.08883	0.90441
3475.03503	0.90417
3472.98123	0.90389
3470.92742	0.90388
3468.87362	0.90401
3466.81982	0.90337
3464.76601	0.90241
3462.71221	0.90211
3460.65841	0.90194
3458.60460	0.90185
3456.55080	0.90191
3454.49700	0.90158
3452.44319	0.90103
3450.38939	0.90051
3448.33559	0.90013
3446.28178	0.90029
3444.22798	0.90063
3442.17418	0.90010
3440.12038	0.89935
3438.06657	0.89924
3436.01277	0.89924
3433.95897	0.89913
3431.90516	0.89928
3429.85136	0.89972
3427.79756	0.89962
3425.74375	0.89875
3423.68995	0.89835
3421.63615	0.89859
3419.58234	0.89869
3417.52854	0.89856
3415.47474	0.89833
3413.42093	0.89820
3411.36713	0.89786
3409.31333	0.89703
3407.25952	0.89669
3405.20572	0.89717
3403.15192	0.89768
3401.09811	0.89769
3399.04431	0.89719
3396.99051	0.89672
3394.93670	0.89652
3392.88290	0.89650
3390.82910	0.89684
3388.77529	0.89739
3386.72149	0.89776
3384.66769	0.89763
3382.61389	0.89736
3380.56008	0.89742
3378.50628	0.89770
3376.45248	0.89786
3374.39867	0.89770
3372.34487	0.89773
3370.29107	0.89812
3368.23726	0.89822
3366.18346	0.89784
3364.12966	0.89764
3362.07585	0.89800
3360.02205	0.89829
3357.96825	0.89794
3355.91444	0.89738
3353.86064	0.89740
3351.80684	0.89795
3349.75303	0.89851
3347.69923	0.89906
3345.64543	0.89922
3343.59162	0.89888
3341.53782	0.89888
3339.48402	0.89947
3337.43021	0.90006
3335.37641	0.90038
3333.32261	0.90037
3331.26881	0.89992
3329.21500	0.89942
3327.16120	0.89945
3325.10740	0.89980
3323.05359	0.90010
3320.99979	0.90038
3318.94599	0.90069
3316.89218	0.90083
3314.83838	0.90096
3312.78458	0.90129
3310.73077	0.90129
3308.67697	0.90109
3306.62317	0.90140
3304.56936	0.90210
3302.51556	0.90278
3300.46176	0.90307
3298.40795	0.90283
3296.35415	0.90229
3294.30035	0.90190
3292.24654	0.90204
3290.19274	0.90254
3288.13894	0.90285
3286.08513	0.90305
3284.03133	0.90336
3281.97753	0.90373
3279.92372	0.90408
3277.86992	0.90417
3275.81612	0.90427
3273.76232	0.90459
3271.70851	0.90450
3269.65471	0.90402
3267.60091	0.90382
3265.54710	0.90409
3263.49330	0.90473
3261.43950	0.90534
3259.38569	0.90561
3257.33189	0.90572
3255.27809	0.90588
3253.22428	0.90597
3251.17048	0.90599
3249.11668	0.90632
3247.06287	0.90699
3245.00907	0.90758
3242.95527	0.90762
3240.90146	0.90724
3238.84766	0.90693
3236.79386	0.90702
3234.74005	0.90766
3232.68625	0.90841
3230.63245	0.90890
3228.57864	0.90920
3226.52484	0.90939
3224.47104	0.90936
3222.41724	0.90907
3220.36343	0.90869
3218.30963	0.90852
3216.25583	0.90907
3214.20202	0.91033
3212.14822	0.91119
3210.09442	0.91099
3208.04061	0.91062
3205.98681	0.91068
3203.93301	0.91083
3201.87920	0.91113
3199.82540	0.91159
3197.77160	0.91165
3195.71779	0.91146
3193.66399	0.91197
3191.61019	0.91280
3189.55638	0.91328
3187.50258	0.91336
3185.44878	0.91304
3183.39497	0.91280
3181.34117	0.91321
3179.28737	0.91368
3177.23356	0.91362
3175.17976	0.91377
3173.12596	0.91443
3171.07215	0.91495
3169.01835	0.91526
3166.96455	0.91563
3164.91075	0.91603
3162.85694	0.91619
3160.80314	0.91616
3158.74934	0.91636
3156.69553	0.91677
3154.64173	0.91733
3152.58793	0.91784
3150.53412	0.91804
3148.48032	0.91818
3146.42652	0.91829
3144.37271	0.91834
3142.31891	0.91867
3140.26511	0.91912
3138.21130	0.91949
3136.15750	0.91989
3134.10370	0.91999
3132.04989	0.91970
3129.99609	0.91970
3127.94229	0.92008
3125.88848	0.92057
3123.83468	0.92103
3121.78088	0.92126
3119.72707	0.92138
3117.67327	0.92143
3115.61947	0.92130
3113.56566	0.92093
3111.51186	0.92034
3109.45806	0.91983
3107.40426	0.91961
3105.35045	0.91965
3103.29665	0.91963
3101.24285	0.91953
3099.18904	0.91983
3097.13524	0.92046
3095.08144	0.92090
3093.02763	0.92081
3090.97383	0.91984
3088.92003	0.91795
3086.86622	0.91571
3084.81242	0.91359
3082.75862	0.91198
3080.70481	0.91178
3078.65101	0.91308
3076.59721	0.91487
3074.54340	0.91626
3072.48960	0.91670
3070.43580	0.91604
3068.38199	0.91466
3066.32819	0.91277
3064.27439	0.91030
3062.22058	0.90776
3060.16678	0.90619
3058.11298	0.90631
3056.05918	0.90795
3054.00537	0.91043
3051.95157	0.91307
3049.89777	0.91513
3047.84396	0.91663
3045.79016	0.91800
3043.73636	0.91894
3041.68255	0.91901
3039.62875	0.91844
3037.57495	0.91694
3035.52114	0.91383
3033.46734	0.90910
3031.41354	0.90283
3029.35973	0.89545
3027.30593	0.88876
3025.25213	0.88517
3023.19832	0.88643
3021.14452	0.89225
3019.09072	0.89989
3017.03691	0.90652
3014.98311	0.91158
3012.92931	0.91522
3010.87550	0.91730
3008.82170	0.91838
3006.76790	0.91881
3004.71409	0.91848
3002.66029	0.91790
3000.60649	0.91775
2998.55269	0.91865
2996.49888	0.92067
2994.44508	0.92281
2992.39128	0.92428
2990.33747	0.92484
2988.28367	0.92490
2986.22987	0.92537
2984.17606	0.92613
2982.12226	0.92673
2980.06846	0.92721
2978.01465	0.92747
2975.96085	0.92732
2973.90705	0.92676
2971.85324	0.92607
2969.79944	0.92570
2967.74564	0.92594
2965.69183	0.92608
2963.63803	0.92544
2961.58423	0.92487
2959.53042	0.92457
2957.47662	0.92397
2955.42282	0.92316
2953.36901	0.92197
2951.31521	0.92056
2949.26141	0.91928
2947.20761	0.91773
2945.15380	0.91570
2943.10000	0.91326
2941.04620	0.91043
2938.99239	0.90737
2936.93859	0.90400
2934.88479	0.90005
2932.83098	0.89548
2930.77718	0.89060
2928.72338	0.88598
2926.66957	0.88202
2924.61577	0.87892
2922.56197	0.87681
2920.50816	0.87557
2918.45436	0.87543
2916.40056	0.87686
2914.34675	0.87932
2912.29295	0.88203
2910.23915	0.88481
2908.18534	0.88761
2906.13154	0.89030
2904.07774	0.89291
2902.02393	0.89569
2899.97013	0.89841
2897.91633	0.90085
2895.86252	0.90343
2893.80872	0.90600
2891.75492	0.90803
2889.70112	0.90958
2887.64731	0.91073
2885.59351	0.91173
2883.53971	0.91299
2881.48590	0.91397
2879.43210	0.91432
2877.37830	0.91490
2875.32449	0.91608
2873.27069	0.91721
2871.21689	0.91808
2869.16308	0.91853
2867.10928	0.91834
2865.05548	0.91807
2863.00167	0.91774
2860.94787	0.91670
2858.89407	0.91502
2856.84026	0.91310
2854.78646	0.91113
2852.73266	0.90933
2850.67885	0.90795
2848.62505	0.90738
2846.57125	0.90808
2844.51744	0.90997
2842.46364	0.91262
2840.40984	0.91559
2838.35603	0.91847
2836.30223	0.92101
2834.24843	0.92298
2832.19463	0.92436
2830.14082	0.92534
2828.08702	0.92624
2826.03322	0.92716
2823.97941	0.92781
2821.92561	0.92806
2819.87181	0.92812
2817.81800	0.92829
2815.76420	0.92881
2813.71040	0.92959
2811.65659	0.93006
2809.60279	0.92994
2807.54899	0.92974
2805.49518	0.93007
2803.44138	0.93084
2801.38758	0.93112
2799.33377	0.93074
2797.27997	0.93063
2795.22617	0.93092
2793.17236	0.93121
2791.11856	0.93144
2789.06476	0.93134
2787.01095	0.93122
2784.95715	0.93145
2782.90335	0.93167
2780.84955	0.93169
2778.79574	0.93172
2776.74194	0.93185
2774.68814	0.93204
2772.63433	0.93226
2770.58053	0.93261
2768.52673	0.93304
2766.47292	0.93343
2764.41912	0.93357
2762.36532	0.93333
2760.31151	0.93305
2758.25771	0.93307
2756.20391	0.93328
2754.15010	0.93340
2752.09630	0.93333
2750.04250	0.93335
2747.98869	0.93343
2745.93489	0.93346
2743.88109	0.93371
2741.82728	0.93399
2739.77348	0.93416
2737.71968	0.93441
2735.66587	0.93452
2733.61207	0.93424
2731.55827	0.93383
2729.50446	0.93368
2727.45066	0.93387
2725.39686	0.93443
2723.34306	0.93518
2721.28925	0.93544
2719.23545	0.93510
2717.18165	0.93477
2715.12784	0.93476
2713.07404	0.93493
2711.02024	0.93519
2708.96643	0.93532
2706.91263	0.93504
2704.85883	0.93475
2702.80502	0.93486
2700.75122	0.93498
2698.69742	0.93479
2696.64361	0.93463
2694.58981	0.93470
2692.53601	0.93491
2690.48220	0.93525
2688.42840	0.93557
2686.37460	0.93555
2684.32079	0.93540
2682.26699	0.93554
2680.21319	0.93573
2678.15938	0.93564
2676.10558	0.93547
2674.05178	0.93550
2671.99797	0.93578
2669.94417	0.93584
2667.89037	0.93568
2665.83657	0.93596
2663.78276	0.93633
2661.72896	0.93614
2659.67516	0.93587
2657.62135	0.93586
2655.56755	0.93577
2653.51375	0.93564
2651.45994	0.93566
2649.40614	0.93575
2647.35234	0.93590
2645.29853	0.93602
2643.24473	0.93614
2641.19093	0.93641
2639.13712	0.93672
2637.08332	0.93671
2635.02952	0.93622
2632.97571	0.93570
2630.92191	0.93559
2628.86811	0.93601
2626.81430	0.93687
2624.76050	0.93762
2622.70670	0.93760
2620.65289	0.93723
2618.59909	0.93728
2616.54529	0.93762
2614.49149	0.93776
2612.43768	0.93753
2610.38388	0.93728
2608.33008	0.93724
2606.27627	0.93724
2604.22247	0.93729
2602.16867	0.93760
2600.11486	0.93814
2598.06106	0.93864
2596.00726	0.93865
2593.95345	0.93800
2591.89965	0.93721
2589.84585	0.93695
2587.79204	0.93735
2585.73824	0.93791
2583.68444	0.93824
2581.63063	0.93831
2579.57683	0.93842
2577.52303	0.93886
2575.46922	0.93914
2573.41542	0.93898
2571.36162	0.93892
2569.30781	0.93913
2567.25401	0.93913
2565.20021	0.93911
2563.14640	0.93963
2561.09260	0.93986
2559.03880	0.93920
2556.98500	0.93860
2554.93119	0.93883
2552.87739	0.93938
2550.82359	0.93956
2548.76978	0.93990
2546.71598	0.94051
2544.66218	0.94014
2542.60837	0.93903
2540.55457	0.93851
2538.50077	0.93867
2536.44696	0.93897
2534.39316	0.93907
2532.33936	0.93908
2530.28555	0.93925
2528.23175	0.93962
2526.17795	0.93996
2524.12414	0.93987
2522.07034	0.93969
2520.01654	0.93989
2517.96273	0.94024
2515.90893	0.94066
2513.85513	0.94102
2511.80132	0.94056
2509.74752	0.93989
2507.69372	0.93987
2505.63992	0.93999
2503.58611	0.94018
2501.53231	0.94039
2499.47851	0.94048
2497.42470	0.94041
2495.37090	0.93998
2493.31710	0.93969
2491.26329	0.93990
2489.20949	0.94001
2487.15569	0.94018
2485.10188	0.94086
2483.04808	0.94121
2480.99428	0.94064
2478.94047	0.93996
2476.88667	0.94002
2474.83287	0.94054
2472.77906	0.94063
2470.72526	0.94051
2468.67146	0.94090
2466.61765	0.94122
2464.56385	0.94089
2462.51005	0.94047
2460.45624	0.94026
2458.40244	0.93976
2456.34864	0.93953
2454.29483	0.94032
2452.24103	0.94101
2450.18723	0.94078
2448.13343	0.94038
2446.07962	0.94033
2444.02582	0.94033
2441.97202	0.94018
2439.91821	0.94026
2437.86441	0.94061
2435.81061	0.94089
2433.75680	0.94115
2431.70300	0.94146
2429.64920	0.94160
2427.59539	0.94145
2425.54159	0.94134
2423.48779	0.94128
2421.43398	0.94065
2419.38018	0.93984
2417.32638	0.93984
2415.27257	0.94039
2413.21877	0.94075
2411.16497	0.94090
2409.11116	0.94113
2407.05736	0.94168
2405.00356	0.94254
2402.94975	0.94320
2400.89595	0.94323
2398.84215	0.94294
2396.78834	0.94255
2394.73454	0.94186
2392.68074	0.94129
2390.62694	0.94141
2388.57313	0.94195
2386.51933	0.94240
2384.46553	0.94254
2382.41172	0.94247
2380.35792	0.94260
2378.30412	0.94266
2376.25031	0.94217
2374.19651	0.94166
2372.14271	0.94148
2370.08890	0.94171
2368.03510	0.94232
2365.98130	0.94221
2363.92749	0.94104
2361.87369	0.94008
2359.81989	0.93965
2357.76608	0.93970
2355.71228	0.94014
2353.65848	0.94009
2351.60467	0.93994
2349.55087	0.94049
2347.49707	0.94127
2345.44326	0.94150
2343.38946	0.94116
2341.33566	0.94077
2339.28186	0.94043
2337.22805	0.94036
2335.17425	0.94070
2333.12045	0.94113
2331.06664	0.94093
2329.01284	0.94048
2326.95904	0.94045
2324.90523	0.93999
2322.85143	0.93956
2320.79763	0.94004
2318.74382	0.94082
2316.69002	0.94123
2314.63622	0.94118
2312.58241	0.94124
2310.52861	0.94139
2308.47481	0.94134
2306.42100	0.94133
2304.36720	0.94131
2302.31340	0.94083
2300.25959	0.94002
2298.20579	0.93983
2296.15199	0.94028
2294.09818	0.94036
2292.04438	0.94011
2289.99058	0.94028
2287.93677	0.94058
2285.88297	0.94078
2283.82917	0.94113
2281.77537	0.94123
2279.72156	0.94109
2277.66776	0.94122
2275.61396	0.94171
2273.56015	0.94227
2271.50635	0.94282
2269.45255	0.94338
2267.39874	0.94353
2265.34494	0.94357
2263.29114	0.94381
2261.23733	0.94378
2259.18353	0.94331
2257.12973	0.94242
2255.07592	0.94186
2253.02212	0.94250
2250.96832	0.94335
2248.91451	0.94382
2246.86071	0.94423
2244.80691	0.94386
2242.75310	0.94326
2240.69930	0.94342
2238.64550	0.94317
2236.59169	0.94235
2234.53789	0.94213
2232.48409	0.94219
2230.43029	0.94126
2228.37648	0.93958
2226.32268	0.93971
2224.26888	0.94213
2222.21507	0.94372
2220.16127	0.94405
2218.10747	0.94488
2216.05366	0.94531
2213.99986	0.94437
2211.94606	0.94443
2209.89225	0.94639
2207.83845	0.94669
2205.78465	0.94563
2203.73084	0.94596
2201.67704	0.94549
2199.62324	0.94377
2197.56943	0.94349
2195.51563	0.94334
2193.46183	0.94264
2191.40802	0.94431
2189.35422	0.94688
2187.30042	0.94706
2185.24661	0.94629
2183.19281	0.94667
2181.13901	0.94792
2179.08520	0.94747
2177.03140	0.94457
2174.97760	0.94295
2172.92380	0.94373
2170.86999	0.94428
2168.81619	0.94390
2166.76239	0.94386
2164.70858	0.94388
2162.65478	0.94243
2160.60098	0.94366
2158.54717	0.95128
2156.49337	0.95583
2154.43957	0.95269
2152.38576	0.94830
2150.33196	0.94653
2148.27816	0.94740
2146.22435	0.94867
2144.17055	0.94812
2142.11675	0.94569
2140.06294	0.94463
2138.00914	0.94660
2135.95534	0.94880
2133.90153	0.94963
2131.84773	0.94902
2129.79393	0.94793
2127.74012	0.94786
2125.68632	0.94832
2123.63252	0.94794
2121.57871	0.94667
2119.52491	0.94600
2117.47111	0.94648
2115.41731	0.94659
2113.36350	0.94597
2111.30970	0.94555
2109.25590	0.94533
2107.20209	0.94522
2105.14829	0.94520
2103.09449	0.94502
2101.04068	0.94469
2098.98688	0.94470
2096.93308	0.94555
2094.87927	0.94733
2092.82547	0.94883
2090.77167	0.94817
2088.71786	0.94631
2086.66406	0.94627
2084.61026	0.94774
2082.55645	0.94819
2080.50265	0.94768
2078.44885	0.94757
2076.39504	0.94779
2074.34124	0.94784
2072.28744	0.94743
2070.23363	0.94631
2068.17983	0.94521
2066.12603	0.94533
2064.07223	0.94673
2062.01842	0.94776
2059.96462	0.94794
2057.91082	0.94870
2055.85701	0.94982
2053.80321	0.94972
2051.74941	0.94788
2049.69560	0.94622
2047.64180	0.94531
2045.58800	0.94331
2043.53419	0.94316
2041.48039	0.94583
2039.42659	0.94654
2037.37278	0.94598
2035.31898	0.94669
2033.26518	0.94645
2031.21137	0.94506
2029.15757	0.94541
2027.10377	0.94888
2025.04996	0.95281
2022.99616	0.95315
2020.94236	0.95131
2018.88855	0.95088
2016.83475	0.95111
2014.78095	0.94956
2012.72714	0.94726
2010.67334	0.94734
2008.61954	0.94999
2006.56574	0.95198
2004.51193	0.95155
2002.45813	0.95150
2000.40433	0.95362
1998.35052	0.95546
1996.29672	0.95495
1994.24292	0.95312
1992.18911	0.95197
1990.13531	0.95121
1988.08151	0.94970
1986.02770	0.94776
1983.97390	0.94597
1981.92010	0.94580
1979.86629	0.94771
1977.81249	0.94924
1975.75869	0.94966
1973.70488	0.95017
1971.65108	0.94921
1969.59728	0.94851
1967.54347	0.95036
1965.48967	0.95048
1963.43587	0.94889
1961.38206	0.94915
1959.32826	0.94958
1957.27446	0.94873
1955.22066	0.94724
1953.16685	0.94592
1951.11305	0.94532
1949.05925	0.94503
1947.00544	0.94509
1944.95164	0.94550
1942.89784	0.94606
1940.84403	0.94675
1938.79023	0.94697
1936.73643	0.94649
1934.68262	0.94637
1932.62882	0.94723
1930.57502	0.94820
1928.52121	0.94825
1926.46741	0.94735
1924.41361	0.94652
1922.35980	0.94602
1920.30600	0.94561
1918.25220	0.94571
1916.19839	0.94688
1914.14459	0.94847
1912.09079	0.94850
1910.03698	0.94684
1907.98318	0.94520
1905.92938	0.94490
1903.87557	0.94626
1901.82177	0.94791
1899.76797	0.94827
1897.71417	0.94719
1895.66036	0.94574
1893.60656	0.94543
1891.55276	0.94630
1889.49895	0.94639
1887.44515	0.94494
1885.39135	0.94372
1883.33754	0.94364
1881.28374	0.94401
1879.22994	0.94414
1877.17613	0.94361
1875.12233	0.94281
1873.06853	0.94243
1871.01472	0.94230
1868.96092	0.94273
1866.90712	0.94359
1864.85331	0.94392
1862.79951	0.94397
1860.74571	0.94431
1858.69190	0.94502
1856.63810	0.94534
1854.58430	0.94497
1852.53049	0.94473
1850.47669	0.94524
1848.42289	0.94622
1846.36908	0.94682
1844.31528	0.94685
1842.26148	0.94710
1840.20768	0.94768
1838.15387	0.94790
1836.10007	0.94751
1834.04627	0.94714
1831.99246	0.94712
1829.93866	0.94712
1827.88486	0.94709
1825.83105	0.94696
1823.77725	0.94612
1821.72345	0.94513
1819.66964	0.94480
1817.61584	0.94475
1815.56204	0.94446
1813.50823	0.94398
1811.45443	0.94354
1809.40063	0.94318
1807.34682	0.94281
1805.29302	0.94267
1803.23922	0.94278
1801.18541	0.94272
1799.13161	0.94245
1797.07781	0.94259
1795.02400	0.94335
1792.97020	0.94440
1790.91640	0.94502
1788.86260	0.94519
1786.80879	0.94548
1784.75499	0.94574
1782.70119	0.94555
1780.64738	0.94510
1778.59358	0.94499
1776.53978	0.94550
1774.48597	0.94610
1772.43217	0.94607
1770.37837	0.94591
1768.32456	0.94595
1766.27076	0.94574
1764.21696	0.94556
1762.16315	0.94536
1760.10935	0.94497
1758.05555	0.94460
1756.00174	0.94395
1753.94794	0.94324
1751.89414	0.94293
1749.84033	0.94281
1747.78653	0.94245
1745.73273	0.94194
1743.67892	0.94153
1741.62512	0.94132
1739.57132	0.94141
1737.51751	0.94155
1735.46371	0.94130
1733.40991	0.94084
1731.35611	0.94088
1729.30230	0.94083
1727.24850	0.94031
1725.19470	0.93960
1723.14089	0.93882
1721.08709	0.93823
1719.03329	0.93806
1716.97948	0.93858
1714.92568	0.93937
1712.87188	0.93957
1710.81807	0.93943
1708.76427	0.93922
1706.71047	0.93887
1704.65666	0.93837
1702.60286	0.93785
1700.54906	0.93721
1698.49525	0.93650
1696.44145	0.93544
1694.38765	0.93379
1692.33384	0.93245
1690.28004	0.93134
1688.22624	0.93019
1686.17243	0.92892
1684.11863	0.92704
1682.06483	0.92555
1680.01103	0.92492
1677.95722	0.92446
1675.90342	0.92373
1673.84962	0.92232
1671.79581	0.92076
1669.74201	0.91949
1667.68821	0.91846
1665.63440	0.91765
1663.58060	0.91682
1661.52680	0.91590
1659.47299	0.91517
1657.41919	0.91477
1655.36539	0.91439
1653.31158	0.91354
1651.25778	0.91357
1649.20398	0.91438
1647.15017	0.91489
1645.09637	0.91529
1643.04257	0.91566
1640.98876	0.91571
1638.93496	0.91579
1636.88116	0.91624
1634.82735	0.91682
1632.77355	0.91724
1630.71975	0.91733
1628.66594	0.91715
1626.61214	0.91725
1624.55834	0.91775
1622.50454	0.91846
1620.45073	0.91926
1618.39693	0.91997
1616.34313	0.92043
1614.28932	0.92046
1612.23552	0.91986
1610.18172	0.91796
1608.12791	0.91374
1606.07411	0.90664
1604.02031	0.89762
1601.96650	0.89045
1599.91270	0.88988
1597.85890	0.89585
1595.80509	0.90381
1593.75129	0.91011
1591.69749	0.91428
1589.64368	0.91679
1587.58988	0.91723
1585.53608	0.91592
1583.48227	0.91492
1581.42847	0.91632
1579.37467	0.91955
1577.32086	0.92272
1575.26706	0.92504
1573.21326	0.92668
1571.15945	0.92769
1569.10565	0.92805
1567.05185	0.92848
1564.99805	0.92920
1562.94424	0.92969
1560.89044	0.92945
1558.83664	0.92847
1556.78283	0.92852
1554.72903	0.92885
1552.67523	0.92858
1550.62142	0.92814
1548.56762	0.92795
1546.51382	0.92807
1544.46001	0.92806
1542.40621	0.92783
1540.35241	0.92763
1538.29860	0.92759
1536.24480	0.92806
1534.19100	0.92874
1532.13719	0.92927
1530.08339	0.92961
1528.02959	0.92986
1525.97578	0.93017
1523.92198	0.93057
1521.86818	0.93062
1519.81437	0.93052
1517.76057	0.93054
1515.70677	0.93055
1513.65297	0.93065
1511.59916	0.93066
1509.54536	0.93048
1507.49156	0.93004
1505.43775	0.92921
1503.38395	0.92799
1501.33015	0.92511
1499.27634	0.91648
1497.22254	0.89265
1495.16874	0.85693
1493.11493	0.83434
1491.06113	0.83695
1489.00733	0.86195
1486.95352	0.88578
1484.89972	0.89843
1482.84592	0.90574
1480.79211	0.91061
1478.73831	0.91347
1476.68451	0.91510
1474.63070	0.91637
1472.57690	0.91714
1470.52310	0.91737
1468.46929	0.91767
1466.41549	0.91783
1464.36169	0.91739
1462.30788	0.91640
1460.25408	0.91391
1458.20028	0.90251
1456.14648	0.87096
1454.09267	0.84062
1452.03887	0.82644
1449.98507	0.82878
1447.93126	0.84221
1445.87746	0.85623
1443.82366	0.86712
1441.76985	0.87639
1439.71605	0.88397
1437.66225	0.89070
1435.60844	0.89747
1433.55464	0.90235
1431.50084	0.90576
1429.44703	0.90868
1427.39323	0.91105
1425.33943	0.91312
1423.28562	0.91500
1421.23182	0.91661
1419.17802	0.91827
1417.12421	0.91961
1415.07041	0.92049
1413.01661	0.92132
1410.96280	0.92225
1408.90900	0.92335
1406.85520	0.92467
1404.80139	0.92595
1402.74759	0.92669
1400.69379	0.92707
1398.63999	0.92743
1396.58618	0.92775
1394.53238	0.92753
1392.47858	0.92707
1390.42477	0.92674
1388.37097	0.92588
1386.31717	0.92446
1384.26336	0.92332
1382.20956	0.92240
1380.15576	0.92146
1378.10195	0.92063
1376.04815	0.91991
1373.99435	0.91926
1371.94054	0.91895
1369.88674	0.91913
1367.83294	0.91961
1365.77913	0.92007
1363.72533	0.92053
1361.67153	0.92134
1359.61772	0.92222
1357.56392	0.92289
1355.51012	0.92349
1353.45631	0.92396
1351.40251	0.92428
1349.34871	0.92470
1347.29491	0.92536
1345.24110	0.92617
1343.18730	0.92680
1341.13350	0.92712
1339.07969	0.92729
1337.02589	0.92721
1334.97209	0.92685
1332.91828	0.92634
1330.86448	0.92567
1328.81068	0.92516
1326.75687	0.92514
1324.70307	0.92550
1322.64927	0.92596
1320.59546	0.92628
1318.54166	0.92618
1316.48786	0.92571
1314.43405	0.92544
1312.38025	0.92550
1310.32645	0.92563
1308.27264	0.92599
1306.21884	0.92671
1304.16504	0.92736
1302.11123	0.92762
1300.05743	0.92783
1298.00363	0.92842
1295.94982	0.92897
1293.89602	0.92900
1291.84222	0.92874
1289.78842	0.92855
1287.73461	0.92832
1285.68081	0.92784
1283.62701	0.92721
1281.57320	0.92669
1279.51940	0.92636
1277.46560	0.92610
1275.41179	0.92578
1273.35799	0.92540
1271.30419	0.92509
1269.25038	0.92513
1267.19658	0.92545
1265.14278	0.92582
1263.08897	0.92622
1261.03517	0.92648
1258.98137	0.92639
1256.92756	0.92618
1254.87376	0.92598
1252.81996	0.92582
1250.76615	0.92559
1248.71235	0.92502
1246.65855	0.92425
1244.60474	0.92374
1242.55094	0.92358
1240.49714	0.92352
1238.44334	0.92325
1236.38953	0.92268
1234.33573	0.92211
1232.28193	0.92161
1230.22812	0.92080
1228.17432	0.91976
1226.12052	0.91894
1224.06671	0.91828
1222.01291	0.91741
1219.95911	0.91617
1217.90530	0.91456
1215.85150	0.91272
1213.79770	0.91080
1211.74389	0.90851
1209.69009	0.90591
1207.63629	0.90350
1205.58248	0.90096
1203.52868	0.89789
1201.47488	0.89471
1199.42107	0.89161
1197.36727	0.88821
1195.31347	0.88474
1193.25966	0.88147
1191.20586	0.87805
1189.15206	0.87442
1187.09825	0.87048
1185.04445	0.86590
1182.99065	0.86100
1180.93685	0.85666
1178.88304	0.85382
1176.82924	0.85221
1174.77544	0.85054
1172.72163	0.84806
1170.66783	0.84520
1168.61403	0.84249
1166.56022	0.83984
1164.50642	0.83747
1162.45262	0.83543
1160.39881	0.83308
1158.34501	0.82996
1156.29121	0.82626
1154.23740	0.82295
1152.18360	0.82105
1150.12980	0.82031
1148.07599	0.81961
1146.02219	0.81850
1143.96839	0.81708
1141.91458	0.81540
1139.86078	0.81355
1137.80698	0.81154
1135.75317	0.80924
1133.69937	0.80664
1131.64557	0.80354
1129.59176	0.79982
1127.53796	0.79567
1125.48416	0.79097
1123.43036	0.78539
1121.37655	0.77916
1119.32275	0.77258
1117.26895	0.76568
1115.21514	0.75878
1113.16134	0.75240
1111.10754	0.74645
1109.05373	0.74075
1106.99993	0.73566
1104.94613	0.73141
1102.89232	0.72772
1100.83852	0.72425
1098.78472	0.72090
1096.73091	0.71782
1094.67711	0.71502
1092.62331	0.71216
1090.56950	0.70909
1088.51570	0.70614
1086.46190	0.70337
1084.40809	0.70049
1082.35429	0.69761
1080.30049	0.69504
1078.24668	0.69244
1076.19288	0.68890
1074.13908	0.68416
1072.08528	0.67885
1070.03147	0.67374
1067.97767	0.66903
1065.92387	0.66480
1063.87006	0.66121
1061.81626	0.65773
1059.76246	0.65372
1057.70865	0.64918
1055.65485	0.64407
1053.60105	0.63789
1051.54724	0.63064
1049.49344	0.62298
1047.43964	0.61488
1045.38583	0.60606
1043.33203	0.59689
1041.27823	0.58754
1039.22442	0.57780
1037.17062	0.56755
1035.11682	0.55648
1033.06301	0.54452
1031.00921	0.53282
1028.95541	0.52306
1026.90160	0.51642
1024.84780	0.51344
1022.79400	0.51302
1020.74019	0.51289
1018.68639	0.51174
1016.63259	0.50992
1014.57879	0.50802
1012.52498	0.50597
1010.47118	0.50354
1008.41738	0.50108
1006.36357	0.49902
1004.30977	0.49761
1002.25597	0.49765
1000.20216	0.49996
998.14836	0.50403
996.09456	0.50857
994.04075	0.51318
991.98695	0.51829
989.93315	0.52403
987.87934	0.53031
985.82554	0.53734
983.77174	0.54513
981.71793	0.55361
979.66413	0.56333
977.61033	0.57455
975.55652	0.58695
973.50272	0.60002
971.44892	0.61273
969.39511	0.62442
967.34131	0.63540
965.28751	0.64603
963.23371	0.65641
961.17990	0.66653
959.12610	0.67622
957.07230	0.68512
955.01849	0.69297
952.96469	0.69974
950.91089	0.70558
948.85708	0.71078
946.80328	0.71546
944.74948	0.71962
942.69567	0.72353
940.64187	0.72747
938.58807	0.73147
936.53426	0.73528
934.48046	0.73895
932.42666	0.74286
930.37285	0.74680
928.31905	0.75014
926.26525	0.75254
924.21144	0.75405
922.15764	0.75471
920.10384	0.75438
918.05003	0.75292
915.99623	0.75008
913.94243	0.74612
911.88862	0.74256
909.83482	0.74122
907.78102	0.74296
905.72722	0.74803
903.67341	0.75652
901.61961	0.76777
899.56581	0.78013
897.51200	0.79138
895.45820	0.80060
893.40440	0.80794
891.35059	0.81353
889.29679	0.81858
887.24299	0.82352
885.18918	0.82746
883.13538	0.83016
881.08158	0.83204
879.02777	0.83367
876.97397	0.83573
874.92017	0.83899
872.86636	0.84342
870.81256	0.84835
868.75876	0.85294
866.70495	0.85612
864.65115	0.85818
862.59735	0.86039
860.54354	0.86298
858.48974	0.86559
856.43594	0.86825
854.38213	0.87073
852.32833	0.87243
850.27453	0.87286
848.22073	0.87176
846.16692	0.86982
844.11312	0.86789
842.05932	0.86614
840.00551	0.86474
837.95171	0.86412
835.89791	0.86415
833.84410	0.86373
831.79030	0.86305
829.73650	0.86343
827.68269	0.86421
825.62889	0.86469
823.57509	0.86590
821.52128	0.86787
819.46748	0.86969
817.41368	0.87099
815.35987	0.87116
813.30607	0.87026
811.25227	0.86834
809.19846	0.86434
807.14466	0.85857
805.09086	0.85256
803.03705	0.84687
800.98325	0.84251
798.92945	0.84076
796.87565	0.84125
794.82184	0.84274
792.76804	0.84422
790.71424	0.84489
788.66043	0.84400
786.60663	0.84138
784.55283	0.83775
782.49902	0.83352
780.44522	0.82867
778.39142	0.82353
776.33761	0.81795
774.28381	0.81120
772.23001	0.80246
770.17620	0.79138
768.12240	0.77867
766.06860	0.76482
764.01479	0.74957
761.96099	0.73315
759.90719	0.71726
757.85338	0.70442
755.79958	0.69678
753.74578	0.69454
751.69197	0.69532
749.63817	0.69688
747.58437	0.70007
745.53056	0.70833
743.47676	0.72358
741.42296	0.74334
739.36916	0.76342
737.31535	0.78145
735.26155	0.79697
733.20775	0.81018
731.15394	0.82074
729.10014	0.82806
727.04634	0.83314
724.99253	0.83786
722.93873	0.84269
720.88493	0.84679
718.83112	0.84935
716.77732	0.84956
714.72352	0.84694
712.66971	0.84134
710.61591	0.82919
708.56211	0.80411
706.50830	0.76214
704.45450	0.70304
702.40070	0.62964
700.34689	0.54728
698.29309	0.46721
696.23929	0.41496
694.18548	0.42075
692.13168	0.48267
690.07788	0.56190
688.02408	0.62526
685.97027	0.66731
683.91647	0.69503
681.86267	0.71374
679.80886	0.72665
677.75506	0.73591
675.70126	0.74290
673.64745	0.74901
671.59365	0.75460
669.53985	0.75996
667.48604	0.76469
665.43224	0.76677
663.37844	0.76821
661.32463	0.77023
659.27083	0.77176
657.21703	0.77205
655.16322	0.77135
653.10942	0.77049
651.05562	0.77011
649.00181	0.77004
646.94801	0.77105
644.89421	0.77382
642.84040	0.77697
640.78660	0.77967
638.73280	0.78220
636.67899	0.78368
634.62519	0.78334
632.57139	0.78254
630.51759	0.78263
628.46378	0.78305
626.40998	0.78293
624.35618	0.78198
622.30237	0.77940
620.24857	0.77597
618.19477	0.77347
616.14096	0.77141
614.08716	0.76948
612.03336	0.76774
609.97955	0.76586
607.92575	0.76419
605.87195	0.76195
603.81814	0.75813
601.76434	0.75421
599.71054	0.75169
597.65673	0.74883
595.60293	0.74479
593.54913	0.74141
591.49532	0.73893
589.44152	0.73701
587.38772	0.73613
585.33391	0.73491
583.28011	0.73161
581.22631	0.72708
579.17250	0.72309
577.11870	0.71895
575.06490	0.71351
573.01110	0.70772
570.95729	0.70178
568.90349	0.69536
566.84969	0.68896
564.79588	0.68201
562.74208	0.67276
560.68828	0.66219
558.63447	0.65329
556.58067	0.64558
554.52687	0.63686
552.47306	0.62617
550.41926	0.61465
548.36546	0.60408
546.31165	0.59250
544.25785	0.57707
542.20405	0.55978
540.15024	0.54461
538.09644	0.53341
536.04264	0.52641
533.98883	0.52333
531.93503	0.52387
529.88123	0.52777
527.82742	0.53542
525.77362	0.54582
523.71982	0.55519
521.66602	0.56321
519.61221	0.57165
517.55841	0.57934
515.50461	0.58629
513.45080	0.59386
511.39700	0.60134
509.34320	0.60768
507.28939	0.61231
505.23559	0.61619
503.18179	0.62041
501.12798	0.62370
499.07418	0.62505
497.02038	0.62433
494.96657	0.62203
492.91277	0.61935
490.85897	0.61390
488.80516	0.60386
486.75136	0.59126
484.69756	0.57602
482.64375	0.55918
480.58995	0.54300
478.53615	0.52587
476.48234	0.50872
474.42854	0.49508
472.37474	0.48391
470.32093	0.47454
468.26713	0.46740
466.21333	0.46354
464.15953	0.46658
462.10572	0.47423
460.05192	0.48128
457.99812	0.48862
455.94431	0.49788
453.89051	0.50840
451.83671	0.51864
449.78290	0.52500
447.72910	0.52985
445.67530	0.53693
443.62149	0.54264
441.56769	0.54311
439.51389	0.54014
437.46008	0.53670
435.40628	0.53246
433.35248	0.52755
431.29867	0.52423
429.24487	0.52347
427.19107	0.52395
425.13726	0.52557
423.08346	0.52876
421.02966	0.53172
418.97585	0.53684
416.92205	0.54373
414.86825	0.54741
412.81445	0.55055
410.76064	0.55522
408.70684	0.56217
406.65304	0.57355
404.59923	0.58506
402.54543	0.58959
400.49163	0.58988
398.43782	0.59060
