3996.70104	0.99634
3994.64724	0.99586
3992.59344	0.99529
3990.53964	0.99523
3988.48583	0.99526
3986.43203	0.99501
3984.37823	0.99494
3982.32442	0.99531
3980.27062	0.99578
3978.21682	0.99590
3976.16301	0.99572
3974.10921	0.99578
3972.05541	0.99620
3970.00160	0.99644
3967.94780	0.99618
3965.89400	0.99564
3963.84019	0.99514
3961.78639	0.99480
3959.73259	0.99449
3957.67878	0.99435
3955.62498	0.99452
3953.57118	0.99489
3951.51737	0.99532
3949.46357	0.99529
3947.40977	0.99480
3945.35596	0.99459
3943.30216	0.99460
3941.24836	0.99464
3939.19455	0.99472
3937.14075	0.99469
3935.08695	0.99473
3933.03315	0.99478
3930.97934	0.99472
3928.92554	0.99481
3926.87174	0.99475
3924.81793	0.99433
3922.76413	0.99417
3920.71033	0.99471
3918.65652	0.99512
3916.60272	0.99485
3914.54892	0.99473
3912.49511	0.99495
3910.44131	0.99513
3908.38751	0.99535
3906.33370	0.99555
3904.27990	0.99541
3902.22610	0.99499
3900.17229	0.99472
3898.11849	0.99480
3896.06469	0.99509
3894.01088	0.99530
3891.95708	0.99533
3889.90328	0.99527
3887.84947	0.99538
3885.79567	0.99557
3883.74187	0.99542
3881.68807	0.99512
3879.63426	0.99522
3877.58046	0.99546
3875.52666	0.99525
3873.47285	0.99488
3871.41905	0.99503
3869.36525	0.99543
3867.31144	0.99551
3865.25764	0.99535
3863.20384	0.99509
3861.15003	0.99515
3859.09623	0.99547
3857.04243	0.99566
3854.98862	0.99534
3852.93482	0.99458
3850.88102	0.99467
3848.82721	0.99495
3846.77341	0.99518
3844.71961	0.99559
3842.66580	0.99568
3840.61200	0.99497
3838.55820	0.99445
3836.50439	0.99524
3834.45059	0.99623
3832.39679	0.99646
3830.34298	0.99564
3828.28918	0.99440
3826.23538	0.99408
3824.18158	0.99456
3822.12777	0.99460
3820.07397	0.99426
3818.02017	0.99445
3815.96636	0.99538
3813.91256	0.99641
3811.85876	0.99661
3809.80495	0.99602
3807.75115	0.99517
3805.69735	0.99498
3803.64354	0.99542
3801.58974	0.99572
3799.53594	0.99563
3797.48213	0.99571
3795.42833	0.99601
3793.37453	0.99579
3791.32072	0.99524
3789.26692	0.99487
3787.21312	0.99487
3785.15931	0.99526
3783.10551	0.99566
3781.05171	0.99563
3778.99790	0.99511
3776.94410	0.99489
3774.89030	0.99538
3772.83650	0.99577
3770.78269	0.99578
3768.72889	0.99582
3766.67509	0.99585
3764.62128	0.99571
3762.56748	0.99538
3760.51368	0.99512
3758.45987	0.99503
3756.40607	0.99527
3754.35227	0.99593
3752.29846	0.99627
3750.24466	0.99539
3748.19086	0.99427
3746.13705	0.99394
3744.08325	0.99394
3742.02945	0.99365
3739.97564	0.99356
3737.92184	0.99411
3735.86804	0.99472
3733.81423	0.99523
3731.76043	0.99582
3729.70663	0.99532
3727.65282	0.99422
3725.59902	0.99411
3723.54522	0.99468
3721.49141	0.99488
3719.43761	0.99465
3717.38381	0.99414
3715.33001	0.99391
3713.27620	0.99361
3711.22240	0.99220
3709.16860	0.99107
3707.11479	0.99102
3705.06099	0.99127
3703.00719	0.99140
3700.95338	0.99093
3698.89958	0.99028
3696.84578	0.98978
3694.79197	0.98928
3692.73817	0.98902
3690.68437	0.98947
3688.63056	0.99049
3686.57676	0.99062
3684.52296	0.99001
3682.46915	0.98939
3680.41535	0.98913
3678.36155	0.98944
3676.30774	0.99014
3674.25394	0.99005
3672.20014	0.98894
3670.14633	0.98828
3668.09253	0.98857
3666.03873	0.98883
3663.98492	0.98873
3661.93112	0.98863
3659.87732	0.98836
3657.82352	0.98760
3655.76971	0.98713
3653.71591	0.98784
3651.66211	0.98885
3649.60830	0.98831
3647.55450	0.98658
3645.50070	0.98631
3643.44689	0.98659
3641.39309	0.98640
3639.33929	0.98596
3637.28548	0.98537
3635.23168	0.98468
3633.17788	0.98403
3631.12407	0.98341
3629.07027	0.98298
3627.01647	0.98324
3624.96266	0.98373
3622.90886	0.98404
3620.85506	0.98368
3618.80125	0.98238
3616.74745	0.98203
3614.69365	0.98261
3612.63984	0.98280
3610.58604	0.98348
3608.53224	0.98493
3606.47844	0.98510
3604.42463	0.98415
3602.37083	0.98373
3600.31703	0.98343
3598.26322	0.98273
3596.20942	0.98250
3594.15562	0.98298
3592.10181	0.98300
3590.04801	0.98295
3587.99421	0.98392
3585.94040	0.98521
3583.88660	0.98545
3581.83280	0.98467
3579.77899	0.98377
3577.72519	0.98322
3575.67139	0.98328
3573.61758	0.98396
3571.56378	0.98453
3569.50998	0.98463
3567.45617	0.98419
3565.40237	0.98334
3563.34857	0.98299
3561.29476	0.98347
3559.24096	0.98389
3557.18716	0.98398
3555.13335	0.98405
3553.07955	0.98384
3551.02575	0.98346
3548.97195	0.98357
3546.91814	0.98395
3544.86434	0.98377
3542.81054	0.98333
3540.75673	0.98326
3538.70293	0.98322
3536.64913	0.98314
3534.59532	0.98345
3532.54152	0.98364
3530.48772	0.98318
3528.43391	0.98303
3526.38011	0.98367
3524.32631	0.98384
3522.27250	0.98345
3520.21870	0.98353
3518.16490	0.98408
3516.11109	0.98435
3514.05729	0.98398
3512.00349	0.98327
3509.94968	0.98261
3507.89588	0.98239
3505.84208	0.98250
3503.78827	0.98261
3501.73447	0.98279
3499.68067	0.98282
3497.62687	0.98267
3495.57306	0.98272
3493.51926	0.98270
3491.46546	0.98221
3489.41165	0.98154
3487.35785	0.98130
3485.30405	0.98163
3483.25024	0.98208
3481.19644	0.98252
3479.14264	0.98285
3477.08883	0.98290
3475.03503	0.98308
3472.98123	0.98338
3470.92742	0.98346
3468.87362	0.98346
3466.81982	0.98336
3464.76601	0.98297
3462.71221	0.98243
3460.65841	0.98202
3458.60460	0.98174
3456.55080	0.98153
3454.49700	0.98167
3452.44319	0.98197
3450.38939	0.98220
3448.33559	0.98261
3446.28178	0.98281
3444.22798	0.98240
3442.17418	0.98219
3440.12038	0.98242
3438.06657	0.98215
3436.01277	0.98137
3433.95897	0.98098
3431.90516	0.98140
3429.85136	0.98208
3427.79756	0.98214
3425.74375	0.98168
3423.68995	0.98147
3421.63615	0.98179
3419.58234	0.98165
3417.52854	0.98075
3415.47474	0.98012
3413.42093	0.98024
3411.36713	0.98084
3409.31333	0.98127
3407.25952	0.98131
3405.20572	0.98140
3403.15192	0.98143
3401.09811	0.98117
3399.04431	0.98104
3396.99051	0.98080
3394.93670	0.98027
3392.88290	0.98039
3390.82910	0.98111
3388.77529	0.98136
3386.72149	0.98105
3384.66769	0.98090
3382.61389	0.98114
3380.56008	0.98125
3378.50628	0.98132
3376.45248	0.98176
3374.39867	0.98219
3372.34487	0.98233
3370.29107	0.98242
3368.23726	0.98216
3366.18346	0.98155
3364.12966	0.98122
3362.07585	0.98129
3360.02205	0.98148
3357.96825	0.98163
3355.91444	0.98182
3353.86064	0.98202
3351.80684	0.98178
3349.75303	0.98121
3347.69923	0.98131
3345.64543	0.98189
3343.59162	0.98184
3341.53782	0.98154
3339.48402	0.98193
3337.43021	0.98290
3335.37641	0.98351
3333.32261	0.98342
3331.26881	0.98312
3329.21500	0.98271
3327.16120	0.98252
3325.10740	0.98291
3323.05359	0.98345
3320.99979	0.98345
3318.94599	0.98285
3316.89218	0.98255
3314.83838	0.98300
3312.78458	0.98383
3310.73077	0.98464
3308.67697	0.98470
3306.62317	0.98395
3304.56936	0.98339
3302.51556	0.98327
3300.46176	0.98339
3298.40795	0.98389
3296.35415	0.98464
3294.30035	0.98490
3292.24654	0.98417
3290.19274	0.98332
3288.13894	0.98325
3286.08513	0.98360
3284.03133	0.98388
3281.97753	0.98419
3279.92372	0.98443
3277.86992	0.98408
3275.81612	0.98373
3273.76232	0.98436
3271.70851	0.98527
3269.65471	0.98527
3267.60091	0.98461
3265.54710	0.98416
3263.49330	0.98421
3261.43950	0.98446
3259.38569	0.98470
3257.33189	0.98491
3255.27809	0.98531
3253.22428	0.98586
3251.17048	0.98611
3249.11668	0.98578
3247.06287	0.98515
3245.00907	0.98493
3242.95527	0.98507
3240.90146	0.98525
3238.84766	0.98560
3236.79386	0.98578
3234.74005	0.98575
3232.68625	0.98606
3230.63245	0.98667
3228.57864	0.98707
3226.52484	0.98720
3224.47104	0.98704
3222.41724	0.98664
3220.36343	0.98656
3218.30963	0.98677
3216.25583	0.98675
3214.20202	0.98632
3212.14822	0.98586
3210.09442	0.98545
3208.04061	0.98508
3205.98681	0.98541
3203.93301	0.98635
3201.87920	0.98691
3199.82540	0.98692
3197.77160	0.98687
3195.71779	0.98701
3193.66399	0.98740
3191.61019	0.98761
3189.55638	0.98738
3187.50258	0.98711
3185.44878	0.98721
3183.39497	0.98785
3181.34117	0.98848
3179.28737	0.98845
3177.23356	0.98822
3175.17976	0.98838
3173.12596	0.98849
3171.07215	0.98810
3169.01835	0.98798
3166.96455	0.98872
3164.91075	0.98938
3162.85694	0.98932
3160.80314	0.98881
3158.74934	0.98817
3156.69553	0.98813
3154.64173	0.98868
3152.58793	0.98900
3150.53412	0.98912
3148.48032	0.98927
3146.42652	0.98926
3144.37271	0.98915
3142.31891	0.98932
3140.26511	0.98972
3138.21130	0.98977
3136.15750	0.98951
3134.10370	0.98950
3132.04989	0.99000
3129.99609	0.99060
3127.94229	0.99050
3125.88848	0.99007
3123.83468	0.98997
3121.78088	0.98980
3119.72707	0.98931
3117.67327	0.98901
3115.61947	0.98909
3113.56566	0.98910
3111.51186	0.98904
3109.45806	0.98920
3107.40426	0.98957
3105.35045	0.99013
3103.29665	0.99075
3101.24285	0.99102
3099.18904	0.99089
3097.13524	0.99073
3095.08144	0.99044
3093.02763	0.98998
3090.97383	0.99001
3088.92003	0.99062
3086.86622	0.99092
3084.81242	0.99063
3082.75862	0.99041
3080.70481	0.99057
3078.65101	0.99108
3076.59721	0.99156
3074.54340	0.99152
3072.48960	0.99123
3070.43580	0.99125
3068.38199	0.99159
3066.32819	0.99193
3064.27439	0.99188
3062.22058	0.99147
3060.16678	0.99104
3058.11298	0.99084
3056.05918	0.99086
3054.00537	0.99097
3051.95157	0.99108
3049.89777	0.99127
3047.84396	0.99160
3045.79016	0.99205
3043.73636	0.99231
3041.68255	0.99206
3039.62875	0.99172
3037.57495	0.99149
3035.52114	0.99133
3033.46734	0.99142
3031.41354	0.99167
3029.35973	0.99177
3027.30593	0.99167
3025.25213	0.99154
3023.19832	0.99142
3021.14452	0.99122
3019.09072	0.99103
3017.03691	0.99125
3014.98311	0.99189
3012.92931	0.99247
3010.87550	0.99295
3008.82170	0.99311
3006.76790	0.99257
3004.71409	0.99180
3002.66029	0.99161
3000.60649	0.99173
2998.55269	0.99152
2996.49888	0.99112
2994.44508	0.99095
2992.39128	0.99109
2990.33747	0.99127
2988.28367	0.99108
2986.22987	0.99054
2984.17606	0.98973
2982.12226	0.98879
2980.06846	0.98835
2978.01465	0.98839
2975.96085	0.98821
2973.90705	0.98741
2971.85324	0.98656
2969.79944	0.98652
2967.74564	0.98704
2965.69183	0.98720
2963.63803	0.98698
2961.58423	0.98698
2959.53042	0.98723
2957.47662	0.98756
2955.42282	0.98778
2953.36901	0.98771
2951.31521	0.98755
2949.26141	0.98749
2947.20761	0.98740
2945.15380	0.98715
2943.10000	0.98670
2941.04620	0.98608
2938.99239	0.98549
2936.93859	0.98510
2934.88479	0.98501
2932.83098	0.98483
2930.77718	0.98415
2928.72338	0.98335
2926.66957	0.98277
2924.61577	0.98224
2922.56197	0.98147
2920.50816	0.98019
2918.45436	0.97922
2916.40056	0.97947
2914.34675	0.97991
2912.29295	0.98008
2910.23915	0.98040
2908.18534	0.98077
2906.13154	0.98111
2904.07774	0.98171
2902.02393	0.98292
2899.97013	0.98439
2897.91633	0.98556
2895.86252	0.98655
2893.80872	0.98757
2891.75492	0.98832
2889.70112	0.98870
2887.64731	0.98912
2885.59351	0.98983
2883.53971	0.99020
2881.48590	0.98988
2879.43210	0.98977
2877.37830	0.99012
2875.32449	0.99039
2873.27069	0.99063
2871.21689	0.99081
2869.16308	0.99083
2867.10928	0.99079
2865.05548	0.99067
2863.00167	0.99063
2860.94787	0.99066
2858.89407	0.99057
2856.84026	0.99034
2854.78646	0.98988
2852.73266	0.98925
2850.67885	0.98873
2848.62505	0.98867
2846.57125	0.98913
2844.51744	0.98966
2842.46364	0.99013
2840.40984	0.99074
2838.35603	0.99132
2836.30223	0.99159
2834.24843	0.99166
2832.19463	0.99177
2830.14082	0.99194
2828.08702	0.99203
2826.03322	0.99193
2823.97941	0.99180
2821.92561	0.99207
2819.87181	0.99260
2817.81800	0.99289
2815.76420	0.99277
2813.71040	0.99244
2811.65659	0.99227
2809.60279	0.99245
2807.54899	0.99284
2805.49518	0.99314
2803.44138	0.99314
2801.38758	0.99292
2799.33377	0.99284
2797.27997	0.99293
2795.22617	0.99298
2793.17236	0.99304
2791.11856	0.99308
2789.06476	0.99300
2787.01095	0.99320
2784.95715	0.99376
2782.90335	0.99388
2780.84955	0.99348
2778.79574	0.99352
2776.74194	0.99410
2774.68814	0.99465
2772.63433	0.99488
2770.58053	0.99457
2768.52673	0.99397
2766.47292	0.99366
2764.41912	0.99359
2762.36532	0.99366
2760.31151	0.99408
2758.25771	0.99454
2756.20391	0.99471
2754.15010	0.99475
2752.09630	0.99471
2750.04250	0.99440
2747.98869	0.99403
2745.93489	0.99399
2743.88109	0.99415
2741.82728	0.99426
2739.77348	0.99435
2737.71968	0.99418
2735.66587	0.99375
2733.61207	0.99346
2731.55827	0.99333
2729.50446	0.99339
2727.45066	0.99360
2725.39686	0.99374
2723.34306	0.99384
2721.28925	0.99383
2719.23545	0.99383
2717.18165	0.99392
2715.12784	0.99389
2713.07404	0.99375
2711.02024	0.99384
2708.96643	0.99413
2706.91263	0.99430
2704.85883	0.99431
2702.80502	0.99423
2700.75122	0.99415
2698.69742	0.99415
2696.64361	0.99401
2694.58981	0.99370
2692.53601	0.99374
2690.48220	0.99411
2688.42840	0.99423
2686.37460	0.99430
2684.32079	0.99452
2682.26699	0.99463
2680.21319	0.99480
2678.15938	0.99490
2676.10558	0.99463
2674.05178	0.99441
2671.99797	0.99430
2669.94417	0.99414
2667.89037	0.99428
2665.83657	0.99457
2663.78276	0.99463
2661.72896	0.99444
2659.67516	0.99417
2657.62135	0.99392
2655.56755	0.99373
2653.51375	0.99354
2651.45994	0.99345
2649.40614	0.99373
2647.35234	0.99418
2645.29853	0.99443
2643.24473	0.99433
2641.19093	0.99407
2639.13712	0.99390
2637.08332	0.99376
2635.02952	0.99393
2632.97571	0.99420
2630.92191	0.99395
2628.86811	0.99383
2626.81430	0.99407
2624.76050	0.99399
2622.70670	0.99370
2620.65289	0.99368
2618.59909	0.99376
2616.54529	0.99371
2614.49149	0.99390
2612.43768	0.99468
2610.38388	0.99547
2608.33008	0.99544
2606.27627	0.99466
2604.22247	0.99400
2602.16867	0.99397
2600.11486	0.99411
2598.06106	0.99409
2596.00726	0.99421
2593.95345	0.99433
2591.89965	0.99449
2589.84585	0.99474
2587.79204	0.99453
2585.73824	0.99399
2583.68444	0.99383
2581.63063	0.99388
2579.57683	0.99388
2577.52303	0.99412
2575.46922	0.99433
2573.41542	0.99442
2571.36162	0.99477
2569.30781	0.99510
2567.25401	0.99531
2565.20021	0.99521
2563.14640	0.99444
2561.09260	0.99386
2559.03880	0.99405
2556.98500	0.99443
2554.93119	0.99495
2552.87739	0.99516
2550.82359	0.99452
2548.76978	0.99396
2546.71598	0.99397
2544.66218	0.99428
2542.60837	0.99485
2540.55457	0.99500
2538.50077	0.99434
2536.44696	0.99329
2534.39316	0.99272
2532.33936	0.99314
2530.28555	0.99402
2528.23175	0.99446
2526.17795	0.99419
2524.12414	0.99402
2522.07034	0.99431
2520.01654	0.99430
2517.96273	0.99410
2515.90893	0.99419
2513.85513	0.99425
2511.80132	0.99416
2509.74752	0.99407
2507.69372	0.99410
2505.63992	0.99443
2503.58611	0.99488
2501.53231	0.99533
2499.47851	0.99587
2497.42470	0.99633
2495.37090	0.99630
2493.31710	0.99566
2491.26329	0.99507
2489.20949	0.99510
2487.15569	0.99543
2485.10188	0.99563
2483.04808	0.99594
2480.99428	0.99645
2478.94047	0.99625
2476.88667	0.99535
2474.83287	0.99496
2472.77906	0.99513
2470.72526	0.99519
2468.67146	0.99516
2466.61765	0.99550
2464.56385	0.99601
2462.51005	0.99635
2460.45624	0.99656
2458.40244	0.99672
2456.34864	0.99665
2454.29483	0.99594
2452.24103	0.99555
2450.18723	0.99628
2448.13343	0.99693
2446.07962	0.99655
2444.02582	0.99570
2441.97202	0.99517
2439.91821	0.99516
2437.86441	0.99514
2435.81061	0.99480
2433.75680	0.99462
2431.70300	0.99488
2429.64920	0.99532
2427.59539	0.99553
2425.54159	0.99562
2423.48779	0.99613
2421.43398	0.99634
2419.38018	0.99591
2417.32638	0.99574
2415.27257	0.99586
2413.21877	0.99593
2411.16497	0.99590
2409.11116	0.99565
2407.05736	0.99539
2405.00356	0.99560
2402.94975	0.99573
2400.89595	0.99533
2398.84215	0.99532
2396.78834	0.99559
2394.73454	0.99538
2392.68074	0.99522
2390.62694	0.99540
2388.57313	0.99528
2386.51933	0.99477
2384.46553	0.99438
2382.41172	0.99447
2380.35792	0.99497
2378.30412	0.99551
2376.25031	0.99542
2374.19651	0.99446
2372.14271	0.99368
2370.08890	0.99338
2368.03510	0.99317
2365.98130	0.99370
2363.92749	0.99474
2361.87369	0.99565
2359.81989	0.99653
2357.76608	0.99701
2355.71228	0.99667
2353.65848	0.99556
2351.60467	0.99438
2349.55087	0.99383
2347.49707	0.99397
2345.44326	0.99449
2343.38946	0.99477
2341.33566	0.99496
2339.28186	0.99546
2337.22805	0.99530
2335.17425	0.99425
2333.12045	0.99365
2331.06664	0.99434
2329.01284	0.99512
2326.95904	0.99415
2324.90523	0.99218
2322.85143	0.99164
2320.79763	0.99299
2318.74382	0.99433
2316.69002	0.99443
2314.63622	0.99391
2312.58241	0.99378
2310.52861	0.99456
2308.47481	0.99590
2306.42100	0.99610
2304.36720	0.99489
2302.31340	0.99373
2300.25959	0.99350
2298.20579	0.99393
2296.15199	0.99392
2294.09818	0.99347
2292.04438	0.99309
2289.99058	0.99274
2287.93677	0.99265
2285.88297	0.99271
2283.82917	0.99309
2281.77537	0.99436
2279.72156	0.99527
2277.66776	0.99477
2275.61396	0.99404
2273.56015	0.99366
2271.50635	0.99350
2269.45255	0.99371
2267.39874	0.99390
2265.34494	0.99408
2263.29114	0.99398
2261.23733	0.99296
2259.18353	0.99244
2257.12973	0.99329
2255.07592	0.99442
2253.02212	0.99443
2250.96832	0.99339
2248.91451	0.99294
2246.86071	0.99338
2244.80691	0.99401
2242.75310	0.99461
2240.69930	0.99443
2238.64550	0.99296
2236.59169	0.99215
2234.53789	0.99288
2232.48409	0.99311
2230.43029	0.99316
2228.37648	0.99465
2226.32268	0.99583
2224.26888	0.99549
2222.21507	0.99567
2220.16127	0.99700
2218.10747	0.99794
2216.05366	0.99749
2213.99986	0.99647
2211.94606	0.99580
2209.89225	0.99501
2207.83845	0.99458
2205.78465	0.99555
2203.73084	0.99634
2201.67704	0.99538
2199.62324	0.99483
2197.56943	0.99535
2195.51563	0.99463
2193.46183	0.99247
2191.40802	0.99085
2189.35422	0.99110
2187.30042	0.99334
2185.24661	0.99511
2183.19281	0.99445
2181.13901	0.99382
2179.08520	0.99429
2177.03140	0.99446
2174.97760	0.99422
2172.92380	0.99478
2170.86999	0.99488
2168.81619	0.99241
2166.76239	0.99079
2164.70858	0.99189
2162.65478	0.99288
2160.60098	0.99424
2158.54717	0.99593
2156.49337	0.99640
2154.43957	0.99824
2152.38576	0.99967
2150.33196	0.99693
2148.27816	0.99410
2146.22435	0.99492
2144.17055	0.99639
2142.11675	0.99711
2140.06294	0.99794
2138.00914	0.99702
2135.95534	0.99583
2133.90153	0.99760
2131.84773	0.99958
2129.79393	0.99959
2127.74012	0.99920
2125.68632	0.99941
2123.63252	0.99907
2121.57871	0.99781
2119.52491	0.99695
2117.47111	0.99634
2115.41731	0.99582
2113.36350	0.99611
2111.30970	0.99656
2109.25590	0.99613
2107.20209	0.99521
2105.14829	0.99464
2103.09449	0.99434
2101.04068	0.99409
2098.98688	0.99408
2096.93308	0.99471
2094.87927	0.99581
2092.82547	0.99657
2090.77167	0.99647
2088.71786	0.99588
2086.66406	0.99588
2084.61026	0.99625
2082.55645	0.99629
2080.50265	0.99671
2078.44885	0.99714
2076.39504	0.99657
2074.34124	0.99601
2072.28744	0.99652
2070.23363	0.99755
2068.17983	0.99805
2066.12603	0.99752
2064.07223	0.99700
2062.01842	0.99756
2059.96462	0.99826
2057.91082	0.99741
2055.85701	0.99591
2053.80321	0.99502
2051.74941	0.99407
2049.69560	0.99440
2047.64180	0.99591
2045.58800	0.99567
2043.53419	0.99431
2041.48039	0.99257
2039.42659	0.99152
2037.37278	0.99328
2035.31898	0.99565
2033.26518	0.99673
2031.21137	0.99653
2029.15757	0.99549
2027.10377	0.99620
2025.04996	0.99760
2022.99616	0.99795
2020.94236	0.99850
2018.88855	0.99817
2016.83475	0.99616
2014.78095	0.99445
2012.72714	0.99483
2010.67334	0.99587
2008.61954	0.99487
2006.56574	0.99375
2004.51193	0.99460
2002.45813	0.99576
2000.40433	0.99564
1998.35052	0.99424
1996.29672	0.99292
1994.24292	0.99251
1992.18911	0.99287
1990.13531	0.99494
1988.08151	0.99850
1986.02770	0.99924
1983.97390	0.99550
1981.92010	0.99134
1979.86629	0.99024
1977.81249	0.99288
1975.75869	0.99672
1973.70488	0.99884
1971.65108	0.99934
1969.59728	0.99849
1967.54347	0.99657
1965.48967	0.99489
1963.43587	0.99413
1961.38206	0.99430
1959.32826	0.99578
1957.27446	0.99828
1955.22066	0.99975
1953.16685	0.99880
1951.11305	0.99721
1949.05925	0.99663
1947.00544	0.99651
1944.95164	0.99628
1942.89784	0.99684
1940.84403	0.99834
1938.79023	0.99932
1936.73643	0.99923
1934.68262	0.99853
1932.62882	0.99778
1930.57502	0.99740
1928.52121	0.99733
1926.46741	0.99727
1924.41361	0.99693
1922.35980	0.99648
1920.30600	0.99635
1918.25220	0.99613
1916.19839	0.99563
1914.14459	0.99504
1912.09079	0.99467
1910.03698	0.99494
1907.98318	0.99523
1905.92938	0.99505
1903.87557	0.99439
1901.82177	0.99371
1899.76797	0.99434
1897.71417	0.99597
1895.66036	0.99622
1893.60656	0.99502
1891.55276	0.99424
1889.49895	0.99394
1887.44515	0.99391
1885.39135	0.99477
1883.33754	0.99579
1881.28374	0.99555
1879.22994	0.99473
1877.17613	0.99457
1875.12233	0.99478
1873.06853	0.99517
1871.01472	0.99560
1868.96092	0.99545
1866.90712	0.99484
1864.85331	0.99447
1862.79951	0.99464
1860.74571	0.99506
1858.69190	0.99511
1856.63810	0.99490
1854.58430	0.99496
1852.53049	0.99570
1850.47669	0.99660
1848.42289	0.99666
1846.36908	0.99580
1844.31528	0.99461
1842.26148	0.99402
1840.20768	0.99441
1838.15387	0.99541
1836.10007	0.99623
1834.04627	0.99616
1831.99246	0.99531
1829.93866	0.99440
1827.88486	0.99426
1825.83105	0.99467
1823.77725	0.99471
1821.72345	0.99441
1819.66964	0.99447
1817.61584	0.99503
1815.56204	0.99551
1813.50823	0.99532
1811.45443	0.99497
1809.40063	0.99499
1807.34682	0.99478
1805.29302	0.99424
1803.23922	0.99401
1801.18541	0.99408
1799.13161	0.99379
1797.07781	0.99324
1795.02400	0.99327
1792.97020	0.99396
1790.91640	0.99448
1788.86260	0.99432
1786.80879	0.99389
1784.75499	0.99367
1782.70119	0.99361
1780.64738	0.99357
1778.59358	0.99412
1776.53978	0.99497
1774.48597	0.99524
1772.43217	0.99468
1770.37837	0.99405
1768.32456	0.99405
1766.27076	0.99410
1764.21696	0.99376
1762.16315	0.99340
1760.10935	0.99354
1758.05555	0.99376
1756.00174	0.99346
1753.94794	0.99301
1751.89414	0.99310
1749.84033	0.99378
1747.78653	0.99415
1745.73273	0.99395
1743.67892	0.99359
1741.62512	0.99319
1739.57132	0.99307
1737.51751	0.99319
1735.46371	0.99324
1733.40991	0.99347
1731.35611	0.99353
1729.30230	0.99302
1727.24850	0.99257
1725.19470	0.99261
1723.14089	0.99302
1721.08709	0.99358
1719.03329	0.99392
1716.97948	0.99388
1714.92568	0.99362
1712.87188	0.99316
1710.81807	0.99273
1708.76427	0.99253
1706.71047	0.99275
1704.65666	0.99313
1702.60286	0.99303
1700.54906	0.99232
1698.49525	0.99150
1696.44145	0.99112
1694.38765	0.99099
1692.33384	0.99081
1690.28004	0.99046
1688.22624	0.99009
1686.17243	0.98975
1684.11863	0.98940
1682.06483	0.98936
1680.01103	0.98938
1677.95722	0.98931
1675.90342	0.98925
1673.84962	0.98916
1671.79581	0.98882
1669.74201	0.98814
1667.68821	0.98774
1665.63440	0.98786
1663.58060	0.98803
1661.52680	0.98802
1659.47299	0.98794
1657.41919	0.98791
1655.36539	0.98783
1653.31158	0.98752
1651.25778	0.98718
1649.20398	0.98724
1647.15017	0.98715
1645.09637	0.98665
1643.04257	0.98619
1640.98876	0.98595
1638.93496	0.98607
1636.88116	0.98634
1634.82735	0.98637
1632.77355	0.98630
1630.71975	0.98609
1628.66594	0.98594
1626.61214	0.98634
1624.55834	0.98677
1622.50454	0.98655
1620.45073	0.98632
1618.39693	0.98648
1616.34313	0.98676
1614.28932	0.98707
1612.23552	0.98755
1610.18172	0.98791
1608.12791	0.98774
1606.07411	0.98749
1604.02031	0.98759
1601.96650	0.98775
1599.91270	0.98757
1597.85890	0.98726
1595.80509	0.98731
1593.75129	0.98763
1591.69749	0.98782
1589.64368	0.98780
1587.58988	0.98772
1585.53608	0.98767
1583.48227	0.98754
1581.42847	0.98761
1579.37467	0.98801
1577.32086	0.98830
1575.26706	0.98827
1573.21326	0.98820
1571.15945	0.98823
1569.10565	0.98853
1567.05185	0.98914
1564.99805	0.98941
1562.94424	0.98916
1560.89044	0.98895
1558.83664	0.98911
1556.78283	0.98908
1554.72903	0.98872
1552.67523	0.98839
1550.62142	0.98809
1548.56762	0.98780
1546.51382	0.98786
1544.46001	0.98805
1542.40621	0.98769
1540.35241	0.98705
1538.29860	0.98721
1536.24480	0.98753
1534.19100	0.98744
1532.13719	0.98722
1530.08339	0.98723
1528.02959	0.98712
1525.97578	0.98661
1523.92198	0.98615
1521.86818	0.98605
1519.81437	0.98637
1517.76057	0.98667
1515.70677	0.98630
1513.65297	0.98560
1511.59916	0.98515
1509.54536	0.98499
1507.49156	0.98477
1505.43775	0.98420
1503.38395	0.98364
1501.33015	0.98320
1499.27634	0.98284
1497.22254	0.98232
1495.16874	0.98173
1493.11493	0.98145
1491.06113	0.98094
1489.00733	0.97973
1486.95352	0.97872
1484.89972	0.97820
1482.84592	0.97762
1480.79211	0.97700
1478.73831	0.97671
1476.68451	0.97634
1474.63070	0.97542
1472.57690	0.97417
1470.52310	0.97305
1468.46929	0.97238
1466.41549	0.97211
1464.36169	0.97197
1462.30788	0.97189
1460.25408	0.97201
1458.20028	0.97184
1456.14648	0.97069
1454.09267	0.96961
1452.03887	0.96899
1449.98507	0.96868
1447.93126	0.96828
1445.87746	0.96710
1443.82366	0.96545
1441.76985	0.96345
1439.71605	0.96080
1437.66225	0.95723
1435.60844	0.95337
1433.55464	0.95120
1431.50084	0.94975
1429.44703	0.94760
1427.39323	0.94542
1425.33943	0.94440
1423.28562	0.94500
1421.23182	0.94662
1419.17802	0.94862
1417.12421	0.95126
1415.07041	0.95412
1413.01661	0.95676
1410.96280	0.95940
1408.90900	0.96223
1406.85520	0.96495
1404.80139	0.96738
1402.74759	0.96936
1400.69379	0.97070
1398.63999	0.97170
1396.58618	0.97291
1394.53238	0.97383
1392.47858	0.97384
1390.42477	0.97377
1388.37097	0.97412
1386.31717	0.97438
1384.26336	0.97437
1382.20956	0.97464
1380.15576	0.97520
1378.10195	0.97561
1376.04815	0.97602
1373.99435	0.97659
1371.94054	0.97699
1369.88674	0.97715
1367.83294	0.97731
1365.77913	0.97749
1363.72533	0.97743
1361.67153	0.97702
1359.61772	0.97655
1357.56392	0.97637
1355.51012	0.97660
1353.45631	0.97695
1351.40251	0.97713
1349.34871	0.97726
1347.29491	0.97735
1345.24110	0.97707
1343.18730	0.97618
1341.13350	0.97468
1339.07969	0.97275
1337.02589	0.97085
1334.97209	0.96918
1332.91828	0.96790
1330.86448	0.96717
1328.81068	0.96679
1326.75687	0.96667
1324.70307	0.96686
1322.64927	0.96734
1320.59546	0.96820
1318.54166	0.96947
1316.48786	0.97079
1314.43405	0.97176
1312.38025	0.97244
1310.32645	0.97306
1308.27264	0.97374
1306.21884	0.97447
1304.16504	0.97518
1302.11123	0.97591
1300.05743	0.97667
1298.00363	0.97736
1295.94982	0.97806
1293.89602	0.97866
1291.84222	0.97896
1289.78842	0.97909
1287.73461	0.97904
1285.68081	0.97893
1283.62701	0.97877
1281.57320	0.97824
1279.51940	0.97737
1277.46560	0.97636
1275.41179	0.97530
1273.35799	0.97403
1271.30419	0.97232
1269.25038	0.97016
1267.19658	0.96770
1265.14278	0.96512
1263.08897	0.96253
1261.03517	0.96006
1258.98137	0.95809
1256.92756	0.95680
1254.87376	0.95584
1252.81996	0.95500
1250.76615	0.95433
1248.71235	0.95385
1246.65855	0.95353
1244.60474	0.95330
1242.55094	0.95317
1240.49714	0.95319
1238.44334	0.95360
1236.38953	0.95464
1234.33573	0.95591
1232.28193	0.95705
1230.22812	0.95827
1228.17432	0.95964
1226.12052	0.96137
1224.06671	0.96371
1222.01291	0.96602
1219.95911	0.96755
1217.90530	0.96827
1215.85150	0.96842
1213.79770	0.96815
1211.74389	0.96766
1209.69009	0.96706
1207.63629	0.96631
1205.58248	0.96543
1203.52868	0.96444
1201.47488	0.96323
1199.42107	0.96205
1197.36727	0.96142
1195.31347	0.96124
1193.25966	0.96106
1191.20586	0.96072
1189.15206	0.96033
1187.09825	0.96005
1185.04445	0.95981
1182.99065	0.95936
1180.93685	0.95858
1178.88304	0.95784
1176.82924	0.95734
1174.77544	0.95678
1172.72163	0.95625
1170.66783	0.95581
1168.61403	0.95506
1166.56022	0.95424
1164.50642	0.95392
1162.45262	0.95379
1160.39881	0.95363
1158.34501	0.95371
1156.29121	0.95382
1154.23740	0.95373
1152.18360	0.95358
1150.12980	0.95331
1148.07599	0.95287
1146.02219	0.95239
1143.96839	0.95189
1141.91458	0.95148
1139.86078	0.95118
1137.80698	0.95065
1135.75317	0.94975
1133.69937	0.94877
1131.64557	0.94767
1129.59176	0.94652
1127.53796	0.94566
1125.48416	0.94457
1123.43036	0.94277
1121.37655	0.94076
1119.32275	0.93881
1117.26895	0.93698
1115.21514	0.93532
1113.16134	0.93334
1111.10754	0.93092
1109.05373	0.92878
1106.99993	0.92715
1104.94613	0.92545
1102.89232	0.92369
1100.83852	0.92228
1098.78472	0.92123
1096.73091	0.92029
1094.67711	0.91925
1092.62331	0.91832
1090.56950	0.91756
1088.51570	0.91701
1086.46190	0.91684
1084.40809	0.91661
1082.35429	0.91594
1080.30049	0.91507
1078.24668	0.91435
1076.19288	0.91400
1074.13908	0.91362
1072.08528	0.91314
1070.03147	0.91279
1067.97767	0.91232
1065.92387	0.91147
1063.87006	0.91010
1061.81626	0.90864
1059.76246	0.90782
1057.70865	0.90728
1055.65485	0.90641
1053.60105	0.90523
1051.54724	0.90373
1049.49344	0.90192
1047.43964	0.90028
1045.38583	0.89899
1043.33203	0.89740
1041.27823	0.89494
1039.22442	0.89224
1037.17062	0.89016
1035.11682	0.88859
1033.06301	0.88713
1031.00921	0.88581
1028.95541	0.88507
1026.90160	0.88511
1024.84780	0.88514
1022.79400	0.88451
1020.74019	0.88346
1018.68639	0.88248
1016.63259	0.88149
1014.57879	0.88061
1012.52498	0.88013
1010.47118	0.87988
1008.41738	0.87983
1006.36357	0.87997
1004.30977	0.88010
1002.25597	0.88023
1000.20216	0.88050
998.14836	0.88106
996.09456	0.88196
994.04075	0.88286
991.98695	0.88365
989.93315	0.88475
987.87934	0.88601
985.82554	0.88712
983.77174	0.88822
981.71793	0.88915
979.66413	0.89012
977.61033	0.89139
975.55652	0.89273
973.50272	0.89419
971.44892	0.89601
969.39511	0.89791
967.34131	0.89940
965.28751	0.90059
963.23371	0.90201
961.17990	0.90385
959.12610	0.90597
957.07230	0.90806
955.01849	0.90995
952.96469	0.91181
950.91089	0.91378
948.85708	0.91588
946.80328	0.91796
944.74948	0.91953
942.69567	0.92036
940.64187	0.92131
938.58807	0.92299
936.53426	0.92449
934.48046	0.92528
932.42666	0.92591
930.37285	0.92696
928.31905	0.92877
926.26525	0.93058
924.21144	0.93134
922.15764	0.93147
920.10384	0.93184
918.05003	0.93260
915.99623	0.93363
913.94243	0.93478
911.88862	0.93595
909.83482	0.93718
907.78102	0.93846
905.72722	0.94041
903.67341	0.94310
901.61961	0.94571
899.56581	0.94816
897.51200	0.95033
895.45820	0.95153
893.40440	0.95205
891.35059	0.95258
889.29679	0.95317
887.24299	0.95344
885.18918	0.95270
883.13538	0.95032
881.08158	0.94659
879.02777	0.94235
876.97397	0.93907
874.92017	0.93860
872.86636	0.94127
870.81256	0.94598
868.75876	0.95116
866.70495	0.95505
864.65115	0.95702
862.59735	0.95819
860.54354	0.95951
858.48974	0.96073
856.43594	0.96181
854.38213	0.96276
852.32833	0.96306
850.27453	0.96241
848.22073	0.96143
846.16692	0.96159
844.11312	0.96223
842.05932	0.96187
840.00551	0.96125
837.95171	0.96106
835.89791	0.96128
833.84410	0.96176
831.79030	0.96182
829.73650	0.96171
827.68269	0.96235
825.62889	0.96345
823.57509	0.96520
821.52128	0.96735
819.46748	0.96848
817.41368	0.96884
815.35987	0.96932
813.30607	0.96978
811.25227	0.96985
809.19846	0.96916
807.14466	0.96784
805.09086	0.96611
803.03705	0.96375
800.98325	0.96203
798.92945	0.96265
796.87565	0.96453
794.82184	0.96564
792.76804	0.96578
790.71424	0.96574
788.66043	0.96585
786.60663	0.96570
784.55283	0.96502
782.49902	0.96405
780.44522	0.96302
778.39142	0.96257
776.33761	0.96311
774.28381	0.96408
772.23001	0.96429
770.17620	0.96356
768.12240	0.96326
766.06860	0.96346
764.01479	0.96311
761.96099	0.96205
759.90719	0.96078
757.85338	0.96046
755.79958	0.96138
753.74578	0.96195
751.69197	0.96171
749.63817	0.96155
747.58437	0.96181
745.53056	0.96236
743.47676	0.96297
741.42296	0.96378
739.36916	0.96416
737.31535	0.96357
735.26155	0.96282
733.20775	0.96222
731.15394	0.96164
729.10014	0.96106
727.04634	0.96039
724.99253	0.95993
722.93873	0.95953
720.88493	0.95867
718.83112	0.95767
716.77732	0.95643
714.72352	0.95451
712.66971	0.95221
710.61591	0.95021
708.56211	0.94931
706.50830	0.94913
704.45450	0.94824
702.40070	0.94616
700.34689	0.94398
698.29309	0.94248
696.23929	0.94108
694.18548	0.93977
692.13168	0.93951
690.07788	0.93989
688.02408	0.93927
685.97027	0.93778
683.91647	0.93710
681.86267	0.93748
679.80886	0.93786
677.75506	0.93796
675.70126	0.93816
673.64745	0.93901
671.59365	0.94062
669.53985	0.94196
667.48604	0.94221
665.43224	0.94223
663.37844	0.94190
661.32463	0.94020
659.27083	0.93787
657.21703	0.93656
655.16322	0.93513
653.10942	0.93195
651.05562	0.92850
649.00181	0.92607
646.94801	0.92404
644.89421	0.92278
642.84040	0.92232
640.78660	0.92119
638.73280	0.91983
636.67899	0.91965
634.62519	0.92036
632.57139	0.92081
630.51759	0.92007
628.46378	0.91875
626.40998	0.91749
624.35618	0.91564
622.30237	0.91335
620.24857	0.91096
618.19477	0.90789
616.14096	0.90388
614.08716	0.90034
612.03336	0.89803
609.97955	0.89585
607.92575	0.89523
605.87195	0.89784
603.81814	0.90213
601.76434	0.90590
599.71054	0.90854
597.65673	0.91104
595.60293	0.91360
593.54913	0.91552
591.49532	0.91671
589.44152	0.91732
587.38772	0.91765
585.33391	0.91809
583.28011	0.91914
581.22631	0.92098
579.17250	0.92202
577.11870	0.92136
575.06490	0.92172
573.01110	0.92411
570.95729	0.92618
568.90349	0.92726
566.84969	0.92723
564.79588	0.92604
562.74208	0.92509
560.68828	0.92462
558.63447	0.92438
556.58067	0.92369
554.52687	0.92165
552.47306	0.91989
550.41926	0.91969
548.36546	0.91963
546.31165	0.91801
544.25785	0.91516
542.20405	0.91352
540.15024	0.91411
538.09644	0.91465
536.04264	0.91412
533.98883	0.91283
531.93503	0.91073
529.88123	0.90977
527.82742	0.91026
525.77362	0.91030
523.71982	0.91122
521.66602	0.91404
519.61221	0.91674
517.55841	0.91792
515.50461	0.91704
513.45080	0.91510
511.39700	0.91427
509.34320	0.91593
507.28939	0.91981
505.23559	0.92302
503.18179	0.92286
501.12798	0.92075
499.07418	0.92061
497.02038	0.92219
494.96657	0.92232
492.91277	0.92070
490.85897	0.91871
488.80516	0.91677
486.75136	0.91495
484.69756	0.91279
482.64375	0.90941
480.58995	0.90469
478.53615	0.89988
476.48234	0.89703
474.42854	0.89684
472.37474	0.89520
470.32093	0.89003
468.26713	0.88790
466.21333	0.89033
464.15953	0.89299
462.10572	0.89546
460.05192	0.89724
457.99812	0.89776
455.94431	0.90028
453.89051	0.90394
451.83671	0.90595
449.78290	0.90649
447.72910	0.90666
445.67530	0.90699
443.62149	0.90622
441.56769	0.90457
439.51389	0.90545
437.46008	0.90769
435.40628	0.90725
433.35248	0.90575
431.29867	0.90315
429.24487	0.89761
427.19107	0.89457
425.13726	0.89640
423.08346	0.89806
421.02966	0.89664
418.97585	0.89495
416.92205	0.89666
414.86825	0.90112
412.81445	0.90551
410.76064	0.90791
408.70684	0.91024
406.65304	0.91260
404.59923	0.91325
402.54543	0.91138
400.49163	0.90419
398.43782	0.89396
