3996.71440	0.99646
3994.66059	0.99655
3992.60678	0.99652
3990.55297	0.99651
3988.49916	0.99654
3986.44535	0.99644
3984.39154	0.99636
3982.33773	0.99651
3980.28391	0.99656
3978.23010	0.99639
3976.17629	0.99634
3974.12248	0.99657
3972.06867	0.99666
3970.01486	0.99629
3967.96105	0.99577
3965.90724	0.99556
3963.85343	0.99583
3961.79962	0.99616
3959.74581	0.99621
3957.69200	0.99619
3955.63819	0.99632
3953.58438	0.99652
3951.53057	0.99657
3949.47676	0.99652
3947.42295	0.99655
3945.36914	0.99658
3943.31533	0.99654
3941.26152	0.99630
3939.20771	0.99613
3937.15390	0.99625
3935.10009	0.99638
3933.04628	0.99632
3930.99247	0.99630
3928.93866	0.99655
3926.88485	0.99658
3924.83104	0.99610
3922.77723	0.99585
3920.72342	0.99624
3918.66961	0.99691
3916.61580	0.99722
3914.56199	0.99691
3912.50818	0.99666
3910.45437	0.99671
3908.40056	0.99662
3906.34675	0.99652
3904.29294	0.99672
3902.23913	0.99679
3900.18532	0.99640
3898.13151	0.99616
3896.07770	0.99632
3894.02389	0.99655
3891.97008	0.99667
3889.91627	0.99654
3887.86246	0.99654
3885.80865	0.99686
3883.75484	0.99684
3881.70103	0.99659
3879.64722	0.99675
3877.59341	0.99694
3875.53960	0.99683
3873.48579	0.99670
3871.43198	0.99661
3869.37817	0.99642
3867.32436	0.99637
3865.27055	0.99663
3863.21674	0.99685
3861.16293	0.99686
3859.10912	0.99687
3857.05531	0.99706
3855.00150	0.99759
3852.94769	0.99796
3850.89388	0.99755
3848.84007	0.99715
3846.78626	0.99707
3844.73245	0.99716
3842.67864	0.99714
3840.62483	0.99693
3838.57102	0.99677
3836.51721	0.99670
3834.46340	0.99674
3832.40959	0.99676
3830.35578	0.99656
3828.30197	0.99652
3826.24816	0.99688
3824.19435	0.99716
3822.14054	0.99708
3820.08673	0.99694
3818.03292	0.99686
3815.97911	0.99660
3813.92530	0.99654
3811.87149	0.99679
3809.81768	0.99684
3807.76387	0.99672
3805.71006	0.99672
3803.65625	0.99669
3801.60244	0.99658
3799.54863	0.99662
3797.49482	0.99675
3795.44101	0.99666
3793.38720	0.99650
3791.33339	0.99657
3789.27958	0.99655
3787.22577	0.99622
3785.17196	0.99615
3783.11815	0.99663
3781.06434	0.99725
3779.01053	0.99756
3776.95672	0.99714
3774.90291	0.99660
3772.84910	0.99660
3770.79529	0.99678
3768.74148	0.99671
3766.68767	0.99649
3764.63386	0.99641
3762.58005	0.99642
3760.52624	0.99623
3758.47243	0.99621
3756.41862	0.99674
3754.36481	0.99719
3752.31100	0.99687
3750.25719	0.99601
3748.20338	0.99592
3746.14957	0.99650
3744.09576	0.99678
3742.04195	0.99652
3739.98814	0.99655
3737.93433	0.99690
3735.88052	0.99707
3733.82671	0.99711
3731.77290	0.99725
3729.71909	0.99708
3727.66528	0.99672
3725.61147	0.99661
3723.55766	0.99660
3721.50385	0.99639
3719.45004	0.99616
3717.39623	0.99616
3715.34242	0.99624
3713.28861	0.99601
3711.23480	0.99536
3709.18099	0.99499
3707.12718	0.99519
3705.07337	0.99538
3703.01956	0.99522
3700.96575	0.99475
3698.91194	0.99439
3696.85813	0.99443
3694.80432	0.99462
3692.75051	0.99460
3690.69670	0.99454
3688.64289	0.99506
3686.58907	0.99554
3684.53526	0.99543
3682.48145	0.99543
3680.42764	0.99557
3678.37383	0.99528
3676.32002	0.99479
3674.26621	0.99495
3672.21240	0.99533
3670.15859	0.99522
3668.10478	0.99465
3666.05097	0.99422
3663.99716	0.99413
3661.94335	0.99431
3659.88954	0.99465
3657.83573	0.99498
3655.78192	0.99512
3653.72811	0.99486
3651.67430	0.99405
3649.62049	0.99303
3647.56668	0.99308
3645.51287	0.99378
3643.45906	0.99417
3641.40525	0.99428
3639.35144	0.99421
3637.29763	0.99391
3635.24382	0.99366
3633.19001	0.99359
3631.13620	0.99324
3629.08239	0.99284
3627.02858	0.99287
3624.97477	0.99280
3622.92096	0.99281
3620.86715	0.99330
3618.81334	0.99380
3616.75953	0.99390
3614.70572	0.99385
3612.65191	0.99393
3610.59810	0.99414
3608.54429	0.99404
3606.49048	0.99385
3604.43667	0.99397
3602.38286	0.99407
3600.32905	0.99399
3598.27524	0.99374
3596.22143	0.99332
3594.16762	0.99321
3592.11381	0.99356
3590.06000	0.99385
3588.00619	0.99373
3585.95238	0.99341
3583.89857	0.99348
3581.84476	0.99374
3579.79095	0.99365
3577.73714	0.99344
3575.68333	0.99360
3573.62952	0.99391
3571.57571	0.99389
3569.52190	0.99357
3567.46809	0.99325
3565.41428	0.99315
3563.36047	0.99336
3561.30666	0.99363
3559.25285	0.99346
3557.19904	0.99292
3555.14523	0.99264
3553.09142	0.99281
3551.03761	0.99305
3548.98380	0.99306
3546.92999	0.99289
3544.87618	0.99251
3542.82237	0.99215
3540.76856	0.99221
3538.71475	0.99233
3536.66094	0.99212
3534.60713	0.99189
3532.55332	0.99182
3530.49951	0.99189
3528.44570	0.99223
3526.39189	0.99265
3524.33808	0.99263
3522.28427	0.99228
3520.23046	0.99217
3518.17665	0.99235
3516.12284	0.99237
3514.06903	0.99214
3512.01522	0.99217
3509.96141	0.99232
3507.90760	0.99206
3505.85379	0.99180
3503.79998	0.99200
3501.74617	0.99229
3499.69236	0.99231
3497.63855	0.99229
3495.58474	0.99228
3493.53093	0.99203
3491.47712	0.99167
3489.42331	0.99150
3487.36950	0.99169
3485.31569	0.99182
3483.26188	0.99145
3481.20807	0.99095
3479.15426	0.99085
3477.10045	0.99114
3475.04664	0.99151
3472.99283	0.99165
3470.93902	0.99139
3468.88521	0.99096
3466.83140	0.99081
3464.77759	0.99096
3462.72378	0.99101
3460.66997	0.99078
3458.61616	0.99055
3456.56235	0.99059
3454.50854	0.99069
3452.45473	0.99062
3450.40092	0.99044
3448.34711	0.99029
3446.29330	0.99035
3444.23949	0.99062
3442.18568	0.99083
3440.13187	0.99085
3438.07806	0.99081
3436.02425	0.99065
3433.97044	0.99026
3431.91663	0.99001
3429.86282	0.99001
3427.80901	0.99014
3425.75520	0.99048
3423.70139	0.99082
3421.64758	0.99079
3419.59377	0.99069
3417.53996	0.99065
3415.48615	0.99045
3413.43234	0.99029
3411.37853	0.99022
3409.32472	0.99019
3407.27091	0.99034
3405.21710	0.99048
3403.16329	0.99052
3401.10948	0.99061
3399.05567	0.99064
3397.00186	0.99050
3394.94805	0.99035
3392.89424	0.99019
3390.84042	0.99020
3388.78661	0.99035
3386.73280	0.99038
3384.67899	0.99031
3382.62518	0.99022
3380.57137	0.99016
3378.51756	0.99032
3376.46375	0.99060
3374.40994	0.99058
3372.35613	0.99031
3370.30232	0.99013
3368.24851	0.98997
3366.19470	0.99004
3364.14089	0.99037
3362.08708	0.99036
3360.03327	0.98986
3357.97946	0.98937
3355.92565	0.98914
3353.87184	0.98929
3351.81803	0.98977
3349.76422	0.99018
3347.71041	0.99019
3345.65660	0.98999
3343.60279	0.98978
3341.54898	0.98971
3339.49517	0.99014
3337.44136	0.99072
3335.38755	0.99082
3333.33374	0.99073
3331.27993	0.99070
3329.22612	0.99055
3327.17231	0.99045
3325.11850	0.99052
3323.06469	0.99051
3321.01088	0.99038
3318.95707	0.99019
3316.90326	0.99010
3314.84945	0.99027
3312.79564	0.99046
3310.74183	0.99041
3308.68802	0.99018
3306.63421	0.99005
3304.58040	0.99015
3302.52659	0.99025
3300.47278	0.99031
3298.41897	0.99048
3296.36516	0.99068
3294.31135	0.99074
3292.25754	0.99070
3290.20373	0.99060
3288.14992	0.99046
3286.09611	0.99035
3284.04230	0.99045
3281.98849	0.99070
3279.93468	0.99094
3277.88087	0.99108
3275.82706	0.99109
3273.77325	0.99103
3271.71944	0.99101
3269.66563	0.99095
3267.61182	0.99084
3265.55801	0.99073
3263.50420	0.99070
3261.45039	0.99088
3259.39658	0.99114
3257.34277	0.99106
3255.28896	0.99080
3253.23515	0.99087
3251.18134	0.99112
3249.12753	0.99121
3247.07372	0.99113
3245.01991	0.99110
3242.96610	0.99118
3240.91229	0.99110
3238.85848	0.99095
3236.80467	0.99105
3234.75086	0.99130
3232.69705	0.99144
3230.64324	0.99144
3228.58943	0.99135
3226.53562	0.99107
3224.48181	0.99089
3222.42800	0.99102
3220.37419	0.99110
3218.32038	0.99119
3216.26657	0.99134
3214.21276	0.99126
3212.15895	0.99127
3210.10514	0.99145
3208.05133	0.99129
3205.99752	0.99095
3203.94371	0.99101
3201.88990	0.99122
3199.83609	0.99114
3197.78228	0.99102
3195.72847	0.99103
3193.67466	0.99108
3191.62085	0.99119
3189.56704	0.99131
3187.51323	0.99135
3185.45942	0.99135
3183.40561	0.99129
3181.35180	0.99125
3179.29799	0.99136
3177.24418	0.99158
3175.19037	0.99170
3173.13656	0.99166
3171.08275	0.99174
3169.02894	0.99209
3166.97513	0.99239
3164.92132	0.99223
3162.86751	0.99186
3160.81370	0.99184
3158.75989	0.99214
3156.70608	0.99238
3154.65227	0.99233
3152.59846	0.99206
3150.54465	0.99199
3148.49084	0.99224
3146.43703	0.99241
3144.38322	0.99248
3142.32941	0.99257
3140.27560	0.99248
3138.22179	0.99221
3136.16798	0.99209
3134.11417	0.99236
3132.06036	0.99267
3130.00655	0.99258
3127.95274	0.99237
3125.89893	0.99243
3123.84512	0.99268
3121.79131	0.99289
3119.73750	0.99301
3117.68369	0.99315
3115.62988	0.99326
3113.57607	0.99310
3111.52226	0.99287
3109.46845	0.99293
3107.41464	0.99322
3105.36083	0.99345
3103.30702	0.99341
3101.25321	0.99318
3099.19940	0.99302
3097.14559	0.99296
3095.09177	0.99293
3093.03796	0.99298
3090.98415	0.99310
3088.93034	0.99312
3086.87653	0.99296
3084.82272	0.99295
3082.76891	0.99317
3080.71510	0.99330
3078.66129	0.99335
3076.60748	0.99361
3074.55367	0.99383
3072.49986	0.99356
3070.44605	0.99318
3068.39224	0.99310
3066.33843	0.99314
3064.28462	0.99322
3062.23081	0.99350
3060.17700	0.99364
3058.12319	0.99337
3056.06938	0.99304
3054.01557	0.99304
3051.96176	0.99333
3049.90795	0.99350
3047.85414	0.99336
3045.80033	0.99313
3043.74652	0.99292
3041.69271	0.99290
3039.63890	0.99302
3037.58509	0.99309
3035.53128	0.99309
3033.47747	0.99318
3031.42366	0.99328
3029.36985	0.99320
3027.31604	0.99308
3025.26223	0.99292
3023.20842	0.99263
3021.15461	0.99236
3019.10080	0.99234
3017.04699	0.99243
3014.99318	0.99225
3012.93937	0.99187
3010.88556	0.99157
3008.83175	0.99135
3006.77794	0.99111
3004.72413	0.99086
3002.67032	0.99053
3000.61651	0.99001
2998.56270	0.98934
2996.50889	0.98853
2994.45508	0.98754
2992.40127	0.98644
2990.34746	0.98506
2988.29365	0.98320
2986.23984	0.98100
2984.18603	0.97858
2982.13222	0.97587
2980.07841	0.97247
2978.02460	0.96787
2975.97079	0.96192
2973.91698	0.95433
2971.86317	0.94460
2969.80936	0.93276
2967.75555	0.91933
2965.70174	0.90490
2963.64793	0.89054
2961.59412	0.87817
2959.54031	0.86880
2957.48650	0.86087
2955.43269	0.85156
2953.37888	0.84007
2951.32507	0.82963
2949.27126	0.82594
2947.21745	0.83328
2945.16364	0.85078
2943.10983	0.87174
2941.05602	0.88805
2939.00221	0.89569
2936.94840	0.89514
2934.89459	0.88807
2932.84078	0.87610
2930.78697	0.86066
2928.73316	0.84340
2926.67935	0.82642
2924.62554	0.81107
2922.57173	0.79715
2920.51792	0.78446
2918.46411	0.77499
2916.41030	0.77215
2914.35649	0.77733
2912.30268	0.78827
2910.24887	0.80126
2908.19506	0.81400
2906.14125	0.82614
2904.08744	0.83804
2902.03363	0.84992
2899.97982	0.86159
2897.92601	0.87218
2895.87220	0.88085
2893.81839	0.88741
2891.76458	0.89176
2889.71077	0.89379
2887.65696	0.89379
2885.60315	0.89202
2883.54934	0.88859
2881.49553	0.88366
2879.44172	0.87813
2877.38791	0.87423
2875.33410	0.87348
2873.28029	0.87416
2871.22648	0.87333
2869.17267	0.87070
2867.11886	0.87002
2865.06505	0.87655
2863.01124	0.89151
2860.95743	0.90988
2858.90362	0.92522
2856.84981	0.93449
2854.79600	0.93799
2852.74219	0.93726
2850.68838	0.93429
2848.63457	0.92997
2846.58076	0.92318
2844.52695	0.91302
2842.47314	0.90045
2840.41933	0.88827
2838.36552	0.88087
2836.31171	0.88285
2834.25790	0.89546
2832.20409	0.91423
2830.15028	0.93243
2828.09647	0.94632
2826.04266	0.95568
2823.98885	0.96187
2821.93504	0.96629
2819.88123	0.96950
2817.82742	0.97178
2815.77361	0.97361
2813.71980	0.97521
2811.66599	0.97637
2809.61218	0.97726
2807.55837	0.97840
2805.50456	0.97985
2803.45075	0.98138
2801.39693	0.98264
2799.34312	0.98351
2797.28931	0.98415
2795.23550	0.98467
2793.18169	0.98527
2791.12788	0.98583
2789.07407	0.98630
2787.02026	0.98699
2784.96645	0.98785
2782.91264	0.98858
2780.85883	0.98905
2778.80502	0.98944
2776.75121	0.98984
2774.69740	0.99004
2772.64359	0.99003
2770.58978	0.98996
2768.53597	0.98993
2766.48216	0.99014
2764.42835	0.99054
2762.37454	0.99077
2760.32073	0.99076
2758.26692	0.99075
2756.21311	0.99099
2754.15930	0.99144
2752.10549	0.99173
2750.05168	0.99167
2747.99787	0.99149
2745.94406	0.99139
2743.89025	0.99124
2741.83644	0.99086
2739.78263	0.99030
2737.72882	0.98972
2735.67501	0.98941
2733.62120	0.98926
2731.56739	0.98895
2729.51358	0.98842
2727.45977	0.98773
2725.40596	0.98700
2723.35215	0.98662
2721.29834	0.98688
2719.24453	0.98763
2717.19072	0.98847
2715.13691	0.98918
2713.08310	0.98957
2711.02929	0.98974
2708.97548	0.99006
2706.92167	0.99062
2704.86786	0.99114
2702.81405	0.99145
2700.76024	0.99166
2698.70643	0.99189
2696.65262	0.99204
2694.59881	0.99199
2692.54500	0.99193
2690.49119	0.99196
2688.43738	0.99194
2686.38357	0.99188
2684.32976	0.99191
2682.27595	0.99198
2680.22214	0.99195
2678.16833	0.99183
2676.11452	0.99179
2674.06071	0.99188
2672.00690	0.99197
2669.95309	0.99207
2667.89928	0.99213
2665.84547	0.99202
2663.79166	0.99171
2661.73785	0.99144
2659.68404	0.99134
2657.63023	0.99141
2655.57642	0.99141
2653.52261	0.99126
2651.46880	0.99142
2649.41499	0.99189
2647.36118	0.99212
2645.30737	0.99223
2643.25356	0.99248
2641.19975	0.99277
2639.14594	0.99285
2637.09213	0.99255
2635.03832	0.99225
2632.98451	0.99219
2630.93070	0.99215
2628.87689	0.99221
2626.82308	0.99236
2624.76927	0.99232
2622.71546	0.99212
2620.66165	0.99194
2618.60784	0.99192
2616.55403	0.99209
2614.50022	0.99230
2612.44641	0.99250
2610.39260	0.99266
2608.33879	0.99270
2606.28498	0.99264
2604.23117	0.99262
2602.17736	0.99270
2600.12355	0.99285
2598.06974	0.99290
2596.01593	0.99296
2593.96212	0.99319
2591.90831	0.99345
2589.85450	0.99342
2587.80069	0.99305
2585.74688	0.99265
2583.69307	0.99259
2581.63926	0.99285
2579.58545	0.99325
2577.53164	0.99371
2575.47783	0.99407
2573.42402	0.99391
2571.37021	0.99352
2569.31640	0.99362
2567.26259	0.99404
2565.20878	0.99414
2563.15497	0.99401
2561.10116	0.99399
2559.04735	0.99406
2556.99354	0.99413
2554.93973	0.99427
2552.88592	0.99454
2550.83211	0.99451
2548.77830	0.99420
2546.72449	0.99419
2544.67068	0.99444
2542.61687	0.99467
2540.56306	0.99503
2538.50925	0.99550
2536.45544	0.99559
2534.40163	0.99508
2532.34782	0.99458
2530.29401	0.99477
2528.24020	0.99542
2526.18639	0.99579
2524.13258	0.99571
2522.07877	0.99569
2520.02496	0.99586
2517.97115	0.99592
2515.91734	0.99581
2513.86353	0.99582
2511.80972	0.99599
2509.75591	0.99601
2507.70210	0.99595
2505.64828	0.99598
2503.59447	0.99620
2501.54066	0.99660
2499.48685	0.99644
2497.43304	0.99572
2495.37923	0.99552
2493.32542	0.99572
2491.27161	0.99568
2489.21780	0.99577
2487.16399	0.99619
2485.11018	0.99656
2483.05637	0.99662
2481.00256	0.99645
2478.94875	0.99610
2476.89494	0.99587
2474.84113	0.99601
2472.78732	0.99632
2470.73351	0.99679
2468.67970	0.99707
2466.62589	0.99668
2464.57208	0.99622
2462.51827	0.99608
2460.46446	0.99585
2458.41065	0.99579
2456.35684	0.99620
2454.30303	0.99641
2452.24922	0.99629
2450.19541	0.99616
2448.14160	0.99597
2446.08779	0.99612
2444.03398	0.99661
2441.98017	0.99658
2439.92636	0.99604
2437.87255	0.99590
2435.81874	0.99603
2433.76493	0.99585
2431.71112	0.99568
2429.65731	0.99595
2427.60350	0.99644
2425.54969	0.99663
2423.49588	0.99650
2421.44207	0.99637
2419.38826	0.99640
2417.33445	0.99642
2415.28064	0.99640
2413.22683	0.99651
2411.17302	0.99666
2409.11921	0.99672
2407.06540	0.99686
2405.01159	0.99699
2402.95778	0.99687
2400.90397	0.99661
2398.85016	0.99645
2396.79635	0.99631
2394.74254	0.99627
2392.68873	0.99642
2390.63492	0.99658
2388.58111	0.99673
2386.52730	0.99702
2384.47349	0.99708
2382.41968	0.99693
2380.36587	0.99698
2378.31206	0.99701
2376.25825	0.99680
2374.20444	0.99649
2372.15063	0.99631
2370.09682	0.99658
2368.04301	0.99711
2365.98920	0.99737
2363.93539	0.99698
2361.88158	0.99602
2359.82777	0.99522
2357.77396	0.99554
2355.72015	0.99631
2353.66634	0.99594
2351.61253	0.99526
2349.55872	0.99568
2347.50491	0.99648
2345.45110	0.99650
2343.39729	0.99598
2341.34348	0.99602
2339.28967	0.99618
2337.23586	0.99596
2335.18205	0.99587
2333.12824	0.99590
2331.07443	0.99556
2329.02062	0.99511
2326.96681	0.99459
2324.91300	0.99377
2322.85919	0.99369
2320.80538	0.99454
2318.75157	0.99501
2316.69776	0.99499
2314.64395	0.99495
2312.59014	0.99502
2310.53633	0.99564
2308.48252	0.99641
2306.42871	0.99630
2304.37490	0.99567
2302.32109	0.99530
2300.26728	0.99541
2298.21347	0.99579
2296.15966	0.99572
2294.10585	0.99532
2292.05204	0.99531
2289.99823	0.99559
2287.94442	0.99555
2285.89061	0.99514
2283.83680	0.99473
2281.78299	0.99472
2279.72918	0.99501
2277.67537	0.99523
2275.62156	0.99559
2273.56775	0.99616
2271.51394	0.99649
2269.46013	0.99652
2267.40632	0.99624
2265.35251	0.99594
2263.29870	0.99643
2261.24489	0.99693
2259.19108	0.99659
2257.13727	0.99653
2255.08346	0.99678
2253.02965	0.99675
2250.97584	0.99700
2248.92203	0.99719
2246.86822	0.99711
2244.81441	0.99743
2242.76060	0.99767
2240.70679	0.99737
2238.65298	0.99696
2236.59917	0.99675
2234.54536	0.99692
2232.49155	0.99696
2230.43774	0.99635
2228.38393	0.99590
2226.33012	0.99643
2224.27631	0.99722
2222.22250	0.99675
2220.16869	0.99505
2218.11488	0.99376
2216.06107	0.99392
2214.00726	0.99490
2211.95344	0.99581
2209.89963	0.99650
2207.84582	0.99654
2205.79201	0.99617
2203.73820	0.99580
2201.68439	0.99524
2199.63058	0.99521
2197.57677	0.99612
2195.52296	0.99692
2193.46915	0.99676
2191.41534	0.99592
2189.36153	0.99563
2187.30772	0.99671
2185.25391	0.99755
2183.20010	0.99691
2181.14629	0.99582
2179.09248	0.99555
2177.03867	0.99653
2174.98486	0.99722
2172.93105	0.99660
2170.87724	0.99609
2168.82343	0.99655
2166.76962	0.99727
2164.71581	0.99710
2162.66200	0.99615
2160.60819	0.99716
2158.55438	1.00101
2156.50057	1.00309
2154.44676	1.00136
2152.39295	0.99902
2150.33914	0.99859
2148.28533	0.99976
2146.23152	1.00049
2144.17771	0.99971
2142.12390	0.99903
2140.07009	0.99937
2138.01628	0.99944
2135.96247	0.99910
2133.90866	0.99916
2131.85485	0.99929
2129.80104	0.99855
2127.74723	0.99726
2125.69342	0.99713
2123.63961	0.99819
2121.58580	0.99885
2119.53199	0.99891
2117.47818	0.99868
2115.42437	0.99798
2113.37056	0.99741
2111.31675	0.99769
2109.26294	0.99835
2107.20913	0.99823
2105.15532	0.99767
2103.10151	0.99783
2101.04770	0.99801
2098.99389	0.99765
2096.94008	0.99725
2094.88627	0.99730
2092.83246	0.99815
2090.77865	0.99850
2088.72484	0.99752
2086.67103	0.99688
2084.61722	0.99696
2082.56341	0.99696
2080.50960	0.99725
2078.45579	0.99807
2076.40198	0.99863
2074.34817	0.99789
2072.29436	0.99644
2070.24055	0.99572
2068.18674	0.99548
2066.13293	0.99580
2064.07912	0.99775
2062.02531	0.99989
2059.97150	0.99995
2057.91769	0.99859
2055.86388	0.99737
2053.81007	0.99693
2051.75626	0.99635
2049.70245	0.99486
2047.64864	0.99441
2045.59483	0.99589
2043.54102	0.99721
2041.48721	0.99686
2039.43340	0.99669
2037.37959	0.99852
2035.32578	0.99947
2033.27197	0.99863
2031.21816	0.99878
2029.16435	0.99957
2027.11054	0.99918
2025.05673	0.99732
2023.00292	0.99564
2020.94911	0.99584
2018.89530	0.99714
2016.84149	0.99859
2014.78768	0.99992
2012.73387	1.00000
2010.68006	0.99908
2008.62625	0.99871
2006.57244	0.99889
2004.51863	0.99917
2002.46482	0.99981
2000.41101	1.00020
1998.35720	0.99949
1996.30339	0.99864
1994.24958	0.99835
1992.19577	0.99810
1990.14196	0.99859
1988.08815	0.99943
1986.03434	0.99920
1983.98053	0.99801
1981.92672	0.99595
1979.87291	0.99451
1977.81910	0.99579
1975.76529	0.99787
1973.71148	0.99830
1971.65767	0.99802
1969.60386	0.99840
1967.55005	0.99906
1965.49624	0.99895
1963.44243	0.99900
1961.38862	1.00041
1959.33481	1.00142
1957.28100	1.00088
1955.22719	1.00034
1953.17338	1.00000
1951.11957	0.99945
1949.06576	0.99929
1947.01195	0.99894
1944.95814	0.99809
1942.90433	0.99771
1940.85052	0.99759
1938.79671	0.99742
1936.74290	0.99762
1934.68909	0.99789
1932.63528	0.99787
1930.58147	0.99771
1928.52766	0.99757
1926.47385	0.99746
1924.42004	0.99742
1922.36623	0.99722
1920.31242	0.99732
1918.25861	0.99822
1916.20479	0.99890
1914.15098	0.99864
1912.09717	0.99805
1910.04336	0.99779
1907.98955	0.99767
1905.93574	0.99756
1903.88193	0.99738
1901.82812	0.99719
1899.77431	0.99746
1897.72050	0.99763
1895.66669	0.99723
1893.61288	0.99686
1891.55907	0.99690
1889.50526	0.99737
1887.45145	0.99775
1885.39764	0.99773
1883.34383	0.99751
1881.29002	0.99714
1879.23621	0.99697
1877.18240	0.99723
1875.12859	0.99759
1873.07478	0.99791
1871.02097	0.99810
1868.96716	0.99800
1866.91335	0.99753
1864.85954	0.99685
1862.80573	0.99644
1860.75192	0.99665
1858.69811	0.99691
1856.64430	0.99670
1854.59049	0.99651
1852.53668	0.99679
1850.48287	0.99721
1848.42906	0.99723
1846.37525	0.99699
1844.32144	0.99704
1842.26763	0.99723
1840.21382	0.99718
1838.16001	0.99695
1836.10620	0.99668
1834.05239	0.99659
1831.99858	0.99675
1829.94477	0.99697
1827.89096	0.99705
1825.83715	0.99722
1823.78334	0.99750
1821.72953	0.99758
1819.67572	0.99761
1817.62191	0.99785
1815.56810	0.99792
1813.51429	0.99756
1811.46048	0.99719
1809.40667	0.99695
1807.35286	0.99681
1805.29905	0.99689
1803.24524	0.99697
1801.19143	0.99688
1799.13762	0.99660
1797.08381	0.99626
1795.03000	0.99614
1792.97619	0.99627
1790.92238	0.99652
1788.86857	0.99676
1786.81476	0.99692
1784.76095	0.99704
1782.70714	0.99694
1780.65333	0.99660
1778.59952	0.99626
1776.54571	0.99608
1774.49190	0.99609
1772.43809	0.99625
1770.38428	0.99643
1768.33047	0.99646
1766.27666	0.99632
1764.22285	0.99613
1762.16904	0.99602
1760.11523	0.99587
1758.06142	0.99567
1756.00761	0.99561
1753.95380	0.99561
1751.89999	0.99535
1749.84618	0.99480
1747.79237	0.99437
1745.73856	0.99414
1743.68475	0.99394
1741.63094	0.99388
1739.57713	0.99391
1737.52332	0.99397
1735.46951	0.99400
1733.41570	0.99381
1731.36189	0.99362
1729.30808	0.99361
1727.25427	0.99362
1725.20046	0.99348
1723.14665	0.99320
1721.09284	0.99297
1719.03903	0.99284
1716.98522	0.99271
1714.93141	0.99254
1712.87760	0.99236
1710.82379	0.99225
1708.76998	0.99217
1706.71617	0.99212
1704.66236	0.99226
1702.60855	0.99260
1700.55474	0.99293
1698.50093	0.99280
1696.44712	0.99228
1694.39331	0.99165
1692.33950	0.99128
1690.28569	0.99117
1688.23188	0.99101
1686.17807	0.99066
1684.12426	0.99022
1682.07045	0.99005
1680.01664	0.98998
1677.96283	0.98991
1675.90902	0.98976
1673.85521	0.98936
1671.80140	0.98891
1669.74759	0.98856
1667.69378	0.98833
1665.63997	0.98816
1663.58616	0.98798
1661.53235	0.98768
1659.47854	0.98727
1657.42473	0.98684
1655.37092	0.98640
1653.31711	0.98604
1651.26330	0.98625
1649.20949	0.98662
1647.15568	0.98691
1645.10187	0.98714
1643.04806	0.98728
1640.99425	0.98734
1638.94044	0.98730
1636.88663	0.98712
1634.83282	0.98696
1632.77901	0.98713
1630.72520	0.98733
1628.67139	0.98747
1626.61758	0.98774
1624.56377	0.98797
1622.50996	0.98789
1620.45614	0.98782
1618.40233	0.98807
1616.34852	0.98831
1614.29471	0.98835
1612.24090	0.98846
1610.18709	0.98865
1608.13328	0.98878
1606.07947	0.98888
1604.02566	0.98895
1601.97185	0.98894
1599.91804	0.98893
1597.86423	0.98899
1595.81042	0.98910
1593.75661	0.98912
1591.70280	0.98906
1589.64899	0.98909
1587.59518	0.98925
1585.54137	0.98938
1583.48756	0.98937
1581.43375	0.98937
1579.37994	0.98945
1577.32613	0.98959
1575.27232	0.98983
1573.21851	0.98996
1571.16470	0.98983
1569.11089	0.98961
1567.05708	0.98967
1565.00327	0.98989
1562.94946	0.98996
1560.89565	0.98982
1558.84184	0.98948
1556.78803	0.98932
1554.73422	0.98931
1552.68041	0.98933
1550.62660	0.98945
1548.57279	0.98952
1546.51898	0.98949
1544.46517	0.98953
1542.41136	0.98967
1540.35755	0.98982
1538.30374	0.98987
1536.24993	0.98986
1534.19612	0.98997
1532.14231	0.99008
1530.08850	0.99000
1528.03469	0.98982
1525.98088	0.98972
1523.92707	0.98989
1521.87326	0.99012
1519.81945	0.99007
1517.76564	0.98991
1515.71183	0.98991
1513.65802	0.98988
1511.60421	0.98977
1509.55040	0.98962
1507.49659	0.98943
1505.44278	0.98929
1503.38897	0.98914
1501.33516	0.98892
1499.28135	0.98850
1497.22754	0.98782
1495.17373	0.98717
1493.11992	0.98675
1491.06611	0.98624
1489.01230	0.98537
1486.95849	0.98427
1484.90468	0.98321
1482.85087	0.98184
1480.79706	0.97968
1478.74325	0.97679
1476.68944	0.97279
1474.63563	0.96640
1472.58182	0.95562
1470.52801	0.94250
1468.47420	0.93014
1466.42039	0.91571
1464.36658	0.89882
1462.31277	0.88684
1460.25896	0.88126
1458.20515	0.87762
1456.15134	0.87521
1454.09753	0.87653
1452.04372	0.88093
1449.98991	0.88926
1447.93610	0.90328
1445.88229	0.91997
1443.82848	0.93357
1441.77467	0.94239
1439.72086	0.94643
1437.66705	0.94699
1435.61324	0.94816
1433.55943	0.95409
1431.50562	0.96266
1429.45181	0.97006
1427.39800	0.97421
1425.34419	0.97640
1423.29038	0.97787
1421.23657	0.97887
1419.18276	0.97960
1417.12895	0.98003
1415.07514	0.98036
1413.02133	0.98079
1410.96752	0.98128
1408.91371	0.98161
1406.85990	0.98177
1404.80609	0.98194
1402.75228	0.98213
1400.69847	0.98210
1398.64466	0.98177
1396.59085	0.98128
1394.53704	0.98056
1392.48323	0.97951
1390.42942	0.97792
1388.37561	0.97438
1386.32180	0.96628
1384.26799	0.95096
1382.21418	0.92446
1380.16037	0.88448
1378.10656	0.84097
1376.05275	0.81758
1373.99894	0.83288
1371.94513	0.87413
1369.89132	0.91317
1367.83751	0.93896
1365.78370	0.95093
1363.72989	0.95320
1361.67608	0.94992
1359.62227	0.94655
1357.56846	0.94791
1355.51465	0.95462
1353.46084	0.96330
1351.40703	0.97037
1349.35322	0.97507
1347.29941	0.97810
1345.24560	0.98013
1343.19179	0.98152
1341.13798	0.98254
1339.08417	0.98323
1337.03036	0.98330
1334.97655	0.98275
1332.92274	0.98190
1330.86893	0.98113
1328.81512	0.98092
1326.76130	0.98157
1324.70749	0.98301
1322.65368	0.98458
1320.59987	0.98564
1318.54606	0.98615
1316.49225	0.98654
1314.43844	0.98688
1312.38463	0.98690
1310.33082	0.98639
1308.27701	0.98524
1306.22320	0.98359
1304.16939	0.98234
1302.11558	0.98222
1300.06177	0.98258
1298.00796	0.98261
1295.95415	0.98249
1293.90034	0.98276
1291.84653	0.98352
1289.79272	0.98441
1287.73891	0.98520
1285.68510	0.98587
1283.63129	0.98635
1281.57748	0.98663
1279.52367	0.98672
1277.46986	0.98655
1275.41605	0.98641
1273.36224	0.98651
1271.30843	0.98661
1269.25462	0.98647
1267.20081	0.98621
1265.14700	0.98594
1263.09319	0.98542
1261.03938	0.98444
1258.98557	0.98322
1256.93176	0.98234
1254.87795	0.98232
1252.82414	0.98315
1250.77033	0.98424
1248.71652	0.98513
1246.66271	0.98574
1244.60890	0.98607
1242.55509	0.98624
1240.50128	0.98629
1238.44747	0.98623
1236.39366	0.98623
1234.33985	0.98642
1232.28604	0.98653
1230.23223	0.98620
1228.17842	0.98575
1226.12461	0.98538
1224.07080	0.98480
1222.01699	0.98391
1219.96318	0.98324
1217.90937	0.98323
1215.85556	0.98370
1213.80175	0.98436
1211.74794	0.98502
1209.69413	0.98557
1207.64032	0.98589
1205.58651	0.98595
1203.53270	0.98607
1201.47889	0.98649
1199.42508	0.98685
1197.37127	0.98694
1195.31746	0.98691
1193.26365	0.98692
1191.20984	0.98698
1189.15603	0.98698
1187.10222	0.98685
1185.04841	0.98656
1182.99460	0.98603
1180.94079	0.98532
1178.88698	0.98436
1176.83317	0.98277
1174.77936	0.98001
1172.72555	0.97591
1170.67174	0.97108
1168.61793	0.96721
1166.56412	0.96602
1164.51031	0.96728
1162.45650	0.96924
1160.40269	0.97057
1158.34888	0.97125
1156.29507	0.97150
1154.24126	0.97147
1152.18745	0.97186
1150.13364	0.97326
1148.07983	0.97522
1146.02602	0.97702
1143.97221	0.97856
1141.91840	0.97976
1139.86459	0.98048
1137.81078	0.98071
1135.75697	0.98064
1133.70316	0.98054
1131.64935	0.98046
1129.59554	0.98015
1127.54173	0.97950
1125.48792	0.97862
1123.43411	0.97773
1121.38030	0.97705
1119.32649	0.97635
1117.27268	0.97534
1115.21887	0.97438
1113.16506	0.97334
1111.11125	0.97193
1109.05744	0.97019
1107.00363	0.96794
1104.94982	0.96560
1102.89601	0.96419
1100.84220	0.96413
1098.78839	0.96509
1096.73458	0.96626
1094.68077	0.96713
1092.62696	0.96765
1090.57315	0.96790
1088.51934	0.96808
1086.46553	0.96833
1084.41172	0.96841
1082.35791	0.96818
1080.30410	0.96809
1078.25029	0.96827
1076.19648	0.96841
1074.14267	0.96840
1072.08886	0.96837
1070.03505	0.96838
1067.98124	0.96822
1065.92743	0.96788
1063.87362	0.96758
1061.81981	0.96754
1059.76600	0.96760
1057.71219	0.96726
1055.65838	0.96669
1053.60457	0.96631
1051.55076	0.96582
1049.49695	0.96481
1047.44314	0.96339
1045.38933	0.96213
1043.33552	0.96161
1041.28171	0.96161
1039.22790	0.96173
1037.17409	0.96178
1035.12028	0.96170
1033.06647	0.96166
1031.01265	0.96178
1028.95884	0.96227
1026.90503	0.96291
1024.85122	0.96300
1022.79741	0.96287
1020.74360	0.96321
1018.68979	0.96362
1016.63598	0.96357
1014.58217	0.96327
1012.52836	0.96301
1010.47455	0.96280
1008.42074	0.96256
1006.36693	0.96197
1004.31312	0.96019
1002.25931	0.95665
1000.20550	0.95227
998.15169	0.95006
996.09788	0.95264
994.04407	0.95861
991.99026	0.96442
989.93645	0.96832
987.88264	0.97040
985.82883	0.97137
983.77502	0.97151
981.72121	0.97001
979.66740	0.96609
977.61359	0.96024
975.55978	0.95444
973.50597	0.95171
971.45216	0.95454
969.39835	0.96160
967.34454	0.96869
965.29073	0.97361
963.23692	0.97678
961.18311	0.97887
959.12930	0.98033
957.07549	0.98133
955.02168	0.98184
952.96787	0.98207
950.91406	0.98226
948.86025	0.98246
946.80644	0.98248
944.75263	0.98187
942.69882	0.98095
940.64501	0.98065
938.59120	0.98116
936.53739	0.98193
934.48358	0.98278
932.42977	0.98374
930.37596	0.98449
928.32215	0.98484
926.26834	0.98478
924.21453	0.98437
922.16072	0.98393
920.10691	0.98374
918.05310	0.98365
915.99929	0.98332
913.94548	0.98281
911.89167	0.98243
909.83786	0.98209
907.78405	0.98148
905.73024	0.97999
903.67643	0.97676
901.62262	0.97240
899.56881	0.96982
897.51500	0.97154
895.46119	0.97630
893.40738	0.98064
891.35357	0.98306
889.29976	0.98411
887.24595	0.98452
885.19214	0.98493
883.13833	0.98525
881.08452	0.98480
879.03071	0.98361
876.97690	0.98257
874.92309	0.98261
872.86928	0.98351
870.81547	0.98439
868.76166	0.98479
866.70785	0.98482
864.65404	0.98504
862.60023	0.98537
860.54642	0.98521
858.49261	0.98479
856.43880	0.98471
854.38499	0.98506
852.33118	0.98506
850.27737	0.98391
848.22356	0.98178
846.16975	0.97843
844.11594	0.97295
842.06213	0.96787
840.00832	0.96846
837.95451	0.97408
835.90070	0.97900
833.84689	0.98124
831.79308	0.98221
829.73927	0.98254
827.68546	0.98256
825.63165	0.98256
823.57784	0.98256
821.52403	0.98241
819.47022	0.98153
817.41641	0.97976
815.36260	0.97702
813.30879	0.97320
811.25498	0.96903
809.20117	0.96651
807.14736	0.96789
805.09355	0.97204
803.03974	0.97545
800.98593	0.97743
798.93212	0.97915
796.87831	0.98073
794.82450	0.98187
792.77069	0.98276
790.71688	0.98379
788.66307	0.98466
786.60926	0.98483
784.55545	0.98504
782.50164	0.98577
780.44783	0.98607
778.39402	0.98584
776.34021	0.98577
774.28640	0.98594
772.23259	0.98616
770.17878	0.98604
768.12497	0.98582
766.07116	0.98617
764.01735	0.98684
761.96354	0.98744
759.90973	0.98756
757.85592	0.98666
755.80211	0.98531
753.74830	0.98460
751.69449	0.98472
749.64068	0.98512
747.58687	0.98518
745.53306	0.98503
743.47925	0.98502
741.42544	0.98522
739.37163	0.98556
737.31781	0.98564
735.26400	0.98559
733.21019	0.98595
731.15638	0.98606
729.10257	0.98556
727.04876	0.98538
724.99495	0.98541
722.94114	0.98506
720.88733	0.98474
718.83352	0.98463
716.77971	0.98442
714.72590	0.98437
712.67209	0.98468
710.61828	0.98470
708.56447	0.98447
706.51066	0.98434
704.45685	0.98392
702.40304	0.98348
700.34923	0.98302
698.29542	0.98256
696.24161	0.98248
694.18780	0.98226
692.13399	0.98211
690.08018	0.98221
688.02637	0.98157
685.97256	0.98078
683.91875	0.98123
681.86494	0.98221
679.81113	0.98290
677.75732	0.98347
675.70351	0.98359
673.64970	0.98341
671.59589	0.98324
669.54208	0.98232
667.48827	0.98121
665.43446	0.98195
663.38065	0.98325
661.32684	0.98411
659.27303	0.98403
657.21922	0.98326
655.16541	0.98288
653.11160	0.98290
651.05779	0.98278
649.00398	0.98311
646.95017	0.98364
644.89636	0.98328
642.84255	0.98246
640.78874	0.98187
638.73493	0.98161
636.68112	0.98158
634.62731	0.98176
632.57350	0.98192
630.51969	0.98173
628.46588	0.98178
626.41207	0.98206
624.35826	0.98207
622.30445	0.98190
620.25064	0.98174
618.19683	0.98162
616.14302	0.98099
614.08921	0.98026
612.03540	0.98043
609.98159	0.98120
607.92778	0.98148
605.87397	0.98093
603.82016	0.98015
601.76635	0.97933
599.71254	0.97804
597.65873	0.97747
595.60492	0.97857
593.55111	0.97926
591.49730	0.97847
589.44349	0.97769
587.38968	0.97796
585.33587	0.97886
583.28206	0.97906
581.22825	0.97849
579.17444	0.97820
577.12063	0.97759
575.06682	0.97650
573.01301	0.97633
570.95920	0.97638
568.90539	0.97538
566.85158	0.97405
564.79777	0.97325
562.74396	0.97305
560.69015	0.97314
558.63634	0.97324
556.58253	0.97303
554.52872	0.97283
552.47491	0.97310
550.42110	0.97288
548.36729	0.97171
546.31348	0.97088
544.25967	0.97083
542.20586	0.97085
540.15205	0.96995
538.09824	0.96880
536.04443	0.96915
533.99062	0.96950
531.93681	0.96809
529.88300	0.96619
527.82919	0.96523
525.77538	0.96601
523.72157	0.96736
521.66776	0.96728
519.61395	0.96748
517.56014	0.96914
515.50633	0.97040
513.45252	0.97155
511.39871	0.97338
509.34490	0.97460
507.29109	0.97392
505.23728	0.97221
503.18347	0.97172
501.12966	0.97311
499.07585	0.97458
497.02204	0.97465
494.96823	0.97309
492.91442	0.97113
490.86061	0.97112
488.80680	0.97160
486.75299	0.97044
484.69918	0.96943
482.64537	0.96959
480.59156	0.96946
478.53775	0.96821
476.48394	0.96621
474.43013	0.96426
472.37632	0.96335
470.32251	0.96289
468.26870	0.96176
466.21489	0.96018
464.16108	0.95812
462.10727	0.95612
460.05346	0.95493
457.99965	0.95489
455.94584	0.95723
453.89203	0.96121
451.83822	0.96540
449.78441	0.96866
447.73060	0.96928
445.67679	0.96752
443.62298	0.96593
441.56916	0.96602
439.51535	0.96721
437.46154	0.96907
435.40773	0.96996
433.35392	0.96732
431.30011	0.96346
429.24630	0.96296
427.19249	0.96568
425.13868	0.96832
423.08487	0.96942
421.03106	0.96852
418.97725	0.96575
416.92344	0.96486
414.86963	0.96818
412.81582	0.97143
410.76201	0.97031
408.70820	0.96862
406.65439	0.97014
404.60058	0.97206
402.54677	0.97317
400.49296	0.97414
398.43915	0.97384
