3996.71440	0.97763
3994.66059	0.97734
3992.60678	0.97716
3990.55297	0.97724
3988.49916	0.97740
3986.44535	0.97729
3984.39154	0.97695
3982.33773	0.97682
3980.28391	0.97704
3978.23010	0.97726
3976.17629	0.97729
3974.12248	0.97736
3972.06867	0.97745
3970.01486	0.97747
3967.96105	0.97762
3965.90724	0.97784
3963.85343	0.97774
3961.79962	0.97748
3959.74581	0.97734
3957.69200	0.97732
3955.63819	0.97735
3953.58438	0.97750
3951.53057	0.97772
3949.47676	0.97788
3947.42295	0.97799
3945.36914	0.97801
3943.31533	0.97786
3941.26152	0.97784
3939.20771	0.97790
3937.15390	0.97784
3935.10009	0.97780
3933.04628	0.97777
3930.99247	0.97774
3928.93866	0.97777
3926.88485	0.97789
3924.83104	0.97802
3922.77723	0.97807
3920.72342	0.97816
3918.66961	0.97810
3916.61580	0.97770
3914.56199	0.97732
3912.50818	0.97716
3910.45437	0.97718
3908.40056	0.97718
3906.34675	0.97706
3904.29294	0.97710
3902.23913	0.97729
3900.18532	0.97732
3898.13151	0.97721
3896.07770	0.97713
3894.02389	0.97710
3891.97008	0.97732
3889.91627	0.97771
3887.86246	0.97781
3885.80865	0.97772
3883.75484	0.97755
3881.70103	0.97733
3879.64722	0.97736
3877.59341	0.97765
3875.53960	0.97786
3873.48579	0.97782
3871.43198	0.97762
3869.37817	0.97750
3867.32436	0.97756
3865.27055	0.97761
3863.21674	0.97786
3861.16293	0.97823
3859.10912	0.97809
3857.05531	0.97739
3855.00150	0.97668
3852.94769	0.97712
3850.89388	0.97818
3848.84007	0.97831
3846.78626	0.97787
3844.73245	0.97748
3842.67864	0.97725
3840.62483	0.97710
3838.57102	0.97725
3836.51721	0.97752
3834.46340	0.97773
3832.40959	0.97799
3830.35578	0.97816
3828.30197	0.97843
3826.24816	0.97855
3824.19435	0.97794
3822.14054	0.97729
3820.08673	0.97766
3818.03292	0.97812
3815.97911	0.97791
3813.92530	0.97746
3811.87149	0.97728
3809.81768	0.97755
3807.76387	0.97819
3805.71006	0.97842
3803.65625	0.97794
3801.60244	0.97763
3799.54863	0.97777
3797.49482	0.97793
3795.44101	0.97807
3793.38720	0.97810
3791.33339	0.97803
3789.27958	0.97807
3787.22577	0.97824
3785.17196	0.97824
3783.11815	0.97827
3781.06434	0.97876
3779.01053	0.97917
3776.95672	0.97874
3774.90291	0.97794
3772.84910	0.97758
3770.79529	0.97800
3768.74148	0.97879
3766.68767	0.97905
3764.63386	0.97868
3762.58005	0.97808
3760.52624	0.97774
3758.47243	0.97791
3756.41862	0.97814
3754.36481	0.97816
3752.31100	0.97831
3750.25719	0.97866
3748.20338	0.97895
3746.14957	0.97930
3744.09576	0.97957
3742.04195	0.97935
3739.98814	0.97883
3737.93433	0.97844
3735.88052	0.97857
3733.82671	0.97878
3731.77290	0.97864
3729.71909	0.97856
3727.66528	0.97847
3725.61147	0.97814
3723.55766	0.97770
3721.50385	0.97761
3719.45004	0.97786
3717.39623	0.97802
3715.34242	0.97764
3713.28861	0.97638
3711.23480	0.97490
3709.18099	0.97467
3707.12718	0.97497
3705.07337	0.97443
3703.01956	0.97327
3700.96575	0.97246
3698.91194	0.97226
3696.85813	0.97244
3694.80432	0.97286
3692.75051	0.97320
3690.69670	0.97319
3688.64289	0.97304
3686.58907	0.97319
3684.53526	0.97330
3682.48145	0.97302
3680.42764	0.97255
3678.37383	0.97234
3676.32002	0.97247
3674.26621	0.97268
3672.21240	0.97294
3670.15859	0.97337
3668.10478	0.97335
3666.05097	0.97250
3663.99716	0.97143
3661.94335	0.97082
3659.88954	0.97065
3657.83573	0.97046
3655.78192	0.96993
3653.72811	0.96924
3651.67430	0.96869
3649.62049	0.96829
3647.56668	0.96813
3645.51287	0.96804
3643.45906	0.96787
3641.40525	0.96786
3639.35144	0.96786
3637.29763	0.96739
3635.24382	0.96669
3633.19001	0.96606
3631.13620	0.96529
3629.08239	0.96454
3627.02858	0.96427
3624.97477	0.96419
3622.92096	0.96389
3620.86715	0.96327
3618.81334	0.96294
3616.75953	0.96349
3614.70572	0.96414
3612.65191	0.96433
3610.59810	0.96421
3608.54429	0.96387
3606.49048	0.96349
3604.43667	0.96330
3602.38286	0.96334
3600.32905	0.96365
3598.27524	0.96416
3596.22143	0.96453
3594.16762	0.96430
3592.11381	0.96375
3590.06000	0.96339
3588.00619	0.96338
3585.95238	0.96362
3583.89857	0.96345
3581.84476	0.96281
3579.79095	0.96221
3577.73714	0.96191
3575.68333	0.96185
3573.62952	0.96184
3571.57571	0.96160
3569.52190	0.96126
3567.46809	0.96106
3565.41428	0.96071
3563.36047	0.96009
3561.30666	0.95947
3559.25285	0.95908
3557.19904	0.95887
3555.14523	0.95862
3553.09142	0.95841
3551.03761	0.95819
3548.98380	0.95761
3546.92999	0.95699
3544.87618	0.95682
3542.82237	0.95657
3540.76856	0.95598
3538.71475	0.95551
3536.66094	0.95521
3534.60713	0.95469
3532.55332	0.95391
3530.49951	0.95337
3528.44570	0.95326
3526.39189	0.95333
3524.33808	0.95334
3522.28427	0.95326
3520.23046	0.95323
3518.17665	0.95323
3516.12284	0.95319
3514.06903	0.95310
3512.01522	0.95287
3509.96141	0.95268
3507.90760	0.95266
3505.85379	0.95256
3503.79998	0.95217
3501.74617	0.95179
3499.69236	0.95162
3497.63855	0.95149
3495.58474	0.95121
3493.53093	0.95075
3491.47712	0.95043
3489.42331	0.95036
3487.36950	0.95024
3485.31569	0.94998
3483.26188	0.94981
3481.20807	0.94983
3479.15426	0.94981
3477.10045	0.94957
3475.04664	0.94923
3472.99283	0.94891
3470.93902	0.94845
3468.88521	0.94797
3466.83140	0.94786
3464.77759	0.94784
3462.72378	0.94745
3460.66997	0.94696
3458.61616	0.94661
3456.56235	0.94634
3454.50854	0.94625
3452.45473	0.94614
3450.40092	0.94588
3448.34711	0.94562
3446.29330	0.94538
3444.23949	0.94533
3442.18568	0.94538
3440.13187	0.94513
3438.07806	0.94467
3436.02425	0.94447
3433.97044	0.94452
3431.91663	0.94450
3429.86282	0.94447
3427.80901	0.94463
3425.75520	0.94462
3423.70139	0.94441
3421.64758	0.94456
3419.59377	0.94480
3417.53996	0.94486
3415.48615	0.94499
3413.43234	0.94498
3411.37853	0.94469
3409.32472	0.94439
3407.27091	0.94437
3405.21710	0.94457
3403.16329	0.94457
3401.10948	0.94442
3399.05567	0.94427
3397.00186	0.94398
3394.94805	0.94370
3392.89424	0.94369
3390.84042	0.94394
3388.78661	0.94432
3386.73280	0.94442
3384.67899	0.94424
3382.62518	0.94422
3380.57137	0.94434
3378.51756	0.94439
3376.46375	0.94444
3374.40994	0.94452
3372.35613	0.94474
3370.30232	0.94496
3368.24851	0.94497
3366.19470	0.94509
3364.14089	0.94523
3362.08708	0.94498
3360.03327	0.94467
3357.97946	0.94472
3355.92565	0.94509
3353.87184	0.94546
3351.81803	0.94571
3349.76422	0.94601
3347.71041	0.94640
3345.65660	0.94668
3343.60279	0.94658
3341.54898	0.94629
3339.49517	0.94625
3337.44136	0.94641
3335.38755	0.94643
3333.33374	0.94630
3331.27993	0.94627
3329.22612	0.94648
3327.17231	0.94679
3325.11850	0.94708
3323.06469	0.94728
3321.01088	0.94748
3318.95707	0.94780
3316.90326	0.94808
3314.84945	0.94823
3312.79564	0.94823
3310.74183	0.94804
3308.68802	0.94800
3306.63421	0.94835
3304.58040	0.94882
3302.52659	0.94896
3300.47278	0.94872
3298.41897	0.94850
3296.36516	0.94839
3294.31135	0.94836
3292.25754	0.94838
3290.20373	0.94847
3288.14992	0.94890
3286.09611	0.94928
3284.04230	0.94916
3281.98849	0.94900
3279.93468	0.94936
3277.88087	0.94990
3275.82706	0.95015
3273.77325	0.95014
3271.71944	0.95005
3269.66563	0.95012
3267.61182	0.95044
3265.55801	0.95081
3263.50420	0.95094
3261.45039	0.95084
3259.39658	0.95093
3257.34277	0.95122
3255.28896	0.95138
3253.23515	0.95148
3251.18134	0.95153
3249.12753	0.95145
3247.07372	0.95156
3245.01991	0.95201
3242.96610	0.95248
3240.91229	0.95283
3238.85848	0.95308
3236.80467	0.95304
3234.75086	0.95292
3232.69705	0.95316
3230.64324	0.95350
3228.58943	0.95364
3226.53562	0.95372
3224.48181	0.95387
3222.42800	0.95407
3220.37419	0.95411
3218.32038	0.95392
3216.26657	0.95380
3214.21276	0.95401
3212.15895	0.95438
3210.10514	0.95464
3208.05133	0.95488
3205.99752	0.95509
3203.94371	0.95513
3201.88990	0.95524
3199.83609	0.95547
3197.78228	0.95574
3195.72847	0.95604
3193.67466	0.95624
3191.62085	0.95642
3189.56704	0.95684
3187.51323	0.95718
3185.45942	0.95709
3183.40561	0.95701
3181.35180	0.95735
3179.29799	0.95767
3177.24418	0.95761
3175.19037	0.95764
3173.13656	0.95800
3171.08275	0.95845
3169.02894	0.95893
3166.97513	0.95903
3164.92132	0.95879
3162.86751	0.95879
3160.81370	0.95913
3158.75989	0.95949
3156.70608	0.95963
3154.65227	0.95960
3152.59846	0.95957
3150.54465	0.95965
3148.49084	0.95976
3146.43703	0.95994
3144.38322	0.96037
3142.32941	0.96081
3140.27560	0.96087
3138.22179	0.96072
3136.16798	0.96086
3134.11417	0.96116
3132.06036	0.96130
3130.00655	0.96156
3127.95274	0.96210
3125.89893	0.96233
3123.84512	0.96201
3121.79131	0.96172
3119.73750	0.96181
3117.68369	0.96212
3115.62988	0.96230
3113.57607	0.96231
3111.52226	0.96246
3109.46845	0.96282
3107.41464	0.96311
3105.36083	0.96312
3103.30702	0.96286
3101.25321	0.96258
3099.19940	0.96260
3097.14559	0.96267
3095.09177	0.96256
3093.03796	0.96250
3090.98415	0.96257
3088.93034	0.96257
3086.87653	0.96239
3084.82272	0.96226
3082.76891	0.96245
3080.71510	0.96283
3078.66129	0.96296
3076.60748	0.96286
3074.55367	0.96300
3072.49986	0.96331
3070.44605	0.96339
3068.39224	0.96327
3066.33843	0.96317
3064.28462	0.96303
3062.23081	0.96282
3060.17700	0.96272
3058.12319	0.96272
3056.06938	0.96279
3054.01557	0.96284
3051.96176	0.96287
3049.90795	0.96297
3047.85414	0.96295
3045.80033	0.96273
3043.74652	0.96268
3041.69271	0.96288
3039.63890	0.96298
3037.58509	0.96297
3035.53128	0.96309
3033.47747	0.96329
3031.42366	0.96339
3029.36985	0.96327
3027.31604	0.96301
3025.26223	0.96276
3023.20842	0.96269
3021.15461	0.96287
3019.10080	0.96314
3017.04699	0.96315
3014.99318	0.96288
3012.93937	0.96277
3010.88556	0.96268
3008.83175	0.96232
3006.77794	0.96215
3004.72413	0.96233
3002.67032	0.96242
3000.61651	0.96213
2998.56270	0.96163
2996.50889	0.96126
2994.45508	0.96086
2992.40127	0.96013
2990.34746	0.95927
2988.29365	0.95838
2986.23984	0.95741
2984.18603	0.95639
2982.13222	0.95499
2980.07841	0.95316
2978.02460	0.95122
2975.97079	0.94913
2973.91698	0.94678
2971.86317	0.94395
2969.80936	0.94053
2967.75555	0.93699
2965.70174	0.93339
2963.64793	0.92932
2961.59412	0.92498
2959.54031	0.92088
2957.48650	0.91720
2955.43269	0.91361
2953.37888	0.91012
2951.32507	0.90664
2949.27126	0.90238
2947.21745	0.89642
2945.16364	0.88797
2943.10983	0.87652
2941.05602	0.86216
2939.00221	0.84504
2936.94840	0.82508
2934.89459	0.80239
2932.84078	0.77703
2930.78697	0.74834
2928.73316	0.71516
2926.67935	0.67578
2924.62554	0.62847
2922.57173	0.57280
2920.51792	0.51152
2918.46411	0.45284
2916.41030	0.41052
2914.35649	0.39757
2912.30268	0.41626
2910.24887	0.45616
2908.19506	0.50254
2906.14125	0.54521
2904.08744	0.58055
2902.03363	0.60892
2899.97982	0.63209
2897.92601	0.65195
2895.87220	0.67004
2893.81839	0.68722
2891.76458	0.70391
2889.71077	0.72072
2887.65696	0.73798
2885.60315	0.75518
2883.54934	0.77188
2881.49553	0.78802
2879.44172	0.80368
2877.38791	0.81827
2875.33410	0.83042
2873.28029	0.83908
2871.22648	0.84425
2869.17267	0.84638
2867.11886	0.84537
2865.06505	0.84000
2863.01124	0.82863
2860.95743	0.80977
2858.90362	0.78129
2856.84981	0.73895
2854.79600	0.67656
2852.74219	0.59226
2850.68838	0.50158
2848.63457	0.44181
2846.58076	0.44478
2844.52695	0.50391
2842.47314	0.58552
2840.41933	0.66222
2838.36552	0.72368
2836.31171	0.76978
2834.25790	0.80373
2832.20409	0.82885
2830.15028	0.84782
2828.09647	0.86253
2826.04266	0.87427
2823.98885	0.88389
2821.93504	0.89187
2819.88123	0.89843
2817.82742	0.90383
2815.77361	0.90842
2813.71980	0.91250
2811.66599	0.91615
2809.61218	0.91918
2807.55837	0.92182
2805.50456	0.92455
2803.45075	0.92709
2801.39693	0.92901
2799.34312	0.93069
2797.28931	0.93252
2795.23550	0.93444
2793.18169	0.93622
2791.12788	0.93785
2789.07407	0.93947
2787.02026	0.94098
2784.96645	0.94224
2782.91264	0.94345
2780.85883	0.94469
2778.80502	0.94579
2776.75121	0.94678
2774.69740	0.94789
2772.64359	0.94883
2770.58978	0.94941
2768.53597	0.94997
2766.48216	0.95059
2764.42835	0.95119
2762.37454	0.95175
2760.32073	0.95221
2758.26692	0.95270
2756.21311	0.95327
2754.15930	0.95366
2752.10549	0.95399
2750.05168	0.95421
2747.99787	0.95429
2745.94406	0.95462
2743.89025	0.95501
2741.83644	0.95511
2739.78263	0.95520
2737.72882	0.95528
2735.67501	0.95520
2733.62120	0.95525
2731.56739	0.95558
2729.51358	0.95599
2727.45977	0.95638
2725.40596	0.95675
2723.35215	0.95705
2721.29834	0.95728
2719.24453	0.95758
2717.19072	0.95800
2715.13691	0.95844
2713.08310	0.95868
2711.02929	0.95882
2708.97548	0.95914
2706.92167	0.95952
2704.86786	0.95969
2702.81405	0.95967
2700.76024	0.95971
2698.70643	0.95990
2696.65262	0.96007
2694.59881	0.96019
2692.54500	0.96029
2690.49119	0.96041
2688.43738	0.96056
2686.38357	0.96064
2684.32976	0.96052
2682.27595	0.96040
2680.22214	0.96056
2678.16833	0.96077
2676.11452	0.96074
2674.06071	0.96051
2672.00690	0.96016
2669.95309	0.95973
2667.89928	0.95949
2665.84547	0.95948
2663.79166	0.95935
2661.73785	0.95910
2659.68404	0.95895
2657.63023	0.95896
2655.57642	0.95910
2653.52261	0.95933
2651.46880	0.95951
2649.41499	0.95972
2647.36118	0.96005
2645.30737	0.96017
2643.25356	0.95990
2641.19975	0.95969
2639.14594	0.95979
2637.09213	0.95993
2635.03832	0.96009
2632.98451	0.96031
2630.93070	0.96047
2628.87689	0.96071
2626.82308	0.96121
2624.76927	0.96168
2622.71546	0.96181
2620.66165	0.96208
2618.60784	0.96276
2616.55403	0.96329
2614.50022	0.96355
2612.44641	0.96385
2610.39260	0.96416
2608.33879	0.96436
2606.28498	0.96441
2604.23117	0.96453
2602.17736	0.96488
2600.12355	0.96521
2598.06974	0.96549
2596.01593	0.96577
2593.96212	0.96599
2591.90831	0.96632
2589.85450	0.96667
2587.80069	0.96697
2585.74688	0.96720
2583.69307	0.96693
2581.63926	0.96669
2579.58545	0.96693
2577.53164	0.96723
2575.47783	0.96763
2573.42402	0.96804
2571.37021	0.96822
2569.31640	0.96841
2567.26259	0.96850
2565.20878	0.96824
2563.15497	0.96821
2561.10116	0.96866
2559.04735	0.96898
2556.99354	0.96899
2554.93973	0.96906
2552.88592	0.96930
2550.83211	0.96941
2548.77830	0.96951
2546.72449	0.96990
2544.67068	0.97021
2542.61687	0.97021
2540.56306	0.97018
2538.50925	0.97009
2536.45544	0.96998
2534.40163	0.97017
2532.34782	0.97031
2530.29401	0.97020
2528.24020	0.97014
2526.18639	0.97033
2524.13258	0.97067
2522.07877	0.97103
2520.02496	0.97131
2517.97115	0.97155
2515.91734	0.97161
2513.86353	0.97129
2511.80972	0.97078
2509.75591	0.97059
2507.70210	0.97077
2505.64828	0.97107
2503.59447	0.97156
2501.54066	0.97208
2499.48685	0.97229
2497.43304	0.97216
2495.37923	0.97200
2493.32542	0.97211
2491.27161	0.97228
2489.21780	0.97218
2487.16399	0.97193
2485.11018	0.97175
2483.05637	0.97185
2481.00256	0.97213
2478.94875	0.97206
2476.89494	0.97185
2474.84113	0.97210
2472.78732	0.97260
2470.73351	0.97300
2468.67970	0.97318
2466.62589	0.97309
2464.57208	0.97270
2462.51827	0.97237
2460.46446	0.97239
2458.41065	0.97249
2456.35684	0.97274
2454.30303	0.97304
2452.24922	0.97292
2450.19541	0.97264
2448.14160	0.97286
2446.08779	0.97323
2444.03398	0.97315
2441.98017	0.97288
2439.92636	0.97291
2437.87255	0.97334
2435.81874	0.97364
2433.76493	0.97352
2431.71112	0.97353
2429.65731	0.97387
2427.60350	0.97402
2425.54969	0.97390
2423.49588	0.97389
2421.44207	0.97385
2419.38826	0.97366
2417.33445	0.97368
2415.28064	0.97402
2413.22683	0.97431
2411.17302	0.97429
2409.11921	0.97411
2407.06540	0.97407
2405.01159	0.97417
2402.95778	0.97422
2400.90397	0.97426
2398.85016	0.97430
2396.79635	0.97418
2394.74254	0.97382
2392.68873	0.97357
2390.63492	0.97357
2388.58111	0.97359
2386.52730	0.97361
2384.47349	0.97378
2382.41968	0.97394
2380.36587	0.97380
2378.31206	0.97350
2376.25825	0.97346
2374.20444	0.97342
2372.15063	0.97309
2370.09682	0.97271
2368.04301	0.97238
2365.98920	0.97252
2363.93539	0.97321
2361.88158	0.97343
2359.82777	0.97327
2357.77396	0.97376
2355.72015	0.97426
2353.66634	0.97397
2351.61253	0.97326
2349.55872	0.97251
2347.50491	0.97195
2345.45110	0.97187
2343.39729	0.97227
2341.34348	0.97248
2339.28967	0.97199
2337.23586	0.97150
2335.18205	0.97143
2333.12824	0.97118
2331.07443	0.97076
2329.02062	0.97055
2326.96681	0.97032
2324.91300	0.96983
2322.85919	0.96970
2320.80538	0.97060
2318.75157	0.97174
2316.69776	0.97209
2314.64395	0.97190
2312.59014	0.97186
2310.53633	0.97192
2308.48252	0.97219
2306.42871	0.97267
2304.37490	0.97266
2302.32109	0.97238
2300.26728	0.97254
2298.21347	0.97273
2296.15966	0.97262
2294.10585	0.97247
2292.05204	0.97219
2289.99823	0.97196
2287.94442	0.97211
2285.89061	0.97258
2283.83680	0.97294
2281.78299	0.97296
2279.72918	0.97318
2277.67537	0.97373
2275.62156	0.97399
2273.56775	0.97433
2271.51394	0.97525
2269.46013	0.97578
2267.40632	0.97519
2265.35251	0.97456
2263.29870	0.97458
2261.24489	0.97438
2259.19108	0.97437
2257.13727	0.97508
2255.08346	0.97578
2253.02965	0.97608
2250.97584	0.97586
2248.92203	0.97512
2246.86822	0.97463
2244.81441	0.97484
2242.76060	0.97506
2240.70679	0.97545
2238.65298	0.97585
2236.59917	0.97570
2234.54536	0.97524
2232.49155	0.97436
2230.43774	0.97398
2228.38393	0.97463
2226.33012	0.97490
2224.27631	0.97464
2222.22250	0.97496
2220.16869	0.97577
2218.11488	0.97693
2216.06107	0.97783
2214.00726	0.97769
2211.95344	0.97757
2209.89963	0.97836
2207.84582	0.97911
2205.79201	0.97845
2203.73820	0.97738
2201.68439	0.97764
2199.63058	0.97829
2197.57677	0.97775
2195.52296	0.97733
2193.46915	0.97836
2191.41534	0.97843
2189.36153	0.97651
2187.30772	0.97494
2185.25391	0.97433
2183.20010	0.97478
2181.14629	0.97619
2179.09248	0.97676
2177.03867	0.97652
2174.98486	0.97654
2172.93105	0.97698
2170.87724	0.97779
2168.82343	0.97753
2166.76962	0.97624
2164.71581	0.97613
2162.66200	0.97654
2160.60819	0.97725
2158.55438	0.98019
2156.50057	0.98223
2154.44676	0.98089
2152.39295	0.97878
2150.33914	0.97742
2148.28533	0.97691
2146.23152	0.97740
2144.17771	0.97836
2142.12390	0.97893
2140.07009	0.97882
2138.01628	0.97884
2135.96247	0.97940
2133.90866	0.97923
2131.85485	0.97820
2129.80104	0.97765
2127.74723	0.97788
2125.69342	0.97795
2123.63961	0.97728
2121.58580	0.97688
2119.53199	0.97752
2117.47818	0.97823
2115.42437	0.97810
2113.37056	0.97758
2111.31675	0.97716
2109.26294	0.97672
2107.20913	0.97630
2105.15532	0.97586
2103.10151	0.97535
2101.04770	0.97551
2098.99389	0.97647
2096.94008	0.97649
2094.88627	0.97551
2092.83246	0.97538
2090.77865	0.97619
2088.72484	0.97646
2086.67103	0.97579
2084.61722	0.97524
2082.56341	0.97539
2080.50960	0.97609
2078.45579	0.97718
2076.40198	0.97786
2074.34817	0.97725
2072.29436	0.97638
2070.24055	0.97658
2068.18674	0.97700
2066.13293	0.97665
2064.07912	0.97612
2062.02531	0.97615
2059.97150	0.97654
2057.91769	0.97696
2055.86388	0.97739
2053.81007	0.97742
2051.75626	0.97649
2049.70245	0.97525
2047.64864	0.97504
2045.59483	0.97515
2043.54102	0.97440
2041.48721	0.97403
2039.43340	0.97500
2037.37959	0.97630
2035.32578	0.97755
2033.27197	0.97915
2031.21816	0.97959
2029.16435	0.97736
2027.11054	0.97492
2025.05673	0.97558
2023.00292	0.97782
2020.94911	0.97823
2018.89530	0.97673
2016.84149	0.97560
2014.78768	0.97562
2012.73387	0.97552
2010.68006	0.97498
2008.62625	0.97596
2006.57244	0.97883
2004.51863	0.98034
2002.46482	0.97968
2000.41101	0.97855
1998.35720	0.97787
1996.30339	0.97781
1994.24958	0.97755
1992.19577	0.97691
1990.14196	0.97646
1988.08815	0.97603
1986.03434	0.97523
1983.98053	0.97453
1981.92672	0.97453
1979.87291	0.97535
1977.81910	0.97717
1975.76529	0.97778
1973.71148	0.97616
1971.65767	0.97568
1969.60386	0.97679
1967.55005	0.97756
1965.49624	0.97795
1963.44243	0.97819
1961.38862	0.97874
1959.33481	0.97926
1957.28100	0.97843
1955.22719	0.97702
1953.17338	0.97686
1951.11957	0.97743
1949.06576	0.97737
1947.01195	0.97687
1944.95814	0.97635
1942.90433	0.97589
1940.85052	0.97581
1938.79671	0.97623
1936.74290	0.97656
1934.68909	0.97636
1932.63528	0.97638
1930.58147	0.97703
1928.52766	0.97761
1926.47385	0.97791
1924.42004	0.97795
1922.36623	0.97747
1920.31242	0.97701
1918.25861	0.97701
1916.20479	0.97717
1914.15098	0.97702
1912.09717	0.97656
1910.04336	0.97614
1907.98955	0.97592
1905.93574	0.97579
1903.88193	0.97547
1901.82812	0.97532
1899.77431	0.97549
1897.72050	0.97564
1895.66669	0.97562
1893.61288	0.97543
1891.55907	0.97542
1889.50526	0.97562
1887.45145	0.97564
1885.39764	0.97527
1883.34383	0.97500
1881.29002	0.97544
1879.23621	0.97606
1877.18240	0.97634
1875.12859	0.97638
1873.07478	0.97618
1871.02097	0.97603
1868.96716	0.97594
1866.91335	0.97575
1864.85954	0.97556
1862.80573	0.97547
1860.75192	0.97563
1858.69811	0.97581
1856.64430	0.97603
1854.59049	0.97641
1852.53668	0.97639
1850.48287	0.97609
1848.42906	0.97608
1846.37525	0.97603
1844.32144	0.97570
1842.26763	0.97548
1840.21382	0.97551
1838.16001	0.97555
1836.10620	0.97538
1834.05239	0.97539
1831.99858	0.97551
1829.94477	0.97513
1827.89096	0.97465
1825.83715	0.97465
1823.78334	0.97466
1821.72953	0.97434
1819.67572	0.97418
1817.62191	0.97437
1815.56810	0.97426
1813.51429	0.97388
1811.46048	0.97375
1809.40667	0.97375
1807.35286	0.97342
1805.29905	0.97279
1803.24524	0.97221
1801.19143	0.97158
1799.13762	0.97086
1797.08381	0.97034
1795.03000	0.96993
1792.97619	0.96932
1790.92238	0.96828
1788.86857	0.96699
1786.81476	0.96576
1784.76095	0.96452
1782.70714	0.96329
1780.65333	0.96229
1778.59952	0.96171
1776.54571	0.96141
1774.49190	0.96099
1772.43809	0.96051
1770.38428	0.96000
1768.33047	0.95925
1766.27666	0.95863
1764.22285	0.95833
1762.16904	0.95801
1760.11523	0.95748
1758.06142	0.95681
1756.00761	0.95594
1753.95380	0.95476
1751.89999	0.95318
1749.84618	0.95087
1747.79237	0.94792
1745.73856	0.94482
1743.68475	0.94157
1741.63094	0.93817
1739.57713	0.93478
1737.52332	0.93240
1735.46951	0.93121
1733.41570	0.92985
1731.36189	0.92780
1729.30808	0.92482
1727.25427	0.91972
1725.20046	0.91198
1723.14665	0.90265
1721.09284	0.89461
1719.03903	0.88814
1716.98522	0.88251
1714.93141	0.88024
1712.87760	0.88138
1710.82379	0.88463
1708.76998	0.88946
1706.71617	0.89530
1704.66236	0.90116
1702.60855	0.90578
1700.55474	0.91034
1698.50093	0.91503
1696.44712	0.91932
1694.39331	0.92347
1692.33950	0.92657
1690.28569	0.92927
1688.23188	0.93154
1686.17807	0.93296
1684.12426	0.93398
1682.07045	0.93463
1680.01664	0.93475
1677.96283	0.93467
1675.90902	0.93458
1673.85521	0.93456
1671.80140	0.93454
1669.74759	0.93414
1667.69378	0.93363
1665.63997	0.93338
1663.58616	0.93308
1661.53235	0.93273
1659.47854	0.93260
1657.42473	0.93252
1655.37092	0.93248
1653.31711	0.93258
1651.26330	0.93269
1649.20949	0.93264
1647.15568	0.93235
1645.10187	0.93184
1643.04806	0.93141
1640.99425	0.93104
1638.94044	0.93069
1636.88663	0.93024
1634.83282	0.92952
1632.77901	0.92902
1630.72520	0.92856
1628.67139	0.92790
1626.61758	0.92731
1624.56377	0.92699
1622.50996	0.92693
1620.45614	0.92723
1618.40233	0.92798
1616.34852	0.92892
1614.29471	0.92960
1612.24090	0.93001
1610.18709	0.93011
1608.13328	0.92985
1606.07947	0.92961
1604.02566	0.92951
1601.97185	0.92915
1599.91804	0.92843
1597.86423	0.92754
1595.81042	0.92664
1593.75661	0.92573
1591.70280	0.92466
1589.64899	0.92341
1587.59518	0.92229
1585.54137	0.92121
1583.48756	0.91986
1581.43375	0.91838
1579.37994	0.91714
1577.32613	0.91588
1575.27232	0.91452
1573.21851	0.91392
1571.16470	0.91371
1569.11089	0.91341
1567.05708	0.91305
1565.00327	0.91272
1562.94946	0.91253
1560.89565	0.91263
1558.84184	0.91268
1556.78803	0.91253
1554.73422	0.91285
1552.68041	0.91351
1550.62660	0.91433
1548.57279	0.91559
1546.51898	0.91726
1544.46517	0.91903
1542.41136	0.92086
1540.35755	0.92343
1538.30374	0.92670
1536.24993	0.92924
1534.19612	0.93200
1532.14231	0.93537
1530.08850	0.93793
1528.03469	0.93994
1525.98088	0.94192
1523.92707	0.94339
1521.87326	0.94448
1519.81945	0.94555
1517.76564	0.94641
1515.71183	0.94737
1513.65802	0.94843
1511.60421	0.94932
1509.55040	0.95014
1507.49659	0.95093
1505.44278	0.95114
1503.38897	0.95089
1501.33516	0.95066
1499.28135	0.95037
1497.22754	0.95003
1495.17373	0.94963
1493.11992	0.94922
1491.06611	0.94858
1489.01230	0.94735
1486.95849	0.94544
1484.90468	0.94288
1482.85087	0.93909
1480.79706	0.93264
1478.74325	0.91856
1476.68944	0.88180
1474.63563	0.81196
1472.58182	0.74812
1470.52801	0.74542
1468.47420	0.76809
1466.42039	0.77357
1464.36658	0.75814
1462.31277	0.75488
1460.25896	0.77982
1458.20515	0.81763
1456.15134	0.84679
1454.09753	0.86027
1452.04372	0.86897
1449.98991	0.87620
1447.93610	0.88140
1445.88229	0.88456
1443.82848	0.88655
1441.77467	0.88817
1439.72086	0.88954
1437.66705	0.89101
1435.61324	0.89263
1433.55943	0.89415
1431.50562	0.89600
1429.45181	0.89808
1427.39800	0.89960
1425.34419	0.90032
1423.29038	0.90046
1421.23657	0.90012
1419.18276	0.89905
1417.12895	0.89741
1415.07514	0.89596
1413.02133	0.89492
1410.96752	0.89498
1408.91371	0.89657
1406.85990	0.89934
1404.80609	0.90289
1402.75228	0.90642
1400.69847	0.90956
1398.64466	0.91266
1396.59085	0.91553
1394.53704	0.91809
1392.48323	0.92012
1390.42942	0.92138
1388.37561	0.92204
1386.32180	0.92183
1384.26799	0.92029
1382.21418	0.91747
1380.16037	0.91390
1378.10656	0.91092
1376.05275	0.90969
1373.99894	0.90999
1371.94513	0.91082
1369.89132	0.91164
1367.83751	0.91249
1365.78370	0.91362
1363.72989	0.91505
1361.67608	0.91658
1359.62227	0.91788
1357.56846	0.91892
1355.51465	0.91980
1353.46084	0.92066
1351.40703	0.92161
1349.35322	0.92264
1347.29941	0.92384
1345.24560	0.92518
1343.19179	0.92643
1341.13798	0.92753
1339.08417	0.92847
1337.03036	0.92919
1334.97655	0.92976
1332.92274	0.93020
1330.86893	0.93018
1328.81512	0.92950
1326.76130	0.92851
1324.70749	0.92744
1322.65368	0.92625
1320.59987	0.92505
1318.54606	0.92417
1316.49225	0.92380
1314.43844	0.92382
1312.38463	0.92402
1310.33082	0.92408
1308.27701	0.92389
1306.22320	0.92371
1304.16939	0.92364
1302.11558	0.92348
1300.06177	0.92313
1298.00796	0.92286
1295.95415	0.92289
1293.90034	0.92310
1291.84653	0.92338
1289.79272	0.92354
1287.73891	0.92348
1285.68510	0.92336
1283.63129	0.92337
1281.57748	0.92328
1279.52367	0.92293
1277.46986	0.92248
1275.41605	0.92202
1273.36224	0.92163
1271.30843	0.92140
1269.25462	0.92114
1267.20081	0.92080
1265.14700	0.92048
1263.09319	0.92024
1261.03938	0.92009
1258.98557	0.91990
1256.93176	0.91963
1254.87795	0.91937
1252.82414	0.91918
1250.77033	0.91899
1248.71652	0.91867
1246.66271	0.91832
1244.60890	0.91805
1242.55509	0.91783
1240.50128	0.91776
1238.44747	0.91782
1236.39366	0.91774
1234.33985	0.91756
1232.28604	0.91752
1230.23223	0.91749
1228.17842	0.91719
1226.12461	0.91688
1224.07080	0.91682
1222.01699	0.91675
1219.96318	0.91650
1217.90937	0.91616
1215.85556	0.91573
1213.80175	0.91524
1211.74794	0.91485
1209.69413	0.91450
1207.64032	0.91393
1205.58651	0.91314
1203.53270	0.91234
1201.47889	0.91157
1199.42508	0.91085
1197.37127	0.91002
1195.31746	0.90888
1193.26365	0.90768
1191.20984	0.90668
1189.15603	0.90573
1187.10222	0.90468
1185.04841	0.90347
1182.99460	0.90226
1180.94079	0.90128
1178.88698	0.90047
1176.83317	0.89959
1174.77936	0.89849
1172.72555	0.89741
1170.67174	0.89668
1168.61793	0.89624
1166.56412	0.89593
1164.51031	0.89583
1162.45650	0.89613
1160.40269	0.89680
1158.34888	0.89763
1156.29507	0.89847
1154.24126	0.89916
1152.18745	0.89949
1150.13364	0.89953
1148.07983	0.89923
1146.02602	0.89863
1143.97221	0.89796
1141.91840	0.89714
1139.86459	0.89601
1137.81078	0.89449
1135.75697	0.89263
1133.70316	0.89057
1131.64935	0.88831
1129.59554	0.88594
1127.54173	0.88361
1125.48792	0.88115
1123.43411	0.87852
1121.38030	0.87568
1119.32649	0.87274
1117.27268	0.86996
1115.21887	0.86730
1113.16506	0.86472
1111.11125	0.86231
1109.05744	0.86021
1107.00363	0.85847
1104.94982	0.85675
1102.89601	0.85485
1100.84220	0.85300
1098.78839	0.85147
1096.73458	0.85022
1094.68077	0.84888
1092.62696	0.84740
1090.57315	0.84605
1088.51934	0.84461
1086.46553	0.84296
1084.41172	0.84155
1082.35791	0.84057
1080.30410	0.83972
1078.25029	0.83872
1076.19648	0.83759
1074.14267	0.83684
1072.08886	0.83642
1070.03505	0.83551
1067.98124	0.83410
1065.92743	0.83272
1063.87362	0.83145
1061.81981	0.83025
1059.76600	0.82899
1057.71219	0.82727
1055.65838	0.82515
1053.60457	0.82299
1051.55076	0.82082
1049.49695	0.81849
1047.44314	0.81601
1045.38933	0.81353
1043.33552	0.81122
1041.28171	0.80915
1039.22790	0.80745
1037.17409	0.80626
1035.12028	0.80564
1033.06647	0.80573
1031.01265	0.80643
1028.95884	0.80753
1026.90503	0.80902
1024.85122	0.81072
1022.79741	0.81239
1020.74360	0.81389
1018.68979	0.81522
1016.63598	0.81643
1014.58217	0.81751
1012.52836	0.81855
1010.47455	0.81993
1008.42074	0.82186
1006.36693	0.82409
1004.31312	0.82643
1002.25931	0.82932
1000.20550	0.83313
998.15169	0.83745
996.09788	0.84185
994.04407	0.84612
991.99026	0.85021
989.93645	0.85409
987.88264	0.85799
985.82883	0.86217
983.77502	0.86632
981.72121	0.87003
979.66740	0.87341
977.61359	0.87683
975.55978	0.88033
973.50597	0.88369
971.45216	0.88684
969.39835	0.88963
967.34454	0.89206
965.29073	0.89441
963.23692	0.89651
961.18311	0.89811
959.12930	0.89954
957.07549	0.90105
955.02168	0.90238
952.96787	0.90346
950.91406	0.90435
948.86025	0.90503
946.80644	0.90557
944.75263	0.90600
942.69882	0.90620
940.64501	0.90604
938.59120	0.90572
936.53739	0.90585
934.48358	0.90648
932.42977	0.90700
930.37596	0.90699
928.32215	0.90681
926.26834	0.90677
924.21453	0.90650
922.16072	0.90587
920.10691	0.90504
918.05310	0.90398
915.99929	0.90279
913.94548	0.90208
911.89167	0.90195
909.83786	0.90210
907.78405	0.90327
905.73024	0.90585
903.67643	0.90905
901.62262	0.91222
899.56881	0.91491
897.51500	0.91689
895.46119	0.91829
893.40738	0.91928
891.35357	0.92010
889.29976	0.92095
887.24595	0.92185
885.19214	0.92237
883.13833	0.92239
881.08452	0.92216
879.03071	0.92187
876.97690	0.92194
874.92309	0.92248
872.86928	0.92345
870.81547	0.92483
868.76166	0.92610
866.70785	0.92668
864.65404	0.92688
862.60023	0.92740
860.54642	0.92826
858.49261	0.92895
856.43880	0.92927
854.38499	0.92948
852.33118	0.92963
850.27737	0.92965
848.22356	0.92959
846.16975	0.92938
844.11594	0.92898
842.06213	0.92874
840.00832	0.92884
837.95451	0.92884
835.90070	0.92813
833.84689	0.92708
831.79308	0.92646
829.73927	0.92608
827.68546	0.92553
825.63165	0.92548
823.57784	0.92624
821.52403	0.92663
819.47022	0.92628
817.41641	0.92559
815.36260	0.92484
813.30879	0.92409
811.25498	0.92284
809.20117	0.92084
807.14736	0.91849
805.09355	0.91593
803.03974	0.91339
800.98593	0.91134
798.93212	0.90994
796.87831	0.91002
794.82450	0.91144
792.77069	0.91268
790.71688	0.91315
788.66307	0.91304
786.60926	0.91223
784.55545	0.91059
782.50164	0.90888
780.44783	0.90804
778.39402	0.90827
776.34021	0.90944
774.28640	0.91082
772.23259	0.91136
770.17878	0.91111
768.12497	0.91090
766.07116	0.91089
764.01735	0.91051
761.96354	0.90976
759.90973	0.90909
757.85592	0.90849
755.80211	0.90751
753.74830	0.90630
751.69449	0.90554
749.64068	0.90486
747.58687	0.90367
745.53306	0.90227
743.47925	0.90092
741.42544	0.89931
739.37163	0.89642
737.31781	0.88979
735.26400	0.87261
733.21019	0.83574
731.15638	0.79211
729.10257	0.77636
727.04876	0.78954
724.99495	0.79588
722.94114	0.77246
720.88733	0.72409
718.83352	0.68548
716.77971	0.69147
714.72590	0.73576
712.67209	0.78764
710.61828	0.82475
708.56447	0.84484
706.51066	0.85498
704.45685	0.86056
702.40304	0.86399
700.34923	0.86603
698.29542	0.86696
696.24161	0.86745
694.18780	0.86783
692.13399	0.86841
690.08018	0.86987
688.02637	0.87120
685.97256	0.87123
683.91875	0.87061
681.86494	0.87043
679.81113	0.87123
677.75732	0.87186
675.70351	0.87131
673.64970	0.87043
671.59589	0.86999
669.54208	0.87025
667.48827	0.87146
665.43446	0.87213
663.38065	0.87188
661.32684	0.87159
659.27303	0.87184
657.21922	0.87227
655.16541	0.87241
653.11160	0.87256
651.05779	0.87271
649.00398	0.87243
646.95017	0.87200
644.89636	0.87184
642.84255	0.87133
640.78874	0.87027
638.73493	0.86960
636.68112	0.86965
634.62731	0.87001
632.57350	0.87002
630.51969	0.86913
628.46588	0.86788
626.41207	0.86734
624.35826	0.86780
622.30445	0.86827
620.25064	0.86831
618.19683	0.86819
616.14302	0.86756
614.08921	0.86690
612.03540	0.86662
609.98159	0.86586
607.92778	0.86499
605.87397	0.86489
603.82016	0.86526
601.76635	0.86523
599.71254	0.86408
597.65873	0.86246
595.60492	0.86158
593.55111	0.86091
591.49730	0.85960
589.44349	0.85813
587.38968	0.85740
585.33587	0.85714
583.28206	0.85593
581.22825	0.85408
579.17444	0.85276
577.12063	0.85135
575.06682	0.84974
573.01301	0.84793
570.95920	0.84578
568.90539	0.84401
566.85158	0.84266
564.79777	0.84145
562.74396	0.84032
560.69015	0.83857
558.63634	0.83562
556.58253	0.83294
554.52872	0.83210
552.47491	0.83207
550.42110	0.83156
548.36729	0.83027
546.31348	0.82843
544.25967	0.82674
542.20586	0.82477
540.15205	0.82202
538.09824	0.82077
536.04443	0.82117
533.99062	0.82016
531.93681	0.81918
529.88300	0.82027
527.82919	0.82155
525.77538	0.82223
523.72157	0.82237
521.66776	0.82262
519.61395	0.82455
517.56014	0.82754
515.50633	0.83022
513.45252	0.83291
511.39871	0.83537
509.34490	0.83720
507.29109	0.83847
505.23728	0.83946
503.18347	0.84073
501.12966	0.84240
499.07585	0.84412
497.02204	0.84473
494.96823	0.84373
492.91442	0.84244
490.86061	0.84070
488.80680	0.83719
486.75299	0.83244
484.69918	0.82657
482.64537	0.81918
480.59156	0.81248
478.53775	0.80777
476.48394	0.80308
474.43013	0.79796
472.37632	0.79482
470.32251	0.79431
468.26870	0.79551
466.21489	0.79886
464.16108	0.80386
462.10727	0.80951
460.05346	0.81485
457.99965	0.81970
455.94584	0.82626
453.89203	0.83363
451.83822	0.83809
449.78441	0.83941
447.73060	0.84120
445.67679	0.84437
443.62298	0.84495
441.56916	0.84313
439.51535	0.84319
437.46154	0.84423
435.40773	0.84461
433.35392	0.84400
431.30011	0.84257
429.24630	0.84251
427.19249	0.84354
425.13868	0.84341
423.08487	0.84393
421.03106	0.84711
418.97725	0.84898
416.92344	0.84791
414.86963	0.85024
412.81582	0.85572
410.76201	0.85984
408.70820	0.86119
406.65439	0.86170
404.60058	0.86230
402.54677	0.86156
400.49296	0.86069
398.43915	0.86230
