3996.71440	0.99183
3994.66059	0.99173
3992.60678	0.99141
3990.55297	0.99119
3988.49916	0.99148
3986.44535	0.99183
3984.39154	0.99187
3982.33773	0.99196
3980.28391	0.99223
3978.23010	0.99254
3976.17629	0.99267
3974.12248	0.99239
3972.06867	0.99186
3970.01486	0.99164
3967.96105	0.99190
3965.90724	0.99218
3963.85343	0.99221
3961.79962	0.99206
3959.74581	0.99182
3957.69200	0.99181
3955.63819	0.99216
3953.58438	0.99258
3951.53057	0.99242
3949.47676	0.99184
3947.42295	0.99170
3945.36914	0.99178
3943.31533	0.99168
3941.26152	0.99176
3939.20771	0.99207
3937.15390	0.99217
3935.10009	0.99205
3933.04628	0.99198
3930.99247	0.99193
3928.93866	0.99191
3926.88485	0.99188
3924.83104	0.99146
3922.77723	0.99098
3920.72342	0.99127
3918.66961	0.99195
3916.61580	0.99225
3914.56199	0.99234
3912.50818	0.99238
3910.45437	0.99231
3908.40056	0.99217
3906.34675	0.99182
3904.29294	0.99166
3902.23913	0.99183
3900.18532	0.99167
3898.13151	0.99133
3896.07770	0.99113
3894.02389	0.99119
3891.97008	0.99164
3889.91627	0.99187
3887.86246	0.99143
3885.80865	0.99104
3883.75484	0.99112
3881.70103	0.99133
3879.64722	0.99144
3877.59341	0.99141
3875.53960	0.99139
3873.48579	0.99133
3871.43198	0.99120
3869.37817	0.99128
3867.32436	0.99153
3865.27055	0.99166
3863.21674	0.99150
3861.16293	0.99132
3859.10912	0.99135
3857.05531	0.99133
3855.00150	0.99112
3852.94769	0.99106
3850.89388	0.99121
3848.84007	0.99119
3846.78626	0.99105
3844.73245	0.99081
3842.67864	0.99073
3840.62483	0.99105
3838.57102	0.99119
3836.51721	0.99117
3834.46340	0.99158
3832.40959	0.99200
3830.35578	0.99196
3828.30197	0.99171
3826.24816	0.99159
3824.19435	0.99161
3822.14054	0.99167
3820.08673	0.99168
3818.03292	0.99142
3815.97911	0.99118
3813.92530	0.99134
3811.87149	0.99148
3809.81768	0.99139
3807.76387	0.99136
3805.71006	0.99137
3803.65625	0.99119
3801.60244	0.99086
3799.54863	0.99066
3797.49482	0.99096
3795.44101	0.99111
3793.38720	0.99074
3791.33339	0.99047
3789.27958	0.99051
3787.22577	0.99090
3785.17196	0.99151
3783.11815	0.99175
3781.06434	0.99135
3779.01053	0.99100
3776.95672	0.99103
3774.90291	0.99097
3772.84910	0.99081
3770.79529	0.99064
3768.74148	0.99043
3766.68767	0.99034
3764.63386	0.99035
3762.58005	0.99042
3760.52624	0.99065
3758.47243	0.99087
3756.41862	0.99080
3754.36481	0.99035
3752.31100	0.98986
3750.25719	0.98980
3748.20338	0.99006
3746.14957	0.99036
3744.09576	0.99034
3742.04195	0.99010
3739.98814	0.99017
3737.93433	0.99039
3735.88052	0.99044
3733.82671	0.99013
3731.77290	0.98990
3729.71909	0.98981
3727.66528	0.98951
3725.61147	0.98916
3723.55766	0.98876
3721.50385	0.98832
3719.45004	0.98816
3717.39623	0.98833
3715.34242	0.98871
3713.28861	0.98914
3711.23480	0.98939
3709.18099	0.98918
3707.12718	0.98858
3705.07337	0.98781
3703.01956	0.98696
3700.96575	0.98630
3698.91194	0.98627
3696.85813	0.98632
3694.80432	0.98592
3692.75051	0.98536
3690.69670	0.98481
3688.64289	0.98425
3686.58907	0.98380
3684.53526	0.98343
3682.48145	0.98305
3680.42764	0.98264
3678.37383	0.98199
3676.32002	0.98100
3674.26621	0.98047
3672.21240	0.98035
3670.15859	0.97961
3668.10478	0.97837
3666.05097	0.97737
3663.99716	0.97674
3661.94335	0.97647
3659.88954	0.97603
3657.83573	0.97491
3655.78192	0.97316
3653.72811	0.97156
3651.67430	0.97045
3649.62049	0.96943
3647.56668	0.96802
3645.51287	0.96663
3643.45906	0.96569
3641.40525	0.96478
3639.35144	0.96363
3637.29763	0.96248
3635.24382	0.96155
3633.19001	0.96087
3631.13620	0.96025
3629.08239	0.95890
3627.02858	0.95712
3624.97477	0.95606
3622.92096	0.95526
3620.86715	0.95437
3618.81334	0.95320
3616.75953	0.95200
3614.70572	0.95111
3612.65191	0.95030
3610.59810	0.94929
3608.54429	0.94825
3606.49048	0.94742
3604.43667	0.94636
3602.38286	0.94503
3600.32905	0.94394
3598.27524	0.94320
3596.22143	0.94237
3594.16762	0.94144
3592.11381	0.94081
3590.06000	0.94031
3588.00619	0.93947
3585.95238	0.93824
3583.89857	0.93706
3581.84476	0.93622
3579.79095	0.93547
3577.73714	0.93437
3575.68333	0.93317
3573.62952	0.93241
3571.57571	0.93209
3569.52190	0.93161
3567.46809	0.93057
3565.41428	0.92947
3563.36047	0.92862
3561.30666	0.92763
3559.25285	0.92654
3557.19904	0.92560
3555.14523	0.92475
3553.09142	0.92386
3551.03761	0.92284
3548.98380	0.92172
3546.92999	0.92093
3544.87618	0.92047
3542.82237	0.91986
3540.76856	0.91902
3538.71475	0.91820
3536.66094	0.91736
3534.60713	0.91638
3532.55332	0.91558
3530.49951	0.91503
3528.44570	0.91464
3526.39189	0.91410
3524.33808	0.91310
3522.28427	0.91203
3520.23046	0.91122
3518.17665	0.91043
3516.12284	0.90960
3514.06903	0.90882
3512.01522	0.90815
3509.96141	0.90748
3507.90760	0.90676
3505.85379	0.90609
3503.79998	0.90548
3501.74617	0.90484
3499.69236	0.90413
3497.63855	0.90330
3495.58474	0.90234
3493.53093	0.90162
3491.47712	0.90124
3489.42331	0.90069
3487.36950	0.89991
3485.31569	0.89914
3483.26188	0.89851
3481.20807	0.89807
3479.15426	0.89749
3477.10045	0.89677
3475.04664	0.89632
3472.99283	0.89597
3470.93902	0.89536
3468.88521	0.89466
3466.83140	0.89409
3464.77759	0.89359
3462.72378	0.89301
3460.66997	0.89245
3458.61616	0.89197
3456.56235	0.89138
3454.50854	0.89071
3452.45473	0.89007
3450.40092	0.88954
3448.34711	0.88920
3446.29330	0.88879
3444.23949	0.88822
3442.18568	0.88766
3440.13187	0.88712
3438.07806	0.88667
3436.02425	0.88636
3433.97044	0.88603
3431.91663	0.88552
3429.86282	0.88499
3427.80901	0.88452
3425.75520	0.88415
3423.70139	0.88410
3421.64758	0.88403
3419.59377	0.88343
3417.53996	0.88263
3415.48615	0.88208
3413.43234	0.88179
3411.37853	0.88174
3409.32472	0.88170
3407.27091	0.88141
3405.21710	0.88103
3403.16329	0.88073
3401.10948	0.88057
3399.05567	0.88064
3397.00186	0.88052
3394.94805	0.88010
3392.89424	0.87987
3390.84042	0.87982
3388.78661	0.87967
3386.73280	0.87939
3384.67899	0.87917
3382.62518	0.87920
3380.57137	0.87927
3378.51756	0.87908
3376.46375	0.87880
3374.40994	0.87869
3372.35613	0.87882
3370.30232	0.87911
3368.24851	0.87924
3366.19470	0.87916
3364.14089	0.87894
3362.08708	0.87865
3360.03327	0.87859
3357.97946	0.87879
3355.92565	0.87888
3353.87184	0.87871
3351.81803	0.87856
3349.76422	0.87866
3347.71041	0.87889
3345.65660	0.87900
3343.60279	0.87900
3341.54898	0.87898
3339.49517	0.87886
3337.44136	0.87894
3335.38755	0.87928
3333.33374	0.87934
3331.27993	0.87911
3329.22612	0.87929
3327.17231	0.88005
3325.11850	0.88083
3323.06469	0.88114
3321.01088	0.88117
3318.95707	0.88142
3316.90326	0.88164
3314.84945	0.88143
3312.79564	0.88131
3310.74183	0.88157
3308.68802	0.88176
3306.63421	0.88172
3304.58040	0.88163
3302.52659	0.88167
3300.47278	0.88193
3298.41897	0.88228
3296.36516	0.88242
3294.31135	0.88238
3292.25754	0.88257
3290.20373	0.88281
3288.14992	0.88288
3286.09611	0.88305
3284.04230	0.88335
3281.98849	0.88352
3279.93468	0.88372
3277.88087	0.88399
3275.82706	0.88405
3273.77325	0.88404
3271.71944	0.88416
3269.66563	0.88433
3267.61182	0.88475
3265.55801	0.88518
3263.50420	0.88534
3261.45039	0.88564
3259.39658	0.88621
3257.34277	0.88677
3255.28896	0.88717
3253.23515	0.88735
3251.18134	0.88751
3249.12753	0.88776
3247.07372	0.88809
3245.01991	0.88838
3242.96610	0.88857
3240.91229	0.88885
3238.85848	0.88909
3236.80467	0.88920
3234.75086	0.88941
3232.69705	0.88959
3230.64324	0.88973
3228.58943	0.89005
3226.53562	0.89063
3224.48181	0.89128
3222.42800	0.89180
3220.37419	0.89212
3218.32038	0.89218
3216.26657	0.89212
3214.21276	0.89236
3212.15895	0.89298
3210.10514	0.89358
3208.05133	0.89399
3205.99752	0.89429
3203.94371	0.89462
3201.88990	0.89490
3199.83609	0.89511
3197.78228	0.89543
3195.72847	0.89586
3193.67466	0.89632
3191.62085	0.89678
3189.56704	0.89728
3187.51323	0.89788
3185.45942	0.89829
3183.40561	0.89849
3181.35180	0.89879
3179.29799	0.89924
3177.24418	0.89977
3175.19037	0.90037
3173.13656	0.90101
3171.08275	0.90144
3169.02894	0.90165
3166.97513	0.90207
3164.92132	0.90255
3162.86751	0.90280
3160.81370	0.90309
3158.75989	0.90360
3156.70608	0.90426
3154.65227	0.90510
3152.59846	0.90585
3150.54465	0.90620
3148.49084	0.90639
3146.43703	0.90666
3144.38322	0.90699
3142.32941	0.90732
3140.27560	0.90774
3138.22179	0.90830
3136.16798	0.90878
3134.11417	0.90920
3132.06036	0.90963
3130.00655	0.91000
3127.95274	0.91039
3125.89893	0.91086
3123.84512	0.91125
3121.79131	0.91150
3119.73750	0.91193
3117.68369	0.91263
3115.62988	0.91315
3113.57607	0.91339
3111.52226	0.91365
3109.46845	0.91392
3107.41464	0.91429
3105.36083	0.91483
3103.30702	0.91518
3101.25321	0.91535
3099.19940	0.91585
3097.14559	0.91648
3095.09177	0.91687
3093.03796	0.91719
3090.98415	0.91744
3088.93034	0.91761
3086.87653	0.91792
3084.82272	0.91848
3082.76891	0.91893
3080.71510	0.91909
3078.66129	0.91946
3076.60748	0.91999
3074.55367	0.92025
3072.49986	0.92045
3070.44605	0.92094
3068.39224	0.92139
3066.33843	0.92148
3064.28462	0.92153
3062.23081	0.92179
3060.17700	0.92213
3058.12319	0.92245
3056.06938	0.92280
3054.01557	0.92315
3051.96176	0.92326
3049.90795	0.92332
3047.85414	0.92356
3045.80033	0.92392
3043.74652	0.92432
3041.69271	0.92467
3039.63890	0.92511
3037.58509	0.92572
3035.53128	0.92614
3033.47747	0.92614
3031.42366	0.92614
3029.36985	0.92640
3027.31604	0.92667
3025.26223	0.92700
3023.20842	0.92737
3021.15461	0.92756
3019.10080	0.92756
3017.04699	0.92764
3014.99318	0.92789
3012.93937	0.92804
3010.88556	0.92801
3008.83175	0.92801
3006.77794	0.92821
3004.72413	0.92835
3002.67032	0.92820
3000.61651	0.92794
2998.56270	0.92786
2996.50889	0.92784
2994.45508	0.92742
2992.40127	0.92655
2990.34746	0.92559
2988.29365	0.92459
2986.23984	0.92324
2984.18603	0.92160
2982.13222	0.91972
2980.07841	0.91712
2978.02460	0.91341
2975.97079	0.90854
2973.91698	0.90225
2971.86317	0.89411
2969.80936	0.88391
2967.75555	0.87150
2965.70174	0.85724
2963.64793	0.84305
2961.59412	0.83258
2959.54031	0.82824
2957.48650	0.82728
2955.43269	0.82350
2953.37888	0.81405
2951.32507	0.80316
2949.27126	0.79887
2947.21745	0.80579
2945.16364	0.82135
2943.10983	0.83872
2941.05602	0.85235
2939.00221	0.85997
2936.94840	0.86138
2934.89459	0.85746
2932.84078	0.84925
2930.78697	0.83735
2928.73316	0.82294
2926.67935	0.80822
2924.62554	0.79475
2922.57173	0.78239
2920.51792	0.77099
2918.46411	0.76301
2916.41030	0.76316
2914.35649	0.77288
2912.30268	0.78722
2910.24887	0.79998
2908.19506	0.80924
2906.14125	0.81701
2904.08744	0.82556
2902.03363	0.83493
2899.97982	0.84397
2897.92601	0.85197
2895.87220	0.85842
2893.81839	0.86290
2891.76458	0.86531
2889.71077	0.86600
2887.65696	0.86546
2885.60315	0.86411
2883.54934	0.86213
2881.49553	0.85962
2879.44172	0.85708
2877.38791	0.85576
2875.33410	0.85632
2873.28029	0.85721
2871.22648	0.85637
2869.17267	0.85367
2867.11886	0.85146
2865.06505	0.85341
2863.01124	0.86144
2860.95743	0.87320
2858.90362	0.88414
2856.84981	0.89169
2854.79600	0.89597
2852.74219	0.89763
2850.68838	0.89682
2848.63457	0.89378
2846.58076	0.88823
2844.52695	0.87964
2842.47314	0.86903
2840.41933	0.85978
2838.36552	0.85595
2836.31171	0.85976
2834.25790	0.87028
2832.20409	0.88355
2830.15028	0.89528
2828.09647	0.90387
2826.04266	0.90985
2823.98885	0.91421
2821.93504	0.91756
2819.88123	0.92022
2817.82742	0.92231
2815.77361	0.92364
2813.71980	0.92455
2811.66599	0.92564
2809.61218	0.92671
2807.55837	0.92764
2805.50456	0.92874
2803.45075	0.92999
2801.39693	0.93125
2799.34312	0.93222
2797.28931	0.93275
2795.23550	0.93317
2793.18169	0.93382
2791.12788	0.93465
2789.07407	0.93543
2787.02026	0.93606
2784.96645	0.93666
2782.91264	0.93727
2780.85883	0.93785
2778.80502	0.93839
2776.75121	0.93888
2774.69740	0.93925
2772.64359	0.93958
2770.58978	0.93997
2768.53597	0.94029
2766.48216	0.94049
2764.42835	0.94063
2762.37454	0.94077
2760.32073	0.94101
2758.26692	0.94125
2756.21311	0.94131
2754.15930	0.94139
2752.10549	0.94172
2750.05168	0.94215
2747.99787	0.94255
2745.94406	0.94270
2743.89025	0.94254
2741.83644	0.94236
2739.78263	0.94223
2737.72882	0.94203
2735.67501	0.94195
2733.62120	0.94206
2731.56739	0.94201
2729.51358	0.94162
2727.45977	0.94098
2725.40596	0.94052
2723.35215	0.94053
2721.29834	0.94081
2719.24453	0.94123
2717.19072	0.94169
2715.13691	0.94207
2713.08310	0.94252
2711.02929	0.94302
2708.97548	0.94342
2706.92167	0.94384
2704.86786	0.94431
2702.81405	0.94457
2700.76024	0.94459
2698.70643	0.94467
2696.65262	0.94478
2694.59881	0.94481
2692.54500	0.94493
2690.49119	0.94510
2688.43738	0.94519
2686.38357	0.94537
2684.32976	0.94555
2682.27595	0.94546
2680.22214	0.94524
2678.16833	0.94515
2676.11452	0.94528
2674.06071	0.94552
2672.00690	0.94560
2669.95309	0.94549
2667.89928	0.94541
2665.84547	0.94545
2663.79166	0.94551
2661.73785	0.94540
2659.68404	0.94531
2657.63023	0.94553
2655.57642	0.94588
2653.52261	0.94607
2651.46880	0.94618
2649.41499	0.94636
2647.36118	0.94664
2645.30737	0.94681
2643.25356	0.94678
2641.19975	0.94673
2639.14594	0.94677
2637.09213	0.94682
2635.03832	0.94692
2632.98451	0.94704
2630.93070	0.94700
2628.87689	0.94682
2626.82308	0.94662
2624.76927	0.94652
2622.71546	0.94672
2620.66165	0.94715
2618.60784	0.94738
2616.55403	0.94725
2614.50022	0.94718
2612.44641	0.94736
2610.39260	0.94744
2608.33879	0.94768
2606.28498	0.94851
2604.23117	0.94941
2602.17736	0.94965
2600.12355	0.94929
2598.06974	0.94893
2596.01593	0.94891
2593.96212	0.94927
2591.90831	0.94969
2589.85450	0.94993
2587.80069	0.94986
2585.74688	0.94927
2583.69307	0.94876
2581.63926	0.94891
2579.58545	0.94911
2577.53164	0.94899
2575.47783	0.94880
2573.42402	0.94886
2571.37021	0.94925
2569.31640	0.94975
2567.26259	0.95011
2565.20878	0.94998
2563.15497	0.94959
2561.10116	0.94954
2559.04735	0.94955
2556.99354	0.94945
2554.93973	0.94968
2552.88592	0.95006
2550.83211	0.95008
2548.77830	0.94974
2546.72449	0.94955
2544.67068	0.94971
2542.61687	0.95025
2540.56306	0.95100
2538.50925	0.95131
2536.45544	0.95108
2534.40163	0.95081
2532.34782	0.95082
2530.29401	0.95082
2528.24020	0.95072
2526.18639	0.95097
2524.13258	0.95137
2522.07877	0.95125
2520.02496	0.95077
2517.97115	0.95056
2515.91734	0.95074
2513.86353	0.95113
2511.80972	0.95132
2509.75591	0.95117
2507.70210	0.95115
2505.64828	0.95137
2503.59447	0.95147
2501.54066	0.95144
2499.48685	0.95140
2497.43304	0.95117
2495.37923	0.95099
2493.32542	0.95096
2491.27161	0.95093
2489.21780	0.95105
2487.16399	0.95125
2485.11018	0.95153
2483.05637	0.95200
2481.00256	0.95203
2478.94875	0.95146
2476.89494	0.95106
2474.84113	0.95105
2472.78732	0.95120
2470.73351	0.95154
2468.67970	0.95193
2466.62589	0.95206
2464.57208	0.95196
2462.51827	0.95184
2460.46446	0.95191
2458.41065	0.95210
2456.35684	0.95234
2454.30303	0.95246
2452.24922	0.95225
2450.19541	0.95191
2448.14160	0.95161
2446.08779	0.95150
2444.03398	0.95159
2441.98017	0.95176
2439.92636	0.95213
2437.87255	0.95250
2435.81874	0.95234
2433.76493	0.95178
2431.71112	0.95150
2429.65731	0.95148
2427.60350	0.95163
2425.54969	0.95208
2423.49588	0.95257
2421.44207	0.95288
2419.38826	0.95305
2417.33445	0.95287
2415.28064	0.95230
2413.22683	0.95196
2411.17302	0.95200
2409.11921	0.95235
2407.06540	0.95291
2405.01159	0.95300
2402.95778	0.95258
2400.90397	0.95220
2398.85016	0.95202
2396.79635	0.95208
2394.74254	0.95220
2392.68873	0.95203
2390.63492	0.95175
2388.58111	0.95193
2386.52730	0.95240
2384.47349	0.95245
2382.41968	0.95234
2380.36587	0.95269
2378.31206	0.95281
2376.25825	0.95205
2374.20444	0.95119
2372.15063	0.95091
2370.09682	0.95107
2368.04301	0.95141
2365.98920	0.95135
2363.93539	0.95061
2361.88158	0.95070
2359.82777	0.95224
2357.77396	0.95356
2355.72015	0.95319
2353.66634	0.95204
2351.61253	0.95172
2349.55872	0.95201
2347.50491	0.95213
2345.45110	0.95192
2343.39729	0.95189
2341.34348	0.95233
2339.28967	0.95266
2337.23586	0.95260
2335.18205	0.95205
2333.12824	0.95139
2331.07443	0.95157
2329.02062	0.95213
2326.96681	0.95193
2324.91300	0.95081
2322.85919	0.94978
2320.80538	0.94976
2318.75157	0.95023
2316.69776	0.95072
2314.64395	0.95122
2312.59014	0.95132
2310.53633	0.95103
2308.48252	0.95102
2306.42871	0.95140
2304.37490	0.95158
2302.32109	0.95134
2300.26728	0.95102
2298.21347	0.95079
2296.15966	0.95066
2294.10585	0.95080
2292.05204	0.95105
2289.99823	0.95114
2287.94442	0.95108
2285.89061	0.95104
2283.83680	0.95095
2281.78299	0.95100
2279.72918	0.95142
2277.67537	0.95130
2275.62156	0.95078
2273.56775	0.95092
2271.51394	0.95094
2269.46013	0.95053
2267.40632	0.95036
2265.35251	0.95033
2263.29870	0.95066
2261.24489	0.95119
2259.19108	0.95127
2257.13727	0.95120
2255.08346	0.95112
2253.02965	0.95112
2250.97584	0.95101
2248.92203	0.95048
2246.86822	0.95045
2244.81441	0.95126
2242.76060	0.95218
2240.70679	0.95292
2238.65298	0.95312
2236.59917	0.95275
2234.54536	0.95261
2232.49155	0.95276
2230.43774	0.95237
2228.38393	0.95149
2226.33012	0.95097
2224.27631	0.95101
2222.22250	0.95150
2220.16869	0.95239
2218.11488	0.95275
2216.06107	0.95146
2214.00726	0.95011
2211.95344	0.95093
2209.89963	0.95251
2207.84582	0.95266
2205.79201	0.95191
2203.73820	0.95173
2201.68439	0.95243
2199.63058	0.95258
2197.57677	0.95134
2195.52296	0.95055
2193.46915	0.95113
2191.41534	0.95149
2189.36153	0.95121
2187.30772	0.95154
2185.25391	0.95254
2183.20010	0.95276
2181.14629	0.95233
2179.09248	0.95235
2177.03867	0.95295
2174.98486	0.95372
2172.93105	0.95309
2170.87724	0.95117
2168.82343	0.94974
2166.76962	0.94918
2164.71581	0.94914
2162.66200	0.94883
2160.60819	0.94838
2158.55438	0.94926
2156.50057	0.95196
2154.44676	0.95443
2152.39295	0.95472
2150.33914	0.95388
2148.28533	0.95333
2146.23152	0.95271
2144.17771	0.95173
2142.12390	0.95080
2140.07009	0.95020
2138.01628	0.95069
2135.96247	0.95197
2133.90866	0.95270
2131.85485	0.95280
2129.80104	0.95237
2127.74723	0.95133
2125.69342	0.95034
2123.63961	0.94996
2121.58580	0.94991
2119.53199	0.94959
2117.47818	0.94884
2115.42437	0.94821
2113.37056	0.94837
2111.31675	0.94914
2109.26294	0.94984
2107.20913	0.94978
2105.15532	0.94979
2103.10151	0.95059
2101.04770	0.95052
2098.99389	0.94974
2096.94008	0.95015
2094.88627	0.95081
2092.83246	0.95036
2090.77865	0.94953
2088.72484	0.94922
2086.67103	0.94914
2084.61722	0.94895
2082.56341	0.94915
2080.50960	0.94981
2078.45579	0.95072
2076.40198	0.95126
2074.34817	0.95075
2072.29436	0.94999
2070.24055	0.95014
2068.18674	0.95078
2066.13293	0.95055
2064.07912	0.94966
2062.02531	0.94954
2059.97150	0.95017
2057.91769	0.95021
2055.86388	0.94968
2053.81007	0.94933
2051.75626	0.94928
2049.70245	0.95000
2047.64864	0.95127
2045.59483	0.95207
2043.54102	0.95200
2041.48721	0.95069
2039.43340	0.94910
2037.37959	0.94934
2035.32578	0.95047
2033.27197	0.95084
2031.21816	0.95126
2029.16435	0.95186
2027.11054	0.95234
2025.05673	0.95260
2023.00292	0.95196
2020.94911	0.95101
2018.89530	0.95119
2016.84149	0.95165
2014.78768	0.95155
2012.73387	0.95151
2010.68006	0.95121
2008.62625	0.95046
2006.57244	0.95070
2004.51863	0.95189
2002.46482	0.95132
2000.41101	0.94974
1998.35720	0.94995
1996.30339	0.95041
1994.24958	0.94973
1992.19577	0.94925
1990.14196	0.94909
1988.08815	0.94897
1986.03434	0.94917
1983.98053	0.94887
1981.92672	0.94728
1979.87291	0.94608
1977.81910	0.94717
1975.76529	0.94858
1973.71148	0.94790
1971.65767	0.94652
1969.60386	0.94545
1967.55005	0.94502
1965.49624	0.94572
1963.44243	0.94649
1961.38862	0.94739
1959.33481	0.94847
1957.28100	0.94862
1955.22719	0.94778
1953.17338	0.94698
1951.11957	0.94742
1949.06576	0.94861
1947.01195	0.94876
1944.95814	0.94771
1942.90433	0.94675
1940.85052	0.94631
1938.79671	0.94612
1936.74290	0.94611
1934.68909	0.94597
1932.63528	0.94563
1930.58147	0.94555
1928.52766	0.94564
1926.47385	0.94580
1924.42004	0.94586
1922.36623	0.94511
1920.31242	0.94409
1918.25861	0.94388
1916.20479	0.94413
1914.15098	0.94393
1912.09717	0.94342
1910.04336	0.94303
1907.98955	0.94272
1905.93574	0.94228
1903.88193	0.94212
1901.82812	0.94252
1899.77431	0.94252
1897.72050	0.94184
1895.66669	0.94122
1893.61288	0.94093
1891.55907	0.94094
1889.50526	0.94083
1887.45145	0.94039
1885.39764	0.93991
1883.34383	0.93950
1881.29002	0.93940
1879.23621	0.93942
1877.18240	0.93917
1875.12859	0.93885
1873.07478	0.93855
1871.02097	0.93817
1868.96716	0.93786
1866.91335	0.93788
1864.85954	0.93793
1862.80573	0.93771
1860.75192	0.93725
1858.69811	0.93665
1856.64430	0.93611
1854.59049	0.93587
1852.53668	0.93580
1850.48287	0.93553
1848.42906	0.93491
1846.37525	0.93416
1844.32144	0.93358
1842.26763	0.93336
1840.21382	0.93348
1838.16001	0.93353
1836.10620	0.93312
1834.05239	0.93249
1831.99858	0.93227
1829.94477	0.93239
1827.89096	0.93206
1825.83715	0.93110
1823.78334	0.93018
1821.72953	0.92980
1819.67572	0.92959
1817.62191	0.92938
1815.56810	0.92933
1813.51429	0.92919
1811.46048	0.92862
1809.40667	0.92765
1807.35286	0.92685
1805.29905	0.92639
1803.24524	0.92586
1801.19143	0.92527
1799.13762	0.92487
1797.08381	0.92448
1795.03000	0.92382
1792.97619	0.92288
1790.92238	0.92192
1788.86857	0.92103
1786.81476	0.92016
1784.76095	0.91930
1782.70714	0.91845
1780.65333	0.91748
1778.59952	0.91643
1776.54571	0.91552
1774.49190	0.91468
1772.43809	0.91363
1770.38428	0.91259
1768.33047	0.91175
1766.27666	0.91100
1764.22285	0.91054
1762.16904	0.91018
1760.11523	0.90957
1758.06142	0.90876
1756.00761	0.90784
1753.95380	0.90694
1751.89999	0.90600
1749.84618	0.90474
1747.79237	0.90331
1745.73856	0.90182
1743.68475	0.90026
1741.63094	0.89884
1739.57713	0.89761
1737.52332	0.89673
1735.46951	0.89596
1733.41570	0.89498
1731.36189	0.89423
1729.30808	0.89359
1727.25427	0.89264
1725.20046	0.89142
1723.14665	0.89024
1721.09284	0.88924
1719.03903	0.88818
1716.98522	0.88671
1714.93141	0.88513
1712.87760	0.88374
1710.82379	0.88273
1708.76998	0.88238
1706.71617	0.88258
1704.66236	0.88321
1702.60855	0.88418
1700.55474	0.88542
1698.50093	0.88634
1696.44712	0.88692
1694.39331	0.88744
1692.33950	0.88774
1690.28569	0.88792
1688.23188	0.88806
1686.17807	0.88811
1684.12426	0.88790
1682.07045	0.88765
1680.01664	0.88725
1677.96283	0.88655
1675.90902	0.88565
1673.85521	0.88467
1671.80140	0.88371
1669.74759	0.88268
1667.69378	0.88174
1665.63997	0.88082
1663.58616	0.87953
1661.53235	0.87799
1659.47854	0.87655
1657.42473	0.87516
1655.37092	0.87381
1653.31711	0.87212
1651.26330	0.87071
1649.20949	0.87018
1647.15568	0.86988
1645.10187	0.86971
1643.04806	0.86971
1640.99425	0.86991
1638.94044	0.87021
1636.88663	0.87038
1634.83282	0.87074
1632.77901	0.87144
1630.72520	0.87225
1628.67139	0.87337
1626.61758	0.87462
1624.56377	0.87594
1622.50996	0.87787
1620.45614	0.87986
1618.40233	0.88166
1616.34852	0.88392
1614.29471	0.88605
1612.24090	0.88788
1610.18709	0.89006
1608.13328	0.89246
1606.07947	0.89469
1604.02566	0.89660
1601.97185	0.89846
1599.91804	0.90035
1597.86423	0.90208
1595.81042	0.90363
1593.75661	0.90503
1591.70280	0.90640
1589.64899	0.90791
1587.59518	0.90928
1585.54137	0.91021
1583.48756	0.91104
1581.43375	0.91199
1579.37994	0.91282
1577.32613	0.91360
1575.27232	0.91450
1573.21851	0.91515
1571.16470	0.91554
1569.11089	0.91585
1567.05708	0.91593
1565.00327	0.91580
1562.94946	0.91561
1560.89565	0.91543
1558.84184	0.91536
1556.78803	0.91525
1554.73422	0.91491
1552.68041	0.91468
1550.62660	0.91471
1548.57279	0.91490
1546.51898	0.91521
1544.46517	0.91567
1542.41136	0.91623
1540.35755	0.91692
1538.30374	0.91754
1536.24993	0.91787
1534.19612	0.91818
1532.14231	0.91854
1530.08850	0.91885
1528.03469	0.91925
1525.98088	0.91974
1523.92707	0.92018
1521.87326	0.92053
1519.81945	0.92076
1517.76564	0.92105
1515.71183	0.92159
1513.65802	0.92202
1511.60421	0.92221
1509.55040	0.92233
1507.49659	0.92244
1505.44278	0.92259
1503.38897	0.92286
1501.33516	0.92319
1499.28135	0.92345
1497.22754	0.92358
1495.17373	0.92362
1493.11992	0.92367
1491.06611	0.92369
1489.01230	0.92342
1486.95849	0.92277
1484.90468	0.92193
1482.85087	0.92091
1480.79706	0.91966
1478.74325	0.91799
1476.68944	0.91543
1474.63563	0.91138
1472.58182	0.90428
1470.52801	0.89493
1468.47420	0.88583
1466.42039	0.87551
1464.36658	0.86364
1462.31277	0.85476
1460.25896	0.84997
1458.20515	0.84664
1456.15134	0.84383
1454.09753	0.84222
1452.04372	0.84154
1449.98991	0.84322
1447.93610	0.85034
1445.88229	0.86216
1443.82848	0.87366
1441.77467	0.88198
1439.72086	0.88622
1437.66705	0.88723
1435.61324	0.88781
1433.55943	0.89130
1431.50562	0.89693
1429.45181	0.90204
1427.39800	0.90487
1425.34419	0.90617
1423.29038	0.90692
1421.23657	0.90749
1419.18276	0.90802
1417.12895	0.90831
1415.07514	0.90825
1413.02133	0.90818
1410.96752	0.90833
1408.91371	0.90849
1406.85990	0.90857
1404.80609	0.90862
1402.75228	0.90864
1400.69847	0.90874
1398.64466	0.90893
1396.59085	0.90872
1394.53704	0.90775
1392.48323	0.90638
1390.42942	0.90480
1388.37561	0.90217
1386.32180	0.89713
1384.26799	0.88888
1382.21418	0.87547
1380.16037	0.85298
1378.10656	0.82269
1376.05275	0.79982
1373.99894	0.80262
1371.94513	0.82651
1369.89132	0.85121
1367.83751	0.86794
1365.78370	0.87598
1363.72989	0.87767
1361.67608	0.87541
1359.62227	0.87259
1357.56846	0.87262
1355.51465	0.87630
1353.46084	0.88159
1351.40703	0.88604
1349.35322	0.88901
1347.29941	0.89099
1345.24560	0.89226
1343.19179	0.89292
1341.13798	0.89328
1339.08417	0.89350
1337.03036	0.89349
1334.97655	0.89324
1332.92274	0.89276
1330.86893	0.89218
1328.81512	0.89187
1326.76130	0.89202
1324.70749	0.89256
1322.65368	0.89312
1320.59987	0.89336
1318.54606	0.89329
1316.49225	0.89305
1314.43844	0.89275
1312.38463	0.89238
1310.33082	0.89178
1308.27701	0.89054
1306.22320	0.88859
1304.16939	0.88715
1302.11558	0.88709
1300.06177	0.88746
1298.00796	0.88745
1295.95415	0.88728
1293.90034	0.88729
1291.84653	0.88743
1289.79272	0.88756
1287.73891	0.88774
1285.68510	0.88785
1283.63129	0.88769
1281.57748	0.88740
1279.52367	0.88707
1277.46986	0.88660
1275.41605	0.88601
1273.36224	0.88528
1271.30843	0.88449
1269.25462	0.88364
1267.20081	0.88264
1265.14700	0.88145
1263.09319	0.88011
1261.03938	0.87848
1258.98557	0.87619
1256.93176	0.87352
1254.87795	0.87138
1252.82414	0.87012
1250.77033	0.86925
1248.71652	0.86827
1246.66271	0.86698
1244.60890	0.86518
1242.55509	0.86294
1240.50128	0.86053
1238.44747	0.85804
1236.39366	0.85542
1234.33985	0.85273
1232.28604	0.84996
1230.23223	0.84716
1228.17842	0.84446
1226.12461	0.84170
1224.07080	0.83882
1222.01699	0.83597
1219.96318	0.83318
1217.90937	0.83062
1215.85556	0.82862
1213.80175	0.82697
1211.74794	0.82524
1209.69413	0.82356
1207.64032	0.82210
1205.58651	0.82065
1203.53270	0.81915
1201.47889	0.81774
1199.42508	0.81655
1197.37127	0.81539
1195.31746	0.81422
1193.26365	0.81316
1191.20984	0.81195
1189.15603	0.81045
1187.10222	0.80922
1185.04841	0.80849
1182.99460	0.80780
1180.94079	0.80682
1178.88698	0.80559
1176.83317	0.80407
1174.77936	0.80178
1172.72555	0.79818
1170.67174	0.79328
1168.61793	0.78858
1166.56412	0.78666
1164.51031	0.78835
1162.45650	0.79200
1160.40269	0.79592
1158.34888	0.79932
1156.29507	0.80196
1154.24126	0.80416
1152.18745	0.80642
1150.13364	0.80898
1148.07983	0.81166
1146.02602	0.81413
1143.97221	0.81660
1141.91840	0.81903
1139.86459	0.82116
1137.81078	0.82300
1135.75697	0.82457
1133.70316	0.82585
1131.64935	0.82694
1129.59554	0.82798
1127.54173	0.82904
1125.48792	0.83006
1123.43411	0.83094
1121.38030	0.83177
1119.32649	0.83244
1117.27268	0.83285
1115.21887	0.83301
1113.16506	0.83318
1111.11125	0.83365
1109.05744	0.83427
1107.00363	0.83454
1104.94982	0.83443
1102.89601	0.83464
1100.84220	0.83560
1098.78839	0.83710
1096.73458	0.83877
1094.68077	0.84028
1092.62696	0.84155
1090.57315	0.84249
1088.51934	0.84310
1086.46553	0.84376
1084.41172	0.84448
1082.35791	0.84485
1080.30410	0.84494
1078.25029	0.84497
1076.19648	0.84482
1074.14267	0.84433
1072.08886	0.84347
1070.03505	0.84220
1067.98124	0.83999
1065.92743	0.83667
1063.87362	0.83274
1061.81981	0.82824
1059.76600	0.82318
1057.71219	0.81815
1055.65838	0.81348
1053.60457	0.80913
1051.55076	0.80539
1049.49695	0.80267
1047.44314	0.80087
1045.38933	0.79984
1043.33552	0.79981
1041.28171	0.80044
1039.22790	0.80116
1037.17409	0.80201
1035.12028	0.80343
1033.06647	0.80576
1031.01265	0.80860
1028.95884	0.81141
1026.90503	0.81409
1024.85122	0.81641
1022.79741	0.81824
1020.74360	0.82010
1018.68979	0.82232
1016.63598	0.82496
1014.58217	0.82775
1012.52836	0.83026
1010.47455	0.83249
1008.42074	0.83431
1006.36693	0.83524
1004.31312	0.83454
1002.25931	0.83126
1000.20550	0.82548
998.15169	0.82097
996.09788	0.82266
994.04407	0.82985
991.99026	0.83765
989.93645	0.84329
987.88264	0.84666
985.82883	0.84850
983.77502	0.84955
981.72121	0.85004
979.66740	0.84931
977.61359	0.84617
975.55978	0.84032
973.50597	0.83455
971.45216	0.83403
969.39835	0.83985
967.34454	0.84747
965.29073	0.85318
963.23692	0.85673
961.18311	0.85890
959.12930	0.86009
957.07549	0.86069
955.02168	0.86124
952.96787	0.86188
950.91406	0.86237
948.86025	0.86257
946.80644	0.86239
944.75263	0.86205
942.69882	0.86181
940.64501	0.86150
938.59120	0.86146
936.53739	0.86189
934.48358	0.86233
932.42977	0.86284
930.37596	0.86330
928.32215	0.86311
926.26834	0.86239
924.21453	0.86172
922.16072	0.86118
920.10691	0.86040
918.05310	0.85941
915.99929	0.85821
913.94548	0.85660
911.89167	0.85486
909.83786	0.85319
907.78405	0.85136
905.73024	0.84872
903.67643	0.84468
901.62262	0.83962
899.56881	0.83546
897.51500	0.83426
895.46119	0.83547
893.40738	0.83666
891.35357	0.83682
889.29976	0.83648
887.24595	0.83619
885.19214	0.83610
883.13833	0.83623
881.08452	0.83643
879.03071	0.83657
876.97690	0.83695
874.92309	0.83761
872.86928	0.83837
870.81547	0.83916
868.76166	0.83958
866.70785	0.83976
864.65404	0.84039
862.60023	0.84155
860.54642	0.84274
858.49261	0.84358
856.43880	0.84416
854.38499	0.84473
852.33118	0.84521
850.27737	0.84531
848.22356	0.84462
846.16975	0.84194
844.11594	0.83546
842.06213	0.82711
840.00832	0.82456
837.95451	0.83041
835.90070	0.83783
833.84689	0.84230
831.79308	0.84450
829.73927	0.84569
827.68546	0.84667
825.63165	0.84730
823.57784	0.84716
821.52403	0.84692
819.47022	0.84714
817.41641	0.84676
815.36260	0.84490
813.30879	0.84156
811.25498	0.83757
809.20117	0.83524
807.14736	0.83604
805.09355	0.83855
803.03974	0.84040
800.98593	0.84106
798.93212	0.84144
796.87831	0.84181
794.82450	0.84221
792.77069	0.84257
790.71688	0.84232
788.66307	0.84184
786.60926	0.84153
784.55545	0.84100
782.50164	0.84038
780.44783	0.84013
778.39402	0.84004
776.34021	0.83958
774.28640	0.83897
772.23259	0.83867
770.17878	0.83827
768.12497	0.83765
766.07116	0.83727
764.01735	0.83669
761.96354	0.83582
759.90973	0.83548
757.85592	0.83553
755.80211	0.83522
753.74830	0.83431
751.69449	0.83304
749.64068	0.83189
747.58687	0.83105
745.53306	0.83045
743.47925	0.83013
741.42544	0.82994
739.37163	0.82959
737.31781	0.82881
735.26400	0.82779
733.21019	0.82671
731.15638	0.82542
729.10257	0.82403
727.04876	0.82268
724.99495	0.82170
722.94114	0.82115
720.88733	0.82053
718.83352	0.81967
716.77971	0.81901
714.72590	0.81879
712.67209	0.81859
710.61828	0.81790
708.56447	0.81683
706.51066	0.81613
704.45685	0.81553
702.40304	0.81450
700.34923	0.81363
698.29542	0.81301
696.24161	0.81247
694.18780	0.81199
692.13399	0.81116
690.08018	0.81004
688.02637	0.80920
685.97256	0.80859
683.91875	0.80797
681.86494	0.80735
679.81113	0.80645
677.75732	0.80536
675.70351	0.80464
673.64970	0.80427
671.59589	0.80392
669.54208	0.80307
667.48827	0.80164
665.43446	0.80070
663.38065	0.80035
661.32684	0.80063
659.27303	0.80059
657.21922	0.79923
655.16541	0.79777
653.11160	0.79731
651.05779	0.79677
649.00398	0.79507
646.95017	0.79325
644.89636	0.79227
642.84255	0.79168
640.78874	0.79135
638.73493	0.79100
636.68112	0.78996
634.62731	0.78808
632.57350	0.78576
630.51969	0.78393
628.46588	0.78326
626.41207	0.78307
624.35826	0.78207
622.30445	0.78064
620.25064	0.77973
618.19683	0.77898
616.14302	0.77771
614.08921	0.77559
612.03540	0.77322
609.98159	0.77129
607.92778	0.76889
605.87397	0.76522
603.82016	0.76134
601.76635	0.75822
599.71254	0.75572
597.65873	0.75346
595.60492	0.75093
593.55111	0.74776
591.49730	0.74440
589.44349	0.74141
587.38968	0.73915
585.33587	0.73799
583.28206	0.73765
581.22825	0.73778
579.17444	0.73761
577.12063	0.73728
575.06682	0.73852
573.01301	0.74129
570.95920	0.74409
568.90539	0.74578
566.85158	0.74599
564.79777	0.74601
562.74396	0.74778
560.69015	0.75053
558.63634	0.75169
556.58253	0.75170
554.52872	0.75186
552.47491	0.75145
550.42110	0.75157
548.36729	0.75285
546.31348	0.75358
544.25967	0.75363
542.20586	0.75347
540.15205	0.75365
538.09824	0.75423
536.04443	0.75470
533.99062	0.75537
531.93681	0.75619
529.88300	0.75681
527.82919	0.75730
525.77538	0.75741
523.72157	0.75674
521.66776	0.75607
519.61395	0.75608
517.56014	0.75683
515.50633	0.75818
513.45252	0.75899
511.39871	0.75879
509.34490	0.75846
507.29109	0.75798
505.23728	0.75755
503.18347	0.75764
501.12966	0.75775
499.07585	0.75820
497.02204	0.75879
494.96823	0.75840
492.91442	0.75746
490.86061	0.75666
488.80680	0.75604
486.75299	0.75550
484.69918	0.75450
482.64537	0.75347
480.59156	0.75376
478.53775	0.75493
476.48394	0.75533
474.43013	0.75512
472.37632	0.75524
470.32251	0.75511
468.26870	0.75434
466.21489	0.75272
464.16108	0.74964
462.10727	0.74502
460.05346	0.74135
457.99965	0.74139
455.94584	0.74302
453.89203	0.74296
451.83822	0.74194
449.78441	0.74116
447.73060	0.74061
445.67679	0.74146
443.62298	0.74208
441.56916	0.73921
439.51535	0.73628
437.46154	0.73641
435.40773	0.73661
433.35392	0.73599
431.30011	0.73754
429.24630	0.73895
427.19249	0.73674
425.13868	0.73424
423.08487	0.73727
421.03106	0.74529
418.97725	0.74864
416.92344	0.74356
414.86963	0.74060
412.81582	0.74136
410.76201	0.74230
408.70820	0.74221
406.65439	0.74202
404.60058	0.74223
402.54677	0.74008
400.49296	0.73466
398.43915	0.73368
