3996.70104	0.98576
3994.64724	0.98539
3992.59344	0.98513
3990.53964	0.98502
3988.48583	0.98498
3986.43203	0.98494
3984.37823	0.98524
3982.32442	0.98564
3980.27062	0.98560
3978.21682	0.98543
3976.16301	0.98533
3974.10921	0.98544
3972.05541	0.98582
3970.00160	0.98613
3967.94780	0.98607
3965.89400	0.98580
3963.84019	0.98558
3961.78639	0.98548
3959.73259	0.98550
3957.67878	0.98559
3955.62498	0.98543
3953.57118	0.98494
3951.51737	0.98469
3949.46357	0.98484
3947.40977	0.98484
3945.35596	0.98455
3943.30216	0.98430
3941.24836	0.98455
3939.19455	0.98525
3937.14075	0.98544
3935.08695	0.98501
3933.03315	0.98470
3930.97934	0.98446
3928.92554	0.98422
3926.87174	0.98434
3924.81793	0.98496
3922.76413	0.98575
3920.71033	0.98604
3918.65652	0.98574
3916.60272	0.98521
3914.54892	0.98489
3912.49511	0.98491
3910.44131	0.98511
3908.38751	0.98550
3906.33370	0.98587
3904.27990	0.98554
3902.22610	0.98488
3900.17229	0.98480
3898.11849	0.98505
3896.06469	0.98528
3894.01088	0.98547
3891.95708	0.98587
3889.90328	0.98617
3887.84947	0.98609
3885.79567	0.98629
3883.74187	0.98619
3881.68807	0.98535
3879.63426	0.98481
3877.58046	0.98501
3875.52666	0.98524
3873.47285	0.98511
3871.41905	0.98542
3869.36525	0.98631
3867.31144	0.98642
3865.25764	0.98595
3863.20384	0.98552
3861.15003	0.98520
3859.09623	0.98490
3857.04243	0.98445
3854.98862	0.98382
3852.93482	0.98305
3850.88102	0.98309
3848.82721	0.98399
3846.77341	0.98507
3844.71961	0.98616
3842.66580	0.98691
3840.61200	0.98652
3838.55820	0.98545
3836.50439	0.98500
3834.45059	0.98506
3832.39679	0.98499
3830.34298	0.98468
3828.28918	0.98441
3826.23538	0.98463
3824.18158	0.98525
3822.12777	0.98569
3820.07397	0.98582
3818.02017	0.98602
3815.96636	0.98596
3813.91256	0.98536
3811.85876	0.98500
3809.80495	0.98554
3807.75115	0.98665
3805.69735	0.98692
3803.64354	0.98608
3801.58974	0.98513
3799.53594	0.98483
3797.48213	0.98496
3795.42833	0.98495
3793.37453	0.98482
3791.32072	0.98501
3789.26692	0.98556
3787.21312	0.98600
3785.15931	0.98587
3783.10551	0.98511
3781.05171	0.98452
3778.99790	0.98470
3776.94410	0.98530
3774.89030	0.98582
3772.83650	0.98604
3770.78269	0.98609
3768.72889	0.98612
3766.67509	0.98587
3764.62128	0.98557
3762.56748	0.98558
3760.51368	0.98582
3758.45987	0.98593
3756.40607	0.98563
3754.35227	0.98510
3752.29846	0.98458
3750.24466	0.98452
3748.19086	0.98497
3746.13705	0.98552
3744.08325	0.98621
3742.02945	0.98652
3739.97564	0.98616
3737.92184	0.98542
3735.86804	0.98480
3733.81423	0.98480
3731.76043	0.98475
3729.70663	0.98463
3727.65282	0.98486
3725.59902	0.98515
3723.54522	0.98510
3721.49141	0.98491
3719.43761	0.98490
3717.38381	0.98513
3715.33001	0.98555
3713.27620	0.98573
3711.22240	0.98512
3709.16860	0.98442
3707.11479	0.98455
3705.06099	0.98500
3703.00719	0.98521
3700.95338	0.98526
3698.89958	0.98549
3696.84578	0.98573
3694.79197	0.98555
3692.73817	0.98532
3690.68437	0.98530
3688.63056	0.98505
3686.57676	0.98492
3684.52296	0.98520
3682.46915	0.98567
3680.41535	0.98580
3678.36155	0.98550
3676.30774	0.98576
3674.25394	0.98620
3672.20014	0.98529
3670.14633	0.98390
3668.09253	0.98376
3666.03873	0.98457
3663.98492	0.98519
3661.93112	0.98532
3659.87732	0.98533
3657.82352	0.98555
3655.76971	0.98534
3653.71591	0.98462
3651.66211	0.98439
3649.60830	0.98483
3647.55450	0.98533
3645.50070	0.98519
3643.44689	0.98462
3641.39309	0.98430
3639.33929	0.98433
3637.28548	0.98449
3635.23168	0.98463
3633.17788	0.98470
3631.12407	0.98480
3629.07027	0.98441
3627.01647	0.98353
3624.96266	0.98328
3622.90886	0.98317
3620.85506	0.98282
3618.80125	0.98279
3616.74745	0.98308
3614.69365	0.98360
3612.63984	0.98450
3610.58604	0.98518
3608.53224	0.98533
3606.47844	0.98487
3604.42463	0.98403
3602.37083	0.98328
3600.31703	0.98310
3598.26322	0.98325
3596.20942	0.98253
3594.15562	0.98129
3592.10181	0.98142
3590.04801	0.98224
3587.99421	0.98224
3585.94040	0.98185
3583.88660	0.98193
3581.83280	0.98226
3579.77899	0.98216
3577.72519	0.98156
3575.67139	0.98081
3573.61758	0.98028
3571.56378	0.98051
3569.50998	0.98098
3567.45617	0.98074
3565.40237	0.98025
3563.34857	0.97995
3561.29476	0.97981
3559.24096	0.98023
3557.18716	0.98055
3555.13335	0.98032
3553.07955	0.97995
3551.02575	0.97964
3548.97195	0.97995
3546.91814	0.98039
3544.86434	0.98001
3542.81054	0.97943
3540.75673	0.97931
3538.70293	0.97953
3536.64913	0.97962
3534.59532	0.97956
3532.54152	0.97979
3530.48772	0.97986
3528.43391	0.97939
3526.38011	0.97900
3524.32631	0.97917
3522.27250	0.97938
3520.21870	0.97925
3518.16490	0.97917
3516.11109	0.97934
3514.05729	0.97955
3512.00349	0.97953
3509.94968	0.97944
3507.89588	0.97950
3505.84208	0.97946
3503.78827	0.97931
3501.73447	0.97922
3499.68067	0.97927
3497.62687	0.97946
3495.57306	0.97964
3493.51926	0.97965
3491.46546	0.97930
3489.41165	0.97871
3487.35785	0.97837
3485.30405	0.97853
3483.25024	0.97917
3481.19644	0.97944
3479.14264	0.97876
3477.08883	0.97796
3475.03503	0.97744
3472.98123	0.97754
3470.92742	0.97817
3468.87362	0.97839
3466.81982	0.97805
3464.76601	0.97797
3462.71221	0.97839
3460.65841	0.97834
3458.60460	0.97781
3456.55080	0.97754
3454.49700	0.97731
3452.44319	0.97703
3450.38939	0.97696
3448.33559	0.97704
3446.28178	0.97694
3444.22798	0.97683
3442.17418	0.97754
3440.12038	0.97860
3438.06657	0.97908
3436.01277	0.97884
3433.95897	0.97814
3431.90516	0.97760
3429.85136	0.97723
3427.79756	0.97674
3425.74375	0.97661
3423.68995	0.97682
3421.63615	0.97680
3419.58234	0.97664
3417.52854	0.97655
3415.47474	0.97639
3413.42093	0.97613
3411.36713	0.97594
3409.31333	0.97579
3407.25952	0.97544
3405.20572	0.97514
3403.15192	0.97501
3401.09811	0.97470
3399.04431	0.97429
3396.99051	0.97439
3394.93670	0.97479
3392.88290	0.97495
3390.82910	0.97519
3388.77529	0.97504
3386.72149	0.97450
3384.66769	0.97483
3382.61389	0.97563
3380.56008	0.97576
3378.50628	0.97533
3376.45248	0.97495
3374.39867	0.97480
3372.34487	0.97469
3370.29107	0.97484
3368.23726	0.97516
3366.18346	0.97535
3364.12966	0.97565
3362.07585	0.97587
3360.02205	0.97566
3357.96825	0.97541
3355.91444	0.97536
3353.86064	0.97557
3351.80684	0.97625
3349.75303	0.97655
3347.69923	0.97568
3345.64543	0.97466
3343.59162	0.97469
3341.53782	0.97536
3339.48402	0.97559
3337.43021	0.97541
3335.37641	0.97566
3333.32261	0.97598
3331.26881	0.97587
3329.21500	0.97589
3327.16120	0.97608
3325.10740	0.97607
3323.05359	0.97614
3320.99979	0.97611
3318.94599	0.97572
3316.89218	0.97546
3314.83838	0.97555
3312.78458	0.97564
3310.73077	0.97537
3308.67697	0.97529
3306.62317	0.97600
3304.56936	0.97641
3302.51556	0.97598
3300.46176	0.97569
3298.40795	0.97570
3296.35415	0.97534
3294.30035	0.97495
3292.24654	0.97508
3290.19274	0.97525
3288.13894	0.97527
3286.08513	0.97573
3284.03133	0.97647
3281.97753	0.97648
3279.92372	0.97595
3277.86992	0.97589
3275.81612	0.97604
3273.76232	0.97597
3271.70851	0.97595
3269.65471	0.97594
3267.60091	0.97585
3265.54710	0.97571
3263.49330	0.97552
3261.43950	0.97554
3259.38569	0.97592
3257.33189	0.97605
3255.27809	0.97563
3253.22428	0.97517
3251.17048	0.97487
3249.11668	0.97489
3247.06287	0.97535
3245.00907	0.97589
3242.95527	0.97634
3240.90146	0.97640
3238.84766	0.97633
3236.79386	0.97681
3234.74005	0.97717
3232.68625	0.97697
3230.63245	0.97663
3228.57864	0.97609
3226.52484	0.97568
3224.47104	0.97607
3222.41724	0.97713
3220.36343	0.97775
3218.30963	0.97747
3216.25583	0.97707
3214.20202	0.97692
3212.14822	0.97683
3210.09442	0.97653
3208.04061	0.97612
3205.98681	0.97613
3203.93301	0.97657
3201.87920	0.97685
3199.82540	0.97672
3197.77160	0.97661
3195.71779	0.97682
3193.66399	0.97711
3191.61019	0.97740
3189.55638	0.97752
3187.50258	0.97745
3185.44878	0.97738
3183.39497	0.97723
3181.34117	0.97705
3179.28737	0.97687
3177.23356	0.97679
3175.17976	0.97721
3173.12596	0.97773
3171.07215	0.97776
3169.01835	0.97745
3166.96455	0.97730
3164.91075	0.97741
3162.85694	0.97764
3160.80314	0.97811
3158.74934	0.97854
3156.69553	0.97850
3154.64173	0.97822
3152.58793	0.97805
3150.53412	0.97804
3148.48032	0.97790
3146.42652	0.97755
3144.37271	0.97765
3142.31891	0.97802
3140.26511	0.97781
3138.21130	0.97750
3136.15750	0.97771
3134.10370	0.97820
3132.04989	0.97846
3129.99609	0.97814
3127.94229	0.97773
3125.88848	0.97790
3123.83468	0.97806
3121.78088	0.97792
3119.72707	0.97801
3117.67327	0.97819
3115.61947	0.97829
3113.56566	0.97832
3111.51186	0.97830
3109.45806	0.97865
3107.40426	0.97922
3105.35045	0.97925
3103.29665	0.97883
3101.24285	0.97860
3099.18904	0.97847
3097.13524	0.97833
3095.08144	0.97859
3093.02763	0.97928
3090.97383	0.97979
3088.92003	0.97963
3086.86622	0.97884
3084.81242	0.97824
3082.75862	0.97861
3080.70481	0.97947
3078.65101	0.97971
3076.59721	0.97934
3074.54340	0.97930
3072.48960	0.97952
3070.43580	0.97954
3068.38199	0.97929
3066.32819	0.97910
3064.27439	0.97931
3062.22058	0.97930
3060.16678	0.97892
3058.11298	0.97886
3056.05918	0.97913
3054.00537	0.97942
3051.95157	0.97962
3049.89777	0.97955
3047.84396	0.97941
3045.79016	0.97954
3043.73636	0.97970
3041.68255	0.97947
3039.62875	0.97910
3037.57495	0.97916
3035.52114	0.97965
3033.46734	0.98007
3031.41354	0.98024
3029.35973	0.98039
3027.30593	0.98054
3025.25213	0.98081
3023.19832	0.98079
3021.14452	0.98040
3019.09072	0.98041
3017.03691	0.98065
3014.98311	0.98059
3012.92931	0.98055
3010.87550	0.98095
3008.82170	0.98132
3006.76790	0.98114
3004.71409	0.98079
3002.66029	0.98067
3000.60649	0.98032
2998.55269	0.97952
2996.49888	0.97919
2994.44508	0.97969
2992.39128	0.98016
2990.33747	0.98033
2988.28367	0.98057
2986.22987	0.98068
2984.17606	0.98032
2982.12226	0.97987
2980.06846	0.97989
2978.01465	0.98034
2975.96085	0.98076
2973.90705	0.98110
2971.85324	0.98147
2969.79944	0.98160
2967.74564	0.98154
2965.69183	0.98176
2963.63803	0.98204
2961.58423	0.98195
2959.53042	0.98184
2957.47662	0.98178
2955.42282	0.98166
2953.36901	0.98156
2951.31521	0.98121
2949.26141	0.98091
2947.20761	0.98107
2945.15380	0.98122
2943.10000	0.98130
2941.04620	0.98176
2938.99239	0.98244
2936.93859	0.98290
2934.88479	0.98318
2932.83098	0.98347
2930.77718	0.98394
2928.72338	0.98414
2926.66957	0.98385
2924.61577	0.98370
2922.56197	0.98371
2920.50816	0.98343
2918.45436	0.98293
2916.40056	0.98264
2914.34675	0.98269
2912.29295	0.98250
2910.23915	0.98199
2908.18534	0.98182
2906.13154	0.98200
2904.07774	0.98217
2902.02393	0.98224
2899.97013	0.98230
2897.91633	0.98228
2895.86252	0.98212
2893.80872	0.98188
2891.75492	0.98155
2889.70112	0.98132
2887.64731	0.98122
2885.59351	0.98106
2883.53971	0.98108
2881.48590	0.98145
2879.43210	0.98185
2877.37830	0.98196
2875.32449	0.98201
2873.27069	0.98196
2871.21689	0.98168
2869.16308	0.98158
2867.10928	0.98179
2865.05548	0.98205
2863.00167	0.98211
2860.94787	0.98223
2858.89407	0.98279
2856.84026	0.98334
2854.78646	0.98326
2852.73266	0.98294
2850.67885	0.98290
2848.62505	0.98273
2846.57125	0.98226
2844.51744	0.98211
2842.46364	0.98258
2840.40984	0.98310
2838.35603	0.98304
2836.30223	0.98253
2834.24843	0.98199
2832.19463	0.98176
2830.14082	0.98189
2828.08702	0.98207
2826.03322	0.98207
2823.97941	0.98199
2821.92561	0.98197
2819.87181	0.98219
2817.81800	0.98238
2815.76420	0.98222
2813.71040	0.98225
2811.65659	0.98251
2809.60279	0.98250
2807.54899	0.98239
2805.49518	0.98234
2803.44138	0.98246
2801.38758	0.98273
2799.33377	0.98266
2797.27997	0.98250
2795.22617	0.98284
2793.17236	0.98317
2791.11856	0.98292
2789.06476	0.98260
2787.01095	0.98276
2784.95715	0.98302
2782.90335	0.98292
2780.84955	0.98282
2778.79574	0.98311
2776.74194	0.98328
2774.68814	0.98302
2772.63433	0.98280
2770.58053	0.98281
2768.52673	0.98301
2766.47292	0.98327
2764.41912	0.98332
2762.36532	0.98332
2760.31151	0.98353
2758.25771	0.98377
2756.20391	0.98369
2754.15010	0.98351
2752.09630	0.98357
2750.04250	0.98352
2747.98869	0.98312
2745.93489	0.98281
2743.88109	0.98280
2741.82728	0.98298
2739.77348	0.98316
2737.71968	0.98341
2735.66587	0.98383
2733.61207	0.98410
2731.55827	0.98400
2729.50446	0.98385
2727.45066	0.98386
2725.39686	0.98384
2723.34306	0.98393
2721.28925	0.98416
2719.23545	0.98410
2717.18165	0.98373
2715.12784	0.98340
2713.07404	0.98326
2711.02024	0.98338
2708.96643	0.98368
2706.91263	0.98381
2704.85883	0.98370
2702.80502	0.98360
2700.75122	0.98359
2698.69742	0.98372
2696.64361	0.98391
2694.58981	0.98391
2692.53601	0.98393
2690.48220	0.98418
2688.42840	0.98415
2686.37460	0.98383
2684.32079	0.98370
2682.26699	0.98400
2680.21319	0.98442
2678.15938	0.98458
2676.10558	0.98450
2674.05178	0.98435
2671.99797	0.98414
2669.94417	0.98380
2667.89037	0.98344
2665.83657	0.98344
2663.78276	0.98390
2661.72896	0.98440
2659.67516	0.98432
2657.62135	0.98389
2655.56755	0.98376
2653.51375	0.98368
2651.45994	0.98347
2649.40614	0.98363
2647.35234	0.98408
2645.29853	0.98419
2643.24473	0.98392
2641.19093	0.98374
2639.13712	0.98371
2637.08332	0.98355
2635.02952	0.98315
2632.97571	0.98258
2630.92191	0.98247
2628.86811	0.98309
2626.81430	0.98346
2624.76050	0.98324
2622.70670	0.98310
2620.65289	0.98324
2618.59909	0.98334
2616.54529	0.98351
2614.49149	0.98379
2612.43768	0.98371
2610.38388	0.98337
2608.33008	0.98316
2606.27627	0.98292
2604.22247	0.98248
2602.16867	0.98218
2600.11486	0.98236
2598.06106	0.98297
2596.00726	0.98358
2593.95345	0.98387
2591.89965	0.98419
2589.84585	0.98433
2587.79204	0.98371
2585.73824	0.98327
2583.68444	0.98371
2581.63063	0.98421
2579.57683	0.98453
2577.52303	0.98467
2575.46922	0.98400
2573.41542	0.98287
2571.36162	0.98247
2569.30781	0.98286
2567.25401	0.98302
2565.20021	0.98310
2563.14640	0.98387
2561.09260	0.98477
2559.03880	0.98481
2556.98500	0.98452
2554.93119	0.98453
2552.87739	0.98423
2550.82359	0.98354
2548.76978	0.98283
2546.71598	0.98223
2544.66218	0.98216
2542.60837	0.98258
2540.55457	0.98270
2538.50077	0.98235
2536.44696	0.98191
2534.39316	0.98174
2532.33936	0.98198
2530.28555	0.98218
2528.23175	0.98205
2526.17795	0.98168
2524.12414	0.98155
2522.07034	0.98208
2520.01654	0.98261
2517.96273	0.98240
2515.90893	0.98177
2513.85513	0.98123
2511.80132	0.98100
2509.74752	0.98114
2507.69372	0.98138
2505.63992	0.98145
2503.58611	0.98152
2501.53231	0.98197
2499.47851	0.98269
2497.42470	0.98318
2495.37090	0.98312
2493.31710	0.98282
2491.26329	0.98285
2489.20949	0.98336
2487.15569	0.98347
2485.10188	0.98281
2483.04808	0.98266
2480.99428	0.98333
2478.94047	0.98386
2476.88667	0.98406
2474.83287	0.98397
2472.77906	0.98364
2470.72526	0.98374
2468.67146	0.98441
2466.61765	0.98468
2464.56385	0.98451
2462.51005	0.98487
2460.45624	0.98559
2458.40244	0.98587
2456.34864	0.98533
2454.29483	0.98415
2452.24103	0.98357
2450.18723	0.98422
2448.13343	0.98498
2446.07962	0.98504
2444.02582	0.98458
2441.97202	0.98430
2439.91821	0.98465
2437.86441	0.98509
2435.81061	0.98507
2433.75680	0.98508
2431.70300	0.98588
2429.64920	0.98660
2427.59539	0.98599
2425.54159	0.98486
2423.48779	0.98472
2421.43398	0.98538
2419.38018	0.98568
2417.32638	0.98546
2415.27257	0.98534
2413.21877	0.98571
2411.16497	0.98632
2409.11116	0.98669
2407.05736	0.98696
2405.00356	0.98729
2402.94975	0.98725
2400.89595	0.98657
2398.84215	0.98576
2396.78834	0.98553
2394.73454	0.98576
2392.68074	0.98595
2390.62694	0.98592
2388.57313	0.98595
2386.51933	0.98632
2384.46553	0.98697
2382.41172	0.98726
2380.35792	0.98638
2378.30412	0.98537
2376.25031	0.98574
2374.19651	0.98659
2372.14271	0.98678
2370.08890	0.98660
2368.03510	0.98615
2365.98130	0.98589
2363.92749	0.98620
2361.87369	0.98596
2359.81989	0.98514
2357.76608	0.98520
2355.71228	0.98616
2353.65848	0.98652
2351.60467	0.98564
2349.55087	0.98493
2347.49707	0.98531
2345.44326	0.98649
2343.38946	0.98772
2341.33566	0.98760
2339.28186	0.98629
2337.22805	0.98580
2335.17425	0.98612
2333.12045	0.98576
2331.06664	0.98486
2329.01284	0.98436
2326.95904	0.98412
2324.90523	0.98405
2322.85143	0.98441
2320.79763	0.98469
2318.74382	0.98469
2316.69002	0.98462
2314.63622	0.98443
2312.58241	0.98492
2310.52861	0.98622
2308.47481	0.98695
2306.42100	0.98651
2304.36720	0.98578
2302.31340	0.98551
2300.25959	0.98554
2298.20579	0.98572
2296.15199	0.98600
2294.09818	0.98594
2292.04438	0.98551
2289.99058	0.98508
2287.93677	0.98451
2285.88297	0.98396
2283.82917	0.98409
2281.77537	0.98472
2279.72156	0.98534
2277.66776	0.98613
2275.61396	0.98668
2273.56015	0.98628
2271.50635	0.98572
2269.45255	0.98629
2267.39874	0.98708
2265.34494	0.98663
2263.29114	0.98602
2261.23733	0.98635
2259.18353	0.98696
2257.12973	0.98757
2255.07592	0.98831
2253.02212	0.98807
2250.96832	0.98629
2248.91451	0.98482
2246.86071	0.98479
2244.80691	0.98493
2242.75310	0.98518
2240.69930	0.98713
2238.64550	0.98910
2236.59169	0.98775
2234.53789	0.98434
2232.48409	0.98300
2230.43029	0.98478
2228.37648	0.98734
2226.32268	0.98841
2224.26888	0.98873
2222.21507	0.98900
2220.16127	0.98841
2218.10747	0.98804
2216.05366	0.98790
2213.99986	0.98688
2211.94606	0.98593
2209.89225	0.98650
2207.83845	0.98759
2205.78465	0.98723
2203.73084	0.98797
2201.67704	0.99096
2199.62324	0.99217
2197.56943	0.99119
2195.51563	0.98983
2193.46183	0.98746
2191.40802	0.98481
2189.35422	0.98369
2187.30042	0.98305
2185.24661	0.98200
2183.19281	0.98257
2181.13901	0.98315
2179.08520	0.98184
2177.03140	0.98311
2174.97760	0.98763
2172.92380	0.98894
2170.86999	0.98668
2168.81619	0.98604
2166.76239	0.98738
2164.70858	0.98888
2162.65478	0.98972
2160.60098	0.98959
2158.54717	0.98920
2156.49337	0.99018
2154.43957	0.99117
2152.38576	0.99032
2150.33196	0.98922
2148.27816	0.98908
2146.22435	0.98975
2144.17055	0.99080
2142.11675	0.99157
2140.06294	0.99123
2138.00914	0.99073
2135.95534	0.99031
2133.90153	0.98926
2131.84773	0.98858
2129.79393	0.98879
2127.74012	0.98968
2125.68632	0.99026
2123.63252	0.98997
2121.57871	0.98932
2119.52491	0.98903
2117.47111	0.98944
2115.41731	0.98961
2113.36350	0.98935
2111.30970	0.98944
2109.25590	0.98962
2107.20209	0.98910
2105.14829	0.98808
2103.09449	0.98734
2101.04068	0.98704
2098.98688	0.98649
2096.93308	0.98623
2094.87927	0.98733
2092.82547	0.98915
2090.77167	0.98996
2088.71786	0.98947
2086.66406	0.98916
2084.61026	0.98859
2082.55645	0.98731
2080.50265	0.98657
2078.44885	0.98629
2076.39504	0.98618
2074.34124	0.98717
2072.28744	0.98858
2070.23363	0.98880
2068.17983	0.98868
2066.12603	0.98882
2064.07223	0.98872
2062.01842	0.98951
2059.96462	0.99075
2057.91082	0.99009
2055.85701	0.98835
2053.80321	0.98696
2051.74941	0.98562
2049.69560	0.98477
2047.64180	0.98421
2045.58800	0.98409
2043.53419	0.98511
2041.48039	0.98576
2039.42659	0.98443
2037.37278	0.98328
2035.31898	0.98406
2033.26518	0.98525
2031.21137	0.98703
2029.15757	0.98885
2027.10377	0.98868
2025.04996	0.98744
2022.99616	0.98651
2020.94236	0.98669
2018.88855	0.98842
2016.83475	0.99018
2014.78095	0.99001
2012.72714	0.98830
2010.67334	0.98801
2008.61954	0.99017
2006.56574	0.99214
2004.51193	0.99207
2002.45813	0.99050
2000.40433	0.98906
1998.35052	0.98855
1996.29672	0.98837
1994.24292	0.98855
1992.18911	0.98952
1990.13531	0.98951
1988.08151	0.98785
1986.02770	0.98668
1983.97390	0.98621
1981.92010	0.98612
1979.86629	0.98700
1977.81249	0.98794
1975.75869	0.98726
1973.70488	0.98723
1971.65108	0.99026
1969.59728	0.99246
1967.54347	0.99210
1965.48967	0.99181
1963.43587	0.99140
1961.38206	0.99084
1959.32826	0.99089
1957.27446	0.98999
1955.22066	0.98801
1953.16685	0.98685
1951.11305	0.98715
1949.05925	0.98838
1947.00544	0.98980
1944.95164	0.99097
1942.89784	0.99210
1940.84403	0.99295
1938.79023	0.99278
1936.73643	0.99178
1934.68262	0.99071
1932.62882	0.99011
1930.57502	0.98998
1928.52121	0.99004
1926.46741	0.99054
1924.41361	0.99088
1922.35980	0.99049
1920.30600	0.99043
1918.25220	0.99048
1916.19839	0.99000
1914.14459	0.98969
1912.09079	0.99037
1910.03698	0.99187
1907.98318	0.99259
1905.92938	0.99251
1903.87557	0.99245
1901.82177	0.99225
1899.76797	0.99246
1897.71417	0.99300
1895.66036	0.99304
1893.60656	0.99261
1891.55276	0.99187
1889.49895	0.99134
1887.44515	0.99145
1885.39135	0.99153
1883.33754	0.99138
1881.28374	0.99125
1879.22994	0.99097
1877.17613	0.99061
1875.12233	0.99032
1873.06853	0.99006
1871.01472	0.99008
1868.96092	0.99047
1866.90712	0.99141
1864.85331	0.99255
1862.79951	0.99299
1860.74571	0.99269
1858.69190	0.99221
1856.63810	0.99155
1854.58430	0.99102
1852.53049	0.99091
1850.47669	0.99043
1848.42289	0.98986
1846.36908	0.99016
1844.31528	0.99076
1842.26148	0.99098
1840.20768	0.99143
1838.15387	0.99213
1836.10007	0.99222
1834.04627	0.99217
1831.99246	0.99237
1829.93866	0.99227
1827.88486	0.99190
1825.83105	0.99160
1823.77725	0.99142
1821.72345	0.99119
1819.66964	0.99101
1817.61584	0.99120
1815.56204	0.99127
1813.50823	0.99056
1811.45443	0.98960
1809.40063	0.98913
1807.34682	0.98874
1805.29302	0.98800
1803.23922	0.98713
1801.18541	0.98642
1799.13161	0.98608
1797.07781	0.98581
1795.02400	0.98543
1792.97020	0.98547
1790.91640	0.98627
1788.86260	0.98715
1786.80879	0.98778
1784.75499	0.98857
1782.70119	0.98936
1780.64738	0.98940
1778.59358	0.98925
1776.53978	0.98964
1774.48597	0.99006
1772.43217	0.99047
1770.37837	0.99103
1768.32456	0.99136
1766.27076	0.99149
1764.21696	0.99155
1762.16315	0.99170
1760.10935	0.99192
1758.05555	0.99226
1756.00174	0.99258
1753.94794	0.99257
1751.89414	0.99249
1749.84033	0.99238
1747.78653	0.99229
1745.73273	0.99258
1743.67892	0.99289
1741.62512	0.99272
1739.57132	0.99244
1737.51751	0.99265
1735.46371	0.99304
1733.40991	0.99290
1731.35611	0.99243
1729.30230	0.99229
1727.24850	0.99209
1725.19470	0.99173
1723.14089	0.99167
1721.08709	0.99191
1719.03329	0.99227
1716.97948	0.99288
1714.92568	0.99290
1712.87188	0.99223
1710.81807	0.99176
1708.76427	0.99170
1706.71047	0.99175
1704.65666	0.99166
1702.60286	0.99156
1700.54906	0.99155
1698.49525	0.99138
1696.44145	0.99074
1694.38765	0.99010
1692.33384	0.99016
1690.28004	0.99037
1688.22624	0.99015
1686.17243	0.98952
1684.11863	0.98883
1682.06483	0.98887
1680.01103	0.98936
1677.95722	0.98979
1675.90342	0.98973
1673.84962	0.98933
1671.79581	0.98911
1669.74201	0.98867
1667.68821	0.98814
1665.63440	0.98796
1663.58060	0.98775
1661.52680	0.98755
1659.47299	0.98750
1657.41919	0.98734
1655.36539	0.98708
1653.31158	0.98712
1651.25778	0.98703
1649.20398	0.98639
1647.15017	0.98556
1645.09637	0.98540
1643.04257	0.98591
1640.98876	0.98631
1638.93496	0.98648
1636.88116	0.98654
1634.82735	0.98655
1632.77355	0.98649
1630.71975	0.98650
1628.66594	0.98667
1626.61214	0.98677
1624.55834	0.98674
1622.50454	0.98649
1620.45073	0.98600
1618.39693	0.98589
1616.34313	0.98645
1614.28932	0.98689
1612.23552	0.98681
1610.18172	0.98661
1608.12791	0.98656
1606.07411	0.98668
1604.02031	0.98682
1601.96650	0.98679
1599.91270	0.98676
1597.85890	0.98667
1595.80509	0.98622
1593.75129	0.98556
1591.69749	0.98518
1589.64368	0.98507
1587.58988	0.98506
1585.53608	0.98503
1583.48227	0.98474
1581.42847	0.98440
1579.37467	0.98421
1577.32086	0.98406
1575.26706	0.98374
1573.21326	0.98323
1571.15945	0.98245
1569.10565	0.98159
1567.05185	0.98112
1564.99805	0.98054
1562.94424	0.97955
1560.89044	0.97809
1558.83664	0.97501
1556.78283	0.97172
1554.72903	0.96922
1552.67523	0.96605
1550.62142	0.96243
1548.56762	0.95901
1546.51382	0.95630
1544.46001	0.95357
1542.40621	0.95036
1540.35241	0.94585
1538.29860	0.94138
1536.24480	0.93906
1534.19100	0.93667
1532.13719	0.93370
1530.08339	0.93125
1528.02959	0.92875
1525.97578	0.92590
1523.92198	0.92314
1521.86818	0.91969
1519.81437	0.91647
1517.76057	0.91413
1515.70677	0.91145
1513.65297	0.90891
1511.59916	0.90678
1509.54536	0.90471
1507.49156	0.90100
1505.43775	0.89599
1503.38395	0.89369
1501.33015	0.89219
1499.27634	0.88983
1497.22254	0.88643
1495.16874	0.88320
1493.11493	0.88102
1491.06113	0.87845
1489.00733	0.87447
1486.95352	0.87077
1484.89972	0.86802
1482.84592	0.86543
1480.79211	0.86263
1478.73831	0.85978
1476.68451	0.85678
1474.63070	0.85350
1472.57690	0.84971
1470.52310	0.84645
1468.46929	0.84448
1466.41549	0.84208
1464.36169	0.83831
1462.30788	0.83518
1460.25408	0.83317
1458.20028	0.82985
1456.14648	0.82459
1454.09267	0.82155
1452.03887	0.81978
1449.98507	0.81755
1447.93126	0.81462
1445.87746	0.81167
1443.82366	0.80930
1441.76985	0.80739
1439.71605	0.80568
1437.66225	0.80290
1435.60844	0.79884
1433.55464	0.79603
1431.50084	0.79371
1429.44703	0.79069
1427.39323	0.78754
1425.33943	0.78436
1423.28562	0.78101
1421.23182	0.77784
1419.17802	0.77375
1417.12421	0.76920
1415.07041	0.76608
1413.01661	0.76335
1410.96280	0.76050
1408.90900	0.75785
1406.85520	0.75543
1404.80139	0.75309
1402.74759	0.75142
1400.69379	0.75035
1398.63999	0.74958
1396.58618	0.74947
1394.53238	0.74962
1392.47858	0.74994
1390.42477	0.75083
1388.37097	0.75203
1386.31717	0.75329
1384.26336	0.75475
1382.20956	0.75634
1380.15576	0.75827
1378.10195	0.76048
1376.04815	0.76262
1373.99435	0.76483
1371.94054	0.76720
1369.88674	0.76954
1367.83294	0.77197
1365.77913	0.77451
1363.72533	0.77713
1361.67153	0.77999
1359.61772	0.78297
1357.56392	0.78575
1355.51012	0.78846
1353.45631	0.79137
1351.40251	0.79415
1349.34871	0.79669
1347.29491	0.79911
1345.24110	0.80146
1343.18730	0.80391
1341.13350	0.80640
1339.07969	0.80877
1337.02589	0.81124
1334.97209	0.81376
1332.91828	0.81608
1330.86448	0.81829
1328.81068	0.82052
1326.75687	0.82273
1324.70307	0.82492
1322.64927	0.82711
1320.59546	0.82917
1318.54166	0.83112
1316.48786	0.83307
1314.43405	0.83511
1312.38025	0.83714
1310.32645	0.83886
1308.27264	0.84048
1306.21884	0.84249
1304.16504	0.84442
1302.11123	0.84585
1300.05743	0.84734
1298.00363	0.84929
1295.94982	0.85136
1293.89602	0.85320
1291.84222	0.85495
1289.78842	0.85683
1287.73461	0.85857
1285.68081	0.86014
1283.62701	0.86175
1281.57320	0.86343
1279.51940	0.86491
1277.46560	0.86634
1275.41179	0.86785
1273.35799	0.86917
1271.30419	0.87038
1269.25038	0.87185
1267.19658	0.87348
1265.14278	0.87478
1263.08897	0.87589
1261.03517	0.87709
1258.98137	0.87813
1256.92756	0.87913
1254.87376	0.88033
1252.81996	0.88147
1250.76615	0.88256
1248.71235	0.88382
1246.65855	0.88512
1244.60474	0.88627
1242.55094	0.88745
1240.49714	0.88875
1238.44334	0.88995
1236.38953	0.89111
1234.33573	0.89223
1232.28193	0.89331
1230.22812	0.89435
1228.17432	0.89521
1226.12052	0.89609
1224.06671	0.89701
1222.01291	0.89765
1219.95911	0.89817
1217.90530	0.89886
1215.85150	0.89968
1213.79770	0.90064
1211.74389	0.90151
1209.69009	0.90191
1207.63629	0.90193
1205.58248	0.90184
1203.52868	0.90183
1201.47488	0.90191
1199.42107	0.90199
1197.36727	0.90193
1195.31347	0.90168
1193.25966	0.90150
1191.20586	0.90150
1189.15206	0.90141
1187.09825	0.90122
1185.04445	0.90100
1182.99065	0.90052
1180.93685	0.89996
1178.88304	0.89949
1176.82924	0.89884
1174.77544	0.89785
1172.72163	0.89687
1170.66783	0.89618
1168.61403	0.89565
1166.56022	0.89530
1164.50642	0.89507
1162.45262	0.89475
1160.39881	0.89433
1158.34501	0.89416
1156.29121	0.89428
1154.23740	0.89427
1152.18360	0.89389
1150.12980	0.89342
1148.07599	0.89316
1146.02219	0.89310
1143.96839	0.89289
1141.91458	0.89249
1139.86078	0.89244
1137.80698	0.89291
1135.75317	0.89342
1133.69937	0.89358
1131.64557	0.89347
1129.59176	0.89372
1127.53796	0.89442
1125.48416	0.89504
1123.43036	0.89551
1121.37655	0.89587
1119.32275	0.89611
1117.26895	0.89628
1115.21514	0.89650
1113.16134	0.89703
1111.10754	0.89766
1109.05373	0.89816
1106.99993	0.89885
1104.94613	0.89962
1102.89232	0.89993
1100.83852	0.90022
1098.78472	0.90118
1096.73091	0.90234
1094.67711	0.90291
1092.62331	0.90272
1090.56950	0.90230
1088.51570	0.90185
1086.46190	0.90130
1084.40809	0.90097
1082.35429	0.90132
1080.30049	0.90229
1078.24668	0.90364
1076.19288	0.90530
1074.13908	0.90697
1072.08528	0.90845
1070.03147	0.90980
1067.97767	0.91096
1065.92387	0.91209
1063.87006	0.91337
1061.81626	0.91440
1059.76246	0.91496
1057.70865	0.91559
1055.65485	0.91640
1053.60105	0.91686
1051.54724	0.91719
1049.49344	0.91792
1047.43964	0.91876
1045.38583	0.91923
1043.33203	0.91946
1041.27823	0.91991
1039.22442	0.92021
1037.17062	0.92030
1035.11682	0.92078
1033.06301	0.92109
1031.00921	0.92101
1028.95541	0.92129
1026.90160	0.92214
1024.84780	0.92308
1022.79400	0.92344
1020.74019	0.92329
1018.68639	0.92356
1016.63259	0.92444
1014.57879	0.92509
1012.52498	0.92532
1010.47118	0.92566
1008.41738	0.92601
1006.36357	0.92623
1004.30977	0.92639
1002.25597	0.92676
1000.20216	0.92754
998.14836	0.92826
996.09456	0.92888
994.04075	0.92999
991.98695	0.93115
989.93315	0.93180
987.87934	0.93256
985.82554	0.93350
983.77174	0.93416
981.71793	0.93468
979.66413	0.93519
977.61033	0.93578
975.55652	0.93647
973.50272	0.93709
971.44892	0.93778
969.39511	0.93873
967.34131	0.93956
965.28751	0.93999
963.23371	0.94060
961.17990	0.94162
959.12610	0.94253
957.07230	0.94298
955.01849	0.94318
952.96469	0.94352
950.91089	0.94400
948.85708	0.94423
946.80328	0.94429
944.74948	0.94459
942.69567	0.94497
940.64187	0.94552
938.58807	0.94649
936.53426	0.94707
934.48046	0.94692
932.42666	0.94707
930.37285	0.94792
928.31905	0.94855
926.26525	0.94818
924.21144	0.94787
922.15764	0.94862
920.10384	0.94958
918.05003	0.95020
915.99623	0.95061
913.94243	0.95069
911.88862	0.95107
909.83482	0.95209
907.78102	0.95291
905.72722	0.95315
903.67341	0.95318
901.61961	0.95334
899.56581	0.95396
897.51200	0.95523
895.45820	0.95645
893.40440	0.95656
891.35059	0.95457
889.29679	0.94746
887.24299	0.93065
885.18918	0.90499
883.13538	0.87767
881.08158	0.85289
879.02777	0.83003
876.97397	0.80933
874.92017	0.79249
872.86636	0.78293
870.81256	0.78650
868.75876	0.80466
866.70495	0.82968
864.65115	0.85277
862.59735	0.87100
860.54354	0.88491
858.48974	0.89550
856.43594	0.90333
854.38213	0.90905
852.32833	0.91319
850.27453	0.91523
848.22073	0.91645
846.16692	0.91953
844.11312	0.92405
842.05932	0.92779
840.00551	0.93008
837.95171	0.93176
835.89791	0.93351
833.84410	0.93506
831.79030	0.93627
829.73650	0.93725
827.68269	0.93826
825.62889	0.93949
823.57509	0.94005
821.52128	0.93972
819.46748	0.93966
817.41368	0.94041
815.35987	0.94156
813.30607	0.94215
811.25227	0.94182
809.19846	0.94143
807.14466	0.94161
805.09086	0.94154
803.03705	0.94114
800.98325	0.94116
798.92945	0.94149
796.87565	0.94198
794.82184	0.94237
792.76804	0.94281
790.71424	0.94363
788.66043	0.94453
786.60663	0.94511
784.55283	0.94495
782.49902	0.94442
780.44522	0.94418
778.39142	0.94431
776.33761	0.94473
774.28381	0.94517
772.23001	0.94561
770.17620	0.94608
768.12240	0.94659
766.06860	0.94686
764.01479	0.94652
761.96099	0.94640
759.90719	0.94721
757.85338	0.94818
755.79958	0.94874
753.74578	0.94928
751.69197	0.94965
749.63817	0.94917
747.58437	0.94862
745.53056	0.94906
743.47676	0.95037
741.42296	0.95161
739.36916	0.95185
737.31535	0.95152
735.26155	0.95146
733.20775	0.95154
731.15394	0.95125
729.10014	0.95005
727.04634	0.94664
724.99253	0.94049
722.93873	0.93298
720.88493	0.92466
718.83112	0.91538
716.77732	0.90654
714.72352	0.90052
712.66971	0.89850
710.61591	0.90006
708.56211	0.90449
706.50830	0.91027
704.45450	0.91590
702.40070	0.92072
700.34689	0.92433
698.29309	0.92707
696.23929	0.92949
694.18548	0.93179
692.13168	0.93377
690.07788	0.93477
688.02408	0.93543
685.97027	0.93728
683.91647	0.93963
681.86267	0.94057
679.80886	0.94005
677.75506	0.93928
675.70126	0.93864
673.64745	0.93860
671.59365	0.93932
669.53985	0.93970
667.48604	0.93939
665.43224	0.94008
663.37844	0.94109
661.32463	0.94088
659.27083	0.93996
657.21703	0.93939
655.16322	0.93923
653.10942	0.93990
651.05562	0.94099
649.00181	0.94136
646.94801	0.94160
644.89421	0.94222
642.84040	0.94181
640.78660	0.94034
638.73280	0.93936
636.67899	0.93975
634.62519	0.94153
632.57139	0.94293
630.51759	0.94304
628.46378	0.94358
626.40998	0.94436
624.35618	0.94360
622.30237	0.94257
620.24857	0.94291
618.19477	0.94314
616.14096	0.94193
614.08716	0.94043
612.03336	0.93985
609.97955	0.94031
607.92575	0.94041
605.87195	0.93958
603.81814	0.93906
601.76434	0.93915
599.71054	0.94000
597.65673	0.94104
595.60293	0.94111
593.54913	0.94081
591.49532	0.94089
589.44152	0.94094
587.38772	0.94112
585.33391	0.94150
583.28011	0.94247
581.22631	0.94434
579.17250	0.94523
577.11870	0.94543
575.06490	0.94642
573.01110	0.94725
570.95729	0.94728
568.90349	0.94661
566.84969	0.94633
564.79588	0.94741
562.74208	0.94939
560.68828	0.95085
558.63447	0.95054
556.58067	0.94902
554.52687	0.94764
552.47306	0.94748
550.41926	0.94842
548.36546	0.95022
546.31165	0.95210
544.25785	0.95214
542.20405	0.95068
540.15024	0.94813
538.09644	0.94545
536.04264	0.94502
533.98883	0.94714
531.93503	0.94994
529.88123	0.95156
527.82742	0.95134
525.77362	0.95001
523.71982	0.94939
521.66602	0.94853
519.61221	0.94680
517.55841	0.94723
515.50461	0.95009
513.45080	0.95231
511.39700	0.95261
509.34320	0.95204
507.28939	0.95136
505.23559	0.95020
503.18179	0.95039
501.12798	0.95271
499.07418	0.95362
497.02038	0.95202
494.96657	0.94931
492.91277	0.94757
490.85897	0.94811
488.80516	0.94876
486.75136	0.94824
484.69756	0.94844
482.64375	0.94952
480.58995	0.94945
478.53615	0.94847
476.48234	0.94794
474.42854	0.94910
472.37474	0.95069
470.32093	0.94915
468.26713	0.94602
466.21333	0.94500
464.15953	0.94624
462.10572	0.94678
460.05192	0.94488
457.99812	0.94195
455.94431	0.94241
453.89051	0.94642
451.83671	0.94756
449.78290	0.94380
447.72910	0.93986
445.67530	0.93944
443.62149	0.94263
441.56769	0.94566
439.51389	0.94529
437.46008	0.94143
435.40628	0.93689
433.35248	0.93785
431.29867	0.94292
429.24487	0.94580
427.19107	0.94601
425.13726	0.94428
423.08346	0.94248
421.02966	0.94439
418.97585	0.94439
416.92205	0.93632
414.86825	0.93136
412.81445	0.93002
410.76064	0.92609
408.70684	0.92090
406.65304	0.91567
404.59923	0.91075
402.54543	0.91086
400.49163	0.91324
398.43782	0.90966
