3996.71440	0.98532
3994.66059	0.98555
3992.60678	0.98553
3990.55297	0.98545
3988.49916	0.98534
3986.44535	0.98521
3984.39154	0.98526
3982.33773	0.98536
3980.28391	0.98507
3978.23010	0.98463
3976.17629	0.98466
3974.12248	0.98493
3972.06867	0.98501
3970.01486	0.98501
3967.96105	0.98501
3965.90724	0.98507
3963.85343	0.98530
3961.79962	0.98555
3959.74581	0.98559
3957.69200	0.98538
3955.63819	0.98525
3953.58438	0.98526
3951.53057	0.98521
3949.47676	0.98516
3947.42295	0.98523
3945.36914	0.98543
3943.31533	0.98551
3941.26152	0.98528
3939.20771	0.98526
3937.15390	0.98569
3935.10009	0.98600
3933.04628	0.98581
3930.99247	0.98545
3928.93866	0.98528
3926.88485	0.98527
3924.83104	0.98528
3922.77723	0.98539
3920.72342	0.98540
3918.66961	0.98516
3916.61580	0.98487
3914.56199	0.98463
3912.50818	0.98449
3910.45437	0.98467
3908.40056	0.98493
3906.34675	0.98503
3904.29294	0.98534
3902.23913	0.98560
3900.18532	0.98529
3898.13151	0.98493
3896.07770	0.98483
3894.02389	0.98485
3891.97008	0.98485
3889.91627	0.98485
3887.86246	0.98486
3885.80865	0.98483
3883.75484	0.98480
3881.70103	0.98476
3879.64722	0.98480
3877.59341	0.98512
3875.53960	0.98564
3873.48579	0.98604
3871.43198	0.98591
3869.37817	0.98527
3867.32436	0.98475
3865.27055	0.98465
3863.21674	0.98489
3861.16293	0.98531
3859.10912	0.98556
3857.05531	0.98560
3855.00150	0.98548
3852.94769	0.98521
3850.89388	0.98542
3848.84007	0.98582
3846.78626	0.98587
3844.73245	0.98552
3842.67864	0.98501
3840.62483	0.98471
3838.57102	0.98462
3836.51721	0.98468
3834.46340	0.98505
3832.40959	0.98543
3830.35578	0.98559
3828.30197	0.98577
3826.24816	0.98594
3824.19435	0.98600
3822.14054	0.98605
3820.08673	0.98617
3818.03292	0.98627
3815.97911	0.98612
3813.92530	0.98570
3811.87149	0.98539
3809.81768	0.98554
3807.76387	0.98582
3805.71006	0.98565
3803.65625	0.98545
3801.60244	0.98562
3799.54863	0.98587
3797.49482	0.98586
3795.44101	0.98558
3793.38720	0.98546
3791.33339	0.98587
3789.27958	0.98629
3787.22577	0.98609
3785.17196	0.98574
3783.11815	0.98589
3781.06434	0.98613
3779.01053	0.98593
3776.95672	0.98574
3774.90291	0.98569
3772.84910	0.98558
3770.79529	0.98570
3768.74148	0.98602
3766.68767	0.98613
3764.63386	0.98610
3762.58005	0.98606
3760.52624	0.98599
3758.47243	0.98590
3756.41862	0.98604
3754.36481	0.98651
3752.31100	0.98698
3750.25719	0.98712
3748.20338	0.98693
3746.14957	0.98670
3744.09576	0.98648
3742.04195	0.98629
3739.98814	0.98624
3737.93433	0.98629
3735.88052	0.98644
3733.82671	0.98657
3731.77290	0.98627
3729.71909	0.98595
3727.66528	0.98617
3725.61147	0.98647
3723.55766	0.98632
3721.50385	0.98625
3719.45004	0.98650
3717.39623	0.98654
3715.34242	0.98617
3713.28861	0.98557
3711.23480	0.98499
3709.18099	0.98475
3707.12718	0.98475
3705.07337	0.98483
3703.01956	0.98504
3700.96575	0.98524
3698.91194	0.98532
3696.85813	0.98526
3694.80432	0.98502
3692.75051	0.98484
3690.69670	0.98515
3688.64289	0.98553
3686.58907	0.98525
3684.53526	0.98481
3682.48145	0.98463
3680.42764	0.98472
3678.37383	0.98472
3676.32002	0.98440
3674.26621	0.98429
3672.21240	0.98446
3670.15859	0.98451
3668.10478	0.98457
3666.05097	0.98471
3663.99716	0.98479
3661.94335	0.98452
3659.88954	0.98398
3657.83573	0.98373
3655.78192	0.98386
3653.72811	0.98395
3651.67430	0.98391
3649.62049	0.98404
3647.56668	0.98432
3645.51287	0.98415
3643.45906	0.98375
3641.40525	0.98372
3639.35144	0.98397
3637.29763	0.98395
3635.24382	0.98369
3633.19001	0.98352
3631.13620	0.98323
3629.08239	0.98257
3627.02858	0.98219
3624.97477	0.98226
3622.92096	0.98217
3620.86715	0.98186
3618.81334	0.98160
3616.75953	0.98146
3614.70572	0.98140
3612.65191	0.98161
3610.59810	0.98170
3608.54429	0.98111
3606.49048	0.98042
3604.43667	0.98020
3602.38286	0.98029
3600.32905	0.98063
3598.27524	0.98120
3596.22143	0.98184
3594.16762	0.98217
3592.11381	0.98214
3590.06000	0.98210
3588.00619	0.98197
3585.95238	0.98150
3583.89857	0.98107
3581.84476	0.98095
3579.79095	0.98092
3577.73714	0.98095
3575.68333	0.98099
3573.62952	0.98075
3571.57571	0.98034
3569.52190	0.98040
3567.46809	0.98097
3565.41428	0.98103
3563.36047	0.98046
3561.30666	0.98003
3559.25285	0.97990
3557.19904	0.97975
3555.14523	0.97946
3553.09142	0.97924
3551.03761	0.97938
3548.98380	0.97963
3546.92999	0.97935
3544.87618	0.97879
3542.82237	0.97856
3540.76856	0.97861
3538.71475	0.97883
3536.66094	0.97898
3534.60713	0.97874
3532.55332	0.97824
3530.49951	0.97781
3528.44570	0.97752
3526.39189	0.97729
3524.33808	0.97729
3522.28427	0.97743
3520.23046	0.97728
3518.17665	0.97706
3516.12284	0.97738
3514.06903	0.97799
3512.01522	0.97810
3509.96141	0.97763
3507.90760	0.97705
3505.85379	0.97680
3503.79998	0.97688
3501.74617	0.97678
3499.69236	0.97649
3497.63855	0.97648
3495.58474	0.97671
3493.53093	0.97691
3491.47712	0.97694
3489.42331	0.97667
3487.36950	0.97627
3485.31569	0.97602
3483.26188	0.97581
3481.20807	0.97546
3479.15426	0.97528
3477.10045	0.97556
3475.04664	0.97593
3472.99283	0.97604
3470.93902	0.97600
3468.88521	0.97576
3466.83140	0.97524
3464.77759	0.97479
3462.72378	0.97483
3460.66997	0.97524
3458.61616	0.97531
3456.56235	0.97483
3454.50854	0.97446
3452.45473	0.97451
3450.40092	0.97471
3448.34711	0.97483
3446.29330	0.97464
3444.23949	0.97432
3442.18568	0.97427
3440.13187	0.97440
3438.07806	0.97430
3436.02425	0.97395
3433.97044	0.97381
3431.91663	0.97401
3429.86282	0.97417
3427.80901	0.97417
3425.75520	0.97419
3423.70139	0.97435
3421.64758	0.97445
3419.59377	0.97431
3417.53996	0.97412
3415.48615	0.97395
3413.43234	0.97367
3411.37853	0.97351
3409.32472	0.97363
3407.27091	0.97385
3405.21710	0.97400
3403.16329	0.97375
3401.10948	0.97341
3399.05567	0.97350
3397.00186	0.97366
3394.94805	0.97355
3392.89424	0.97336
3390.84042	0.97335
3388.78661	0.97360
3386.73280	0.97394
3384.67899	0.97411
3382.62518	0.97388
3380.57137	0.97341
3378.51756	0.97324
3376.46375	0.97347
3374.40994	0.97361
3372.35613	0.97346
3370.30232	0.97332
3368.24851	0.97332
3366.19470	0.97321
3364.14089	0.97304
3362.08708	0.97317
3360.03327	0.97347
3357.97946	0.97372
3355.92565	0.97396
3353.87184	0.97408
3351.81803	0.97389
3349.76422	0.97348
3347.71041	0.97331
3345.65660	0.97361
3343.60279	0.97381
3341.54898	0.97369
3339.49517	0.97368
3337.44136	0.97370
3335.38755	0.97344
3333.33374	0.97326
3331.27993	0.97344
3329.22612	0.97354
3327.17231	0.97332
3325.11850	0.97321
3323.06469	0.97335
3321.01088	0.97338
3318.95707	0.97333
3316.90326	0.97333
3314.84945	0.97330
3312.79564	0.97337
3310.74183	0.97350
3308.68802	0.97336
3306.63421	0.97321
3304.58040	0.97361
3302.52659	0.97415
3300.47278	0.97422
3298.41897	0.97416
3296.36516	0.97425
3294.31135	0.97422
3292.25754	0.97401
3290.20373	0.97399
3288.14992	0.97422
3286.09611	0.97427
3284.04230	0.97404
3281.98849	0.97377
3279.93468	0.97358
3277.88087	0.97347
3275.82706	0.97339
3273.77325	0.97351
3271.71944	0.97388
3269.66563	0.97412
3267.61182	0.97411
3265.55801	0.97408
3263.50420	0.97424
3261.45039	0.97444
3259.39658	0.97431
3257.34277	0.97396
3255.28896	0.97395
3253.23515	0.97439
3251.18134	0.97469
3249.12753	0.97462
3247.07372	0.97459
3245.01991	0.97463
3242.96610	0.97468
3240.91229	0.97470
3238.85848	0.97453
3236.80467	0.97443
3234.75086	0.97457
3232.69705	0.97463
3230.64324	0.97457
3228.58943	0.97458
3226.53562	0.97474
3224.48181	0.97485
3222.42800	0.97483
3220.37419	0.97486
3218.32038	0.97499
3216.26657	0.97520
3214.21276	0.97535
3212.15895	0.97532
3210.10514	0.97528
3208.05133	0.97534
3205.99752	0.97546
3203.94371	0.97557
3201.88990	0.97548
3199.83609	0.97516
3197.78228	0.97502
3195.72847	0.97511
3193.67466	0.97499
3191.62085	0.97475
3189.56704	0.97481
3187.51323	0.97525
3185.45942	0.97569
3183.40561	0.97576
3181.35180	0.97560
3179.29799	0.97555
3177.24418	0.97564
3175.19037	0.97576
3173.13656	0.97589
3171.08275	0.97618
3169.02894	0.97650
3166.97513	0.97639
3164.92132	0.97591
3162.86751	0.97573
3160.81370	0.97589
3158.75989	0.97603
3156.70608	0.97619
3154.65227	0.97633
3152.59846	0.97629
3150.54465	0.97627
3148.49084	0.97638
3146.43703	0.97637
3144.38322	0.97636
3142.32941	0.97651
3140.27560	0.97646
3138.22179	0.97622
3136.16798	0.97615
3134.11417	0.97627
3132.06036	0.97637
3130.00655	0.97652
3127.95274	0.97681
3125.89893	0.97701
3123.84512	0.97698
3121.79131	0.97707
3119.73750	0.97728
3117.68369	0.97723
3115.62988	0.97682
3113.57607	0.97635
3111.52226	0.97611
3109.46845	0.97605
3107.41464	0.97614
3105.36083	0.97628
3103.30702	0.97619
3101.25321	0.97591
3099.19940	0.97571
3097.14559	0.97568
3095.09177	0.97573
3093.03796	0.97572
3090.98415	0.97556
3088.93034	0.97521
3086.87653	0.97478
3084.82272	0.97459
3082.76891	0.97470
3080.71510	0.97493
3078.66129	0.97509
3076.60748	0.97502
3074.55367	0.97482
3072.49986	0.97482
3070.44605	0.97488
3068.39224	0.97478
3066.33843	0.97470
3064.28462	0.97471
3062.23081	0.97467
3060.17700	0.97460
3058.12319	0.97462
3056.06938	0.97461
3054.01557	0.97453
3051.96176	0.97441
3049.90795	0.97430
3047.85414	0.97421
3045.80033	0.97403
3043.74652	0.97377
3041.69271	0.97346
3039.63890	0.97322
3037.58509	0.97324
3035.53128	0.97339
3033.47747	0.97346
3031.42366	0.97352
3029.36985	0.97339
3027.31604	0.97297
3025.26223	0.97249
3023.20842	0.97216
3021.15461	0.97192
3019.10080	0.97178
3017.04699	0.97185
3014.99318	0.97200
3012.93937	0.97214
3010.88556	0.97219
3008.83175	0.97195
3006.77794	0.97160
3004.72413	0.97135
3002.67032	0.97114
3000.61651	0.97095
2998.56270	0.97067
2996.50889	0.97017
2994.45508	0.96960
2992.40127	0.96907
2990.34746	0.96846
2988.29365	0.96771
2986.23984	0.96679
2984.18603	0.96564
2982.13222	0.96425
2980.07841	0.96259
2978.02460	0.96056
2975.97079	0.95815
2973.91698	0.95552
2971.86317	0.95270
2969.80936	0.94950
2967.75555	0.94576
2965.70174	0.94164
2963.64793	0.93752
2961.59412	0.93337
2959.54031	0.92923
2957.48650	0.92552
2955.43269	0.92218
2953.37888	0.91881
2951.32507	0.91517
2949.27126	0.91051
2947.21745	0.90399
2945.16364	0.89525
2943.10983	0.88401
2941.05602	0.86987
2939.00221	0.85295
2936.94840	0.83361
2934.89459	0.81182
2932.84078	0.78724
2930.78697	0.75949
2928.73316	0.72790
2926.67935	0.69122
2924.62554	0.64805
2922.57173	0.59843
2920.51792	0.54542
2918.46411	0.49657
2916.41030	0.46333
2914.35649	0.45556
2912.30268	0.47390
2910.24887	0.50901
2908.19506	0.54897
2906.14125	0.58568
2904.08744	0.61610
2902.03363	0.64062
2899.97982	0.66100
2897.92601	0.67883
2895.87220	0.69512
2893.81839	0.71089
2891.76458	0.72671
2889.71077	0.74252
2887.65696	0.75841
2885.60315	0.77442
2883.54934	0.79023
2881.49553	0.80561
2879.44172	0.82043
2877.38791	0.83401
2875.33410	0.84514
2873.28029	0.85290
2871.22648	0.85729
2869.17267	0.85879
2867.11886	0.85712
2865.06505	0.85111
2863.01124	0.83957
2860.95743	0.82102
2858.90362	0.79311
2856.84981	0.75255
2854.79600	0.69515
2852.74219	0.62021
2850.68838	0.54162
2848.63457	0.49076
2846.58076	0.49324
2844.52695	0.54372
2842.47314	0.61527
2840.41933	0.68476
2838.36552	0.74189
2836.31171	0.78540
2834.25790	0.81777
2832.20409	0.84205
2830.15028	0.86068
2828.09647	0.87525
2826.04266	0.88694
2823.98885	0.89650
2821.93504	0.90419
2819.88123	0.91045
2817.82742	0.91592
2815.77361	0.92072
2813.71980	0.92480
2811.66599	0.92848
2809.61218	0.93179
2807.55837	0.93456
2805.50456	0.93695
2803.45075	0.93917
2801.39693	0.94122
2799.34312	0.94319
2797.28931	0.94513
2795.23550	0.94678
2793.18169	0.94809
2791.12788	0.94946
2789.07407	0.95107
2787.02026	0.95273
2784.96645	0.95417
2782.91264	0.95542
2780.85883	0.95667
2778.80502	0.95794
2776.75121	0.95899
2774.69740	0.95967
2772.64359	0.96018
2770.58978	0.96081
2768.53597	0.96158
2766.48216	0.96231
2764.42835	0.96298
2762.37454	0.96365
2760.32073	0.96413
2758.26692	0.96435
2756.21311	0.96455
2754.15930	0.96477
2752.10549	0.96507
2750.05168	0.96540
2747.99787	0.96560
2745.94406	0.96574
2743.89025	0.96595
2741.83644	0.96625
2739.78263	0.96648
2737.72882	0.96652
2735.67501	0.96657
2733.62120	0.96670
2731.56739	0.96682
2729.51358	0.96692
2727.45977	0.96701
2725.40596	0.96707
2723.35215	0.96729
2721.29834	0.96771
2719.24453	0.96799
2717.19072	0.96808
2715.13691	0.96828
2713.08310	0.96855
2711.02929	0.96873
2708.97548	0.96892
2706.92167	0.96919
2704.86786	0.96939
2702.81405	0.96947
2700.76024	0.96955
2698.70643	0.96966
2696.65262	0.96981
2694.59881	0.96997
2692.54500	0.97012
2690.49119	0.97030
2688.43738	0.97038
2686.38357	0.97032
2684.32976	0.97031
2682.27595	0.97042
2680.22214	0.97042
2678.16833	0.97026
2676.11452	0.97008
2674.06071	0.96981
2672.00690	0.96949
2669.95309	0.96922
2667.89928	0.96901
2665.84547	0.96891
2663.79166	0.96875
2661.73785	0.96856
2659.68404	0.96850
2657.63023	0.96855
2655.57642	0.96868
2653.52261	0.96878
2651.46880	0.96881
2649.41499	0.96880
2647.36118	0.96887
2645.30737	0.96914
2643.25356	0.96935
2641.19975	0.96917
2639.14594	0.96872
2637.09213	0.96852
2635.03832	0.96882
2632.98451	0.96911
2630.93070	0.96922
2628.87689	0.96963
2626.82308	0.97028
2624.76927	0.97062
2622.71546	0.97087
2620.66165	0.97141
2618.60784	0.97191
2616.55403	0.97224
2614.50022	0.97271
2612.44641	0.97328
2610.39260	0.97365
2608.33879	0.97377
2606.28498	0.97370
2604.23117	0.97361
2602.17736	0.97378
2600.12355	0.97419
2598.06974	0.97464
2596.01593	0.97501
2593.96212	0.97509
2591.90831	0.97500
2589.85450	0.97528
2587.80069	0.97584
2585.74688	0.97595
2583.69307	0.97579
2581.63926	0.97586
2579.58545	0.97613
2577.53164	0.97646
2575.47783	0.97666
2573.42402	0.97672
2571.37021	0.97679
2569.31640	0.97691
2567.26259	0.97720
2565.20878	0.97751
2563.15497	0.97767
2561.10116	0.97771
2559.04735	0.97767
2556.99354	0.97773
2554.93973	0.97795
2552.88592	0.97813
2550.83211	0.97799
2548.77830	0.97769
2546.72449	0.97764
2544.67068	0.97777
2542.61687	0.97813
2540.56306	0.97865
2538.50925	0.97861
2536.45544	0.97824
2534.40163	0.97830
2532.34782	0.97839
2530.29401	0.97796
2528.24020	0.97765
2526.18639	0.97790
2524.13258	0.97829
2522.07877	0.97852
2520.02496	0.97873
2517.97115	0.97911
2515.91734	0.97939
2513.86353	0.97927
2511.80972	0.97912
2509.75591	0.97936
2507.70210	0.97973
2505.64828	0.97987
2503.59447	0.97995
2501.54066	0.98004
2499.48685	0.98023
2497.43304	0.98065
2495.37923	0.98091
2493.32542	0.98087
2491.27161	0.98074
2489.21780	0.98059
2487.16399	0.98081
2485.11018	0.98129
2483.05637	0.98137
2481.00256	0.98107
2478.94875	0.98087
2476.89494	0.98072
2474.84113	0.98056
2472.78732	0.98087
2470.73351	0.98145
2468.67970	0.98147
2466.62589	0.98133
2464.57208	0.98165
2462.51827	0.98192
2460.46446	0.98175
2458.41065	0.98167
2456.35684	0.98205
2454.30303	0.98226
2452.24922	0.98192
2450.19541	0.98165
2448.14160	0.98170
2446.08779	0.98193
2444.03398	0.98221
2441.98017	0.98238
2439.92636	0.98260
2437.87255	0.98284
2435.81874	0.98281
2433.76493	0.98243
2431.71112	0.98192
2429.65731	0.98190
2427.60350	0.98260
2425.54969	0.98320
2423.49588	0.98306
2421.44207	0.98255
2419.38826	0.98223
2417.33445	0.98230
2415.28064	0.98239
2413.22683	0.98235
2411.17302	0.98277
2409.11921	0.98350
2407.06540	0.98384
2405.01159	0.98367
2402.95778	0.98323
2400.90397	0.98282
2398.85016	0.98241
2396.79635	0.98217
2394.74254	0.98237
2392.68873	0.98279
2390.63492	0.98303
2388.58111	0.98315
2386.52730	0.98329
2384.47349	0.98321
2382.41968	0.98290
2380.36587	0.98283
2378.31206	0.98296
2376.25825	0.98286
2374.20444	0.98273
2372.15063	0.98275
2370.09682	0.98265
2368.04301	0.98247
2365.98920	0.98243
2363.93539	0.98227
2361.88158	0.98188
2359.82777	0.98164
2357.77396	0.98124
2355.72015	0.98036
2353.66634	0.97978
2351.61253	0.97997
2349.55872	0.98051
2347.50491	0.98073
2345.45110	0.98041
2343.39729	0.97984
2341.34348	0.97928
2339.28967	0.97908
2337.23586	0.97926
2335.18205	0.97948
2333.12824	0.97997
2331.07443	0.98041
2329.02062	0.98018
2326.96681	0.97976
2324.91300	0.97946
2322.85919	0.97938
2320.80538	0.98000
2318.75157	0.98096
2316.69776	0.98134
2314.64395	0.98117
2312.59014	0.98112
2310.53633	0.98137
2308.48252	0.98163
2306.42871	0.98182
2304.37490	0.98192
2302.32109	0.98184
2300.26728	0.98170
2298.21347	0.98167
2296.15966	0.98162
2294.10585	0.98127
2292.05204	0.98077
2289.99823	0.98081
2287.94442	0.98136
2285.89061	0.98173
2283.83680	0.98209
2281.78299	0.98250
2279.72918	0.98262
2277.67537	0.98243
2275.62156	0.98195
2273.56775	0.98192
2271.51394	0.98256
2269.46013	0.98302
2267.40632	0.98323
2265.35251	0.98360
2263.29870	0.98404
2261.24489	0.98444
2259.19108	0.98457
2257.13727	0.98437
2255.08346	0.98432
2253.02965	0.98500
2250.97584	0.98596
2248.92203	0.98621
2246.86822	0.98588
2244.81441	0.98540
2242.76060	0.98474
2240.70679	0.98423
2238.65298	0.98412
2236.59917	0.98412
2234.54536	0.98394
2232.49155	0.98357
2230.43774	0.98306
2228.38393	0.98272
2226.33012	0.98298
2224.27631	0.98379
2222.22250	0.98425
2220.16869	0.98373
2218.11488	0.98328
2216.06107	0.98347
2214.00726	0.98343
2211.95344	0.98305
2209.89963	0.98276
2207.84582	0.98314
2205.79201	0.98382
2203.73820	0.98372
2201.68439	0.98320
2199.63058	0.98316
2197.57677	0.98407
2195.52296	0.98473
2193.46915	0.98381
2191.41534	0.98260
2189.36153	0.98261
2187.30772	0.98303
2185.25391	0.98330
2183.20010	0.98446
2181.14629	0.98562
2179.09248	0.98601
2177.03867	0.98669
2174.98486	0.98678
2172.93105	0.98532
2170.87724	0.98384
2168.82343	0.98317
2166.76962	0.98237
2164.71581	0.98216
2162.66200	0.98326
2160.60819	0.98442
2158.55438	0.98632
2156.50057	0.98899
2154.44676	0.98993
2152.39295	0.98883
2150.33914	0.98739
2148.28533	0.98664
2146.23152	0.98616
2144.17771	0.98557
2142.12390	0.98505
2140.07009	0.98534
2138.01628	0.98635
2135.96247	0.98735
2133.90866	0.98782
2131.85485	0.98731
2129.80104	0.98670
2127.74723	0.98683
2125.69342	0.98700
2123.63961	0.98659
2121.58580	0.98623
2119.53199	0.98609
2117.47818	0.98586
2115.42437	0.98537
2113.37056	0.98461
2111.31675	0.98399
2109.26294	0.98350
2107.20913	0.98337
2105.15532	0.98404
2103.10151	0.98480
2101.04770	0.98479
2098.99389	0.98458
2096.94008	0.98471
2094.88627	0.98519
2092.83246	0.98602
2090.77865	0.98648
2088.72484	0.98631
2086.67103	0.98571
2084.61722	0.98479
2082.56341	0.98434
2080.50960	0.98463
2078.45579	0.98465
2076.40198	0.98430
2074.34817	0.98409
2072.29436	0.98375
2070.24055	0.98377
2068.18674	0.98421
2066.13293	0.98413
2064.07912	0.98390
2062.02531	0.98423
2059.97150	0.98440
2057.91769	0.98406
2055.86388	0.98371
2053.81007	0.98355
2051.75626	0.98365
2049.70245	0.98398
2047.64864	0.98413
2045.59483	0.98392
2043.54102	0.98390
2041.48721	0.98413
2039.43340	0.98439
2037.37959	0.98492
2035.32578	0.98558
2033.27197	0.98597
2031.21816	0.98581
2029.16435	0.98509
2027.11054	0.98398
2025.05673	0.98341
2023.00292	0.98400
2020.94911	0.98461
2018.89530	0.98411
2016.84149	0.98309
2014.78768	0.98316
2012.73387	0.98418
2010.68006	0.98476
2008.62625	0.98473
2006.57244	0.98476
2004.51863	0.98577
2002.46482	0.98682
2000.41101	0.98630
1998.35720	0.98522
1996.30339	0.98472
1994.24958	0.98423
1992.19577	0.98378
1990.14196	0.98403
1988.08815	0.98396
1986.03434	0.98337
1983.98053	0.98380
1981.92672	0.98450
1979.87291	0.98424
1977.81910	0.98526
1975.76529	0.98778
1973.71148	0.98821
1971.65767	0.98619
1969.60386	0.98528
1967.55005	0.98767
1965.49624	0.98953
1963.44243	0.98761
1961.38862	0.98560
1959.33481	0.98615
1957.28100	0.98715
1955.22719	0.98688
1953.17338	0.98599
1951.11957	0.98529
1949.06576	0.98522
1947.01195	0.98580
1944.95814	0.98580
1942.90433	0.98464
1940.85052	0.98360
1938.79671	0.98365
1936.74290	0.98461
1934.68909	0.98561
1932.63528	0.98568
1930.58147	0.98542
1928.52766	0.98532
1926.47385	0.98495
1924.42004	0.98473
1922.36623	0.98495
1920.31242	0.98509
1918.25861	0.98504
1916.20479	0.98504
1914.15098	0.98478
1912.09717	0.98388
1910.04336	0.98288
1907.98955	0.98278
1905.93574	0.98332
1903.88193	0.98347
1901.82812	0.98338
1899.77431	0.98344
1897.72050	0.98336
1895.66669	0.98331
1893.61288	0.98352
1891.55907	0.98371
1889.50526	0.98370
1887.45145	0.98377
1885.39764	0.98411
1883.34383	0.98442
1881.29002	0.98474
1879.23621	0.98503
1877.18240	0.98485
1875.12859	0.98434
1873.07478	0.98407
1871.02097	0.98429
1868.96716	0.98497
1866.91335	0.98532
1864.85954	0.98486
1862.80573	0.98429
1860.75192	0.98397
1858.69811	0.98401
1856.64430	0.98448
1854.59049	0.98493
1852.53668	0.98482
1850.48287	0.98424
1848.42906	0.98364
1846.37525	0.98326
1844.32144	0.98364
1842.26763	0.98436
1840.21382	0.98439
1838.16001	0.98403
1836.10620	0.98376
1834.05239	0.98359
1831.99858	0.98349
1829.94477	0.98318
1827.89096	0.98270
1825.83715	0.98258
1823.78334	0.98287
1821.72953	0.98323
1819.67572	0.98333
1817.62191	0.98312
1815.56810	0.98274
1813.51429	0.98224
1811.46048	0.98175
1809.40667	0.98153
1807.35286	0.98137
1805.29905	0.98112
1803.24524	0.98073
1801.19143	0.98015
1799.13762	0.97940
1797.08381	0.97855
1795.03000	0.97786
1792.97619	0.97722
1790.92238	0.97624
1788.86857	0.97496
1786.81476	0.97355
1784.76095	0.97236
1782.70714	0.97155
1780.65333	0.97070
1778.59952	0.96989
1776.54571	0.96941
1774.49190	0.96893
1772.43809	0.96825
1770.38428	0.96793
1768.33047	0.96805
1766.27666	0.96779
1764.22285	0.96711
1762.16904	0.96629
1760.11523	0.96545
1758.06142	0.96460
1756.00761	0.96366
1753.95380	0.96250
1751.89999	0.96068
1749.84618	0.95782
1747.79237	0.95430
1745.73856	0.95050
1743.68475	0.94656
1741.63094	0.94275
1739.57713	0.93901
1737.52332	0.93629
1735.46951	0.93484
1733.41570	0.93375
1731.36189	0.93244
1729.30808	0.93002
1727.25427	0.92528
1725.20046	0.91761
1723.14665	0.90775
1721.09284	0.89858
1719.03903	0.89048
1716.98522	0.88162
1714.93141	0.87493
1712.87760	0.87282
1710.82379	0.87449
1708.76998	0.87885
1706.71617	0.88557
1704.66236	0.89376
1702.60855	0.90079
1700.55474	0.90832
1698.50093	0.91614
1696.44712	0.92281
1694.39331	0.92976
1692.33950	0.93513
1690.28569	0.93940
1688.23188	0.94322
1686.17807	0.94637
1684.12426	0.94900
1682.07045	0.95052
1680.01664	0.95142
1677.96283	0.95236
1675.90902	0.95328
1673.85521	0.95403
1671.80140	0.95473
1669.74759	0.95551
1667.69378	0.95612
1665.63997	0.95657
1663.58616	0.95708
1661.53235	0.95753
1659.47854	0.95792
1657.42473	0.95835
1655.37092	0.95885
1653.31711	0.95933
1651.26330	0.95947
1649.20949	0.95945
1647.15568	0.95930
1645.10187	0.95909
1643.04806	0.95900
1640.99425	0.95893
1638.94044	0.95876
1636.88663	0.95828
1634.83282	0.95750
1632.77901	0.95711
1630.72520	0.95686
1628.67139	0.95640
1626.61758	0.95575
1624.56377	0.95508
1622.50996	0.95465
1620.45614	0.95447
1618.40233	0.95436
1616.34852	0.95437
1614.29471	0.95478
1612.24090	0.95552
1610.18709	0.95628
1608.13328	0.95672
1606.07947	0.95689
1604.02566	0.95704
1601.97185	0.95716
1599.91804	0.95713
1597.86423	0.95700
1595.81042	0.95682
1593.75661	0.95646
1591.70280	0.95603
1589.64899	0.95580
1587.59518	0.95563
1585.54137	0.95511
1583.48756	0.95440
1581.43375	0.95391
1579.37994	0.95376
1577.32613	0.95371
1575.27232	0.95335
1573.21851	0.95293
1571.16470	0.95273
1569.11089	0.95260
1567.05708	0.95255
1565.00327	0.95266
1562.94946	0.95281
1560.89565	0.95286
1558.84184	0.95250
1556.78803	0.95232
1554.73422	0.95267
1552.68041	0.95298
1550.62660	0.95318
1548.57279	0.95352
1546.51898	0.95412
1544.46517	0.95483
1542.41136	0.95580
1540.35755	0.95740
1538.30374	0.95876
1536.24993	0.95937
1534.19612	0.96005
1532.14231	0.96100
1530.08850	0.96199
1528.03469	0.96302
1525.98088	0.96390
1523.92707	0.96447
1521.87326	0.96500
1519.81945	0.96558
1517.76564	0.96585
1515.71183	0.96606
1513.65802	0.96638
1511.60421	0.96647
1509.55040	0.96646
1507.49659	0.96682
1505.44278	0.96721
1503.38897	0.96708
1501.33516	0.96678
1499.28135	0.96635
1497.22754	0.96583
1495.17373	0.96521
1493.11992	0.96451
1491.06611	0.96349
1489.01230	0.96194
1486.95849	0.96016
1484.90468	0.95819
1482.85087	0.95516
1480.79706	0.94926
1478.74325	0.93588
1476.68944	0.90185
1474.63563	0.83854
1472.58182	0.78115
1470.52801	0.77724
1468.47420	0.79417
1466.42039	0.79603
1464.36658	0.78047
1462.31277	0.77802
1460.25896	0.80301
1458.20515	0.84165
1456.15134	0.87272
1454.09753	0.88698
1452.04372	0.89610
1449.98991	0.90369
1447.93610	0.90913
1445.88229	0.91258
1443.82848	0.91466
1441.77467	0.91621
1439.72086	0.91780
1437.66705	0.91981
1435.61324	0.92210
1433.55943	0.92402
1431.50562	0.92599
1429.45181	0.92816
1427.39800	0.92983
1425.34419	0.93064
1423.29038	0.93080
1421.23657	0.93049
1419.18276	0.92941
1417.12895	0.92737
1415.07514	0.92537
1413.02133	0.92396
1410.96752	0.92364
1408.91371	0.92456
1406.85990	0.92647
1404.80609	0.92941
1402.75228	0.93261
1400.69847	0.93525
1398.64466	0.93772
1396.59085	0.94023
1394.53704	0.94223
1392.48323	0.94317
1390.42942	0.94332
1388.37561	0.94316
1386.32180	0.94231
1384.26799	0.94031
1382.21418	0.93709
1380.16037	0.93307
1378.10656	0.92988
1376.05275	0.92878
1373.99894	0.92918
1371.94513	0.92972
1369.89132	0.93022
1367.83751	0.93110
1365.78370	0.93234
1363.72989	0.93362
1361.67608	0.93479
1359.62227	0.93588
1357.56846	0.93680
1355.51465	0.93736
1353.46084	0.93772
1351.40703	0.93833
1349.35322	0.93917
1347.29941	0.94014
1345.24560	0.94129
1343.19179	0.94239
1341.13798	0.94330
1339.08417	0.94411
1337.03036	0.94480
1334.97655	0.94533
1332.92274	0.94563
1330.86893	0.94573
1328.81512	0.94551
1326.76130	0.94488
1324.70749	0.94408
1322.65368	0.94322
1320.59987	0.94216
1318.54606	0.94084
1316.49225	0.93946
1314.43844	0.93841
1312.38463	0.93802
1310.33082	0.93808
1308.27701	0.93792
1306.22320	0.93725
1304.16939	0.93653
1302.11558	0.93609
1300.06177	0.93571
1298.00796	0.93535
1295.95415	0.93512
1293.90034	0.93485
1291.84653	0.93452
1289.79272	0.93435
1287.73891	0.93440
1285.68510	0.93464
1283.63129	0.93495
1281.57748	0.93515
1279.52367	0.93521
1277.46986	0.93514
1275.41605	0.93506
1273.36224	0.93520
1271.30843	0.93541
1269.25462	0.93528
1267.20081	0.93489
1265.14700	0.93455
1263.09319	0.93424
1261.03938	0.93378
1258.98557	0.93335
1256.93176	0.93307
1254.87795	0.93273
1252.82414	0.93231
1250.77033	0.93197
1248.71652	0.93171
1246.66271	0.93149
1244.60890	0.93136
1242.55509	0.93131
1240.50128	0.93116
1238.44747	0.93091
1236.39366	0.93070
1234.33985	0.93060
1232.28604	0.93061
1230.23223	0.93051
1228.17842	0.93014
1226.12461	0.92966
1224.07080	0.92941
1222.01699	0.92935
1219.96318	0.92920
1217.90937	0.92898
1215.85556	0.92893
1213.80175	0.92899
1211.74794	0.92893
1209.69413	0.92878
1207.64032	0.92870
1205.58651	0.92867
1203.53270	0.92869
1201.47889	0.92878
1199.42508	0.92895
1197.37127	0.92899
1195.31746	0.92870
1193.26365	0.92835
1191.20984	0.92827
1189.15603	0.92832
1187.10222	0.92811
1185.04841	0.92753
1182.99460	0.92695
1180.94079	0.92639
1178.88698	0.92571
1176.83317	0.92521
1174.77936	0.92502
1172.72555	0.92486
1170.67174	0.92468
1168.61793	0.92460
1166.56412	0.92461
1164.51031	0.92475
1162.45650	0.92529
1160.40269	0.92645
1158.34888	0.92788
1156.29507	0.92916
1154.24126	0.93026
1152.18745	0.93139
1150.13364	0.93268
1148.07983	0.93380
1146.02602	0.93445
1143.97221	0.93489
1141.91840	0.93521
1139.86459	0.93522
1137.81078	0.93500
1135.75697	0.93494
1133.70316	0.93504
1131.64935	0.93486
1129.59554	0.93427
1127.54173	0.93365
1125.48792	0.93317
1123.43411	0.93249
1121.38030	0.93168
1119.32649	0.93104
1117.27268	0.93057
1115.21887	0.93008
1113.16506	0.92950
1111.11125	0.92904
1109.05744	0.92858
1107.00363	0.92793
1104.94982	0.92736
1102.89601	0.92698
1100.84220	0.92658
1098.78839	0.92615
1096.73458	0.92581
1094.68077	0.92528
1092.62696	0.92449
1090.57315	0.92384
1088.51934	0.92350
1086.46553	0.92326
1084.41172	0.92307
1082.35791	0.92301
1080.30410	0.92301
1078.25029	0.92306
1076.19648	0.92313
1074.14267	0.92318
1072.08886	0.92336
1070.03505	0.92356
1067.98124	0.92363
1065.92743	0.92380
1063.87362	0.92402
1061.81981	0.92411
1059.76600	0.92420
1057.71219	0.92430
1055.65838	0.92432
1053.60457	0.92432
1051.55076	0.92410
1049.49695	0.92367
1047.44314	0.92341
1045.38933	0.92334
1043.33552	0.92332
1041.28171	0.92331
1039.22790	0.92321
1037.17409	0.92316
1035.12028	0.92335
1033.06647	0.92353
1031.01265	0.92360
1028.95884	0.92377
1026.90503	0.92417
1024.85122	0.92464
1022.79741	0.92485
1020.74360	0.92508
1018.68979	0.92565
1016.63598	0.92619
1014.58217	0.92655
1012.52836	0.92697
1010.47455	0.92740
1008.42074	0.92797
1006.36693	0.92872
1004.31312	0.92934
1002.25931	0.92994
1000.20550	0.93079
998.15169	0.93153
996.09788	0.93189
994.04407	0.93233
991.99026	0.93294
989.93645	0.93333
987.88264	0.93387
985.82883	0.93474
983.77502	0.93540
981.72121	0.93597
979.66740	0.93660
977.61359	0.93686
975.55978	0.93683
973.50597	0.93676
971.45216	0.93677
969.39835	0.93701
967.34454	0.93739
965.29073	0.93775
963.23692	0.93814
961.18311	0.93836
959.12930	0.93817
957.07549	0.93793
955.02168	0.93800
952.96787	0.93824
950.91406	0.93842
948.86025	0.93864
946.80644	0.93915
944.75263	0.93953
942.69882	0.93938
940.64501	0.93925
938.59120	0.93953
936.53739	0.94006
934.48358	0.94039
932.42977	0.94052
930.37596	0.94073
928.32215	0.94105
926.26834	0.94156
924.21453	0.94196
922.16072	0.94201
920.10691	0.94215
918.05310	0.94227
915.99929	0.94216
913.94548	0.94227
911.89167	0.94271
909.83786	0.94314
907.78405	0.94356
905.73024	0.94403
903.67643	0.94422
901.62262	0.94431
899.56881	0.94479
897.51500	0.94548
895.46119	0.94598
893.40738	0.94619
891.35357	0.94635
889.29976	0.94662
887.24595	0.94678
885.19214	0.94687
883.13833	0.94737
881.08452	0.94822
879.03071	0.94877
876.97690	0.94897
874.92309	0.94926
872.86928	0.94973
870.81547	0.95030
868.76166	0.95088
866.70785	0.95119
864.65404	0.95118
862.60023	0.95111
860.54642	0.95090
858.49261	0.95048
856.43880	0.95033
854.38499	0.95058
852.33118	0.95087
850.27737	0.95128
848.22356	0.95185
846.16975	0.95204
844.11594	0.95176
842.06213	0.95170
840.00832	0.95209
837.95451	0.95236
835.90070	0.95232
833.84689	0.95206
831.79308	0.95167
829.73927	0.95125
827.68546	0.95101
825.63165	0.95098
823.57784	0.95066
821.52403	0.95003
819.47022	0.94971
817.41641	0.94950
815.36260	0.94923
813.30879	0.94910
811.25498	0.94871
809.20117	0.94815
807.14736	0.94769
805.09355	0.94701
803.03974	0.94610
800.98593	0.94536
798.93212	0.94497
796.87831	0.94487
794.82450	0.94481
792.77069	0.94444
790.71688	0.94387
788.66307	0.94318
786.60926	0.94257
784.55545	0.94206
782.50164	0.94105
780.44783	0.94029
778.39402	0.94074
776.34021	0.94146
774.28640	0.94179
772.23259	0.94182
770.17878	0.94154
768.12497	0.94115
766.07116	0.94051
764.01735	0.93958
761.96354	0.93877
759.90973	0.93852
757.85592	0.93843
755.80211	0.93752
753.74830	0.93608
751.69449	0.93505
749.64068	0.93422
747.58687	0.93285
745.53306	0.93055
743.47925	0.92767
741.42544	0.92455
739.37163	0.92056
737.31781	0.91350
735.26400	0.89582
733.21019	0.85797
731.15638	0.81350
729.10257	0.79646
727.04876	0.80840
724.99495	0.81567
722.94114	0.79474
720.88733	0.75052
718.83352	0.71961
716.77971	0.73314
714.72590	0.77854
712.67209	0.82564
710.61828	0.85759
708.56447	0.87521
706.51066	0.88482
704.45685	0.89010
702.40304	0.89306
700.34923	0.89517
698.29542	0.89659
696.24161	0.89705
694.18780	0.89714
692.13399	0.89754
690.08018	0.89799
688.02637	0.89815
685.97256	0.89807
683.91875	0.89792
681.86494	0.89770
679.81113	0.89701
677.75732	0.89614
675.70351	0.89581
673.64970	0.89618
671.59589	0.89698
669.54208	0.89775
667.48827	0.89768
665.43446	0.89718
663.38065	0.89725
661.32684	0.89759
659.27303	0.89781
657.21922	0.89775
655.16541	0.89753
653.11160	0.89774
651.05779	0.89839
649.00398	0.89897
646.95017	0.89967
644.89636	0.90045
642.84255	0.90047
640.78874	0.89957
638.73493	0.89885
636.68112	0.89900
634.62731	0.89964
632.57350	0.90007
630.51969	0.89979
628.46588	0.89923
626.41207	0.89882
624.35826	0.89893
622.30445	0.89940
620.25064	0.89952
618.19683	0.89929
616.14302	0.89897
614.08921	0.89904
612.03540	0.89958
609.98159	0.89990
607.92778	0.89994
605.87397	0.89996
603.82016	0.90010
601.76635	0.90065
599.71254	0.90130
597.65873	0.90104
595.60492	0.90060
593.55111	0.90150
591.49730	0.90278
589.44349	0.90285
587.38968	0.90225
585.33587	0.90212
583.28206	0.90212
581.22825	0.90154
579.17444	0.90071
577.12063	0.90007
575.06682	0.89936
573.01301	0.89891
570.95920	0.89940
568.90539	0.89974
566.85158	0.89891
564.79777	0.89761
562.74396	0.89664
560.69015	0.89665
558.63634	0.89746
556.58253	0.89801
554.52872	0.89758
552.47491	0.89643
550.42110	0.89554
548.36729	0.89586
546.31348	0.89694
544.25967	0.89753
542.20586	0.89721
540.15205	0.89695
538.09824	0.89733
536.04443	0.89747
533.99062	0.89756
531.93681	0.89735
529.88300	0.89624
527.82919	0.89542
525.77538	0.89500
523.72157	0.89458
521.66776	0.89507
519.61395	0.89635
517.56014	0.89687
515.50633	0.89634
513.45252	0.89666
511.39871	0.89834
509.34490	0.89952
507.29109	0.89982
505.23728	0.90060
503.18347	0.90161
501.12966	0.90274
499.07585	0.90443
497.02204	0.90503
494.96823	0.90367
492.91442	0.90210
490.86061	0.90141
488.80680	0.90132
486.75299	0.90199
484.69918	0.90240
482.64537	0.90160
480.59156	0.90052
478.53775	0.89912
476.48394	0.89812
474.43013	0.89832
472.37632	0.89829
470.32251	0.89769
468.26870	0.89907
466.21489	0.90262
464.16108	0.90441
462.10727	0.90391
460.05346	0.90456
457.99965	0.90683
455.94584	0.90751
453.89203	0.90628
451.83822	0.90561
449.78441	0.90585
447.73060	0.90576
445.67679	0.90527
443.62298	0.90496
441.56916	0.90559
439.51535	0.90687
437.46154	0.90677
435.40773	0.90349
433.35392	0.89867
431.30011	0.89611
429.24630	0.89467
427.19249	0.89325
425.13868	0.89612
423.08487	0.90237
421.03106	0.90631
418.97725	0.90635
416.92344	0.90323
414.86963	0.90009
412.81582	0.89934
410.76201	0.90232
408.70820	0.90566
406.65439	0.90573
404.60058	0.90525
402.54677	0.90430
400.49296	0.90094
398.43915	0.89911
