3996.70104	0.93774
3994.64724	0.93804
3992.59344	0.93801
3990.53964	0.93785
3988.48583	0.93770
3986.43203	0.93783
3984.37823	0.93823
3982.32442	0.93883
3980.27062	0.93944
3978.21682	0.93934
3976.16301	0.93861
3974.10921	0.93835
3972.05541	0.93859
3970.00160	0.93852
3967.94780	0.93844
3965.89400	0.93869
3963.84019	0.93880
3961.78639	0.93849
3959.73259	0.93810
3957.67878	0.93788
3955.62498	0.93791
3953.57118	0.93796
3951.51737	0.93796
3949.46357	0.93819
3947.40977	0.93838
3945.35596	0.93843
3943.30216	0.93892
3941.24836	0.93944
3939.19455	0.93909
3937.14075	0.93829
3935.08695	0.93797
3933.03315	0.93828
3930.97934	0.93872
3928.92554	0.93883
3926.87174	0.93865
3924.81793	0.93860
3922.76413	0.93883
3920.71033	0.93861
3918.65652	0.93776
3916.60272	0.93721
3914.54892	0.93734
3912.49511	0.93763
3910.44131	0.93786
3908.38751	0.93808
3906.33370	0.93806
3904.27990	0.93772
3902.22610	0.93770
3900.17229	0.93835
3898.11849	0.93912
3896.06469	0.93948
3894.01088	0.93927
3891.95708	0.93895
3889.90328	0.93899
3887.84947	0.93898
3885.79567	0.93939
3883.74187	0.94028
3881.68807	0.94002
3879.63426	0.93889
3877.58046	0.93857
3875.52666	0.93893
3873.47285	0.93918
3871.41905	0.93903
3869.36525	0.93853
3867.31144	0.93809
3865.25764	0.93818
3863.20384	0.93862
3861.15003	0.93910
3859.09623	0.93958
3857.04243	0.94013
3854.98862	0.94063
3852.93482	0.94061
3850.88102	0.94032
3848.82721	0.93988
3846.77341	0.93918
3844.71961	0.93878
3842.66580	0.93895
3840.61200	0.93924
3838.55820	0.93950
3836.50439	0.93927
3834.45059	0.93845
3832.39679	0.93838
3830.34298	0.93899
3828.28918	0.93885
3826.23538	0.93856
3824.18158	0.93903
3822.12777	0.93955
3820.07397	0.94012
3818.02017	0.94055
3815.96636	0.93986
3813.91256	0.93900
3811.85876	0.93891
3809.80495	0.93894
3807.75115	0.93879
3805.69735	0.93869
3803.64354	0.93853
3801.58974	0.93857
3799.53594	0.93900
3797.48213	0.93871
3795.42833	0.93805
3793.37453	0.93845
3791.32072	0.93986
3789.26692	0.94108
3787.21312	0.94117
3785.15931	0.94058
3783.10551	0.94029
3781.05171	0.94050
3778.99790	0.94089
3776.94410	0.94075
3774.89030	0.93988
3772.83650	0.93915
3770.78269	0.93914
3768.72889	0.93917
3766.67509	0.93891
3764.62128	0.93886
3762.56748	0.93900
3760.51368	0.93925
3758.45987	0.93982
3756.40607	0.94034
3754.35227	0.94040
3752.29846	0.94037
3750.24466	0.94056
3748.19086	0.94033
3746.13705	0.93980
3744.08325	0.93996
3742.02945	0.94033
3739.97564	0.94039
3737.92184	0.94059
3735.86804	0.94053
3733.81423	0.94017
3731.76043	0.94056
3729.70663	0.94141
3727.65282	0.94172
3725.59902	0.94118
3723.54522	0.94067
3721.49141	0.94054
3719.43761	0.94063
3717.38381	0.94070
3715.33001	0.94032
3713.27620	0.93938
3711.22240	0.93748
3709.16860	0.93558
3707.11479	0.93478
3705.06099	0.93421
3703.00719	0.93309
3700.95338	0.93160
3698.89958	0.93116
3696.84578	0.93152
3694.79197	0.93133
3692.73817	0.93063
3690.68437	0.93025
3688.63056	0.93113
3686.57676	0.93252
3684.52296	0.93324
3682.46915	0.93305
3680.41535	0.93199
3678.36155	0.93112
3676.30774	0.93080
3674.25394	0.93070
3672.20014	0.93104
3670.14633	0.93132
3668.09253	0.93135
3666.03873	0.93099
3663.98492	0.93001
3661.93112	0.92890
3659.87732	0.92800
3657.82352	0.92692
3655.76971	0.92575
3653.71591	0.92533
3651.66211	0.92544
3649.60830	0.92555
3647.55450	0.92530
3645.50070	0.92478
3643.44689	0.92443
3641.39309	0.92385
3639.33929	0.92295
3637.28548	0.92228
3635.23168	0.92170
3633.17788	0.92154
3631.12407	0.92197
3629.07027	0.92131
3627.01647	0.91941
3624.96266	0.91819
3622.90886	0.91770
3620.85506	0.91827
3618.80125	0.91887
3616.74745	0.91834
3614.69365	0.91794
3612.63984	0.91796
3610.58604	0.91863
3608.53224	0.91990
3606.47844	0.92038
3604.42463	0.92032
3602.37083	0.92054
3600.31703	0.92059
3598.26322	0.92025
3596.20942	0.91991
3594.15562	0.92011
3592.10181	0.92092
3590.04801	0.92152
3587.99421	0.92090
3585.94040	0.91966
3583.88660	0.91929
3581.83280	0.91930
3579.77899	0.91928
3577.72519	0.91927
3575.67139	0.91909
3573.61758	0.91870
3571.56378	0.91833
3569.50998	0.91806
3567.45617	0.91814
3565.40237	0.91873
3563.34857	0.91900
3561.29476	0.91886
3559.24096	0.91855
3557.18716	0.91832
3555.13335	0.91859
3553.07955	0.91890
3551.02575	0.91865
3548.97195	0.91845
3546.91814	0.91841
3544.86434	0.91784
3542.81054	0.91726
3540.75673	0.91755
3538.70293	0.91839
3536.64913	0.91879
3534.59532	0.91840
3532.54152	0.91760
3530.48772	0.91703
3528.43391	0.91737
3526.38011	0.91803
3524.32631	0.91812
3522.27250	0.91794
3520.21870	0.91757
3518.16490	0.91696
3516.11109	0.91675
3514.05729	0.91679
3512.00349	0.91641
3509.94968	0.91641
3507.89588	0.91729
3505.84208	0.91770
3503.78827	0.91718
3501.73447	0.91661
3499.68067	0.91636
3497.62687	0.91621
3495.57306	0.91600
3493.51926	0.91581
3491.46546	0.91587
3489.41165	0.91590
3487.35785	0.91555
3485.30405	0.91533
3483.25024	0.91571
3481.19644	0.91633
3479.14264	0.91669
3477.08883	0.91681
3475.03503	0.91679
3472.98123	0.91614
3470.92742	0.91499
3468.87362	0.91449
3466.81982	0.91475
3464.76601	0.91488
3462.71221	0.91451
3460.65841	0.91399
3458.60460	0.91376
3456.55080	0.91361
3454.49700	0.91341
3452.44319	0.91335
3450.38939	0.91350
3448.33559	0.91384
3446.28178	0.91417
3444.22798	0.91434
3442.17418	0.91426
3440.12038	0.91395
3438.06657	0.91346
3436.01277	0.91281
3433.95897	0.91222
3431.90516	0.91195
3429.85136	0.91215
3427.79756	0.91252
3425.74375	0.91285
3423.68995	0.91300
3421.63615	0.91295
3419.58234	0.91295
3417.52854	0.91291
3415.47474	0.91265
3413.42093	0.91224
3411.36713	0.91184
3409.31333	0.91170
3407.25952	0.91183
3405.20572	0.91185
3403.15192	0.91197
3401.09811	0.91238
3399.04431	0.91249
3396.99051	0.91219
3394.93670	0.91223
3392.88290	0.91264
3390.82910	0.91272
3388.77529	0.91230
3386.72149	0.91211
3384.66769	0.91241
3382.61389	0.91254
3380.56008	0.91210
3378.50628	0.91129
3376.45248	0.91094
3374.39867	0.91125
3372.34487	0.91129
3370.29107	0.91120
3368.23726	0.91145
3366.18346	0.91148
3364.12966	0.91153
3362.07585	0.91216
3360.02205	0.91273
3357.96825	0.91284
3355.91444	0.91286
3353.86064	0.91287
3351.80684	0.91269
3349.75303	0.91254
3347.69923	0.91298
3345.64543	0.91380
3343.59162	0.91419
3341.53782	0.91400
3339.48402	0.91367
3337.43021	0.91355
3335.37641	0.91364
3333.32261	0.91354
3331.26881	0.91357
3329.21500	0.91408
3327.16120	0.91438
3325.10740	0.91424
3323.05359	0.91416
3320.99979	0.91430
3318.94599	0.91460
3316.89218	0.91478
3314.83838	0.91476
3312.78458	0.91529
3310.73077	0.91595
3308.67697	0.91573
3306.62317	0.91543
3304.56936	0.91575
3302.51556	0.91587
3300.46176	0.91570
3298.40795	0.91597
3296.35415	0.91618
3294.30035	0.91589
3292.24654	0.91565
3290.19274	0.91590
3288.13894	0.91647
3286.08513	0.91683
3284.03133	0.91686
3281.97753	0.91682
3279.92372	0.91681
3277.86992	0.91684
3275.81612	0.91707
3273.76232	0.91742
3271.70851	0.91763
3269.65471	0.91774
3267.60091	0.91785
3265.54710	0.91797
3263.49330	0.91786
3261.43950	0.91743
3259.38569	0.91733
3257.33189	0.91779
3255.27809	0.91845
3253.22428	0.91908
3251.17048	0.91930
3249.11668	0.91921
3247.06287	0.91921
3245.00907	0.91928
3242.95527	0.91927
3240.90146	0.91929
3238.84766	0.91933
3236.79386	0.91927
3234.74005	0.91916
3232.68625	0.91900
3230.63245	0.91893
3228.57864	0.91932
3226.52484	0.91999
3224.47104	0.92041
3222.41724	0.92037
3220.36343	0.92005
3218.30963	0.91994
3216.25583	0.92023
3214.20202	0.92047
3212.14822	0.92033
3210.09442	0.92021
3208.04061	0.92056
3205.98681	0.92091
3203.93301	0.92071
3201.87920	0.92061
3199.82540	0.92109
3197.77160	0.92170
3195.71779	0.92203
3193.66399	0.92213
3191.61019	0.92215
3189.55638	0.92212
3187.50258	0.92207
3185.44878	0.92236
3183.39497	0.92320
3181.34117	0.92411
3179.28737	0.92443
3177.23356	0.92410
3175.17976	0.92362
3173.12596	0.92353
3171.07215	0.92383
3169.01835	0.92410
3166.96455	0.92412
3164.91075	0.92380
3162.85694	0.92337
3160.80314	0.92325
3158.74934	0.92368
3156.69553	0.92442
3154.64173	0.92487
3152.58793	0.92498
3150.53412	0.92508
3148.48032	0.92537
3146.42652	0.92588
3144.37271	0.92643
3142.31891	0.92693
3140.26511	0.92721
3138.21130	0.92709
3136.15750	0.92729
3134.10370	0.92777
3132.04989	0.92778
3129.99609	0.92789
3127.94229	0.92830
3125.88848	0.92840
3123.83468	0.92848
3121.78088	0.92870
3119.72707	0.92862
3117.67327	0.92822
3115.61947	0.92788
3113.56566	0.92796
3111.51186	0.92818
3109.45806	0.92794
3107.40426	0.92735
3105.35045	0.92680
3103.29665	0.92619
3101.24285	0.92576
3099.18904	0.92607
3097.13524	0.92671
3095.08144	0.92715
3093.02763	0.92740
3090.97383	0.92702
3088.92003	0.92534
3086.86622	0.92276
3084.81242	0.92044
3082.75862	0.91902
3080.70481	0.91862
3078.65101	0.91955
3076.59721	0.92125
3074.54340	0.92251
3072.48960	0.92296
3070.43580	0.92264
3068.38199	0.92166
3066.32819	0.92009
3064.27439	0.91790
3062.22058	0.91526
3060.16678	0.91305
3058.11298	0.91274
3056.05918	0.91471
3054.00537	0.91751
3051.95157	0.91968
3049.89777	0.92124
3047.84396	0.92267
3045.79016	0.92403
3043.73636	0.92498
3041.68255	0.92523
3039.62875	0.92460
3037.57495	0.92276
3035.52114	0.91973
3033.46734	0.91561
3031.41354	0.90996
3029.35973	0.90330
3027.30593	0.89727
3025.25213	0.89373
3023.19832	0.89463
3021.14452	0.89966
3019.09072	0.90638
3017.03691	0.91286
3014.98311	0.91791
3012.92931	0.92104
3010.87550	0.92253
3008.82170	0.92299
3006.76790	0.92335
3004.71409	0.92363
3002.66029	0.92331
3000.60649	0.92294
2998.55269	0.92353
2996.49888	0.92522
2994.44508	0.92698
2992.39128	0.92808
2990.33747	0.92880
2988.28367	0.92925
2986.22987	0.92944
2984.17606	0.92974
2982.12226	0.93022
2980.06846	0.93046
2978.01465	0.93044
2975.96085	0.93036
2973.90705	0.93040
2971.85324	0.93036
2969.79944	0.92990
2967.74564	0.92929
2965.69183	0.92882
2963.63803	0.92816
2961.58423	0.92700
2959.53042	0.92581
2957.47662	0.92501
2955.42282	0.92438
2953.36901	0.92356
2951.31521	0.92245
2949.26141	0.92142
2947.20761	0.92052
2945.15380	0.91899
2943.10000	0.91637
2941.04620	0.91278
2938.99239	0.90872
2936.93859	0.90483
2934.88479	0.90097
2932.83098	0.89661
2930.77718	0.89192
2928.72338	0.88751
2926.66957	0.88358
2924.61577	0.88021
2922.56197	0.87788
2920.50816	0.87683
2918.45436	0.87691
2916.40056	0.87828
2914.34675	0.88097
2912.29295	0.88429
2910.23915	0.88736
2908.18534	0.89034
2906.13154	0.89381
2904.07774	0.89717
2902.02393	0.90009
2899.97013	0.90292
2897.91633	0.90561
2895.86252	0.90801
2893.80872	0.91001
2891.75492	0.91158
2889.70112	0.91295
2887.64731	0.91421
2885.59351	0.91530
2883.53971	0.91609
2881.48590	0.91693
2879.43210	0.91812
2877.37830	0.91911
2875.32449	0.91964
2873.27069	0.92003
2871.21689	0.92033
2869.16308	0.92051
2867.10928	0.92061
2865.05548	0.92043
2863.00167	0.91957
2860.94787	0.91813
2858.89407	0.91650
2856.84026	0.91444
2854.78646	0.91203
2852.73266	0.90993
2850.67885	0.90837
2848.62505	0.90787
2846.57125	0.90917
2844.51744	0.91175
2842.46364	0.91467
2840.40984	0.91775
2838.35603	0.92076
2836.30223	0.92307
2834.24843	0.92476
2832.19463	0.92640
2830.14082	0.92797
2828.08702	0.92907
2826.03322	0.92956
2823.97941	0.92982
2821.92561	0.93026
2819.87181	0.93079
2817.81800	0.93116
2815.76420	0.93127
2813.71040	0.93125
2811.65659	0.93134
2809.60279	0.93168
2807.54899	0.93214
2805.49518	0.93251
2803.44138	0.93289
2801.38758	0.93333
2799.33377	0.93356
2797.27997	0.93355
2795.22617	0.93337
2793.17236	0.93317
2791.11856	0.93340
2789.06476	0.93378
2787.01095	0.93366
2784.95715	0.93334
2782.90335	0.93358
2780.84955	0.93435
2778.79574	0.93503
2776.74194	0.93526
2774.68814	0.93511
2772.63433	0.93489
2770.58053	0.93488
2768.52673	0.93516
2766.47292	0.93543
2764.41912	0.93539
2762.36532	0.93514
2760.31151	0.93493
2758.25771	0.93488
2756.20391	0.93492
2754.15010	0.93510
2752.09630	0.93536
2750.04250	0.93555
2747.98869	0.93582
2745.93489	0.93608
2743.88109	0.93609
2741.82728	0.93604
2739.77348	0.93618
2737.71968	0.93639
2735.66587	0.93640
2733.61207	0.93648
2731.55827	0.93671
2729.50446	0.93663
2727.45066	0.93658
2725.39686	0.93680
2723.34306	0.93700
2721.28925	0.93709
2719.23545	0.93683
2717.18165	0.93642
2715.12784	0.93634
2713.07404	0.93644
2711.02024	0.93668
2708.96643	0.93694
2706.91263	0.93669
2704.85883	0.93624
2702.80502	0.93627
2700.75122	0.93656
2698.69742	0.93677
2696.64361	0.93699
2694.58981	0.93744
2692.53601	0.93782
2690.48220	0.93773
2688.42840	0.93747
2686.37460	0.93733
2684.32079	0.93732
2682.26699	0.93746
2680.21319	0.93767
2678.15938	0.93763
2676.10558	0.93748
2674.05178	0.93765
2671.99797	0.93797
2669.94417	0.93807
2667.89037	0.93800
2665.83657	0.93803
2663.78276	0.93799
2661.72896	0.93780
2659.67516	0.93783
2657.62135	0.93789
2655.56755	0.93774
2653.51375	0.93768
2651.45994	0.93786
2649.40614	0.93819
2647.35234	0.93830
2645.29853	0.93813
2643.24473	0.93811
2641.19093	0.93823
2639.13712	0.93804
2637.08332	0.93777
2635.02952	0.93790
2632.97571	0.93812
2630.92191	0.93821
2628.86811	0.93836
2626.81430	0.93846
2624.76050	0.93876
2622.70670	0.93931
2620.65289	0.93946
2618.59909	0.93890
2616.54529	0.93852
2614.49149	0.93898
2612.43768	0.93934
2610.38388	0.93913
2608.33008	0.93896
2606.27627	0.93896
2604.22247	0.93905
2602.16867	0.93922
2600.11486	0.93944
2598.06106	0.93981
2596.00726	0.94013
2593.95345	0.94020
2591.89965	0.94011
2589.84585	0.93991
2587.79204	0.93990
2585.73824	0.94010
2583.68444	0.94018
2581.63063	0.94039
2579.57683	0.94080
2577.52303	0.94099
2575.46922	0.94115
2573.41542	0.94116
2571.36162	0.94062
2569.30781	0.94010
2567.25401	0.94008
2565.20021	0.94026
2563.14640	0.94067
2561.09260	0.94111
2559.03880	0.94120
2556.98500	0.94110
2554.93119	0.94112
2552.87739	0.94139
2550.82359	0.94152
2548.76978	0.94141
2546.71598	0.94116
2544.66218	0.94096
2542.60837	0.94137
2540.55457	0.94218
2538.50077	0.94215
2536.44696	0.94121
2534.39316	0.94070
2532.33936	0.94110
2530.28555	0.94162
2528.23175	0.94151
2526.17795	0.94102
2524.12414	0.94070
2522.07034	0.94072
2520.01654	0.94124
2517.96273	0.94166
2515.90893	0.94160
2513.85513	0.94151
2511.80132	0.94127
2509.74752	0.94112
2507.69372	0.94193
2505.63992	0.94298
2503.58611	0.94307
2501.53231	0.94238
2499.47851	0.94140
2497.42470	0.94069
2495.37090	0.94088
2493.31710	0.94165
2491.26329	0.94228
2489.20949	0.94274
2487.15569	0.94320
2485.10188	0.94327
2483.04808	0.94289
2480.99428	0.94255
2478.94047	0.94240
2476.88667	0.94221
2474.83287	0.94197
2472.77906	0.94222
2470.72526	0.94282
2468.67146	0.94319
2466.61765	0.94324
2464.56385	0.94287
2462.51005	0.94232
2460.45624	0.94193
2458.40244	0.94176
2456.34864	0.94215
2454.29483	0.94297
2452.24103	0.94353
2450.18723	0.94351
2448.13343	0.94326
2446.07962	0.94326
2444.02582	0.94346
2441.97202	0.94344
2439.91821	0.94295
2437.86441	0.94244
2435.81061	0.94282
2433.75680	0.94395
2431.70300	0.94435
2429.64920	0.94392
2427.59539	0.94341
2425.54159	0.94254
2423.48779	0.94191
2421.43398	0.94234
2419.38018	0.94326
2417.32638	0.94370
2415.27257	0.94337
2413.21877	0.94296
2411.16497	0.94316
2409.11116	0.94378
2407.05736	0.94423
2405.00356	0.94421
2402.94975	0.94386
2400.89595	0.94387
2398.84215	0.94404
2396.78834	0.94389
2394.73454	0.94382
2392.68074	0.94401
2390.62694	0.94427
2388.57313	0.94450
2386.51933	0.94452
2384.46553	0.94415
2382.41172	0.94347
2380.35792	0.94286
2378.30412	0.94267
2376.25031	0.94336
2374.19651	0.94456
2372.14271	0.94472
2370.08890	0.94389
2368.03510	0.94315
2365.98130	0.94231
2363.92749	0.94183
2361.87369	0.94197
2359.81989	0.94145
2357.76608	0.94092
2355.71228	0.94180
2353.65848	0.94296
2351.60467	0.94358
2349.55087	0.94400
2347.49707	0.94424
2345.44326	0.94381
2343.38946	0.94273
2341.33566	0.94272
2339.28186	0.94359
2337.22805	0.94384
2335.17425	0.94346
2333.12045	0.94262
2331.06664	0.94188
2329.01284	0.94227
2326.95904	0.94323
2324.90523	0.94328
2322.85143	0.94283
2320.79763	0.94307
2318.74382	0.94338
2316.69002	0.94292
2314.63622	0.94221
2312.58241	0.94224
2310.52861	0.94308
2308.47481	0.94349
2306.42100	0.94308
2304.36720	0.94277
2302.31340	0.94311
2300.25959	0.94356
2298.20579	0.94376
2296.15199	0.94430
2294.09818	0.94513
2292.04438	0.94528
2289.99058	0.94465
2287.93677	0.94430
2285.88297	0.94438
2283.82917	0.94366
2281.77537	0.94286
2279.72156	0.94362
2277.66776	0.94443
2275.61396	0.94373
2273.56015	0.94319
2271.50635	0.94394
2269.45255	0.94497
2267.39874	0.94599
2265.34494	0.94719
2263.29114	0.94758
2261.23733	0.94648
2259.18353	0.94476
2257.12973	0.94420
2255.07592	0.94472
2253.02212	0.94491
2250.96832	0.94436
2248.91451	0.94304
2246.86071	0.94260
2244.80691	0.94415
2242.75310	0.94531
2240.69930	0.94426
2238.64550	0.94252
2236.59169	0.94302
2234.53789	0.94527
2232.48409	0.94640
2230.43029	0.94663
2228.37648	0.94610
2226.32268	0.94483
2224.26888	0.94489
2222.21507	0.94542
2220.16127	0.94603
2218.10747	0.94829
2216.05366	0.95018
2213.99986	0.94979
2211.94606	0.94782
2209.89225	0.94599
2207.83845	0.94581
2205.78465	0.94678
2203.73084	0.94738
2201.67704	0.94745
2199.62324	0.94663
2197.56943	0.94511
2195.51563	0.94547
2193.46183	0.94706
2191.40802	0.94741
2189.35422	0.94750
2187.30042	0.94780
2185.24661	0.94742
2183.19281	0.94740
2181.13901	0.94900
2179.08520	0.95084
2177.03140	0.95139
2174.97760	0.95091
2172.92380	0.95046
2170.86999	0.94995
2168.81619	0.94874
2166.76239	0.94776
2164.70858	0.94801
2162.65478	0.94936
2160.60098	0.95083
2158.54717	0.95228
2156.49337	0.95422
2154.43957	0.95522
2152.38576	0.95422
2150.33196	0.95269
2148.27816	0.95286
2146.22435	0.95402
2144.17055	0.95327
2142.11675	0.95102
2140.06294	0.95033
2138.00914	0.95158
2135.95534	0.95276
2133.90153	0.95301
2131.84773	0.95192
2129.79393	0.95004
2127.74012	0.94903
2125.68632	0.94892
2123.63252	0.94821
2121.57871	0.94689
2119.52491	0.94680
2117.47111	0.94769
2115.41731	0.94780
2113.36350	0.94748
2111.30970	0.94808
2109.25590	0.94882
2107.20209	0.94860
2105.14829	0.94905
2103.09449	0.95024
2101.04068	0.95019
2098.98688	0.94899
2096.93308	0.94842
2094.87927	0.94884
2092.82547	0.94892
2090.77167	0.94892
2088.71786	0.94949
2086.66406	0.94969
2084.61026	0.94877
2082.55645	0.94778
2080.50265	0.94818
2078.44885	0.94895
2076.39504	0.94833
2074.34124	0.94765
2072.28744	0.94845
2070.23363	0.94845
2068.17983	0.94715
2066.12603	0.94711
2064.07223	0.94837
2062.01842	0.94853
2059.96462	0.94835
2057.91082	0.94994
2055.85701	0.95107
2053.80321	0.95103
2051.74941	0.95170
2049.69560	0.95171
2047.64180	0.95014
2045.58800	0.94984
2043.53419	0.95180
2041.48039	0.95314
2039.42659	0.95196
2037.37278	0.94967
2035.31898	0.94959
2033.26518	0.95192
2031.21137	0.95327
2029.15757	0.95283
2027.10377	0.95230
2025.04996	0.95176
2022.99616	0.95031
2020.94236	0.94966
2018.88855	0.95240
2016.83475	0.95647
2014.78095	0.95641
2012.72714	0.95268
2010.67334	0.95033
2008.61954	0.94997
2006.56574	0.95067
2004.51193	0.95266
2002.45813	0.95418
2000.40433	0.95418
1998.35052	0.95296
1996.29672	0.95159
1994.24292	0.95101
1992.18911	0.95102
1990.13531	0.95129
1988.08151	0.95146
1986.02770	0.95199
1983.97390	0.95311
1981.92010	0.95373
1979.86629	0.95458
1977.81249	0.95540
1975.75869	0.95246
1973.70488	0.94857
1971.65108	0.94843
1969.59728	0.95012
1967.54347	0.95237
1965.48967	0.95474
1963.43587	0.95445
1961.38206	0.95204
1959.32826	0.95121
1957.27446	0.95211
1955.22066	0.95263
1953.16685	0.95244
1951.11305	0.95160
1949.05925	0.95048
1947.00544	0.94949
1944.95164	0.94820
1942.89784	0.94714
1940.84403	0.94704
1938.79023	0.94715
1936.73643	0.94714
1934.68262	0.94766
1932.62882	0.94873
1930.57502	0.94933
1928.52121	0.94891
1926.46741	0.94848
1924.41361	0.94879
1922.35980	0.94929
1920.30600	0.94987
1918.25220	0.95056
1916.19839	0.95073
1914.14459	0.95059
1912.09079	0.95059
1910.03698	0.95036
1907.98318	0.95005
1905.92938	0.95015
1903.87557	0.95055
1901.82177	0.95104
1899.76797	0.95133
1897.71417	0.95123
1895.66036	0.95044
1893.60656	0.94913
1891.55276	0.94826
1889.49895	0.94778
1887.44515	0.94749
1885.39135	0.94772
1883.33754	0.94777
1881.28374	0.94720
1879.22994	0.94660
1877.17613	0.94625
1875.12233	0.94655
1873.06853	0.94750
1871.01472	0.94793
1868.96092	0.94759
1866.90712	0.94724
1864.85331	0.94650
1862.79951	0.94565
1860.74571	0.94599
1858.69190	0.94732
1856.63810	0.94837
1854.58430	0.94874
1852.53049	0.94886
1850.47669	0.94919
1848.42289	0.94976
1846.36908	0.94988
1844.31528	0.94914
1842.26148	0.94866
1840.20768	0.94894
1838.15387	0.94938
1836.10007	0.94977
1834.04627	0.94992
1831.99246	0.94969
1829.93866	0.94941
1827.88486	0.94951
1825.83105	0.94952
1823.77725	0.94912
1821.72345	0.94894
1819.66964	0.94911
1817.61584	0.94905
1815.56204	0.94862
1813.50823	0.94824
1811.45443	0.94785
1809.40063	0.94712
1807.34682	0.94640
1805.29302	0.94593
1803.23922	0.94580
1801.18541	0.94589
1799.13161	0.94590
1797.07781	0.94638
1795.02400	0.94735
1792.97020	0.94817
1790.91640	0.94846
1788.86260	0.94851
1786.80879	0.94892
1784.75499	0.94949
1782.70119	0.94959
1780.64738	0.94951
1778.59358	0.94953
1776.53978	0.94954
1774.48597	0.94959
1772.43217	0.94963
1770.37837	0.94971
1768.32456	0.94985
1766.27076	0.94968
1764.21696	0.94925
1762.16315	0.94893
1760.10935	0.94876
1758.05555	0.94823
1756.00174	0.94730
1753.94794	0.94681
1751.89414	0.94697
1749.84033	0.94694
1747.78653	0.94597
1745.73273	0.94501
1743.67892	0.94486
1741.62512	0.94502
1739.57132	0.94482
1737.51751	0.94461
1735.46371	0.94476
1733.40991	0.94493
1731.35611	0.94485
1729.30230	0.94489
1727.24850	0.94489
1725.19470	0.94483
1723.14089	0.94490
1721.08709	0.94501
1719.03329	0.94505
1716.97948	0.94526
1714.92568	0.94568
1712.87188	0.94586
1710.81807	0.94540
1708.76427	0.94445
1706.71047	0.94387
1704.65666	0.94400
1702.60286	0.94409
1700.54906	0.94380
1698.49525	0.94303
1696.44145	0.94192
1694.38765	0.94133
1692.33384	0.94110
1690.28004	0.94035
1688.22624	0.93918
1686.17243	0.93803
1684.11863	0.93663
1682.06483	0.93528
1680.01103	0.93427
1677.95722	0.93341
1675.90342	0.93242
1673.84962	0.93130
1671.79581	0.93041
1669.74201	0.92909
1667.68821	0.92753
1665.63440	0.92663
1663.58060	0.92592
1661.52680	0.92534
1659.47299	0.92503
1657.41919	0.92477
1655.36539	0.92451
1653.31158	0.92459
1651.25778	0.92519
1649.20398	0.92593
1647.15017	0.92671
1645.09637	0.92695
1643.04257	0.92693
1640.98876	0.92710
1638.93496	0.92737
1636.88116	0.92757
1634.82735	0.92749
1632.77355	0.92722
1630.71975	0.92703
1628.66594	0.92701
1626.61214	0.92706
1624.55834	0.92711
1622.50454	0.92739
1620.45073	0.92762
1618.39693	0.92753
1616.34313	0.92705
1614.28932	0.92630
1612.23552	0.92546
1610.18172	0.92353
1608.12791	0.91890
1606.07411	0.91157
1604.02031	0.90317
1601.96650	0.89669
1599.91270	0.89582
1597.85890	0.90041
1595.80509	0.90706
1593.75129	0.91273
1591.69749	0.91641
1589.64368	0.91851
1587.58988	0.91899
1585.53608	0.91793
1583.48227	0.91698
1581.42847	0.91795
1579.37467	0.92034
1577.32086	0.92307
1575.26706	0.92574
1573.21326	0.92734
1571.15945	0.92820
1569.10565	0.92890
1567.05185	0.92965
1564.99805	0.93046
1562.94424	0.93107
1560.89044	0.93132
1558.83664	0.93129
1556.78283	0.93178
1554.72903	0.93221
1552.67523	0.93212
1550.62142	0.93191
1548.56762	0.93176
1546.51382	0.93151
1544.46001	0.93138
1542.40621	0.93177
1540.35241	0.93214
1538.29860	0.93225
1536.24480	0.93261
1534.19100	0.93317
1532.13719	0.93380
1530.08339	0.93423
1528.02959	0.93475
1525.97578	0.93555
1523.92198	0.93622
1521.86818	0.93637
1519.81437	0.93617
1517.76057	0.93581
1515.70677	0.93551
1513.65297	0.93540
1511.59916	0.93530
1509.54536	0.93542
1507.49156	0.93587
1505.43775	0.93522
1503.38395	0.93351
1501.33015	0.93038
1499.27634	0.92225
1497.22254	0.90026
1495.16874	0.86745
1493.11493	0.84717
1491.06113	0.85017
1489.00733	0.87476
1486.95352	0.89687
1484.89972	0.90756
1482.84592	0.91353
1480.79211	0.91721
1478.73831	0.91915
1476.68451	0.92024
1474.63070	0.92118
1472.57690	0.92134
1470.52310	0.92076
1468.46929	0.92053
1466.41549	0.92045
1464.36169	0.92008
1462.30788	0.91934
1460.25408	0.91734
1458.20028	0.90693
1456.14648	0.87667
1454.09267	0.84945
1452.03887	0.83833
1449.98507	0.84223
1447.93126	0.85588
1445.87746	0.86917
1443.82366	0.87892
1441.76985	0.88724
1439.71605	0.89404
1437.66225	0.89995
1435.60844	0.90590
1433.55464	0.91012
1431.50084	0.91318
1429.44703	0.91582
1427.39323	0.91768
1425.33943	0.91914
1423.28562	0.92052
1421.23182	0.92167
1419.17802	0.92272
1417.12421	0.92359
1415.07041	0.92421
1413.01661	0.92508
1410.96280	0.92643
1408.90900	0.92795
1406.85520	0.92927
1404.80139	0.93037
1402.74759	0.93126
1400.69379	0.93200
1398.63999	0.93279
1396.58618	0.93364
1394.53238	0.93399
1392.47858	0.93368
1390.42477	0.93317
1388.37097	0.93258
1386.31717	0.93162
1384.26336	0.93034
1382.20956	0.92914
1380.15576	0.92814
1378.10195	0.92716
1376.04815	0.92636
1373.99435	0.92595
1371.94054	0.92581
1369.88674	0.92590
1367.83294	0.92614
1365.77913	0.92654
1363.72533	0.92733
1361.67153	0.92821
1359.61772	0.92880
1357.56392	0.92941
1355.51012	0.93014
1353.45631	0.93068
1351.40251	0.93089
1349.34871	0.93119
1347.29491	0.93196
1345.24110	0.93288
1343.18730	0.93375
1341.13350	0.93464
1339.07969	0.93538
1337.02589	0.93577
1334.97209	0.93590
1332.91828	0.93576
1330.86448	0.93537
1328.81068	0.93494
1326.75687	0.93486
1324.70307	0.93530
1322.64927	0.93604
1320.59546	0.93658
1318.54166	0.93653
1316.48786	0.93622
1314.43405	0.93608
1312.38025	0.93608
1310.32645	0.93621
1308.27264	0.93666
1306.21884	0.93726
1304.16504	0.93767
1302.11123	0.93798
1300.05743	0.93830
1298.00363	0.93864
1295.94982	0.93916
1293.89602	0.93968
1291.84222	0.94002
1289.78842	0.94016
1287.73461	0.94000
1285.68081	0.93971
1283.62701	0.93961
1281.57320	0.93970
1279.51940	0.93986
1277.46560	0.94002
1275.41179	0.94006
1273.35799	0.94014
1271.30419	0.94026
1269.25038	0.94027
1267.19658	0.94034
1265.14278	0.94043
1263.08897	0.94057
1261.03517	0.94066
1258.98137	0.94055
1256.92756	0.94044
1254.87376	0.94034
1252.81996	0.94008
1250.76615	0.93975
1248.71235	0.93932
1246.65855	0.93871
1244.60474	0.93809
1242.55094	0.93772
1240.49714	0.93758
1238.44334	0.93735
1236.38953	0.93691
1234.33573	0.93622
1232.28193	0.93551
1230.22812	0.93518
1228.17432	0.93509
1226.12052	0.93485
1224.06671	0.93422
1222.01291	0.93312
1219.95911	0.93182
1217.90530	0.93049
1215.85150	0.92898
1213.79770	0.92735
1211.74389	0.92555
1209.69009	0.92325
1207.63629	0.92051
1205.58248	0.91781
1203.52868	0.91533
1201.47488	0.91270
1199.42107	0.90956
1197.36727	0.90625
1195.31347	0.90339
1193.25966	0.90092
1191.20586	0.89831
1189.15206	0.89522
1187.09825	0.89160
1185.04445	0.88758
1182.99065	0.88342
1180.93685	0.87972
1178.88304	0.87732
1176.82924	0.87610
1174.77544	0.87485
1172.72163	0.87293
1170.66783	0.87048
1168.61403	0.86782
1166.56022	0.86537
1164.50642	0.86333
1162.45262	0.86146
1160.39881	0.85927
1158.34501	0.85634
1156.29121	0.85311
1154.23740	0.85072
1152.18360	0.84968
1150.12980	0.84944
1148.07599	0.84929
1146.02219	0.84898
1143.96839	0.84835
1141.91458	0.84735
1139.86078	0.84599
1137.80698	0.84431
1135.75317	0.84272
1133.69937	0.84135
1131.64557	0.83937
1129.59176	0.83618
1127.53796	0.83254
1125.48416	0.82897
1123.43036	0.82463
1121.37655	0.81918
1119.32275	0.81348
1117.26895	0.80779
1115.21514	0.80166
1113.16134	0.79544
1111.10754	0.78973
1109.05373	0.78463
1106.99993	0.78024
1104.94613	0.77637
1102.89232	0.77267
1100.83852	0.76924
1098.78472	0.76631
1096.73091	0.76361
1094.67711	0.76104
1092.62331	0.75894
1090.56950	0.75737
1088.51570	0.75575
1086.46190	0.75357
1084.40809	0.75103
1082.35429	0.74850
1080.30049	0.74603
1078.24668	0.74357
1076.19288	0.74069
1074.13908	0.73670
1072.08528	0.73198
1070.03147	0.72761
1067.97767	0.72363
1065.92387	0.71974
1063.87006	0.71624
1061.81626	0.71311
1059.76246	0.70984
1057.70865	0.70578
1055.65485	0.70061
1053.60105	0.69483
1051.54724	0.68869
1049.49344	0.68210
1047.43964	0.67496
1045.38583	0.66690
1043.33203	0.65838
1041.27823	0.64979
1039.22442	0.64038
1037.17062	0.63003
1035.11682	0.61924
1033.06301	0.60802
1031.00921	0.59700
1028.95541	0.58777
1026.90160	0.58163
1024.84780	0.57895
1022.79400	0.57855
1020.74019	0.57839
1018.68639	0.57761
1016.63259	0.57643
1014.57879	0.57472
1012.52498	0.57241
1010.47118	0.57021
1008.41738	0.56864
1006.36357	0.56754
1004.30977	0.56721
1002.25597	0.56837
1000.20216	0.57135
998.14836	0.57576
996.09456	0.58062
994.04075	0.58550
991.98695	0.59087
989.93315	0.59690
987.87934	0.60332
985.82554	0.61023
983.77174	0.61815
981.71793	0.62739
979.66413	0.63750
977.61033	0.64795
975.55652	0.65893
973.50272	0.67055
971.44892	0.68211
969.39511	0.69284
967.34131	0.70252
965.28751	0.71142
963.23371	0.72007
961.17990	0.72887
959.12610	0.73772
957.07230	0.74612
955.01849	0.75338
952.96469	0.75910
950.91089	0.76356
948.85708	0.76745
946.80328	0.77134
944.74948	0.77519
942.69567	0.77880
940.64187	0.78227
938.58807	0.78572
936.53426	0.78928
934.48046	0.79327
932.42666	0.79744
930.37285	0.80089
928.31905	0.80336
926.26525	0.80514
924.21144	0.80631
922.15764	0.80694
920.10384	0.80696
918.05003	0.80586
915.99623	0.80351
913.94243	0.80074
911.88862	0.79826
909.83482	0.79665
907.78102	0.79727
905.72722	0.80109
903.67341	0.80776
901.61961	0.81650
899.56581	0.82638
897.51200	0.83596
895.45820	0.84374
893.40440	0.84960
891.35059	0.85447
889.29679	0.85837
887.24299	0.86110
885.18918	0.86324
883.13538	0.86506
881.08158	0.86616
879.02777	0.86671
876.97397	0.86785
874.92017	0.87029
872.86636	0.87390
870.81256	0.87773
868.75876	0.88075
866.70495	0.88321
864.65115	0.88530
862.59735	0.88682
860.54354	0.88842
858.48974	0.89038
856.43594	0.89232
854.38213	0.89401
852.32833	0.89496
850.27453	0.89465
848.22073	0.89368
846.16692	0.89265
844.11312	0.89092
842.05932	0.88899
840.00551	0.88817
837.95171	0.88814
835.89791	0.88854
833.84410	0.88952
831.79030	0.89021
829.73650	0.89022
827.68269	0.89033
825.62889	0.89068
823.57509	0.89118
821.52128	0.89204
819.46748	0.89306
817.41368	0.89387
815.35987	0.89391
813.30607	0.89337
811.25227	0.89250
809.19846	0.88977
807.14466	0.88454
805.09086	0.87843
803.03705	0.87303
800.98325	0.86951
798.92945	0.86848
796.87565	0.86946
794.82184	0.87090
792.76804	0.87113
790.71424	0.87015
788.66043	0.86879
786.60663	0.86729
784.55283	0.86526
782.49902	0.86187
780.44522	0.85721
778.39142	0.85219
776.33761	0.84721
774.28381	0.84168
772.23001	0.83365
770.17620	0.82218
768.12240	0.80902
766.06860	0.79539
764.01479	0.78107
761.96099	0.76677
759.90719	0.75382
757.85338	0.74375
755.79958	0.73772
753.74578	0.73561
751.69197	0.73655
749.63817	0.73921
747.58437	0.74377
745.53056	0.75274
743.47676	0.76731
741.42296	0.78553
739.36916	0.80372
737.31535	0.81919
735.26155	0.83228
733.20775	0.84400
731.15394	0.85369
729.10014	0.86039
727.04634	0.86473
724.99253	0.86807
722.93873	0.87057
720.88493	0.87260
718.83112	0.87525
716.77732	0.87754
714.72352	0.87686
712.66971	0.87107
710.61591	0.85741
708.56211	0.83148
706.50830	0.78877
704.45450	0.72699
702.40070	0.64879
700.34689	0.56163
698.29309	0.48024
696.23929	0.43570
694.18548	0.46025
692.13168	0.54251
690.07788	0.63268
688.02408	0.69790
685.97027	0.73719
683.91647	0.75998
681.86267	0.77466
679.80886	0.78571
677.75506	0.79384
675.70126	0.79859
673.64745	0.80117
671.59365	0.80359
669.53985	0.80639
667.48604	0.80920
665.43224	0.81136
663.37844	0.81292
661.32463	0.81402
659.27083	0.81466
657.21703	0.81410
655.16322	0.81215
653.10942	0.81070
651.05562	0.81070
649.00181	0.81148
646.94801	0.81317
644.89421	0.81550
642.84040	0.81761
640.78660	0.81918
638.73280	0.81987
636.67899	0.82055
634.62519	0.82180
632.57139	0.82204
630.51759	0.82140
628.46378	0.82127
626.40998	0.82129
624.35618	0.82108
622.30237	0.82040
620.24857	0.81860
618.19477	0.81609
616.14096	0.81346
614.08716	0.81114
612.03336	0.80906
609.97955	0.80735
607.92575	0.80633
605.87195	0.80486
603.81814	0.80252
601.76434	0.79940
599.71054	0.79540
597.65673	0.79185
595.60293	0.78910
593.54913	0.78613
591.49532	0.78283
589.44152	0.78005
587.38772	0.77824
585.33391	0.77731
583.28011	0.77691
581.22631	0.77546
579.17250	0.77152
577.11870	0.76644
575.06490	0.76270
573.01110	0.76003
570.95729	0.75612
568.90349	0.75002
566.84969	0.74241
564.79588	0.73479
562.74208	0.72691
560.68828	0.71815
558.63447	0.71022
556.58067	0.70273
554.52687	0.69434
552.47306	0.68619
550.41926	0.67753
548.36546	0.66666
546.31165	0.65399
544.25785	0.63986
542.20405	0.62498
540.15024	0.61125
538.09644	0.60141
536.04264	0.59656
533.98883	0.59566
531.93503	0.59865
529.88123	0.60404
527.82742	0.60964
525.77362	0.61602
523.71982	0.62357
521.66602	0.63188
519.61221	0.64012
517.55841	0.64653
515.50461	0.65115
513.45080	0.65704
511.39700	0.66523
509.34320	0.67331
507.28939	0.67928
505.23559	0.68235
503.18179	0.68340
501.12798	0.68445
499.07418	0.68580
497.02038	0.68591
494.96657	0.68418
492.91277	0.68066
490.85897	0.67372
488.80516	0.66259
486.75136	0.64965
484.69756	0.63615
482.64375	0.62152
480.58995	0.60523
478.53615	0.58725
476.48234	0.57022
474.42854	0.55609
472.37474	0.54434
470.32093	0.53647
468.26713	0.53367
466.21333	0.53465
464.15953	0.53700
462.10572	0.54027
460.05192	0.54710
457.99812	0.55896
455.94431	0.57077
453.89051	0.57988
451.83671	0.58901
449.78290	0.59769
447.72910	0.60393
445.67530	0.60451
443.62149	0.60261
441.56769	0.60430
439.51389	0.60509
437.46008	0.60199
435.40628	0.59978
433.35248	0.60015
431.29867	0.59893
429.24487	0.59570
427.19107	0.59485
425.13726	0.59723
423.08346	0.59992
421.02966	0.60094
418.97585	0.60521
416.92205	0.61458
414.86825	0.62005
412.81445	0.62242
410.76064	0.62628
408.70684	0.63610
406.65304	0.64918
404.59923	0.65745
402.54543	0.65946
400.49163	0.65719
398.43782	0.65310
