3996.70104	0.97676
3994.64724	0.97717
3992.59344	0.97762
3990.53964	0.97777
3988.48583	0.97776
3986.43203	0.97777
3984.37823	0.97804
3982.32442	0.97808
3980.27062	0.97742
3978.21682	0.97699
3976.16301	0.97732
3974.10921	0.97742
3972.05541	0.97688
3970.00160	0.97648
3967.94780	0.97681
3965.89400	0.97771
3963.84019	0.97845
3961.78639	0.97848
3959.73259	0.97802
3957.67878	0.97739
3955.62498	0.97696
3953.57118	0.97705
3951.51737	0.97716
3949.46357	0.97692
3947.40977	0.97694
3945.35596	0.97777
3943.30216	0.97879
3941.24836	0.97918
3939.19455	0.97930
3937.14075	0.97937
3935.08695	0.97890
3933.03315	0.97781
3930.97934	0.97673
3928.92554	0.97633
3926.87174	0.97644
3924.81793	0.97666
3922.76413	0.97704
3920.71033	0.97737
3918.65652	0.97735
3916.60272	0.97725
3914.54892	0.97764
3912.49511	0.97832
3910.44131	0.97862
3908.38751	0.97831
3906.33370	0.97772
3904.27990	0.97735
3902.22610	0.97741
3900.17229	0.97773
3898.11849	0.97801
3896.06469	0.97805
3894.01088	0.97812
3891.95708	0.97807
3889.90328	0.97759
3887.84947	0.97735
3885.79567	0.97792
3883.74187	0.97870
3881.68807	0.97841
3879.63426	0.97748
3877.58046	0.97736
3875.52666	0.97761
3873.47285	0.97746
3871.41905	0.97741
3869.36525	0.97753
3867.31144	0.97742
3865.25764	0.97782
3863.20384	0.97862
3861.15003	0.97871
3859.09623	0.97869
3857.04243	0.97896
3854.98862	0.97839
3852.93482	0.97660
3850.88102	0.97644
3848.82721	0.97751
3846.77341	0.97826
3844.71961	0.97830
3842.66580	0.97827
3840.61200	0.97876
3838.55820	0.97868
3836.50439	0.97764
3834.45059	0.97708
3832.39679	0.97697
3830.34298	0.97705
3828.28918	0.97749
3826.23538	0.97795
3824.18158	0.97818
3822.12777	0.97812
3820.07397	0.97793
3818.02017	0.97843
3815.96636	0.97920
3813.91256	0.97901
3811.85876	0.97815
3809.80495	0.97723
3807.75115	0.97676
3805.69735	0.97751
3803.64354	0.97837
3801.58974	0.97862
3799.53594	0.97891
3797.48213	0.97905
3795.42833	0.97905
3793.37453	0.97932
3791.32072	0.97951
3789.26692	0.97919
3787.21312	0.97866
3785.15931	0.97827
3783.10551	0.97817
3781.05171	0.97830
3778.99790	0.97863
3776.94410	0.97914
3774.89030	0.97921
3772.83650	0.97909
3770.78269	0.97952
3768.72889	0.97994
3766.67509	0.97993
3764.62128	0.97988
3762.56748	0.97971
3760.51368	0.97927
3758.45987	0.97890
3756.40607	0.97928
3754.35227	0.97998
3752.29846	0.98026
3750.24466	0.98033
3748.19086	0.98051
3746.13705	0.98030
3744.08325	0.98009
3742.02945	0.98065
3739.97564	0.98100
3737.92184	0.98028
3735.86804	0.97850
3733.81423	0.97745
3731.76043	0.97806
3729.70663	0.97923
3727.65282	0.98017
3725.59902	0.98041
3723.54522	0.97989
3721.49141	0.97904
3719.43761	0.97814
3717.38381	0.97736
3715.33001	0.97701
3713.27620	0.97698
3711.22240	0.97656
3709.16860	0.97603
3707.11479	0.97554
3705.06099	0.97459
3703.00719	0.97363
3700.95338	0.97325
3698.89958	0.97287
3696.84578	0.97209
3694.79197	0.97143
3692.73817	0.97085
3690.68437	0.97065
3688.63056	0.97148
3686.57676	0.97247
3684.52296	0.97298
3682.46915	0.97302
3680.41535	0.97317
3678.36155	0.97349
3676.30774	0.97303
3674.25394	0.97215
3672.20014	0.97213
3670.14633	0.97242
3668.09253	0.97254
3666.03873	0.97263
3663.98492	0.97241
3661.93112	0.97170
3659.87732	0.97104
3657.82352	0.97095
3655.76971	0.97108
3653.71591	0.97088
3651.66211	0.97004
3649.60830	0.96818
3647.55450	0.96746
3645.50070	0.96831
3643.44689	0.96895
3641.39309	0.96938
3639.33929	0.96933
3637.28548	0.96854
3635.23168	0.96764
3633.17788	0.96733
3631.12407	0.96743
3629.07027	0.96608
3627.01647	0.96387
3624.96266	0.96311
3622.90886	0.96293
3620.85506	0.96320
3618.80125	0.96321
3616.74745	0.96221
3614.69365	0.96157
3612.63984	0.96173
3610.58604	0.96204
3608.53224	0.96283
3606.47844	0.96397
3604.42463	0.96402
3602.37083	0.96275
3600.31703	0.96111
3598.26322	0.96035
3596.20942	0.96040
3594.15562	0.96057
3592.10181	0.96080
3590.04801	0.96064
3587.99421	0.95971
3585.94040	0.95911
3583.88660	0.95903
3581.83280	0.95865
3579.77899	0.95839
3577.72519	0.95822
3575.67139	0.95767
3573.61758	0.95716
3571.56378	0.95685
3569.50998	0.95669
3567.45617	0.95699
3565.40237	0.95695
3563.34857	0.95628
3561.29476	0.95598
3559.24096	0.95596
3557.18716	0.95539
3555.13335	0.95423
3553.07955	0.95329
3551.02575	0.95292
3548.97195	0.95273
3546.91814	0.95254
3544.86434	0.95245
3542.81054	0.95185
3540.75673	0.95051
3538.70293	0.94965
3536.64913	0.94989
3534.59532	0.95022
3532.54152	0.94993
3530.48772	0.94945
3528.43391	0.94938
3526.38011	0.94931
3524.32631	0.94841
3522.27250	0.94713
3520.21870	0.94651
3518.16490	0.94677
3516.11109	0.94689
3514.05729	0.94652
3512.00349	0.94630
3509.94968	0.94592
3507.89588	0.94568
3505.84208	0.94585
3503.78827	0.94550
3501.73447	0.94476
3499.68067	0.94433
3497.62687	0.94384
3495.57306	0.94299
3493.51926	0.94210
3491.46546	0.94164
3489.41165	0.94161
3487.35785	0.94154
3485.30405	0.94137
3483.25024	0.94127
3481.19644	0.94115
3479.14264	0.94056
3477.08883	0.93961
3475.03503	0.93912
3472.98123	0.93933
3470.92742	0.93930
3468.87362	0.93835
3466.81982	0.93737
3464.76601	0.93704
3462.71221	0.93669
3460.65841	0.93608
3458.60460	0.93584
3456.55080	0.93600
3454.49700	0.93570
3452.44319	0.93473
3450.38939	0.93403
3448.33559	0.93363
3446.28178	0.93266
3444.22798	0.93163
3442.17418	0.93102
3440.12038	0.93073
3438.06657	0.93069
3436.01277	0.93040
3433.95897	0.92972
3431.90516	0.92905
3429.85136	0.92864
3427.79756	0.92841
3425.74375	0.92796
3423.68995	0.92721
3421.63615	0.92634
3419.58234	0.92556
3417.52854	0.92515
3415.47474	0.92465
3413.42093	0.92375
3411.36713	0.92302
3409.31333	0.92259
3407.25952	0.92232
3405.20572	0.92211
3403.15192	0.92192
3401.09811	0.92167
3399.04431	0.92114
3396.99051	0.92061
3394.93670	0.92032
3392.88290	0.92008
3390.82910	0.92010
3388.77529	0.92041
3386.72149	0.92039
3384.66769	0.91997
3382.61389	0.91955
3380.56008	0.91940
3378.50628	0.91966
3376.45248	0.91994
3374.39867	0.91969
3372.34487	0.91964
3370.29107	0.92004
3368.23726	0.92017
3366.18346	0.92035
3364.12966	0.92108
3362.07585	0.92173
3360.02205	0.92170
3357.96825	0.92131
3355.91444	0.92100
3353.86064	0.92088
3351.80684	0.92114
3349.75303	0.92168
3347.69923	0.92212
3345.64543	0.92235
3343.59162	0.92233
3341.53782	0.92242
3339.48402	0.92252
3337.43021	0.92221
3335.37641	0.92209
3333.32261	0.92260
3331.26881	0.92304
3329.21500	0.92302
3327.16120	0.92311
3325.10740	0.92374
3323.05359	0.92446
3320.99979	0.92481
3318.94599	0.92478
3316.89218	0.92482
3314.83838	0.92522
3312.78458	0.92567
3310.73077	0.92578
3308.67697	0.92561
3306.62317	0.92569
3304.56936	0.92639
3302.51556	0.92725
3300.46176	0.92737
3298.40795	0.92685
3296.35415	0.92670
3294.30035	0.92699
3292.24654	0.92724
3290.19274	0.92766
3288.13894	0.92802
3286.08513	0.92798
3284.03133	0.92823
3281.97753	0.92882
3279.92372	0.92889
3277.86992	0.92879
3275.81612	0.92932
3273.76232	0.92993
3271.70851	0.92980
3269.65471	0.92916
3267.60091	0.92866
3265.54710	0.92853
3263.49330	0.92899
3261.43950	0.92981
3259.38569	0.93038
3257.33189	0.93085
3255.27809	0.93110
3253.22428	0.93084
3251.17048	0.93054
3249.11668	0.93056
3247.06287	0.93111
3245.00907	0.93175
3242.95527	0.93181
3240.90146	0.93173
3238.84766	0.93201
3236.79386	0.93221
3234.74005	0.93225
3232.68625	0.93242
3230.63245	0.93238
3228.57864	0.93233
3226.52484	0.93271
3224.47104	0.93330
3222.41724	0.93384
3220.36343	0.93422
3218.30963	0.93421
3216.25583	0.93391
3214.20202	0.93397
3212.14822	0.93440
3210.09442	0.93463
3208.04061	0.93486
3205.98681	0.93555
3203.93301	0.93636
3201.87920	0.93679
3199.82540	0.93711
3197.77160	0.93754
3195.71779	0.93772
3193.66399	0.93795
3191.61019	0.93859
3189.55638	0.93906
3187.50258	0.93913
3185.44878	0.93907
3183.39497	0.93921
3181.34117	0.93958
3179.28737	0.93996
3177.23356	0.94053
3175.17976	0.94121
3173.12596	0.94156
3171.07215	0.94166
3169.01835	0.94179
3166.96455	0.94234
3164.91075	0.94321
3162.85694	0.94372
3160.80314	0.94387
3158.74934	0.94423
3156.69553	0.94466
3154.64173	0.94489
3152.58793	0.94505
3150.53412	0.94523
3148.48032	0.94540
3146.42652	0.94550
3144.37271	0.94548
3142.31891	0.94565
3140.26511	0.94615
3138.21130	0.94701
3136.15750	0.94811
3134.10370	0.94880
3132.04989	0.94879
3129.99609	0.94859
3127.94229	0.94851
3125.88848	0.94869
3123.83468	0.94933
3121.78088	0.94996
3119.72707	0.95033
3117.67327	0.95074
3115.61947	0.95100
3113.56566	0.95088
3111.51186	0.95085
3109.45806	0.95122
3107.40426	0.95168
3105.35045	0.95183
3103.29665	0.95187
3101.24285	0.95235
3099.18904	0.95310
3097.13524	0.95353
3095.08144	0.95342
3093.02763	0.95322
3090.97383	0.95333
3088.92003	0.95363
3086.86622	0.95393
3084.81242	0.95407
3082.75862	0.95441
3080.70481	0.95505
3078.65101	0.95529
3076.59721	0.95520
3074.54340	0.95537
3072.48960	0.95578
3070.43580	0.95630
3068.38199	0.95675
3066.32819	0.95668
3064.27439	0.95639
3062.22058	0.95660
3060.16678	0.95709
3058.11298	0.95736
3056.05918	0.95760
3054.00537	0.95782
3051.95157	0.95780
3049.89777	0.95782
3047.84396	0.95799
3045.79016	0.95807
3043.73636	0.95830
3041.68255	0.95882
3039.62875	0.95944
3037.57495	0.95992
3035.52114	0.96015
3033.46734	0.96031
3031.41354	0.96039
3029.35973	0.96031
3027.30593	0.96046
3025.25213	0.96061
3023.19832	0.96045
3021.14452	0.96066
3019.09072	0.96138
3017.03691	0.96196
3014.98311	0.96208
3012.92931	0.96187
3010.87550	0.96155
3008.82170	0.96145
3006.76790	0.96164
3004.71409	0.96192
3002.66029	0.96219
3000.60649	0.96223
2998.55269	0.96202
2996.49888	0.96192
2994.44508	0.96179
2992.39128	0.96148
2990.33747	0.96135
2988.28367	0.96127
2986.22987	0.96101
2984.17606	0.96068
2982.12226	0.96016
2980.06846	0.95936
2978.01465	0.95823
2975.96085	0.95652
2973.90705	0.95411
2971.85324	0.95101
2969.79944	0.94719
2967.74564	0.94255
2965.69183	0.93707
2963.63803	0.93142
2961.58423	0.92706
2959.53042	0.92471
2957.47662	0.92369
2955.42282	0.92256
2953.36901	0.92018
2951.31521	0.91720
2949.26141	0.91621
2947.20761	0.91909
2945.15380	0.92491
2943.10000	0.93106
2941.04620	0.93560
2938.99239	0.93840
2936.93859	0.93946
2934.88479	0.93814
2932.83098	0.93481
2930.77718	0.93026
2928.72338	0.92478
2926.66957	0.91925
2924.61577	0.91445
2922.56197	0.91009
2920.50816	0.90602
2918.45436	0.90312
2916.40056	0.90300
2914.34675	0.90624
2912.29295	0.91148
2910.23915	0.91653
2908.18534	0.92019
2906.13154	0.92302
2904.07774	0.92610
2902.02393	0.92944
2899.97013	0.93228
2897.91633	0.93469
2895.86252	0.93723
2893.80872	0.93947
2891.75492	0.94064
2889.70112	0.94077
2887.64731	0.94049
2885.59351	0.93999
2883.53971	0.93913
2881.48590	0.93797
2879.43210	0.93693
2877.37830	0.93647
2875.32449	0.93670
2873.27069	0.93708
2871.21689	0.93696
2869.16308	0.93622
2867.10928	0.93546
2865.05548	0.93614
2863.00167	0.93901
2860.94787	0.94302
2858.89407	0.94685
2856.84026	0.94980
2854.78646	0.95124
2852.73266	0.95159
2850.67885	0.95146
2848.62505	0.95037
2846.57125	0.94815
2844.51744	0.94518
2842.46364	0.94166
2840.40984	0.93823
2838.35603	0.93606
2836.30223	0.93639
2834.24843	0.93963
2832.19463	0.94429
2830.14082	0.94853
2828.08702	0.95190
2826.03322	0.95447
2823.97941	0.95611
2821.92561	0.95716
2819.87181	0.95815
2817.81800	0.95909
2815.76420	0.95985
2813.71040	0.96031
2811.65659	0.96071
2809.60279	0.96139
2807.54899	0.96196
2805.49518	0.96216
2803.44138	0.96220
2801.38758	0.96244
2799.33377	0.96274
2797.27997	0.96282
2795.22617	0.96307
2793.17236	0.96370
2791.11856	0.96417
2789.06476	0.96421
2787.01095	0.96435
2784.95715	0.96479
2782.90335	0.96517
2780.84955	0.96538
2778.79574	0.96555
2776.74194	0.96578
2774.68814	0.96583
2772.63433	0.96580
2770.58053	0.96604
2768.52673	0.96637
2766.47292	0.96655
2764.41912	0.96658
2762.36532	0.96646
2760.31151	0.96634
2758.25771	0.96645
2756.20391	0.96664
2754.15010	0.96685
2752.09630	0.96721
2750.04250	0.96742
2747.98869	0.96715
2745.93489	0.96675
2743.88109	0.96677
2741.82728	0.96709
2739.77348	0.96728
2737.71968	0.96728
2735.66587	0.96717
2733.61207	0.96701
2731.55827	0.96679
2729.50446	0.96663
2727.45066	0.96665
2725.39686	0.96672
2723.34306	0.96676
2721.28925	0.96682
2719.23545	0.96703
2717.18165	0.96733
2715.12784	0.96734
2713.07404	0.96715
2711.02024	0.96717
2708.96643	0.96727
2706.91263	0.96728
2704.85883	0.96744
2702.80502	0.96792
2700.75122	0.96849
2698.69742	0.96871
2696.64361	0.96857
2694.58981	0.96862
2692.53601	0.96890
2690.48220	0.96893
2688.42840	0.96877
2686.37460	0.96882
2684.32079	0.96899
2682.26699	0.96887
2680.21319	0.96843
2678.15938	0.96800
2676.10558	0.96801
2674.05178	0.96844
2671.99797	0.96891
2669.94417	0.96921
2667.89037	0.96941
2665.83657	0.96939
2663.78276	0.96913
2661.72896	0.96889
2659.67516	0.96882
2657.62135	0.96893
2655.56755	0.96904
2653.51375	0.96891
2651.45994	0.96872
2649.40614	0.96879
2647.35234	0.96910
2645.29853	0.96946
2643.24473	0.96982
2641.19093	0.96993
2639.13712	0.96966
2637.08332	0.96951
2635.02952	0.96964
2632.97571	0.97000
2630.92191	0.97040
2628.86811	0.97031
2626.81430	0.96998
2624.76050	0.97003
2622.70670	0.97026
2620.65289	0.97006
2618.59909	0.96946
2616.54529	0.96977
2614.49149	0.97100
2612.43768	0.97131
2610.38388	0.97075
2608.33008	0.97061
2606.27627	0.97065
2604.22247	0.97034
2602.16867	0.97023
2600.11486	0.97044
2598.06106	0.97023
2596.00726	0.97007
2593.95345	0.97049
2591.89965	0.97072
2589.84585	0.97053
2587.79204	0.97036
2585.73824	0.97054
2583.68444	0.97101
2581.63063	0.97108
2579.57683	0.97080
2577.52303	0.97107
2575.46922	0.97172
2573.41542	0.97206
2571.36162	0.97210
2569.30781	0.97194
2567.25401	0.97176
2565.20021	0.97174
2563.14640	0.97176
2561.09260	0.97156
2559.03880	0.97138
2556.98500	0.97157
2554.93119	0.97174
2552.87739	0.97136
2550.82359	0.97088
2548.76978	0.97083
2546.71598	0.97099
2544.66218	0.97128
2542.60837	0.97159
2540.55457	0.97187
2538.50077	0.97228
2536.44696	0.97251
2534.39316	0.97236
2532.33936	0.97217
2530.28555	0.97221
2528.23175	0.97222
2526.17795	0.97227
2524.12414	0.97264
2522.07034	0.97295
2520.01654	0.97296
2517.96273	0.97303
2515.90893	0.97267
2513.85513	0.97174
2511.80132	0.97161
2509.74752	0.97224
2507.69372	0.97249
2505.63992	0.97237
2503.58611	0.97225
2501.53231	0.97243
2499.47851	0.97280
2497.42470	0.97262
2495.37090	0.97201
2493.31710	0.97191
2491.26329	0.97220
2489.20949	0.97222
2487.15569	0.97202
2485.10188	0.97224
2483.04808	0.97286
2480.99428	0.97292
2478.94047	0.97223
2476.88667	0.97171
2474.83287	0.97195
2472.77906	0.97259
2470.72526	0.97300
2468.67146	0.97300
2466.61765	0.97283
2464.56385	0.97287
2462.51005	0.97278
2460.45624	0.97202
2458.40244	0.97151
2456.34864	0.97210
2454.29483	0.97252
2452.24103	0.97207
2450.18723	0.97207
2448.13343	0.97274
2446.07962	0.97299
2444.02582	0.97301
2441.97202	0.97318
2439.91821	0.97331
2437.86441	0.97321
2435.81061	0.97278
2433.75680	0.97249
2431.70300	0.97272
2429.64920	0.97338
2427.59539	0.97382
2425.54159	0.97319
2423.48779	0.97230
2421.43398	0.97217
2419.38018	0.97245
2417.32638	0.97260
2415.27257	0.97295
2413.21877	0.97358
2411.16497	0.97350
2409.11116	0.97253
2407.05736	0.97203
2405.00356	0.97248
2402.94975	0.97270
2400.89595	0.97236
2398.84215	0.97230
2396.78834	0.97271
2394.73454	0.97301
2392.68074	0.97283
2390.62694	0.97230
2388.57313	0.97210
2386.51933	0.97236
2384.46553	0.97260
2382.41172	0.97280
2380.35792	0.97303
2378.30412	0.97312
2376.25031	0.97330
2374.19651	0.97383
2372.14271	0.97439
2370.08890	0.97443
2368.03510	0.97390
2365.98130	0.97382
2363.92749	0.97378
2361.87369	0.97224
2359.81989	0.97069
2357.76608	0.97125
2355.71228	0.97307
2353.65848	0.97385
2351.60467	0.97306
2349.55087	0.97257
2347.49707	0.97318
2345.44326	0.97377
2343.38946	0.97327
2341.33566	0.97219
2339.28186	0.97184
2337.22805	0.97265
2335.17425	0.97296
2333.12045	0.97226
2331.06664	0.97170
2329.01284	0.97170
2326.95904	0.97187
2324.90523	0.97136
2322.85143	0.97065
2320.79763	0.97061
2318.74382	0.97074
2316.69002	0.97120
2314.63622	0.97227
2312.58241	0.97256
2310.52861	0.97123
2308.47481	0.97003
2306.42100	0.97034
2304.36720	0.97065
2302.31340	0.97033
2300.25959	0.97064
2298.20579	0.97144
2296.15199	0.97169
2294.09818	0.97145
2292.04438	0.97130
2289.99058	0.97122
2287.93677	0.97147
2285.88297	0.97228
2283.82917	0.97314
2281.77537	0.97393
2279.72156	0.97418
2277.66776	0.97356
2275.61396	0.97321
2273.56015	0.97352
2271.50635	0.97358
2269.45255	0.97273
2267.39874	0.97159
2265.34494	0.97140
2263.29114	0.97166
2261.23733	0.97147
2259.18353	0.97093
2257.12973	0.97031
2255.07592	0.97046
2253.02212	0.97134
2250.96832	0.97247
2248.91451	0.97381
2246.86071	0.97470
2244.80691	0.97513
2242.75310	0.97531
2240.69930	0.97449
2238.64550	0.97314
2236.59169	0.97299
2234.53789	0.97389
2232.48409	0.97456
2230.43029	0.97492
2228.37648	0.97521
2226.32268	0.97531
2224.26888	0.97441
2222.21507	0.97275
2220.16127	0.97203
2218.10747	0.97234
2216.05366	0.97277
2213.99986	0.97309
2211.94606	0.97349
2209.89225	0.97424
2207.83845	0.97484
2205.78465	0.97465
2203.73084	0.97414
2201.67704	0.97432
2199.62324	0.97483
2197.56943	0.97421
2195.51563	0.97315
2193.46183	0.97310
2191.40802	0.97359
2189.35422	0.97407
2187.30042	0.97427
2185.24661	0.97305
2183.19281	0.97205
2181.13901	0.97389
2179.08520	0.97598
2177.03140	0.97613
2174.97760	0.97606
2172.92380	0.97665
2170.86999	0.97631
2168.81619	0.97340
2166.76239	0.97045
2164.70858	0.97009
2162.65478	0.96973
2160.60098	0.96867
2158.54717	0.96992
2156.49337	0.97409
2154.43957	0.97796
2152.38576	0.97797
2150.33196	0.97573
2148.27816	0.97496
2146.22435	0.97618
2144.17055	0.97820
2142.11675	0.97932
2140.06294	0.97895
2138.00914	0.97795
2135.95534	0.97653
2133.90153	0.97539
2131.84773	0.97504
2129.79393	0.97437
2127.74012	0.97381
2125.68632	0.97395
2123.63252	0.97428
2121.57871	0.97547
2119.52491	0.97656
2117.47111	0.97582
2115.41731	0.97446
2113.36350	0.97409
2111.30970	0.97454
2109.25590	0.97512
2107.20209	0.97518
2105.14829	0.97389
2103.09449	0.97240
2101.04068	0.97258
2098.98688	0.97315
2096.93308	0.97300
2094.87927	0.97339
2092.82547	0.97439
2090.77167	0.97445
2088.71786	0.97349
2086.66406	0.97281
2084.61026	0.97298
2082.55645	0.97398
2080.50265	0.97482
2078.44885	0.97468
2076.39504	0.97432
2074.34124	0.97415
2072.28744	0.97433
2070.23363	0.97525
2068.17983	0.97612
2066.12603	0.97573
2064.07223	0.97346
2062.01842	0.97118
2059.96462	0.97157
2057.91082	0.97273
2055.85701	0.97262
2053.80321	0.97297
2051.74941	0.97395
2049.69560	0.97524
2047.64180	0.97720
2045.58800	0.97860
2043.53419	0.97928
2041.48039	0.97830
2039.42659	0.97446
2037.37278	0.97113
2035.31898	0.97001
2033.26518	0.96967
2031.21137	0.97115
2029.15757	0.97389
2027.10377	0.97531
2025.04996	0.97466
2022.99616	0.97435
2020.94236	0.97661
2018.88855	0.97816
2016.83475	0.97751
2014.78095	0.97683
2012.72714	0.97551
2010.67334	0.97311
2008.61954	0.97238
2006.56574	0.97394
2004.51193	0.97520
2002.45813	0.97579
2000.40433	0.97638
1998.35052	0.97650
1996.29672	0.97635
1994.24292	0.97671
1992.18911	0.97669
1990.13531	0.97661
1988.08151	0.97679
1986.02770	0.97555
1983.97390	0.97364
1981.92010	0.97341
1979.86629	0.97469
1977.81249	0.97508
1975.75869	0.97510
1973.70488	0.97570
1971.65108	0.97538
1969.59728	0.97471
1967.54347	0.97502
1965.48967	0.97592
1963.43587	0.97635
1961.38206	0.97682
1959.32826	0.97788
1957.27446	0.97847
1955.22066	0.97860
1953.16685	0.97838
1951.11305	0.97712
1949.05925	0.97643
1947.00544	0.97713
1944.95164	0.97782
1942.89784	0.97772
1940.84403	0.97691
1938.79023	0.97629
1936.73643	0.97604
1934.68262	0.97598
1932.62882	0.97628
1930.57502	0.97636
1928.52121	0.97588
1926.46741	0.97513
1924.41361	0.97476
1922.35980	0.97542
1920.30600	0.97594
1918.25220	0.97552
1916.19839	0.97544
1914.14459	0.97644
1912.09079	0.97766
1910.03698	0.97763
1907.98318	0.97629
1905.92938	0.97517
1903.87557	0.97523
1901.82177	0.97596
1899.76797	0.97621
1897.71417	0.97606
1895.66036	0.97622
1893.60656	0.97650
1891.55276	0.97675
1889.49895	0.97690
1887.44515	0.97628
1885.39135	0.97540
1883.33754	0.97497
1881.28374	0.97473
1879.22994	0.97468
1877.17613	0.97472
1875.12233	0.97479
1873.06853	0.97531
1871.01472	0.97617
1868.96092	0.97658
1866.90712	0.97634
1864.85331	0.97598
1862.79951	0.97565
1860.74571	0.97548
1858.69190	0.97548
1856.63810	0.97544
1854.58430	0.97560
1852.53049	0.97600
1850.47669	0.97635
1848.42289	0.97660
1846.36908	0.97642
1844.31528	0.97602
1842.26148	0.97615
1840.20768	0.97618
1838.15387	0.97577
1836.10007	0.97570
1834.04627	0.97599
1831.99246	0.97598
1829.93866	0.97615
1827.88486	0.97681
1825.83105	0.97709
1823.77725	0.97673
1821.72345	0.97620
1819.66964	0.97588
1817.61584	0.97578
1815.56204	0.97559
1813.50823	0.97500
1811.45443	0.97442
1809.40063	0.97453
1807.34682	0.97488
1805.29302	0.97513
1803.23922	0.97543
1801.18541	0.97537
1799.13161	0.97482
1797.07781	0.97411
1795.02400	0.97328
1792.97020	0.97268
1790.91640	0.97265
1788.86260	0.97264
1786.80879	0.97244
1784.75499	0.97227
1782.70119	0.97187
1780.64738	0.97127
1778.59358	0.97101
1776.53978	0.97103
1774.48597	0.97075
1772.43217	0.97011
1770.37837	0.96978
1768.32456	0.96968
1766.27076	0.96942
1764.21696	0.96887
1762.16315	0.96828
1760.10935	0.96824
1758.05555	0.96830
1756.00174	0.96800
1753.94794	0.96772
1751.89414	0.96725
1749.84033	0.96621
1747.78653	0.96506
1745.73273	0.96431
1743.67892	0.96408
1741.62512	0.96428
1739.57132	0.96434
1737.51751	0.96403
1735.46371	0.96381
1733.40991	0.96338
1731.35611	0.96258
1729.30230	0.96192
1727.24850	0.96124
1725.19470	0.96056
1723.14089	0.96017
1721.08709	0.95996
1719.03329	0.95950
1716.97948	0.95851
1714.92568	0.95735
1712.87188	0.95646
1710.81807	0.95582
1708.76427	0.95547
1706.71047	0.95547
1704.65666	0.95550
1702.60286	0.95511
1700.54906	0.95436
1698.49525	0.95431
1696.44145	0.95498
1694.38765	0.95502
1692.33384	0.95451
1690.28004	0.95381
1688.22624	0.95304
1686.17243	0.95235
1684.11863	0.95090
1682.06483	0.94921
1680.01103	0.94827
1677.95722	0.94756
1675.90342	0.94678
1673.84962	0.94589
1671.79581	0.94519
1669.74201	0.94447
1667.68821	0.94358
1665.63440	0.94270
1663.58060	0.94182
1661.52680	0.94091
1659.47299	0.94008
1657.41919	0.93966
1655.36539	0.93964
1653.31158	0.93833
1651.25778	0.93611
1649.20398	0.93543
1647.15017	0.93470
1645.09637	0.93320
1643.04257	0.93199
1640.98876	0.93124
1638.93496	0.93085
1636.88116	0.93072
1634.82735	0.93131
1632.77355	0.93249
1630.71975	0.93353
1628.66594	0.93450
1626.61214	0.93525
1624.55834	0.93568
1622.50454	0.93610
1620.45073	0.93672
1618.39693	0.93771
1616.34313	0.93898
1614.28932	0.94012
1612.23552	0.94115
1610.18172	0.94215
1608.12791	0.94319
1606.07411	0.94435
1604.02031	0.94554
1601.96650	0.94659
1599.91270	0.94749
1597.85890	0.94832
1595.80509	0.94903
1593.75129	0.94957
1591.69749	0.95002
1589.64368	0.95063
1587.58988	0.95124
1585.53608	0.95180
1583.48227	0.95248
1581.42847	0.95303
1579.37467	0.95342
1577.32086	0.95407
1575.26706	0.95476
1573.21326	0.95523
1571.15945	0.95580
1569.10565	0.95614
1567.05185	0.95606
1564.99805	0.95622
1562.94424	0.95682
1560.89044	0.95743
1558.83664	0.95702
1556.78283	0.95663
1554.72903	0.95736
1552.67523	0.95783
1550.62142	0.95791
1548.56762	0.95818
1546.51382	0.95846
1544.46001	0.95863
1542.40621	0.95875
1540.35241	0.95896
1538.29860	0.96008
1536.24480	0.96110
1534.19100	0.96141
1532.13719	0.96144
1530.08339	0.96174
1528.02959	0.96211
1525.97578	0.96259
1523.92198	0.96345
1521.86818	0.96454
1519.81437	0.96491
1517.76057	0.96450
1515.70677	0.96457
1513.65297	0.96531
1511.59916	0.96574
1509.54536	0.96556
1507.49156	0.96509
1505.43775	0.96479
1503.38395	0.96510
1501.33015	0.96567
1499.27634	0.96609
1497.22254	0.96625
1495.16874	0.96654
1493.11493	0.96705
1491.06113	0.96731
1489.00733	0.96686
1486.95352	0.96620
1484.89972	0.96585
1482.84592	0.96544
1480.79211	0.96460
1478.73831	0.96354
1476.68451	0.96232
1474.63070	0.96022
1472.57690	0.95652
1470.52310	0.95216
1468.46929	0.94789
1466.41549	0.94248
1464.36169	0.93596
1462.30788	0.93143
1460.25408	0.92938
1458.20028	0.92764
1456.14648	0.92522
1454.09267	0.92359
1452.03887	0.92283
1449.98507	0.92368
1447.93126	0.92744
1445.87746	0.93325
1443.82366	0.93867
1441.76985	0.94267
1439.71605	0.94504
1437.66225	0.94598
1435.60844	0.94602
1433.55464	0.94699
1431.50084	0.94927
1429.44703	0.95171
1427.39323	0.95310
1425.33943	0.95363
1423.28562	0.95394
1421.23182	0.95429
1419.17802	0.95463
1417.12421	0.95482
1415.07041	0.95502
1413.01661	0.95526
1410.96280	0.95533
1408.90900	0.95525
1406.85520	0.95526
1404.80139	0.95526
1402.74759	0.95536
1400.69379	0.95562
1398.63999	0.95591
1396.58618	0.95624
1394.53238	0.95624
1392.47858	0.95569
1390.42477	0.95500
1388.37097	0.95409
1386.31717	0.95203
1384.26336	0.94795
1382.20956	0.94081
1380.15576	0.92852
1378.10195	0.91230
1376.04815	0.90096
1373.99435	0.90368
1371.94054	0.91653
1369.88674	0.92892
1367.83294	0.93753
1365.77913	0.94210
1363.72533	0.94377
1361.67153	0.94321
1359.61772	0.94200
1357.56392	0.94232
1355.51012	0.94455
1353.45631	0.94770
1351.40251	0.95032
1349.34871	0.95200
1347.29491	0.95349
1345.24110	0.95505
1343.18730	0.95604
1341.13350	0.95620
1339.07969	0.95606
1337.02589	0.95634
1334.97209	0.95671
1332.91828	0.95643
1330.86448	0.95577
1328.81068	0.95561
1326.75687	0.95607
1324.70307	0.95659
1322.64927	0.95687
1320.59546	0.95705
1318.54166	0.95715
1316.48786	0.95720
1314.43405	0.95724
1312.38025	0.95701
1310.32645	0.95662
1308.27264	0.95619
1306.21884	0.95565
1304.16504	0.95530
1302.11123	0.95546
1300.05743	0.95591
1298.00363	0.95622
1295.94982	0.95626
1293.89602	0.95636
1291.84222	0.95654
1289.78842	0.95639
1287.73461	0.95610
1285.68081	0.95606
1283.62701	0.95616
1281.57320	0.95628
1279.51940	0.95627
1277.46560	0.95598
1275.41179	0.95553
1273.35799	0.95505
1271.30419	0.95458
1269.25038	0.95415
1267.19658	0.95377
1265.14278	0.95318
1263.08897	0.95227
1261.03517	0.95119
1258.98137	0.94966
1256.92756	0.94783
1254.87376	0.94672
1252.81996	0.94680
1250.76615	0.94725
1248.71235	0.94720
1246.65855	0.94653
1244.60474	0.94567
1242.55094	0.94519
1240.49714	0.94498
1238.44334	0.94445
1236.38953	0.94362
1234.33573	0.94290
1232.28193	0.94231
1230.22812	0.94164
1228.17432	0.94098
1226.12052	0.94043
1224.06671	0.93987
1222.01291	0.93916
1219.95911	0.93809
1217.90530	0.93707
1215.85150	0.93650
1213.79770	0.93609
1211.74389	0.93552
1209.69009	0.93481
1207.63629	0.93410
1205.58248	0.93336
1203.52868	0.93243
1201.47488	0.93141
1199.42107	0.93028
1197.36727	0.92906
1195.31347	0.92789
1193.25966	0.92659
1191.20586	0.92518
1189.15206	0.92370
1187.09825	0.92182
1185.04445	0.91960
1182.99065	0.91719
1180.93685	0.91493
1178.88304	0.91310
1176.82924	0.91086
1174.77544	0.90723
1172.72163	0.90241
1170.66783	0.89698
1168.61403	0.89204
1166.56022	0.88899
1164.50642	0.88763
1162.45262	0.88694
1160.39881	0.88674
1158.34501	0.88691
1156.29121	0.88674
1154.23740	0.88576
1152.18360	0.88436
1150.12980	0.88311
1148.07599	0.88218
1146.02219	0.88144
1143.96839	0.88066
1141.91458	0.87974
1139.86078	0.87868
1137.80698	0.87758
1135.75317	0.87644
1133.69937	0.87512
1131.64557	0.87373
1129.59176	0.87221
1127.53796	0.87036
1125.48416	0.86827
1123.43036	0.86598
1121.37655	0.86353
1119.32275	0.86111
1117.26895	0.85851
1115.21514	0.85544
1113.16134	0.85232
1111.10754	0.84952
1109.05373	0.84691
1106.99993	0.84419
1104.94613	0.84133
1102.89232	0.83877
1100.83852	0.83703
1098.78472	0.83617
1096.73091	0.83583
1094.67711	0.83570
1092.62331	0.83557
1090.56950	0.83516
1088.51570	0.83465
1086.46190	0.83436
1084.40809	0.83426
1082.35429	0.83413
1080.30049	0.83378
1078.24668	0.83361
1076.19288	0.83385
1074.13908	0.83401
1072.08528	0.83340
1070.03147	0.83208
1067.97767	0.83072
1065.92387	0.82927
1063.87006	0.82710
1061.81626	0.82452
1059.76246	0.82205
1057.70865	0.81955
1055.65485	0.81669
1053.60105	0.81313
1051.54724	0.80935
1049.49344	0.80562
1047.43964	0.80131
1045.38583	0.79674
1043.33203	0.79275
1041.27823	0.78921
1039.22442	0.78579
1037.17062	0.78284
1035.11682	0.78066
1033.06301	0.77924
1031.00921	0.77860
1028.95541	0.77881
1026.90160	0.77974
1024.84780	0.78097
1022.79400	0.78225
1020.74019	0.78331
1018.68639	0.78392
1016.63259	0.78437
1014.57879	0.78454
1012.52498	0.78423
1010.47118	0.78379
1008.41738	0.78345
1006.36357	0.78324
1004.30977	0.78309
1002.25597	0.78234
1000.20216	0.78064
998.14836	0.77993
996.09456	0.78319
994.04075	0.79039
991.98695	0.79835
989.93315	0.80538
987.87934	0.81195
985.82554	0.81793
983.77174	0.82288
981.71793	0.82683
979.66413	0.82957
977.61033	0.83093
975.55652	0.83085
973.50272	0.83028
971.44892	0.83244
969.39511	0.83910
967.34131	0.84747
965.28751	0.85434
963.23371	0.85924
961.17990	0.86306
959.12610	0.86627
957.07230	0.86885
955.01849	0.87094
952.96469	0.87301
950.91089	0.87505
948.85708	0.87669
946.80328	0.87781
944.74948	0.87848
942.69567	0.87888
940.64187	0.87961
938.58807	0.88065
936.53426	0.88164
934.48046	0.88293
932.42666	0.88461
930.37285	0.88609
928.31905	0.88693
926.26525	0.88739
924.21144	0.88782
922.15764	0.88768
920.10384	0.88675
918.05003	0.88579
915.99623	0.88552
913.94243	0.88578
911.88862	0.88598
909.83482	0.88676
907.78102	0.88892
905.72722	0.89136
903.67341	0.89288
901.61961	0.89388
899.56581	0.89548
897.51200	0.89803
895.45820	0.90077
893.40440	0.90315
891.35059	0.90551
889.29679	0.90788
887.24299	0.90967
885.18918	0.91077
883.13538	0.91184
881.08158	0.91286
879.02777	0.91357
876.97397	0.91415
874.92017	0.91465
872.86636	0.91546
870.81256	0.91661
868.75876	0.91745
866.70495	0.91839
864.65115	0.91984
862.59735	0.92098
860.54354	0.92186
858.48974	0.92307
856.43594	0.92380
854.38213	0.92362
852.32833	0.92318
850.27453	0.92295
848.22073	0.92264
846.16692	0.92039
844.11312	0.91418
842.05932	0.90679
840.00551	0.90538
837.95171	0.91063
835.89791	0.91593
833.84410	0.91873
831.79030	0.91994
829.73650	0.91947
827.68269	0.91866
825.62889	0.91928
823.57509	0.92067
821.52128	0.92115
819.46748	0.92014
817.41368	0.91834
815.35987	0.91660
813.30607	0.91468
811.25227	0.91240
809.19846	0.91064
807.14466	0.91002
805.09086	0.90986
803.03705	0.90936
800.98325	0.90889
798.92945	0.90853
796.87565	0.90782
794.82184	0.90710
792.76804	0.90655
790.71424	0.90639
788.66043	0.90699
786.60663	0.90783
784.55283	0.90759
782.49902	0.90584
780.44522	0.90437
778.39142	0.90451
776.33761	0.90542
774.28381	0.90613
772.23001	0.90650
770.17620	0.90674
768.12240	0.90675
766.06860	0.90596
764.01479	0.90478
761.96099	0.90387
759.90719	0.90281
757.85338	0.90166
755.79958	0.90108
753.74578	0.90139
751.69197	0.90227
749.63817	0.90284
747.58437	0.90238
745.53056	0.90124
743.47676	0.90059
741.42296	0.90110
739.36916	0.90213
737.31535	0.90259
735.26155	0.90216
733.20775	0.90123
731.15394	0.90047
729.10014	0.90009
727.04634	0.89991
724.99253	0.89960
722.93873	0.89902
720.88493	0.89873
718.83112	0.89891
716.77732	0.89884
714.72352	0.89876
712.66971	0.89878
710.61591	0.89769
708.56211	0.89542
706.50830	0.89322
704.45450	0.89177
702.40070	0.89072
700.34689	0.88875
698.29309	0.88597
696.23929	0.88438
694.18548	0.88404
692.13168	0.88315
690.07788	0.88211
688.02408	0.88206
685.97027	0.88207
683.91647	0.88170
681.86267	0.88212
679.80886	0.88275
677.75506	0.88164
675.70126	0.87903
673.64745	0.87691
671.59365	0.87627
669.53985	0.87599
667.48604	0.87544
665.43224	0.87591
663.37844	0.87652
661.32463	0.87645
659.27083	0.87596
657.21703	0.87554
655.16322	0.87485
653.10942	0.87370
651.05562	0.87336
649.00181	0.87397
646.94801	0.87389
644.89421	0.87281
642.84040	0.87145
640.78660	0.87039
638.73280	0.87006
636.67899	0.86989
634.62519	0.86891
632.57139	0.86734
630.51759	0.86646
628.46378	0.86627
626.40998	0.86512
624.35618	0.86310
622.30237	0.86210
620.24857	0.86227
618.19477	0.86202
616.14096	0.86057
614.08716	0.85914
612.03336	0.85836
609.97955	0.85675
607.92575	0.85416
605.87195	0.85235
603.81814	0.85079
601.76434	0.84803
599.71054	0.84543
597.65673	0.84537
595.60293	0.84704
593.54913	0.84657
591.49532	0.84385
589.44152	0.84320
587.38772	0.84493
585.33391	0.84554
583.28011	0.84419
581.22631	0.84361
579.17250	0.84466
577.11870	0.84457
575.06490	0.84265
573.01110	0.84135
570.95729	0.84154
568.90349	0.84189
566.84969	0.84109
564.79588	0.83954
562.74208	0.83776
560.68828	0.83486
558.63447	0.83156
556.58067	0.83021
554.52687	0.83036
552.47306	0.82949
550.41926	0.82742
548.36546	0.82525
546.31165	0.82252
544.25785	0.81904
542.20405	0.81535
540.15024	0.81155
538.09644	0.80817
536.04264	0.80525
533.98883	0.80285
531.93503	0.80123
529.88123	0.80045
527.82742	0.80184
525.77362	0.80436
523.71982	0.80560
521.66602	0.80598
519.61221	0.80632
517.55841	0.80787
515.50461	0.81001
513.45080	0.81168
511.39700	0.81371
509.34320	0.81569
507.28939	0.81696
505.23559	0.81761
503.18179	0.81727
501.12798	0.81674
499.07418	0.81678
497.02038	0.81731
494.96657	0.81884
492.91277	0.81981
490.85897	0.81840
488.80516	0.81581
486.75136	0.81335
484.69756	0.80920
482.64375	0.80241
480.58995	0.79673
478.53615	0.79184
476.48234	0.78435
474.42854	0.77513
472.37474	0.76516
470.32093	0.75743
468.26713	0.75453
466.21333	0.75220
464.15953	0.74956
462.10572	0.75066
460.05192	0.75564
457.99812	0.76123
455.94431	0.76517
453.89051	0.76961
451.83671	0.77478
449.78290	0.77647
447.72910	0.77373
445.67530	0.77285
443.62149	0.77868
441.56769	0.78434
439.51389	0.78351
437.46008	0.78020
435.40628	0.77784
433.35248	0.77527
431.29867	0.77147
429.24487	0.76937
427.19107	0.77211
425.13726	0.77672
423.08346	0.77965
421.02966	0.78397
418.97585	0.79375
416.92205	0.79818
414.86825	0.79307
412.81445	0.78953
410.76064	0.79432
408.70684	0.80061
406.65304	0.79893
404.59923	0.79564
402.54543	0.80036
400.49163	0.81141
398.43782	0.81778
