3996.70104	0.98179
3994.64724	0.98154
3992.59344	0.98146
3990.53964	0.98189
3988.48583	0.98209
3986.43203	0.98188
3984.37823	0.98173
3982.32442	0.98161
3980.27062	0.98145
3978.21682	0.98153
3976.16301	0.98171
3974.10921	0.98161
3972.05541	0.98161
3970.00160	0.98174
3967.94780	0.98171
3965.89400	0.98191
3963.84019	0.98231
3961.78639	0.98255
3959.73259	0.98243
3957.67878	0.98172
3955.62498	0.98089
3953.57118	0.98093
3951.51737	0.98174
3949.46357	0.98210
3947.40977	0.98163
3945.35596	0.98104
3943.30216	0.98064
3941.24836	0.98055
3939.19455	0.98096
3937.14075	0.98178
3935.08695	0.98240
3933.03315	0.98210
3930.97934	0.98127
3928.92554	0.98114
3926.87174	0.98156
3924.81793	0.98144
3922.76413	0.98061
3920.71033	0.98011
3918.65652	0.98044
3916.60272	0.98126
3914.54892	0.98175
3912.49511	0.98185
3910.44131	0.98206
3908.38751	0.98219
3906.33370	0.98192
3904.27990	0.98171
3902.22610	0.98196
3900.17229	0.98199
3898.11849	0.98197
3896.06469	0.98224
3894.01088	0.98233
3891.95708	0.98253
3889.90328	0.98305
3887.84947	0.98305
3885.79567	0.98247
3883.74187	0.98213
3881.68807	0.98220
3879.63426	0.98226
3877.58046	0.98253
3875.52666	0.98283
3873.47285	0.98253
3871.41905	0.98223
3869.36525	0.98223
3867.31144	0.98166
3865.25764	0.98125
3863.20384	0.98179
3861.15003	0.98245
3859.09623	0.98231
3857.04243	0.98170
3854.98862	0.98164
3852.93482	0.98251
3850.88102	0.98256
3848.82721	0.98180
3846.77341	0.98130
3844.71961	0.98120
3842.66580	0.98130
3840.61200	0.98160
3838.55820	0.98177
3836.50439	0.98184
3834.45059	0.98197
3832.39679	0.98182
3830.34298	0.98141
3828.28918	0.98141
3826.23538	0.98214
3824.18158	0.98294
3822.12777	0.98300
3820.07397	0.98226
3818.02017	0.98129
3815.96636	0.98043
3813.91256	0.98084
3811.85876	0.98200
3809.80495	0.98247
3807.75115	0.98204
3805.69735	0.98147
3803.64354	0.98158
3801.58974	0.98229
3799.53594	0.98310
3797.48213	0.98337
3795.42833	0.98308
3793.37453	0.98274
3791.32072	0.98238
3789.26692	0.98191
3787.21312	0.98151
3785.15931	0.98144
3783.10551	0.98142
3781.05171	0.98120
3778.99790	0.98162
3776.94410	0.98261
3774.89030	0.98284
3772.83650	0.98243
3770.78269	0.98213
3768.72889	0.98222
3766.67509	0.98258
3764.62128	0.98278
3762.56748	0.98273
3760.51368	0.98273
3758.45987	0.98263
3756.40607	0.98229
3754.35227	0.98258
3752.29846	0.98338
3750.24466	0.98303
3748.19086	0.98258
3746.13705	0.98335
3744.08325	0.98415
3742.02945	0.98395
3739.97564	0.98329
3737.92184	0.98221
3735.86804	0.98129
3733.81423	0.98164
3731.76043	0.98254
3729.70663	0.98316
3727.65282	0.98314
3725.59902	0.98285
3723.54522	0.98316
3721.49141	0.98363
3719.43761	0.98353
3717.38381	0.98311
3715.33001	0.98221
3713.27620	0.98036
3711.22240	0.97910
3709.16860	0.98027
3707.11479	0.98139
3705.06099	0.98135
3703.00719	0.98133
3700.95338	0.98171
3698.89958	0.98188
3696.84578	0.98174
3694.79197	0.98154
3692.73817	0.98182
3690.68437	0.98269
3688.63056	0.98290
3686.57676	0.98228
3684.52296	0.98191
3682.46915	0.98161
3680.41535	0.98123
3678.36155	0.98098
3676.30774	0.98073
3674.25394	0.98043
3672.20014	0.98073
3670.14633	0.98154
3668.09253	0.98165
3666.03873	0.98147
3663.98492	0.98188
3661.93112	0.98200
3659.87732	0.98129
3657.82352	0.98036
3655.76971	0.97944
3653.71591	0.97910
3651.66211	0.97957
3649.60830	0.97985
3647.55450	0.97982
3645.50070	0.98009
3643.44689	0.97996
3641.39309	0.97977
3639.33929	0.97975
3637.28548	0.97918
3635.23168	0.97832
3633.17788	0.97814
3631.12407	0.97857
3629.07027	0.97872
3627.01647	0.97827
3624.96266	0.97781
3622.90886	0.97789
3620.85506	0.97835
3618.80125	0.97809
3616.74745	0.97727
3614.69365	0.97693
3612.63984	0.97685
3610.58604	0.97666
3608.53224	0.97625
3606.47844	0.97563
3604.42463	0.97527
3602.37083	0.97525
3600.31703	0.97519
3598.26322	0.97507
3596.20942	0.97472
3594.15562	0.97441
3592.10181	0.97518
3590.04801	0.97633
3587.99421	0.97627
3585.94040	0.97485
3583.88660	0.97395
3581.83280	0.97399
3579.77899	0.97385
3577.72519	0.97332
3575.67139	0.97317
3573.61758	0.97336
3571.56378	0.97336
3569.50998	0.97307
3567.45617	0.97235
3565.40237	0.97150
3563.34857	0.97139
3561.29476	0.97169
3559.24096	0.97162
3557.18716	0.97133
3555.13335	0.97128
3553.07955	0.97122
3551.02575	0.97106
3548.97195	0.97109
3546.91814	0.97136
3544.86434	0.97169
3542.81054	0.97141
3540.75673	0.97038
3538.70293	0.96954
3536.64913	0.96922
3534.59532	0.96892
3532.54152	0.96880
3530.48772	0.96927
3528.43391	0.97001
3526.38011	0.97010
3524.32631	0.96970
3522.27250	0.96955
3520.21870	0.96966
3518.16490	0.97008
3516.11109	0.97034
3514.05729	0.97001
3512.00349	0.96943
3509.94968	0.96874
3507.89588	0.96822
3505.84208	0.96829
3503.78827	0.96852
3501.73447	0.96850
3499.68067	0.96884
3497.62687	0.96937
3495.57306	0.96922
3493.51926	0.96864
3491.46546	0.96814
3489.41165	0.96781
3487.35785	0.96786
3485.30405	0.96818
3483.25024	0.96841
3481.19644	0.96855
3479.14264	0.96829
3477.08883	0.96742
3475.03503	0.96683
3472.98123	0.96684
3470.92742	0.96687
3468.87362	0.96685
3466.81982	0.96711
3464.76601	0.96744
3462.71221	0.96724
3460.65841	0.96647
3458.60460	0.96596
3456.55080	0.96604
3454.49700	0.96591
3452.44319	0.96545
3450.38939	0.96547
3448.33559	0.96610
3446.28178	0.96665
3444.22798	0.96651
3442.17418	0.96593
3440.12038	0.96555
3438.06657	0.96555
3436.01277	0.96552
3433.95897	0.96522
3431.90516	0.96492
3429.85136	0.96496
3427.79756	0.96521
3425.74375	0.96545
3423.68995	0.96556
3421.63615	0.96543
3419.58234	0.96493
3417.52854	0.96421
3415.47474	0.96378
3413.42093	0.96354
3411.36713	0.96338
3409.31333	0.96325
3407.25952	0.96307
3405.20572	0.96305
3403.15192	0.96324
3401.09811	0.96363
3399.04431	0.96386
3396.99051	0.96396
3394.93670	0.96410
3392.88290	0.96424
3390.82910	0.96416
3388.77529	0.96381
3386.72149	0.96349
3384.66769	0.96334
3382.61389	0.96364
3380.56008	0.96406
3378.50628	0.96390
3376.45248	0.96367
3374.39867	0.96411
3372.34487	0.96470
3370.29107	0.96447
3368.23726	0.96382
3366.18346	0.96343
3364.12966	0.96328
3362.07585	0.96341
3360.02205	0.96350
3357.96825	0.96331
3355.91444	0.96344
3353.86064	0.96380
3351.80684	0.96391
3349.75303	0.96377
3347.69923	0.96333
3345.64543	0.96306
3343.59162	0.96345
3341.53782	0.96393
3339.48402	0.96399
3337.43021	0.96399
3335.37641	0.96400
3333.32261	0.96390
3331.26881	0.96381
3329.21500	0.96381
3327.16120	0.96371
3325.10740	0.96343
3323.05359	0.96338
3320.99979	0.96365
3318.94599	0.96394
3316.89218	0.96414
3314.83838	0.96443
3312.78458	0.96481
3310.73077	0.96499
3308.67697	0.96469
3306.62317	0.96401
3304.56936	0.96398
3302.51556	0.96468
3300.46176	0.96481
3298.40795	0.96417
3296.35415	0.96378
3294.30035	0.96413
3292.24654	0.96478
3290.19274	0.96524
3288.13894	0.96497
3286.08513	0.96421
3284.03133	0.96422
3281.97753	0.96490
3279.92372	0.96512
3277.86992	0.96469
3275.81612	0.96403
3273.76232	0.96380
3271.70851	0.96412
3269.65471	0.96437
3267.60091	0.96425
3265.54710	0.96389
3263.49330	0.96361
3261.43950	0.96365
3259.38569	0.96366
3257.33189	0.96356
3255.27809	0.96391
3253.22428	0.96449
3251.17048	0.96425
3249.11668	0.96344
3247.06287	0.96316
3245.00907	0.96376
3242.95527	0.96458
3240.90146	0.96481
3238.84766	0.96448
3236.79386	0.96416
3234.74005	0.96434
3232.68625	0.96496
3230.63245	0.96550
3228.57864	0.96550
3226.52484	0.96523
3224.47104	0.96528
3222.41724	0.96525
3220.36343	0.96493
3218.30963	0.96486
3216.25583	0.96503
3214.20202	0.96516
3212.14822	0.96500
3210.09442	0.96479
3208.04061	0.96517
3205.98681	0.96588
3203.93301	0.96600
3201.87920	0.96565
3199.82540	0.96563
3197.77160	0.96591
3195.71779	0.96580
3193.66399	0.96528
3191.61019	0.96502
3189.55638	0.96524
3187.50258	0.96548
3185.44878	0.96565
3183.39497	0.96594
3181.34117	0.96647
3179.28737	0.96694
3177.23356	0.96698
3175.17976	0.96683
3173.12596	0.96690
3171.07215	0.96760
3169.01835	0.96833
3166.96455	0.96808
3164.91075	0.96733
3162.85694	0.96692
3160.80314	0.96712
3158.74934	0.96763
3156.69553	0.96807
3154.64173	0.96838
3152.58793	0.96844
3150.53412	0.96825
3148.48032	0.96801
3146.42652	0.96787
3144.37271	0.96787
3142.31891	0.96779
3140.26511	0.96781
3138.21130	0.96823
3136.15750	0.96853
3134.10370	0.96842
3132.04989	0.96865
3129.99609	0.96927
3127.94229	0.96922
3125.88848	0.96880
3123.83468	0.96879
3121.78088	0.96884
3119.72707	0.96869
3117.67327	0.96862
3115.61947	0.96866
3113.56566	0.96866
3111.51186	0.96868
3109.45806	0.96870
3107.40426	0.96897
3105.35045	0.96945
3103.29665	0.96950
3101.24285	0.96932
3099.18904	0.96942
3097.13524	0.96967
3095.08144	0.96962
3093.02763	0.96926
3090.97383	0.96922
3088.92003	0.96958
3086.86622	0.96995
3084.81242	0.97011
3082.75862	0.97011
3080.70481	0.97022
3078.65101	0.97041
3076.59721	0.97037
3074.54340	0.97013
3072.48960	0.96993
3070.43580	0.96996
3068.38199	0.96995
3066.32819	0.96979
3064.27439	0.97007
3062.22058	0.97067
3060.16678	0.97100
3058.11298	0.97110
3056.05918	0.97098
3054.00537	0.97088
3051.95157	0.97120
3049.89777	0.97147
3047.84396	0.97153
3045.79016	0.97176
3043.73636	0.97187
3041.68255	0.97167
3039.62875	0.97164
3037.57495	0.97199
3035.52114	0.97218
3033.46734	0.97189
3031.41354	0.97173
3029.35973	0.97211
3027.30593	0.97244
3025.25213	0.97223
3023.19832	0.97186
3021.14452	0.97187
3019.09072	0.97212
3017.03691	0.97242
3014.98311	0.97272
3012.92931	0.97271
3010.87550	0.97247
3008.82170	0.97235
3006.76790	0.97220
3004.71409	0.97198
3002.66029	0.97203
3000.60649	0.97250
2998.55269	0.97297
2996.49888	0.97291
2994.44508	0.97267
2992.39128	0.97263
2990.33747	0.97254
2988.28367	0.97234
2986.22987	0.97237
2984.17606	0.97256
2982.12226	0.97242
2980.06846	0.97210
2978.01465	0.97211
2975.96085	0.97244
2973.90705	0.97269
2971.85324	0.97269
2969.79944	0.97275
2967.74564	0.97287
2965.69183	0.97278
2963.63803	0.97265
2961.58423	0.97258
2959.53042	0.97265
2957.47662	0.97302
2955.42282	0.97316
2953.36901	0.97272
2951.31521	0.97229
2949.26141	0.97248
2947.20761	0.97316
2945.15380	0.97356
2943.10000	0.97340
2941.04620	0.97293
2938.99239	0.97243
2936.93859	0.97211
2934.88479	0.97199
2932.83098	0.97217
2930.77718	0.97251
2928.72338	0.97261
2926.66957	0.97244
2924.61577	0.97227
2922.56197	0.97180
2920.50816	0.97097
2918.45436	0.97040
2916.40056	0.97036
2914.34675	0.97070
2912.29295	0.97131
2910.23915	0.97207
2908.18534	0.97282
2906.13154	0.97322
2904.07774	0.97332
2902.02393	0.97342
2899.97013	0.97360
2897.91633	0.97373
2895.86252	0.97360
2893.80872	0.97332
2891.75492	0.97304
2889.70112	0.97287
2887.64731	0.97289
2885.59351	0.97287
2883.53971	0.97285
2881.48590	0.97301
2879.43210	0.97316
2877.37830	0.97329
2875.32449	0.97349
2873.27069	0.97357
2871.21689	0.97353
2869.16308	0.97345
2867.10928	0.97332
2865.05548	0.97332
2863.00167	0.97357
2860.94787	0.97401
2858.89407	0.97458
2856.84026	0.97487
2854.78646	0.97460
2852.73266	0.97392
2850.67885	0.97326
2848.62505	0.97316
2846.57125	0.97355
2844.51744	0.97383
2842.46364	0.97390
2840.40984	0.97410
2838.35603	0.97460
2836.30223	0.97509
2834.24843	0.97522
2832.19463	0.97533
2830.14082	0.97564
2828.08702	0.97589
2826.03322	0.97613
2823.97941	0.97626
2821.92561	0.97609
2819.87181	0.97559
2817.81800	0.97513
2815.76420	0.97539
2813.71040	0.97600
2811.65659	0.97632
2809.60279	0.97653
2807.54899	0.97670
2805.49518	0.97665
2803.44138	0.97656
2801.38758	0.97656
2799.33377	0.97641
2797.27997	0.97635
2795.22617	0.97667
2793.17236	0.97695
2791.11856	0.97691
2789.06476	0.97680
2787.01095	0.97677
2784.95715	0.97665
2782.90335	0.97648
2780.84955	0.97672
2778.79574	0.97712
2776.74194	0.97731
2774.68814	0.97750
2772.63433	0.97754
2770.58053	0.97728
2768.52673	0.97717
2766.47292	0.97741
2764.41912	0.97775
2762.36532	0.97797
2760.31151	0.97794
2758.25771	0.97789
2756.20391	0.97813
2754.15010	0.97826
2752.09630	0.97821
2750.04250	0.97823
2747.98869	0.97813
2745.93489	0.97802
2743.88109	0.97811
2741.82728	0.97814
2739.77348	0.97813
2737.71968	0.97815
2735.66587	0.97816
2733.61207	0.97823
2731.55827	0.97818
2729.50446	0.97800
2727.45066	0.97788
2725.39686	0.97810
2723.34306	0.97850
2721.28925	0.97853
2719.23545	0.97820
2717.18165	0.97805
2715.12784	0.97830
2713.07404	0.97859
2711.02024	0.97873
2708.96643	0.97872
2706.91263	0.97870
2704.85883	0.97889
2702.80502	0.97907
2700.75122	0.97911
2698.69742	0.97908
2696.64361	0.97894
2694.58981	0.97882
2692.53601	0.97857
2690.48220	0.97823
2688.42840	0.97822
2686.37460	0.97846
2684.32079	0.97853
2682.26699	0.97851
2680.21319	0.97863
2678.15938	0.97875
2676.10558	0.97884
2674.05178	0.97891
2671.99797	0.97895
2669.94417	0.97912
2667.89037	0.97917
2665.83657	0.97888
2663.78276	0.97861
2661.72896	0.97853
2659.67516	0.97867
2657.62135	0.97875
2655.56755	0.97853
2653.51375	0.97845
2651.45994	0.97870
2649.40614	0.97891
2647.35234	0.97890
2645.29853	0.97903
2643.24473	0.97931
2641.19093	0.97935
2639.13712	0.97936
2637.08332	0.97925
2635.02952	0.97869
2632.97571	0.97834
2630.92191	0.97869
2628.86811	0.97907
2626.81430	0.97907
2624.76050	0.97897
2622.70670	0.97891
2620.65289	0.97877
2618.59909	0.97860
2616.54529	0.97837
2614.49149	0.97815
2612.43768	0.97805
2610.38388	0.97809
2608.33008	0.97823
2606.27627	0.97840
2604.22247	0.97860
2602.16867	0.97876
2600.11486	0.97884
2598.06106	0.97906
2596.00726	0.97960
2593.95345	0.98024
2591.89965	0.98039
2589.84585	0.97999
2587.79204	0.97969
2585.73824	0.97967
2583.68444	0.97964
2581.63063	0.97950
2579.57683	0.97902
2577.52303	0.97829
2575.46922	0.97799
2573.41542	0.97835
2571.36162	0.97922
2569.30781	0.98002
2567.25401	0.97993
2565.20021	0.97940
2563.14640	0.97931
2561.09260	0.97942
2559.03880	0.97946
2556.98500	0.97953
2554.93119	0.97953
2552.87739	0.97918
2550.82359	0.97843
2548.76978	0.97780
2546.71598	0.97788
2544.66218	0.97839
2542.60837	0.97861
2540.55457	0.97850
2538.50077	0.97842
2536.44696	0.97821
2534.39316	0.97745
2532.33936	0.97638
2530.28555	0.97605
2528.23175	0.97652
2526.17795	0.97684
2524.12414	0.97691
2522.07034	0.97704
2520.01654	0.97702
2517.96273	0.97696
2515.90893	0.97732
2513.85513	0.97763
2511.80132	0.97736
2509.74752	0.97688
2507.69372	0.97660
2505.63992	0.97643
2503.58611	0.97630
2501.53231	0.97617
2499.47851	0.97636
2497.42470	0.97691
2495.37090	0.97714
2493.31710	0.97721
2491.26329	0.97759
2489.20949	0.97833
2487.15569	0.97893
2485.10188	0.97899
2483.04808	0.97880
2480.99428	0.97869
2478.94047	0.97903
2476.88667	0.97961
2474.83287	0.98006
2472.77906	0.98045
2470.72526	0.98044
2468.67146	0.97993
2466.61765	0.97982
2464.56385	0.98023
2462.51005	0.98052
2460.45624	0.98084
2458.40244	0.98096
2456.34864	0.98034
2454.29483	0.97974
2452.24103	0.98012
2450.18723	0.98098
2448.13343	0.98104
2446.07962	0.98026
2444.02582	0.98016
2441.97202	0.98111
2439.91821	0.98194
2437.86441	0.98198
2435.81061	0.98158
2433.75680	0.98146
2431.70300	0.98187
2429.64920	0.98204
2427.59539	0.98151
2425.54159	0.98119
2423.48779	0.98151
2421.43398	0.98216
2419.38018	0.98301
2417.32638	0.98364
2415.27257	0.98361
2413.21877	0.98306
2411.16497	0.98244
2409.11116	0.98219
2407.05736	0.98228
2405.00356	0.98257
2402.94975	0.98307
2400.89595	0.98326
2398.84215	0.98295
2396.78834	0.98273
2394.73454	0.98269
2392.68074	0.98284
2390.62694	0.98333
2388.57313	0.98354
2386.51933	0.98317
2384.46553	0.98285
2382.41172	0.98291
2380.35792	0.98330
2378.30412	0.98355
2376.25031	0.98323
2374.19651	0.98232
2372.14271	0.98143
2370.08890	0.98133
2368.03510	0.98139
2365.98130	0.98143
2363.92749	0.98157
2361.87369	0.98164
2359.81989	0.98260
2357.76608	0.98398
2355.71228	0.98367
2353.65848	0.98198
2351.60467	0.98098
2349.55087	0.98064
2347.49707	0.98021
2345.44326	0.98033
2343.38946	0.98138
2341.33566	0.98187
2339.28186	0.98161
2337.22805	0.98181
2335.17425	0.98207
2333.12045	0.98130
2331.06664	0.98013
2329.01284	0.97986
2326.95904	0.98045
2324.90523	0.98093
2322.85143	0.98097
2320.79763	0.98145
2318.74382	0.98204
2316.69002	0.98213
2314.63622	0.98234
2312.58241	0.98235
2310.52861	0.98203
2308.47481	0.98227
2306.42100	0.98283
2304.36720	0.98290
2302.31340	0.98226
2300.25959	0.98162
2298.20579	0.98162
2296.15199	0.98178
2294.09818	0.98196
2292.04438	0.98219
2289.99058	0.98198
2287.93677	0.98150
2285.88297	0.98105
2283.82917	0.98098
2281.77537	0.98134
2279.72156	0.98156
2277.66776	0.98160
2275.61396	0.98184
2273.56015	0.98256
2271.50635	0.98310
2269.45255	0.98241
2267.39874	0.98164
2265.34494	0.98169
2263.29114	0.98158
2261.23733	0.98191
2259.18353	0.98253
2257.12973	0.98247
2255.07592	0.98280
2253.02212	0.98325
2250.96832	0.98334
2248.91451	0.98430
2246.86071	0.98552
2244.80691	0.98520
2242.75310	0.98376
2240.69930	0.98318
2238.64550	0.98312
2236.59169	0.98245
2234.53789	0.98257
2232.48409	0.98436
2230.43029	0.98589
2228.37648	0.98540
2226.32268	0.98358
2224.26888	0.98272
2222.21507	0.98428
2220.16127	0.98622
2218.10747	0.98600
2216.05366	0.98464
2213.99986	0.98328
2211.94606	0.98196
2209.89225	0.98267
2207.83845	0.98563
2205.78465	0.98664
2203.73084	0.98544
2201.67704	0.98626
2199.62324	0.98812
2197.56943	0.98776
2195.51563	0.98551
2193.46183	0.98301
2191.40802	0.98161
2189.35422	0.98118
2187.30042	0.98152
2185.24661	0.98217
2183.19281	0.98221
2181.13901	0.98286
2179.08520	0.98479
2177.03140	0.98614
2174.97760	0.98542
2172.92380	0.98416
2170.86999	0.98411
2168.81619	0.98443
2166.76239	0.98403
2164.70858	0.98336
2162.65478	0.98373
2160.60098	0.98634
2158.54717	0.98910
2156.49337	0.98882
2154.43957	0.98747
2152.38576	0.98725
2150.33196	0.98782
2148.27816	0.98759
2146.22435	0.98719
2144.17055	0.98802
2142.11675	0.98806
2140.06294	0.98630
2138.00914	0.98455
2135.95534	0.98377
2133.90153	0.98357
2131.84773	0.98435
2129.79393	0.98590
2127.74012	0.98670
2125.68632	0.98610
2123.63252	0.98492
2121.57871	0.98481
2119.52491	0.98576
2117.47111	0.98607
2115.41731	0.98517
2113.36350	0.98393
2111.30970	0.98343
2109.25590	0.98407
2107.20209	0.98506
2105.14829	0.98537
2103.09449	0.98483
2101.04068	0.98427
2098.98688	0.98445
2096.93308	0.98509
2094.87927	0.98552
2092.82547	0.98590
2090.77167	0.98638
2088.71786	0.98646
2086.66406	0.98626
2084.61026	0.98596
2082.55645	0.98482
2080.50265	0.98258
2078.44885	0.98135
2076.39504	0.98253
2074.34124	0.98436
2072.28744	0.98570
2070.23363	0.98683
2068.17983	0.98729
2066.12603	0.98688
2064.07223	0.98681
2062.01842	0.98704
2059.96462	0.98663
2057.91082	0.98601
2055.85701	0.98540
2053.80321	0.98557
2051.74941	0.98629
2049.69560	0.98538
2047.64180	0.98355
2045.58800	0.98365
2043.53419	0.98516
2041.48039	0.98611
2039.42659	0.98571
2037.37278	0.98439
2035.31898	0.98476
2033.26518	0.98701
2031.21137	0.98636
2029.15757	0.98298
2027.10377	0.98197
2025.04996	0.98376
2022.99616	0.98598
2020.94236	0.98704
2018.88855	0.98657
2016.83475	0.98636
2014.78095	0.98766
2012.72714	0.98929
2010.67334	0.99078
2008.61954	0.99234
2006.56574	0.99181
2004.51193	0.98847
2002.45813	0.98629
2000.40433	0.98669
1998.35052	0.98703
1996.29672	0.98631
1994.24292	0.98443
1992.18911	0.98270
1990.13531	0.98267
1988.08151	0.98341
1986.02770	0.98448
1983.97390	0.98543
1981.92010	0.98600
1979.86629	0.98601
1977.81249	0.98510
1975.75869	0.98537
1973.70488	0.98833
1971.65108	0.99083
1969.59728	0.99072
1967.54347	0.98932
1965.48967	0.98798
1963.43587	0.98771
1961.38206	0.98834
1959.32826	0.98924
1957.27446	0.99061
1955.22066	0.99182
1953.16685	0.99195
1951.11305	0.99114
1949.05925	0.98978
1947.00544	0.98857
1944.95164	0.98779
1942.89784	0.98733
1940.84403	0.98765
1938.79023	0.98828
1936.73643	0.98911
1934.68262	0.99044
1932.62882	0.99063
1930.57502	0.98957
1928.52121	0.98930
1926.46741	0.99001
1924.41361	0.99111
1922.35980	0.99116
1920.30600	0.98969
1918.25220	0.98884
1916.19839	0.98895
1914.14459	0.98874
1912.09079	0.98847
1910.03698	0.98893
1907.98318	0.98973
1905.92938	0.99019
1903.87557	0.98996
1901.82177	0.98890
1899.76797	0.98787
1897.71417	0.98807
1895.66036	0.98897
1893.60656	0.98925
1891.55276	0.98929
1889.49895	0.98954
1887.44515	0.98950
1885.39135	0.98907
1883.33754	0.98886
1881.28374	0.98937
1879.22994	0.98994
1877.17613	0.99013
1875.12233	0.99006
1873.06853	0.98994
1871.01472	0.99026
1868.96092	0.99060
1866.90712	0.99053
1864.85331	0.99065
1862.79951	0.99073
1860.74571	0.99015
1858.69190	0.98901
1856.63810	0.98834
1854.58430	0.98852
1852.53049	0.98880
1850.47669	0.98882
1848.42289	0.98868
1846.36908	0.98840
1844.31528	0.98836
1842.26148	0.98882
1840.20768	0.98950
1838.15387	0.99031
1836.10007	0.99064
1834.04627	0.99012
1831.99246	0.98983
1829.93866	0.99041
1827.88486	0.99023
1825.83105	0.98889
1823.77725	0.98791
1821.72345	0.98747
1819.66964	0.98756
1817.61584	0.98827
1815.56204	0.98834
1813.50823	0.98770
1811.45443	0.98687
1809.40063	0.98564
1807.34682	0.98450
1805.29302	0.98357
1803.23922	0.98249
1801.18541	0.98179
1799.13161	0.98172
1797.07781	0.98180
1795.02400	0.98201
1792.97020	0.98232
1790.91640	0.98267
1788.86260	0.98336
1786.80879	0.98432
1784.75499	0.98516
1782.70119	0.98549
1780.64738	0.98560
1778.59358	0.98620
1776.53978	0.98699
1774.48597	0.98739
1772.43217	0.98765
1770.37837	0.98817
1768.32456	0.98880
1766.27076	0.98919
1764.21696	0.98916
1762.16315	0.98912
1760.10935	0.98931
1758.05555	0.98945
1756.00174	0.98956
1753.94794	0.98962
1751.89414	0.98947
1749.84033	0.98931
1747.78653	0.98947
1745.73273	0.98961
1743.67892	0.98957
1741.62512	0.98953
1739.57132	0.98955
1737.51751	0.98947
1735.46371	0.98916
1733.40991	0.98857
1731.35611	0.98827
1729.30230	0.98854
1727.24850	0.98883
1725.19470	0.98874
1723.14089	0.98861
1721.08709	0.98887
1719.03329	0.98922
1716.97948	0.98900
1714.92568	0.98863
1712.87188	0.98873
1710.81807	0.98892
1708.76427	0.98881
1706.71047	0.98843
1704.65666	0.98827
1702.60286	0.98835
1700.54906	0.98778
1698.49525	0.98687
1696.44145	0.98675
1694.38765	0.98649
1692.33384	0.98591
1690.28004	0.98542
1688.22624	0.98501
1686.17243	0.98439
1684.11863	0.98325
1682.06483	0.98260
1680.01103	0.98297
1677.95722	0.98363
1675.90342	0.98382
1673.84962	0.98302
1671.79581	0.98208
1669.74201	0.98154
1667.68821	0.98137
1665.63440	0.98143
1663.58060	0.98130
1661.52680	0.98070
1659.47299	0.98008
1657.41919	0.97965
1655.36539	0.97931
1653.31158	0.97893
1651.25778	0.97836
1649.20398	0.97783
1647.15017	0.97723
1645.09637	0.97679
1643.04257	0.97665
1640.98876	0.97639
1638.93496	0.97591
1636.88116	0.97529
1634.82735	0.97456
1632.77355	0.97406
1630.71975	0.97368
1628.66594	0.97304
1626.61214	0.97228
1624.55834	0.97160
1622.50454	0.97090
1620.45073	0.97049
1618.39693	0.97025
1616.34313	0.96985
1614.28932	0.96993
1612.23552	0.97043
1610.18172	0.97063
1608.12791	0.97045
1606.07411	0.97007
1604.02031	0.96982
1601.96650	0.96978
1599.91270	0.96971
1597.85890	0.96947
1595.80509	0.96928
1593.75129	0.96941
1591.69749	0.96969
1589.64368	0.96975
1587.58988	0.96957
1585.53608	0.96943
1583.48227	0.96926
1581.42847	0.96913
1579.37467	0.96928
1577.32086	0.96962
1575.26706	0.96990
1573.21326	0.96997
1571.15945	0.96969
1569.10565	0.96898
1567.05185	0.96843
1564.99805	0.96777
1562.94424	0.96666
1560.89044	0.96529
1558.83664	0.96215
1556.78283	0.95803
1554.72903	0.95512
1552.67523	0.95191
1550.62142	0.94803
1548.56762	0.94358
1546.51382	0.93946
1544.46001	0.93562
1542.40621	0.93136
1540.35241	0.92543
1538.29860	0.92039
1536.24480	0.91799
1534.19100	0.91458
1532.13719	0.90989
1530.08339	0.90649
1528.02959	0.90377
1525.97578	0.90096
1523.92198	0.89851
1521.86818	0.89512
1519.81437	0.89081
1517.76057	0.88696
1515.70677	0.88318
1513.65297	0.87998
1511.59916	0.87721
1509.54536	0.87432
1507.49156	0.86868
1505.43775	0.86075
1503.38395	0.85722
1501.33015	0.85498
1499.27634	0.85118
1497.22254	0.84534
1495.16874	0.83958
1493.11493	0.83589
1491.06113	0.83195
1489.00733	0.82623
1486.95352	0.82114
1484.89972	0.81710
1482.84592	0.81287
1480.79211	0.80819
1478.73831	0.80381
1476.68451	0.79961
1474.63070	0.79458
1472.57690	0.78803
1470.52310	0.78279
1468.46929	0.78005
1466.41549	0.77665
1464.36169	0.77144
1462.30788	0.76742
1460.25408	0.76509
1458.20028	0.76083
1456.14648	0.75335
1454.09267	0.74884
1452.03887	0.74658
1449.98507	0.74410
1447.93126	0.74108
1445.87746	0.73815
1443.82366	0.73552
1441.76985	0.73293
1439.71605	0.73056
1437.66225	0.72711
1435.60844	0.72228
1433.55464	0.71939
1431.50084	0.71729
1429.44703	0.71396
1427.39323	0.71029
1425.33943	0.70687
1423.28562	0.70342
1421.23182	0.70027
1419.17802	0.69602
1417.12421	0.69151
1415.07041	0.68913
1413.01661	0.68748
1410.96280	0.68587
1408.90900	0.68486
1406.85520	0.68442
1404.80139	0.68400
1402.74759	0.68432
1400.69379	0.68544
1398.63999	0.68669
1396.58618	0.68821
1394.53238	0.68997
1392.47858	0.69218
1390.42477	0.69494
1388.37097	0.69784
1386.31717	0.70089
1384.26336	0.70445
1382.20956	0.70829
1380.15576	0.71227
1378.10195	0.71641
1376.04815	0.72059
1373.99435	0.72467
1371.94054	0.72877
1369.88674	0.73302
1367.83294	0.73726
1365.77913	0.74132
1363.72533	0.74529
1361.67153	0.74926
1359.61772	0.75326
1357.56392	0.75738
1355.51012	0.76148
1353.45631	0.76549
1351.40251	0.76931
1349.34871	0.77288
1347.29491	0.77652
1345.24110	0.78030
1343.18730	0.78391
1341.13350	0.78740
1339.07969	0.79074
1337.02589	0.79381
1334.97209	0.79701
1332.91828	0.80039
1330.86448	0.80351
1328.81068	0.80618
1326.75687	0.80865
1324.70307	0.81132
1322.64927	0.81411
1320.59546	0.81668
1318.54166	0.81917
1316.48786	0.82177
1314.43405	0.82435
1312.38025	0.82692
1310.32645	0.82939
1308.27264	0.83172
1306.21884	0.83409
1304.16504	0.83643
1302.11123	0.83857
1300.05743	0.84061
1298.00363	0.84274
1295.94982	0.84483
1293.89602	0.84684
1291.84222	0.84885
1289.78842	0.85082
1287.73461	0.85277
1285.68081	0.85458
1283.62701	0.85609
1281.57320	0.85741
1279.51940	0.85879
1277.46560	0.86032
1275.41179	0.86175
1273.35799	0.86312
1271.30419	0.86458
1269.25038	0.86591
1267.19658	0.86726
1265.14278	0.86907
1263.08897	0.87116
1261.03517	0.87294
1258.98137	0.87417
1256.92756	0.87527
1254.87376	0.87669
1252.81996	0.87823
1250.76615	0.87938
1248.71235	0.88018
1246.65855	0.88108
1244.60474	0.88245
1242.55094	0.88395
1240.49714	0.88491
1238.44334	0.88558
1236.38953	0.88666
1234.33573	0.88784
1232.28193	0.88857
1230.22812	0.88894
1228.17432	0.88937
1226.12052	0.89003
1224.06671	0.89064
1222.01291	0.89109
1219.95911	0.89121
1217.90530	0.89099
1215.85150	0.89093
1213.79770	0.89119
1211.74389	0.89139
1209.69009	0.89131
1207.63629	0.89107
1205.58248	0.89077
1203.52868	0.89020
1201.47488	0.88916
1199.42107	0.88775
1197.36727	0.88622
1195.31347	0.88471
1193.25966	0.88332
1191.20586	0.88172
1189.15206	0.87979
1187.09825	0.87791
1185.04445	0.87602
1182.99065	0.87382
1180.93685	0.87134
1178.88304	0.86886
1176.82924	0.86649
1174.77544	0.86425
1172.72163	0.86242
1170.66783	0.86096
1168.61403	0.85934
1166.56022	0.85761
1164.50642	0.85611
1162.45262	0.85482
1160.39881	0.85379
1158.34501	0.85276
1156.29121	0.85158
1154.23740	0.85055
1152.18360	0.84984
1150.12980	0.84934
1148.07599	0.84883
1146.02219	0.84837
1143.96839	0.84826
1141.91458	0.84816
1139.86078	0.84766
1137.80698	0.84719
1135.75317	0.84711
1133.69937	0.84706
1131.64557	0.84693
1129.59176	0.84711
1127.53796	0.84754
1125.48416	0.84786
1123.43036	0.84792
1121.37655	0.84796
1119.32275	0.84801
1117.26895	0.84784
1115.21514	0.84784
1113.16134	0.84837
1111.10754	0.84927
1109.05373	0.85014
1106.99993	0.85069
1104.94613	0.85086
1102.89232	0.85089
1100.83852	0.85126
1098.78472	0.85195
1096.73091	0.85278
1094.67711	0.85361
1092.62331	0.85418
1090.56950	0.85450
1088.51570	0.85451
1086.46190	0.85434
1084.40809	0.85495
1082.35429	0.85656
1080.30049	0.85848
1078.24668	0.86060
1076.19288	0.86278
1074.13908	0.86491
1072.08528	0.86706
1070.03147	0.86903
1067.97767	0.87115
1065.92387	0.87336
1063.87006	0.87522
1061.81626	0.87697
1059.76246	0.87868
1057.70865	0.88001
1055.65485	0.88074
1053.60105	0.88107
1051.54724	0.88135
1049.49344	0.88178
1047.43964	0.88239
1045.38583	0.88298
1043.33203	0.88362
1041.27823	0.88451
1039.22442	0.88532
1037.17062	0.88587
1035.11682	0.88679
1033.06301	0.88793
1031.00921	0.88848
1028.95541	0.88877
1026.90160	0.88930
1024.84780	0.88973
1022.79400	0.89007
1020.74019	0.89057
1018.68639	0.89100
1016.63259	0.89137
1014.57879	0.89191
1012.52498	0.89246
1010.47118	0.89307
1008.41738	0.89374
1006.36357	0.89423
1004.30977	0.89500
1002.25597	0.89631
1000.20216	0.89739
998.14836	0.89811
996.09456	0.89907
994.04075	0.90069
991.98695	0.90246
989.93315	0.90389
987.87934	0.90508
985.82554	0.90639
983.77174	0.90812
981.71793	0.90979
979.66413	0.91103
977.61033	0.91219
975.55652	0.91375
973.50272	0.91545
971.44892	0.91672
969.39511	0.91762
967.34131	0.91823
965.28751	0.91846
963.23371	0.91906
961.17990	0.92040
959.12610	0.92162
957.07230	0.92239
955.01849	0.92325
952.96469	0.92425
950.91089	0.92508
948.85708	0.92580
946.80328	0.92642
944.74948	0.92672
942.69567	0.92695
940.64187	0.92746
938.58807	0.92805
936.53426	0.92866
934.48046	0.92969
932.42666	0.93052
930.37285	0.93063
928.31905	0.93078
926.26525	0.93143
924.21144	0.93241
922.15764	0.93332
920.10384	0.93366
918.05003	0.93394
915.99623	0.93478
913.94243	0.93574
911.88862	0.93644
909.83482	0.93735
907.78102	0.93847
905.72722	0.93911
903.67341	0.93945
901.61961	0.94027
899.56581	0.94132
897.51200	0.94163
895.45820	0.94155
893.40440	0.94181
891.35059	0.94097
889.29679	0.93467
887.24299	0.91699
885.18918	0.88814
883.13538	0.85633
881.08158	0.82659
879.02777	0.79779
876.97397	0.76939
874.92017	0.74181
872.86636	0.71729
870.81256	0.70411
868.75876	0.70967
866.70495	0.73059
864.65115	0.75717
862.59735	0.78269
860.54354	0.80478
858.48974	0.82362
856.43594	0.84031
854.38213	0.85479
852.32833	0.86440
850.27453	0.86672
848.22073	0.86617
846.16692	0.87049
844.11312	0.87932
842.05932	0.88724
840.00551	0.89292
837.95171	0.89725
835.89791	0.90066
833.84410	0.90366
831.79030	0.90603
829.73650	0.90706
827.68269	0.90767
825.62889	0.90918
823.57509	0.91089
821.52128	0.91204
819.46748	0.91310
817.41368	0.91424
815.35987	0.91491
813.30607	0.91535
811.25227	0.91627
809.19846	0.91711
807.14466	0.91698
805.09086	0.91643
803.03705	0.91619
800.98325	0.91571
798.92945	0.91479
796.87565	0.91474
794.82184	0.91588
792.76804	0.91682
790.71424	0.91701
788.66043	0.91695
786.60663	0.91704
784.55283	0.91729
782.49902	0.91744
780.44522	0.91759
778.39142	0.91820
776.33761	0.91882
774.28381	0.91904
772.23001	0.91950
770.17620	0.92038
768.12240	0.92137
766.06860	0.92219
764.01479	0.92239
761.96099	0.92233
759.90719	0.92323
757.85338	0.92455
755.79958	0.92468
753.74578	0.92441
751.69197	0.92469
749.63817	0.92456
747.58437	0.92433
745.53056	0.92541
743.47676	0.92712
741.42296	0.92778
739.36916	0.92741
737.31535	0.92729
735.26155	0.92758
733.20775	0.92782
731.15394	0.92775
729.10014	0.92651
727.04634	0.92343
724.99253	0.91817
722.93873	0.91026
720.88493	0.89949
718.83112	0.88720
716.77732	0.87643
714.72352	0.86986
712.66971	0.86791
710.61591	0.86970
708.56211	0.87499
706.50830	0.88236
704.45450	0.88890
702.40070	0.89339
700.34689	0.89698
698.29309	0.90046
696.23929	0.90293
694.18548	0.90467
692.13168	0.90725
690.07788	0.91008
688.02408	0.91203
685.97027	0.91314
683.91647	0.91386
681.86267	0.91514
679.80886	0.91561
677.75506	0.91426
675.70126	0.91304
673.64745	0.91222
671.59365	0.91131
669.53985	0.91027
667.48604	0.90960
665.43224	0.91008
663.37844	0.91005
661.32463	0.90900
659.27083	0.90801
657.21703	0.90832
655.16322	0.91044
653.10942	0.91276
651.05562	0.91340
649.00181	0.91302
646.94801	0.91310
644.89421	0.91374
642.84040	0.91445
640.78660	0.91490
638.73280	0.91432
636.67899	0.91305
634.62519	0.91297
632.57139	0.91378
630.51759	0.91354
628.46378	0.91261
626.40998	0.91235
624.35618	0.91227
622.30237	0.91138
620.24857	0.91037
618.19477	0.91005
616.14096	0.90918
614.08716	0.90736
612.03336	0.90632
609.97955	0.90590
607.92575	0.90575
605.87195	0.90638
603.81814	0.90623
601.76434	0.90509
599.71054	0.90467
597.65673	0.90476
595.60293	0.90491
593.54913	0.90605
591.49532	0.90877
589.44152	0.91203
587.38772	0.91405
585.33391	0.91556
583.28011	0.91684
581.22631	0.91685
579.17250	0.91718
577.11870	0.91878
575.06490	0.92121
573.01110	0.92365
570.95729	0.92456
568.90349	0.92418
566.84969	0.92356
564.79588	0.92366
562.74208	0.92551
560.68828	0.92800
558.63447	0.92849
556.58067	0.92727
554.52687	0.92646
552.47306	0.92695
550.41926	0.92774
548.36546	0.92683
546.31165	0.92590
544.25785	0.92691
542.20405	0.92803
540.15024	0.92815
538.09644	0.92703
536.04264	0.92473
533.98883	0.92327
531.93503	0.92379
529.88123	0.92503
527.82742	0.92547
525.77362	0.92514
523.71982	0.92545
521.66602	0.92647
519.61221	0.92650
517.55841	0.92500
515.50461	0.92422
513.45080	0.92487
511.39700	0.92540
509.34320	0.92589
507.28939	0.92662
505.23559	0.92703
503.18179	0.92742
501.12798	0.92709
499.07418	0.92448
497.02038	0.92218
494.96657	0.92344
492.91277	0.92662
490.85897	0.92857
488.80516	0.92747
486.75136	0.92478
484.69756	0.92409
482.64375	0.92440
480.58995	0.92359
478.53615	0.92288
476.48234	0.92346
474.42854	0.92561
472.37474	0.92551
470.32093	0.92116
468.26713	0.91851
466.21333	0.91866
464.15953	0.91867
462.10572	0.91755
460.05192	0.91541
457.99812	0.91561
455.94431	0.91815
453.89051	0.91845
451.83671	0.91821
449.78290	0.91854
447.72910	0.91827
445.67530	0.91875
443.62149	0.91859
441.56769	0.91633
439.51389	0.91568
437.46008	0.91617
435.40628	0.91312
433.35248	0.90892
431.29867	0.90684
429.24487	0.90492
427.19107	0.90485
425.13726	0.90848
423.08346	0.91119
421.02966	0.91032
418.97585	0.90753
416.92205	0.90172
414.86825	0.89606
412.81445	0.89318
410.76064	0.89089
408.70684	0.88809
406.65304	0.88625
404.59923	0.88455
402.54543	0.88083
400.49163	0.87502
398.43782	0.86962
