3996.71440	0.93779
3994.66059	0.93800
3992.60678	0.93814
3990.55297	0.93810
3988.49916	0.93796
3986.44535	0.93781
3984.39154	0.93777
3982.33773	0.93793
3980.28391	0.93799
3978.23010	0.93786
3976.17629	0.93769
3974.12248	0.93764
3972.06867	0.93768
3970.01486	0.93753
3967.96105	0.93729
3965.90724	0.93731
3963.85343	0.93741
3961.79962	0.93740
3959.74581	0.93738
3957.69200	0.93746
3955.63819	0.93762
3953.58438	0.93793
3951.53057	0.93833
3949.47676	0.93862
3947.42295	0.93877
3945.36914	0.93874
3943.31533	0.93830
3941.26152	0.93782
3939.20771	0.93789
3937.15390	0.93838
3935.10009	0.93895
3933.04628	0.93922
3930.99247	0.93884
3928.93866	0.93836
3926.88485	0.93836
3924.83104	0.93865
3922.77723	0.93875
3920.72342	0.93850
3918.66961	0.93806
3916.61580	0.93770
3914.56199	0.93785
3912.50818	0.93843
3910.45437	0.93900
3908.40056	0.93950
3906.34675	0.93974
3904.29294	0.93947
3902.23913	0.93898
3900.18532	0.93852
3898.13151	0.93833
3896.07770	0.93895
3894.02389	0.93978
3891.97008	0.93981
3889.91627	0.93954
3887.86246	0.93974
3885.80865	0.93958
3883.75484	0.93920
3881.70103	0.93903
3879.64722	0.93867
3877.59341	0.93894
3875.53960	0.93963
3873.48579	0.93998
3871.43198	0.94004
3869.37817	0.93958
3867.32436	0.93949
3865.27055	0.93987
3863.21674	0.93969
3861.16293	0.93937
3859.10912	0.93959
3857.05531	0.94029
3855.00150	0.94054
3852.94769	0.93945
3850.89388	0.93926
3848.84007	0.93993
3846.78626	0.94031
3844.73245	0.94041
3842.67864	0.94052
3840.62483	0.94083
3838.57102	0.94090
3836.51721	0.94050
3834.46340	0.94011
3832.40959	0.93992
3830.35578	0.94017
3828.30197	0.94069
3826.24816	0.94091
3824.19435	0.94096
3822.14054	0.94074
3820.08673	0.94032
3818.03292	0.94055
3815.97911	0.94056
3813.92530	0.94030
3811.87149	0.94051
3809.81768	0.94095
3807.76387	0.94122
3805.71006	0.94115
3803.65625	0.94114
3801.60244	0.94103
3799.54863	0.94123
3797.49482	0.94175
3795.44101	0.94184
3793.38720	0.94167
3791.33339	0.94162
3789.27958	0.94155
3787.22577	0.94140
3785.17196	0.94135
3783.11815	0.94155
3781.06434	0.94182
3779.01053	0.94180
3776.95672	0.94171
3774.90291	0.94209
3772.84910	0.94287
3770.79529	0.94320
3768.74148	0.94285
3766.68767	0.94262
3764.63386	0.94234
3762.58005	0.94219
3760.52624	0.94224
3758.47243	0.94207
3756.41862	0.94218
3754.36481	0.94258
3752.31100	0.94276
3750.25719	0.94289
3748.20338	0.94363
3746.14957	0.94415
3744.09576	0.94347
3742.04195	0.94333
3739.98814	0.94438
3737.93433	0.94525
3735.88052	0.94513
3733.82671	0.94446
3731.77290	0.94424
3729.71909	0.94442
3727.66528	0.94464
3725.61147	0.94460
3723.55766	0.94426
3721.50385	0.94403
3719.45004	0.94403
3717.39623	0.94423
3715.34242	0.94474
3713.28861	0.94510
3711.23480	0.94463
3709.18099	0.94422
3707.12718	0.94445
3705.07337	0.94453
3703.01956	0.94407
3700.96575	0.94385
3698.91194	0.94449
3696.85813	0.94503
3694.80432	0.94523
3692.75051	0.94561
3690.69670	0.94572
3688.64289	0.94500
3686.58907	0.94459
3684.53526	0.94506
3682.48145	0.94571
3680.42764	0.94609
3678.37383	0.94617
3676.32002	0.94533
3674.26621	0.94388
3672.21240	0.94384
3670.15859	0.94390
3668.10478	0.94335
3666.05097	0.94324
3663.99716	0.94325
3661.94335	0.94339
3659.88954	0.94363
3657.83573	0.94322
3655.78192	0.94239
3653.72811	0.94249
3651.67430	0.94290
3649.62049	0.94182
3647.56668	0.94013
3645.51287	0.93974
3643.45906	0.93985
3641.40525	0.93965
3639.35144	0.93905
3637.29763	0.93856
3635.24382	0.93841
3633.19001	0.93833
3631.13620	0.93806
3629.08239	0.93692
3627.02858	0.93574
3624.97477	0.93572
3622.92096	0.93585
3620.86715	0.93551
3618.81334	0.93481
3616.75953	0.93456
3614.70572	0.93464
3612.65191	0.93440
3610.59810	0.93392
3608.54429	0.93331
3606.49048	0.93298
3604.43667	0.93329
3602.38286	0.93347
3600.32905	0.93304
3598.27524	0.93265
3596.22143	0.93258
3594.16762	0.93225
3592.11381	0.93169
3590.06000	0.93129
3588.00619	0.93079
3585.95238	0.93033
3583.89857	0.93040
3581.84476	0.93055
3579.79095	0.93048
3577.73714	0.93026
3575.68333	0.93010
3573.62952	0.92999
3571.57571	0.92968
3569.52190	0.92920
3567.46809	0.92820
3565.41428	0.92748
3563.36047	0.92781
3561.30666	0.92788
3559.25285	0.92735
3557.19904	0.92701
3555.14523	0.92703
3553.09142	0.92684
3551.03761	0.92631
3548.98380	0.92590
3546.92999	0.92552
3544.87618	0.92497
3542.82237	0.92459
3540.76856	0.92457
3538.71475	0.92481
3536.66094	0.92471
3534.60713	0.92403
3532.55332	0.92356
3530.49951	0.92338
3528.44570	0.92293
3526.39189	0.92223
3524.33808	0.92193
3522.28427	0.92206
3520.23046	0.92202
3518.17665	0.92181
3516.12284	0.92152
3514.06903	0.92106
3512.01522	0.92066
3509.96141	0.92027
3507.90760	0.91993
3505.85379	0.91998
3503.79998	0.92010
3501.74617	0.91987
3499.69236	0.91948
3497.63855	0.91917
3495.58474	0.91879
3493.53093	0.91826
3491.47712	0.91799
3489.42331	0.91791
3487.36950	0.91768
3485.31569	0.91749
3483.26188	0.91727
3481.20807	0.91686
3479.15426	0.91650
3477.10045	0.91638
3475.04664	0.91645
3472.99283	0.91651
3470.93902	0.91642
3468.88521	0.91621
3466.83140	0.91617
3464.77759	0.91629
3462.72378	0.91595
3460.66997	0.91526
3458.61616	0.91476
3456.56235	0.91442
3454.50854	0.91423
3452.45473	0.91422
3450.40092	0.91414
3448.34711	0.91408
3446.29330	0.91415
3444.23949	0.91416
3442.18568	0.91381
3440.13187	0.91335
3438.07806	0.91313
3436.02425	0.91303
3433.97044	0.91283
3431.91663	0.91249
3429.86282	0.91212
3427.80901	0.91193
3425.75520	0.91184
3423.70139	0.91156
3421.64758	0.91124
3419.59377	0.91118
3417.53996	0.91112
3415.48615	0.91108
3413.43234	0.91127
3411.37853	0.91137
3409.32472	0.91112
3407.27091	0.91063
3405.21710	0.91001
3403.16329	0.90955
3401.10948	0.90951
3399.05567	0.90971
3397.00186	0.90987
3394.94805	0.90981
3392.89424	0.90959
3390.84042	0.90940
3388.78661	0.90919
3386.73280	0.90880
3384.67899	0.90841
3382.62518	0.90816
3380.57137	0.90796
3378.51756	0.90792
3376.46375	0.90807
3374.40994	0.90814
3372.35613	0.90794
3370.30232	0.90757
3368.24851	0.90724
3366.19470	0.90715
3364.14089	0.90732
3362.08708	0.90747
3360.03327	0.90742
3357.97946	0.90735
3355.92565	0.90742
3353.87184	0.90755
3351.81803	0.90753
3349.76422	0.90737
3347.71041	0.90710
3345.65660	0.90684
3343.60279	0.90666
3341.54898	0.90653
3339.49517	0.90650
3337.44136	0.90652
3335.38755	0.90635
3333.33374	0.90611
3331.27993	0.90604
3329.22612	0.90618
3327.17231	0.90634
3325.11850	0.90627
3323.06469	0.90615
3321.01088	0.90635
3318.95707	0.90664
3316.90326	0.90660
3314.84945	0.90625
3312.79564	0.90598
3310.74183	0.90589
3308.68802	0.90608
3306.63421	0.90651
3304.58040	0.90669
3302.52659	0.90643
3300.47278	0.90611
3298.41897	0.90604
3296.36516	0.90609
3294.31135	0.90609
3292.25754	0.90617
3290.20373	0.90630
3288.14992	0.90617
3286.09611	0.90596
3284.04230	0.90592
3281.98849	0.90600
3279.93468	0.90611
3277.88087	0.90621
3275.82706	0.90630
3273.77325	0.90640
3271.71944	0.90643
3269.66563	0.90640
3267.61182	0.90654
3265.55801	0.90654
3263.50420	0.90615
3261.45039	0.90585
3259.39658	0.90579
3257.34277	0.90568
3255.28896	0.90574
3253.23515	0.90605
3251.18134	0.90620
3249.12753	0.90602
3247.07372	0.90584
3245.01991	0.90574
3242.96610	0.90548
3240.91229	0.90518
3238.85848	0.90506
3236.80467	0.90522
3234.75086	0.90549
3232.69705	0.90568
3230.64324	0.90573
3228.58943	0.90550
3226.53562	0.90524
3224.48181	0.90533
3222.42800	0.90548
3220.37419	0.90534
3218.32038	0.90520
3216.26657	0.90534
3214.21276	0.90560
3212.15895	0.90562
3210.10514	0.90538
3208.05133	0.90533
3205.99752	0.90556
3203.94371	0.90585
3201.88990	0.90598
3199.83609	0.90581
3197.78228	0.90554
3195.72847	0.90540
3193.67466	0.90536
3191.62085	0.90550
3189.56704	0.90572
3187.51323	0.90587
3185.45942	0.90594
3183.40561	0.90595
3181.35180	0.90582
3179.29799	0.90565
3177.24418	0.90578
3175.19037	0.90607
3173.13656	0.90610
3171.08275	0.90598
3169.02894	0.90586
3166.97513	0.90566
3164.92132	0.90548
3162.86751	0.90554
3160.81370	0.90585
3158.75989	0.90621
3156.70608	0.90644
3154.65227	0.90670
3152.59846	0.90693
3150.54465	0.90689
3148.49084	0.90660
3146.43703	0.90640
3144.38322	0.90656
3142.32941	0.90688
3140.27560	0.90696
3138.22179	0.90692
3136.16798	0.90700
3134.11417	0.90710
3132.06036	0.90711
3130.00655	0.90704
3127.95274	0.90692
3125.89893	0.90695
3123.84512	0.90720
3121.79131	0.90733
3119.73750	0.90724
3117.68369	0.90724
3115.62988	0.90738
3113.57607	0.90753
3111.52226	0.90766
3109.46845	0.90768
3107.41464	0.90763
3105.36083	0.90778
3103.30702	0.90800
3101.25321	0.90784
3099.19940	0.90752
3097.14559	0.90765
3095.09177	0.90810
3093.03796	0.90832
3090.98415	0.90822
3088.93034	0.90821
3086.87653	0.90846
3084.82272	0.90859
3082.76891	0.90854
3080.71510	0.90859
3078.66129	0.90882
3076.60748	0.90906
3074.55367	0.90911
3072.49986	0.90901
3070.44605	0.90889
3068.39224	0.90887
3066.33843	0.90907
3064.28462	0.90932
3062.23081	0.90931
3060.17700	0.90920
3058.12319	0.90932
3056.06938	0.90946
3054.01557	0.90939
3051.96176	0.90948
3049.90795	0.90989
3047.85414	0.91028
3045.80033	0.91048
3043.74652	0.91051
3041.69271	0.91036
3039.63890	0.91020
3037.58509	0.91031
3035.53128	0.91066
3033.47747	0.91094
3031.42366	0.91096
3029.36985	0.91087
3027.31604	0.91086
3025.26223	0.91107
3023.20842	0.91133
3021.15461	0.91139
3019.10080	0.91143
3017.04699	0.91156
3014.99318	0.91168
3012.93937	0.91176
3010.88556	0.91174
3008.83175	0.91162
3006.77794	0.91168
3004.72413	0.91197
3002.67032	0.91220
3000.61651	0.91227
2998.56270	0.91220
2996.50889	0.91214
2994.45508	0.91225
2992.40127	0.91234
2990.34746	0.91227
2988.29365	0.91216
2986.23984	0.91209
2984.18603	0.91209
2982.13222	0.91210
2980.07841	0.91205
2978.02460	0.91195
2975.97079	0.91186
2973.91698	0.91177
2971.86317	0.91169
2969.80936	0.91171
2967.75555	0.91179
2965.70174	0.91179
2963.64793	0.91143
2961.59412	0.91079
2959.54031	0.91036
2957.48650	0.91033
2955.43269	0.91063
2953.37888	0.91100
2951.32507	0.91118
2949.27126	0.91108
2947.21745	0.91078
2945.16364	0.91059
2943.10983	0.91062
2941.05602	0.91060
2939.00221	0.91041
2936.94840	0.91016
2934.89459	0.90982
2932.84078	0.90948
2930.78697	0.90940
2928.73316	0.90967
2926.67935	0.90998
2924.62554	0.90997
2922.57173	0.90988
2920.51792	0.91012
2918.46411	0.91049
2916.41030	0.91066
2914.35649	0.91069
2912.30268	0.91091
2910.24887	0.91137
2908.19506	0.91178
2906.14125	0.91200
2904.08744	0.91207
2902.03363	0.91208
2899.97982	0.91227
2897.92601	0.91256
2895.87220	0.91271
2893.81839	0.91265
2891.76458	0.91259
2889.71077	0.91269
2887.65696	0.91283
2885.60315	0.91314
2883.54934	0.91356
2881.49553	0.91362
2879.44172	0.91342
2877.38791	0.91336
2875.33410	0.91327
2873.28029	0.91306
2871.22648	0.91304
2869.17267	0.91323
2867.11886	0.91342
2865.06505	0.91358
2863.01124	0.91364
2860.95743	0.91358
2858.90362	0.91352
2856.84981	0.91360
2854.79600	0.91370
2852.74219	0.91372
2850.68838	0.91357
2848.63457	0.91339
2846.58076	0.91353
2844.52695	0.91399
2842.47314	0.91460
2840.41933	0.91520
2838.36552	0.91537
2836.31171	0.91515
2834.25790	0.91501
2832.20409	0.91506
2830.15028	0.91517
2828.09647	0.91537
2826.04266	0.91566
2823.98885	0.91584
2821.93504	0.91598
2819.88123	0.91628
2817.82742	0.91664
2815.77361	0.91689
2813.71980	0.91693
2811.66599	0.91677
2809.61218	0.91666
2807.55837	0.91670
2805.50456	0.91680
2803.45075	0.91693
2801.39693	0.91716
2799.34312	0.91742
2797.28931	0.91758
2795.23550	0.91760
2793.18169	0.91754
2791.12788	0.91760
2789.07407	0.91774
2787.02026	0.91771
2784.96645	0.91757
2782.91264	0.91769
2780.85883	0.91797
2778.80502	0.91808
2776.75121	0.91820
2774.69740	0.91841
2772.64359	0.91847
2770.58978	0.91845
2768.53597	0.91846
2766.48216	0.91852
2764.42835	0.91863
2762.37454	0.91858
2760.32073	0.91857
2758.26692	0.91889
2756.21311	0.91923
2754.15930	0.91927
2752.10549	0.91916
2750.05168	0.91906
2747.99787	0.91901
2745.94406	0.91902
2743.89025	0.91904
2741.83644	0.91910
2739.78263	0.91925
2737.72882	0.91936
2735.67501	0.91939
2733.62120	0.91948
2731.56739	0.91964
2729.51358	0.91958
2727.45977	0.91937
2725.40596	0.91943
2723.35215	0.91968
2721.29834	0.91971
2719.24453	0.91953
2717.19072	0.91955
2715.13691	0.91988
2713.08310	0.92016
2711.02929	0.92014
2708.97548	0.92015
2706.92167	0.92023
2704.86786	0.92019
2702.81405	0.92013
2700.76024	0.92024
2698.70643	0.92048
2696.65262	0.92061
2694.59881	0.92050
2692.54500	0.92029
2690.49119	0.92023
2688.43738	0.92039
2686.38357	0.92056
2684.32976	0.92050
2682.27595	0.92042
2680.22214	0.92059
2678.16833	0.92080
2676.11452	0.92084
2674.06071	0.92083
2672.00690	0.92086
2669.95309	0.92102
2667.89928	0.92124
2665.84547	0.92130
2663.79166	0.92111
2661.73785	0.92091
2659.68404	0.92097
2657.63023	0.92120
2655.57642	0.92121
2653.52261	0.92100
2651.46880	0.92105
2649.41499	0.92128
2647.36118	0.92127
2645.30737	0.92107
2643.25356	0.92104
2641.19975	0.92134
2639.14594	0.92161
2637.09213	0.92161
2635.03832	0.92155
2632.98451	0.92166
2630.93070	0.92186
2628.87689	0.92191
2626.82308	0.92199
2624.76927	0.92239
2622.71546	0.92278
2620.66165	0.92292
2618.60784	0.92293
2616.55403	0.92291
2614.50022	0.92283
2612.44641	0.92270
2610.39260	0.92283
2608.33879	0.92324
2606.28498	0.92353
2604.23117	0.92351
2602.17736	0.92344
2600.12355	0.92372
2598.06974	0.92406
2596.01593	0.92400
2593.96212	0.92395
2591.90831	0.92406
2589.85450	0.92397
2587.80069	0.92381
2585.74688	0.92380
2583.69307	0.92384
2581.63926	0.92376
2579.58545	0.92365
2577.53164	0.92388
2575.47783	0.92460
2573.42402	0.92534
2571.37021	0.92549
2569.31640	0.92516
2567.26259	0.92475
2565.20878	0.92444
2563.15497	0.92443
2561.10116	0.92469
2559.04735	0.92476
2556.99354	0.92474
2554.93973	0.92514
2552.88592	0.92570
2550.83211	0.92593
2548.77830	0.92583
2546.72449	0.92546
2544.67068	0.92508
2542.61687	0.92506
2540.56306	0.92506
2538.50925	0.92492
2536.45544	0.92514
2534.40163	0.92568
2532.34782	0.92599
2530.29401	0.92603
2528.24020	0.92610
2526.18639	0.92614
2524.13258	0.92594
2522.07877	0.92578
2520.02496	0.92600
2517.97115	0.92640
2515.91734	0.92644
2513.86353	0.92591
2511.80972	0.92541
2509.75591	0.92567
2507.70210	0.92651
2505.64828	0.92693
2503.59447	0.92667
2501.54066	0.92624
2499.48685	0.92595
2497.43304	0.92615
2495.37923	0.92661
2493.32542	0.92668
2491.27161	0.92655
2489.21780	0.92660
2487.16399	0.92666
2485.11018	0.92679
2483.05637	0.92707
2481.00256	0.92719
2478.94875	0.92717
2476.89494	0.92730
2474.84113	0.92755
2472.78732	0.92778
2470.73351	0.92798
2468.67970	0.92811
2466.62589	0.92820
2464.57208	0.92787
2462.51827	0.92724
2460.46446	0.92720
2458.41065	0.92771
2456.35684	0.92797
2454.30303	0.92772
2452.24922	0.92732
2450.19541	0.92728
2448.14160	0.92771
2446.08779	0.92796
2444.03398	0.92783
2441.98017	0.92778
2439.92636	0.92803
2437.87255	0.92844
2435.81874	0.92856
2433.76493	0.92843
2431.71112	0.92837
2429.65731	0.92817
2427.60350	0.92795
2425.54969	0.92819
2423.49588	0.92865
2421.44207	0.92880
2419.38826	0.92866
2417.33445	0.92858
2415.28064	0.92882
2413.22683	0.92914
2411.17302	0.92899
2409.11921	0.92855
2407.06540	0.92841
2405.01159	0.92856
2402.95778	0.92872
2400.90397	0.92885
2398.85016	0.92912
2396.79635	0.92947
2394.74254	0.92973
2392.68873	0.92996
2390.63492	0.92994
2388.58111	0.92961
2386.52730	0.92950
2384.47349	0.92977
2382.41968	0.92993
2380.36587	0.92971
2378.31206	0.92932
2376.25825	0.92910
2374.20444	0.92931
2372.15063	0.92964
2370.09682	0.92947
2368.04301	0.92926
2365.98920	0.92959
2363.93539	0.93021
2361.88158	0.93039
2359.82777	0.92953
2357.77396	0.92855
2355.72015	0.92837
2353.66634	0.92825
2351.61253	0.92818
2349.55872	0.92889
2347.50491	0.93001
2345.45110	0.93036
2343.39729	0.92962
2341.34348	0.92917
2339.28967	0.92969
2337.23586	0.93032
2335.18205	0.93026
2333.12824	0.92989
2331.07443	0.92951
2329.02062	0.92919
2326.96681	0.92900
2324.91300	0.92877
2322.85919	0.92873
2320.80538	0.92877
2318.75157	0.92842
2316.69776	0.92839
2314.64395	0.92902
2312.59014	0.92929
2310.53633	0.92913
2308.48252	0.92944
2306.42871	0.93003
2304.37490	0.93010
2302.32109	0.92977
2300.26728	0.92960
2298.21347	0.92967
2296.15966	0.92978
2294.10585	0.92989
2292.05204	0.93012
2289.99823	0.93018
2287.94442	0.93000
2285.89061	0.93036
2283.83680	0.93093
2281.78299	0.93071
2279.72918	0.93053
2277.67537	0.93132
2275.62156	0.93210
2273.56775	0.93213
2271.51394	0.93189
2269.46013	0.93183
2267.40632	0.93190
2265.35251	0.93167
2263.29870	0.93153
2261.24489	0.93232
2259.19108	0.93327
2257.13727	0.93322
2255.08346	0.93291
2253.02965	0.93303
2250.97584	0.93295
2248.92203	0.93235
2246.86822	0.93153
2244.81441	0.93125
2242.76060	0.93187
2240.70679	0.93243
2238.65298	0.93228
2236.59917	0.93227
2234.54536	0.93278
2232.49155	0.93293
2230.43774	0.93273
2228.38393	0.93293
2226.33012	0.93350
2224.27631	0.93412
2222.22250	0.93470
2220.16869	0.93514
2218.11488	0.93525
2216.06107	0.93490
2214.00726	0.93432
2211.95344	0.93376
2209.89963	0.93362
2207.84582	0.93405
2205.79201	0.93413
2203.73820	0.93388
2201.68439	0.93379
2199.63058	0.93358
2197.57677	0.93400
2195.52296	0.93517
2193.46915	0.93588
2191.41534	0.93596
2189.36153	0.93535
2187.30772	0.93439
2185.25391	0.93441
2183.20010	0.93517
2181.14629	0.93586
2179.09248	0.93603
2177.03867	0.93583
2174.98486	0.93674
2172.93105	0.93819
2170.87724	0.93824
2168.82343	0.93694
2166.76962	0.93529
2164.71581	0.93359
2162.66200	0.93221
2160.60819	0.93393
2158.55438	0.93918
2156.50057	0.94232
2154.44676	0.94175
2152.39295	0.94064
2150.33914	0.93970
2148.28533	0.93885
2146.23152	0.93904
2144.17771	0.93938
2142.12390	0.93853
2140.07009	0.93767
2138.01628	0.93768
2135.96247	0.93773
2133.90866	0.93786
2131.85485	0.93843
2129.80104	0.93906
2127.74723	0.93893
2125.69342	0.93786
2123.63961	0.93702
2121.58580	0.93670
2119.53199	0.93634
2117.47818	0.93622
2115.42437	0.93658
2113.37056	0.93671
2111.31675	0.93658
2109.26294	0.93667
2107.20913	0.93674
2105.15532	0.93690
2103.10151	0.93691
2101.04770	0.93642
2098.99389	0.93614
2096.94008	0.93671
2094.88627	0.93770
2092.83246	0.93799
2090.77865	0.93688
2088.72484	0.93540
2086.67103	0.93534
2084.61722	0.93648
2082.56341	0.93747
2080.50960	0.93760
2078.45579	0.93729
2076.40198	0.93703
2074.34817	0.93693
2072.29436	0.93764
2070.24055	0.93875
2068.18674	0.93893
2066.13293	0.93859
2064.07912	0.93861
2062.02531	0.93833
2059.97150	0.93772
2057.91769	0.93771
2055.86388	0.93846
2053.81007	0.93881
2051.75626	0.93764
2049.70245	0.93627
2047.64864	0.93664
2045.59483	0.93750
2043.54102	0.93739
2041.48721	0.93764
2039.43340	0.93825
2037.37959	0.93822
2035.32578	0.93897
2033.27197	0.94056
2031.21816	0.94151
2029.16435	0.94172
2027.11054	0.94111
2025.05673	0.94051
2023.00292	0.94076
2020.94911	0.94147
2018.89530	0.94236
2016.84149	0.94278
2014.78768	0.94175
2012.73387	0.94031
2010.68006	0.94006
2008.62625	0.94029
2006.57244	0.94047
2004.51863	0.94060
2002.46482	0.93979
2000.41101	0.93860
1998.35720	0.93865
1996.30339	0.93987
1994.24958	0.94121
1992.19577	0.94158
1990.14196	0.94087
1988.08815	0.94094
1986.03434	0.94166
1983.98053	0.94121
1981.92672	0.94001
1979.87291	0.93939
1977.81910	0.93969
1975.76529	0.93996
1973.71148	0.93961
1971.65767	0.94040
1969.60386	0.94250
1967.55005	0.94360
1965.49624	0.94387
1963.44243	0.94497
1961.38862	0.94560
1959.33481	0.94412
1957.28100	0.94240
1955.22719	0.94258
1953.17338	0.94379
1951.11957	0.94428
1949.06576	0.94393
1947.01195	0.94335
1944.95814	0.94281
1942.90433	0.94305
1940.85052	0.94405
1938.79671	0.94528
1936.74290	0.94642
1934.68909	0.94694
1932.63528	0.94678
1930.58147	0.94594
1928.52766	0.94544
1926.47385	0.94594
1924.42004	0.94592
1922.36623	0.94506
1920.31242	0.94465
1918.25861	0.94501
1916.20479	0.94574
1914.15098	0.94602
1912.09717	0.94553
1910.04336	0.94535
1907.98955	0.94588
1905.93574	0.94615
1903.88193	0.94582
1901.82812	0.94533
1899.77431	0.94539
1897.72050	0.94608
1895.66669	0.94649
1893.61288	0.94597
1891.55907	0.94520
1889.50526	0.94530
1887.45145	0.94614
1885.39764	0.94690
1883.34383	0.94734
1881.29002	0.94727
1879.23621	0.94678
1877.18240	0.94657
1875.12859	0.94679
1873.07478	0.94698
1871.02097	0.94714
1868.96716	0.94701
1866.91335	0.94664
1864.85954	0.94691
1862.80573	0.94779
1860.75192	0.94838
1858.69811	0.94847
1856.64430	0.94875
1854.59049	0.94923
1852.53668	0.94942
1850.48287	0.94950
1848.42906	0.94964
1846.37525	0.94975
1844.32144	0.94967
1842.26763	0.94927
1840.21382	0.94899
1838.16001	0.94929
1836.10620	0.94988
1834.05239	0.95004
1831.99858	0.94991
1829.94477	0.94969
1827.89096	0.94968
1825.83715	0.95020
1823.78334	0.95074
1821.72953	0.95105
1819.67572	0.95143
1817.62191	0.95196
1815.56810	0.95220
1813.51429	0.95201
1811.46048	0.95184
1809.40667	0.95179
1807.35286	0.95171
1805.29905	0.95174
1803.24524	0.95182
1801.19143	0.95156
1799.13762	0.95134
1797.08381	0.95161
1795.03000	0.95188
1792.97619	0.95152
1790.92238	0.95087
1788.86857	0.95074
1786.81476	0.95082
1784.76095	0.95078
1782.70714	0.95053
1780.65333	0.95012
1778.59952	0.94990
1776.54571	0.94973
1774.49190	0.94918
1772.43809	0.94809
1770.38428	0.94695
1768.33047	0.94641
1766.27666	0.94634
1764.22285	0.94610
1762.16904	0.94532
1760.11523	0.94463
1758.06142	0.94445
1756.00761	0.94424
1753.95380	0.94391
1751.89999	0.94341
1749.84618	0.94248
1747.79237	0.94147
1745.73856	0.94070
1743.68475	0.94007
1741.63094	0.93932
1739.57713	0.93845
1737.52332	0.93809
1735.46951	0.93771
1733.41570	0.93593
1731.36189	0.93417
1729.30808	0.93321
1727.25427	0.93230
1725.20046	0.93113
1723.14665	0.92954
1721.09284	0.92829
1719.03903	0.92729
1716.98522	0.92525
1714.93141	0.92283
1712.87760	0.92146
1710.82379	0.92062
1708.76998	0.91960
1706.71617	0.91814
1704.66236	0.91675
1702.60855	0.91582
1700.55474	0.91413
1698.50093	0.91224
1696.44712	0.91122
1694.39331	0.91047
1692.33950	0.91042
1690.28569	0.91037
1688.23188	0.90994
1686.17807	0.90932
1684.12426	0.90769
1682.07045	0.90630
1680.01664	0.90605
1677.96283	0.90590
1675.90902	0.90513
1673.85521	0.90397
1671.80140	0.90329
1669.74759	0.90247
1667.69378	0.90136
1665.63997	0.90063
1663.58616	0.89960
1661.53235	0.89827
1659.47854	0.89766
1657.42473	0.89771
1655.37092	0.89771
1653.31711	0.89581
1651.26330	0.89364
1649.20949	0.89358
1647.15568	0.89307
1645.10187	0.89161
1643.04806	0.89092
1640.99425	0.89072
1638.94044	0.89037
1636.88663	0.88920
1634.83282	0.88701
1632.77901	0.88579
1630.72520	0.88542
1628.67139	0.88471
1626.61758	0.88356
1624.56377	0.88213
1622.50996	0.88032
1620.45614	0.87911
1618.40233	0.87819
1616.34852	0.87629
1614.29471	0.87472
1612.24090	0.87409
1610.18709	0.87330
1608.13328	0.87223
1606.07947	0.87126
1604.02566	0.87015
1601.97185	0.86878
1599.91804	0.86756
1597.86423	0.86655
1595.81042	0.86560
1593.75661	0.86481
1591.70280	0.86419
1589.64899	0.86351
1587.59518	0.86282
1585.54137	0.86229
1583.48756	0.86198
1581.43375	0.86197
1579.37994	0.86234
1577.32613	0.86236
1575.27232	0.86172
1573.21851	0.86199
1571.16470	0.86285
1569.11089	0.86324
1567.05708	0.86364
1565.00327	0.86446
1562.94946	0.86562
1560.89565	0.86677
1558.84184	0.86665
1556.78803	0.86672
1554.73422	0.86811
1552.68041	0.86968
1550.62660	0.87116
1548.57279	0.87253
1546.51898	0.87388
1544.46517	0.87511
1542.41136	0.87620
1540.35755	0.87714
1538.30374	0.87837
1536.24993	0.88007
1534.19612	0.88149
1532.14231	0.88246
1530.08850	0.88366
1528.03469	0.88483
1525.98088	0.88548
1523.92707	0.88579
1521.87326	0.88566
1519.81945	0.88541
1517.76564	0.88504
1515.71183	0.88417
1513.65802	0.88375
1511.60421	0.88412
1509.55040	0.88478
1507.49659	0.88477
1505.44278	0.88421
1503.38897	0.88466
1501.33516	0.88541
1499.28135	0.88582
1497.22754	0.88566
1495.17373	0.88557
1493.11992	0.88617
1491.06611	0.88668
1489.01230	0.88643
1486.95849	0.88619
1484.90468	0.88639
1482.85087	0.88668
1480.79706	0.88700
1478.74325	0.88744
1476.68944	0.88783
1474.63563	0.88772
1472.58182	0.88655
1470.52801	0.88500
1468.47420	0.88403
1466.42039	0.88295
1464.36658	0.88145
1462.31277	0.88072
1460.25896	0.88085
1458.20515	0.88011
1456.15134	0.87790
1454.09753	0.87697
1452.04372	0.87705
1449.98991	0.87695
1447.93610	0.87649
1445.88229	0.87596
1443.82848	0.87562
1441.77467	0.87558
1439.72086	0.87587
1437.66705	0.87569
1435.61324	0.87477
1433.55943	0.87441
1431.50562	0.87435
1429.45181	0.87396
1427.39800	0.87368
1425.34419	0.87340
1423.29038	0.87305
1421.23657	0.87297
1419.18276	0.87258
1417.12895	0.87206
1415.07514	0.87210
1413.02133	0.87208
1410.96752	0.87182
1408.91371	0.87164
1406.85990	0.87159
1404.80609	0.87145
1402.75228	0.87140
1400.69847	0.87132
1398.64466	0.87092
1396.59085	0.87050
1394.53704	0.86999
1392.48323	0.86965
1390.42942	0.86977
1388.37561	0.86968
1386.32180	0.86911
1384.26799	0.86880
1382.21418	0.86881
1380.16037	0.86870
1378.10656	0.86841
1376.05275	0.86803
1373.99894	0.86753
1371.94513	0.86717
1369.89132	0.86711
1367.83751	0.86720
1365.78370	0.86725
1363.72989	0.86705
1361.67608	0.86679
1359.62227	0.86699
1357.56846	0.86738
1355.51465	0.86749
1353.46084	0.86748
1351.40703	0.86767
1349.35322	0.86789
1347.29941	0.86803
1345.24560	0.86833
1343.19179	0.86879
1341.13798	0.86903
1339.08417	0.86884
1337.03036	0.86859
1334.97655	0.86850
1332.92274	0.86831
1330.86893	0.86801
1328.81512	0.86778
1326.76130	0.86751
1324.70749	0.86705
1322.65368	0.86648
1320.59987	0.86607
1318.54606	0.86594
1316.49225	0.86590
1314.43844	0.86587
1312.38463	0.86602
1310.33082	0.86631
1308.27701	0.86651
1306.22320	0.86651
1304.16939	0.86641
1302.11558	0.86620
1300.06177	0.86587
1298.00796	0.86546
1295.95415	0.86494
1293.90034	0.86431
1291.84653	0.86372
1289.79272	0.86324
1287.73891	0.86280
1285.68510	0.86226
1283.63129	0.86157
1281.57748	0.86074
1279.52367	0.85986
1277.46986	0.85897
1275.41605	0.85813
1273.36224	0.85742
1271.30843	0.85675
1269.25462	0.85620
1267.20081	0.85572
1265.14700	0.85532
1263.09319	0.85516
1261.03938	0.85507
1258.98557	0.85491
1256.93176	0.85469
1254.87795	0.85454
1252.82414	0.85455
1250.77033	0.85453
1248.71652	0.85432
1246.66271	0.85418
1244.60890	0.85428
1242.55509	0.85443
1240.50128	0.85440
1238.44747	0.85417
1236.39366	0.85389
1234.33985	0.85369
1232.28604	0.85362
1230.23223	0.85357
1228.17842	0.85336
1226.12461	0.85295
1224.07080	0.85229
1222.01699	0.85162
1219.96318	0.85120
1217.90937	0.85099
1215.85556	0.85071
1213.80175	0.85015
1211.74794	0.84961
1209.69413	0.84932
1207.64032	0.84902
1205.58651	0.84867
1203.53270	0.84854
1201.47889	0.84843
1199.42508	0.84831
1197.37127	0.84832
1195.31746	0.84842
1193.26365	0.84862
1191.20984	0.84894
1189.15603	0.84931
1187.10222	0.84972
1185.04841	0.84997
1182.99460	0.84996
1180.94079	0.84996
1178.88698	0.85010
1176.83317	0.85026
1174.77936	0.85031
1172.72555	0.85037
1170.67174	0.85057
1168.61793	0.85079
1166.56412	0.85091
1164.51031	0.85112
1162.45650	0.85147
1160.40269	0.85167
1158.34888	0.85154
1156.29507	0.85124
1154.24126	0.85105
1152.18745	0.85100
1150.13364	0.85086
1148.07983	0.85058
1146.02602	0.85042
1143.97221	0.85048
1141.91840	0.85054
1139.86459	0.85058
1137.81078	0.85057
1135.75697	0.85058
1133.70316	0.85051
1131.64935	0.85008
1129.59554	0.84954
1127.54173	0.84934
1125.48792	0.84932
1123.43411	0.84925
1121.38030	0.84922
1119.32649	0.84936
1117.27268	0.84958
1115.21887	0.84986
1113.16506	0.85022
1111.11125	0.85042
1109.05744	0.85043
1107.00363	0.85071
1104.94982	0.85125
1102.89601	0.85150
1100.84220	0.85136
1098.78839	0.85121
1096.73458	0.85107
1094.68077	0.85084
1092.62696	0.85045
1090.57315	0.84997
1088.51934	0.84985
1086.46553	0.85012
1084.41172	0.85021
1082.35791	0.84996
1080.30410	0.84958
1078.25029	0.84942
1076.19648	0.84938
1074.14267	0.84921
1072.08886	0.84910
1070.03505	0.84926
1067.98124	0.84946
1065.92743	0.84938
1063.87362	0.84920
1061.81981	0.84897
1059.76600	0.84857
1057.71219	0.84840
1055.65838	0.84844
1053.60457	0.84822
1051.55076	0.84786
1049.49695	0.84751
1047.44314	0.84715
1045.38933	0.84687
1043.33552	0.84658
1041.28171	0.84621
1039.22790	0.84580
1037.17409	0.84537
1035.12028	0.84484
1033.06647	0.84420
1031.01265	0.84370
1028.95884	0.84344
1026.90503	0.84324
1024.85122	0.84323
1022.79741	0.84338
1020.74360	0.84350
1018.68979	0.84383
1016.63598	0.84418
1014.58217	0.84416
1012.52836	0.84413
1010.47455	0.84441
1008.42074	0.84486
1006.36693	0.84543
1004.31312	0.84601
1002.25931	0.84638
1000.20550	0.84674
998.15169	0.84745
996.09788	0.84846
994.04407	0.84949
991.99026	0.85021
989.93645	0.85074
987.88264	0.85141
985.82883	0.85223
983.77502	0.85314
981.72121	0.85409
979.66740	0.85488
977.61359	0.85566
975.55978	0.85636
973.50597	0.85668
971.45216	0.85715
969.39835	0.85795
967.34454	0.85872
965.29073	0.85955
963.23692	0.86043
961.18311	0.86108
959.12930	0.86146
957.07549	0.86185
955.02168	0.86250
952.96787	0.86321
950.91406	0.86359
948.86025	0.86381
946.80644	0.86449
944.75263	0.86537
942.69882	0.86556
940.64501	0.86556
938.59120	0.86608
936.53739	0.86668
934.48358	0.86712
932.42977	0.86765
930.37596	0.86815
928.32215	0.86840
926.26834	0.86840
924.21453	0.86841
922.16072	0.86870
920.10691	0.86906
918.05310	0.86927
915.99929	0.86958
913.94548	0.87003
911.89167	0.87026
909.83786	0.87042
907.78405	0.87069
905.73024	0.87102
903.67643	0.87110
901.62262	0.87085
899.56881	0.87073
897.51500	0.87074
895.46119	0.87062
893.40738	0.87037
891.35357	0.87008
889.29976	0.86954
887.24595	0.86886
885.19214	0.86829
883.13833	0.86773
881.08452	0.86722
879.03071	0.86677
876.97690	0.86624
874.92309	0.86582
872.86928	0.86562
870.81547	0.86547
868.76166	0.86513
866.70785	0.86447
864.65404	0.86385
862.60023	0.86349
860.54642	0.86310
858.49261	0.86269
856.43880	0.86277
854.38499	0.86317
852.33118	0.86332
850.27737	0.86337
848.22356	0.86330
846.16975	0.86286
844.11594	0.86270
842.06213	0.86296
840.00832	0.86302
837.95451	0.86287
835.90070	0.86294
833.84689	0.86313
831.79308	0.86303
829.73927	0.86255
827.68546	0.86182
825.63165	0.86100
823.57784	0.86023
821.52403	0.85961
819.47022	0.85926
817.41641	0.85904
815.36260	0.85865
813.30879	0.85794
811.25498	0.85738
809.20117	0.85743
807.14736	0.85739
805.09355	0.85688
803.03974	0.85639
800.98593	0.85591
798.93212	0.85542
796.87831	0.85509
794.82450	0.85472
792.77069	0.85433
790.71688	0.85421
788.66307	0.85405
786.60926	0.85357
784.55545	0.85303
782.50164	0.85250
780.44783	0.85190
778.39402	0.85154
776.34021	0.85153
774.28640	0.85158
772.23259	0.85158
770.17878	0.85155
768.12497	0.85140
766.07116	0.85107
764.01735	0.85096
761.96354	0.85108
759.90973	0.85078
757.85592	0.85024
755.80211	0.85029
753.74830	0.85097
751.69449	0.85148
749.64068	0.85137
747.58687	0.85089
745.53306	0.85051
743.47925	0.85028
741.42544	0.85015
739.37163	0.85002
737.31781	0.84986
735.26400	0.84999
733.21019	0.85041
731.15638	0.85073
729.10257	0.85089
727.04876	0.85099
724.99495	0.85079
722.94114	0.85041
720.88733	0.85028
718.83352	0.85063
716.77971	0.85090
714.72590	0.85068
712.67209	0.85054
710.61828	0.85057
708.56447	0.85051
706.51066	0.85063
704.45685	0.85060
702.40304	0.84994
700.34923	0.84893
698.29542	0.84797
696.24161	0.84766
694.18780	0.84791
692.13399	0.84762
690.08018	0.84658
688.02637	0.84566
685.97256	0.84534
683.91875	0.84529
681.86494	0.84512
679.81113	0.84458
677.75732	0.84408
675.70351	0.84412
673.64970	0.84405
671.59589	0.84367
669.54208	0.84314
667.48827	0.84228
665.43446	0.84172
663.38065	0.84116
661.32684	0.84056
659.27303	0.84063
657.21922	0.84148
655.16541	0.84207
653.11160	0.84136
651.05779	0.84001
649.00398	0.83924
646.95017	0.83882
644.89636	0.83825
642.84255	0.83745
640.78874	0.83620
638.73493	0.83499
636.68112	0.83466
634.62731	0.83502
632.57350	0.83474
630.51969	0.83320
628.46588	0.83168
626.41207	0.83143
624.35826	0.83205
622.30445	0.83243
620.25064	0.83244
618.19683	0.83265
616.14302	0.83270
614.08921	0.83193
612.03540	0.83070
609.98159	0.82967
607.92778	0.82921
605.87397	0.82916
603.82016	0.82882
601.76635	0.82804
599.71254	0.82723
597.65873	0.82647
595.60492	0.82566
593.55111	0.82485
591.49730	0.82407
589.44349	0.82344
587.38968	0.82303
585.33587	0.82211
583.28206	0.82054
581.22825	0.81990
579.17444	0.82003
577.12063	0.81943
575.06682	0.81848
573.01301	0.81847
570.95920	0.81950
568.90539	0.81960
566.85158	0.81776
564.79777	0.81628
562.74396	0.81652
560.69015	0.81696
558.63634	0.81637
556.58253	0.81504
554.52872	0.81416
552.47491	0.81408
550.42110	0.81353
548.36729	0.81268
546.31348	0.81213
544.25967	0.81071
542.20586	0.80951
540.15205	0.81024
538.09824	0.81081
536.04443	0.80987
533.99062	0.80910
531.93681	0.80956
529.88300	0.81085
527.82919	0.81137
525.77538	0.81102
523.72157	0.81085
521.66776	0.80981
519.61395	0.80838
517.56014	0.80805
515.50633	0.80759
513.45252	0.80676
511.39871	0.80616
509.34490	0.80560
507.29109	0.80515
505.23728	0.80444
503.18347	0.80338
501.12966	0.80307
499.07585	0.80367
497.02204	0.80393
494.96823	0.80341
492.91442	0.80278
490.86061	0.80281
488.80680	0.80271
486.75299	0.80202
484.69918	0.80096
482.64537	0.79914
480.59156	0.79697
478.53775	0.79534
476.48394	0.79452
474.43013	0.79426
472.37632	0.79455
470.32251	0.79558
468.26870	0.79562
466.21489	0.79387
464.16108	0.79231
462.10727	0.79240
460.05346	0.79388
457.99965	0.79516
455.94584	0.79474
453.89203	0.79296
451.83822	0.79194
449.78441	0.79431
447.73060	0.79818
445.67679	0.79837
443.62298	0.79453
441.56916	0.79093
439.51535	0.78814
437.46154	0.78677
435.40773	0.78995
433.35392	0.79313
431.30011	0.79080
429.24630	0.78617
427.19249	0.78245
425.13868	0.77980
423.08487	0.78044
421.03106	0.78431
418.97725	0.78579
416.92344	0.78299
414.86963	0.78086
412.81582	0.78102
410.76201	0.78252
408.70820	0.78492
406.65439	0.78790
404.60058	0.78684
402.54677	0.78167
400.49296	0.77928
398.43915	0.78132
