3996.70104	0.96521
3994.64724	0.96526
3992.59344	0.96483
3990.53964	0.96490
3988.48583	0.96566
3986.43203	0.96609
3984.37823	0.96561
3982.32442	0.96508
3980.27062	0.96526
3978.21682	0.96592
3976.16301	0.96600
3974.10921	0.96508
3972.05541	0.96440
3970.00160	0.96470
3967.94780	0.96535
3965.89400	0.96578
3963.84019	0.96576
3961.78639	0.96556
3959.73259	0.96565
3957.67878	0.96571
3955.62498	0.96568
3953.57118	0.96587
3951.51737	0.96607
3949.46357	0.96583
3947.40977	0.96517
3945.35596	0.96511
3943.30216	0.96560
3941.24836	0.96554
3939.19455	0.96555
3937.14075	0.96607
3935.08695	0.96598
3933.03315	0.96508
3930.97934	0.96446
3928.92554	0.96464
3926.87174	0.96484
3924.81793	0.96482
3922.76413	0.96537
3920.71033	0.96636
3918.65652	0.96645
3916.60272	0.96567
3914.54892	0.96520
3912.49511	0.96523
3910.44131	0.96547
3908.38751	0.96581
3906.33370	0.96640
3904.27990	0.96713
3902.22610	0.96758
3900.17229	0.96751
3898.11849	0.96686
3896.06469	0.96632
3894.01088	0.96612
3891.95708	0.96578
3889.90328	0.96566
3887.84947	0.96596
3885.79567	0.96628
3883.74187	0.96657
3881.68807	0.96675
3879.63426	0.96688
3877.58046	0.96719
3875.52666	0.96715
3873.47285	0.96622
3871.41905	0.96540
3869.36525	0.96542
3867.31144	0.96578
3865.25764	0.96602
3863.20384	0.96580
3861.15003	0.96560
3859.09623	0.96618
3857.04243	0.96737
3854.98862	0.96819
3852.93482	0.96785
3850.88102	0.96717
3848.82721	0.96682
3846.77341	0.96668
3844.71961	0.96660
3842.66580	0.96653
3840.61200	0.96655
3838.55820	0.96674
3836.50439	0.96683
3834.45059	0.96701
3832.39679	0.96741
3830.34298	0.96753
3828.28918	0.96746
3826.23538	0.96735
3824.18158	0.96735
3822.12777	0.96763
3820.07397	0.96779
3818.02017	0.96764
3815.96636	0.96727
3813.91256	0.96709
3811.85876	0.96721
3809.80495	0.96724
3807.75115	0.96691
3805.69735	0.96611
3803.64354	0.96584
3801.58974	0.96712
3799.53594	0.96888
3797.48213	0.96895
3795.42833	0.96778
3793.37453	0.96691
3791.32072	0.96667
3789.26692	0.96667
3787.21312	0.96636
3785.15931	0.96585
3783.10551	0.96614
3781.05171	0.96671
3778.99790	0.96670
3776.94410	0.96662
3774.89030	0.96660
3772.83650	0.96650
3770.78269	0.96645
3768.72889	0.96674
3766.67509	0.96760
3764.62128	0.96798
3762.56748	0.96742
3760.51368	0.96706
3758.45987	0.96717
3756.40607	0.96701
3754.35227	0.96657
3752.29846	0.96629
3750.24466	0.96723
3748.19086	0.96882
3746.13705	0.96920
3744.08325	0.96843
3742.02945	0.96793
3739.97564	0.96793
3737.92184	0.96760
3735.86804	0.96729
3733.81423	0.96792
3731.76043	0.96806
3729.70663	0.96794
3727.65282	0.96844
3725.59902	0.96879
3723.54522	0.96852
3721.49141	0.96802
3719.43761	0.96754
3717.38381	0.96721
3715.33001	0.96668
3713.27620	0.96560
3711.22240	0.96424
3709.16860	0.96364
3707.11479	0.96329
3705.06099	0.96232
3703.00719	0.96119
3700.95338	0.96073
3698.89958	0.96093
3696.84578	0.96096
3694.79197	0.96052
3692.73817	0.96039
3690.68437	0.96049
3688.63056	0.95989
3686.57676	0.96009
3684.52296	0.96139
3682.46915	0.96227
3680.41535	0.96240
3678.36155	0.96251
3676.30774	0.96300
3674.25394	0.96366
3672.20014	0.96379
3670.14633	0.96245
3668.09253	0.96055
3666.03873	0.95993
3663.98492	0.95983
3661.93112	0.95950
3659.87732	0.95926
3657.82352	0.95954
3655.76971	0.95976
3653.71591	0.95947
3651.66211	0.95946
3649.60830	0.95947
3647.55450	0.95848
3645.50070	0.95748
3643.44689	0.95682
3641.39309	0.95640
3639.33929	0.95608
3637.28548	0.95576
3635.23168	0.95556
3633.17788	0.95530
3631.12407	0.95557
3629.07027	0.95658
3627.01647	0.95655
3624.96266	0.95550
3622.90886	0.95457
3620.85506	0.95426
3618.80125	0.95459
3616.74745	0.95516
3614.69365	0.95587
3612.63984	0.95608
3610.58604	0.95579
3608.53224	0.95565
3606.47844	0.95505
3604.42463	0.95409
3602.37083	0.95397
3600.31703	0.95468
3598.26322	0.95508
3596.20942	0.95495
3594.15562	0.95465
3592.10181	0.95462
3590.04801	0.95508
3587.99421	0.95549
3585.94040	0.95570
3583.88660	0.95579
3581.83280	0.95549
3579.77899	0.95522
3577.72519	0.95559
3575.67139	0.95608
3573.61758	0.95603
3571.56378	0.95586
3569.50998	0.95586
3567.45617	0.95582
3565.40237	0.95539
3563.34857	0.95462
3561.29476	0.95416
3559.24096	0.95417
3557.18716	0.95438
3555.13335	0.95475
3553.07955	0.95506
3551.02575	0.95496
3548.97195	0.95487
3546.91814	0.95516
3544.86434	0.95506
3542.81054	0.95435
3540.75673	0.95379
3538.70293	0.95399
3536.64913	0.95446
3534.59532	0.95437
3532.54152	0.95398
3530.48772	0.95401
3528.43391	0.95480
3526.38011	0.95561
3524.32631	0.95570
3522.27250	0.95541
3520.21870	0.95503
3518.16490	0.95469
3516.11109	0.95433
3514.05729	0.95369
3512.00349	0.95336
3509.94968	0.95390
3507.89588	0.95447
3505.84208	0.95450
3503.78827	0.95451
3501.73447	0.95458
3499.68067	0.95465
3497.62687	0.95467
3495.57306	0.95442
3493.51926	0.95400
3491.46546	0.95376
3489.41165	0.95419
3487.35785	0.95495
3485.30405	0.95487
3483.25024	0.95426
3481.19644	0.95417
3479.14264	0.95419
3477.08883	0.95396
3475.03503	0.95405
3472.98123	0.95414
3470.92742	0.95361
3468.87362	0.95309
3466.81982	0.95296
3464.76601	0.95276
3462.71221	0.95239
3460.65841	0.95231
3458.60460	0.95262
3456.55080	0.95252
3454.49700	0.95213
3452.44319	0.95241
3450.38939	0.95314
3448.33559	0.95349
3446.28178	0.95324
3444.22798	0.95280
3442.17418	0.95257
3440.12038	0.95238
3438.06657	0.95215
3436.01277	0.95229
3433.95897	0.95268
3431.90516	0.95255
3429.85136	0.95184
3427.79756	0.95138
3425.74375	0.95162
3423.68995	0.95218
3421.63615	0.95250
3419.58234	0.95257
3417.52854	0.95271
3415.47474	0.95260
3413.42093	0.95187
3411.36713	0.95113
3409.31333	0.95096
3407.25952	0.95119
3405.20572	0.95152
3403.15192	0.95144
3401.09811	0.95115
3399.04431	0.95122
3396.99051	0.95138
3394.93670	0.95145
3392.88290	0.95145
3390.82910	0.95155
3388.77529	0.95198
3386.72149	0.95235
3384.66769	0.95215
3382.61389	0.95186
3380.56008	0.95206
3378.50628	0.95191
3376.45248	0.95111
3374.39867	0.95081
3372.34487	0.95150
3370.29107	0.95216
3368.23726	0.95223
3366.18346	0.95197
3364.12966	0.95159
3362.07585	0.95155
3360.02205	0.95168
3357.96825	0.95164
3355.91444	0.95173
3353.86064	0.95200
3351.80684	0.95226
3349.75303	0.95226
3347.69923	0.95183
3345.64543	0.95140
3343.59162	0.95159
3341.53782	0.95211
3339.48402	0.95245
3337.43021	0.95277
3335.37641	0.95305
3333.32261	0.95288
3331.26881	0.95233
3329.21500	0.95191
3327.16120	0.95217
3325.10740	0.95276
3323.05359	0.95293
3320.99979	0.95307
3318.94599	0.95358
3316.89218	0.95416
3314.83838	0.95466
3312.78458	0.95481
3310.73077	0.95416
3308.67697	0.95318
3306.62317	0.95300
3304.56936	0.95357
3302.51556	0.95397
3300.46176	0.95393
3298.40795	0.95368
3296.35415	0.95327
3294.30035	0.95322
3292.24654	0.95361
3290.19274	0.95351
3288.13894	0.95301
3286.08513	0.95289
3284.03133	0.95319
3281.97753	0.95388
3279.92372	0.95452
3277.86992	0.95465
3275.81612	0.95480
3273.76232	0.95520
3271.70851	0.95520
3269.65471	0.95470
3267.60091	0.95440
3265.54710	0.95455
3263.49330	0.95463
3261.43950	0.95460
3259.38569	0.95491
3257.33189	0.95504
3255.27809	0.95469
3253.22428	0.95465
3251.17048	0.95491
3249.11668	0.95508
3247.06287	0.95534
3245.00907	0.95566
3242.95527	0.95559
3240.90146	0.95530
3238.84766	0.95539
3236.79386	0.95567
3234.74005	0.95549
3232.68625	0.95512
3230.63245	0.95523
3228.57864	0.95557
3226.52484	0.95573
3224.47104	0.95593
3222.41724	0.95599
3220.36343	0.95590
3218.30963	0.95626
3216.25583	0.95658
3214.20202	0.95623
3212.14822	0.95595
3210.09442	0.95626
3208.04061	0.95672
3205.98681	0.95702
3203.93301	0.95701
3201.87920	0.95683
3199.82540	0.95661
3197.77160	0.95649
3195.71779	0.95669
3193.66399	0.95716
3191.61019	0.95777
3189.55638	0.95831
3187.50258	0.95856
3185.44878	0.95860
3183.39497	0.95847
3181.34117	0.95814
3179.28737	0.95802
3177.23356	0.95815
3175.17976	0.95848
3173.12596	0.95871
3171.07215	0.95825
3169.01835	0.95761
3166.96455	0.95752
3164.91075	0.95764
3162.85694	0.95750
3160.80314	0.95746
3158.74934	0.95815
3156.69553	0.95902
3154.64173	0.95897
3152.58793	0.95851
3150.53412	0.95872
3148.48032	0.95940
3146.42652	0.95973
3144.37271	0.95942
3142.31891	0.95898
3140.26511	0.95913
3138.21130	0.95960
3136.15750	0.95973
3134.10370	0.95963
3132.04989	0.95962
3129.99609	0.95973
3127.94229	0.96004
3125.88848	0.96048
3123.83468	0.96074
3121.78088	0.96074
3119.72707	0.96068
3117.67327	0.96064
3115.61947	0.96053
3113.56566	0.96017
3111.51186	0.95977
3109.45806	0.95960
3107.40426	0.95949
3105.35045	0.95931
3103.29665	0.95880
3101.24285	0.95806
3099.18904	0.95798
3097.13524	0.95871
3095.08144	0.95924
3093.02763	0.95912
3090.97383	0.95837
3088.92003	0.95710
3086.86622	0.95543
3084.81242	0.95355
3082.75862	0.95244
3080.70481	0.95288
3078.65101	0.95436
3076.59721	0.95572
3074.54340	0.95606
3072.48960	0.95529
3070.43580	0.95411
3068.38199	0.95326
3066.32819	0.95246
3064.27439	0.95093
3062.22058	0.94916
3060.16678	0.94823
3058.11298	0.94869
3056.05918	0.95023
3054.00537	0.95187
3051.95157	0.95332
3049.89777	0.95454
3047.84396	0.95525
3045.79016	0.95556
3043.73636	0.95583
3041.68255	0.95585
3039.62875	0.95517
3037.57495	0.95365
3035.52114	0.95146
3033.46734	0.94851
3031.41354	0.94428
3029.35973	0.93944
3027.30593	0.93551
3025.25213	0.93358
3023.19832	0.93477
3021.14452	0.93912
3019.09072	0.94436
3017.03691	0.94864
3014.98311	0.95178
3012.92931	0.95411
3010.87550	0.95593
3008.82170	0.95693
3006.76790	0.95697
3004.71409	0.95663
3002.66029	0.95625
3000.60649	0.95614
2998.55269	0.95674
2996.49888	0.95783
2994.44508	0.95899
2992.39128	0.95983
2990.33747	0.96031
2988.28367	0.96072
2986.22987	0.96107
2984.17606	0.96119
2982.12226	0.96114
2980.06846	0.96119
2978.01465	0.96144
2975.96085	0.96168
2973.90705	0.96179
2971.85324	0.96177
2969.79944	0.96173
2967.74564	0.96169
2965.69183	0.96152
2963.63803	0.96112
2961.58423	0.96068
2959.53042	0.96037
2957.47662	0.95994
2955.42282	0.95928
2953.36901	0.95843
2951.31521	0.95739
2949.26141	0.95624
2947.20761	0.95474
2945.15380	0.95287
2943.10000	0.95112
2941.04620	0.94965
2938.99239	0.94779
2936.93859	0.94532
2934.88479	0.94254
2932.83098	0.93962
2930.77718	0.93679
2928.72338	0.93406
2926.66957	0.93167
2924.61577	0.93003
2922.56197	0.92895
2920.50816	0.92852
2918.45436	0.92876
2916.40056	0.92909
2914.34675	0.92981
2912.29295	0.93167
2910.23915	0.93440
2908.18534	0.93702
2906.13154	0.93906
2904.07774	0.94078
2902.02393	0.94251
2899.97013	0.94446
2897.91633	0.94633
2895.86252	0.94783
2893.80872	0.94897
2891.75492	0.94968
2889.70112	0.95033
2887.64731	0.95139
2885.59351	0.95238
2883.53971	0.95293
2881.48590	0.95356
2879.43210	0.95451
2877.37830	0.95536
2875.32449	0.95567
2873.27069	0.95567
2871.21689	0.95587
2869.16308	0.95628
2867.10928	0.95640
2865.05548	0.95587
2863.00167	0.95506
2860.94787	0.95467
2858.89407	0.95454
2856.84026	0.95383
2854.78646	0.95241
2852.73266	0.95081
2850.67885	0.94949
2848.62505	0.94897
2846.57125	0.94934
2844.51744	0.95023
2842.46364	0.95156
2840.40984	0.95343
2838.35603	0.95574
2836.30223	0.95791
2834.24843	0.95914
2832.19463	0.95972
2830.14082	0.96033
2828.08702	0.96090
2826.03322	0.96129
2823.97941	0.96168
2821.92561	0.96208
2819.87181	0.96237
2817.81800	0.96244
2815.76420	0.96220
2813.71040	0.96189
2811.65659	0.96181
2809.60279	0.96192
2807.54899	0.96206
2805.49518	0.96235
2803.44138	0.96283
2801.38758	0.96323
2799.33377	0.96341
2797.27997	0.96342
2795.22617	0.96336
2793.17236	0.96338
2791.11856	0.96345
2789.06476	0.96355
2787.01095	0.96379
2784.95715	0.96405
2782.90335	0.96408
2780.84955	0.96400
2778.79574	0.96380
2776.74194	0.96349
2774.68814	0.96353
2772.63433	0.96402
2770.58053	0.96454
2768.52673	0.96490
2766.47292	0.96496
2764.41912	0.96474
2762.36532	0.96456
2760.31151	0.96457
2758.25771	0.96471
2756.20391	0.96469
2754.15010	0.96461
2752.09630	0.96482
2750.04250	0.96498
2747.98869	0.96495
2745.93489	0.96504
2743.88109	0.96514
2741.82728	0.96512
2739.77348	0.96524
2737.71968	0.96544
2735.66587	0.96538
2733.61207	0.96526
2731.55827	0.96527
2729.50446	0.96514
2727.45066	0.96505
2725.39686	0.96531
2723.34306	0.96581
2721.28925	0.96606
2719.23545	0.96560
2717.18165	0.96489
2715.12784	0.96478
2713.07404	0.96522
2711.02024	0.96558
2708.96643	0.96560
2706.91263	0.96542
2704.85883	0.96538
2702.80502	0.96551
2700.75122	0.96569
2698.69742	0.96588
2696.64361	0.96594
2694.58981	0.96584
2692.53601	0.96567
2690.48220	0.96552
2688.42840	0.96559
2686.37460	0.96575
2684.32079	0.96585
2682.26699	0.96595
2680.21319	0.96585
2678.15938	0.96560
2676.10558	0.96565
2674.05178	0.96592
2671.99797	0.96585
2669.94417	0.96549
2667.89037	0.96556
2665.83657	0.96604
2663.78276	0.96617
2661.72896	0.96595
2659.67516	0.96587
2657.62135	0.96567
2655.56755	0.96530
2653.51375	0.96527
2651.45994	0.96548
2649.40614	0.96568
2647.35234	0.96609
2645.29853	0.96656
2643.24473	0.96653
2641.19093	0.96589
2639.13712	0.96536
2637.08332	0.96542
2635.02952	0.96551
2632.97571	0.96528
2630.92191	0.96526
2628.86811	0.96579
2626.81430	0.96646
2624.76050	0.96695
2622.70670	0.96720
2620.65289	0.96739
2618.59909	0.96759
2616.54529	0.96739
2614.49149	0.96685
2612.43768	0.96669
2610.38388	0.96711
2608.33008	0.96745
2606.27627	0.96709
2604.22247	0.96635
2602.16867	0.96613
2600.11486	0.96641
2598.06106	0.96648
2596.00726	0.96654
2593.95345	0.96709
2591.89965	0.96751
2589.84585	0.96726
2587.79204	0.96702
2585.73824	0.96729
2583.68444	0.96750
2581.63063	0.96747
2579.57683	0.96747
2577.52303	0.96747
2575.46922	0.96726
2573.41542	0.96699
2571.36162	0.96711
2569.30781	0.96770
2567.25401	0.96811
2565.20021	0.96787
2563.14640	0.96747
2561.09260	0.96767
2559.03880	0.96828
2556.98500	0.96854
2554.93119	0.96827
2552.87739	0.96791
2550.82359	0.96779
2548.76978	0.96761
2546.71598	0.96735
2544.66218	0.96721
2542.60837	0.96744
2540.55457	0.96834
2538.50077	0.96899
2536.44696	0.96877
2534.39316	0.96866
2532.33936	0.96877
2530.28555	0.96854
2528.23175	0.96821
2526.17795	0.96799
2524.12414	0.96771
2522.07034	0.96747
2520.01654	0.96764
2517.96273	0.96802
2515.90893	0.96808
2513.85513	0.96788
2511.80132	0.96790
2509.74752	0.96831
2507.69372	0.96862
2505.63992	0.96876
2503.58611	0.96870
2501.53231	0.96836
2499.47851	0.96810
2497.42470	0.96798
2495.37090	0.96799
2493.31710	0.96843
2491.26329	0.96881
2489.20949	0.96876
2487.15569	0.96892
2485.10188	0.96953
2483.04808	0.96991
2480.99428	0.96952
2478.94047	0.96907
2476.88667	0.96905
2474.83287	0.96883
2472.77906	0.96880
2470.72526	0.96920
2468.67146	0.96936
2466.61765	0.96956
2464.56385	0.97007
2462.51005	0.97017
2460.45624	0.96969
2458.40244	0.96888
2456.34864	0.96802
2454.29483	0.96780
2452.24103	0.96825
2450.18723	0.96896
2448.13343	0.96967
2446.07962	0.96993
2444.02582	0.96985
2441.97202	0.96976
2439.91821	0.96942
2437.86441	0.96887
2435.81061	0.96852
2433.75680	0.96872
2431.70300	0.96958
2429.64920	0.97056
2427.59539	0.97069
2425.54159	0.96990
2423.48779	0.96928
2421.43398	0.96932
2419.38018	0.96955
2417.32638	0.96964
2415.27257	0.96979
2413.21877	0.97022
2411.16497	0.97045
2409.11116	0.97009
2407.05736	0.96959
2405.00356	0.96924
2402.94975	0.96924
2400.89595	0.96935
2398.84215	0.96911
2396.78834	0.96895
2394.73454	0.96903
2392.68074	0.96897
2390.62694	0.96891
2388.57313	0.96921
2386.51933	0.96969
2384.46553	0.97014
2382.41172	0.97041
2380.35792	0.97044
2378.30412	0.97066
2376.25031	0.97103
2374.19651	0.97087
2372.14271	0.96993
2370.08890	0.96918
2368.03510	0.96930
2365.98130	0.96908
2363.92749	0.96807
2361.87369	0.96809
2359.81989	0.96946
2357.76608	0.97025
2355.71228	0.96973
2353.65848	0.96921
2351.60467	0.96973
2349.55087	0.97012
2347.49707	0.96946
2345.44326	0.96875
2343.38946	0.96878
2341.33566	0.96828
2339.28186	0.96763
2337.22805	0.96840
2335.17425	0.96932
2333.12045	0.96921
2331.06664	0.96895
2329.01284	0.96898
2326.95904	0.96888
2324.90523	0.96895
2322.85143	0.96937
2320.79763	0.96920
2318.74382	0.96871
2316.69002	0.96880
2314.63622	0.96899
2312.58241	0.96893
2310.52861	0.96875
2308.47481	0.96844
2306.42100	0.96808
2304.36720	0.96842
2302.31340	0.96952
2300.25959	0.97030
2298.20579	0.97031
2296.15199	0.96946
2294.09818	0.96862
2292.04438	0.96886
2289.99058	0.96925
2287.93677	0.96911
2285.88297	0.96907
2283.82917	0.96905
2281.77537	0.96834
2279.72156	0.96755
2277.66776	0.96756
2275.61396	0.96805
2273.56015	0.96877
2271.50635	0.96937
2269.45255	0.96978
2267.39874	0.97056
2265.34494	0.97129
2263.29114	0.97136
2261.23733	0.97096
2259.18353	0.97042
2257.12973	0.97078
2255.07592	0.97113
2253.02212	0.96996
2250.96832	0.96885
2248.91451	0.96896
2246.86071	0.97000
2244.80691	0.97073
2242.75310	0.97075
2240.69930	0.97159
2238.64550	0.97270
2236.59169	0.97276
2234.53789	0.97226
2232.48409	0.97192
2230.43029	0.97201
2228.37648	0.97189
2226.32268	0.97139
2224.26888	0.97094
2222.21507	0.97126
2220.16127	0.97300
2218.10747	0.97375
2216.05366	0.97223
2213.99986	0.97105
2211.94606	0.97115
2209.89225	0.97157
2207.83845	0.97215
2205.78465	0.97268
2203.73084	0.97268
2201.67704	0.97162
2199.62324	0.97006
2197.56943	0.97062
2195.51563	0.97242
2193.46183	0.97184
2191.40802	0.97017
2189.35422	0.96986
2187.30042	0.97006
2185.24661	0.96959
2183.19281	0.96940
2181.13901	0.97081
2179.08520	0.97159
2177.03140	0.97098
2174.97760	0.97114
2172.92380	0.97236
2170.86999	0.97411
2168.81619	0.97586
2166.76239	0.97648
2164.70858	0.97351
2162.65478	0.96968
2160.60098	0.97139
2158.54717	0.97694
2156.49337	0.98078
2154.43957	0.98091
2152.38576	0.97756
2150.33196	0.97328
2148.27816	0.97179
2146.22435	0.97245
2144.17055	0.97281
2142.11675	0.97383
2140.06294	0.97614
2138.00914	0.97730
2135.95534	0.97569
2133.90153	0.97378
2131.84773	0.97438
2129.79393	0.97570
2127.74012	0.97448
2125.68632	0.97218
2123.63252	0.97185
2121.57871	0.97219
2119.52491	0.97125
2117.47111	0.97008
2115.41731	0.96945
2113.36350	0.96916
2111.30970	0.96938
2109.25590	0.96987
2107.20209	0.97006
2105.14829	0.97021
2103.09449	0.97123
2101.04068	0.97279
2098.98688	0.97346
2096.93308	0.97308
2094.87927	0.97284
2092.82547	0.97281
2090.77167	0.97245
2088.71786	0.97249
2086.66406	0.97327
2084.61026	0.97385
2082.55645	0.97339
2080.50265	0.97240
2078.44885	0.97142
2076.39504	0.97007
2074.34124	0.96906
2072.28744	0.96932
2070.23363	0.97041
2068.17983	0.97187
2066.12603	0.97295
2064.07223	0.97313
2062.01842	0.97346
2059.96462	0.97410
2057.91082	0.97326
2055.85701	0.97101
2053.80321	0.96979
2051.74941	0.97022
2049.69560	0.97122
2047.64180	0.97198
2045.58800	0.97211
2043.53419	0.97244
2041.48039	0.97279
2039.42659	0.97268
2037.37278	0.97184
2035.31898	0.97037
2033.26518	0.97146
2031.21137	0.97417
2029.15757	0.97577
2027.10377	0.97815
2025.04996	0.97929
2022.99616	0.97717
2020.94236	0.97463
2018.88855	0.97332
2016.83475	0.97437
2014.78095	0.97718
2012.72714	0.97951
2010.67334	0.97931
2008.61954	0.97587
2006.56574	0.97433
2004.51193	0.97761
2002.45813	0.98037
2000.40433	0.97858
1998.35052	0.97580
1996.29672	0.97605
1994.24292	0.97674
1992.18911	0.97577
1990.13531	0.97510
1988.08151	0.97655
1986.02770	0.97850
1983.97390	0.97736
1981.92010	0.97253
1979.86629	0.96822
1977.81249	0.97008
1975.75869	0.97531
1973.70488	0.97658
1971.65108	0.97450
1969.59728	0.97179
1967.54347	0.97015
1965.48967	0.97072
1963.43587	0.97216
1961.38206	0.97310
1959.32826	0.97246
1957.27446	0.97090
1955.22066	0.97065
1953.16685	0.97146
1951.11305	0.97165
1949.05925	0.97147
1947.00544	0.97206
1944.95164	0.97293
1942.89784	0.97347
1940.84403	0.97368
1938.79023	0.97281
1936.73643	0.97129
1934.68262	0.97100
1932.62882	0.97240
1930.57502	0.97433
1928.52121	0.97501
1926.46741	0.97522
1924.41361	0.97653
1922.35980	0.97693
1920.30600	0.97570
1918.25220	0.97432
1916.19839	0.97316
1914.14459	0.97283
1912.09079	0.97340
1910.03698	0.97394
1907.98318	0.97421
1905.92938	0.97447
1903.87557	0.97445
1901.82177	0.97397
1899.76797	0.97352
1897.71417	0.97365
1895.66036	0.97350
1893.60656	0.97303
1891.55276	0.97346
1889.49895	0.97392
1887.44515	0.97373
1885.39135	0.97375
1883.33754	0.97336
1881.28374	0.97194
1879.22994	0.97080
1877.17613	0.97100
1875.12233	0.97155
1873.06853	0.97186
1871.01472	0.97217
1868.96092	0.97187
1866.90712	0.97091
1864.85331	0.97039
1862.79951	0.97086
1860.74571	0.97193
1858.69190	0.97237
1856.63810	0.97193
1854.58430	0.97185
1852.53049	0.97247
1850.47669	0.97275
1848.42289	0.97243
1846.36908	0.97223
1844.31528	0.97268
1842.26148	0.97291
1840.20768	0.97280
1838.15387	0.97298
1836.10007	0.97339
1834.04627	0.97387
1831.99246	0.97430
1829.93866	0.97458
1827.88486	0.97396
1825.83105	0.97276
1823.77725	0.97231
1821.72345	0.97283
1819.66964	0.97339
1817.61584	0.97336
1815.56204	0.97286
1813.50823	0.97232
1811.45443	0.97198
1809.40063	0.97164
1807.34682	0.97095
1805.29302	0.97021
1803.23922	0.97002
1801.18541	0.97012
1799.13161	0.97011
1797.07781	0.97039
1795.02400	0.97093
1792.97020	0.97152
1790.91640	0.97219
1788.86260	0.97275
1786.80879	0.97300
1784.75499	0.97295
1782.70119	0.97281
1780.64738	0.97263
1778.59358	0.97246
1776.53978	0.97272
1774.48597	0.97322
1772.43217	0.97333
1770.37837	0.97311
1768.32456	0.97278
1766.27076	0.97243
1764.21696	0.97240
1762.16315	0.97234
1760.10935	0.97186
1758.05555	0.97149
1756.00174	0.97140
1753.94794	0.97152
1751.89414	0.97190
1749.84033	0.97194
1747.78653	0.97148
1745.73273	0.97124
1743.67892	0.97131
1741.62512	0.97131
1739.57132	0.97119
1737.51751	0.97114
1735.46371	0.97127
1733.40991	0.97163
1731.35611	0.97188
1729.30230	0.97178
1727.24850	0.97155
1725.19470	0.97147
1723.14089	0.97142
1721.08709	0.97149
1719.03329	0.97173
1716.97948	0.97150
1714.92568	0.97096
1712.87188	0.97086
1710.81807	0.97100
1708.76427	0.97122
1706.71047	0.97124
1704.65666	0.97074
1702.60286	0.97023
1700.54906	0.97030
1698.49525	0.97054
1696.44145	0.97018
1694.38765	0.96940
1692.33384	0.96866
1690.28004	0.96805
1688.22624	0.96758
1686.17243	0.96747
1684.11863	0.96728
1682.06483	0.96650
1680.01103	0.96564
1677.95722	0.96473
1675.90342	0.96392
1673.84962	0.96367
1671.79581	0.96403
1669.74201	0.96397
1667.68821	0.96266
1665.63440	0.96152
1663.58060	0.96115
1661.52680	0.96097
1659.47299	0.96080
1657.41919	0.96089
1655.36539	0.96109
1653.31158	0.96123
1651.25778	0.96130
1649.20398	0.96132
1647.15017	0.96111
1645.09637	0.96097
1643.04257	0.96131
1640.98876	0.96163
1638.93496	0.96162
1636.88116	0.96142
1634.82735	0.96122
1632.77355	0.96121
1630.71975	0.96146
1628.66594	0.96177
1626.61214	0.96190
1624.55834	0.96180
1622.50454	0.96175
1620.45073	0.96177
1618.39693	0.96150
1616.34313	0.96099
1614.28932	0.96074
1612.23552	0.96033
1610.18172	0.95886
1608.12791	0.95578
1606.07411	0.95118
1604.02031	0.94591
1601.96650	0.94215
1599.91270	0.94238
1597.85890	0.94612
1595.80509	0.95072
1593.75129	0.95441
1591.69749	0.95703
1589.64368	0.95860
1587.58988	0.95871
1585.53608	0.95769
1583.48227	0.95700
1581.42847	0.95796
1579.37467	0.96009
1577.32086	0.96217
1575.26706	0.96338
1573.21326	0.96386
1571.15945	0.96436
1569.10565	0.96500
1567.05185	0.96568
1564.99805	0.96632
1562.94424	0.96674
1560.89044	0.96699
1558.83664	0.96674
1556.78283	0.96603
1554.72903	0.96572
1552.67523	0.96563
1550.62142	0.96569
1548.56762	0.96580
1546.51382	0.96590
1544.46001	0.96576
1542.40621	0.96525
1540.35241	0.96484
1538.29860	0.96475
1536.24480	0.96483
1534.19100	0.96498
1532.13719	0.96530
1530.08339	0.96578
1528.02959	0.96607
1525.97578	0.96597
1523.92198	0.96577
1521.86818	0.96558
1519.81437	0.96524
1517.76057	0.96490
1515.70677	0.96469
1513.65297	0.96472
1511.59916	0.96501
1509.54536	0.96535
1507.49156	0.96497
1505.43775	0.96351
1503.38395	0.96217
1501.33015	0.95998
1499.27634	0.95433
1497.22254	0.93969
1495.16874	0.91837
1493.11493	0.90592
1491.06113	0.90958
1489.00733	0.92630
1486.95352	0.94040
1484.89972	0.94714
1482.84592	0.95085
1480.79211	0.95321
1478.73831	0.95462
1476.68451	0.95554
1474.63070	0.95633
1472.57690	0.95689
1470.52310	0.95704
1468.46929	0.95722
1466.41549	0.95757
1464.36169	0.95759
1462.30788	0.95681
1460.25408	0.95513
1458.20028	0.94837
1456.14648	0.92917
1454.09267	0.91133
1452.03887	0.90455
1449.98507	0.90814
1447.93126	0.91770
1445.87746	0.92665
1443.82366	0.93324
1441.76985	0.93862
1439.71605	0.94274
1437.66225	0.94632
1435.60844	0.95023
1433.55464	0.95316
1431.50084	0.95513
1429.44703	0.95682
1427.39323	0.95808
1425.33943	0.95891
1423.28562	0.95957
1421.23182	0.96016
1419.17802	0.96078
1417.12421	0.96114
1415.07041	0.96132
1413.01661	0.96194
1410.96280	0.96298
1408.90900	0.96384
1406.85520	0.96455
1404.80139	0.96523
1402.74759	0.96563
1400.69379	0.96582
1398.63999	0.96582
1396.58618	0.96580
1394.53238	0.96604
1392.47858	0.96605
1390.42477	0.96561
1388.37097	0.96503
1386.31717	0.96429
1384.26336	0.96342
1382.20956	0.96281
1380.15576	0.96229
1378.10195	0.96149
1376.04815	0.96072
1373.99435	0.96062
1371.94054	0.96113
1369.88674	0.96153
1367.83294	0.96167
1365.77913	0.96190
1363.72533	0.96233
1361.67153	0.96268
1359.61772	0.96280
1357.56392	0.96308
1355.51012	0.96370
1353.45631	0.96427
1351.40251	0.96459
1349.34871	0.96467
1347.29491	0.96463
1345.24110	0.96483
1343.18730	0.96529
1341.13350	0.96579
1339.07969	0.96616
1337.02589	0.96630
1334.97209	0.96617
1332.91828	0.96579
1330.86448	0.96551
1328.81068	0.96538
1326.75687	0.96513
1324.70307	0.96495
1322.64927	0.96520
1320.59546	0.96558
1318.54166	0.96551
1316.48786	0.96526
1314.43405	0.96533
1312.38025	0.96540
1310.32645	0.96536
1308.27264	0.96550
1306.21884	0.96588
1304.16504	0.96634
1302.11123	0.96678
1300.05743	0.96714
1298.00363	0.96738
1295.94982	0.96751
1293.89602	0.96759
1291.84222	0.96766
1289.78842	0.96773
1287.73461	0.96770
1285.68081	0.96763
1283.62701	0.96761
1281.57320	0.96751
1279.51940	0.96743
1277.46560	0.96750
1275.41179	0.96756
1273.35799	0.96755
1271.30419	0.96763
1269.25038	0.96798
1267.19658	0.96846
1265.14278	0.96874
1263.08897	0.96881
1261.03517	0.96880
1258.98137	0.96864
1256.92756	0.96831
1254.87376	0.96784
1252.81996	0.96732
1250.76615	0.96713
1248.71235	0.96719
1246.65855	0.96703
1244.60474	0.96679
1242.55094	0.96672
1240.49714	0.96659
1238.44334	0.96630
1236.38953	0.96608
1234.33573	0.96585
1232.28193	0.96565
1230.22812	0.96568
1228.17432	0.96552
1226.12052	0.96483
1224.06671	0.96398
1222.01291	0.96315
1219.95911	0.96237
1217.90530	0.96170
1215.85150	0.96087
1213.79770	0.95976
1211.74389	0.95843
1209.69009	0.95690
1207.63629	0.95518
1205.58248	0.95319
1203.52868	0.95096
1201.47488	0.94872
1199.42107	0.94683
1197.36727	0.94513
1195.31347	0.94311
1193.25966	0.94078
1191.20586	0.93858
1189.15206	0.93658
1187.09825	0.93429
1185.04445	0.93128
1182.99065	0.92810
1180.93685	0.92562
1178.88304	0.92407
1176.82924	0.92312
1174.77544	0.92237
1172.72163	0.92117
1170.66783	0.91893
1168.61403	0.91640
1166.56022	0.91434
1164.50642	0.91248
1162.45262	0.91106
1160.39881	0.91031
1158.34501	0.90939
1156.29121	0.90766
1154.23740	0.90558
1152.18360	0.90413
1150.12980	0.90364
1148.07599	0.90333
1146.02219	0.90273
1143.96839	0.90197
1141.91458	0.90108
1139.86078	0.89994
1137.80698	0.89846
1135.75317	0.89681
1133.69937	0.89538
1131.64557	0.89386
1129.59176	0.89182
1127.53796	0.88944
1125.48416	0.88652
1123.43036	0.88310
1121.37655	0.87989
1119.32275	0.87651
1117.26895	0.87260
1115.21514	0.86864
1113.16134	0.86479
1111.10754	0.86124
1109.05373	0.85817
1106.99993	0.85537
1104.94613	0.85267
1102.89232	0.85023
1100.83852	0.84796
1098.78472	0.84575
1096.73091	0.84399
1094.67711	0.84249
1092.62331	0.84085
1090.56950	0.83931
1088.51570	0.83788
1086.46190	0.83640
1084.40809	0.83515
1082.35429	0.83402
1080.30049	0.83239
1078.24668	0.83032
1076.19288	0.82833
1074.13908	0.82641
1072.08528	0.82399
1070.03147	0.82094
1067.97767	0.81784
1065.92387	0.81511
1063.87006	0.81282
1061.81626	0.81050
1059.76246	0.80799
1057.70865	0.80535
1055.65485	0.80213
1053.60105	0.79762
1051.54724	0.79170
1049.49344	0.78529
1047.43964	0.77893
1045.38583	0.77224
1043.33203	0.76488
1041.27823	0.75721
1039.22442	0.74977
1037.17062	0.74237
1035.11682	0.73452
1033.06301	0.72644
1031.00921	0.71904
1028.95541	0.71290
1026.90160	0.70787
1024.84780	0.70396
1022.79400	0.70133
1020.74019	0.69933
1018.68639	0.69730
1016.63259	0.69533
1014.57879	0.69345
1012.52498	0.69162
1010.47118	0.69011
1008.41738	0.68921
1006.36357	0.68874
1004.30977	0.68821
1002.25597	0.68803
1000.20216	0.68896
998.14836	0.69098
996.09456	0.69403
994.04075	0.69744
991.98695	0.70042
989.93315	0.70340
987.87934	0.70689
985.82554	0.71082
983.77174	0.71517
981.71793	0.72019
979.66413	0.72617
977.61033	0.73317
975.55652	0.74072
973.50272	0.74817
971.44892	0.75546
969.39511	0.76272
967.34131	0.76950
965.28751	0.77537
963.23371	0.78086
961.17990	0.78686
959.12610	0.79342
957.07230	0.79964
955.01849	0.80469
952.96469	0.80862
950.91089	0.81220
948.85708	0.81587
946.80328	0.81917
944.74948	0.82185
942.69567	0.82420
940.64187	0.82671
938.58807	0.82957
936.53426	0.83219
934.48046	0.83441
932.42666	0.83684
930.37285	0.83938
928.31905	0.84159
926.26525	0.84323
924.21144	0.84406
922.15764	0.84446
920.10384	0.84501
918.05003	0.84519
915.99623	0.84443
913.94243	0.84291
911.88862	0.84132
909.83482	0.84088
907.78102	0.84209
905.72722	0.84474
903.67341	0.84897
901.61961	0.85461
899.56581	0.86084
897.51200	0.86687
895.45820	0.87225
893.40440	0.87666
891.35059	0.88029
889.29679	0.88370
887.24299	0.88634
885.18918	0.88851
883.13538	0.89123
881.08158	0.89336
879.02777	0.89439
876.97397	0.89525
874.92017	0.89666
872.86636	0.89908
870.81256	0.90207
868.75876	0.90472
866.70495	0.90685
864.65115	0.90839
862.59735	0.90927
860.54354	0.91051
858.48974	0.91294
856.43594	0.91558
854.38213	0.91742
852.32833	0.91865
850.27453	0.91977
848.22073	0.92085
846.16692	0.92101
844.11312	0.91949
842.05932	0.91717
840.00551	0.91567
837.95171	0.91566
835.89791	0.91650
833.84410	0.91753
831.79030	0.91842
829.73650	0.91843
827.68269	0.91798
825.62889	0.91849
823.57509	0.91993
821.52128	0.92137
819.46748	0.92228
817.41368	0.92281
815.35987	0.92298
813.30607	0.92217
811.25227	0.92041
809.19846	0.91756
807.14466	0.91324
805.09086	0.90829
803.03705	0.90357
800.98325	0.89972
798.92945	0.89771
796.87565	0.89787
794.82184	0.89914
792.76804	0.90041
790.71424	0.90132
788.66043	0.90134
786.60663	0.90030
784.55283	0.89794
782.49902	0.89435
780.44522	0.89125
778.39142	0.88946
776.33761	0.88777
774.28381	0.88495
772.23001	0.88008
770.17620	0.87306
768.12240	0.86556
766.06860	0.85790
764.01479	0.84929
761.96099	0.84077
759.90719	0.83303
757.85338	0.82645
755.79958	0.82252
753.74578	0.82150
751.69197	0.82221
749.63817	0.82429
747.58437	0.82771
745.53056	0.83304
743.47676	0.84109
741.42296	0.85145
739.36916	0.86245
737.31535	0.87211
735.26155	0.88033
733.20775	0.88746
731.15394	0.89295
729.10014	0.89675
727.04634	0.89943
724.99253	0.90165
722.93873	0.90366
720.88493	0.90532
718.83112	0.90661
716.77732	0.90745
714.72352	0.90769
712.66971	0.90641
710.61591	0.90045
708.56211	0.88520
706.50830	0.85768
704.45450	0.81783
702.40070	0.76776
700.34689	0.71278
698.29309	0.66434
696.23929	0.64321
694.18548	0.66670
692.13168	0.72158
690.07788	0.77474
688.02408	0.80983
685.97027	0.83095
683.91647	0.84420
681.86267	0.85257
679.80886	0.85759
677.75506	0.86027
675.70126	0.86184
673.64745	0.86202
671.59365	0.86157
669.53985	0.86263
667.48604	0.86528
665.43224	0.86781
663.37844	0.87045
661.32463	0.87226
659.27083	0.87242
657.21703	0.87196
655.16322	0.87103
653.10942	0.86972
651.05562	0.86846
649.00181	0.86800
646.94801	0.86891
644.89421	0.86984
642.84040	0.87020
640.78660	0.87165
638.73280	0.87448
636.67899	0.87700
634.62519	0.87831
632.57139	0.87857
630.51759	0.87843
628.46378	0.87810
626.40998	0.87762
624.35618	0.87737
622.30237	0.87696
620.24857	0.87511
618.19477	0.87195
616.14096	0.86872
614.08716	0.86621
612.03336	0.86493
609.97955	0.86413
607.92575	0.86299
605.87195	0.86152
603.81814	0.85930
601.76434	0.85609
599.71054	0.85289
597.65673	0.85037
595.60293	0.84742
593.54913	0.84445
591.49532	0.84271
589.44152	0.84086
587.38772	0.83852
585.33391	0.83706
583.28011	0.83674
581.22631	0.83685
579.17250	0.83613
577.11870	0.83394
575.06490	0.83104
573.01110	0.82847
570.95729	0.82629
568.90349	0.82404
566.84969	0.82131
564.79588	0.81665
562.74208	0.80954
560.68828	0.80314
558.63447	0.79908
556.58067	0.79500
554.52687	0.78922
552.47306	0.78120
550.41926	0.77230
548.36546	0.76461
546.31165	0.75757
544.25785	0.74957
542.20405	0.73952
540.15024	0.72836
538.09644	0.71801
536.04264	0.71012
533.98883	0.70626
531.93503	0.70648
529.88123	0.70934
527.82742	0.71250
525.77362	0.71488
523.71982	0.71749
521.66602	0.72124
519.61221	0.72632
517.55841	0.73233
515.50461	0.73868
513.45080	0.74341
511.39700	0.74566
509.34320	0.74799
507.28939	0.75224
505.23559	0.75648
503.18179	0.75917
501.12798	0.76148
499.07418	0.76254
497.02038	0.76112
494.96657	0.75922
492.91277	0.75805
490.85897	0.75472
488.80516	0.74634
486.75136	0.73464
484.69756	0.72239
482.64375	0.70976
480.58995	0.69662
478.53615	0.68417
476.48234	0.67294
474.42854	0.66126
472.37474	0.64803
470.32093	0.63732
468.26713	0.63089
466.21333	0.62599
464.15953	0.62464
462.10572	0.62949
460.05192	0.63678
457.99812	0.64262
455.94431	0.64724
453.89051	0.65043
451.83671	0.65354
449.78290	0.65921
447.72910	0.66675
445.67530	0.67195
443.62149	0.67169
441.56769	0.67103
439.51389	0.67239
437.46008	0.67197
435.40628	0.67189
433.35248	0.67275
431.29867	0.67032
429.24487	0.66358
427.19107	0.65411
425.13726	0.64744
423.08346	0.64942
421.02966	0.65817
418.97585	0.66813
416.92205	0.67235
414.86825	0.67352
412.81445	0.67893
410.76064	0.68945
408.70684	0.69829
406.65304	0.70125
404.59923	0.70232
402.54543	0.70359
400.49163	0.70150
398.43782	0.69438
