3996.70104	0.93331
3994.64724	0.93280
3992.59344	0.93228
3990.53964	0.93219
3988.48583	0.93264
3986.43203	0.93309
3984.37823	0.93331
3982.32442	0.93331
3980.27062	0.93306
3978.21682	0.93282
3976.16301	0.93295
3974.10921	0.93339
3972.05541	0.93359
3970.00160	0.93310
3967.94780	0.93248
3965.89400	0.93264
3963.84019	0.93303
3961.78639	0.93301
3959.73259	0.93326
3957.67878	0.93389
3955.62498	0.93422
3953.57118	0.93412
3951.51737	0.93379
3949.46357	0.93355
3947.40977	0.93360
3945.35596	0.93379
3943.30216	0.93405
3941.24836	0.93422
3939.19455	0.93386
3937.14075	0.93327
3935.08695	0.93326
3933.03315	0.93388
3930.97934	0.93432
3928.92554	0.93401
3926.87174	0.93348
3924.81793	0.93345
3922.76413	0.93362
3920.71033	0.93390
3918.65652	0.93425
3916.60272	0.93389
3914.54892	0.93352
3912.49511	0.93376
3910.44131	0.93402
3908.38751	0.93415
3906.33370	0.93424
3904.27990	0.93407
3902.22610	0.93363
3900.17229	0.93336
3898.11849	0.93320
3896.06469	0.93306
3894.01088	0.93315
3891.95708	0.93332
3889.90328	0.93322
3887.84947	0.93295
3885.79567	0.93283
3883.74187	0.93342
3881.68807	0.93415
3879.63426	0.93393
3877.58046	0.93358
3875.52666	0.93406
3873.47285	0.93465
3871.41905	0.93457
3869.36525	0.93399
3867.31144	0.93346
3865.25764	0.93342
3863.20384	0.93332
3861.15003	0.93303
3859.09623	0.93327
3857.04243	0.93393
3854.98862	0.93478
3852.93482	0.93538
3850.88102	0.93529
3848.82721	0.93497
3846.77341	0.93461
3844.71961	0.93419
3842.66580	0.93370
3840.61200	0.93370
3838.55820	0.93431
3836.50439	0.93465
3834.45059	0.93419
3832.39679	0.93365
3830.34298	0.93370
3828.28918	0.93399
3826.23538	0.93413
3824.18158	0.93411
3822.12777	0.93419
3820.07397	0.93468
3818.02017	0.93501
3815.96636	0.93473
3813.91256	0.93437
3811.85876	0.93422
3809.80495	0.93406
3807.75115	0.93407
3805.69735	0.93443
3803.64354	0.93459
3801.58974	0.93432
3799.53594	0.93445
3797.48213	0.93501
3795.42833	0.93550
3793.37453	0.93564
3791.32072	0.93513
3789.26692	0.93437
3787.21312	0.93417
3785.15931	0.93464
3783.10551	0.93507
3781.05171	0.93533
3778.99790	0.93585
3776.94410	0.93616
3774.89030	0.93558
3772.83650	0.93473
3770.78269	0.93433
3768.72889	0.93450
3766.67509	0.93530
3764.62128	0.93586
3762.56748	0.93574
3760.51368	0.93525
3758.45987	0.93449
3756.40607	0.93424
3754.35227	0.93441
3752.29846	0.93433
3750.24466	0.93511
3748.19086	0.93646
3746.13705	0.93627
3744.08325	0.93565
3742.02945	0.93611
3739.97564	0.93657
3737.92184	0.93673
3735.86804	0.93626
3733.81423	0.93598
3731.76043	0.93686
3729.70663	0.93737
3727.65282	0.93740
3725.59902	0.93712
3723.54522	0.93610
3721.49141	0.93528
3719.43761	0.93541
3717.38381	0.93587
3715.33001	0.93610
3713.27620	0.93609
3711.22240	0.93564
3709.16860	0.93451
3707.11479	0.93345
3705.06099	0.93280
3703.00719	0.93228
3700.95338	0.93175
3698.89958	0.93132
3696.84578	0.93090
3694.79197	0.93060
3692.73817	0.93064
3690.68437	0.93094
3688.63056	0.93117
3686.57676	0.93165
3684.52296	0.93226
3682.46915	0.93234
3680.41535	0.93207
3678.36155	0.93170
3676.30774	0.93080
3674.25394	0.92958
3672.20014	0.92911
3670.14633	0.92918
3668.09253	0.92946
3666.03873	0.92975
3663.98492	0.92992
3661.93112	0.93019
3659.87732	0.93068
3657.82352	0.93103
3655.76971	0.93081
3653.71591	0.93016
3651.66211	0.92933
3649.60830	0.92831
3647.55450	0.92766
3645.50070	0.92740
3643.44689	0.92743
3641.39309	0.92780
3639.33929	0.92783
3637.28548	0.92726
3635.23168	0.92655
3633.17788	0.92600
3631.12407	0.92543
3629.07027	0.92418
3627.01647	0.92333
3624.96266	0.92391
3622.90886	0.92444
3620.85506	0.92404
3618.80125	0.92322
3616.74745	0.92330
3614.69365	0.92412
3612.63984	0.92470
3610.58604	0.92461
3608.53224	0.92442
3606.47844	0.92484
3604.42463	0.92505
3602.37083	0.92436
3600.31703	0.92359
3598.26322	0.92379
3596.20942	0.92453
3594.15562	0.92477
3592.10181	0.92465
3590.04801	0.92491
3587.99421	0.92523
3585.94040	0.92503
3583.88660	0.92477
3581.83280	0.92454
3579.77899	0.92427
3577.72519	0.92427
3575.67139	0.92429
3573.61758	0.92438
3571.56378	0.92486
3569.50998	0.92525
3567.45617	0.92474
3565.40237	0.92384
3563.34857	0.92383
3561.29476	0.92418
3559.24096	0.92419
3557.18716	0.92383
3555.13335	0.92306
3553.07955	0.92208
3551.02575	0.92179
3548.97195	0.92245
3546.91814	0.92286
3544.86434	0.92241
3542.81054	0.92198
3540.75673	0.92213
3538.70293	0.92265
3536.64913	0.92301
3534.59532	0.92290
3532.54152	0.92248
3530.48772	0.92193
3528.43391	0.92161
3526.38011	0.92192
3524.32631	0.92244
3522.27250	0.92256
3520.21870	0.92276
3518.16490	0.92321
3516.11109	0.92300
3514.05729	0.92229
3512.00349	0.92191
3509.94968	0.92155
3507.89588	0.92109
3505.84208	0.92113
3503.78827	0.92154
3501.73447	0.92181
3499.68067	0.92172
3497.62687	0.92149
3495.57306	0.92136
3493.51926	0.92125
3491.46546	0.92106
3489.41165	0.92091
3487.35785	0.92097
3485.30405	0.92090
3483.25024	0.92009
3481.19644	0.91925
3479.14264	0.91957
3477.08883	0.92039
3475.03503	0.92085
3472.98123	0.92104
3470.92742	0.92088
3468.87362	0.92033
3466.81982	0.91981
3464.76601	0.91943
3462.71221	0.91905
3460.65841	0.91888
3458.60460	0.91888
3456.55080	0.91883
3454.49700	0.91874
3452.44319	0.91858
3450.38939	0.91838
3448.33559	0.91837
3446.28178	0.91855
3444.22798	0.91886
3442.17418	0.91902
3440.12038	0.91901
3438.06657	0.91897
3436.01277	0.91860
3433.95897	0.91812
3431.90516	0.91818
3429.85136	0.91839
3427.79756	0.91837
3425.74375	0.91871
3423.68995	0.91931
3421.63615	0.91945
3419.58234	0.91904
3417.52854	0.91832
3415.47474	0.91794
3413.42093	0.91829
3411.36713	0.91879
3409.31333	0.91883
3407.25952	0.91850
3405.20572	0.91811
3403.15192	0.91788
3401.09811	0.91750
3399.04431	0.91683
3396.99051	0.91671
3394.93670	0.91738
3392.88290	0.91780
3390.82910	0.91785
3388.77529	0.91823
3386.72149	0.91865
3384.66769	0.91880
3382.61389	0.91886
3380.56008	0.91872
3378.50628	0.91865
3376.45248	0.91875
3374.39867	0.91873
3372.34487	0.91853
3370.29107	0.91828
3368.23726	0.91817
3366.18346	0.91817
3364.12966	0.91809
3362.07585	0.91819
3360.02205	0.91859
3357.96825	0.91871
3355.91444	0.91847
3353.86064	0.91835
3351.80684	0.91851
3349.75303	0.91856
3347.69923	0.91844
3345.64543	0.91860
3343.59162	0.91903
3341.53782	0.91919
3339.48402	0.91914
3337.43021	0.91929
3335.37641	0.91935
3333.32261	0.91923
3331.26881	0.91912
3329.21500	0.91883
3327.16120	0.91861
3325.10740	0.91855
3323.05359	0.91853
3320.99979	0.91893
3318.94599	0.91958
3316.89218	0.91979
3314.83838	0.91949
3312.78458	0.91906
3310.73077	0.91892
3308.67697	0.91900
3306.62317	0.91925
3304.56936	0.91962
3302.51556	0.91981
3300.46176	0.92019
3298.40795	0.92070
3296.35415	0.92086
3294.30035	0.92080
3292.24654	0.92034
3290.19274	0.91968
3288.13894	0.91951
3286.08513	0.91972
3284.03133	0.92007
3281.97753	0.92003
3279.92372	0.91943
3277.86992	0.91940
3275.81612	0.92029
3273.76232	0.92094
3271.70851	0.92109
3269.65471	0.92121
3267.60091	0.92107
3265.54710	0.92104
3263.49330	0.92133
3261.43950	0.92140
3259.38569	0.92130
3257.33189	0.92128
3255.27809	0.92138
3253.22428	0.92161
3251.17048	0.92178
3249.11668	0.92189
3247.06287	0.92203
3245.00907	0.92213
3242.95527	0.92226
3240.90146	0.92242
3238.84766	0.92234
3236.79386	0.92221
3234.74005	0.92243
3232.68625	0.92296
3230.63245	0.92329
3228.57864	0.92314
3226.52484	0.92280
3224.47104	0.92258
3222.41724	0.92251
3220.36343	0.92250
3218.30963	0.92271
3216.25583	0.92305
3214.20202	0.92322
3212.14822	0.92335
3210.09442	0.92332
3208.04061	0.92294
3205.98681	0.92282
3203.93301	0.92351
3201.87920	0.92436
3199.82540	0.92455
3197.77160	0.92451
3195.71779	0.92467
3193.66399	0.92456
3191.61019	0.92409
3189.55638	0.92401
3187.50258	0.92440
3185.44878	0.92487
3183.39497	0.92525
3181.34117	0.92526
3179.28737	0.92498
3177.23356	0.92481
3175.17976	0.92474
3173.12596	0.92476
3171.07215	0.92499
3169.01835	0.92533
3166.96455	0.92556
3164.91075	0.92568
3162.85694	0.92583
3160.80314	0.92587
3158.74934	0.92566
3156.69553	0.92561
3154.64173	0.92573
3152.58793	0.92584
3150.53412	0.92612
3148.48032	0.92641
3146.42652	0.92664
3144.37271	0.92703
3142.31891	0.92728
3140.26511	0.92692
3138.21130	0.92648
3136.15750	0.92656
3134.10370	0.92688
3132.04989	0.92708
3129.99609	0.92736
3127.94229	0.92784
3125.88848	0.92825
3123.83468	0.92845
3121.78088	0.92834
3119.72707	0.92808
3117.67327	0.92800
3115.61947	0.92810
3113.56566	0.92797
3111.51186	0.92747
3109.45806	0.92683
3107.40426	0.92634
3105.35045	0.92611
3103.29665	0.92584
3101.24285	0.92575
3099.18904	0.92616
3097.13524	0.92665
3095.08144	0.92666
3093.02763	0.92592
3090.97383	0.92431
3088.92003	0.92202
3086.86622	0.91953
3084.81242	0.91713
3082.75862	0.91544
3080.70481	0.91527
3078.65101	0.91634
3076.59721	0.91772
3074.54340	0.91884
3072.48960	0.91949
3070.43580	0.91936
3068.38199	0.91825
3066.32819	0.91621
3064.27439	0.91329
3062.22058	0.91009
3060.16678	0.90803
3058.11298	0.90798
3056.05918	0.90971
3054.00537	0.91249
3051.95157	0.91532
3049.89777	0.91740
3047.84396	0.91877
3045.79016	0.92007
3043.73636	0.92104
3041.68255	0.92100
3039.62875	0.91984
3037.57495	0.91766
3035.52114	0.91448
3033.46734	0.90996
3031.41354	0.90337
3029.35973	0.89522
3027.30593	0.88778
3025.25213	0.88363
3023.19832	0.88458
3021.14452	0.89054
3019.09072	0.89880
3017.03691	0.90593
3014.98311	0.91106
3012.92931	0.91504
3010.87550	0.91784
3008.82170	0.91910
3006.76790	0.91923
3004.71409	0.91898
3002.66029	0.91876
3000.60649	0.91877
2998.55269	0.91937
2996.49888	0.92070
2994.44508	0.92217
2992.39128	0.92316
2990.33747	0.92396
2988.28367	0.92521
2986.22987	0.92654
2984.17606	0.92727
2982.12226	0.92758
2980.06846	0.92766
2978.01465	0.92713
2975.96085	0.92621
2973.90705	0.92569
2971.85324	0.92574
2969.79944	0.92594
2967.74564	0.92589
2965.69183	0.92532
2963.63803	0.92441
2961.58423	0.92384
2959.53042	0.92349
2957.47662	0.92280
2955.42282	0.92177
2953.36901	0.92057
2951.31521	0.91941
2949.26141	0.91803
2947.20761	0.91597
2945.15380	0.91351
2943.10000	0.91078
2941.04620	0.90741
2938.99239	0.90334
2936.93859	0.89906
2934.88479	0.89475
2932.83098	0.88986
2930.77718	0.88434
2928.72338	0.87880
2926.66957	0.87383
2924.61577	0.86954
2922.56197	0.86637
2920.50816	0.86518
2918.45436	0.86560
2916.40056	0.86724
2914.34675	0.87046
2912.29295	0.87448
2910.23915	0.87812
2908.18534	0.88137
2906.13154	0.88464
2904.07774	0.88813
2902.02393	0.89168
2899.97013	0.89496
2897.91633	0.89793
2895.86252	0.90056
2893.80872	0.90282
2891.75492	0.90471
2889.70112	0.90614
2887.64731	0.90718
2885.59351	0.90809
2883.53971	0.90926
2881.48590	0.91051
2879.43210	0.91148
2877.37830	0.91237
2875.32449	0.91315
2873.27069	0.91381
2871.21689	0.91456
2869.16308	0.91520
2867.10928	0.91540
2865.05548	0.91491
2863.00167	0.91372
2860.94787	0.91220
2858.89407	0.91056
2856.84026	0.90841
2854.78646	0.90563
2852.73266	0.90305
2850.67885	0.90138
2848.62505	0.90098
2846.57125	0.90208
2844.51744	0.90450
2842.46364	0.90782
2840.40984	0.91153
2838.35603	0.91494
2836.30223	0.91748
2834.24843	0.91935
2832.19463	0.92093
2830.14082	0.92200
2828.08702	0.92229
2826.03322	0.92255
2823.97941	0.92354
2821.92561	0.92451
2819.87181	0.92489
2817.81800	0.92521
2815.76420	0.92585
2813.71040	0.92640
2811.65659	0.92640
2809.60279	0.92632
2807.54899	0.92656
2805.49518	0.92665
2803.44138	0.92662
2801.38758	0.92680
2799.33377	0.92705
2797.27997	0.92724
2795.22617	0.92730
2793.17236	0.92725
2791.11856	0.92738
2789.06476	0.92760
2787.01095	0.92759
2784.95715	0.92767
2782.90335	0.92821
2780.84955	0.92873
2778.79574	0.92884
2776.74194	0.92897
2774.68814	0.92922
2772.63433	0.92919
2770.58053	0.92904
2768.52673	0.92912
2766.47292	0.92910
2764.41912	0.92898
2762.36532	0.92913
2760.31151	0.92938
2758.25771	0.92962
2756.20391	0.92989
2754.15010	0.93005
2752.09630	0.93002
2750.04250	0.92990
2747.98869	0.93004
2745.93489	0.93028
2743.88109	0.93018
2741.82728	0.93004
2739.77348	0.93021
2737.71968	0.93055
2735.66587	0.93062
2733.61207	0.93026
2731.55827	0.93010
2729.50446	0.93026
2727.45066	0.93029
2725.39686	0.93026
2723.34306	0.93018
2721.28925	0.92998
2719.23545	0.92999
2717.18165	0.93027
2715.12784	0.93045
2713.07404	0.93046
2711.02024	0.93047
2708.96643	0.93065
2706.91263	0.93092
2704.85883	0.93115
2702.80502	0.93127
2700.75122	0.93112
2698.69742	0.93070
2696.64361	0.93052
2694.58981	0.93086
2692.53601	0.93132
2690.48220	0.93151
2688.42840	0.93139
2686.37460	0.93107
2684.32079	0.93085
2682.26699	0.93088
2680.21319	0.93117
2678.15938	0.93143
2676.10558	0.93139
2674.05178	0.93130
2671.99797	0.93133
2669.94417	0.93141
2667.89037	0.93149
2665.83657	0.93149
2663.78276	0.93129
2661.72896	0.93099
2659.67516	0.93102
2657.62135	0.93136
2655.56755	0.93158
2653.51375	0.93186
2651.45994	0.93198
2649.40614	0.93166
2647.35234	0.93156
2645.29853	0.93186
2643.24473	0.93210
2641.19093	0.93221
2639.13712	0.93200
2637.08332	0.93169
2635.02952	0.93174
2632.97571	0.93198
2630.92191	0.93215
2628.86811	0.93228
2626.81430	0.93232
2624.76050	0.93210
2622.70670	0.93189
2620.65289	0.93211
2618.59909	0.93254
2616.54529	0.93305
2614.49149	0.93354
2612.43768	0.93346
2610.38388	0.93282
2608.33008	0.93253
2606.27627	0.93295
2604.22247	0.93310
2602.16867	0.93254
2600.11486	0.93205
2598.06106	0.93213
2596.00726	0.93260
2593.95345	0.93288
2591.89965	0.93285
2589.84585	0.93314
2587.79204	0.93375
2585.73824	0.93402
2583.68444	0.93407
2581.63063	0.93414
2579.57683	0.93395
2577.52303	0.93364
2575.46922	0.93359
2573.41542	0.93390
2571.36162	0.93424
2569.30781	0.93414
2567.25401	0.93393
2565.20021	0.93427
2563.14640	0.93500
2561.09260	0.93540
2559.03880	0.93533
2556.98500	0.93509
2554.93119	0.93461
2552.87739	0.93407
2550.82359	0.93398
2548.76978	0.93438
2546.71598	0.93469
2544.66218	0.93428
2542.60837	0.93331
2540.55457	0.93303
2538.50077	0.93380
2536.44696	0.93444
2534.39316	0.93444
2532.33936	0.93452
2530.28555	0.93511
2528.23175	0.93546
2526.17795	0.93520
2524.12414	0.93481
2522.07034	0.93444
2520.01654	0.93411
2517.96273	0.93405
2515.90893	0.93423
2513.85513	0.93458
2511.80132	0.93510
2509.74752	0.93537
2507.69372	0.93551
2505.63992	0.93582
2503.58611	0.93607
2501.53231	0.93590
2499.47851	0.93505
2497.42470	0.93439
2495.37090	0.93468
2493.31710	0.93519
2491.26329	0.93537
2489.20949	0.93539
2487.15569	0.93530
2485.10188	0.93543
2483.04808	0.93592
2480.99428	0.93598
2478.94047	0.93569
2476.88667	0.93565
2474.83287	0.93560
2472.77906	0.93546
2470.72526	0.93522
2468.67146	0.93476
2466.61765	0.93449
2464.56385	0.93503
2462.51005	0.93617
2460.45624	0.93694
2458.40244	0.93704
2456.34864	0.93672
2454.29483	0.93614
2452.24103	0.93587
2450.18723	0.93605
2448.13343	0.93665
2446.07962	0.93753
2444.02582	0.93766
2441.97202	0.93701
2439.91821	0.93674
2437.86441	0.93700
2435.81061	0.93660
2433.75680	0.93534
2431.70300	0.93493
2429.64920	0.93577
2427.59539	0.93621
2425.54159	0.93573
2423.48779	0.93579
2421.43398	0.93672
2419.38018	0.93695
2417.32638	0.93639
2415.27257	0.93648
2413.21877	0.93719
2411.16497	0.93754
2409.11116	0.93747
2407.05736	0.93758
2405.00356	0.93759
2402.94975	0.93707
2400.89595	0.93679
2398.84215	0.93717
2396.78834	0.93759
2394.73454	0.93738
2392.68074	0.93659
2390.62694	0.93622
2388.57313	0.93655
2386.51933	0.93673
2384.46553	0.93687
2382.41172	0.93771
2380.35792	0.93850
2378.30412	0.93791
2376.25031	0.93619
2374.19651	0.93486
2372.14271	0.93503
2370.08890	0.93604
2368.03510	0.93639
2365.98130	0.93593
2363.92749	0.93503
2361.87369	0.93404
2359.81989	0.93371
2357.76608	0.93401
2355.71228	0.93484
2353.65848	0.93574
2351.60467	0.93618
2349.55087	0.93615
2347.49707	0.93580
2345.44326	0.93564
2343.38946	0.93583
2341.33566	0.93613
2339.28186	0.93680
2337.22805	0.93702
2335.17425	0.93596
2333.12045	0.93475
2331.06664	0.93462
2329.01284	0.93535
2326.95904	0.93542
2324.90523	0.93462
2322.85143	0.93460
2320.79763	0.93557
2318.74382	0.93599
2316.69002	0.93560
2314.63622	0.93560
2312.58241	0.93603
2310.52861	0.93596
2308.47481	0.93570
2306.42100	0.93604
2304.36720	0.93690
2302.31340	0.93779
2300.25959	0.93827
2298.20579	0.93840
2296.15199	0.93846
2294.09818	0.93801
2292.04438	0.93696
2289.99058	0.93645
2287.93677	0.93688
2285.88297	0.93739
2283.82917	0.93747
2281.77537	0.93751
2279.72156	0.93774
2277.66776	0.93777
2275.61396	0.93761
2273.56015	0.93804
2271.50635	0.93917
2269.45255	0.93987
2267.39874	0.93961
2265.34494	0.93869
2263.29114	0.93758
2261.23733	0.93656
2259.18353	0.93637
2257.12973	0.93780
2255.07592	0.93900
2253.02212	0.93870
2250.96832	0.93896
2248.91451	0.93984
2246.86071	0.94029
2244.80691	0.94095
2242.75310	0.94096
2240.69930	0.93973
2238.64550	0.93867
2236.59169	0.93841
2234.53789	0.93842
2232.48409	0.93812
2230.43029	0.93770
2228.37648	0.93802
2226.32268	0.93916
2224.26888	0.93980
2222.21507	0.93956
2220.16127	0.93937
2218.10747	0.94004
2216.05366	0.94188
2213.99986	0.94273
2211.94606	0.94169
2209.89225	0.94169
2207.83845	0.94262
2205.78465	0.94158
2203.73084	0.94016
2201.67704	0.94136
2199.62324	0.94362
2197.56943	0.94400
2195.51563	0.94227
2193.46183	0.93988
2191.40802	0.93930
2189.35422	0.94152
2187.30042	0.94295
2185.24661	0.94149
2183.19281	0.94101
2181.13901	0.94217
2179.08520	0.94208
2177.03140	0.94179
2174.97760	0.94148
2172.92380	0.93927
2170.86999	0.93751
2168.81619	0.93858
2166.76239	0.94011
2164.70858	0.94026
2162.65478	0.94071
2160.60098	0.94367
2158.54717	0.94741
2156.49337	0.94959
2154.43957	0.95063
2152.38576	0.94926
2150.33196	0.94587
2148.27816	0.94249
2146.22435	0.94038
2144.17055	0.94117
2142.11675	0.94360
2140.06294	0.94417
2138.00914	0.94340
2135.95534	0.94300
2133.90153	0.94290
2131.84773	0.94455
2129.79393	0.94683
2127.74012	0.94641
2125.68632	0.94368
2123.63252	0.94171
2121.57871	0.94169
2119.52491	0.94231
2117.47111	0.94208
2115.41731	0.94012
2113.36350	0.93844
2111.30970	0.93917
2109.25590	0.94063
2107.20209	0.94088
2105.14829	0.94054
2103.09449	0.94127
2101.04068	0.94239
2098.98688	0.94246
2096.93308	0.94206
2094.87927	0.94210
2092.82547	0.94262
2090.77167	0.94314
2088.71786	0.94317
2086.66406	0.94256
2084.61026	0.94163
2082.55645	0.94078
2080.50265	0.94063
2078.44885	0.94147
2076.39504	0.94233
2074.34124	0.94227
2072.28744	0.94171
2070.23363	0.94180
2068.17983	0.94271
2066.12603	0.94365
2064.07223	0.94431
2062.01842	0.94420
2059.96462	0.94295
2057.91082	0.94216
2055.85701	0.94305
2053.80321	0.94469
2051.74941	0.94557
2049.69560	0.94578
2047.64180	0.94603
2045.58800	0.94546
2043.53419	0.94484
2041.48039	0.94513
2039.42659	0.94408
2037.37278	0.94201
2035.31898	0.94195
2033.26518	0.94299
2031.21137	0.94345
2029.15757	0.94392
2027.10377	0.94357
2025.04996	0.94310
2022.99616	0.94469
2020.94236	0.94704
2018.88855	0.94891
2016.83475	0.95127
2014.78095	0.95245
2012.72714	0.95087
2010.67334	0.94864
2008.61954	0.94736
2006.56574	0.94717
2004.51193	0.94774
2002.45813	0.94697
2000.40433	0.94542
1998.35052	0.94621
1996.29672	0.94846
1994.24292	0.94958
1992.18911	0.94950
1990.13531	0.94868
1988.08151	0.94648
1986.02770	0.94367
1983.97390	0.94250
1981.92010	0.94279
1979.86629	0.94407
1977.81249	0.94733
1975.75869	0.94987
1973.70488	0.94847
1971.65108	0.94616
1969.59728	0.94592
1967.54347	0.94703
1965.48967	0.94730
1963.43587	0.94545
1961.38206	0.94267
1959.32826	0.94198
1957.27446	0.94365
1955.22066	0.94409
1953.16685	0.94246
1951.11305	0.94053
1949.05925	0.93946
1947.00544	0.93951
1944.95164	0.94030
1942.89784	0.94084
1940.84403	0.93969
1938.79023	0.93778
1936.73643	0.93727
1934.68262	0.93854
1932.62882	0.94025
1930.57502	0.94083
1928.52121	0.94033
1926.46741	0.94064
1924.41361	0.94250
1922.35980	0.94461
1920.30600	0.94548
1918.25220	0.94479
1916.19839	0.94405
1914.14459	0.94424
1912.09079	0.94455
1910.03698	0.94461
1907.98318	0.94465
1905.92938	0.94486
1903.87557	0.94484
1901.82177	0.94420
1899.76797	0.94364
1897.71417	0.94390
1895.66036	0.94445
1893.60656	0.94462
1891.55276	0.94450
1889.49895	0.94402
1887.44515	0.94342
1885.39135	0.94335
1883.33754	0.94309
1881.28374	0.94158
1879.22994	0.94022
1877.17613	0.94042
1875.12233	0.94093
1873.06853	0.94069
1871.01472	0.94031
1868.96092	0.94008
1866.90712	0.93965
1864.85331	0.93920
1862.79951	0.93981
1860.74571	0.94138
1858.69190	0.94224
1856.63810	0.94234
1854.58430	0.94295
1852.53049	0.94354
1850.47669	0.94310
1848.42289	0.94279
1846.36908	0.94339
1844.31528	0.94387
1842.26148	0.94397
1840.20768	0.94429
1838.15387	0.94484
1836.10007	0.94513
1834.04627	0.94506
1831.99246	0.94482
1829.93866	0.94408
1827.88486	0.94344
1825.83105	0.94377
1823.77725	0.94406
1821.72345	0.94354
1819.66964	0.94308
1817.61584	0.94329
1815.56204	0.94334
1813.50823	0.94278
1811.45443	0.94221
1809.40063	0.94161
1807.34682	0.94099
1805.29302	0.94043
1803.23922	0.93996
1801.18541	0.93997
1799.13161	0.94040
1797.07781	0.94050
1795.02400	0.94038
1792.97020	0.94066
1790.91640	0.94117
1788.86260	0.94174
1786.80879	0.94256
1784.75499	0.94318
1782.70119	0.94318
1780.64738	0.94316
1778.59358	0.94338
1776.53978	0.94358
1774.48597	0.94396
1772.43217	0.94460
1770.37837	0.94476
1768.32456	0.94417
1766.27076	0.94356
1764.21696	0.94362
1762.16315	0.94398
1760.10935	0.94396
1758.05555	0.94355
1756.00174	0.94280
1753.94794	0.94198
1751.89414	0.94142
1749.84033	0.94108
1747.78653	0.94073
1745.73273	0.94026
1743.67892	0.93969
1741.62512	0.93935
1739.57132	0.93940
1737.51751	0.93971
1735.46371	0.94008
1733.40991	0.93999
1731.35611	0.93969
1729.30230	0.93955
1727.24850	0.93927
1725.19470	0.93900
1723.14089	0.93896
1721.08709	0.93899
1719.03329	0.93884
1716.97948	0.93881
1714.92568	0.93970
1712.87188	0.94066
1710.81807	0.94095
1708.76427	0.94093
1706.71047	0.94100
1704.65666	0.94116
1702.60286	0.94130
1700.54906	0.94114
1698.49525	0.94040
1696.44145	0.93942
1694.38765	0.93897
1692.33384	0.93910
1690.28004	0.93886
1688.22624	0.93817
1686.17243	0.93766
1684.11863	0.93712
1682.06483	0.93624
1680.01103	0.93523
1677.95722	0.93426
1675.90342	0.93379
1673.84962	0.93378
1671.79581	0.93373
1669.74201	0.93344
1667.68821	0.93291
1665.63440	0.93241
1663.58060	0.93185
1661.52680	0.93134
1659.47299	0.93130
1657.41919	0.93152
1655.36539	0.93177
1653.31158	0.93201
1651.25778	0.93219
1649.20398	0.93226
1647.15017	0.93206
1645.09637	0.93189
1643.04257	0.93210
1640.98876	0.93242
1638.93496	0.93267
1636.88116	0.93274
1634.82735	0.93269
1632.77355	0.93282
1630.71975	0.93300
1628.66594	0.93310
1626.61214	0.93324
1624.55834	0.93343
1622.50454	0.93370
1620.45073	0.93397
1618.39693	0.93397
1616.34313	0.93358
1614.28932	0.93303
1612.23552	0.93223
1610.18172	0.93014
1608.12791	0.92533
1606.07411	0.91735
1604.02031	0.90769
1601.96650	0.90022
1599.91270	0.89939
1597.85890	0.90505
1595.80509	0.91295
1593.75129	0.91932
1591.69749	0.92338
1589.64368	0.92581
1587.58988	0.92623
1585.53608	0.92444
1583.48227	0.92247
1581.42847	0.92324
1579.37467	0.92636
1577.32086	0.92974
1575.26706	0.93230
1573.21326	0.93353
1571.15945	0.93422
1569.10565	0.93480
1567.05185	0.93533
1564.99805	0.93592
1562.94424	0.93606
1560.89044	0.93563
1558.83664	0.93513
1556.78283	0.93489
1554.72903	0.93426
1552.67523	0.93349
1550.62142	0.93294
1548.56762	0.93237
1546.51382	0.93218
1544.46001	0.93234
1542.40621	0.93207
1540.35241	0.93136
1538.29860	0.93086
1536.24480	0.93037
1534.19100	0.92977
1532.13719	0.92966
1530.08339	0.92989
1528.02959	0.92988
1525.97578	0.92947
1523.92198	0.92890
1521.86818	0.92806
1519.81437	0.92680
1517.76057	0.92568
1515.70677	0.92507
1513.65297	0.92464
1511.59916	0.92396
1509.54536	0.92319
1507.49156	0.92153
1505.43775	0.91891
1503.38395	0.91728
1501.33015	0.91449
1499.27634	0.90576
1497.22254	0.88111
1495.16874	0.84342
1493.11493	0.81905
1491.06113	0.82140
1489.00733	0.84745
1486.95352	0.87147
1484.89972	0.88347
1482.84592	0.89002
1480.79211	0.89404
1478.73831	0.89601
1476.68451	0.89680
1474.63070	0.89717
1472.57690	0.89682
1470.52310	0.89605
1468.46929	0.89574
1466.41549	0.89580
1464.36169	0.89574
1462.30788	0.89500
1460.25408	0.89267
1458.20028	0.88149
1456.14648	0.84931
1454.09267	0.81791
1452.03887	0.80336
1449.98507	0.80622
1447.93126	0.82068
1445.87746	0.83540
1443.82366	0.84639
1441.76985	0.85537
1439.71605	0.86264
1437.66225	0.86934
1435.60844	0.87607
1433.55464	0.88060
1431.50084	0.88367
1429.44703	0.88658
1427.39323	0.88893
1425.33943	0.89046
1423.28562	0.89143
1421.23182	0.89192
1419.17802	0.89242
1417.12421	0.89340
1415.07041	0.89421
1413.01661	0.89461
1410.96280	0.89498
1408.90900	0.89572
1406.85520	0.89681
1404.80139	0.89808
1402.74759	0.89931
1400.69379	0.90036
1398.63999	0.90154
1396.58618	0.90278
1394.53238	0.90343
1392.47858	0.90355
1390.42477	0.90367
1388.37097	0.90385
1386.31717	0.90396
1384.26336	0.90385
1382.20956	0.90355
1380.15576	0.90326
1378.10195	0.90315
1376.04815	0.90337
1373.99435	0.90391
1371.94054	0.90459
1369.88674	0.90548
1367.83294	0.90660
1365.77913	0.90782
1363.72533	0.90911
1361.67153	0.91031
1359.61772	0.91157
1357.56392	0.91317
1355.51012	0.91477
1353.45631	0.91587
1351.40251	0.91664
1349.34871	0.91755
1347.29491	0.91862
1345.24110	0.91963
1343.18730	0.92062
1341.13350	0.92166
1339.07969	0.92250
1337.02589	0.92297
1334.97209	0.92303
1332.91828	0.92274
1330.86448	0.92237
1328.81068	0.92225
1326.75687	0.92266
1324.70307	0.92349
1322.64927	0.92421
1320.59546	0.92445
1318.54166	0.92442
1316.48786	0.92437
1314.43405	0.92449
1312.38025	0.92481
1310.32645	0.92529
1308.27264	0.92588
1306.21884	0.92661
1304.16504	0.92739
1302.11123	0.92815
1300.05743	0.92895
1298.00363	0.92967
1295.94982	0.93020
1293.89602	0.93045
1291.84222	0.93044
1289.78842	0.93050
1287.73461	0.93081
1285.68081	0.93109
1283.62701	0.93115
1281.57320	0.93111
1279.51940	0.93085
1277.46560	0.93024
1275.41179	0.92964
1273.35799	0.92956
1271.30419	0.93022
1269.25038	0.93113
1267.19658	0.93177
1265.14278	0.93211
1263.08897	0.93232
1261.03517	0.93267
1258.98137	0.93321
1256.92756	0.93368
1254.87376	0.93397
1252.81996	0.93410
1250.76615	0.93414
1248.71235	0.93415
1246.65855	0.93407
1244.60474	0.93386
1242.55094	0.93390
1240.49714	0.93434
1238.44334	0.93466
1236.38953	0.93464
1234.33573	0.93443
1232.28193	0.93424
1230.22812	0.93423
1228.17432	0.93433
1226.12052	0.93417
1224.06671	0.93355
1222.01291	0.93284
1219.95911	0.93235
1217.90530	0.93181
1215.85150	0.93106
1213.79770	0.93015
1211.74389	0.92885
1209.69009	0.92721
1207.63629	0.92574
1205.58248	0.92443
1203.52868	0.92290
1201.47488	0.92101
1199.42107	0.91881
1197.36727	0.91648
1195.31347	0.91445
1193.25966	0.91277
1191.20586	0.91095
1189.15206	0.90882
1187.09825	0.90621
1185.04445	0.90301
1182.99065	0.89972
1180.93685	0.89737
1178.88304	0.89652
1176.82924	0.89664
1174.77544	0.89699
1172.72163	0.89674
1170.66783	0.89551
1168.61403	0.89403
1166.56022	0.89284
1164.50642	0.89174
1162.45262	0.89037
1160.39881	0.88833
1158.34501	0.88531
1156.29121	0.88173
1154.23740	0.87932
1152.18360	0.87937
1150.12980	0.88111
1148.07599	0.88266
1146.02219	0.88321
1143.96839	0.88324
1141.91458	0.88312
1139.86078	0.88293
1137.80698	0.88242
1135.75317	0.88143
1133.69937	0.88041
1131.64557	0.87931
1129.59176	0.87775
1127.53796	0.87577
1125.48416	0.87358
1123.43036	0.87098
1121.37655	0.86758
1119.32275	0.86382
1117.26895	0.86010
1115.21514	0.85648
1113.16134	0.85316
1111.10754	0.84991
1109.05373	0.84703
1106.99993	0.84522
1104.94613	0.84394
1102.89232	0.84235
1100.83852	0.84062
1098.78472	0.83913
1096.73091	0.83779
1094.67711	0.83652
1092.62331	0.83545
1090.56950	0.83418
1088.51570	0.83266
1086.46190	0.83109
1084.40809	0.82957
1082.35429	0.82853
1080.30049	0.82729
1078.24668	0.82514
1076.19288	0.82259
1074.13908	0.81978
1072.08528	0.81635
1070.03147	0.81297
1067.97767	0.81053
1065.92387	0.80902
1063.87006	0.80815
1061.81626	0.80769
1059.76246	0.80711
1057.70865	0.80605
1055.65485	0.80479
1053.60105	0.80297
1051.54724	0.80031
1049.49344	0.79728
1047.43964	0.79408
1045.38583	0.79069
1043.33203	0.78702
1041.27823	0.78324
1039.22442	0.77900
1037.17062	0.77298
1035.11682	0.76447
1033.06301	0.75437
1031.00921	0.74452
1028.95541	0.73696
1026.90160	0.73387
1024.84780	0.73546
1022.79400	0.73940
1020.74019	0.74325
1018.68639	0.74588
1016.63259	0.74727
1014.57879	0.74830
1012.52498	0.74960
1010.47118	0.75076
1008.41738	0.75127
1006.36357	0.75140
1004.30977	0.75201
1002.25597	0.75413
1000.20216	0.75809
998.14836	0.76308
996.09456	0.76808
994.04075	0.77254
991.98695	0.77665
989.93315	0.78079
987.87934	0.78521
985.82554	0.79018
983.77174	0.79525
981.71793	0.80023
979.66413	0.80564
977.61033	0.81164
975.55652	0.81809
973.50272	0.82477
971.44892	0.83082
969.39511	0.83569
967.34131	0.83980
965.28751	0.84347
963.23371	0.84750
961.17990	0.85245
959.12610	0.85703
957.07230	0.86073
955.01849	0.86430
952.96469	0.86764
950.91089	0.87004
948.85708	0.87140
946.80328	0.87228
944.74948	0.87350
942.69567	0.87521
940.64187	0.87685
938.58807	0.87871
936.53426	0.88112
934.48046	0.88333
932.42666	0.88492
930.37285	0.88643
928.31905	0.88805
926.26525	0.88948
924.21144	0.89042
922.15764	0.89061
920.10384	0.88990
918.05003	0.88839
915.99623	0.88635
913.94243	0.88344
911.88862	0.87972
909.83482	0.87639
907.78102	0.87452
905.72722	0.87505
903.67341	0.87878
901.61961	0.88507
899.56581	0.89204
897.51200	0.89833
895.45820	0.90319
893.40440	0.90663
891.35059	0.90939
889.29679	0.91141
887.24299	0.91240
885.18918	0.91190
883.13538	0.90913
881.08158	0.90397
879.02777	0.89729
876.97397	0.89096
874.92017	0.88726
872.86636	0.88801
870.81256	0.89307
868.75876	0.89966
866.70495	0.90481
864.65115	0.90773
862.59735	0.90942
860.54354	0.91115
858.48974	0.91353
856.43594	0.91580
854.38213	0.91722
852.32833	0.91840
850.27453	0.91926
848.22073	0.91916
846.16692	0.91820
844.11312	0.91663
842.05932	0.91534
840.00551	0.91523
837.95171	0.91617
835.89791	0.91802
833.84410	0.92042
831.79030	0.92233
829.73650	0.92358
827.68269	0.92447
825.62889	0.92529
823.57509	0.92611
821.52128	0.92644
819.46748	0.92691
817.41368	0.92772
815.35987	0.92775
813.30607	0.92712
811.25227	0.92616
809.19846	0.92466
807.14466	0.92259
805.09086	0.91994
803.03705	0.91712
800.98325	0.91535
798.92945	0.91527
796.87565	0.91606
794.82184	0.91661
792.76804	0.91636
790.71424	0.91484
788.66043	0.91227
786.60663	0.90974
784.55283	0.90726
782.49902	0.90406
780.44522	0.90029
778.39142	0.89570
776.33761	0.88898
774.28381	0.87988
772.23001	0.86870
770.17620	0.85563
768.12240	0.84171
766.06860	0.82762
764.01479	0.81318
761.96099	0.79841
759.90719	0.78432
757.85338	0.77333
755.79958	0.76754
753.74578	0.76675
751.69197	0.76900
749.63817	0.77274
747.58437	0.77883
745.53056	0.79010
743.47676	0.80757
741.42296	0.82799
739.36916	0.84682
737.31535	0.86240
735.26155	0.87589
733.20775	0.88752
731.15394	0.89647
729.10014	0.90312
727.04634	0.90799
724.99253	0.91105
722.93873	0.91309
720.88493	0.91448
718.83112	0.91422
716.77732	0.91129
714.72352	0.90527
712.66971	0.89658
710.61591	0.88269
708.56211	0.85559
706.50830	0.80784
704.45450	0.73788
702.40070	0.65052
700.34689	0.55440
698.29309	0.46604
696.23929	0.42271
694.18548	0.46354
692.13168	0.57237
690.07788	0.68443
688.02408	0.75877
685.97027	0.79989
683.91647	0.82338
681.86267	0.83769
679.80886	0.84741
677.75506	0.85487
675.70126	0.86001
673.64745	0.86362
671.59365	0.86696
669.53985	0.87041
667.48604	0.87339
665.43224	0.87472
663.37844	0.87591
661.32463	0.87707
659.27083	0.87767
657.21703	0.87884
655.16322	0.88003
653.10942	0.88065
651.05562	0.88196
649.00181	0.88349
646.94801	0.88483
644.89421	0.88664
642.84040	0.88798
640.78660	0.88811
638.73280	0.88768
636.67899	0.88758
634.62519	0.88761
632.57139	0.88672
630.51759	0.88567
628.46378	0.88517
626.40998	0.88415
624.35618	0.88216
622.30237	0.87952
620.24857	0.87743
618.19477	0.87704
616.14096	0.87762
614.08716	0.87771
612.03336	0.87731
609.97955	0.87706
607.92575	0.87699
605.87195	0.87668
603.81814	0.87528
601.76434	0.87271
599.71054	0.86942
597.65673	0.86638
595.60293	0.86473
593.54913	0.86381
591.49532	0.86258
589.44152	0.86130
587.38772	0.86048
585.33391	0.86052
583.28011	0.86086
581.22631	0.85955
579.17250	0.85600
577.11870	0.85157
575.06490	0.84734
573.01110	0.84359
570.95729	0.83960
568.90349	0.83448
566.84969	0.82938
564.79588	0.82553
562.74208	0.82146
560.68828	0.81543
558.63447	0.80827
556.58067	0.80220
554.52687	0.79710
552.47306	0.79090
550.41926	0.78303
548.36546	0.77444
546.31165	0.76588
544.25785	0.75575
542.20405	0.74360
540.15024	0.73322
538.09644	0.72700
536.04264	0.72611
533.98883	0.73264
531.93503	0.74458
529.88123	0.75672
527.82742	0.76683
525.77362	0.77592
523.71982	0.78399
521.66602	0.79090
519.61221	0.79788
517.55841	0.80484
515.50461	0.80981
513.45080	0.81349
511.39700	0.81835
509.34320	0.82419
507.28939	0.82871
505.23559	0.83046
503.18179	0.83162
501.12798	0.83347
499.07418	0.83391
497.02038	0.83279
494.96657	0.83149
492.91277	0.83001
490.85897	0.82669
488.80516	0.82110
486.75136	0.81465
484.69756	0.80785
482.64375	0.79924
480.58995	0.78899
478.53615	0.77931
476.48234	0.77106
474.42854	0.76535
472.37474	0.76141
470.32093	0.75805
468.26713	0.75703
466.21333	0.75970
464.15953	0.76628
462.10572	0.77278
460.05192	0.77610
457.99812	0.78217
455.94431	0.79184
453.89051	0.79786
451.83671	0.80210
449.78290	0.80632
447.72910	0.81009
445.67530	0.81347
443.62149	0.81367
441.56769	0.81120
439.51389	0.81004
437.46008	0.81125
435.40628	0.81083
433.35248	0.80660
431.29867	0.80266
429.24487	0.80042
427.19107	0.79859
425.13726	0.79838
423.08346	0.80325
421.02966	0.81021
418.97585	0.81269
416.92205	0.81576
414.86825	0.82370
412.81445	0.82957
410.76064	0.82799
408.70684	0.82308
406.65304	0.82337
404.59923	0.83027
402.54543	0.83788
400.49163	0.84171
398.43782	0.84002
