3996.70104	0.97567
3994.64724	0.97569
3992.59344	0.97526
3990.53964	0.97480
3988.48583	0.97458
3986.43203	0.97470
3984.37823	0.97491
3982.32442	0.97498
3980.27062	0.97468
3978.21682	0.97411
3976.16301	0.97411
3974.10921	0.97453
3972.05541	0.97449
3970.00160	0.97440
3967.94780	0.97472
3965.89400	0.97482
3963.84019	0.97428
3961.78639	0.97380
3959.73259	0.97402
3957.67878	0.97458
3955.62498	0.97513
3953.57118	0.97531
3951.51737	0.97504
3949.46357	0.97504
3947.40977	0.97533
3945.35596	0.97514
3943.30216	0.97445
3941.24836	0.97385
3939.19455	0.97385
3937.14075	0.97423
3935.08695	0.97445
3933.03315	0.97422
3930.97934	0.97398
3928.92554	0.97432
3926.87174	0.97469
3924.81793	0.97492
3922.76413	0.97514
3920.71033	0.97501
3918.65652	0.97460
3916.60272	0.97440
3914.54892	0.97462
3912.49511	0.97496
3910.44131	0.97523
3908.38751	0.97522
3906.33370	0.97484
3904.27990	0.97453
3902.22610	0.97458
3900.17229	0.97453
3898.11849	0.97453
3896.06469	0.97492
3894.01088	0.97548
3891.95708	0.97573
3889.90328	0.97548
3887.84947	0.97515
3885.79567	0.97471
3883.74187	0.97458
3881.68807	0.97508
3879.63426	0.97553
3877.58046	0.97553
3875.52666	0.97532
3873.47285	0.97520
3871.41905	0.97555
3869.36525	0.97604
3867.31144	0.97590
3865.25764	0.97546
3863.20384	0.97506
3861.15003	0.97466
3859.09623	0.97433
3857.04243	0.97434
3854.98862	0.97469
3852.93482	0.97504
3850.88102	0.97539
3848.82721	0.97568
3846.77341	0.97576
3844.71961	0.97567
3842.66580	0.97538
3840.61200	0.97539
3838.55820	0.97636
3836.50439	0.97727
3834.45059	0.97713
3832.39679	0.97635
3830.34298	0.97561
3828.28918	0.97550
3826.23538	0.97603
3824.18158	0.97656
3822.12777	0.97656
3820.07397	0.97610
3818.02017	0.97539
3815.96636	0.97428
3813.91256	0.97423
3811.85876	0.97527
3809.80495	0.97584
3807.75115	0.97574
3805.69735	0.97550
3803.64354	0.97522
3801.58974	0.97491
3799.53594	0.97487
3797.48213	0.97507
3795.42833	0.97503
3793.37453	0.97494
3791.32072	0.97524
3789.26692	0.97556
3787.21312	0.97561
3785.15931	0.97554
3783.10551	0.97533
3781.05171	0.97533
3778.99790	0.97578
3776.94410	0.97644
3774.89030	0.97683
3772.83650	0.97665
3770.78269	0.97644
3768.72889	0.97647
3766.67509	0.97606
3764.62128	0.97521
3762.56748	0.97513
3760.51368	0.97624
3758.45987	0.97711
3756.40607	0.97654
3754.35227	0.97537
3752.29846	0.97465
3750.24466	0.97533
3748.19086	0.97628
3746.13705	0.97618
3744.08325	0.97613
3742.02945	0.97673
3739.97564	0.97737
3737.92184	0.97813
3735.86804	0.97867
3733.81423	0.97808
3731.76043	0.97688
3729.70663	0.97617
3727.65282	0.97623
3725.59902	0.97683
3723.54522	0.97708
3721.49141	0.97666
3719.43761	0.97604
3717.38381	0.97595
3715.33001	0.97646
3713.27620	0.97659
3711.22240	0.97563
3709.16860	0.97447
3707.11479	0.97379
3705.06099	0.97312
3703.00719	0.97243
3700.95338	0.97180
3698.89958	0.97128
3696.84578	0.97090
3694.79197	0.97043
3692.73817	0.97019
3690.68437	0.97064
3688.63056	0.97131
3686.57676	0.97147
3684.52296	0.97156
3682.46915	0.97172
3680.41535	0.97191
3678.36155	0.97233
3676.30774	0.97214
3674.25394	0.97074
3672.20014	0.97012
3670.14633	0.97070
3668.09253	0.97131
3666.03873	0.97133
3663.98492	0.97147
3661.93112	0.97153
3659.87732	0.97082
3657.82352	0.96995
3655.76971	0.96932
3653.71591	0.96855
3651.66211	0.96817
3649.60830	0.96917
3647.55450	0.97000
3645.50070	0.96914
3643.44689	0.96846
3641.39309	0.96869
3639.33929	0.96890
3637.28548	0.96808
3635.23168	0.96713
3633.17788	0.96705
3631.12407	0.96745
3629.07027	0.96748
3627.01647	0.96645
3624.96266	0.96546
3622.90886	0.96485
3620.85506	0.96422
3618.80125	0.96369
3616.74745	0.96374
3614.69365	0.96391
3612.63984	0.96401
3610.58604	0.96413
3608.53224	0.96400
3606.47844	0.96397
3604.42463	0.96441
3602.37083	0.96500
3600.31703	0.96490
3598.26322	0.96394
3596.20942	0.96332
3594.15562	0.96307
3592.10181	0.96228
3590.04801	0.96124
3587.99421	0.96115
3585.94040	0.96190
3583.88660	0.96195
3581.83280	0.96158
3579.77899	0.96116
3577.72519	0.96063
3575.67139	0.96069
3573.61758	0.96105
3571.56378	0.96077
3569.50998	0.96022
3567.45617	0.95994
3565.40237	0.95991
3563.34857	0.95954
3561.29476	0.95882
3559.24096	0.95803
3557.18716	0.95734
3555.13335	0.95720
3553.07955	0.95745
3551.02575	0.95756
3548.97195	0.95745
3546.91814	0.95731
3544.86434	0.95732
3542.81054	0.95698
3540.75673	0.95633
3538.70293	0.95611
3536.64913	0.95655
3534.59532	0.95696
3532.54152	0.95648
3530.48772	0.95564
3528.43391	0.95544
3526.38011	0.95557
3524.32631	0.95593
3522.27250	0.95687
3520.21870	0.95745
3518.16490	0.95703
3516.11109	0.95637
3514.05729	0.95595
3512.00349	0.95573
3509.94968	0.95598
3507.89588	0.95638
3505.84208	0.95634
3503.78827	0.95605
3501.73447	0.95556
3499.68067	0.95483
3497.62687	0.95459
3495.57306	0.95510
3493.51926	0.95524
3491.46546	0.95476
3489.41165	0.95502
3487.35785	0.95586
3485.30405	0.95572
3483.25024	0.95498
3481.19644	0.95469
3479.14264	0.95490
3477.08883	0.95518
3475.03503	0.95505
3472.98123	0.95469
3470.92742	0.95470
3468.87362	0.95488
3466.81982	0.95477
3464.76601	0.95443
3462.71221	0.95402
3460.65841	0.95398
3458.60460	0.95440
3456.55080	0.95463
3454.49700	0.95407
3452.44319	0.95298
3450.38939	0.95273
3448.33559	0.95342
3446.28178	0.95354
3444.22798	0.95295
3442.17418	0.95285
3440.12038	0.95333
3438.06657	0.95345
3436.01277	0.95274
3433.95897	0.95187
3431.90516	0.95165
3429.85136	0.95199
3427.79756	0.95218
3425.74375	0.95199
3423.68995	0.95152
3421.63615	0.95073
3419.58234	0.95024
3417.52854	0.95043
3415.47474	0.95045
3413.42093	0.95005
3411.36713	0.95005
3409.31333	0.95041
3407.25952	0.95024
3405.20572	0.95002
3403.15192	0.95019
3401.09811	0.95003
3399.04431	0.94949
3396.99051	0.94891
3394.93670	0.94856
3392.88290	0.94885
3390.82910	0.94931
3388.77529	0.94935
3386.72149	0.94939
3384.66769	0.94988
3382.61389	0.95032
3380.56008	0.95040
3378.50628	0.95066
3376.45248	0.95082
3374.39867	0.95064
3372.34487	0.95062
3370.29107	0.95092
3368.23726	0.95122
3366.18346	0.95089
3364.12966	0.94996
3362.07585	0.94914
3360.02205	0.94908
3357.96825	0.94981
3355.91444	0.95024
3353.86064	0.95003
3351.80684	0.95033
3349.75303	0.95108
3347.69923	0.95133
3345.64543	0.95107
3343.59162	0.95071
3341.53782	0.95042
3339.48402	0.95044
3337.43021	0.95104
3335.37641	0.95155
3333.32261	0.95168
3331.26881	0.95173
3329.21500	0.95153
3327.16120	0.95122
3325.10740	0.95113
3323.05359	0.95133
3320.99979	0.95141
3318.94599	0.95122
3316.89218	0.95132
3314.83838	0.95187
3312.78458	0.95242
3310.73077	0.95265
3308.67697	0.95275
3306.62317	0.95284
3304.56936	0.95292
3302.51556	0.95287
3300.46176	0.95285
3298.40795	0.95314
3296.35415	0.95343
3294.30035	0.95348
3292.24654	0.95347
3290.19274	0.95358
3288.13894	0.95383
3286.08513	0.95402
3284.03133	0.95392
3281.97753	0.95371
3279.92372	0.95371
3277.86992	0.95384
3275.81612	0.95386
3273.76232	0.95379
3271.70851	0.95384
3269.65471	0.95422
3267.60091	0.95450
3265.54710	0.95422
3263.49330	0.95411
3261.43950	0.95457
3259.38569	0.95499
3257.33189	0.95527
3255.27809	0.95576
3253.22428	0.95599
3251.17048	0.95551
3249.11668	0.95500
3247.06287	0.95517
3245.00907	0.95563
3242.95527	0.95577
3240.90146	0.95597
3238.84766	0.95641
3236.79386	0.95649
3234.74005	0.95650
3232.68625	0.95668
3230.63245	0.95658
3228.57864	0.95637
3226.52484	0.95644
3224.47104	0.95675
3222.41724	0.95699
3220.36343	0.95668
3218.30963	0.95600
3216.25583	0.95608
3214.20202	0.95692
3212.14822	0.95734
3210.09442	0.95730
3208.04061	0.95769
3205.98681	0.95816
3203.93301	0.95811
3201.87920	0.95815
3199.82540	0.95854
3197.77160	0.95890
3195.71779	0.95916
3193.66399	0.95912
3191.61019	0.95877
3189.55638	0.95891
3187.50258	0.95965
3185.44878	0.96001
3183.39497	0.96000
3181.34117	0.96038
3179.28737	0.96065
3177.23356	0.96050
3175.17976	0.96056
3173.12596	0.96065
3171.07215	0.96070
3169.01835	0.96111
3166.96455	0.96180
3164.91075	0.96221
3162.85694	0.96199
3160.80314	0.96143
3158.74934	0.96124
3156.69553	0.96199
3154.64173	0.96300
3152.58793	0.96318
3150.53412	0.96305
3148.48032	0.96352
3146.42652	0.96378
3144.37271	0.96323
3142.31891	0.96269
3140.26511	0.96276
3138.21130	0.96346
3136.15750	0.96410
3134.10370	0.96414
3132.04989	0.96396
3129.99609	0.96379
3127.94229	0.96374
3125.88848	0.96393
3123.83468	0.96400
3121.78088	0.96403
3119.72707	0.96428
3117.67327	0.96433
3115.61947	0.96403
3113.56566	0.96387
3111.51186	0.96418
3109.45806	0.96475
3107.40426	0.96507
3105.35045	0.96515
3103.29665	0.96514
3101.24285	0.96497
3099.18904	0.96505
3097.13524	0.96549
3095.08144	0.96593
3093.02763	0.96620
3090.97383	0.96624
3088.92003	0.96623
3086.86622	0.96605
3084.81242	0.96549
3082.75862	0.96492
3080.70481	0.96505
3078.65101	0.96594
3076.59721	0.96650
3074.54340	0.96629
3072.48960	0.96599
3070.43580	0.96589
3068.38199	0.96583
3066.32819	0.96568
3064.27439	0.96566
3062.22058	0.96623
3060.16678	0.96673
3058.11298	0.96653
3056.05918	0.96623
3054.00537	0.96608
3051.95157	0.96622
3049.89777	0.96670
3047.84396	0.96696
3045.79016	0.96680
3043.73636	0.96661
3041.68255	0.96699
3039.62875	0.96763
3037.57495	0.96771
3035.52114	0.96757
3033.46734	0.96760
3031.41354	0.96759
3029.35973	0.96773
3027.30593	0.96829
3025.25213	0.96876
3023.19832	0.96842
3021.14452	0.96782
3019.09072	0.96790
3017.03691	0.96824
3014.98311	0.96832
3012.92931	0.96828
3010.87550	0.96858
3008.82170	0.96913
3006.76790	0.96937
3004.71409	0.96968
3002.66029	0.97018
3000.60649	0.97010
2998.55269	0.96971
2996.49888	0.96964
2994.44508	0.96978
2992.39128	0.96989
2990.33747	0.96974
2988.28367	0.96958
2986.22987	0.96961
2984.17606	0.96965
2982.12226	0.96991
2980.06846	0.97008
2978.01465	0.96974
2975.96085	0.96934
2973.90705	0.96900
2971.85324	0.96878
2969.79944	0.96868
2967.74564	0.96838
2965.69183	0.96795
2963.63803	0.96763
2961.58423	0.96731
2959.53042	0.96691
2957.47662	0.96671
2955.42282	0.96662
2953.36901	0.96597
2951.31521	0.96477
2949.26141	0.96365
2947.20761	0.96257
2945.15380	0.96083
2943.10000	0.95839
2941.04620	0.95552
2938.99239	0.95163
2936.93859	0.94632
2934.88479	0.94007
2932.83098	0.93268
2930.77718	0.92379
2928.72338	0.91341
2926.66957	0.90075
2924.61577	0.88473
2922.56197	0.86515
2920.50816	0.84298
2918.45436	0.82088
2916.40056	0.80357
2914.34675	0.79625
2912.29295	0.80085
2910.23915	0.81386
2908.18534	0.82938
2906.13154	0.84350
2904.07774	0.85492
2902.02393	0.86378
2899.97013	0.87064
2897.91633	0.87606
2895.86252	0.88076
2893.80872	0.88542
2891.75492	0.89020
2889.70112	0.89511
2887.64731	0.90017
2885.59351	0.90538
2883.53971	0.91079
2881.48590	0.91617
2879.43210	0.92123
2877.37830	0.92604
2875.32449	0.93057
2873.27069	0.93496
2871.21689	0.93881
2869.16308	0.94091
2867.10928	0.94133
2865.05548	0.94094
2863.00167	0.93940
2860.94787	0.93538
2858.89407	0.92757
2856.84026	0.91451
2854.78646	0.89416
2852.73266	0.86620
2850.67885	0.83612
2848.62505	0.81495
2846.57125	0.81130
2844.51744	0.82386
2842.46364	0.84411
2840.40984	0.86457
2838.35603	0.88190
2836.30223	0.89554
2834.24843	0.90613
2832.19463	0.91425
2830.14082	0.92052
2828.08702	0.92539
2826.03322	0.92924
2823.97941	0.93239
2821.92561	0.93500
2819.87181	0.93742
2817.81800	0.93958
2815.76420	0.94148
2813.71040	0.94326
2811.65659	0.94463
2809.60279	0.94562
2807.54899	0.94667
2805.49518	0.94788
2803.44138	0.94901
2801.38758	0.94999
2799.33377	0.95086
2797.27997	0.95132
2795.22617	0.95146
2793.17236	0.95179
2791.11856	0.95255
2789.06476	0.95347
2787.01095	0.95429
2784.95715	0.95503
2782.90335	0.95555
2780.84955	0.95592
2778.79574	0.95640
2776.74194	0.95675
2774.68814	0.95696
2772.63433	0.95732
2770.58053	0.95777
2768.52673	0.95805
2766.47292	0.95813
2764.41912	0.95843
2762.36532	0.95914
2760.31151	0.95970
2758.25771	0.95973
2756.20391	0.95966
2754.15010	0.95997
2752.09630	0.96047
2750.04250	0.96068
2747.98869	0.96042
2745.93489	0.96015
2743.88109	0.96030
2741.82728	0.96062
2739.77348	0.96082
2737.71968	0.96085
2735.66587	0.96078
2733.61207	0.96066
2731.55827	0.96071
2729.50446	0.96114
2727.45066	0.96176
2725.39686	0.96209
2723.34306	0.96201
2721.28925	0.96191
2719.23545	0.96195
2717.18165	0.96225
2715.12784	0.96277
2713.07404	0.96300
2711.02024	0.96284
2708.96643	0.96269
2706.91263	0.96267
2704.85883	0.96273
2702.80502	0.96292
2700.75122	0.96326
2698.69742	0.96359
2696.64361	0.96363
2694.58981	0.96354
2692.53601	0.96356
2690.48220	0.96345
2688.42840	0.96326
2686.37460	0.96326
2684.32079	0.96334
2682.26699	0.96339
2680.21319	0.96370
2678.15938	0.96439
2676.10558	0.96475
2674.05178	0.96436
2671.99797	0.96383
2669.94417	0.96371
2667.89037	0.96387
2665.83657	0.96396
2663.78276	0.96391
2661.72896	0.96368
2659.67516	0.96332
2657.62135	0.96318
2655.56755	0.96334
2653.51375	0.96370
2651.45994	0.96432
2649.40614	0.96486
2647.35234	0.96469
2645.29853	0.96405
2643.24473	0.96384
2641.19093	0.96398
2639.13712	0.96409
2637.08332	0.96439
2635.02952	0.96447
2632.97571	0.96407
2630.92191	0.96405
2628.86811	0.96445
2626.81430	0.96466
2624.76050	0.96484
2622.70670	0.96505
2620.65289	0.96514
2618.59909	0.96514
2616.54529	0.96523
2614.49149	0.96566
2612.43768	0.96611
2610.38388	0.96605
2608.33008	0.96610
2606.27627	0.96663
2604.22247	0.96686
2602.16867	0.96669
2600.11486	0.96654
2598.06106	0.96637
2596.00726	0.96615
2593.95345	0.96627
2591.89965	0.96682
2589.84585	0.96728
2587.79204	0.96734
2585.73824	0.96729
2583.68444	0.96728
2581.63063	0.96732
2579.57683	0.96745
2577.52303	0.96722
2575.46922	0.96660
2573.41542	0.96641
2571.36162	0.96683
2569.30781	0.96734
2567.25401	0.96770
2565.20021	0.96809
2563.14640	0.96838
2561.09260	0.96855
2559.03880	0.96886
2556.98500	0.96901
2554.93119	0.96897
2552.87739	0.96917
2550.82359	0.96907
2548.76978	0.96826
2546.71598	0.96762
2544.66218	0.96753
2542.60837	0.96755
2540.55457	0.96750
2538.50077	0.96745
2536.44696	0.96749
2534.39316	0.96787
2532.33936	0.96851
2530.28555	0.96904
2528.23175	0.96934
2526.17795	0.96931
2524.12414	0.96910
2522.07034	0.96871
2520.01654	0.96808
2517.96273	0.96785
2515.90893	0.96825
2513.85513	0.96855
2511.80132	0.96854
2509.74752	0.96864
2507.69372	0.96868
2505.63992	0.96876
2503.58611	0.96900
2501.53231	0.96902
2499.47851	0.96914
2497.42470	0.96922
2495.37090	0.96881
2493.31710	0.96846
2491.26329	0.96829
2489.20949	0.96817
2487.15569	0.96851
2485.10188	0.96895
2483.04808	0.96876
2480.99428	0.96858
2478.94047	0.96902
2476.88667	0.96937
2474.83287	0.96925
2472.77906	0.96928
2470.72526	0.96996
2468.67146	0.97084
2466.61765	0.97111
2464.56385	0.97074
2462.51005	0.97025
2460.45624	0.96995
2458.40244	0.96984
2456.34864	0.96972
2454.29483	0.96947
2452.24103	0.96951
2450.18723	0.96967
2448.13343	0.96959
2446.07962	0.96964
2444.02582	0.96970
2441.97202	0.96962
2439.91821	0.96968
2437.86441	0.96963
2435.81061	0.96944
2433.75680	0.96955
2431.70300	0.96983
2429.64920	0.97009
2427.59539	0.97043
2425.54159	0.97069
2423.48779	0.97084
2421.43398	0.97046
2419.38018	0.96969
2417.32638	0.96981
2415.27257	0.97058
2413.21877	0.97063
2411.16497	0.96994
2409.11116	0.96965
2407.05736	0.97008
2405.00356	0.97021
2402.94975	0.96997
2400.89595	0.97020
2398.84215	0.97060
2396.78834	0.97058
2394.73454	0.97045
2392.68074	0.97049
2390.62694	0.97069
2388.57313	0.97090
2386.51933	0.97095
2384.46553	0.97101
2382.41172	0.97095
2380.35792	0.97075
2378.30412	0.97076
2376.25031	0.97065
2374.19651	0.96985
2372.14271	0.96922
2370.08890	0.96953
2368.03510	0.96958
2365.98130	0.96953
2363.92749	0.97051
2361.87369	0.97052
2359.81989	0.96869
2357.76608	0.96775
2355.71228	0.96878
2353.65848	0.96928
2351.60467	0.96854
2349.55087	0.96820
2347.49707	0.96832
2345.44326	0.96821
2343.38946	0.96794
2341.33566	0.96816
2339.28186	0.96836
2337.22805	0.96742
2335.17425	0.96649
2333.12045	0.96695
2331.06664	0.96826
2329.01284	0.96955
2326.95904	0.96987
2324.90523	0.96853
2322.85143	0.96661
2320.79763	0.96590
2318.74382	0.96625
2316.69002	0.96687
2314.63622	0.96733
2312.58241	0.96733
2310.52861	0.96748
2308.47481	0.96803
2306.42100	0.96837
2304.36720	0.96829
2302.31340	0.96823
2300.25959	0.96843
2298.20579	0.96893
2296.15199	0.96907
2294.09818	0.96870
2292.04438	0.96899
2289.99058	0.96965
2287.93677	0.96985
2285.88297	0.96994
2283.82917	0.96987
2281.77537	0.96968
2279.72156	0.96957
2277.66776	0.96985
2275.61396	0.97091
2273.56015	0.97151
2271.50635	0.97127
2269.45255	0.97161
2267.39874	0.97253
2265.34494	0.97267
2263.29114	0.97095
2261.23733	0.96882
2259.18353	0.96880
2257.12973	0.97038
2255.07592	0.97165
2253.02212	0.97207
2250.96832	0.97185
2248.91451	0.97199
2246.86071	0.97229
2244.80691	0.97159
2242.75310	0.97116
2240.69930	0.97103
2238.64550	0.96988
2236.59169	0.96868
2234.53789	0.96891
2232.48409	0.97012
2230.43029	0.97030
2228.37648	0.96944
2226.32268	0.97032
2224.26888	0.97328
2222.21507	0.97488
2220.16127	0.97457
2218.10747	0.97442
2216.05366	0.97391
2213.99986	0.97292
2211.94606	0.97219
2209.89225	0.97113
2207.83845	0.97080
2205.78465	0.97201
2203.73084	0.97333
2201.67704	0.97390
2199.62324	0.97242
2197.56943	0.96968
2195.51563	0.96880
2193.46183	0.97006
2191.40802	0.97061
2189.35422	0.96955
2187.30042	0.96988
2185.24661	0.97090
2183.19281	0.97017
2181.13901	0.97034
2179.08520	0.97270
2177.03140	0.97406
2174.97760	0.97344
2172.92380	0.97288
2170.86999	0.97252
2168.81619	0.97259
2166.76239	0.97370
2164.70858	0.97435
2162.65478	0.97467
2160.60098	0.97540
2158.54717	0.97580
2156.49337	0.97652
2154.43957	0.97705
2152.38576	0.97733
2150.33196	0.97794
2148.27816	0.97664
2146.22435	0.97315
2144.17055	0.97069
2142.11675	0.97046
2140.06294	0.97189
2138.00914	0.97344
2135.95534	0.97346
2133.90153	0.97359
2131.84773	0.97434
2129.79393	0.97452
2127.74012	0.97459
2125.68632	0.97405
2123.63252	0.97272
2121.57871	0.97216
2119.52491	0.97267
2117.47111	0.97333
2115.41731	0.97386
2113.36350	0.97392
2111.30970	0.97336
2109.25590	0.97259
2107.20209	0.97173
2105.14829	0.97120
2103.09449	0.97124
2101.04068	0.97158
2098.98688	0.97196
2096.93308	0.97183
2094.87927	0.97127
2092.82547	0.97111
2090.77167	0.97148
2088.71786	0.97247
2086.66406	0.97372
2084.61026	0.97362
2082.55645	0.97270
2080.50265	0.97289
2078.44885	0.97351
2076.39504	0.97320
2074.34124	0.97262
2072.28744	0.97247
2070.23363	0.97283
2068.17983	0.97417
2066.12603	0.97431
2064.07223	0.97177
2062.01842	0.97013
2059.96462	0.97126
2057.91082	0.97391
2055.85701	0.97597
2053.80321	0.97592
2051.74941	0.97467
2049.69560	0.97350
2047.64180	0.97381
2045.58800	0.97484
2043.53419	0.97392
2041.48039	0.97143
2039.42659	0.97010
2037.37278	0.97082
2035.31898	0.97269
2033.26518	0.97421
2031.21137	0.97421
2029.15757	0.97399
2027.10377	0.97367
2025.04996	0.97322
2022.99616	0.97292
2020.94236	0.97191
2018.88855	0.97235
2016.83475	0.97439
2014.78095	0.97514
2012.72714	0.97583
2010.67334	0.97698
2008.61954	0.97639
2006.56574	0.97540
2004.51193	0.97524
2002.45813	0.97388
2000.40433	0.97182
1998.35052	0.97168
1996.29672	0.97325
1994.24292	0.97463
1992.18911	0.97478
1990.13531	0.97421
1988.08151	0.97472
1986.02770	0.97593
1983.97390	0.97569
1981.92010	0.97390
1979.86629	0.97249
1977.81249	0.97155
1975.75869	0.97058
1973.70488	0.97105
1971.65108	0.97283
1969.59728	0.97329
1967.54347	0.97166
1965.48967	0.97106
1963.43587	0.97245
1961.38206	0.97312
1959.32826	0.97341
1957.27446	0.97488
1955.22066	0.97579
1953.16685	0.97508
1951.11305	0.97360
1949.05925	0.97249
1947.00544	0.97288
1944.95164	0.97406
1942.89784	0.97407
1940.84403	0.97254
1938.79023	0.97095
1936.73643	0.97002
1934.68262	0.97053
1932.62882	0.97255
1930.57502	0.97361
1928.52121	0.97269
1926.46741	0.97160
1924.41361	0.97092
1922.35980	0.97073
1920.30600	0.97162
1918.25220	0.97233
1916.19839	0.97211
1914.14459	0.97213
1912.09079	0.97228
1910.03698	0.97199
1907.98318	0.97150
1905.92938	0.97115
1903.87557	0.97187
1901.82177	0.97286
1899.76797	0.97251
1897.71417	0.97187
1895.66036	0.97195
1893.60656	0.97210
1891.55276	0.97195
1889.49895	0.97216
1887.44515	0.97303
1885.39135	0.97352
1883.33754	0.97263
1881.28374	0.97125
1879.22994	0.97061
1877.17613	0.97083
1875.12233	0.97175
1873.06853	0.97261
1871.01472	0.97261
1868.96092	0.97186
1866.90712	0.97148
1864.85331	0.97172
1862.79951	0.97206
1860.74571	0.97269
1858.69190	0.97366
1856.63810	0.97391
1854.58430	0.97338
1852.53049	0.97322
1850.47669	0.97328
1848.42289	0.97301
1846.36908	0.97246
1844.31528	0.97234
1842.26148	0.97269
1840.20768	0.97258
1838.15387	0.97239
1836.10007	0.97249
1834.04627	0.97243
1831.99246	0.97207
1829.93866	0.97194
1827.88486	0.97204
1825.83105	0.97193
1823.77725	0.97131
1821.72345	0.97065
1819.66964	0.97080
1817.61584	0.97142
1815.56204	0.97167
1813.50823	0.97154
1811.45443	0.97164
1809.40063	0.97216
1807.34682	0.97262
1805.29302	0.97245
1803.23922	0.97164
1801.18541	0.97099
1799.13161	0.97083
1797.07781	0.97061
1795.02400	0.97032
1792.97020	0.97001
1790.91640	0.96989
1788.86260	0.97022
1786.80879	0.97021
1784.75499	0.96966
1782.70119	0.96939
1780.64738	0.96939
1778.59358	0.96913
1776.53978	0.96906
1774.48597	0.96954
1772.43217	0.97022
1770.37837	0.97052
1768.32456	0.97016
1766.27076	0.96975
1764.21696	0.96959
1762.16315	0.96905
1760.10935	0.96837
1758.05555	0.96820
1756.00174	0.96813
1753.94794	0.96810
1751.89414	0.96819
1749.84033	0.96824
1747.78653	0.96795
1745.73273	0.96698
1743.67892	0.96590
1741.62512	0.96534
1739.57132	0.96499
1737.51751	0.96469
1735.46371	0.96462
1733.40991	0.96475
1731.35611	0.96481
1729.30230	0.96440
1727.24850	0.96355
1725.19470	0.96293
1723.14089	0.96253
1721.08709	0.96212
1719.03329	0.96169
1716.97948	0.96095
1714.92568	0.96043
1712.87188	0.96059
1710.81807	0.96087
1708.76427	0.96106
1706.71047	0.96116
1704.65666	0.96101
1702.60286	0.96076
1700.54906	0.96045
1698.49525	0.96031
1696.44145	0.96027
1694.38765	0.95964
1692.33384	0.95896
1690.28004	0.95836
1688.22624	0.95769
1686.17243	0.95755
1684.11863	0.95796
1682.06483	0.95735
1680.01103	0.95622
1677.95722	0.95544
1675.90342	0.95475
1673.84962	0.95405
1671.79581	0.95341
1669.74201	0.95263
1667.68821	0.95208
1665.63440	0.95176
1663.58060	0.95126
1661.52680	0.95074
1659.47299	0.95052
1657.41919	0.95033
1655.36539	0.94991
1653.31158	0.94914
1651.25778	0.94876
1649.20398	0.94874
1647.15017	0.94873
1645.09637	0.94880
1643.04257	0.94866
1640.98876	0.94849
1638.93496	0.94867
1636.88116	0.94872
1634.82735	0.94760
1632.77355	0.94651
1630.71975	0.94629
1628.66594	0.94638
1626.61214	0.94625
1624.55834	0.94587
1622.50454	0.94574
1620.45073	0.94590
1618.39693	0.94618
1616.34313	0.94692
1614.28932	0.94762
1612.23552	0.94780
1610.18172	0.94793
1608.12791	0.94829
1606.07411	0.94872
1604.02031	0.94907
1601.96650	0.94921
1599.91270	0.94926
1597.85890	0.94930
1595.80509	0.94930
1593.75129	0.94955
1591.69749	0.95006
1589.64368	0.95057
1587.58988	0.95087
1585.53608	0.95078
1583.48227	0.95064
1581.42847	0.95094
1579.37467	0.95137
1577.32086	0.95150
1575.26706	0.95155
1573.21326	0.95195
1571.15945	0.95267
1569.10565	0.95343
1567.05185	0.95360
1564.99805	0.95368
1562.94424	0.95405
1560.89044	0.95459
1558.83664	0.95503
1556.78283	0.95478
1554.72903	0.95434
1552.67523	0.95395
1550.62142	0.95398
1548.56762	0.95458
1546.51382	0.95512
1544.46001	0.95504
1542.40621	0.95490
1540.35241	0.95576
1538.29860	0.95660
1536.24480	0.95683
1534.19100	0.95700
1532.13719	0.95733
1530.08339	0.95784
1528.02959	0.95811
1525.97578	0.95791
1523.92198	0.95792
1521.86818	0.95860
1519.81437	0.95929
1517.76057	0.95961
1515.70677	0.95958
1513.65297	0.95956
1511.59916	0.96010
1509.54536	0.96096
1507.49156	0.96113
1505.43775	0.96034
1503.38395	0.96025
1501.33015	0.96041
1499.27634	0.96030
1497.22254	0.96031
1495.16874	0.96082
1493.11493	0.96137
1491.06113	0.96168
1489.00733	0.96174
1486.95352	0.96158
1484.89972	0.96121
1482.84592	0.96055
1480.79211	0.95912
1478.73831	0.95529
1476.68451	0.94374
1474.63070	0.91941
1472.57690	0.89446
1470.52310	0.89219
1468.46929	0.90150
1466.41549	0.90648
1464.36169	0.90207
1462.30788	0.89821
1460.25408	0.90459
1458.20028	0.91919
1456.14648	0.93276
1454.09267	0.93798
1452.03887	0.94052
1449.98507	0.94263
1447.93126	0.94422
1445.87746	0.94509
1443.82366	0.94560
1441.76985	0.94612
1439.71605	0.94669
1437.66225	0.94717
1435.60844	0.94736
1433.55464	0.94748
1431.50084	0.94779
1429.44703	0.94824
1427.39323	0.94876
1425.33943	0.94929
1423.28562	0.94973
1421.23182	0.95010
1419.17802	0.95031
1417.12421	0.94997
1415.07041	0.94952
1413.01661	0.94944
1410.96280	0.94974
1408.90900	0.95009
1406.85520	0.95025
1404.80139	0.95056
1402.74759	0.95127
1400.69379	0.95208
1398.63999	0.95257
1396.58618	0.95276
1394.53238	0.95303
1392.47858	0.95348
1390.42477	0.95394
1388.37097	0.95413
1386.31717	0.95382
1384.26336	0.95345
1382.20956	0.95339
1380.15576	0.95331
1378.10195	0.95309
1376.04815	0.95314
1373.99435	0.95344
1371.94054	0.95336
1369.88674	0.95301
1367.83294	0.95298
1365.77913	0.95322
1363.72533	0.95347
1361.67153	0.95367
1359.61772	0.95381
1357.56392	0.95415
1355.51012	0.95473
1353.45631	0.95510
1351.40251	0.95508
1349.34871	0.95489
1347.29491	0.95511
1345.24110	0.95571
1343.18730	0.95609
1341.13350	0.95633
1339.07969	0.95650
1337.02589	0.95634
1334.97209	0.95615
1332.91828	0.95619
1330.86448	0.95617
1328.81068	0.95605
1326.75687	0.95592
1324.70307	0.95563
1322.64927	0.95532
1320.59546	0.95523
1318.54166	0.95530
1316.48786	0.95535
1314.43405	0.95535
1312.38025	0.95538
1310.32645	0.95521
1308.27264	0.95491
1306.21884	0.95496
1304.16504	0.95522
1302.11123	0.95533
1300.05743	0.95534
1298.00363	0.95520
1295.94982	0.95485
1293.89602	0.95467
1291.84222	0.95493
1289.78842	0.95526
1287.73461	0.95527
1285.68081	0.95497
1283.62701	0.95456
1281.57320	0.95423
1279.51940	0.95400
1277.46560	0.95361
1275.41179	0.95280
1273.35799	0.95195
1271.30419	0.95177
1269.25038	0.95203
1267.19658	0.95212
1265.14278	0.95206
1263.08897	0.95181
1261.03517	0.95141
1258.98137	0.95134
1256.92756	0.95162
1254.87376	0.95189
1252.81996	0.95188
1250.76615	0.95142
1248.71235	0.95076
1246.65855	0.95010
1244.60474	0.94962
1242.55094	0.94943
1240.49714	0.94926
1238.44334	0.94898
1236.38953	0.94876
1234.33573	0.94848
1232.28193	0.94792
1230.22812	0.94749
1228.17432	0.94738
1226.12052	0.94709
1224.06671	0.94646
1222.01291	0.94579
1219.95911	0.94543
1217.90530	0.94512
1215.85150	0.94403
1213.79770	0.94225
1211.74389	0.94081
1209.69009	0.93978
1207.63629	0.93867
1205.58248	0.93756
1203.52868	0.93644
1201.47488	0.93507
1199.42107	0.93339
1197.36727	0.93168
1195.31347	0.93000
1193.25966	0.92814
1191.20586	0.92614
1189.15206	0.92444
1187.09825	0.92309
1185.04445	0.92131
1182.99065	0.91901
1180.93685	0.91677
1178.88304	0.91446
1176.82924	0.91210
1174.77544	0.90986
1172.72163	0.90746
1170.66783	0.90480
1168.61403	0.90202
1166.56022	0.89935
1164.50642	0.89733
1162.45262	0.89601
1160.39881	0.89474
1158.34501	0.89338
1156.29121	0.89202
1154.23740	0.89030
1152.18360	0.88831
1150.12980	0.88645
1148.07599	0.88459
1146.02219	0.88275
1143.96839	0.88105
1141.91458	0.87952
1139.86078	0.87838
1137.80698	0.87738
1135.75317	0.87594
1133.69937	0.87427
1131.64557	0.87257
1129.59176	0.87066
1127.53796	0.86880
1125.48416	0.86675
1123.43036	0.86417
1121.37655	0.86125
1119.32275	0.85805
1117.26895	0.85493
1115.21514	0.85239
1113.16134	0.85021
1111.10754	0.84806
1109.05373	0.84594
1106.99993	0.84405
1104.94613	0.84220
1102.89232	0.83998
1100.83852	0.83799
1098.78472	0.83684
1096.73091	0.83606
1094.67711	0.83498
1092.62331	0.83374
1090.56950	0.83299
1088.51570	0.83284
1086.46190	0.83294
1084.40809	0.83305
1082.35429	0.83309
1080.30049	0.83308
1078.24668	0.83322
1076.19288	0.83344
1074.13908	0.83341
1072.08528	0.83286
1070.03147	0.83164
1067.97767	0.82996
1065.92387	0.82829
1063.87006	0.82651
1061.81626	0.82400
1059.76246	0.82112
1057.70865	0.81833
1055.65485	0.81527
1053.60105	0.81165
1051.54724	0.80764
1049.49344	0.80386
1047.43964	0.80046
1045.38583	0.79720
1043.33203	0.79404
1041.27823	0.79092
1039.22442	0.78765
1037.17062	0.78403
1035.11682	0.78037
1033.06301	0.77761
1031.00921	0.77628
1028.95541	0.77594
1026.90160	0.77633
1024.84780	0.77718
1022.79400	0.77732
1020.74019	0.77684
1018.68639	0.77658
1016.63259	0.77595
1014.57879	0.77466
1012.52498	0.77326
1010.47118	0.77175
1008.41738	0.77034
1006.36357	0.76985
1004.30977	0.77097
1002.25597	0.77340
1000.20216	0.77626
998.14836	0.77914
996.09456	0.78183
994.04075	0.78424
991.98695	0.78710
989.93315	0.79042
987.87934	0.79321
985.82554	0.79582
983.77174	0.79900
981.71793	0.80240
979.66413	0.80540
977.61033	0.80792
975.55652	0.81030
973.50272	0.81287
971.44892	0.81577
969.39511	0.81885
967.34131	0.82157
965.28751	0.82366
963.23371	0.82569
961.17990	0.82814
959.12610	0.83056
957.07230	0.83258
955.01849	0.83445
952.96469	0.83609
950.91089	0.83736
948.85708	0.83851
946.80328	0.83981
944.74948	0.84130
942.69567	0.84244
940.64187	0.84308
938.58807	0.84373
936.53426	0.84466
934.48046	0.84616
932.42666	0.84844
930.37285	0.85062
928.31905	0.85190
926.26525	0.85287
924.21144	0.85366
922.15764	0.85387
920.10384	0.85374
918.05003	0.85369
915.99623	0.85403
913.94243	0.85499
911.88862	0.85666
909.83482	0.85913
907.78102	0.86251
905.72722	0.86603
903.67341	0.86895
901.61961	0.87193
899.56581	0.87551
897.51200	0.87884
895.45820	0.88111
893.40440	0.88257
891.35059	0.88395
889.29679	0.88578
887.24299	0.88794
885.18918	0.88985
883.13538	0.89153
881.08158	0.89275
879.02777	0.89315
876.97397	0.89374
874.92017	0.89507
872.86636	0.89650
870.81256	0.89779
868.75876	0.89948
866.70495	0.90163
864.65115	0.90333
862.59735	0.90424
860.54354	0.90526
858.48974	0.90707
856.43594	0.90913
854.38213	0.91087
852.32833	0.91214
850.27453	0.91309
848.22073	0.91397
846.16692	0.91474
844.11312	0.91575
842.05932	0.91690
840.00551	0.91721
837.95171	0.91715
835.89791	0.91800
833.84410	0.91913
831.79030	0.91943
829.73650	0.91860
827.68269	0.91738
825.62889	0.91702
823.57509	0.91722
821.52128	0.91711
819.46748	0.91680
817.41368	0.91622
815.35987	0.91512
813.30607	0.91406
811.25227	0.91320
809.19846	0.91150
807.14466	0.90851
805.09086	0.90468
803.03705	0.89997
800.98325	0.89506
798.92945	0.89162
796.87565	0.89034
794.82184	0.89059
792.76804	0.89093
790.71424	0.89102
788.66043	0.89121
786.60663	0.89104
784.55283	0.89019
782.49902	0.88884
780.44522	0.88762
778.39142	0.88716
776.33761	0.88743
774.28381	0.88820
772.23001	0.88944
770.17620	0.89036
768.12240	0.89037
766.06860	0.89039
764.01479	0.89059
761.96099	0.89055
759.90719	0.89057
757.85338	0.89064
755.79958	0.89084
753.74578	0.89118
751.69197	0.89174
749.63817	0.89269
747.58437	0.89289
745.53056	0.89254
743.47676	0.89317
741.42296	0.89442
739.36916	0.89493
737.31535	0.89367
735.26155	0.88806
733.20775	0.87274
731.15394	0.85202
729.10014	0.84365
727.04634	0.85114
724.99253	0.85733
722.93873	0.84769
720.88493	0.82198
718.83112	0.79892
716.77732	0.79896
714.72352	0.81926
712.66971	0.84408
710.61591	0.86209
708.56211	0.87098
706.50830	0.87470
704.45450	0.87713
702.40070	0.87880
700.34689	0.87931
698.29309	0.87946
696.23929	0.87914
694.18548	0.87830
692.13168	0.87852
690.07788	0.87964
688.02408	0.88067
685.97027	0.88159
683.91647	0.88172
681.86267	0.88166
679.80886	0.88202
677.75506	0.88154
675.70126	0.88108
673.64745	0.88152
671.59365	0.88172
669.53985	0.88201
667.48604	0.88280
665.43224	0.88273
663.37844	0.88255
661.32463	0.88284
659.27083	0.88326
657.21703	0.88341
655.16322	0.88274
653.10942	0.88080
651.05562	0.87773
649.00181	0.87481
646.94801	0.87335
644.89421	0.87285
642.84040	0.87248
640.78660	0.87211
638.73280	0.87163
636.67899	0.87120
634.62519	0.87137
632.57139	0.87243
630.51759	0.87380
628.46378	0.87440
626.40998	0.87303
624.35618	0.87073
622.30237	0.86954
620.24857	0.86854
618.19477	0.86737
616.14096	0.86711
614.08716	0.86702
612.03336	0.86584
609.97955	0.86299
607.92575	0.85979
605.87195	0.85818
603.81814	0.85774
601.76434	0.85704
599.71054	0.85608
597.65673	0.85559
595.60293	0.85500
593.54913	0.85444
591.49532	0.85418
589.44152	0.85301
587.38772	0.85088
585.33391	0.84954
583.28011	0.84999
581.22631	0.85060
579.17250	0.85029
577.11870	0.84983
575.06490	0.85014
573.01110	0.85088
570.95729	0.85037
568.90349	0.84992
566.84969	0.85025
564.79588	0.84982
562.74208	0.85018
560.68828	0.85120
558.63447	0.84983
556.58067	0.84678
554.52687	0.84404
552.47306	0.84062
550.41926	0.83669
548.36546	0.83253
546.31165	0.82731
544.25785	0.82261
542.20405	0.81974
540.15024	0.81902
538.09644	0.81975
536.04264	0.81927
533.98883	0.81809
531.93503	0.81921
529.88123	0.82128
527.82742	0.82148
525.77362	0.82069
523.71982	0.82106
521.66602	0.82289
519.61221	0.82530
517.55841	0.82846
515.50461	0.83212
513.45080	0.83337
511.39700	0.83262
509.34320	0.83453
507.28939	0.83771
505.23559	0.83633
503.18179	0.83161
501.12798	0.82838
499.07418	0.82799
497.02038	0.82860
494.96657	0.82850
492.91277	0.82804
490.85897	0.82655
488.80516	0.82334
486.75136	0.82007
484.69756	0.81445
482.64375	0.80673
480.58995	0.80077
478.53615	0.79346
476.48234	0.78400
474.42854	0.77603
472.37474	0.76846
470.32093	0.76053
468.26713	0.75506
466.21333	0.75295
464.15953	0.75335
462.10572	0.75450
460.05192	0.75501
457.99812	0.75584
455.94431	0.75949
453.89051	0.76586
451.83671	0.77186
449.78290	0.77330
447.72910	0.77127
445.67530	0.76983
443.62149	0.76862
441.56769	0.76723
439.51389	0.76591
437.46008	0.76355
435.40628	0.76202
433.35248	0.76254
431.29867	0.76149
429.24487	0.75752
427.19107	0.75527
425.13726	0.75606
423.08346	0.75646
421.02966	0.75532
418.97585	0.75791
416.92205	0.76669
414.86825	0.77341
412.81445	0.77807
410.76064	0.78228
408.70684	0.78681
406.65304	0.79150
404.59923	0.79133
402.54543	0.78677
400.49163	0.78498
398.43782	0.78291
