3996.71440	0.99593
3994.66059	0.99612
3992.60678	0.99628
3990.55297	0.99619
3988.49916	0.99619
3986.44535	0.99677
3984.39154	0.99711
3982.33773	0.99653
3980.28391	0.99592
3978.23010	0.99595
3976.17629	0.99624
3974.12248	0.99635
3972.06867	0.99618
3970.01486	0.99600
3967.96105	0.99598
3965.90724	0.99612
3963.85343	0.99614
3961.79962	0.99602
3959.74581	0.99599
3957.69200	0.99577
3955.63819	0.99536
3953.58438	0.99515
3951.53057	0.99536
3949.47676	0.99578
3947.42295	0.99598
3945.36914	0.99586
3943.31533	0.99574
3941.26152	0.99622
3939.20771	0.99681
3937.15390	0.99654
3935.10009	0.99571
3933.04628	0.99519
3930.99247	0.99552
3928.93866	0.99590
3926.88485	0.99582
3924.83104	0.99599
3922.77723	0.99622
3920.72342	0.99584
3918.66961	0.99531
3916.61580	0.99533
3914.56199	0.99576
3912.50818	0.99628
3910.45437	0.99687
3908.40056	0.99697
3906.34675	0.99597
3904.29294	0.99504
3902.23913	0.99549
3900.18532	0.99610
3898.13151	0.99635
3896.07770	0.99653
3894.02389	0.99599
3891.97008	0.99532
3889.91627	0.99585
3887.86246	0.99641
3885.80865	0.99593
3883.75484	0.99536
3881.70103	0.99519
3879.64722	0.99516
3877.59341	0.99549
3875.53960	0.99559
3873.48579	0.99516
3871.43198	0.99489
3869.37817	0.99522
3867.32436	0.99542
3865.27055	0.99498
3863.21674	0.99497
3861.16293	0.99559
3859.10912	0.99577
3857.05531	0.99519
3855.00150	0.99383
3852.94769	0.99295
3850.89388	0.99393
3848.84007	0.99490
3846.78626	0.99550
3844.73245	0.99592
3842.67864	0.99598
3840.62483	0.99582
3838.57102	0.99557
3836.51721	0.99556
3834.46340	0.99589
3832.40959	0.99632
3830.35578	0.99667
3828.30197	0.99670
3826.24816	0.99651
3824.19435	0.99636
3822.14054	0.99607
3820.08673	0.99554
3818.03292	0.99500
3815.97911	0.99499
3813.92530	0.99589
3811.87149	0.99662
3809.81768	0.99657
3807.76387	0.99628
3805.71006	0.99667
3803.65625	0.99689
3801.60244	0.99632
3799.54863	0.99612
3797.49482	0.99626
3795.44101	0.99629
3793.38720	0.99651
3791.33339	0.99672
3789.27958	0.99659
3787.22577	0.99621
3785.17196	0.99586
3783.11815	0.99606
3781.06434	0.99640
3779.01053	0.99658
3776.95672	0.99724
3774.90291	0.99778
3772.84910	0.99740
3770.79529	0.99639
3768.74148	0.99575
3766.68767	0.99577
3764.63386	0.99608
3762.58005	0.99640
3760.52624	0.99617
3758.47243	0.99561
3756.41862	0.99544
3754.36481	0.99506
3752.31100	0.99406
3750.25719	0.99373
3748.20338	0.99392
3746.14957	0.99347
3744.09576	0.99362
3742.04195	0.99491
3739.98814	0.99586
3737.93433	0.99574
3735.88052	0.99488
3733.82671	0.99490
3731.77290	0.99534
3729.71909	0.99544
3727.66528	0.99565
3725.61147	0.99600
3723.55766	0.99603
3721.50385	0.99534
3719.45004	0.99481
3717.39623	0.99514
3715.34242	0.99537
3713.28861	0.99477
3711.23480	0.99418
3709.18099	0.99503
3707.12718	0.99635
3705.07337	0.99654
3703.01956	0.99566
3700.96575	0.99532
3698.91194	0.99603
3696.85813	0.99663
3694.80432	0.99669
3692.75051	0.99618
3690.69670	0.99546
3688.64289	0.99532
3686.58907	0.99565
3684.53526	0.99597
3682.48145	0.99607
3680.42764	0.99588
3678.37383	0.99541
3676.32002	0.99461
3674.26621	0.99438
3672.21240	0.99445
3670.15859	0.99459
3668.10478	0.99575
3666.05097	0.99669
3663.99716	0.99675
3661.94335	0.99641
3659.88954	0.99616
3657.83573	0.99640
3655.78192	0.99659
3653.72811	0.99585
3651.67430	0.99441
3649.62049	0.99339
3647.56668	0.99412
3645.51287	0.99549
3643.45906	0.99614
3641.40525	0.99643
3639.35144	0.99686
3637.29763	0.99671
3635.24382	0.99584
3633.19001	0.99505
3631.13620	0.99439
3629.08239	0.99386
3627.02858	0.99407
3624.97477	0.99452
3622.92096	0.99464
3620.86715	0.99463
3618.81334	0.99477
3616.75953	0.99477
3614.70572	0.99436
3612.65191	0.99392
3610.59810	0.99399
3608.54429	0.99487
3606.49048	0.99573
3604.43667	0.99556
3602.38286	0.99506
3600.32905	0.99492
3598.27524	0.99495
3596.22143	0.99497
3594.16762	0.99465
3592.11381	0.99381
3590.06000	0.99310
3588.00619	0.99336
3585.95238	0.99441
3583.89857	0.99489
3581.84476	0.99477
3579.79095	0.99458
3577.73714	0.99428
3575.68333	0.99429
3573.62952	0.99462
3571.57571	0.99443
3569.52190	0.99392
3567.46809	0.99383
3565.41428	0.99404
3563.36047	0.99418
3561.30666	0.99408
3559.25285	0.99384
3557.19904	0.99389
3555.14523	0.99426
3553.09142	0.99464
3551.03761	0.99471
3548.98380	0.99417
3546.92999	0.99339
3544.87618	0.99317
3542.82237	0.99339
3540.76856	0.99358
3538.71475	0.99371
3536.66094	0.99410
3534.60713	0.99462
3532.55332	0.99451
3530.49951	0.99396
3528.44570	0.99379
3526.39189	0.99367
3524.33808	0.99349
3522.28427	0.99376
3520.23046	0.99420
3518.17665	0.99427
3516.12284	0.99396
3514.06903	0.99376
3512.01522	0.99392
3509.96141	0.99395
3507.90760	0.99367
3505.85379	0.99360
3503.79998	0.99385
3501.74617	0.99389
3499.69236	0.99337
3497.63855	0.99319
3495.58474	0.99384
3493.53093	0.99435
3491.47712	0.99414
3489.42331	0.99371
3487.36950	0.99379
3485.31569	0.99410
3483.26188	0.99386
3481.20807	0.99342
3479.15426	0.99369
3477.10045	0.99395
3475.04664	0.99338
3472.99283	0.99276
3470.93902	0.99256
3468.88521	0.99249
3466.83140	0.99267
3464.77759	0.99327
3462.72378	0.99356
3460.66997	0.99327
3458.61616	0.99304
3456.56235	0.99292
3454.50854	0.99304
3452.45473	0.99335
3450.40092	0.99334
3448.34711	0.99305
3446.29330	0.99278
3444.23949	0.99262
3442.18568	0.99255
3440.13187	0.99236
3438.07806	0.99200
3436.02425	0.99207
3433.97044	0.99265
3431.91663	0.99316
3429.86282	0.99322
3427.80901	0.99279
3425.75520	0.99230
3423.70139	0.99211
3421.64758	0.99213
3419.59377	0.99237
3417.53996	0.99274
3415.48615	0.99283
3413.43234	0.99259
3411.37853	0.99265
3409.32472	0.99317
3407.27091	0.99337
3405.21710	0.99301
3403.16329	0.99257
3401.10948	0.99247
3399.05567	0.99272
3397.00186	0.99288
3394.94805	0.99283
3392.89424	0.99267
3390.84042	0.99235
3388.78661	0.99227
3386.73280	0.99238
3384.67899	0.99208
3382.62518	0.99171
3380.57137	0.99171
3378.51756	0.99195
3376.46375	0.99246
3374.40994	0.99276
3372.35613	0.99246
3370.30232	0.99206
3368.24851	0.99170
3366.19470	0.99152
3364.14089	0.99202
3362.08708	0.99247
3360.03327	0.99219
3357.97946	0.99206
3355.92565	0.99249
3353.87184	0.99270
3351.81803	0.99236
3349.76422	0.99192
3347.71041	0.99177
3345.65660	0.99209
3343.60279	0.99249
3341.54898	0.99227
3339.49517	0.99161
3337.44136	0.99119
3335.38755	0.99133
3333.33374	0.99180
3331.27993	0.99232
3329.22612	0.99249
3327.17231	0.99224
3325.11850	0.99223
3323.06469	0.99232
3321.01088	0.99198
3318.95707	0.99185
3316.90326	0.99204
3314.84945	0.99205
3312.79564	0.99200
3310.74183	0.99212
3308.68802	0.99244
3306.63421	0.99267
3304.58040	0.99256
3302.52659	0.99226
3300.47278	0.99201
3298.41897	0.99200
3296.36516	0.99211
3294.31135	0.99222
3292.25754	0.99251
3290.20373	0.99289
3288.14992	0.99301
3286.09611	0.99278
3284.04230	0.99254
3281.98849	0.99243
3279.93468	0.99241
3277.88087	0.99247
3275.82706	0.99222
3273.77325	0.99188
3271.71944	0.99204
3269.66563	0.99238
3267.61182	0.99240
3265.55801	0.99227
3263.50420	0.99244
3261.45039	0.99276
3259.39658	0.99263
3257.34277	0.99194
3255.28896	0.99139
3253.23515	0.99176
3251.18134	0.99259
3249.12753	0.99294
3247.07372	0.99260
3245.01991	0.99206
3242.96610	0.99195
3240.91229	0.99205
3238.85848	0.99194
3236.80467	0.99171
3234.75086	0.99166
3232.69705	0.99194
3230.64324	0.99236
3228.58943	0.99263
3226.53562	0.99261
3224.48181	0.99271
3222.42800	0.99298
3220.37419	0.99296
3218.32038	0.99269
3216.26657	0.99239
3214.21276	0.99233
3212.15895	0.99259
3210.10514	0.99275
3208.05133	0.99268
3205.99752	0.99297
3203.94371	0.99349
3201.88990	0.99347
3199.83609	0.99297
3197.78228	0.99272
3195.72847	0.99280
3193.67466	0.99285
3191.62085	0.99308
3189.56704	0.99355
3187.51323	0.99376
3185.45942	0.99347
3183.40561	0.99302
3181.35180	0.99270
3179.29799	0.99255
3177.24418	0.99278
3175.19037	0.99312
3173.13656	0.99304
3171.08275	0.99291
3169.02894	0.99314
3166.97513	0.99342
3164.92132	0.99353
3162.86751	0.99355
3160.81370	0.99345
3158.75989	0.99339
3156.70608	0.99354
3154.65227	0.99361
3152.59846	0.99364
3150.54465	0.99377
3148.49084	0.99394
3146.43703	0.99416
3144.38322	0.99436
3142.32941	0.99466
3140.27560	0.99482
3138.22179	0.99424
3136.16798	0.99323
3134.11417	0.99287
3132.06036	0.99321
3130.00655	0.99349
3127.95274	0.99367
3125.89893	0.99402
3123.84512	0.99438
3121.79131	0.99449
3119.73750	0.99439
3117.68369	0.99419
3115.62988	0.99400
3113.57607	0.99386
3111.52226	0.99372
3109.46845	0.99369
3107.41464	0.99382
3105.36083	0.99370
3103.30702	0.99335
3101.25321	0.99328
3099.19940	0.99362
3097.14559	0.99415
3095.09177	0.99461
3093.03796	0.99455
3090.98415	0.99391
3088.93034	0.99366
3086.87653	0.99385
3084.82272	0.99369
3082.76891	0.99371
3080.71510	0.99415
3078.66129	0.99435
3076.60748	0.99432
3074.55367	0.99417
3072.49986	0.99382
3070.44605	0.99369
3068.39224	0.99408
3066.33843	0.99446
3064.28462	0.99433
3062.23081	0.99399
3060.17700	0.99387
3058.12319	0.99399
3056.06938	0.99431
3054.01557	0.99463
3051.96176	0.99478
3049.90795	0.99483
3047.85414	0.99457
3045.80033	0.99417
3043.74652	0.99441
3041.69271	0.99482
3039.63890	0.99457
3037.58509	0.99422
3035.53128	0.99416
3033.47747	0.99394
3031.42366	0.99385
3029.36985	0.99434
3027.31604	0.99462
3025.26223	0.99411
3023.20842	0.99355
3021.15461	0.99349
3019.10080	0.99381
3017.04699	0.99425
3014.99318	0.99454
3012.93937	0.99438
3010.88556	0.99384
3008.83175	0.99361
3006.77794	0.99404
3004.72413	0.99444
3002.67032	0.99440
3000.61651	0.99423
2998.56270	0.99412
2996.50889	0.99411
2994.45508	0.99405
2992.40127	0.99380
2990.34746	0.99371
2988.29365	0.99398
2986.23984	0.99435
2984.18603	0.99435
2982.13222	0.99397
2980.07841	0.99353
2978.02460	0.99325
2975.97079	0.99361
2973.91698	0.99425
2971.86317	0.99420
2969.80936	0.99378
2967.75555	0.99356
2965.70174	0.99321
2963.64793	0.99295
2961.59412	0.99302
2959.54031	0.99285
2957.48650	0.99243
2955.43269	0.99238
2953.37888	0.99265
2951.32507	0.99257
2949.27126	0.99208
2947.21745	0.99164
2945.16364	0.99147
2943.10983	0.99116
2941.05602	0.99039
2939.00221	0.98966
2936.94840	0.98926
2934.89459	0.98904
2932.84078	0.98881
2930.78697	0.98814
2928.73316	0.98709
2926.67935	0.98612
2924.62554	0.98516
2922.57173	0.98417
2920.51792	0.98352
2918.46411	0.98334
2916.41030	0.98382
2914.35649	0.98502
2912.30268	0.98647
2910.24887	0.98774
2908.19506	0.98876
2906.14125	0.98971
2904.08744	0.99050
2902.03363	0.99093
2899.97982	0.99094
2897.92601	0.99087
2895.87220	0.99112
2893.81839	0.99130
2891.76458	0.99126
2889.71077	0.99160
2887.65696	0.99220
2885.60315	0.99253
2883.54934	0.99273
2881.49553	0.99288
2879.44172	0.99281
2877.38791	0.99262
2875.33410	0.99250
2873.28029	0.99260
2871.22648	0.99288
2869.17267	0.99302
2867.11886	0.99290
2865.06505	0.99275
2863.01124	0.99256
2860.95743	0.99196
2858.90362	0.99102
2856.84981	0.99028
2854.79600	0.98953
2852.74219	0.98852
2850.68838	0.98796
2848.63457	0.98837
2846.58076	0.98945
2844.52695	0.99087
2842.47314	0.99226
2840.41933	0.99308
2838.36552	0.99352
2836.31171	0.99395
2834.25790	0.99435
2832.20409	0.99471
2830.15028	0.99504
2828.09647	0.99530
2826.04266	0.99539
2823.98885	0.99531
2821.93504	0.99532
2819.88123	0.99564
2817.82742	0.99578
2815.77361	0.99545
2813.71980	0.99507
2811.66599	0.99502
2809.61218	0.99525
2807.55837	0.99534
2805.50456	0.99514
2803.45075	0.99503
2801.39693	0.99510
2799.34312	0.99523
2797.28931	0.99549
2795.23550	0.99563
2793.18169	0.99545
2791.12788	0.99530
2789.07407	0.99556
2787.02026	0.99600
2784.96645	0.99635
2782.91264	0.99651
2780.85883	0.99640
2778.80502	0.99623
2776.75121	0.99630
2774.69740	0.99659
2772.64359	0.99679
2770.58978	0.99664
2768.53597	0.99619
2766.48216	0.99577
2764.42835	0.99574
2762.37454	0.99625
2760.32073	0.99671
2758.26692	0.99664
2756.21311	0.99616
2754.15930	0.99563
2752.10549	0.99564
2750.05168	0.99613
2747.99787	0.99635
2745.94406	0.99621
2743.89025	0.99611
2741.83644	0.99617
2739.78263	0.99640
2737.72882	0.99671
2735.67501	0.99681
2733.62120	0.99667
2731.56739	0.99658
2729.51358	0.99652
2727.45977	0.99632
2725.40596	0.99621
2723.35215	0.99627
2721.29834	0.99605
2719.24453	0.99566
2717.19072	0.99595
2715.13691	0.99664
2713.08310	0.99687
2711.02929	0.99663
2708.97548	0.99621
2706.92167	0.99587
2704.86786	0.99591
2702.81405	0.99624
2700.76024	0.99650
2698.70643	0.99667
2696.65262	0.99681
2694.59881	0.99692
2692.54500	0.99695
2690.49119	0.99686
2688.43738	0.99671
2686.38357	0.99664
2684.32976	0.99669
2682.27595	0.99660
2680.22214	0.99628
2678.16833	0.99604
2676.11452	0.99603
2674.06071	0.99609
2672.00690	0.99609
2669.95309	0.99608
2667.89928	0.99608
2665.84547	0.99619
2663.79166	0.99647
2661.73785	0.99642
2659.68404	0.99600
2657.63023	0.99588
2655.57642	0.99588
2653.52261	0.99574
2651.46880	0.99561
2649.41499	0.99553
2647.36118	0.99558
2645.30737	0.99572
2643.25356	0.99579
2641.19975	0.99573
2639.14594	0.99575
2637.09213	0.99603
2635.03832	0.99612
2632.98451	0.99563
2630.93070	0.99520
2628.87689	0.99539
2626.82308	0.99592
2624.76927	0.99628
2622.71546	0.99632
2620.66165	0.99607
2618.60784	0.99557
2616.55403	0.99549
2614.50022	0.99610
2612.44641	0.99663
2610.39260	0.99662
2608.33879	0.99644
2606.28498	0.99641
2604.23117	0.99649
2602.17736	0.99645
2600.12355	0.99625
2598.06974	0.99607
2596.01593	0.99585
2593.96212	0.99584
2591.90831	0.99624
2589.85450	0.99665
2587.80069	0.99673
2585.74688	0.99645
2583.69307	0.99604
2581.63926	0.99590
2579.58545	0.99614
2577.53164	0.99615
2575.47783	0.99597
2573.42402	0.99616
2571.37021	0.99649
2569.31640	0.99673
2567.26259	0.99662
2565.20878	0.99620
2563.15497	0.99607
2561.10116	0.99637
2559.04735	0.99677
2556.99354	0.99680
2554.93973	0.99631
2552.88592	0.99582
2550.83211	0.99551
2548.77830	0.99536
2546.72449	0.99551
2544.67068	0.99587
2542.61687	0.99635
2540.56306	0.99690
2538.50925	0.99725
2536.45544	0.99703
2534.40163	0.99649
2532.34782	0.99638
2530.29401	0.99648
2528.24020	0.99596
2526.18639	0.99517
2524.13258	0.99453
2522.07877	0.99408
2520.02496	0.99427
2517.97115	0.99472
2515.91734	0.99505
2513.86353	0.99581
2511.80972	0.99683
2509.75591	0.99744
2507.70210	0.99738
2505.64828	0.99668
2503.59447	0.99583
2501.54066	0.99541
2499.48685	0.99540
2497.43304	0.99556
2495.37923	0.99574
2493.32542	0.99600
2491.27161	0.99656
2489.21780	0.99703
2487.16399	0.99691
2485.11018	0.99637
2483.05637	0.99591
2481.00256	0.99595
2478.94875	0.99632
2476.89494	0.99655
2474.84113	0.99684
2472.78732	0.99742
2470.73351	0.99769
2468.67970	0.99761
2466.62589	0.99774
2464.57208	0.99822
2462.51827	0.99835
2460.46446	0.99795
2458.41065	0.99769
2456.35684	0.99748
2454.30303	0.99717
2452.24922	0.99711
2450.19541	0.99734
2448.14160	0.99745
2446.08779	0.99701
2444.03398	0.99663
2441.98017	0.99723
2439.92636	0.99817
2437.87255	0.99824
2435.81874	0.99760
2433.76493	0.99738
2431.71112	0.99761
2429.65731	0.99766
2427.60350	0.99771
2425.54969	0.99755
2423.49588	0.99731
2421.44207	0.99776
2419.38826	0.99851
2417.33445	0.99881
2415.28064	0.99858
2413.22683	0.99796
2411.17302	0.99710
2409.11921	0.99656
2407.06540	0.99665
2405.01159	0.99713
2402.95778	0.99752
2400.90397	0.99756
2398.85016	0.99760
2396.79635	0.99777
2394.74254	0.99801
2392.68873	0.99818
2390.63492	0.99784
2388.58111	0.99743
2386.52730	0.99770
2384.47349	0.99798
2382.41968	0.99791
2380.36587	0.99787
2378.31206	0.99754
2376.25825	0.99737
2374.20444	0.99846
2372.15063	0.99931
2370.09682	0.99849
2368.04301	0.99808
2365.98920	0.99903
2363.93539	0.99956
2361.88158	0.99860
2359.82777	0.99753
2357.77396	0.99811
2355.72015	0.99906
2353.66634	0.99887
2351.61253	0.99837
2349.55872	0.99849
2347.50491	0.99874
2345.45110	0.99859
2343.39729	0.99820
2341.34348	0.99823
2339.28967	0.99818
2337.23586	0.99734
2335.18205	0.99694
2333.12824	0.99752
2331.07443	0.99772
2329.02062	0.99751
2326.96681	0.99747
2324.91300	0.99650
2322.85919	0.99529
2320.80538	0.99557
2318.75157	0.99630
2316.69776	0.99670
2314.64395	0.99693
2312.59014	0.99690
2310.53633	0.99682
2308.48252	0.99700
2306.42871	0.99739
2304.37490	0.99733
2302.32109	0.99656
2300.26728	0.99632
2298.21347	0.99691
2296.15966	0.99651
2294.10585	0.99533
2292.05204	0.99528
2289.99823	0.99613
2287.94442	0.99632
2285.89061	0.99614
2283.83680	0.99659
2281.78299	0.99686
2279.72918	0.99676
2277.67537	0.99700
2275.62156	0.99722
2273.56775	0.99692
2271.51394	0.99648
2269.46013	0.99632
2267.40632	0.99643
2265.35251	0.99705
2263.29870	0.99793
2261.24489	0.99836
2259.19108	0.99823
2257.13727	0.99770
2255.08346	0.99747
2253.02965	0.99807
2250.97584	0.99903
2248.92203	0.99956
2246.86822	0.99889
2244.81441	0.99842
2242.76060	0.99950
2240.70679	1.00034
2238.65298	0.99966
2236.59917	0.99801
2234.54536	0.99693
2232.49155	0.99731
2230.43774	0.99810
2228.38393	0.99840
2226.33012	0.99799
2224.27631	0.99782
2222.22250	0.99874
2220.16869	0.99944
2218.11488	0.99922
2216.06107	0.99890
2214.00726	0.99911
2211.95344	0.99990
2209.89963	0.99980
2207.84582	0.99858
2205.79201	0.99805
2203.73820	0.99763
2201.68439	0.99674
2199.63058	0.99655
2197.57677	0.99626
2195.52296	0.99563
2193.46915	0.99639
2191.41534	0.99772
2189.36153	0.99679
2187.30772	0.99467
2185.25391	0.99462
2183.20010	0.99605
2181.14629	0.99705
2179.09248	0.99798
2177.03867	1.00027
2174.98486	1.00260
2172.93105	1.00149
2170.87724	0.99767
2168.82343	0.99493
2166.76962	0.99473
2164.71581	0.99616
2162.66200	0.99821
2160.60819	1.00082
2158.55438	1.00354
2156.50057	1.00407
2154.44676	1.00186
2152.39295	1.00009
2150.33914	1.00044
2148.28533	0.99951
2146.23152	0.99654
2144.17771	0.99633
2142.12390	1.00018
2140.07009	1.00407
2138.01628	1.00450
2135.96247	1.00253
2133.90866	1.00145
2131.85485	1.00183
2129.80104	1.00182
2127.74723	1.00116
2125.69342	1.00017
2123.63961	0.99890
2121.58580	0.99818
2119.53199	0.99797
2117.47818	0.99796
2115.42437	0.99833
2113.37056	0.99901
2111.31675	0.99934
2109.26294	0.99907
2107.20913	0.99874
2105.15532	0.99852
2103.10151	0.99864
2101.04770	0.99888
2098.99389	0.99874
2096.94008	0.99863
2094.88627	0.99850
2092.83246	0.99825
2090.77865	0.99794
2088.72484	0.99742
2086.67103	0.99770
2084.61722	0.99864
2082.56341	0.99886
2080.50960	0.99835
2078.45579	0.99789
2076.40198	0.99812
2074.34817	0.99892
2072.29436	1.00005
2070.24055	1.00118
2068.18674	1.00094
2066.13293	0.99906
2064.07912	0.99719
2062.02531	0.99653
2059.97150	0.99675
2057.91769	0.99703
2055.86388	0.99737
2053.81007	0.99807
2051.75626	0.99851
2049.70245	0.99862
2047.64864	0.99943
2045.59483	1.00111
2043.54102	1.00200
2041.48721	1.00086
2039.43340	0.99785
2037.37959	0.99394
2035.32578	0.99164
2033.27197	0.99352
2031.21816	0.99828
2029.16435	1.00064
2027.11054	0.99975
2025.05673	0.99885
2023.00292	0.99767
2020.94911	0.99589
2018.89530	0.99601
2016.84149	0.99733
2014.78768	0.99706
2012.73387	0.99566
2010.68006	0.99510
2008.62625	0.99757
2006.57244	1.00166
2004.51863	1.00365
2002.46482	1.00348
2000.41101	1.00276
1998.35720	1.00203
1996.30339	1.00192
1994.24958	1.00238
1992.19577	1.00117
1990.14196	0.99871
1988.08815	0.99794
1986.03434	0.99934
1983.98053	1.00016
1981.92672	0.99887
1979.87291	0.99774
1977.81910	0.99789
1975.76529	0.99867
1973.71148	0.99956
1971.65767	0.99979
1969.60386	0.99941
1967.55005	0.99984
1965.49624	1.00113
1963.44243	1.00129
1961.38862	1.00018
1959.33481	0.99914
1957.28100	0.99880
1955.22719	0.99824
1953.17338	0.99723
1951.11957	0.99800
1949.06576	1.00023
1947.01195	1.00072
1944.95814	0.99963
1942.90433	0.99860
1940.85052	0.99826
1938.79671	0.99897
1936.74290	1.00013
1934.68909	1.00100
1932.63528	1.00079
1930.58147	0.99953
1928.52766	0.99842
1926.47385	0.99834
1924.42004	0.99924
1922.36623	1.00011
1920.31242	1.00015
1918.25861	0.99960
1916.20479	0.99939
1914.15098	0.99969
1912.09717	0.99976
1910.04336	0.99928
1907.98955	0.99821
1905.93574	0.99716
1903.88193	0.99738
1901.82812	0.99867
1899.77431	0.99912
1897.72050	0.99859
1895.66669	0.99858
1893.61288	0.99913
1891.55907	0.99898
1889.50526	0.99778
1887.45145	0.99714
1885.39764	0.99775
1883.34383	0.99812
1881.29002	0.99804
1879.23621	0.99812
1877.18240	0.99789
1875.12859	0.99759
1873.07478	0.99760
1871.02097	0.99761
1868.96716	0.99809
1866.91335	0.99910
1864.85954	0.99970
1862.80573	0.99989
1860.75192	0.99997
1858.69811	0.99956
1856.64430	0.99890
1854.59049	0.99892
1852.53668	0.99894
1850.48287	0.99791
1848.42906	0.99696
1846.37525	0.99714
1844.32144	0.99774
1842.26763	0.99830
1840.21382	0.99870
1838.16001	0.99881
1836.10620	0.99894
1834.05239	0.99911
1831.99858	0.99878
1829.94477	0.99836
1827.89096	0.99866
1825.83715	0.99868
1823.78334	0.99811
1821.72953	0.99798
1819.67572	0.99815
1817.62191	0.99848
1815.56810	0.99893
1813.51429	0.99863
1811.46048	0.99784
1809.40667	0.99754
1807.35286	0.99758
1805.29905	0.99778
1803.24524	0.99792
1801.19143	0.99738
1799.13762	0.99664
1797.08381	0.99634
1795.03000	0.99586
1792.97619	0.99461
1790.92238	0.99352
1788.86857	0.99352
1786.81476	0.99360
1784.76095	0.99354
1782.70714	0.99384
1780.65333	0.99420
1778.59952	0.99470
1776.54571	0.99545
1774.49190	0.99589
1772.43809	0.99595
1770.38428	0.99645
1768.33047	0.99742
1766.27666	0.99804
1764.22285	0.99766
1762.16904	0.99668
1760.11523	0.99620
1758.06142	0.99610
1756.00761	0.99612
1753.95380	0.99598
1751.89999	0.99499
1749.84618	0.99381
1747.79237	0.99384
1745.73856	0.99452
1743.68475	0.99506
1741.63094	0.99518
1739.57713	0.99497
1737.52332	0.99491
1735.46951	0.99468
1733.41570	0.99425
1731.36189	0.99471
1729.30808	0.99561
1727.25427	0.99614
1725.20046	0.99613
1723.14665	0.99585
1721.09284	0.99552
1719.03903	0.99505
1716.98522	0.99452
1714.93141	0.99420
1712.87760	0.99407
1710.82379	0.99423
1708.76998	0.99446
1706.71617	0.99453
1704.66236	0.99451
1702.60855	0.99415
1700.55474	0.99335
1698.50093	0.99293
1696.44712	0.99320
1694.39331	0.99376
1692.33950	0.99382
1690.28569	0.99326
1688.23188	0.99275
1686.17807	0.99223
1684.12426	0.99160
1682.07045	0.99179
1680.01664	0.99219
1677.96283	0.99218
1675.90902	0.99199
1673.85521	0.99201
1671.80140	0.99200
1669.74759	0.99180
1667.69378	0.99160
1665.63997	0.99134
1663.58616	0.99106
1661.53235	0.99141
1659.47854	0.99197
1657.42473	0.99162
1655.37092	0.99024
1653.31711	0.98875
1651.26330	0.98885
1649.20949	0.98904
1647.15568	0.98912
1645.10187	0.98997
1643.04806	0.99063
1640.99425	0.99063
1638.94044	0.99020
1636.88663	0.98966
1634.83282	0.98961
1632.77901	0.98990
1630.72520	0.99019
1628.67139	0.99057
1626.61758	0.99067
1624.56377	0.99012
1622.50996	0.98970
1620.45614	0.98975
1618.40233	0.98943
1616.34852	0.98919
1614.29471	0.98970
1612.24090	0.98996
1610.18709	0.98973
1608.13328	0.98949
1606.07947	0.98931
1604.02566	0.98921
1601.97185	0.98942
1599.91804	0.98964
1597.86423	0.98949
1595.81042	0.98933
1593.75661	0.98918
1591.70280	0.98868
1589.64899	0.98816
1587.59518	0.98773
1585.54137	0.98702
1583.48756	0.98608
1581.43375	0.98509
1579.37994	0.98373
1577.32613	0.98155
1575.27232	0.97888
1573.21851	0.97707
1571.16470	0.97560
1569.11089	0.97412
1567.05708	0.97330
1565.00327	0.97239
1562.94946	0.97066
1560.89565	0.96796
1558.84184	0.96500
1556.78803	0.96482
1554.73422	0.96522
1552.68041	0.96453
1550.62660	0.96319
1548.57279	0.96211
1546.51898	0.96107
1544.46517	0.95923
1542.41136	0.95725
1540.35755	0.95633
1538.30374	0.95681
1536.24993	0.95709
1534.19612	0.95662
1532.14231	0.95643
1530.08850	0.95644
1528.03469	0.95586
1525.98088	0.95489
1523.92707	0.95345
1521.87326	0.95174
1519.81945	0.95103
1517.76564	0.95092
1515.71183	0.95093
1513.65802	0.95092
1511.60421	0.95023
1509.55040	0.94843
1507.49659	0.94657
1505.44278	0.94745
1503.38897	0.94864
1501.33516	0.94842
1499.28135	0.94742
1497.22754	0.94652
1495.17373	0.94625
1493.11992	0.94566
1491.06611	0.94412
1489.01230	0.94289
1486.95849	0.94293
1484.90468	0.94290
1482.85087	0.94219
1480.79706	0.94116
1478.74325	0.93999
1476.68944	0.93837
1474.63563	0.93618
1472.58182	0.93423
1470.52801	0.93372
1468.47420	0.93351
1466.42039	0.93266
1464.36658	0.93159
1462.31277	0.93072
1460.25896	0.92958
1458.20515	0.92784
1456.15134	0.92710
1454.09753	0.92778
1452.04372	0.92789
1449.98991	0.92732
1447.93610	0.92690
1445.88229	0.92687
1443.82848	0.92650
1441.77467	0.92549
1439.72086	0.92427
1437.66705	0.92316
1435.61324	0.92253
1433.55943	0.92226
1431.50562	0.92194
1429.45181	0.92191
1427.39800	0.92198
1425.34419	0.92169
1423.29038	0.92121
1421.23657	0.92049
1419.18276	0.91961
1417.12895	0.91982
1415.07514	0.92084
1413.02133	0.92147
1410.96752	0.92160
1408.91371	0.92171
1406.85990	0.92204
1404.80609	0.92242
1402.75228	0.92253
1400.69847	0.92220
1398.64466	0.92161
1396.59085	0.92136
1394.53704	0.92187
1392.48323	0.92261
1390.42942	0.92297
1388.37561	0.92312
1386.32180	0.92332
1384.26799	0.92350
1382.21418	0.92342
1380.16037	0.92320
1378.10656	0.92330
1376.05275	0.92370
1373.99894	0.92404
1371.94513	0.92429
1369.89132	0.92441
1367.83751	0.92449
1365.78370	0.92453
1363.72989	0.92446
1361.67608	0.92479
1359.62227	0.92547
1357.56846	0.92591
1355.51465	0.92617
1353.46084	0.92650
1351.40703	0.92674
1349.35322	0.92691
1347.29941	0.92728
1345.24560	0.92781
1343.19179	0.92802
1341.13798	0.92778
1339.08417	0.92776
1337.03036	0.92815
1334.97655	0.92867
1332.92274	0.92925
1330.86893	0.92966
1328.81512	0.92991
1326.76130	0.93018
1324.70749	0.93039
1322.65368	0.93045
1320.59987	0.93028
1318.54606	0.93007
1316.49225	0.93021
1314.43844	0.93056
1312.38463	0.93092
1310.33082	0.93140
1308.27701	0.93191
1306.22320	0.93220
1304.16939	0.93217
1302.11558	0.93200
1300.06177	0.93215
1298.00796	0.93264
1295.95415	0.93310
1293.90034	0.93339
1291.84653	0.93350
1289.79272	0.93336
1287.73891	0.93319
1285.68510	0.93320
1283.63129	0.93327
1281.57748	0.93332
1279.52367	0.93340
1277.46986	0.93363
1275.41605	0.93381
1273.36224	0.93388
1271.30843	0.93392
1269.25462	0.93389
1267.20081	0.93396
1265.14700	0.93413
1263.09319	0.93421
1261.03938	0.93429
1258.98557	0.93469
1256.93176	0.93518
1254.87795	0.93536
1252.82414	0.93536
1250.77033	0.93547
1248.71652	0.93570
1246.66271	0.93580
1244.60890	0.93591
1242.55509	0.93616
1240.50128	0.93617
1238.44747	0.93610
1236.39366	0.93640
1234.33985	0.93686
1232.28604	0.93720
1230.23223	0.93751
1228.17842	0.93771
1226.12461	0.93772
1224.07080	0.93763
1222.01699	0.93752
1219.96318	0.93745
1217.90937	0.93737
1215.85556	0.93725
1213.80175	0.93728
1211.74794	0.93753
1209.69413	0.93784
1207.64032	0.93821
1205.58651	0.93863
1203.53270	0.93893
1201.47889	0.93897
1199.42508	0.93913
1197.37127	0.93985
1195.31746	0.94076
1193.26365	0.94104
1191.20984	0.94079
1189.15603	0.94068
1187.10222	0.94083
1185.04841	0.94094
1182.99460	0.94075
1180.94079	0.94054
1178.88698	0.94066
1176.83317	0.94083
1174.77936	0.94075
1172.72555	0.94072
1170.67174	0.94108
1168.61793	0.94148
1166.56412	0.94146
1164.51031	0.94124
1162.45650	0.94124
1160.40269	0.94155
1158.34888	0.94200
1156.29507	0.94235
1154.24126	0.94246
1152.18745	0.94242
1150.13364	0.94235
1148.07983	0.94233
1146.02602	0.94239
1143.97221	0.94261
1141.91840	0.94312
1139.86459	0.94373
1137.81078	0.94413
1135.75697	0.94418
1133.70316	0.94405
1131.64935	0.94397
1129.59554	0.94379
1127.54173	0.94352
1125.48792	0.94362
1123.43411	0.94374
1121.38030	0.94356
1119.32649	0.94362
1117.27268	0.94390
1115.21887	0.94395
1113.16506	0.94376
1111.11125	0.94381
1109.05744	0.94429
1107.00363	0.94448
1104.94982	0.94407
1102.89601	0.94404
1100.84220	0.94472
1098.78839	0.94505
1096.73458	0.94501
1094.68077	0.94537
1092.62696	0.94572
1090.57315	0.94569
1088.51934	0.94511
1086.46553	0.94218
1084.41172	0.93606
1082.35791	0.93145
1080.30410	0.93292
1078.25029	0.93731
1076.19648	0.94046
1074.14267	0.94231
1072.08886	0.94356
1070.03505	0.94422
1067.98124	0.94430
1065.92743	0.94420
1063.87362	0.94415
1061.81981	0.94416
1059.76600	0.94441
1057.71219	0.94481
1055.65838	0.94521
1053.60457	0.94549
1051.55076	0.94507
1049.49695	0.94413
1047.44314	0.94379
1045.38933	0.94437
1043.33552	0.94508
1041.28171	0.94544
1039.22790	0.94575
1037.17409	0.94597
1035.12028	0.94568
1033.06647	0.94512
1031.01265	0.94511
1028.95884	0.94592
1026.90503	0.94662
1024.85122	0.94658
1022.79741	0.94627
1020.74360	0.94609
1018.68979	0.94637
1016.63598	0.94701
1014.58217	0.94745
1012.52836	0.94769
1010.47455	0.94774
1008.42074	0.94781
1006.36693	0.94830
1004.31312	0.94883
1002.25931	0.94939
1000.20550	0.95020
998.15169	0.95076
996.09788	0.95102
994.04407	0.95141
991.99026	0.95170
989.93645	0.95169
987.88264	0.95194
985.82883	0.95266
983.77502	0.95346
981.72121	0.95417
979.66740	0.95491
977.61359	0.95525
975.55978	0.95508
973.50597	0.95506
971.45216	0.95529
969.39835	0.95564
967.34454	0.95620
965.29073	0.95664
963.23692	0.95715
961.18311	0.95812
959.12930	0.95882
957.07549	0.95874
955.02168	0.95857
952.96787	0.95891
950.91406	0.95942
948.86025	0.95984
946.80644	0.96031
944.75263	0.96071
942.69882	0.96112
940.64501	0.96167
938.59120	0.96219
936.53739	0.96226
934.48358	0.96194
932.42977	0.96203
930.37596	0.96252
928.32215	0.96288
926.26834	0.96299
924.21453	0.96284
922.16072	0.96272
920.10691	0.96302
918.05310	0.96371
915.99929	0.96428
913.94548	0.96425
911.89167	0.96378
909.83786	0.96339
907.78405	0.96340
905.73024	0.96395
903.67643	0.96485
901.62262	0.96561
899.56881	0.96592
897.51500	0.96597
895.46119	0.96647
893.40738	0.96745
891.35357	0.96810
889.29976	0.96823
887.24595	0.96821
885.19214	0.96820
883.13833	0.96847
881.08452	0.96849
879.03071	0.96765
876.97690	0.96613
874.92309	0.96264
872.86928	0.95556
870.81547	0.94569
868.76166	0.93508
866.70785	0.92490
864.65404	0.91556
862.60023	0.90750
860.54642	0.90081
858.49261	0.89484
856.43880	0.88946
854.38499	0.88538
852.33118	0.88356
850.27737	0.88466
848.22356	0.88841
846.16975	0.89236
844.11594	0.89377
842.06213	0.89417
840.00832	0.89628
837.95451	0.89928
835.90070	0.90182
833.84689	0.90406
831.79308	0.90636
829.73927	0.90858
827.68546	0.91020
825.63165	0.91143
823.57784	0.91313
821.52403	0.91538
819.47022	0.91763
817.41641	0.92000
815.36260	0.92273
813.30879	0.92551
811.25498	0.92862
809.20117	0.93163
807.14736	0.93397
805.09355	0.93588
803.03974	0.93784
800.98593	0.94021
798.93212	0.94246
796.87831	0.94417
794.82450	0.94550
792.77069	0.94630
790.71688	0.94711
788.66307	0.94860
786.60926	0.95019
784.55545	0.95168
782.50164	0.95316
780.44783	0.95376
778.39402	0.95367
776.34021	0.95433
774.28640	0.95606
772.23259	0.95782
770.17878	0.95850
768.12497	0.95854
766.07116	0.95938
764.01735	0.96107
761.96354	0.96236
759.90973	0.96301
757.85592	0.96345
755.80211	0.96366
753.74830	0.96404
751.69449	0.96473
749.64068	0.96557
747.58687	0.96634
745.53306	0.96644
743.47925	0.96686
741.42544	0.96834
739.37163	0.96939
737.31781	0.96965
735.26400	0.96989
733.21019	0.96993
731.15638	0.97008
729.10257	0.97050
727.04876	0.97064
724.99495	0.97080
722.94114	0.97100
720.88733	0.96993
718.83352	0.96651
716.77971	0.95747
714.72590	0.93944
712.67209	0.92161
710.61828	0.91894
708.56447	0.93008
706.51066	0.94272
704.45685	0.94863
702.40304	0.94326
700.34923	0.93087
698.29542	0.92546
696.24161	0.93069
694.18780	0.93801
692.13399	0.94369
690.08018	0.94771
688.02637	0.95004
685.97256	0.95167
683.91875	0.95239
681.86494	0.95265
679.81113	0.95369
677.75732	0.95516
675.70351	0.95617
673.64970	0.95671
671.59589	0.95706
669.54208	0.95705
667.48827	0.95810
665.43446	0.96038
663.38065	0.96181
661.32684	0.96231
659.27303	0.96247
657.21922	0.96331
655.16541	0.96432
653.11160	0.96462
651.05779	0.96495
649.00398	0.96506
646.95017	0.96494
644.89636	0.96485
642.84255	0.96426
640.78874	0.96459
638.73493	0.96572
636.68112	0.96586
634.62731	0.96549
632.57350	0.96476
630.51969	0.96392
628.46588	0.96402
626.41207	0.96536
624.35826	0.96708
622.30445	0.96829
620.25064	0.96891
618.19683	0.96875
616.14302	0.96849
614.08921	0.96850
612.03540	0.96869
609.98159	0.96906
607.92778	0.96860
605.87397	0.96735
603.82016	0.96670
601.76635	0.96807
599.71254	0.97132
597.65873	0.97349
595.60492	0.97231
593.55111	0.96977
591.49730	0.96932
589.44349	0.97079
587.38968	0.97207
585.33587	0.97266
583.28206	0.97237
581.22825	0.97056
579.17444	0.96801
577.12063	0.96711
575.06682	0.96875
573.01301	0.97138
570.95920	0.97307
568.90539	0.97311
566.85158	0.97310
564.79777	0.97319
562.74396	0.97239
560.69015	0.97198
558.63634	0.97180
556.58253	0.97109
554.52872	0.97114
552.47491	0.97145
550.42110	0.97085
548.36729	0.97067
546.31348	0.97070
544.25967	0.97067
542.20586	0.97088
540.15205	0.97054
538.09824	0.97108
536.04443	0.97348
533.99062	0.97516
531.93681	0.97404
529.88300	0.97274
527.82919	0.97416
525.77538	0.97548
523.72157	0.97450
521.66776	0.97383
519.61395	0.97465
517.56014	0.97603
515.50633	0.97678
513.45252	0.97589
511.39871	0.97344
509.34490	0.97083
507.29109	0.97069
505.23728	0.97320
503.18347	0.97542
501.12966	0.97641
499.07585	0.97701
497.02204	0.97697
494.96823	0.97639
492.91442	0.97566
490.86061	0.97441
488.80680	0.97358
486.75299	0.97265
484.69918	0.96936
482.64537	0.96705
480.59156	0.96918
478.53775	0.97251
476.48394	0.97399
474.43013	0.97351
472.37632	0.97324
470.32251	0.97502
468.26870	0.97625
466.21489	0.97532
464.16108	0.97366
462.10727	0.97189
460.05346	0.97064
457.99965	0.97084
455.94584	0.97160
453.89203	0.97184
451.83822	0.97134
449.78441	0.97020
447.73060	0.96913
445.67679	0.96777
443.62298	0.96623
441.56916	0.96707
439.51535	0.96945
437.46154	0.96879
435.40773	0.96477
433.35392	0.96273
431.30011	0.96535
429.24630	0.97030
427.19249	0.97546
425.13868	0.97822
423.08487	0.97542
421.03106	0.97097
418.97725	0.96792
416.92344	0.96482
414.86963	0.96469
412.81582	0.96630
410.76201	0.96674
408.70820	0.96676
406.65439	0.96663
404.60058	0.96698
402.54677	0.96842
400.49296	0.96773
398.43915	0.96869
