3996.70104	0.98432
3994.64724	0.98474
3992.59344	0.98470
3990.53964	0.98446
3988.48583	0.98430
3986.43203	0.98405
3984.37823	0.98358
3982.32442	0.98335
3980.27062	0.98364
3978.21682	0.98389
3976.16301	0.98366
3974.10921	0.98322
3972.05541	0.98307
3970.00160	0.98365
3967.94780	0.98449
3965.89400	0.98469
3963.84019	0.98450
3961.78639	0.98442
3959.73259	0.98415
3957.67878	0.98395
3955.62498	0.98387
3953.57118	0.98365
3951.51737	0.98362
3949.46357	0.98365
3947.40977	0.98360
3945.35596	0.98378
3943.30216	0.98382
3941.24836	0.98346
3939.19455	0.98314
3937.14075	0.98351
3935.08695	0.98441
3933.03315	0.98475
3930.97934	0.98443
3928.92554	0.98433
3926.87174	0.98438
3924.81793	0.98444
3922.76413	0.98468
3920.71033	0.98456
3918.65652	0.98413
3916.60272	0.98416
3914.54892	0.98431
3912.49511	0.98426
3910.44131	0.98432
3908.38751	0.98439
3906.33370	0.98422
3904.27990	0.98409
3902.22610	0.98443
3900.17229	0.98470
3898.11849	0.98480
3896.06469	0.98491
3894.01088	0.98487
3891.95708	0.98463
3889.90328	0.98418
3887.84947	0.98412
3885.79567	0.98483
3883.74187	0.98498
3881.68807	0.98391
3879.63426	0.98303
3877.58046	0.98336
3875.52666	0.98424
3873.47285	0.98472
3871.41905	0.98423
3869.36525	0.98338
3867.31144	0.98314
3865.25764	0.98316
3863.20384	0.98289
3861.15003	0.98321
3859.09623	0.98444
3857.04243	0.98548
3854.98862	0.98569
3852.93482	0.98489
3850.88102	0.98397
3848.82721	0.98366
3846.77341	0.98371
3844.71961	0.98374
3842.66580	0.98342
3840.61200	0.98285
3838.55820	0.98252
3836.50439	0.98284
3834.45059	0.98360
3832.39679	0.98436
3830.34298	0.98449
3828.28918	0.98414
3826.23538	0.98394
3824.18158	0.98367
3822.12777	0.98318
3820.07397	0.98334
3818.02017	0.98392
3815.96636	0.98410
3813.91256	0.98422
3811.85876	0.98426
3809.80495	0.98407
3807.75115	0.98414
3805.69735	0.98437
3803.64354	0.98452
3801.58974	0.98542
3799.53594	0.98631
3797.48213	0.98610
3795.42833	0.98544
3793.37453	0.98438
3791.32072	0.98334
3789.26692	0.98334
3787.21312	0.98442
3785.15931	0.98543
3783.10551	0.98545
3781.05171	0.98472
3778.99790	0.98381
3776.94410	0.98355
3774.89030	0.98426
3772.83650	0.98504
3770.78269	0.98478
3768.72889	0.98414
3766.67509	0.98435
3764.62128	0.98441
3762.56748	0.98414
3760.51368	0.98448
3758.45987	0.98521
3756.40607	0.98566
3754.35227	0.98559
3752.29846	0.98515
3750.24466	0.98541
3748.19086	0.98660
3746.13705	0.98699
3744.08325	0.98554
3742.02945	0.98436
3739.97564	0.98491
3737.92184	0.98570
3735.86804	0.98551
3733.81423	0.98505
3731.76043	0.98475
3729.70663	0.98420
3727.65282	0.98425
3725.59902	0.98475
3723.54522	0.98435
3721.49141	0.98338
3719.43761	0.98288
3717.38381	0.98258
3715.33001	0.98205
3713.27620	0.98161
3711.22240	0.98136
3709.16860	0.98033
3707.11479	0.97879
3705.06099	0.97763
3703.00719	0.97668
3700.95338	0.97580
3698.89958	0.97541
3696.84578	0.97499
3694.79197	0.97447
3692.73817	0.97458
3690.68437	0.97520
3688.63056	0.97584
3686.57676	0.97641
3684.52296	0.97657
3682.46915	0.97635
3680.41535	0.97607
3678.36155	0.97578
3676.30774	0.97489
3674.25394	0.97326
3672.20014	0.97283
3670.14633	0.97331
3668.09253	0.97312
3666.03873	0.97234
3663.98492	0.97117
3661.93112	0.97004
3659.87732	0.96954
3657.82352	0.96913
3655.76971	0.96862
3653.71591	0.96854
3651.66211	0.96814
3649.60830	0.96682
3647.55450	0.96576
3645.50070	0.96549
3643.44689	0.96531
3641.39309	0.96465
3639.33929	0.96365
3637.28548	0.96314
3635.23168	0.96312
3633.17788	0.96287
3631.12407	0.96226
3629.07027	0.96091
3627.01647	0.95936
3624.96266	0.95901
3622.90886	0.95910
3620.85506	0.95904
3618.80125	0.95886
3616.74745	0.95904
3614.69365	0.95955
3612.63984	0.96035
3610.58604	0.96129
3608.53224	0.96155
3606.47844	0.96126
3604.42463	0.96103
3602.37083	0.96073
3600.31703	0.96079
3598.26322	0.96135
3596.20942	0.96179
3594.15562	0.96188
3592.10181	0.96186
3590.04801	0.96193
3587.99421	0.96156
3585.94040	0.96066
3583.88660	0.96040
3581.83280	0.96041
3579.77899	0.96010
3577.72519	0.96017
3575.67139	0.96068
3573.61758	0.96093
3571.56378	0.96082
3569.50998	0.96058
3567.45617	0.96057
3565.40237	0.96048
3563.34857	0.95979
3561.29476	0.95913
3559.24096	0.95900
3557.18716	0.95910
3555.13335	0.95887
3553.07955	0.95858
3551.02575	0.95871
3548.97195	0.95923
3546.91814	0.95994
3544.86434	0.95994
3542.81054	0.95909
3540.75673	0.95860
3538.70293	0.95889
3536.64913	0.95909
3534.59532	0.95887
3532.54152	0.95900
3530.48772	0.95945
3528.43391	0.95947
3526.38011	0.95892
3524.32631	0.95848
3522.27250	0.95870
3520.21870	0.95926
3518.16490	0.95960
3516.11109	0.96008
3514.05729	0.96065
3512.00349	0.96034
3509.94968	0.95974
3507.89588	0.96016
3505.84208	0.96092
3503.78827	0.96079
3501.73447	0.96021
3499.68067	0.96014
3497.62687	0.96008
3495.57306	0.95988
3493.51926	0.96012
3491.46546	0.96047
3489.41165	0.96035
3487.35785	0.96011
3485.30405	0.96013
3483.25024	0.96013
3481.19644	0.96004
3479.14264	0.96010
3477.08883	0.96017
3475.03503	0.95987
3472.98123	0.95931
3470.92742	0.95897
3468.87362	0.95902
3466.81982	0.95919
3464.76601	0.95918
3462.71221	0.95910
3460.65841	0.95898
3458.60460	0.95866
3456.55080	0.95839
3454.49700	0.95855
3452.44319	0.95903
3450.38939	0.95950
3448.33559	0.95958
3446.28178	0.95901
3444.22798	0.95839
3442.17418	0.95810
3440.12038	0.95787
3438.06657	0.95778
3436.01277	0.95790
3433.95897	0.95799
3431.90516	0.95782
3429.85136	0.95747
3427.79756	0.95727
3425.74375	0.95724
3423.68995	0.95713
3421.63615	0.95684
3419.58234	0.95679
3417.52854	0.95718
3415.47474	0.95743
3413.42093	0.95723
3411.36713	0.95698
3409.31333	0.95694
3407.25952	0.95696
3405.20572	0.95699
3403.15192	0.95713
3401.09811	0.95722
3399.04431	0.95731
3396.99051	0.95753
3394.93670	0.95754
3392.88290	0.95699
3390.82910	0.95640
3388.77529	0.95659
3386.72149	0.95732
3384.66769	0.95793
3382.61389	0.95828
3380.56008	0.95847
3378.50628	0.95869
3376.45248	0.95889
3374.39867	0.95908
3372.34487	0.95922
3370.29107	0.95892
3368.23726	0.95845
3366.18346	0.95847
3364.12966	0.95900
3362.07585	0.95967
3360.02205	0.96038
3357.96825	0.96101
3355.91444	0.96110
3353.86064	0.96108
3351.80684	0.96141
3349.75303	0.96125
3347.69923	0.96057
3345.64543	0.96020
3343.59162	0.96015
3341.53782	0.96020
3339.48402	0.96069
3337.43021	0.96161
3335.37641	0.96232
3333.32261	0.96257
3331.26881	0.96252
3329.21500	0.96235
3327.16120	0.96256
3325.10740	0.96310
3323.05359	0.96335
3320.99979	0.96312
3318.94599	0.96291
3316.89218	0.96302
3314.83838	0.96318
3312.78458	0.96333
3310.73077	0.96370
3308.67697	0.96421
3306.62317	0.96453
3304.56936	0.96463
3302.51556	0.96444
3300.46176	0.96411
3298.40795	0.96391
3296.35415	0.96384
3294.30035	0.96440
3292.24654	0.96507
3290.19274	0.96492
3288.13894	0.96467
3286.08513	0.96492
3284.03133	0.96521
3281.97753	0.96521
3279.92372	0.96505
3277.86992	0.96486
3275.81612	0.96479
3273.76232	0.96506
3271.70851	0.96582
3269.65471	0.96662
3267.60091	0.96682
3265.54710	0.96662
3263.49330	0.96653
3261.43950	0.96671
3259.38569	0.96667
3257.33189	0.96655
3255.27809	0.96685
3253.22428	0.96705
3251.17048	0.96684
3249.11668	0.96673
3247.06287	0.96684
3245.00907	0.96704
3242.95527	0.96715
3240.90146	0.96707
3238.84766	0.96738
3236.79386	0.96806
3234.74005	0.96821
3232.68625	0.96756
3230.63245	0.96705
3228.57864	0.96770
3226.52484	0.96867
3224.47104	0.96896
3222.41724	0.96932
3220.36343	0.97019
3218.30963	0.97100
3216.25583	0.97103
3214.20202	0.97059
3212.14822	0.97046
3210.09442	0.97048
3208.04061	0.97055
3205.98681	0.97071
3203.93301	0.97056
3201.87920	0.97031
3199.82540	0.97026
3197.77160	0.97007
3195.71779	0.97016
3193.66399	0.97069
3191.61019	0.97114
3189.55638	0.97151
3187.50258	0.97162
3185.44878	0.97164
3183.39497	0.97190
3181.34117	0.97194
3179.28737	0.97176
3177.23356	0.97177
3175.17976	0.97186
3173.12596	0.97206
3171.07215	0.97247
3169.01835	0.97287
3166.96455	0.97326
3164.91075	0.97364
3162.85694	0.97390
3160.80314	0.97408
3158.74934	0.97412
3156.69553	0.97404
3154.64173	0.97400
3152.58793	0.97395
3150.53412	0.97416
3148.48032	0.97460
3146.42652	0.97466
3144.37271	0.97466
3142.31891	0.97485
3140.26511	0.97485
3138.21130	0.97493
3136.15750	0.97537
3134.10370	0.97596
3132.04989	0.97659
3129.99609	0.97715
3127.94229	0.97701
3125.88848	0.97610
3123.83468	0.97552
3121.78088	0.97539
3119.72707	0.97535
3117.67327	0.97566
3115.61947	0.97612
3113.56566	0.97645
3111.51186	0.97671
3109.45806	0.97681
3107.40426	0.97669
3105.35045	0.97661
3103.29665	0.97688
3101.24285	0.97723
3099.18904	0.97726
3097.13524	0.97717
3095.08144	0.97707
3093.02763	0.97694
3090.97383	0.97678
3088.92003	0.97658
3086.86622	0.97662
3084.81242	0.97691
3082.75862	0.97706
3080.70481	0.97708
3078.65101	0.97738
3076.59721	0.97782
3074.54340	0.97789
3072.48960	0.97759
3070.43580	0.97766
3068.38199	0.97832
3066.32819	0.97875
3064.27439	0.97856
3062.22058	0.97826
3060.16678	0.97826
3058.11298	0.97858
3056.05918	0.97893
3054.00537	0.97895
3051.95157	0.97866
3049.89777	0.97838
3047.84396	0.97823
3045.79016	0.97825
3043.73636	0.97864
3041.68255	0.97911
3039.62875	0.97896
3037.57495	0.97836
3035.52114	0.97821
3033.46734	0.97858
3031.41354	0.97874
3029.35973	0.97845
3027.30593	0.97804
3025.25213	0.97814
3023.19832	0.97882
3021.14452	0.97948
3019.09072	0.97977
3017.03691	0.98000
3014.98311	0.98038
3012.92931	0.98042
3010.87550	0.98003
3008.82170	0.97950
3006.76790	0.97910
3004.71409	0.97916
3002.66029	0.97937
3000.60649	0.97940
2998.55269	0.97942
2996.49888	0.97924
2994.44508	0.97882
2992.39128	0.97872
2990.33747	0.97907
2988.28367	0.97947
2986.22987	0.97950
2984.17606	0.97941
2982.12226	0.97949
2980.06846	0.97937
2978.01465	0.97891
2975.96085	0.97857
2973.90705	0.97847
2971.85324	0.97812
2969.79944	0.97735
2967.74564	0.97646
2965.69183	0.97578
2963.63803	0.97548
2961.58423	0.97506
2959.53042	0.97390
2957.47662	0.97272
2955.42282	0.97186
2953.36901	0.97080
2951.31521	0.96943
2949.26141	0.96762
2947.20761	0.96505
2945.15380	0.96152
2943.10000	0.95711
2941.04620	0.95206
2938.99239	0.94573
2936.93859	0.93734
2934.88479	0.92734
2932.83098	0.91598
2930.77718	0.90263
2928.72338	0.88664
2926.66957	0.86682
2924.61577	0.84229
2922.56197	0.81413
2920.50816	0.78450
2918.45436	0.75612
2916.40056	0.73421
2914.34675	0.72560
2912.29295	0.73272
2910.23915	0.75048
2908.18534	0.77153
2906.13154	0.79132
2904.07774	0.80787
2902.02393	0.82096
2899.97013	0.83162
2897.91633	0.84087
2895.86252	0.84916
2893.80872	0.85697
2891.75492	0.86486
2889.70112	0.87292
2887.64731	0.88110
2885.59351	0.88943
2883.53971	0.89770
2881.48590	0.90555
2879.43210	0.91334
2877.37830	0.92136
2875.32449	0.92892
2873.27069	0.93506
2871.21689	0.93917
2869.16308	0.94120
2867.10928	0.94154
2865.05548	0.94021
2863.00167	0.93639
2860.94787	0.92883
2858.89407	0.91578
2856.84026	0.89491
2854.78646	0.86368
2852.73266	0.82221
2850.67885	0.77842
2848.62505	0.74850
2846.57125	0.74539
2844.51744	0.76684
2842.46364	0.79985
2840.40984	0.83262
2838.35603	0.85983
2836.30223	0.88104
2834.24843	0.89711
2832.19463	0.90937
2830.14082	0.91933
2828.08702	0.92726
2826.03322	0.93313
2823.97941	0.93774
2821.92561	0.94177
2819.87181	0.94533
2817.81800	0.94829
2815.76420	0.95069
2813.71040	0.95278
2811.65659	0.95451
2809.60279	0.95590
2807.54899	0.95735
2805.49518	0.95889
2803.44138	0.96039
2801.38758	0.96185
2799.33377	0.96314
2797.27997	0.96436
2795.22617	0.96552
2793.17236	0.96625
2791.11856	0.96669
2789.06476	0.96741
2787.01095	0.96842
2784.95715	0.96932
2782.90335	0.97007
2780.84955	0.97066
2778.79574	0.97100
2776.74194	0.97132
2774.68814	0.97168
2772.63433	0.97188
2770.58053	0.97201
2768.52673	0.97233
2766.47292	0.97293
2764.41912	0.97354
2762.36532	0.97399
2760.31151	0.97424
2758.25771	0.97438
2756.20391	0.97469
2754.15010	0.97529
2752.09630	0.97570
2750.04250	0.97561
2747.98869	0.97544
2745.93489	0.97537
2743.88109	0.97536
2741.82728	0.97555
2739.77348	0.97573
2737.71968	0.97575
2735.66587	0.97591
2733.61207	0.97628
2731.55827	0.97660
2729.50446	0.97673
2727.45066	0.97689
2725.39686	0.97721
2723.34306	0.97750
2721.28925	0.97768
2719.23545	0.97778
2717.18165	0.97789
2715.12784	0.97809
2713.07404	0.97813
2711.02024	0.97802
2708.96643	0.97809
2706.91263	0.97832
2704.85883	0.97848
2702.80502	0.97855
2700.75122	0.97856
2698.69742	0.97865
2696.64361	0.97880
2694.58981	0.97899
2692.53601	0.97930
2690.48220	0.97955
2688.42840	0.97955
2686.37460	0.97944
2684.32079	0.97949
2682.26699	0.97952
2680.21319	0.97935
2678.15938	0.97923
2676.10558	0.97915
2674.05178	0.97908
2671.99797	0.97906
2669.94417	0.97881
2667.89037	0.97840
2665.83657	0.97837
2663.78276	0.97861
2661.72896	0.97868
2659.67516	0.97854
2657.62135	0.97822
2655.56755	0.97795
2653.51375	0.97802
2651.45994	0.97826
2649.40614	0.97855
2647.35234	0.97896
2645.29853	0.97925
2643.24473	0.97908
2641.19093	0.97871
2639.13712	0.97862
2637.08332	0.97893
2635.02952	0.97905
2632.97571	0.97854
2630.92191	0.97807
2628.86811	0.97814
2626.81430	0.97853
2624.76050	0.97900
2622.70670	0.97931
2620.65289	0.97946
2618.59909	0.97979
2616.54529	0.98035
2614.49149	0.98094
2612.43768	0.98137
2610.38388	0.98158
2608.33008	0.98163
2606.27627	0.98168
2604.22247	0.98177
2602.16867	0.98191
2600.11486	0.98205
2598.06106	0.98183
2596.00726	0.98148
2593.95345	0.98157
2591.89965	0.98187
2589.84585	0.98192
2587.79204	0.98191
2585.73824	0.98221
2583.68444	0.98257
2581.63063	0.98268
2579.57683	0.98262
2577.52303	0.98258
2575.46922	0.98300
2573.41542	0.98366
2571.36162	0.98383
2569.30781	0.98333
2567.25401	0.98263
2565.20021	0.98222
2563.14640	0.98208
2561.09260	0.98234
2559.03880	0.98319
2556.98500	0.98408
2554.93119	0.98442
2552.87739	0.98429
2550.82359	0.98391
2548.76978	0.98376
2546.71598	0.98428
2544.66218	0.98485
2542.60837	0.98494
2540.55457	0.98488
2538.50077	0.98466
2536.44696	0.98419
2534.39316	0.98371
2532.33936	0.98365
2530.28555	0.98383
2528.23175	0.98355
2526.17795	0.98326
2524.12414	0.98340
2522.07034	0.98355
2520.01654	0.98378
2517.96273	0.98407
2515.90893	0.98414
2513.85513	0.98392
2511.80132	0.98388
2509.74752	0.98424
2507.69372	0.98421
2505.63992	0.98402
2503.58611	0.98434
2501.53231	0.98449
2499.47851	0.98450
2497.42470	0.98492
2495.37090	0.98503
2493.31710	0.98477
2491.26329	0.98476
2489.20949	0.98462
2487.15569	0.98409
2485.10188	0.98394
2483.04808	0.98455
2480.99428	0.98511
2478.94047	0.98530
2476.88667	0.98542
2474.83287	0.98535
2472.77906	0.98546
2470.72526	0.98593
2468.67146	0.98619
2466.61765	0.98614
2464.56385	0.98569
2462.51005	0.98464
2460.45624	0.98397
2458.40244	0.98466
2456.34864	0.98578
2454.29483	0.98616
2452.24103	0.98599
2450.18723	0.98571
2448.13343	0.98560
2446.07962	0.98570
2444.02582	0.98556
2441.97202	0.98537
2439.91821	0.98575
2437.86441	0.98624
2435.81061	0.98612
2433.75680	0.98539
2431.70300	0.98472
2429.64920	0.98468
2427.59539	0.98499
2425.54159	0.98524
2423.48779	0.98524
2421.43398	0.98522
2419.38018	0.98522
2417.32638	0.98521
2415.27257	0.98538
2413.21877	0.98549
2411.16497	0.98525
2409.11116	0.98458
2407.05736	0.98441
2405.00356	0.98527
2402.94975	0.98614
2400.89595	0.98639
2398.84215	0.98607
2396.78834	0.98573
2394.73454	0.98589
2392.68074	0.98618
2390.62694	0.98628
2388.57313	0.98627
2386.51933	0.98632
2384.46553	0.98665
2382.41172	0.98725
2380.35792	0.98770
2378.30412	0.98770
2376.25031	0.98728
2374.19651	0.98619
2372.14271	0.98496
2370.08890	0.98479
2368.03510	0.98511
2365.98130	0.98526
2363.92749	0.98577
2361.87369	0.98675
2359.81989	0.98679
2357.76608	0.98524
2355.71228	0.98407
2353.65848	0.98412
2351.60467	0.98461
2349.55087	0.98497
2347.49707	0.98488
2345.44326	0.98471
2343.38946	0.98492
2341.33566	0.98490
2339.28186	0.98441
2337.22805	0.98417
2335.17425	0.98424
2333.12045	0.98433
2331.06664	0.98405
2329.01284	0.98394
2326.95904	0.98437
2324.90523	0.98376
2322.85143	0.98225
2320.79763	0.98196
2318.74382	0.98280
2316.69002	0.98333
2314.63622	0.98327
2312.58241	0.98339
2310.52861	0.98410
2308.47481	0.98500
2306.42100	0.98557
2304.36720	0.98555
2302.31340	0.98560
2300.25959	0.98605
2298.20579	0.98626
2296.15199	0.98604
2294.09818	0.98545
2292.04438	0.98486
2289.99058	0.98485
2287.93677	0.98509
2285.88297	0.98545
2283.82917	0.98552
2281.77537	0.98497
2279.72156	0.98464
2277.66776	0.98434
2275.61396	0.98368
2273.56015	0.98363
2271.50635	0.98467
2269.45255	0.98582
2267.39874	0.98592
2265.34494	0.98540
2263.29114	0.98517
2261.23733	0.98522
2259.18353	0.98545
2257.12973	0.98548
2255.07592	0.98527
2253.02212	0.98596
2250.96832	0.98667
2248.91451	0.98651
2246.86071	0.98691
2244.80691	0.98733
2242.75310	0.98669
2240.69930	0.98646
2238.64550	0.98763
2236.59169	0.98839
2234.53789	0.98754
2232.48409	0.98649
2230.43029	0.98597
2228.37648	0.98535
2226.32268	0.98506
2224.26888	0.98619
2222.21507	0.98780
2220.16127	0.98798
2218.10747	0.98720
2216.05366	0.98624
2213.99986	0.98546
2211.94606	0.98634
2209.89225	0.98754
2207.83845	0.98794
2205.78465	0.98914
2203.73084	0.98967
2201.67704	0.98940
2199.62324	0.99024
2197.56943	0.99018
2195.51563	0.98895
2193.46183	0.98917
2191.40802	0.98975
2189.35422	0.98865
2187.30042	0.98694
2185.24661	0.98682
2183.19281	0.98891
2181.13901	0.99104
2179.08520	0.99125
2177.03140	0.99015
2174.97760	0.98947
2172.92380	0.98890
2170.86999	0.98720
2168.81619	0.98649
2166.76239	0.98814
2164.70858	0.98998
2162.65478	0.99020
2160.60098	0.98967
2158.54717	0.98974
2156.49337	0.99017
2154.43957	0.99043
2152.38576	0.98965
2150.33196	0.98868
2148.27816	0.98906
2146.22435	0.99045
2144.17055	0.99147
2142.11675	0.99086
2140.06294	0.98959
2138.00914	0.98911
2135.95534	0.98966
2133.90153	0.98985
2131.84773	0.98891
2129.79393	0.98823
2127.74012	0.98854
2125.68632	0.98915
2123.63252	0.98855
2121.57871	0.98713
2119.52491	0.98711
2117.47111	0.98810
2115.41731	0.98809
2113.36350	0.98695
2111.30970	0.98569
2109.25590	0.98543
2107.20209	0.98635
2105.14829	0.98756
2103.09449	0.98839
2101.04068	0.98768
2098.98688	0.98606
2096.93308	0.98615
2094.87927	0.98729
2092.82547	0.98659
2090.77167	0.98526
2088.71786	0.98542
2086.66406	0.98557
2084.61026	0.98469
2082.55645	0.98454
2080.50265	0.98564
2078.44885	0.98659
2076.39504	0.98731
2074.34124	0.98740
2072.28744	0.98636
2070.23363	0.98650
2068.17983	0.98822
2066.12603	0.98875
2064.07223	0.98828
2062.01842	0.98802
2059.96462	0.98774
2057.91082	0.98786
2055.85701	0.98758
2053.80321	0.98626
2051.74941	0.98495
2049.69560	0.98469
2047.64180	0.98600
2045.58800	0.98787
2043.53419	0.98911
2041.48039	0.98976
2039.42659	0.98991
2037.37278	0.98921
2035.31898	0.98807
2033.26518	0.98712
2031.21137	0.98764
2029.15757	0.99000
2027.10377	0.99130
2025.04996	0.99017
2022.99616	0.98885
2020.94236	0.98975
2018.88855	0.99154
2016.83475	0.99175
2014.78095	0.99176
2012.72714	0.99203
2010.67334	0.99144
2008.61954	0.99106
2006.56574	0.99078
2004.51193	0.99043
2002.45813	0.99109
2000.40433	0.99114
1998.35052	0.98979
1996.29672	0.98850
1994.24292	0.98797
1992.18911	0.98803
1990.13531	0.98829
1988.08151	0.98868
1986.02770	0.98820
1983.97390	0.98776
1981.92010	0.98897
1979.86629	0.98937
1977.81249	0.98814
1975.75869	0.98815
1973.70488	0.99011
1971.65108	0.99152
1969.59728	0.99070
1967.54347	0.98900
1965.48967	0.98770
1963.43587	0.98695
1961.38206	0.98661
1959.32826	0.98644
1957.27446	0.98781
1955.22066	0.99064
1953.16685	0.99117
1951.11305	0.98934
1949.05925	0.98901
1947.00544	0.99030
1944.95164	0.99083
1942.89784	0.99031
1940.84403	0.99032
1938.79023	0.99048
1936.73643	0.98895
1934.68262	0.98681
1932.62882	0.98599
1930.57502	0.98601
1928.52121	0.98631
1926.46741	0.98734
1924.41361	0.98880
1922.35980	0.98937
1920.30600	0.98874
1918.25220	0.98785
1916.19839	0.98775
1914.14459	0.98792
1912.09079	0.98719
1910.03698	0.98663
1907.98318	0.98724
1905.92938	0.98742
1903.87557	0.98636
1901.82177	0.98527
1899.76797	0.98490
1897.71417	0.98509
1895.66036	0.98582
1893.60656	0.98635
1891.55276	0.98624
1889.49895	0.98604
1887.44515	0.98545
1885.39135	0.98457
1883.33754	0.98416
1881.28374	0.98458
1879.22994	0.98506
1877.17613	0.98453
1875.12233	0.98363
1873.06853	0.98330
1871.01472	0.98397
1868.96092	0.98564
1866.90712	0.98677
1864.85331	0.98665
1862.79951	0.98627
1860.74571	0.98587
1858.69190	0.98516
1856.63810	0.98432
1854.58430	0.98391
1852.53049	0.98414
1850.47669	0.98466
1848.42289	0.98516
1846.36908	0.98577
1844.31528	0.98633
1842.26148	0.98635
1840.20768	0.98659
1838.15387	0.98712
1836.10007	0.98698
1834.04627	0.98643
1831.99246	0.98596
1829.93866	0.98543
1827.88486	0.98518
1825.83105	0.98517
1823.77725	0.98471
1821.72345	0.98385
1819.66964	0.98346
1817.61584	0.98384
1815.56204	0.98433
1813.50823	0.98457
1811.45443	0.98474
1809.40063	0.98464
1807.34682	0.98444
1805.29302	0.98442
1803.23922	0.98463
1801.18541	0.98476
1799.13161	0.98443
1797.07781	0.98406
1795.02400	0.98412
1792.97020	0.98432
1790.91640	0.98402
1788.86260	0.98338
1786.80879	0.98289
1784.75499	0.98288
1782.70119	0.98348
1780.64738	0.98393
1778.59358	0.98358
1776.53978	0.98297
1774.48597	0.98269
1772.43217	0.98245
1770.37837	0.98240
1768.32456	0.98280
1766.27076	0.98312
1764.21696	0.98325
1762.16315	0.98329
1760.10935	0.98356
1758.05555	0.98382
1756.00174	0.98315
1753.94794	0.98203
1751.89414	0.98126
1749.84033	0.98097
1747.78653	0.98102
1745.73273	0.98069
1743.67892	0.97978
1741.62512	0.97884
1739.57132	0.97877
1737.51751	0.97954
1735.46371	0.97991
1733.40991	0.97933
1731.35611	0.97889
1729.30230	0.97874
1727.24850	0.97844
1725.19470	0.97829
1723.14089	0.97830
1721.08709	0.97809
1719.03329	0.97753
1716.97948	0.97707
1714.92568	0.97754
1712.87188	0.97824
1710.81807	0.97857
1708.76427	0.97848
1706.71047	0.97795
1704.65666	0.97763
1702.60286	0.97764
1700.54906	0.97701
1698.49525	0.97628
1696.44145	0.97609
1694.38765	0.97559
1692.33384	0.97499
1690.28004	0.97449
1688.22624	0.97412
1686.17243	0.97386
1684.11863	0.97341
1682.06483	0.97278
1680.01103	0.97223
1677.95722	0.97170
1675.90342	0.97123
1673.84962	0.97088
1671.79581	0.97062
1669.74201	0.96984
1667.68821	0.96875
1665.63440	0.96827
1663.58060	0.96808
1661.52680	0.96796
1659.47299	0.96761
1657.41919	0.96701
1655.36539	0.96667
1653.31158	0.96638
1651.25778	0.96592
1649.20398	0.96564
1647.15017	0.96505
1645.09637	0.96442
1643.04257	0.96442
1640.98876	0.96459
1638.93496	0.96456
1636.88116	0.96445
1634.82735	0.96467
1632.77355	0.96512
1630.71975	0.96550
1628.66594	0.96584
1626.61214	0.96613
1624.55834	0.96616
1622.50454	0.96603
1620.45073	0.96619
1618.39693	0.96655
1616.34313	0.96682
1614.28932	0.96693
1612.23552	0.96712
1610.18172	0.96744
1608.12791	0.96753
1606.07411	0.96752
1604.02031	0.96769
1601.96650	0.96793
1599.91270	0.96820
1597.85890	0.96849
1595.80509	0.96884
1593.75129	0.96901
1591.69749	0.96875
1589.64368	0.96845
1587.58988	0.96853
1585.53608	0.96877
1583.48227	0.96870
1581.42847	0.96849
1579.37467	0.96863
1577.32086	0.96909
1575.26706	0.96921
1573.21326	0.96886
1571.15945	0.96863
1569.10565	0.96890
1567.05185	0.96943
1564.99805	0.96960
1562.94424	0.96954
1560.89044	0.96963
1558.83664	0.96972
1556.78283	0.96955
1554.72903	0.96935
1552.67523	0.96893
1550.62142	0.96826
1548.56762	0.96755
1546.51382	0.96715
1544.46001	0.96703
1542.40621	0.96723
1540.35241	0.96708
1538.29860	0.96610
1536.24480	0.96558
1534.19100	0.96519
1532.13719	0.96449
1530.08339	0.96382
1528.02959	0.96325
1525.97578	0.96275
1523.92198	0.96229
1521.86818	0.96125
1519.81437	0.95978
1517.76057	0.95825
1515.70677	0.95664
1513.65297	0.95566
1511.59916	0.95526
1509.54536	0.95495
1507.49156	0.95391
1505.43775	0.95197
1503.38395	0.95078
1501.33015	0.95012
1499.27634	0.94944
1497.22254	0.94820
1495.16874	0.94655
1493.11493	0.94545
1491.06113	0.94443
1489.00733	0.94252
1486.95352	0.94067
1484.89972	0.93962
1482.84592	0.93843
1480.79211	0.93578
1478.73831	0.92939
1476.68451	0.91241
1474.63070	0.87780
1472.57690	0.83951
1470.52310	0.83224
1468.46929	0.84657
1466.41549	0.85959
1464.36169	0.86361
1462.30788	0.86649
1460.25408	0.87771
1458.20028	0.89573
1456.14648	0.91089
1454.09267	0.91767
1452.03887	0.92204
1449.98507	0.92537
1447.93126	0.92772
1445.87746	0.92951
1443.82366	0.93071
1441.76985	0.93170
1439.71605	0.93281
1437.66225	0.93384
1435.60844	0.93466
1433.55464	0.93561
1431.50084	0.93709
1429.44703	0.93879
1427.39323	0.94015
1425.33943	0.94143
1423.28562	0.94295
1421.23182	0.94442
1419.17802	0.94596
1417.12421	0.94767
1415.07041	0.94926
1413.01661	0.95078
1410.96280	0.95229
1408.90900	0.95393
1406.85520	0.95571
1404.80139	0.95726
1402.74759	0.95832
1400.69379	0.95937
1398.63999	0.96051
1396.58618	0.96147
1394.53238	0.96193
1392.47858	0.96225
1390.42477	0.96317
1388.37097	0.96440
1386.31717	0.96504
1384.26336	0.96516
1382.20956	0.96535
1380.15576	0.96548
1378.10195	0.96557
1376.04815	0.96557
1373.99435	0.96510
1371.94054	0.96451
1369.88674	0.96433
1367.83294	0.96438
1365.77913	0.96460
1363.72533	0.96497
1361.67153	0.96535
1359.61772	0.96568
1357.56392	0.96605
1355.51012	0.96648
1353.45631	0.96660
1351.40251	0.96634
1349.34871	0.96630
1347.29491	0.96681
1345.24110	0.96748
1343.18730	0.96771
1341.13350	0.96736
1339.07969	0.96712
1337.02589	0.96742
1334.97209	0.96767
1332.91828	0.96769
1330.86448	0.96782
1328.81068	0.96818
1326.75687	0.96836
1324.70307	0.96810
1322.64927	0.96767
1320.59546	0.96728
1318.54166	0.96698
1316.48786	0.96685
1314.43405	0.96669
1312.38025	0.96636
1310.32645	0.96611
1308.27264	0.96602
1306.21884	0.96587
1304.16504	0.96553
1302.11123	0.96518
1300.05743	0.96489
1298.00363	0.96469
1295.94982	0.96470
1293.89602	0.96469
1291.84222	0.96437
1289.78842	0.96396
1287.73461	0.96377
1285.68081	0.96354
1283.62701	0.96322
1281.57320	0.96288
1279.51940	0.96241
1277.46560	0.96175
1275.41179	0.96102
1273.35799	0.96050
1271.30419	0.96045
1269.25038	0.96047
1267.19658	0.95987
1265.14278	0.95900
1263.08897	0.95860
1261.03517	0.95863
1258.98137	0.95864
1256.92756	0.95831
1254.87376	0.95768
1252.81996	0.95687
1250.76615	0.95599
1248.71235	0.95529
1246.65855	0.95475
1244.60474	0.95409
1242.55094	0.95358
1240.49714	0.95323
1238.44334	0.95230
1236.38953	0.95095
1234.33573	0.94983
1232.28193	0.94870
1230.22812	0.94745
1228.17432	0.94631
1226.12052	0.94490
1224.06671	0.94293
1222.01291	0.94089
1219.95911	0.93917
1217.90530	0.93737
1215.85150	0.93495
1213.79770	0.93188
1211.74389	0.92845
1209.69009	0.92513
1207.63629	0.92204
1205.58248	0.91867
1203.52868	0.91483
1201.47488	0.91106
1199.42107	0.90766
1197.36727	0.90426
1195.31347	0.90040
1193.25966	0.89611
1191.20586	0.89179
1189.15206	0.88748
1187.09825	0.88282
1185.04445	0.87828
1182.99065	0.87427
1180.93685	0.87021
1178.88304	0.86585
1176.82924	0.86158
1174.77544	0.85753
1172.72163	0.85362
1170.66783	0.84965
1168.61403	0.84569
1166.56022	0.84200
1164.50642	0.83884
1162.45262	0.83678
1160.39881	0.83571
1158.34501	0.83469
1156.29121	0.83327
1154.23740	0.83131
1152.18360	0.82877
1150.12980	0.82621
1148.07599	0.82387
1146.02219	0.82158
1143.96839	0.81967
1141.91458	0.81817
1139.86078	0.81648
1137.80698	0.81442
1135.75317	0.81223
1133.69937	0.81035
1131.64557	0.80863
1129.59176	0.80638
1127.53796	0.80363
1125.48416	0.80049
1123.43036	0.79676
1121.37655	0.79264
1119.32275	0.78857
1117.26895	0.78486
1115.21514	0.78137
1113.16134	0.77758
1111.10754	0.77337
1109.05373	0.76903
1106.99993	0.76463
1104.94613	0.76043
1102.89232	0.75677
1100.83852	0.75326
1098.78472	0.74967
1096.73091	0.74658
1094.67711	0.74396
1092.62331	0.74145
1090.56950	0.73938
1088.51570	0.73802
1086.46190	0.73700
1084.40809	0.73596
1082.35429	0.73485
1080.30049	0.73365
1078.24668	0.73256
1076.19288	0.73197
1074.13908	0.73138
1072.08528	0.72976
1070.03147	0.72735
1067.97767	0.72474
1065.92387	0.72131
1063.87006	0.71724
1061.81626	0.71359
1059.76246	0.71015
1057.70865	0.70647
1055.65485	0.70297
1053.60105	0.69931
1051.54724	0.69470
1049.49344	0.68929
1047.43964	0.68369
1045.38583	0.67836
1043.33203	0.67297
1041.27823	0.66707
1039.22442	0.66105
1037.17062	0.65550
1035.11682	0.65045
1033.06301	0.64595
1031.00921	0.64234
1028.95541	0.63963
1026.90160	0.63761
1024.84780	0.63581
1022.79400	0.63382
1020.74019	0.63193
1018.68639	0.63024
1016.63259	0.62851
1014.57879	0.62693
1012.52498	0.62531
1010.47118	0.62352
1008.41738	0.62210
1006.36357	0.62141
1004.30977	0.62139
1002.25597	0.62214
1000.20216	0.62359
998.14836	0.62538
996.09456	0.62713
994.04075	0.62899
991.98695	0.63162
989.93315	0.63529
987.87934	0.63972
985.82554	0.64484
983.77174	0.65085
981.71793	0.65785
979.66413	0.66567
977.61033	0.67411
975.55652	0.68332
973.50272	0.69324
971.44892	0.70352
969.39511	0.71392
967.34131	0.72400
965.28751	0.73365
963.23371	0.74284
961.17990	0.75104
959.12610	0.75846
957.07230	0.76563
955.01849	0.77210
952.96469	0.77776
950.91089	0.78314
948.85708	0.78813
946.80328	0.79280
944.74948	0.79769
942.69567	0.80245
940.64187	0.80663
938.58807	0.81046
936.53426	0.81408
934.48046	0.81755
932.42666	0.82119
930.37285	0.82507
928.31905	0.82893
926.26525	0.83227
924.21144	0.83490
922.15764	0.83728
920.10384	0.83924
918.05003	0.84038
915.99623	0.84107
913.94243	0.84179
911.88862	0.84300
909.83482	0.84550
907.78102	0.84984
905.72722	0.85527
903.67341	0.86091
901.61961	0.86676
899.56581	0.87272
897.51200	0.87817
895.45820	0.88290
893.40440	0.88718
891.35059	0.89043
889.29679	0.89240
887.24299	0.89406
885.18918	0.89589
883.13538	0.89715
881.08158	0.89696
879.02777	0.89573
876.97397	0.89534
874.92017	0.89727
872.86636	0.90117
870.81256	0.90540
868.75876	0.90855
866.70495	0.90992
864.65115	0.90992
862.59735	0.91037
860.54354	0.91245
858.48974	0.91572
856.43594	0.91987
854.38213	0.92410
852.32833	0.92680
850.27453	0.92768
848.22073	0.92785
846.16692	0.92796
844.11312	0.92807
842.05932	0.92784
840.00551	0.92662
837.95171	0.92482
835.89791	0.92330
833.84410	0.92205
831.79030	0.92093
829.73650	0.92031
827.68269	0.92019
825.62889	0.92018
823.57509	0.92053
821.52128	0.92154
819.46748	0.92226
817.41368	0.92140
815.35987	0.91905
813.30607	0.91628
811.25227	0.91316
809.19846	0.90836
807.14466	0.90104
805.09086	0.89138
803.03705	0.88111
800.98325	0.87338
798.92945	0.87025
796.87565	0.87200
794.82184	0.87679
792.76804	0.88159
790.71424	0.88431
788.66043	0.88504
786.60663	0.88469
784.55283	0.88262
782.49902	0.87890
780.44522	0.87621
778.39142	0.87660
776.33761	0.87963
774.28381	0.88413
772.23001	0.88802
770.17620	0.88973
768.12240	0.88996
766.06860	0.88916
764.01479	0.88756
761.96099	0.88600
759.90719	0.88493
757.85338	0.88527
755.79958	0.88718
753.74578	0.88849
751.69197	0.88807
749.63817	0.88713
747.58437	0.88595
745.53056	0.88512
743.47676	0.88627
741.42296	0.88877
739.36916	0.89053
737.31535	0.88998
735.26155	0.88380
733.20775	0.86830
731.15394	0.85089
729.10014	0.84571
727.04634	0.84991
724.99253	0.84877
722.93873	0.83443
720.88493	0.80613
718.83112	0.77562
716.77732	0.76444
714.72352	0.78130
712.66971	0.81326
710.61591	0.84096
708.56211	0.85763
706.50830	0.86658
704.45450	0.87125
702.40070	0.87283
700.34689	0.87221
698.29309	0.87131
696.23929	0.87088
694.18548	0.87118
692.13168	0.87324
690.07788	0.87555
688.02408	0.87627
685.97027	0.87663
683.91647	0.87769
681.86267	0.87866
679.80886	0.87897
677.75506	0.87886
675.70126	0.87912
673.64745	0.88010
671.59365	0.88107
669.53985	0.88160
667.48604	0.88133
665.43224	0.88050
663.37844	0.87978
661.32463	0.87913
659.27083	0.87772
657.21703	0.87463
655.16322	0.87079
653.10942	0.86737
651.05562	0.86459
649.00181	0.86309
646.94801	0.86339
644.89421	0.86465
642.84040	0.86601
640.78660	0.86751
638.73280	0.86923
636.67899	0.87152
634.62519	0.87467
632.57139	0.87771
630.51759	0.87882
628.46378	0.87761
626.40998	0.87575
624.35618	0.87381
622.30237	0.87082
620.24857	0.86751
618.19477	0.86421
616.14096	0.85939
614.08716	0.85408
612.03336	0.85082
609.97955	0.84940
607.92575	0.84864
605.87195	0.84741
603.81814	0.84522
601.76434	0.84236
599.71054	0.83806
597.65673	0.83322
595.60293	0.83003
593.54913	0.82782
591.49532	0.82449
589.44152	0.82148
587.38772	0.82131
585.33391	0.82308
583.28011	0.82446
581.22631	0.82531
579.17250	0.82638
577.11870	0.82684
575.06490	0.82662
573.01110	0.82631
570.95729	0.82555
568.90349	0.82379
566.84969	0.82117
564.79588	0.81839
562.74208	0.81595
560.68828	0.81282
558.63447	0.80808
556.58067	0.80350
554.52687	0.79995
552.47306	0.79724
550.41926	0.79528
548.36546	0.79213
546.31165	0.78648
544.25785	0.77959
542.20405	0.77306
540.15024	0.76740
538.09644	0.76213
536.04264	0.75648
533.98883	0.75169
531.93503	0.74972
529.88123	0.74967
527.82742	0.75028
525.77362	0.75243
523.71982	0.75555
521.66602	0.75819
519.61221	0.76039
517.55841	0.76228
515.50461	0.76431
513.45080	0.76709
511.39700	0.77014
509.34320	0.77302
507.28939	0.77572
505.23559	0.77748
503.18179	0.77849
501.12798	0.77760
499.07418	0.77435
497.02038	0.77180
494.96657	0.77075
492.91277	0.76913
490.85897	0.76461
488.80516	0.75746
486.75136	0.74943
484.69756	0.73997
482.64375	0.72806
480.58995	0.71632
478.53615	0.70640
476.48234	0.69694
474.42854	0.68853
472.37474	0.68234
470.32093	0.67827
468.26713	0.67500
466.21333	0.67269
464.15953	0.67447
462.10572	0.67982
460.05192	0.68618
457.99812	0.69516
455.94431	0.70460
453.89051	0.71175
451.83671	0.72130
449.78290	0.73158
447.72910	0.73662
445.67530	0.73832
443.62149	0.74077
441.56769	0.74298
439.51389	0.74358
437.46008	0.74447
435.40628	0.74603
433.35248	0.74286
431.29867	0.73421
429.24487	0.72747
427.19107	0.72607
425.13726	0.72983
423.08346	0.73877
421.02966	0.75043
418.97585	0.75804
416.92205	0.75695
414.86825	0.75753
412.81445	0.76266
410.76064	0.76863
408.70684	0.77354
406.65304	0.77746
404.59923	0.77914
402.54543	0.77527
400.49163	0.76609
398.43782	0.75388
