3996.71440	0.98555
3994.66059	0.98577
3992.60678	0.98577
3990.55297	0.98533
3988.49916	0.98468
3986.44535	0.98444
3984.39154	0.98496
3982.33773	0.98562
3980.28391	0.98571
3978.23010	0.98552
3976.17629	0.98543
3974.12248	0.98531
3972.06867	0.98537
3970.01486	0.98564
3967.96105	0.98565
3965.90724	0.98544
3963.85343	0.98529
3961.79962	0.98529
3959.74581	0.98562
3957.69200	0.98598
3955.63819	0.98588
3953.58438	0.98536
3951.53057	0.98471
3949.47676	0.98435
3947.42295	0.98461
3945.36914	0.98510
3943.31533	0.98530
3941.26152	0.98524
3939.20771	0.98518
3937.15390	0.98516
3935.10009	0.98525
3933.04628	0.98536
3930.99247	0.98526
3928.93866	0.98505
3926.88485	0.98493
3924.83104	0.98512
3922.77723	0.98527
3920.72342	0.98509
3918.66961	0.98501
3916.61580	0.98520
3914.56199	0.98539
3912.50818	0.98539
3910.45437	0.98527
3908.40056	0.98529
3906.34675	0.98543
3904.29294	0.98537
3902.23913	0.98497
3900.18532	0.98462
3898.13151	0.98474
3896.07770	0.98504
3894.02389	0.98518
3891.97008	0.98522
3889.91627	0.98514
3887.86246	0.98512
3885.80865	0.98552
3883.75484	0.98598
3881.70103	0.98593
3879.64722	0.98545
3877.59341	0.98503
3875.53960	0.98490
3873.48579	0.98498
3871.43198	0.98511
3869.37817	0.98503
3867.32436	0.98453
3865.27055	0.98388
3863.21674	0.98350
3861.16293	0.98365
3859.10912	0.98404
3857.05531	0.98432
3855.00150	0.98462
3852.94769	0.98494
3850.89388	0.98488
3848.84007	0.98467
3846.78626	0.98439
3844.73245	0.98422
3842.67864	0.98427
3840.62483	0.98411
3838.57102	0.98396
3836.51721	0.98427
3834.46340	0.98430
3832.40959	0.98387
3830.35578	0.98374
3828.30197	0.98419
3826.24816	0.98454
3824.19435	0.98435
3822.14054	0.98396
3820.08673	0.98405
3818.03292	0.98453
3815.97911	0.98458
3813.92530	0.98423
3811.87149	0.98395
3809.81768	0.98363
3807.76387	0.98329
3805.71006	0.98321
3803.65625	0.98323
3801.60244	0.98306
3799.54863	0.98294
3797.49482	0.98316
3795.44101	0.98340
3793.38720	0.98345
3791.33339	0.98353
3789.27958	0.98357
3787.22577	0.98334
3785.17196	0.98303
3783.11815	0.98299
3781.06434	0.98302
3779.01053	0.98276
3776.95672	0.98244
3774.90291	0.98223
3772.84910	0.98190
3770.79529	0.98170
3768.74148	0.98176
3766.68767	0.98152
3764.63386	0.98123
3762.58005	0.98145
3760.52624	0.98205
3758.47243	0.98225
3756.41862	0.98172
3754.36481	0.98138
3752.31100	0.98185
3750.25719	0.98215
3748.20338	0.98166
3746.14957	0.98148
3744.09576	0.98134
3742.04195	0.98079
3739.98814	0.98035
3737.93433	0.97989
3735.88052	0.97943
3733.82671	0.97961
3731.77290	0.97976
3729.71909	0.97937
3727.66528	0.97866
3725.61147	0.97783
3723.55766	0.97757
3721.50385	0.97773
3719.45004	0.97732
3717.39623	0.97663
3715.34242	0.97624
3713.28861	0.97561
3711.23480	0.97437
3709.18099	0.97341
3707.12718	0.97295
3705.07337	0.97248
3703.01956	0.97168
3700.96575	0.97054
3698.91194	0.96943
3696.85813	0.96829
3694.80432	0.96702
3692.75051	0.96600
3690.69670	0.96518
3688.64289	0.96435
3686.58907	0.96356
3684.53526	0.96249
3682.48145	0.96091
3680.42764	0.95919
3678.37383	0.95754
3676.32002	0.95554
3674.26621	0.95353
3672.21240	0.95199
3670.15859	0.95017
3668.10478	0.94823
3666.05097	0.94657
3663.99716	0.94458
3661.94335	0.94222
3659.88954	0.93979
3657.83573	0.93747
3655.78192	0.93524
3653.72811	0.93311
3651.67430	0.93098
3649.62049	0.92836
3647.56668	0.92507
3645.51287	0.92233
3643.45906	0.92055
3641.40525	0.91894
3639.35144	0.91701
3637.29763	0.91495
3635.24382	0.91258
3633.19001	0.90991
3631.13620	0.90753
3629.08239	0.90504
3627.02858	0.90231
3624.97477	0.90002
3622.92096	0.89806
3620.86715	0.89636
3618.81334	0.89458
3616.75953	0.89275
3614.70572	0.89110
3612.65191	0.88928
3610.59810	0.88709
3608.54429	0.88440
3606.49048	0.88187
3604.43667	0.88021
3602.38286	0.87865
3600.32905	0.87661
3598.27524	0.87455
3596.22143	0.87274
3594.16762	0.87098
3592.11381	0.86927
3590.06000	0.86742
3588.00619	0.86511
3585.95238	0.86286
3583.89857	0.86098
3581.84476	0.85926
3579.79095	0.85750
3577.73714	0.85552
3575.68333	0.85342
3573.62952	0.85111
3571.57571	0.84863
3569.52190	0.84619
3567.46809	0.84379
3565.41428	0.84187
3563.36047	0.84019
3561.30666	0.83789
3559.25285	0.83532
3557.19904	0.83308
3555.14523	0.83101
3553.09142	0.82885
3551.03761	0.82675
3548.98380	0.82471
3546.92999	0.82282
3544.87618	0.82116
3542.82237	0.81925
3540.76856	0.81712
3538.71475	0.81499
3536.66094	0.81271
3534.60713	0.81040
3532.55332	0.80835
3530.49951	0.80617
3528.44570	0.80376
3526.39189	0.80157
3524.33808	0.79972
3522.28427	0.79785
3520.23046	0.79583
3518.17665	0.79364
3516.12284	0.79134
3514.06903	0.78932
3512.01522	0.78755
3509.96141	0.78567
3507.90760	0.78369
3505.85379	0.78170
3503.79998	0.77970
3501.74617	0.77792
3499.69236	0.77641
3497.63855	0.77479
3495.58474	0.77285
3493.53093	0.77083
3491.47712	0.76904
3489.42331	0.76725
3487.36950	0.76526
3485.31569	0.76355
3483.26188	0.76227
3481.20807	0.76067
3479.15426	0.75875
3477.10045	0.75704
3475.04664	0.75543
3472.99283	0.75379
3470.93902	0.75200
3468.88521	0.74993
3466.83140	0.74809
3464.77759	0.74679
3462.72378	0.74552
3460.66997	0.74407
3458.61616	0.74252
3456.56235	0.74069
3454.50854	0.73879
3452.45473	0.73714
3450.40092	0.73553
3448.34711	0.73393
3446.29330	0.73259
3444.23949	0.73155
3442.18568	0.73046
3440.13187	0.72897
3438.07806	0.72736
3436.02425	0.72588
3433.97044	0.72458
3431.91663	0.72348
3429.86282	0.72233
3427.80901	0.72103
3425.75520	0.71979
3423.70139	0.71863
3421.64758	0.71734
3419.59377	0.71595
3417.53996	0.71474
3415.48615	0.71384
3413.43234	0.71285
3411.37853	0.71167
3409.32472	0.71078
3407.27091	0.71022
3405.21710	0.70954
3403.16329	0.70874
3401.10948	0.70806
3399.05567	0.70749
3397.00186	0.70697
3394.94805	0.70642
3392.89424	0.70576
3390.84042	0.70521
3388.78661	0.70495
3386.73280	0.70473
3384.67899	0.70448
3382.62518	0.70428
3380.57137	0.70389
3378.51756	0.70341
3376.46375	0.70338
3374.40994	0.70356
3372.35613	0.70334
3370.30232	0.70298
3368.24851	0.70302
3366.19470	0.70330
3364.14089	0.70350
3362.08708	0.70358
3360.03327	0.70380
3357.97946	0.70410
3355.92565	0.70440
3353.87184	0.70474
3351.81803	0.70503
3349.76422	0.70530
3347.71041	0.70562
3345.65660	0.70588
3343.60279	0.70606
3341.54898	0.70642
3339.49517	0.70708
3337.44136	0.70773
3335.38755	0.70815
3333.33374	0.70857
3331.27993	0.70915
3329.22612	0.70956
3327.17231	0.70984
3325.11850	0.71019
3323.06469	0.71049
3321.01088	0.71064
3318.95707	0.71084
3316.90326	0.71137
3314.84945	0.71175
3312.79564	0.71167
3310.74183	0.71174
3308.68802	0.71228
3306.63421	0.71289
3304.58040	0.71319
3302.52659	0.71325
3300.47278	0.71353
3298.41897	0.71409
3296.36516	0.71455
3294.31135	0.71485
3292.25754	0.71518
3290.20373	0.71547
3288.14992	0.71562
3286.09611	0.71571
3284.04230	0.71597
3281.98849	0.71646
3279.93468	0.71713
3277.88087	0.71801
3275.82706	0.71892
3273.77325	0.71963
3271.71944	0.72005
3269.66563	0.72056
3267.61182	0.72139
3265.55801	0.72229
3263.50420	0.72304
3261.45039	0.72365
3259.39658	0.72420
3257.34277	0.72503
3255.28896	0.72647
3253.23515	0.72810
3251.18134	0.72924
3249.12753	0.72990
3247.07372	0.73064
3245.01991	0.73177
3242.96610	0.73291
3240.91229	0.73378
3238.85848	0.73470
3236.80467	0.73593
3234.75086	0.73728
3232.69705	0.73852
3230.64324	0.73961
3228.58943	0.74067
3226.53562	0.74194
3224.48181	0.74337
3222.42800	0.74463
3220.37419	0.74589
3218.32038	0.74750
3216.26657	0.74923
3214.21276	0.75087
3212.15895	0.75252
3210.10514	0.75421
3208.05133	0.75592
3205.99752	0.75770
3203.94371	0.75949
3201.88990	0.76118
3199.83609	0.76301
3197.78228	0.76515
3195.72847	0.76719
3193.67466	0.76896
3191.62085	0.77105
3189.56704	0.77345
3187.51323	0.77559
3185.45942	0.77754
3183.40561	0.77961
3181.35180	0.78170
3179.29799	0.78393
3177.24418	0.78633
3175.19037	0.78856
3173.13656	0.79061
3171.08275	0.79275
3169.02894	0.79504
3166.97513	0.79751
3164.92132	0.80001
3162.86751	0.80233
3160.81370	0.80458
3158.75989	0.80687
3156.70608	0.80905
3154.65227	0.81124
3152.59846	0.81359
3150.54465	0.81594
3148.49084	0.81822
3146.43703	0.82052
3144.38322	0.82282
3142.32941	0.82499
3140.27560	0.82719
3138.22179	0.82958
3136.16798	0.83189
3134.11417	0.83388
3132.06036	0.83585
3130.00655	0.83803
3127.95274	0.84022
3125.89893	0.84235
3123.84512	0.84443
3121.79131	0.84621
3119.73750	0.84777
3117.68369	0.84943
3115.62988	0.85127
3113.57607	0.85310
3111.52226	0.85494
3109.46845	0.85693
3107.41464	0.85896
3105.36083	0.86071
3103.30702	0.86197
3101.25321	0.86307
3099.19940	0.86451
3097.14559	0.86619
3095.09177	0.86779
3093.03796	0.86914
3090.98415	0.87029
3088.93034	0.87153
3086.87653	0.87279
3084.82272	0.87403
3082.76891	0.87550
3080.71510	0.87720
3078.66129	0.87891
3076.60748	0.88034
3074.55367	0.88161
3072.49986	0.88321
3070.44605	0.88500
3068.39224	0.88655
3066.33843	0.88804
3064.28462	0.88974
3062.23081	0.89132
3060.17700	0.89268
3058.12319	0.89407
3056.06938	0.89560
3054.01557	0.89723
3051.96176	0.89871
3049.90795	0.90016
3047.85414	0.90182
3045.80033	0.90355
3043.74652	0.90509
3041.69271	0.90633
3039.63890	0.90750
3037.58509	0.90879
3035.53128	0.90999
3033.47747	0.91111
3031.42366	0.91231
3029.36985	0.91358
3027.31604	0.91482
3025.26223	0.91585
3023.20842	0.91675
3021.15461	0.91779
3019.10080	0.91888
3017.04699	0.91982
3014.99318	0.92062
3012.93937	0.92134
3010.88556	0.92215
3008.83175	0.92300
3006.77794	0.92376
3004.72413	0.92463
3002.67032	0.92550
3000.61651	0.92595
2998.56270	0.92606
2996.50889	0.92624
2994.45508	0.92661
2992.40127	0.92690
2990.34746	0.92682
2988.29365	0.92644
2986.23984	0.92585
2984.18603	0.92502
2982.13222	0.92403
2980.07841	0.92298
2978.02460	0.92176
2975.97079	0.92013
2973.91698	0.91800
2971.86317	0.91552
2969.80936	0.91274
2967.75555	0.90938
2965.70174	0.90551
2963.64793	0.90158
2961.59412	0.89795
2959.54031	0.89500
2957.48650	0.89275
2955.43269	0.89069
2953.37888	0.88847
2951.32507	0.88607
2949.27126	0.88322
2947.21745	0.87884
2945.16364	0.87193
2943.10983	0.86212
2941.05602	0.84944
2939.00221	0.83414
2936.94840	0.81635
2934.89459	0.79600
2932.84078	0.77281
2930.78697	0.74645
2928.73316	0.71661
2926.67935	0.68268
2924.62554	0.64356
2922.57173	0.59869
2920.51792	0.55095
2918.46411	0.50867
2916.41030	0.48436
2914.35649	0.48762
2912.30268	0.51617
2910.24887	0.55743
2908.19506	0.59897
2906.14125	0.63457
2904.08744	0.66292
2902.03363	0.68511
2899.97982	0.70320
2897.92601	0.71905
2895.87220	0.73374
2893.81839	0.74787
2891.76458	0.76169
2889.71077	0.77544
2887.65696	0.78933
2885.60315	0.80307
2883.54934	0.81624
2881.49553	0.82862
2879.44172	0.83989
2877.38791	0.84948
2875.33410	0.85698
2873.28029	0.86227
2871.22648	0.86537
2869.17267	0.86628
2867.11886	0.86446
2865.06505	0.85888
2863.01124	0.84829
2860.95743	0.83134
2858.90362	0.80639
2856.84981	0.77078
2854.79600	0.72093
2852.74219	0.65572
2850.68838	0.58624
2848.63457	0.54216
2846.58076	0.55022
2844.52695	0.60424
2842.47314	0.67454
2840.41933	0.73802
2838.36552	0.78740
2836.31171	0.82394
2834.25790	0.85082
2832.20409	0.87080
2830.15028	0.88580
2828.09647	0.89721
2826.04266	0.90597
2823.98885	0.91286
2821.93504	0.91862
2819.88123	0.92357
2817.82742	0.92780
2815.77361	0.93145
2813.71980	0.93463
2811.66599	0.93737
2809.61218	0.93975
2807.55837	0.94183
2805.50456	0.94363
2803.45075	0.94525
2801.39693	0.94685
2799.34312	0.94843
2797.28931	0.94995
2795.23550	0.95148
2793.18169	0.95290
2791.12788	0.95418
2789.07407	0.95541
2787.02026	0.95675
2784.96645	0.95806
2782.91264	0.95906
2780.85883	0.95982
2778.80502	0.96056
2776.75121	0.96130
2774.69740	0.96197
2772.64359	0.96264
2770.58978	0.96334
2768.53597	0.96395
2766.48216	0.96460
2764.42835	0.96536
2762.37454	0.96597
2760.32073	0.96639
2758.26692	0.96676
2756.21311	0.96709
2754.15930	0.96744
2752.10549	0.96780
2750.05168	0.96803
2747.99787	0.96818
2745.94406	0.96831
2743.89025	0.96846
2741.83644	0.96872
2739.78263	0.96892
2737.72882	0.96900
2735.67501	0.96916
2733.62120	0.96938
2731.56739	0.96960
2729.51358	0.96991
2727.45977	0.97023
2725.40596	0.97060
2723.35215	0.97112
2721.29834	0.97138
2719.24453	0.97133
2717.19072	0.97150
2715.13691	0.97190
2713.08310	0.97226
2711.02929	0.97255
2708.97548	0.97273
2706.92167	0.97278
2704.86786	0.97278
2702.81405	0.97298
2700.76024	0.97343
2698.70643	0.97377
2696.65262	0.97380
2694.59881	0.97367
2692.54500	0.97363
2690.49119	0.97379
2688.43738	0.97403
2686.38357	0.97423
2684.32976	0.97438
2682.27595	0.97431
2680.22214	0.97419
2678.16833	0.97431
2676.11452	0.97445
2674.06071	0.97437
2672.00690	0.97425
2669.95309	0.97419
2667.89928	0.97406
2665.84547	0.97390
2663.79166	0.97384
2661.73785	0.97382
2659.68404	0.97367
2657.63023	0.97352
2655.57642	0.97356
2653.52261	0.97376
2651.46880	0.97409
2649.41499	0.97436
2647.36118	0.97438
2645.30737	0.97436
2643.25356	0.97437
2641.19975	0.97424
2639.14594	0.97423
2637.09213	0.97455
2635.03832	0.97482
2632.98451	0.97477
2630.93070	0.97473
2628.87689	0.97504
2626.82308	0.97554
2624.76927	0.97594
2622.71546	0.97627
2620.66165	0.97651
2618.60784	0.97655
2616.55403	0.97667
2614.50022	0.97704
2612.44641	0.97732
2610.39260	0.97749
2608.33879	0.97786
2606.28498	0.97834
2604.23117	0.97858
2602.17736	0.97868
2600.12355	0.97896
2598.06974	0.97932
2596.01593	0.97952
2593.96212	0.97961
2591.90831	0.97981
2589.85450	0.98011
2587.80069	0.98051
2585.74688	0.98081
2583.69307	0.98077
2581.63926	0.98038
2579.58545	0.97997
2577.53164	0.97998
2575.47783	0.98031
2573.42402	0.98065
2571.37021	0.98088
2569.31640	0.98106
2567.26259	0.98131
2565.20878	0.98146
2563.15497	0.98133
2561.10116	0.98111
2559.04735	0.98098
2556.99354	0.98098
2554.93973	0.98105
2552.88592	0.98117
2550.83211	0.98144
2548.77830	0.98172
2546.72449	0.98186
2544.67068	0.98198
2542.61687	0.98200
2540.56306	0.98190
2538.50925	0.98190
2536.45544	0.98193
2534.40163	0.98169
2532.34782	0.98131
2530.29401	0.98122
2528.24020	0.98144
2526.18639	0.98166
2524.13258	0.98193
2522.07877	0.98223
2520.02496	0.98225
2517.97115	0.98205
2515.91734	0.98206
2513.86353	0.98226
2511.80972	0.98215
2509.75591	0.98200
2507.70210	0.98224
2505.64828	0.98237
2503.59447	0.98233
2501.54066	0.98234
2499.48685	0.98241
2497.43304	0.98264
2495.37923	0.98266
2493.32542	0.98245
2491.27161	0.98236
2489.21780	0.98235
2487.16399	0.98235
2485.11018	0.98244
2483.05637	0.98241
2481.00256	0.98229
2478.94875	0.98254
2476.89494	0.98288
2474.84113	0.98283
2472.78732	0.98257
2470.73351	0.98251
2468.67970	0.98267
2466.62589	0.98277
2464.57208	0.98265
2462.51827	0.98235
2460.46446	0.98214
2458.41065	0.98228
2456.35684	0.98251
2454.30303	0.98236
2452.24922	0.98201
2450.19541	0.98194
2448.14160	0.98210
2446.08779	0.98238
2444.03398	0.98270
2441.98017	0.98276
2439.92636	0.98251
2437.87255	0.98220
2435.81874	0.98196
2433.76493	0.98191
2431.71112	0.98214
2429.65731	0.98251
2427.60350	0.98275
2425.54969	0.98265
2423.49588	0.98250
2421.44207	0.98244
2419.38826	0.98223
2417.33445	0.98198
2415.28064	0.98201
2413.22683	0.98216
2411.17302	0.98217
2409.11921	0.98215
2407.06540	0.98223
2405.01159	0.98222
2402.95778	0.98204
2400.90397	0.98184
2398.85016	0.98160
2396.79635	0.98124
2394.74254	0.98099
2392.68873	0.98098
2390.63492	0.98118
2388.58111	0.98134
2386.52730	0.98132
2384.47349	0.98126
2382.41968	0.98121
2380.36587	0.98117
2378.31206	0.98139
2376.25825	0.98194
2374.20444	0.98214
2372.15063	0.98175
2370.09682	0.98131
2368.04301	0.98063
2365.98920	0.97995
2363.93539	0.98020
2361.88158	0.98052
2359.82777	0.97983
2357.77396	0.97936
2355.72015	0.97961
2353.66634	0.97969
2351.61253	0.97959
2349.55872	0.97944
2347.50491	0.97898
2345.45110	0.97827
2343.39729	0.97795
2341.34348	0.97802
2339.28967	0.97801
2337.23586	0.97808
2335.18205	0.97831
2333.12824	0.97839
2331.07443	0.97816
2329.02062	0.97755
2326.96681	0.97671
2324.91300	0.97613
2322.85919	0.97608
2320.80538	0.97621
2318.75157	0.97662
2316.69776	0.97731
2314.64395	0.97743
2312.59014	0.97699
2310.53633	0.97676
2308.48252	0.97690
2306.42871	0.97714
2304.37490	0.97720
2302.32109	0.97705
2300.26728	0.97678
2298.21347	0.97626
2296.15966	0.97563
2294.10585	0.97541
2292.05204	0.97567
2289.99823	0.97592
2287.94442	0.97602
2285.89061	0.97609
2283.83680	0.97592
2281.78299	0.97564
2279.72918	0.97601
2277.67537	0.97683
2275.62156	0.97690
2273.56775	0.97619
2271.51394	0.97588
2269.46013	0.97641
2267.40632	0.97698
2265.35251	0.97691
2263.29870	0.97632
2261.24489	0.97618
2259.19108	0.97664
2257.13727	0.97691
2255.08346	0.97717
2253.02965	0.97719
2250.97584	0.97652
2248.92203	0.97619
2246.86822	0.97658
2244.81441	0.97661
2242.76060	0.97613
2240.70679	0.97602
2238.65298	0.97654
2236.59917	0.97695
2234.54536	0.97692
2232.49155	0.97670
2230.43774	0.97643
2228.38393	0.97633
2226.33012	0.97559
2224.27631	0.97435
2222.22250	0.97434
2220.16869	0.97533
2218.11488	0.97608
2216.06107	0.97570
2214.00726	0.97471
2211.95344	0.97547
2209.89963	0.97710
2207.84582	0.97649
2205.79201	0.97521
2203.73820	0.97584
2201.68439	0.97734
2199.63058	0.97785
2197.57677	0.97712
2195.52296	0.97614
2193.46915	0.97516
2191.41534	0.97401
2189.36153	0.97410
2187.30772	0.97511
2185.25391	0.97464
2183.20010	0.97355
2181.14629	0.97344
2179.09248	0.97382
2177.03867	0.97526
2174.98486	0.97713
2172.93105	0.97698
2170.87724	0.97552
2168.82343	0.97547
2166.76962	0.97654
2164.71581	0.97620
2162.66200	0.97434
2160.60819	0.97353
2158.55438	0.97549
2156.50057	0.97837
2154.44676	0.97877
2152.39295	0.97711
2150.33914	0.97545
2148.28533	0.97453
2146.23152	0.97477
2144.17771	0.97536
2142.12390	0.97501
2140.07009	0.97451
2138.01628	0.97477
2135.96247	0.97526
2133.90866	0.97571
2131.85485	0.97558
2129.80104	0.97453
2127.74723	0.97351
2125.69342	0.97279
2123.63961	0.97232
2121.58580	0.97236
2119.53199	0.97235
2117.47818	0.97181
2115.42437	0.97110
2113.37056	0.97102
2111.31675	0.97162
2109.26294	0.97168
2107.20913	0.97114
2105.15532	0.97115
2103.10151	0.97158
2101.04770	0.97180
2098.99389	0.97212
2096.94008	0.97286
2094.88627	0.97345
2092.83246	0.97337
2090.77865	0.97283
2088.72484	0.97233
2086.67103	0.97242
2084.61722	0.97268
2082.56341	0.97255
2080.50960	0.97221
2078.45579	0.97205
2076.40198	0.97258
2074.34817	0.97323
2072.29436	0.97343
2070.24055	0.97373
2068.18674	0.97362
2066.13293	0.97270
2064.07912	0.97254
2062.02531	0.97388
2059.97150	0.97514
2057.91769	0.97528
2055.86388	0.97474
2053.81007	0.97400
2051.75626	0.97288
2049.70245	0.97170
2047.64864	0.97187
2045.59483	0.97380
2043.54102	0.97586
2041.48721	0.97577
2039.43340	0.97383
2037.37959	0.97271
2035.32578	0.97345
2033.27197	0.97554
2031.21816	0.97725
2029.16435	0.97727
2027.11054	0.97650
2025.05673	0.97588
2023.00292	0.97574
2020.94911	0.97644
2018.89530	0.97800
2016.84149	0.97867
2014.78768	0.97723
2012.73387	0.97624
2010.68006	0.97751
2008.62625	0.97896
2006.57244	0.97822
2004.51863	0.97701
2002.46482	0.97808
2000.41101	0.97973
1998.35720	0.98013
1996.30339	0.97995
1994.24958	0.97892
1992.19577	0.97742
1990.14196	0.97658
1988.08815	0.97611
1986.03434	0.97606
1983.98053	0.97667
1981.92672	0.97770
1979.87291	0.97832
1977.81910	0.97813
1975.76529	0.97864
1973.71148	0.97976
1971.65767	0.98034
1969.60386	0.98109
1967.55005	0.98214
1965.49624	0.98200
1963.44243	0.98089
1961.38862	0.98030
1959.33481	0.98000
1957.28100	0.98006
1955.22719	0.98086
1953.17338	0.98091
1951.11957	0.97957
1949.06576	0.97854
1947.01195	0.97861
1944.95814	0.97888
1942.90433	0.97866
1940.85052	0.97846
1938.79671	0.97897
1936.74290	0.97915
1934.68909	0.97880
1932.63528	0.97890
1930.58147	0.97885
1928.52766	0.97861
1926.47385	0.97911
1924.42004	0.98017
1922.36623	0.98080
1920.31242	0.98052
1918.25861	0.98018
1916.20479	0.98014
1914.15098	0.97981
1912.09717	0.97919
1910.04336	0.97892
1907.98955	0.97919
1905.93574	0.97968
1903.88193	0.98002
1901.82812	0.97983
1899.77431	0.97948
1897.72050	0.97938
1895.66669	0.97894
1893.61288	0.97819
1891.55907	0.97824
1889.50526	0.97916
1887.45145	0.97963
1885.39764	0.97921
1883.34383	0.97886
1881.29002	0.97915
1879.23621	0.97952
1877.18240	0.97979
1875.12859	0.97989
1873.07478	0.97938
1871.02097	0.97853
1868.96716	0.97800
1866.91335	0.97791
1864.85954	0.97775
1862.80573	0.97772
1860.75192	0.97809
1858.69811	0.97822
1856.64430	0.97794
1854.59049	0.97784
1852.53668	0.97796
1850.48287	0.97800
1848.42906	0.97768
1846.37525	0.97730
1844.32144	0.97746
1842.26763	0.97776
1840.21382	0.97788
1838.16001	0.97794
1836.10620	0.97771
1834.05239	0.97745
1831.99858	0.97726
1829.94477	0.97665
1827.89096	0.97595
1825.83715	0.97576
1823.78334	0.97569
1821.72953	0.97552
1819.67572	0.97544
1817.62191	0.97537
1815.56810	0.97492
1813.51429	0.97406
1811.46048	0.97332
1809.40667	0.97292
1807.35286	0.97268
1805.29905	0.97245
1803.24524	0.97228
1801.19143	0.97190
1799.13762	0.97097
1797.08381	0.96976
1795.03000	0.96874
1792.97619	0.96815
1790.92238	0.96745
1788.86857	0.96604
1786.81476	0.96460
1784.76095	0.96376
1782.70714	0.96327
1780.65333	0.96272
1778.59952	0.96192
1776.54571	0.96094
1774.49190	0.96001
1772.43809	0.95919
1770.38428	0.95843
1768.33047	0.95756
1766.27666	0.95671
1764.22285	0.95600
1762.16904	0.95516
1760.11523	0.95406
1758.06142	0.95283
1756.00761	0.95138
1753.95380	0.94974
1751.89999	0.94784
1749.84618	0.94539
1747.79237	0.94254
1745.73856	0.93955
1743.68475	0.93656
1741.63094	0.93387
1739.57713	0.93145
1737.52332	0.92932
1735.46951	0.92722
1733.41570	0.92462
1731.36189	0.92245
1729.30808	0.92007
1727.25427	0.91628
1725.20046	0.91112
1723.14665	0.90527
1721.09284	0.90024
1719.03903	0.89592
1716.98522	0.89122
1714.93141	0.88750
1712.87760	0.88583
1710.82379	0.88530
1708.76998	0.88513
1706.71617	0.88480
1704.66236	0.88419
1702.60855	0.88313
1700.55474	0.88090
1698.50093	0.87793
1696.44712	0.87521
1694.39331	0.87201
1692.33950	0.86882
1690.28569	0.86528
1688.23188	0.86103
1686.17807	0.85606
1684.12426	0.84801
1682.07045	0.83955
1680.01664	0.83313
1677.96283	0.82662
1675.90902	0.81910
1673.85521	0.81188
1671.80140	0.80673
1669.74759	0.80185
1667.69378	0.79699
1665.63997	0.79321
1663.58616	0.78912
1661.53235	0.78424
1659.47854	0.78000
1657.42473	0.77683
1655.37092	0.77424
1653.31711	0.77103
1651.26330	0.76821
1649.20949	0.76679
1647.15568	0.76514
1645.10187	0.76301
1643.04806	0.76132
1640.99425	0.76005
1638.94044	0.75933
1636.88663	0.75967
1634.83282	0.76189
1632.77901	0.76509
1630.72520	0.76855
1628.67139	0.77288
1626.61758	0.77777
1624.56377	0.78305
1622.50996	0.78908
1620.45614	0.79444
1618.40233	0.79952
1616.34852	0.80625
1614.29471	0.81251
1612.24090	0.81741
1610.18709	0.82249
1608.13328	0.82765
1606.07947	0.83232
1604.02566	0.83639
1601.97185	0.84006
1599.91804	0.84353
1597.86423	0.84671
1595.81042	0.84954
1593.75661	0.85211
1591.70280	0.85429
1589.64899	0.85596
1587.59518	0.85722
1585.54137	0.85813
1583.48756	0.85858
1581.43375	0.85860
1579.37994	0.85846
1577.32613	0.85806
1575.27232	0.85712
1573.21851	0.85625
1571.16470	0.85543
1569.11089	0.85445
1567.05708	0.85367
1565.00327	0.85285
1562.94946	0.85201
1560.89565	0.85152
1558.84184	0.85098
1556.78803	0.85053
1554.73422	0.85069
1552.68041	0.85122
1550.62660	0.85217
1548.57279	0.85374
1546.51898	0.85562
1544.46517	0.85759
1542.41136	0.85981
1540.35755	0.86329
1538.30374	0.86742
1536.24993	0.87018
1534.19612	0.87304
1532.14231	0.87651
1530.08850	0.87932
1528.03469	0.88181
1525.98088	0.88442
1523.92707	0.88681
1521.87326	0.88930
1519.81945	0.89162
1517.76564	0.89334
1515.71183	0.89505
1513.65802	0.89675
1511.60421	0.89835
1509.55040	0.89975
1507.49659	0.90127
1505.44278	0.90342
1503.38897	0.90480
1501.33516	0.90548
1499.28135	0.90600
1497.22754	0.90658
1495.17373	0.90706
1493.11992	0.90728
1491.06611	0.90718
1489.01230	0.90668
1486.95849	0.90571
1484.90468	0.90422
1482.85087	0.90180
1480.79706	0.89750
1478.74325	0.88833
1476.68944	0.86456
1474.63563	0.81919
1472.58182	0.77685
1470.52801	0.76998
1468.47420	0.77559
1466.42039	0.76961
1464.36658	0.75172
1462.31277	0.74633
1460.25896	0.76441
1458.20515	0.79366
1456.15134	0.81709
1454.09753	0.82871
1452.04372	0.83684
1449.98991	0.84393
1447.93610	0.84962
1445.88229	0.85369
1443.82848	0.85626
1441.77467	0.85829
1439.72086	0.86022
1437.66705	0.86254
1435.61324	0.86561
1433.55943	0.86862
1431.50562	0.87154
1429.45181	0.87444
1427.39800	0.87662
1425.34419	0.87779
1423.29038	0.87805
1421.23657	0.87790
1419.18276	0.87772
1417.12895	0.87710
1415.07514	0.87635
1413.02133	0.87592
1410.96752	0.87599
1408.91371	0.87666
1406.85990	0.87794
1404.80609	0.87980
1402.75228	0.88177
1400.69847	0.88351
1398.64466	0.88528
1396.59085	0.88721
1394.53704	0.88910
1392.48323	0.89057
1390.42942	0.89148
1388.37561	0.89193
1386.32180	0.89155
1384.26799	0.89019
1382.21418	0.88780
1380.16037	0.88442
1378.10656	0.88152
1376.05275	0.88089
1373.99894	0.88244
1371.94513	0.88447
1369.89132	0.88608
1367.83751	0.88755
1365.78370	0.88925
1363.72989	0.89125
1361.67608	0.89296
1359.62227	0.89394
1357.56846	0.89474
1355.51465	0.89545
1353.46084	0.89589
1351.40703	0.89647
1349.35322	0.89721
1347.29941	0.89780
1345.24560	0.89835
1343.19179	0.89897
1341.13798	0.89961
1339.08417	0.90025
1337.03036	0.90096
1334.97655	0.90176
1332.92274	0.90252
1330.86893	0.90305
1328.81512	0.90323
1326.76130	0.90305
1324.70749	0.90244
1322.65368	0.90151
1320.59987	0.90058
1318.54606	0.89957
1316.49225	0.89834
1314.43844	0.89725
1312.38463	0.89684
1310.33082	0.89711
1308.27701	0.89761
1306.22320	0.89798
1304.16939	0.89820
1302.11558	0.89831
1300.06177	0.89824
1298.00796	0.89812
1295.95415	0.89823
1293.90034	0.89842
1291.84653	0.89832
1289.79272	0.89792
1287.73891	0.89754
1285.68510	0.89746
1283.63129	0.89744
1281.57748	0.89739
1279.52367	0.89740
1277.46986	0.89736
1275.41605	0.89727
1273.36224	0.89697
1271.30843	0.89637
1269.25462	0.89567
1267.20081	0.89500
1265.14700	0.89427
1263.09319	0.89350
1261.03938	0.89272
1258.98557	0.89186
1256.93176	0.89122
1254.87795	0.89101
1252.82414	0.89082
1250.77033	0.89043
1248.71652	0.89012
1246.66271	0.88980
1244.60890	0.88927
1242.55509	0.88870
1240.50128	0.88832
1238.44747	0.88810
1236.39366	0.88808
1234.33985	0.88849
1232.28604	0.88915
1230.23223	0.88960
1228.17842	0.88981
1226.12461	0.89002
1224.07080	0.89029
1222.01699	0.89046
1219.96318	0.89030
1217.90937	0.88991
1215.85556	0.88955
1213.80175	0.88937
1211.74794	0.88934
1209.69413	0.88918
1207.64032	0.88881
1205.58651	0.88850
1203.53270	0.88837
1201.47889	0.88821
1199.42508	0.88796
1197.37127	0.88769
1195.31746	0.88733
1193.26365	0.88682
1191.20984	0.88631
1189.15603	0.88581
1187.10222	0.88507
1185.04841	0.88405
1182.99460	0.88291
1180.94079	0.88171
1178.88698	0.88025
1176.83317	0.87851
1174.77936	0.87692
1172.72555	0.87565
1170.67174	0.87449
1168.61793	0.87350
1166.56412	0.87292
1164.51031	0.87266
1162.45650	0.87223
1160.40269	0.87169
1158.34888	0.87147
1156.29507	0.87148
1154.24126	0.87155
1152.18745	0.87166
1150.13364	0.87148
1148.07983	0.87097
1146.02602	0.87037
1143.97221	0.86980
1141.91840	0.86930
1139.86459	0.86863
1137.81078	0.86739
1135.75697	0.86561
1133.70316	0.86380
1131.64935	0.86204
1129.59554	0.86002
1127.54173	0.85778
1125.48792	0.85553
1123.43411	0.85335
1121.38030	0.85098
1119.32649	0.84848
1117.27268	0.84619
1115.21887	0.84402
1113.16506	0.84181
1111.11125	0.83965
1109.05744	0.83764
1107.00363	0.83579
1104.94982	0.83419
1102.89601	0.83272
1100.84220	0.83124
1098.78839	0.83001
1096.73458	0.82917
1094.68077	0.82850
1092.62696	0.82784
1090.57315	0.82715
1088.51934	0.82654
1086.46553	0.82612
1084.41172	0.82592
1082.35791	0.82613
1080.30410	0.82674
1078.25029	0.82750
1076.19648	0.82820
1074.14267	0.82877
1072.08886	0.82950
1070.03505	0.83054
1067.98124	0.83145
1065.92743	0.83173
1063.87362	0.83164
1061.81981	0.83166
1059.76600	0.83171
1057.71219	0.83151
1055.65838	0.83086
1053.60457	0.82956
1051.55076	0.82782
1049.49695	0.82597
1047.44314	0.82415
1045.38933	0.82278
1043.33552	0.82185
1041.28171	0.82093
1039.22790	0.82029
1037.17409	0.82050
1035.12028	0.82136
1033.06647	0.82246
1031.01265	0.82375
1028.95884	0.82523
1026.90503	0.82680
1024.85122	0.82843
1022.79741	0.83005
1020.74360	0.83144
1018.68979	0.83256
1016.63598	0.83349
1014.58217	0.83427
1012.52836	0.83515
1010.47455	0.83645
1008.42074	0.83810
1006.36693	0.83989
1004.31312	0.84194
1002.25931	0.84406
1000.20550	0.84611
998.15169	0.84839
996.09788	0.85080
994.04407	0.85304
991.99026	0.85524
989.93645	0.85744
987.88264	0.85959
985.82883	0.86155
983.77502	0.86305
981.72121	0.86421
979.66740	0.86547
977.61359	0.86691
975.55978	0.86824
973.50597	0.86917
971.45216	0.86991
969.39835	0.87062
967.34454	0.87109
965.29073	0.87156
963.23692	0.87237
961.18311	0.87344
959.12930	0.87440
957.07549	0.87483
955.02168	0.87468
952.96787	0.87428
950.91406	0.87382
948.86025	0.87335
946.80644	0.87281
944.75263	0.87218
942.69882	0.87175
940.64501	0.87145
938.59120	0.87076
936.53739	0.86978
934.48358	0.86909
932.42977	0.86861
930.37596	0.86790
928.32215	0.86703
926.26834	0.86594
924.21453	0.86456
922.16072	0.86316
920.10691	0.86190
918.05310	0.86058
915.99929	0.85900
913.94548	0.85711
911.89167	0.85501
909.83786	0.85319
907.78405	0.85254
905.73024	0.85290
903.67643	0.85309
901.62262	0.85266
899.56881	0.85208
897.51500	0.85145
895.46119	0.85078
893.40738	0.85030
891.35357	0.84969
889.29976	0.84860
887.24595	0.84717
885.19214	0.84557
883.13833	0.84388
881.08452	0.84229
879.03071	0.84073
876.97690	0.83900
874.92309	0.83732
872.86928	0.83564
870.81547	0.83386
868.76166	0.83234
866.70785	0.83088
864.65404	0.82857
862.60023	0.82556
860.54642	0.82273
858.49261	0.82021
856.43880	0.81804
854.38499	0.81663
852.33118	0.81590
850.27737	0.81510
848.22356	0.81384
846.16975	0.81202
844.11594	0.80974
842.06213	0.80758
840.00832	0.80569
837.95451	0.80390
835.90070	0.80218
833.84689	0.80024
831.79308	0.79767
829.73927	0.79483
827.68546	0.79235
825.63165	0.79052
823.57784	0.78876
821.52403	0.78644
819.47022	0.78400
817.41641	0.78179
815.36260	0.77950
813.30879	0.77712
811.25498	0.77459
809.20117	0.77185
807.14736	0.76892
805.09355	0.76561
803.03974	0.76244
800.98593	0.75975
798.93212	0.75729
796.87831	0.75489
794.82450	0.75260
792.77069	0.75057
790.71688	0.74874
788.66307	0.74686
786.60926	0.74471
784.55545	0.74218
782.50164	0.73939
780.44783	0.73687
778.39402	0.73506
776.34021	0.73358
774.28640	0.73182
772.23259	0.72982
770.17878	0.72758
768.12497	0.72512
766.07116	0.72291
764.01735	0.72103
761.96354	0.71917
759.90973	0.71732
757.85592	0.71531
755.80211	0.71305
753.74830	0.71107
751.69449	0.70948
749.64068	0.70763
747.58687	0.70565
745.53306	0.70413
743.47925	0.70285
741.42544	0.70099
739.37163	0.69822
737.31781	0.69391
735.26400	0.68406
733.21019	0.66118
731.15638	0.63051
729.10257	0.61460
727.04876	0.61842
724.99495	0.62127
722.94114	0.60668
720.88733	0.57609
718.83352	0.55445
716.77971	0.56331
714.72590	0.58994
712.67209	0.61357
710.61828	0.62800
708.56447	0.63568
706.51066	0.64007
704.45685	0.64277
702.40304	0.64425
700.34923	0.64503
698.29542	0.64548
696.24161	0.64572
694.18780	0.64563
692.13399	0.64512
690.08018	0.64434
688.02637	0.64330
685.97256	0.64215
683.91875	0.64136
681.86494	0.64077
679.81113	0.63982
677.75732	0.63882
675.70351	0.63784
673.64970	0.63642
671.59589	0.63528
669.54208	0.63464
667.48827	0.63371
665.43446	0.63303
663.38065	0.63229
661.32684	0.63081
659.27303	0.62912
657.21922	0.62785
655.16541	0.62705
653.11160	0.62660
651.05779	0.62604
649.00398	0.62526
646.95017	0.62467
644.89636	0.62410
642.84255	0.62355
640.78874	0.62316
638.73493	0.62222
636.68112	0.62083
634.62731	0.61996
632.57350	0.61933
630.51969	0.61789
628.46588	0.61607
626.41207	0.61533
624.35826	0.61556
622.30445	0.61532
620.25064	0.61414
618.19683	0.61250
616.14302	0.61103
614.08921	0.61046
612.03540	0.61056
609.98159	0.60984
607.92778	0.60850
605.87397	0.60825
603.82016	0.60894
601.76635	0.60931
599.71254	0.60885
597.65873	0.60819
595.60492	0.60775
593.55111	0.60721
591.49730	0.60671
589.44349	0.60611
587.38968	0.60565
585.33587	0.60567
583.28206	0.60549
581.22825	0.60496
579.17444	0.60437
577.12063	0.60357
575.06682	0.60239
573.01301	0.60135
570.95920	0.60072
568.90539	0.60006
566.85158	0.59958
564.79777	0.59936
562.74396	0.59876
560.69015	0.59805
558.63634	0.59775
556.58253	0.59775
554.52872	0.59823
552.47491	0.59826
550.42110	0.59739
548.36729	0.59697
546.31348	0.59655
544.25967	0.59572
542.20586	0.59523
540.15205	0.59435
538.09824	0.59319
536.04443	0.59288
533.99062	0.59272
531.93681	0.59280
529.88300	0.59365
527.82919	0.59414
525.77538	0.59440
523.72157	0.59477
521.66776	0.59488
519.61395	0.59534
517.56014	0.59630
515.50633	0.59754
513.45252	0.59902
511.39871	0.60011
509.34490	0.60050
507.29109	0.60108
505.23728	0.60172
503.18347	0.60211
501.12966	0.60328
499.07585	0.60496
497.02204	0.60661
494.96823	0.60770
492.91442	0.60780
490.86061	0.60753
488.80680	0.60703
486.75299	0.60700
484.69918	0.60738
482.64537	0.60675
480.59156	0.60573
478.53775	0.60468
476.48394	0.60259
474.43013	0.60024
472.37632	0.59897
470.32251	0.59843
468.26870	0.59749
466.21489	0.59695
464.16108	0.59893
462.10727	0.60267
460.05346	0.60507
457.99965	0.60590
455.94584	0.60728
453.89203	0.60952
451.83822	0.61185
449.78441	0.61377
447.73060	0.61411
445.67679	0.61276
443.62298	0.61314
441.56916	0.61692
439.51535	0.62004
437.46154	0.62037
435.40773	0.62058
433.35392	0.62109
431.30011	0.62069
429.24630	0.62162
427.19249	0.62489
425.13868	0.62784
423.08487	0.62889
421.03106	0.62988
418.97725	0.63161
416.92344	0.63295
414.86963	0.63393
412.81582	0.63439
410.76201	0.63555
408.70820	0.63938
406.65439	0.64469
404.60058	0.64832
402.54677	0.65035
400.49296	0.65284
398.43915	0.65427
