3996.70104	0.95293
3994.64724	0.95292
3992.59344	0.95364
3990.53964	0.95376
3988.48583	0.95321
3986.43203	0.95282
3984.37823	0.95305
3982.32442	0.95358
3980.27062	0.95372
3978.21682	0.95353
3976.16301	0.95348
3974.10921	0.95382
3972.05541	0.95465
3970.00160	0.95524
3967.94780	0.95502
3965.89400	0.95440
3963.84019	0.95372
3961.78639	0.95297
3959.73259	0.95258
3957.67878	0.95282
3955.62498	0.95325
3953.57118	0.95367
3951.51737	0.95403
3949.46357	0.95403
3947.40977	0.95363
3945.35596	0.95351
3943.30216	0.95397
3941.24836	0.95431
3939.19455	0.95447
3937.14075	0.95467
3935.08695	0.95464
3933.03315	0.95447
3930.97934	0.95436
3928.92554	0.95424
3926.87174	0.95409
3924.81793	0.95407
3922.76413	0.95414
3920.71033	0.95395
3918.65652	0.95373
3916.60272	0.95370
3914.54892	0.95378
3912.49511	0.95422
3910.44131	0.95456
3908.38751	0.95456
3906.33370	0.95486
3904.27990	0.95523
3902.22610	0.95498
3900.17229	0.95466
3898.11849	0.95469
3896.06469	0.95439
3894.01088	0.95356
3891.95708	0.95313
3889.90328	0.95357
3887.84947	0.95404
3885.79567	0.95423
3883.74187	0.95445
3881.68807	0.95469
3879.63426	0.95458
3877.58046	0.95467
3875.52666	0.95517
3873.47285	0.95552
3871.41905	0.95600
3869.36525	0.95622
3867.31144	0.95554
3865.25764	0.95489
3863.20384	0.95470
3861.15003	0.95504
3859.09623	0.95531
3857.04243	0.95545
3854.98862	0.95617
3852.93482	0.95669
3850.88102	0.95638
3848.82721	0.95615
3846.77341	0.95590
3844.71961	0.95564
3842.66580	0.95542
3840.61200	0.95526
3838.55820	0.95507
3836.50439	0.95489
3834.45059	0.95498
3832.39679	0.95478
3830.34298	0.95398
3828.28918	0.95345
3826.23538	0.95348
3824.18158	0.95354
3822.12777	0.95380
3820.07397	0.95466
3818.02017	0.95498
3815.96636	0.95467
3813.91256	0.95507
3811.85876	0.95557
3809.80495	0.95533
3807.75115	0.95483
3805.69735	0.95475
3803.64354	0.95480
3801.58974	0.95478
3799.53594	0.95529
3797.48213	0.95586
3795.42833	0.95622
3793.37453	0.95648
3791.32072	0.95621
3789.26692	0.95564
3787.21312	0.95550
3785.15931	0.95548
3783.10551	0.95494
3781.05171	0.95439
3778.99790	0.95465
3776.94410	0.95545
3774.89030	0.95598
3772.83650	0.95611
3770.78269	0.95581
3768.72889	0.95524
3766.67509	0.95482
3764.62128	0.95478
3762.56748	0.95501
3760.51368	0.95501
3758.45987	0.95503
3756.40607	0.95564
3754.35227	0.95633
3752.29846	0.95665
3750.24466	0.95664
3748.19086	0.95710
3746.13705	0.95804
3744.08325	0.95827
3742.02945	0.95783
3739.97564	0.95792
3737.92184	0.95819
3735.86804	0.95787
3733.81423	0.95688
3731.76043	0.95594
3729.70663	0.95581
3727.65282	0.95632
3725.59902	0.95654
3723.54522	0.95647
3721.49141	0.95679
3719.43761	0.95694
3717.38381	0.95624
3715.33001	0.95524
3713.27620	0.95473
3711.22240	0.95429
3709.16860	0.95272
3707.11479	0.95088
3705.06099	0.94999
3703.00719	0.94991
3700.95338	0.94952
3698.89958	0.94845
3696.84578	0.94775
3694.79197	0.94802
3692.73817	0.94890
3690.68437	0.94956
3688.63056	0.94961
3686.57676	0.94955
3684.52296	0.94940
3682.46915	0.94895
3680.41535	0.94852
3678.36155	0.94866
3676.30774	0.94924
3674.25394	0.94893
3672.20014	0.94819
3670.14633	0.94793
3668.09253	0.94797
3666.03873	0.94789
3663.98492	0.94742
3661.93112	0.94692
3659.87732	0.94683
3657.82352	0.94667
3655.76971	0.94594
3653.71591	0.94532
3651.66211	0.94513
3649.60830	0.94538
3647.55450	0.94589
3645.50070	0.94570
3643.44689	0.94482
3641.39309	0.94377
3639.33929	0.94318
3637.28548	0.94292
3635.23168	0.94254
3633.17788	0.94209
3631.12407	0.94180
3629.07027	0.94169
3627.01647	0.94132
3624.96266	0.94081
3622.90886	0.94038
3620.85506	0.93985
3618.80125	0.93928
3616.74745	0.93953
3614.69365	0.94035
3612.63984	0.94075
3610.58604	0.94062
3608.53224	0.94026
3606.47844	0.94030
3604.42463	0.94093
3602.37083	0.94177
3600.31703	0.94267
3598.26322	0.94294
3596.20942	0.94202
3594.15562	0.94095
3592.10181	0.94084
3590.04801	0.94090
3587.99421	0.94051
3585.94040	0.93998
3583.88660	0.93961
3581.83280	0.93987
3579.77899	0.94064
3577.72519	0.94084
3575.67139	0.94010
3573.61758	0.93895
3571.56378	0.93812
3569.50998	0.93824
3567.45617	0.93870
3565.40237	0.93851
3563.34857	0.93845
3561.29476	0.93856
3559.24096	0.93811
3557.18716	0.93727
3555.13335	0.93685
3553.07955	0.93699
3551.02575	0.93724
3548.97195	0.93735
3546.91814	0.93761
3544.86434	0.93802
3542.81054	0.93788
3540.75673	0.93745
3538.70293	0.93720
3536.64913	0.93717
3534.59532	0.93714
3532.54152	0.93681
3530.48772	0.93666
3528.43391	0.93705
3526.38011	0.93729
3524.32631	0.93679
3522.27250	0.93589
3520.21870	0.93527
3518.16490	0.93503
3516.11109	0.93502
3514.05729	0.93496
3512.00349	0.93484
3509.94968	0.93496
3507.89588	0.93511
3505.84208	0.93535
3503.78827	0.93605
3501.73447	0.93651
3499.68067	0.93600
3497.62687	0.93517
3495.57306	0.93469
3493.51926	0.93477
3491.46546	0.93507
3489.41165	0.93493
3487.35785	0.93471
3485.30405	0.93459
3483.25024	0.93431
3481.19644	0.93398
3479.14264	0.93352
3477.08883	0.93355
3475.03503	0.93423
3472.98123	0.93459
3470.92742	0.93426
3468.87362	0.93375
3466.81982	0.93346
3464.76601	0.93341
3462.71221	0.93354
3460.65841	0.93362
3458.60460	0.93358
3456.55080	0.93320
3454.49700	0.93194
3452.44319	0.93100
3450.38939	0.93143
3448.33559	0.93200
3446.28178	0.93203
3444.22798	0.93163
3442.17418	0.93081
3440.12038	0.93023
3438.06657	0.93033
3436.01277	0.93071
3433.95897	0.93085
3431.90516	0.93083
3429.85136	0.93103
3427.79756	0.93113
3425.74375	0.93079
3423.68995	0.93012
3421.63615	0.92938
3419.58234	0.92916
3417.52854	0.92988
3415.47474	0.93072
3413.42093	0.93060
3411.36713	0.92986
3409.31333	0.92918
3407.25952	0.92869
3405.20572	0.92811
3403.15192	0.92761
3401.09811	0.92773
3399.04431	0.92822
3396.99051	0.92874
3394.93670	0.92939
3392.88290	0.92975
3390.82910	0.92970
3388.77529	0.92970
3386.72149	0.92955
3384.66769	0.92886
3382.61389	0.92839
3380.56008	0.92830
3378.50628	0.92789
3376.45248	0.92772
3374.39867	0.92830
3372.34487	0.92862
3370.29107	0.92809
3368.23726	0.92761
3366.18346	0.92765
3364.12966	0.92785
3362.07585	0.92827
3360.02205	0.92878
3357.96825	0.92895
3355.91444	0.92872
3353.86064	0.92840
3351.80684	0.92842
3349.75303	0.92883
3347.69923	0.92928
3345.64543	0.92959
3343.59162	0.92972
3341.53782	0.92973
3339.48402	0.92981
3337.43021	0.92986
3335.37641	0.92994
3333.32261	0.93025
3331.26881	0.93033
3329.21500	0.93023
3327.16120	0.93051
3325.10740	0.93065
3323.05359	0.93017
3320.99979	0.92988
3318.94599	0.93026
3316.89218	0.93070
3314.83838	0.93080
3312.78458	0.93083
3310.73077	0.93091
3308.67697	0.93092
3306.62317	0.93083
3304.56936	0.93075
3302.51556	0.93098
3300.46176	0.93138
3298.40795	0.93149
3296.35415	0.93149
3294.30035	0.93171
3292.24654	0.93190
3290.19274	0.93164
3288.13894	0.93124
3286.08513	0.93132
3284.03133	0.93184
3281.97753	0.93205
3279.92372	0.93173
3277.86992	0.93172
3275.81612	0.93215
3273.76232	0.93258
3271.70851	0.93313
3269.65471	0.93345
3267.60091	0.93275
3265.54710	0.93161
3263.49330	0.93125
3261.43950	0.93160
3259.38569	0.93199
3257.33189	0.93243
3255.27809	0.93323
3253.22428	0.93374
3251.17048	0.93318
3249.11668	0.93252
3247.06287	0.93277
3245.00907	0.93325
3242.95527	0.93340
3240.90146	0.93333
3238.84766	0.93312
3236.79386	0.93311
3234.74005	0.93333
3232.68625	0.93376
3230.63245	0.93457
3228.57864	0.93504
3226.52484	0.93453
3224.47104	0.93398
3222.41724	0.93412
3220.36343	0.93411
3218.30963	0.93380
3216.25583	0.93385
3214.20202	0.93422
3212.14822	0.93484
3210.09442	0.93566
3208.04061	0.93621
3205.98681	0.93640
3203.93301	0.93642
3201.87920	0.93594
3199.82540	0.93547
3197.77160	0.93577
3195.71779	0.93635
3193.66399	0.93687
3191.61019	0.93727
3189.55638	0.93733
3187.50258	0.93741
3185.44878	0.93767
3183.39497	0.93784
3181.34117	0.93802
3179.28737	0.93821
3177.23356	0.93843
3175.17976	0.93877
3173.12596	0.93887
3171.07215	0.93864
3169.01835	0.93824
3166.96455	0.93790
3164.91075	0.93812
3162.85694	0.93874
3160.80314	0.93919
3158.74934	0.93934
3156.69553	0.93929
3154.64173	0.93934
3152.58793	0.93971
3150.53412	0.94007
3148.48032	0.94040
3146.42652	0.94095
3144.37271	0.94133
3142.31891	0.94114
3140.26511	0.94054
3138.21130	0.94012
3136.15750	0.94035
3134.10370	0.94088
3132.04989	0.94128
3129.99609	0.94173
3127.94229	0.94211
3125.88848	0.94238
3123.83468	0.94261
3121.78088	0.94256
3119.72707	0.94236
3117.67327	0.94237
3115.61947	0.94256
3113.56566	0.94254
3111.51186	0.94223
3109.45806	0.94180
3107.40426	0.94169
3105.35045	0.94205
3103.29665	0.94227
3101.24285	0.94210
3099.18904	0.94194
3097.13524	0.94214
3095.08144	0.94252
3093.02763	0.94242
3090.97383	0.94161
3088.92003	0.94062
3086.86622	0.93948
3084.81242	0.93796
3082.75862	0.93688
3080.70481	0.93693
3078.65101	0.93780
3076.59721	0.93881
3074.54340	0.93933
3072.48960	0.93940
3070.43580	0.93945
3068.38199	0.93912
3066.32819	0.93786
3064.27439	0.93597
3062.22058	0.93409
3060.16678	0.93302
3058.11298	0.93336
3056.05918	0.93472
3054.00537	0.93625
3051.95157	0.93747
3049.89777	0.93847
3047.84396	0.93930
3045.79016	0.93986
3043.73636	0.94036
3041.68255	0.94073
3039.62875	0.94028
3037.57495	0.93872
3035.52114	0.93690
3033.46734	0.93501
3031.41354	0.93185
3029.35973	0.92739
3027.30593	0.92312
3025.25213	0.92082
3023.19832	0.92173
3021.14452	0.92539
3019.09072	0.93006
3017.03691	0.93400
3014.98311	0.93653
3012.92931	0.93829
3010.87550	0.93976
3008.82170	0.94075
3006.76790	0.94087
3004.71409	0.94047
3002.66029	0.94025
3000.60649	0.94033
2998.55269	0.94069
2996.49888	0.94141
2994.44508	0.94233
2992.39128	0.94333
2990.33747	0.94427
2988.28367	0.94482
2986.22987	0.94522
2984.17606	0.94570
2982.12226	0.94575
2980.06846	0.94523
2978.01465	0.94485
2975.96085	0.94517
2973.90705	0.94571
2971.85324	0.94603
2969.79944	0.94619
2967.74564	0.94616
2965.69183	0.94587
2963.63803	0.94536
2961.58423	0.94495
2959.53042	0.94477
2957.47662	0.94418
2955.42282	0.94314
2953.36901	0.94251
2951.31521	0.94220
2949.26141	0.94172
2947.20761	0.94106
2945.15380	0.94012
2943.10000	0.93901
2941.04620	0.93784
2938.99239	0.93606
2936.93859	0.93367
2934.88479	0.93135
2932.83098	0.92897
2930.77718	0.92623
2928.72338	0.92370
2926.66957	0.92175
2924.61577	0.92038
2922.56197	0.91955
2920.50816	0.91916
2918.45436	0.91914
2916.40056	0.91959
2914.34675	0.92048
2912.29295	0.92176
2910.23915	0.92348
2908.18534	0.92546
2906.13154	0.92714
2904.07774	0.92857
2902.02393	0.92999
2899.97013	0.93140
2897.91633	0.93298
2895.86252	0.93469
2893.80872	0.93602
2891.75492	0.93663
2889.70112	0.93700
2887.64731	0.93775
2885.59351	0.93858
2883.53971	0.93890
2881.48590	0.93914
2879.43210	0.93977
2877.37830	0.94035
2875.32449	0.94070
2873.27069	0.94106
2871.21689	0.94165
2869.16308	0.94218
2867.10928	0.94213
2865.05548	0.94177
2863.00167	0.94141
2860.94787	0.94089
2858.89407	0.93997
2856.84026	0.93885
2854.78646	0.93795
2852.73266	0.93728
2850.67885	0.93690
2848.62505	0.93713
2846.57125	0.93778
2844.51744	0.93844
2842.46364	0.93936
2840.40984	0.94089
2838.35603	0.94251
2836.30223	0.94364
2834.24843	0.94451
2832.19463	0.94508
2830.14082	0.94535
2828.08702	0.94552
2826.03322	0.94564
2823.97941	0.94595
2821.92561	0.94640
2819.87181	0.94678
2817.81800	0.94711
2815.76420	0.94728
2813.71040	0.94751
2811.65659	0.94799
2809.60279	0.94819
2807.54899	0.94806
2805.49518	0.94810
2803.44138	0.94830
2801.38758	0.94868
2799.33377	0.94915
2797.27997	0.94915
2795.22617	0.94860
2793.17236	0.94830
2791.11856	0.94870
2789.06476	0.94921
2787.01095	0.94923
2784.95715	0.94906
2782.90335	0.94897
2780.84955	0.94879
2778.79574	0.94878
2776.74194	0.94908
2774.68814	0.94942
2772.63433	0.94931
2770.58053	0.94901
2768.52673	0.94915
2766.47292	0.94937
2764.41912	0.94940
2762.36532	0.94960
2760.31151	0.94994
2758.25771	0.95009
2756.20391	0.95016
2754.15010	0.95037
2752.09630	0.95059
2750.04250	0.95061
2747.98869	0.95052
2745.93489	0.95059
2743.88109	0.95063
2741.82728	0.95052
2739.77348	0.95042
2737.71968	0.95034
2735.66587	0.95034
2733.61207	0.95022
2731.55827	0.94995
2729.50446	0.94981
2727.45066	0.95008
2725.39686	0.95075
2723.34306	0.95114
2721.28925	0.95105
2719.23545	0.95098
2717.18165	0.95108
2715.12784	0.95120
2713.07404	0.95115
2711.02024	0.95092
2708.96643	0.95082
2706.91263	0.95093
2704.85883	0.95103
2702.80502	0.95105
2700.75122	0.95114
2698.69742	0.95144
2696.64361	0.95172
2694.58981	0.95173
2692.53601	0.95162
2690.48220	0.95150
2688.42840	0.95140
2686.37460	0.95158
2684.32079	0.95188
2682.26699	0.95183
2680.21319	0.95164
2678.15938	0.95164
2676.10558	0.95169
2674.05178	0.95159
2671.99797	0.95133
2669.94417	0.95129
2667.89037	0.95153
2665.83657	0.95171
2663.78276	0.95192
2661.72896	0.95210
2659.67516	0.95186
2657.62135	0.95130
2655.56755	0.95103
2653.51375	0.95117
2651.45994	0.95123
2649.40614	0.95107
2647.35234	0.95101
2645.29853	0.95111
2643.24473	0.95131
2641.19093	0.95169
2639.13712	0.95206
2637.08332	0.95214
2635.02952	0.95199
2632.97571	0.95187
2630.92191	0.95172
2628.86811	0.95133
2626.81430	0.95115
2624.76050	0.95170
2622.70670	0.95254
2620.65289	0.95306
2618.59909	0.95326
2616.54529	0.95324
2614.49149	0.95301
2612.43768	0.95286
2610.38388	0.95307
2608.33008	0.95323
2606.27627	0.95298
2604.22247	0.95276
2602.16867	0.95263
2600.11486	0.95252
2598.06106	0.95280
2596.00726	0.95327
2593.95345	0.95352
2591.89965	0.95368
2589.84585	0.95380
2587.79204	0.95383
2585.73824	0.95368
2583.68444	0.95333
2581.63063	0.95310
2579.57683	0.95328
2577.52303	0.95371
2575.46922	0.95397
2573.41542	0.95382
2571.36162	0.95379
2569.30781	0.95438
2567.25401	0.95462
2565.20021	0.95385
2563.14640	0.95257
2561.09260	0.95190
2559.03880	0.95237
2556.98500	0.95288
2554.93119	0.95290
2552.87739	0.95313
2550.82359	0.95366
2548.76978	0.95409
2546.71598	0.95434
2544.66218	0.95440
2542.60837	0.95457
2540.55457	0.95509
2538.50077	0.95541
2536.44696	0.95540
2534.39316	0.95539
2532.33936	0.95520
2530.28555	0.95504
2528.23175	0.95479
2526.17795	0.95414
2524.12414	0.95410
2522.07034	0.95487
2520.01654	0.95522
2517.96273	0.95501
2515.90893	0.95503
2513.85513	0.95541
2511.80132	0.95570
2509.74752	0.95554
2507.69372	0.95498
2505.63992	0.95479
2503.58611	0.95504
2501.53231	0.95497
2499.47851	0.95505
2497.42470	0.95543
2495.37090	0.95549
2493.31710	0.95536
2491.26329	0.95499
2489.20949	0.95441
2487.15569	0.95414
2485.10188	0.95419
2483.04808	0.95468
2480.99428	0.95551
2478.94047	0.95574
2476.88667	0.95536
2474.83287	0.95532
2472.77906	0.95559
2470.72526	0.95547
2468.67146	0.95484
2466.61765	0.95453
2464.56385	0.95489
2462.51005	0.95507
2460.45624	0.95488
2458.40244	0.95484
2456.34864	0.95503
2454.29483	0.95526
2452.24103	0.95513
2450.18723	0.95455
2448.13343	0.95447
2446.07962	0.95532
2444.02582	0.95619
2441.97202	0.95654
2439.91821	0.95658
2437.86441	0.95630
2435.81061	0.95568
2433.75680	0.95520
2431.70300	0.95497
2429.64920	0.95488
2427.59539	0.95534
2425.54159	0.95630
2423.48779	0.95682
2421.43398	0.95645
2419.38018	0.95581
2417.32638	0.95557
2415.27257	0.95553
2413.21877	0.95527
2411.16497	0.95549
2409.11116	0.95690
2407.05736	0.95812
2405.00356	0.95780
2402.94975	0.95701
2400.89595	0.95695
2398.84215	0.95709
2396.78834	0.95683
2394.73454	0.95662
2392.68074	0.95669
2390.62694	0.95685
2388.57313	0.95690
2386.51933	0.95651
2384.46553	0.95632
2382.41172	0.95703
2380.35792	0.95730
2378.30412	0.95658
2376.25031	0.95594
2374.19651	0.95550
2372.14271	0.95549
2370.08890	0.95616
2368.03510	0.95630
2365.98130	0.95612
2363.92749	0.95710
2361.87369	0.95801
2359.81989	0.95763
2357.76608	0.95730
2355.71228	0.95735
2353.65848	0.95718
2351.60467	0.95702
2349.55087	0.95681
2347.49707	0.95615
2345.44326	0.95514
2343.38946	0.95449
2341.33566	0.95477
2339.28186	0.95499
2337.22805	0.95469
2335.17425	0.95491
2333.12045	0.95527
2331.06664	0.95525
2329.01284	0.95537
2326.95904	0.95537
2324.90523	0.95507
2322.85143	0.95499
2320.79763	0.95527
2318.74382	0.95572
2316.69002	0.95610
2314.63622	0.95611
2312.58241	0.95596
2310.52861	0.95614
2308.47481	0.95663
2306.42100	0.95684
2304.36720	0.95637
2302.31340	0.95603
2300.25959	0.95630
2298.20579	0.95598
2296.15199	0.95523
2294.09818	0.95537
2292.04438	0.95581
2289.99058	0.95565
2287.93677	0.95491
2285.88297	0.95420
2283.82917	0.95413
2281.77537	0.95447
2279.72156	0.95501
2277.66776	0.95556
2275.61396	0.95571
2273.56015	0.95566
2271.50635	0.95576
2269.45255	0.95609
2267.39874	0.95645
2265.34494	0.95639
2263.29114	0.95686
2261.23733	0.95886
2259.18353	0.96063
2257.12973	0.95999
2255.07592	0.95812
2253.02212	0.95745
2250.96832	0.95741
2248.91451	0.95665
2246.86071	0.95568
2244.80691	0.95596
2242.75310	0.95733
2240.69930	0.95843
2238.64550	0.95878
2236.59169	0.95825
2234.53789	0.95778
2232.48409	0.95798
2230.43029	0.95759
2228.37648	0.95660
2226.32268	0.95635
2224.26888	0.95745
2222.21507	0.95892
2220.16127	0.95858
2218.10747	0.95700
2216.05366	0.95693
2213.99986	0.95754
2211.94606	0.95715
2209.89225	0.95735
2207.83845	0.95826
2205.78465	0.95815
2203.73084	0.95844
2201.67704	0.96000
2199.62324	0.96015
2197.56943	0.95834
2195.51563	0.95726
2193.46183	0.95743
2191.40802	0.95667
2189.35422	0.95542
2187.30042	0.95643
2185.24661	0.95985
2183.19281	0.96258
2181.13901	0.96164
2179.08520	0.95970
2177.03140	0.95953
2174.97760	0.95883
2172.92380	0.95862
2170.86999	0.95996
2168.81619	0.96005
2166.76239	0.95839
2164.70858	0.95590
2162.65478	0.95477
2160.60098	0.95812
2158.54717	0.96302
2156.49337	0.96343
2154.43957	0.96125
2152.38576	0.96107
2150.33196	0.96264
2148.27816	0.96234
2146.22435	0.95974
2144.17055	0.95791
2142.11675	0.95846
2140.06294	0.96029
2138.00914	0.96155
2135.95534	0.96235
2133.90153	0.96305
2131.84773	0.96285
2129.79393	0.96191
2127.74012	0.96134
2125.68632	0.96095
2123.63252	0.95981
2121.57871	0.95854
2119.52491	0.95830
2117.47111	0.95914
2115.41731	0.96000
2113.36350	0.96047
2111.30970	0.96122
2109.25590	0.96200
2107.20209	0.96174
2105.14829	0.96045
2103.09449	0.95908
2101.04068	0.95881
2098.98688	0.96056
2096.93308	0.96238
2094.87927	0.96181
2092.82547	0.95998
2090.77167	0.95868
2088.71786	0.95812
2086.66406	0.95764
2084.61026	0.95775
2082.55645	0.95921
2080.50265	0.96037
2078.44885	0.96086
2076.39504	0.96178
2074.34124	0.96184
2072.28744	0.96091
2070.23363	0.96122
2068.17983	0.96208
2066.12603	0.96137
2064.07223	0.96057
2062.01842	0.96190
2059.96462	0.96386
2057.91082	0.96339
2055.85701	0.96043
2053.80321	0.95814
2051.74941	0.95824
2049.69560	0.96024
2047.64180	0.96262
2045.58800	0.96277
2043.53419	0.96246
2041.48039	0.96331
2039.42659	0.96202
2037.37278	0.95949
2035.31898	0.95947
2033.26518	0.96160
2031.21137	0.96400
2029.15757	0.96553
2027.10377	0.96551
2025.04996	0.96482
2022.99616	0.96432
2020.94236	0.96440
2018.88855	0.96419
2016.83475	0.96165
2014.78095	0.95920
2012.72714	0.96061
2010.67334	0.96403
2008.61954	0.96588
2006.56574	0.96675
2004.51193	0.96717
2002.45813	0.96587
2000.40433	0.96441
1998.35052	0.96403
1996.29672	0.96391
1994.24292	0.96504
1992.18911	0.96795
1990.13531	0.96974
1988.08151	0.96784
1986.02770	0.96290
1983.97390	0.95883
1981.92010	0.95821
1979.86629	0.96048
1977.81249	0.96418
1975.75869	0.96723
1973.70488	0.96847
1971.65108	0.96764
1969.59728	0.96582
1967.54347	0.96456
1965.48967	0.96280
1963.43587	0.95998
1961.38206	0.95935
1959.32826	0.96131
1957.27446	0.96241
1955.22066	0.96202
1953.16685	0.96079
1951.11305	0.95952
1949.05925	0.95966
1947.00544	0.96037
1944.95164	0.96077
1942.89784	0.96065
1940.84403	0.95950
1938.79023	0.95958
1936.73643	0.96116
1934.68262	0.96198
1932.62882	0.96217
1930.57502	0.96169
1928.52121	0.96013
1926.46741	0.95991
1924.41361	0.96216
1922.35980	0.96396
1920.30600	0.96394
1918.25220	0.96348
1916.19839	0.96259
1914.14459	0.96131
1912.09079	0.96082
1910.03698	0.96127
1907.98318	0.96175
1905.92938	0.96154
1903.87557	0.96102
1901.82177	0.96114
1899.76797	0.96185
1897.71417	0.96222
1895.66036	0.96179
1893.60656	0.96119
1891.55276	0.96078
1889.49895	0.96059
1887.44515	0.96070
1885.39135	0.96054
1883.33754	0.95995
1881.28374	0.95916
1879.22994	0.95864
1877.17613	0.95854
1875.12233	0.95834
1873.06853	0.95786
1871.01472	0.95745
1868.96092	0.95742
1866.90712	0.95791
1864.85331	0.95875
1862.79951	0.95948
1860.74571	0.95965
1858.69190	0.95992
1856.63810	0.96097
1854.58430	0.96159
1852.53049	0.96091
1850.47669	0.96041
1848.42289	0.96126
1846.36908	0.96202
1844.31528	0.96167
1842.26148	0.96143
1840.20768	0.96194
1838.15387	0.96235
1836.10007	0.96204
1834.04627	0.96179
1831.99246	0.96202
1829.93866	0.96187
1827.88486	0.96147
1825.83105	0.96144
1823.77725	0.96137
1821.72345	0.96116
1819.66964	0.96090
1817.61584	0.96059
1815.56204	0.96018
1813.50823	0.95982
1811.45443	0.95954
1809.40063	0.95925
1807.34682	0.95915
1805.29302	0.95903
1803.23922	0.95884
1801.18541	0.95892
1799.13161	0.95915
1797.07781	0.95909
1795.02400	0.95889
1792.97020	0.95914
1790.91640	0.95954
1788.86260	0.95942
1786.80879	0.95908
1784.75499	0.95882
1782.70119	0.95919
1780.64738	0.95983
1778.59358	0.95952
1776.53978	0.95884
1774.48597	0.95884
1772.43217	0.95927
1770.37837	0.95922
1768.32456	0.95870
1766.27076	0.95839
1764.21696	0.95839
1762.16315	0.95865
1760.10935	0.95907
1758.05555	0.95910
1756.00174	0.95854
1753.94794	0.95796
1751.89414	0.95751
1749.84033	0.95725
1747.78653	0.95725
1745.73273	0.95712
1743.67892	0.95700
1741.62512	0.95707
1739.57132	0.95688
1737.51751	0.95642
1735.46371	0.95643
1733.40991	0.95663
1731.35611	0.95630
1729.30230	0.95557
1727.24850	0.95492
1725.19470	0.95477
1723.14089	0.95493
1721.08709	0.95529
1719.03329	0.95590
1716.97948	0.95649
1714.92568	0.95658
1712.87188	0.95631
1710.81807	0.95591
1708.76427	0.95542
1706.71047	0.95478
1704.65666	0.95428
1702.60286	0.95431
1700.54906	0.95431
1698.49525	0.95401
1696.44145	0.95367
1694.38765	0.95314
1692.33384	0.95249
1690.28004	0.95168
1688.22624	0.95087
1686.17243	0.95048
1684.11863	0.95013
1682.06483	0.94930
1680.01103	0.94858
1677.95722	0.94810
1675.90342	0.94735
1673.84962	0.94633
1671.79581	0.94569
1669.74201	0.94507
1667.68821	0.94432
1665.63440	0.94392
1663.58060	0.94389
1661.52680	0.94382
1659.47299	0.94351
1657.41919	0.94349
1655.36539	0.94372
1653.31158	0.94314
1651.25778	0.94182
1649.20398	0.94135
1647.15017	0.94160
1645.09637	0.94185
1643.04257	0.94174
1640.98876	0.94184
1638.93496	0.94240
1636.88116	0.94309
1634.82735	0.94292
1632.77355	0.94217
1630.71975	0.94177
1628.66594	0.94174
1626.61214	0.94163
1624.55834	0.94106
1622.50454	0.94044
1620.45073	0.94028
1618.39693	0.94045
1616.34313	0.94061
1614.28932	0.94047
1612.23552	0.93999
1610.18172	0.93877
1608.12791	0.93624
1606.07411	0.93212
1604.02031	0.92702
1601.96650	0.92306
1599.91270	0.92261
1597.85890	0.92577
1595.80509	0.93034
1593.75129	0.93422
1591.69749	0.93700
1589.64368	0.93896
1587.58988	0.93988
1585.53608	0.93955
1583.48227	0.93898
1581.42847	0.93984
1579.37467	0.94203
1577.32086	0.94457
1575.26706	0.94663
1573.21326	0.94770
1571.15945	0.94859
1569.10565	0.94951
1567.05185	0.95009
1564.99805	0.95067
1562.94424	0.95131
1560.89044	0.95185
1558.83664	0.95203
1556.78283	0.95180
1554.72903	0.95186
1552.67523	0.95200
1550.62142	0.95181
1548.56762	0.95147
1546.51382	0.95154
1544.46001	0.95188
1542.40621	0.95186
1540.35241	0.95142
1538.29860	0.95164
1536.24480	0.95250
1534.19100	0.95352
1532.13719	0.95419
1530.08339	0.95428
1528.02959	0.95444
1525.97578	0.95487
1523.92198	0.95533
1521.86818	0.95554
1519.81437	0.95534
1517.76057	0.95492
1515.70677	0.95433
1513.65297	0.95413
1511.59916	0.95456
1509.54536	0.95493
1507.49156	0.95444
1505.43775	0.95322
1503.38395	0.95209
1501.33015	0.95029
1499.27634	0.94527
1497.22254	0.93136
1495.16874	0.91044
1493.11493	0.89751
1491.06113	0.90023
1489.00733	0.91627
1486.95352	0.93019
1484.89972	0.93703
1482.84592	0.94098
1480.79211	0.94335
1478.73831	0.94458
1476.68451	0.94555
1474.63070	0.94648
1472.57690	0.94693
1470.52310	0.94670
1468.46929	0.94637
1466.41549	0.94621
1464.36169	0.94620
1462.30788	0.94617
1460.25408	0.94518
1458.20028	0.93849
1456.14648	0.91894
1454.09267	0.90021
1452.03887	0.89206
1449.98507	0.89451
1447.93126	0.90350
1445.87746	0.91198
1443.82366	0.91820
1441.76985	0.92331
1439.71605	0.92720
1437.66225	0.93056
1435.60844	0.93387
1433.55464	0.93633
1431.50084	0.93856
1429.44703	0.94065
1427.39323	0.94201
1425.33943	0.94288
1423.28562	0.94338
1421.23182	0.94362
1419.17802	0.94404
1417.12421	0.94489
1415.07041	0.94570
1413.01661	0.94635
1410.96280	0.94701
1408.90900	0.94760
1406.85520	0.94832
1404.80139	0.94908
1402.74759	0.94947
1400.69379	0.94989
1398.63999	0.95049
1396.58618	0.95082
1394.53238	0.95083
1392.47858	0.95070
1390.42477	0.95031
1388.37097	0.94967
1386.31717	0.94905
1384.26336	0.94858
1382.20956	0.94806
1380.15576	0.94724
1378.10195	0.94642
1376.04815	0.94590
1373.99435	0.94543
1371.94054	0.94501
1369.88674	0.94493
1367.83294	0.94523
1365.77913	0.94571
1363.72533	0.94624
1361.67153	0.94700
1359.61772	0.94807
1357.56392	0.94912
1355.51012	0.94965
1353.45631	0.94950
1351.40251	0.94935
1349.34871	0.94953
1347.29491	0.94984
1345.24110	0.95033
1343.18730	0.95088
1341.13350	0.95127
1339.07969	0.95166
1337.02589	0.95194
1334.97209	0.95185
1332.91828	0.95147
1330.86448	0.95092
1328.81068	0.95048
1326.75687	0.95042
1324.70307	0.95056
1322.64927	0.95067
1320.59546	0.95069
1318.54166	0.95044
1316.48786	0.94997
1314.43405	0.94957
1312.38025	0.94954
1310.32645	0.94997
1308.27264	0.95074
1306.21884	0.95154
1304.16504	0.95191
1302.11123	0.95188
1300.05743	0.95200
1298.00363	0.95246
1295.94982	0.95274
1293.89602	0.95268
1291.84222	0.95254
1289.78842	0.95237
1287.73461	0.95211
1285.68081	0.95172
1283.62701	0.95108
1281.57320	0.95048
1279.51940	0.95028
1277.46560	0.95038
1275.41179	0.95053
1273.35799	0.95059
1271.30419	0.95054
1269.25038	0.95053
1267.19658	0.95084
1265.14278	0.95135
1263.08897	0.95152
1261.03517	0.95139
1258.98137	0.95124
1256.92756	0.95117
1254.87376	0.95115
1252.81996	0.95119
1250.76615	0.95115
1248.71235	0.95091
1246.65855	0.95089
1244.60474	0.95120
1242.55094	0.95140
1240.49714	0.95111
1238.44334	0.95056
1236.38953	0.95020
1234.33573	0.94991
1232.28193	0.94951
1230.22812	0.94897
1228.17432	0.94834
1226.12052	0.94776
1224.06671	0.94716
1222.01291	0.94650
1219.95911	0.94561
1217.90530	0.94446
1215.85150	0.94338
1213.79770	0.94213
1211.74389	0.94050
1209.69009	0.93868
1207.63629	0.93691
1205.58248	0.93508
1203.52868	0.93288
1201.47488	0.93051
1199.42107	0.92811
1197.36727	0.92563
1195.31347	0.92322
1193.25966	0.92086
1191.20586	0.91850
1189.15206	0.91588
1187.09825	0.91284
1185.04445	0.90953
1182.99065	0.90594
1180.93685	0.90262
1178.88304	0.90033
1176.82924	0.89873
1174.77544	0.89687
1172.72163	0.89466
1170.66783	0.89231
1168.61403	0.88958
1166.56022	0.88671
1164.50642	0.88429
1162.45262	0.88258
1160.39881	0.88131
1158.34501	0.87943
1156.29121	0.87681
1154.23740	0.87465
1152.18360	0.87343
1150.12980	0.87275
1148.07599	0.87223
1146.02219	0.87153
1143.96839	0.87037
1141.91458	0.86910
1139.86078	0.86782
1137.80698	0.86624
1135.75317	0.86463
1133.69937	0.86300
1131.64557	0.86121
1129.59176	0.85897
1127.53796	0.85589
1125.48416	0.85234
1123.43036	0.84853
1121.37655	0.84446
1119.32275	0.84036
1117.26895	0.83626
1115.21514	0.83203
1113.16134	0.82786
1111.10754	0.82408
1109.05373	0.82061
1106.99993	0.81735
1104.94613	0.81456
1102.89232	0.81225
1100.83852	0.81018
1098.78472	0.80830
1096.73091	0.80654
1094.67711	0.80471
1092.62331	0.80291
1090.56950	0.80155
1088.51570	0.80080
1086.46190	0.79996
1084.40809	0.79853
1082.35429	0.79705
1080.30049	0.79591
1078.24668	0.79457
1076.19288	0.79267
1074.13908	0.79035
1072.08528	0.78784
1070.03147	0.78514
1067.97767	0.78218
1065.92387	0.77912
1063.87006	0.77618
1061.81626	0.77352
1059.76246	0.77087
1057.70865	0.76781
1055.65485	0.76423
1053.60105	0.76006
1051.54724	0.75546
1049.49344	0.75023
1047.43964	0.74418
1045.38583	0.73749
1043.33203	0.73040
1041.27823	0.72327
1039.22442	0.71584
1037.17062	0.70811
1035.11682	0.70042
1033.06301	0.69260
1031.00921	0.68485
1028.95541	0.67802
1026.90160	0.67358
1024.84780	0.67180
1022.79400	0.67107
1020.74019	0.67056
1018.68639	0.66987
1016.63259	0.66863
1014.57879	0.66713
1012.52498	0.66541
1010.47118	0.66363
1008.41738	0.66198
1006.36357	0.66070
1004.30977	0.66022
1002.25597	0.66075
1000.20216	0.66258
998.14836	0.66566
996.09456	0.66964
994.04075	0.67405
991.98695	0.67870
989.93315	0.68361
987.87934	0.68886
985.82554	0.69467
983.77174	0.70096
981.71793	0.70783
979.66413	0.71537
977.61033	0.72376
975.55652	0.73335
973.50272	0.74364
971.44892	0.75354
969.39511	0.76222
967.34131	0.76953
965.28751	0.77608
963.23371	0.78263
961.17990	0.78957
959.12610	0.79665
957.07230	0.80336
955.01849	0.80912
952.96469	0.81359
950.91089	0.81734
948.85708	0.82075
946.80328	0.82376
944.74948	0.82654
942.69567	0.82909
940.64187	0.83123
938.58807	0.83302
936.53426	0.83528
934.48046	0.83834
932.42666	0.84133
930.37285	0.84383
928.31905	0.84590
926.26525	0.84750
924.21144	0.84834
922.15764	0.84836
920.10384	0.84765
918.05003	0.84623
915.99623	0.84455
913.94243	0.84288
911.88862	0.84126
909.83482	0.84030
907.78102	0.84099
905.72722	0.84407
903.67341	0.84963
901.61961	0.85692
899.56581	0.86445
897.51200	0.87128
895.45820	0.87705
893.40440	0.88125
891.35059	0.88416
889.29679	0.88663
887.24299	0.88909
885.18918	0.89136
883.13538	0.89268
881.08158	0.89294
879.02777	0.89294
876.97397	0.89374
874.92017	0.89582
872.86636	0.89836
870.81256	0.90050
868.75876	0.90224
866.70495	0.90442
864.65115	0.90698
862.59735	0.90878
860.54354	0.90997
858.48974	0.91109
856.43594	0.91221
854.38213	0.91330
852.32833	0.91395
850.27453	0.91400
848.22073	0.91370
846.16692	0.91331
844.11312	0.91269
842.05932	0.91175
840.00551	0.91101
837.95171	0.91069
835.89791	0.91025
833.84410	0.90964
831.79030	0.90995
829.73650	0.91120
827.68269	0.91238
825.62889	0.91326
823.57509	0.91364
821.52128	0.91398
819.46748	0.91456
817.41368	0.91483
815.35987	0.91507
813.30607	0.91472
811.25227	0.91297
809.19846	0.90991
807.14466	0.90596
805.09086	0.90172
803.03705	0.89747
800.98325	0.89398
798.92945	0.89185
796.87565	0.89128
794.82184	0.89222
792.76804	0.89324
790.71424	0.89317
788.66043	0.89220
786.60663	0.89081
784.55283	0.88868
782.49902	0.88546
780.44522	0.88202
778.39142	0.87898
776.33761	0.87626
774.28381	0.87268
772.23001	0.86675
770.17620	0.85886
768.12240	0.85020
766.06860	0.84158
764.01479	0.83290
761.96099	0.82357
759.90719	0.81438
757.85338	0.80701
755.79958	0.80295
753.74578	0.80195
751.69197	0.80235
749.63817	0.80358
747.58437	0.80650
745.53056	0.81265
743.47676	0.82290
741.42296	0.83579
739.36916	0.84817
737.31535	0.85830
735.26155	0.86715
733.20775	0.87472
731.15394	0.87987
729.10014	0.88319
727.04634	0.88576
724.99253	0.88827
722.93873	0.89133
720.88493	0.89444
718.83112	0.89615
716.77732	0.89622
714.72352	0.89501
712.66971	0.89096
710.61591	0.88151
708.56211	0.86399
706.50830	0.83473
704.45450	0.79123
702.40070	0.73566
700.34689	0.67438
698.29309	0.61906
696.23929	0.59318
694.18548	0.61702
692.13168	0.67619
690.07788	0.73466
688.02408	0.77393
685.97027	0.79731
683.91647	0.81156
681.86267	0.82069
679.80886	0.82688
677.75506	0.83094
675.70126	0.83441
673.64745	0.83761
671.59365	0.83965
669.53985	0.84159
667.48604	0.84444
665.43224	0.84690
663.37844	0.84769
661.32463	0.84728
659.27083	0.84686
657.21703	0.84609
655.16322	0.84506
653.10942	0.84407
651.05562	0.84300
649.00181	0.84273
646.94801	0.84384
644.89421	0.84521
642.84040	0.84584
640.78660	0.84733
638.73280	0.84960
636.67899	0.85098
634.62519	0.85137
632.57139	0.85091
630.51759	0.85079
628.46378	0.85133
626.40998	0.85129
624.35618	0.85003
622.30237	0.84770
620.24857	0.84595
618.19477	0.84515
616.14096	0.84356
614.08716	0.84093
612.03336	0.83752
609.97955	0.83382
607.92575	0.83142
605.87195	0.83037
603.81814	0.82817
601.76434	0.82372
599.71054	0.81947
597.65673	0.81647
595.60293	0.81507
593.54913	0.81548
591.49532	0.81494
589.44152	0.81242
587.38772	0.80975
585.33391	0.80842
583.28011	0.80907
581.22631	0.81049
579.17250	0.81027
577.11870	0.80767
575.06490	0.80431
573.01110	0.80108
570.95729	0.79826
568.90349	0.79587
566.84969	0.79137
564.79588	0.78460
562.74208	0.77811
560.68828	0.77243
558.63447	0.76642
556.58067	0.76006
554.52687	0.75496
552.47306	0.74994
550.41926	0.74299
548.36546	0.73343
546.31165	0.72136
544.25785	0.70989
542.20405	0.69980
540.15024	0.68986
538.09644	0.68207
536.04264	0.67771
533.98883	0.67548
531.93503	0.67513
529.88123	0.67755
527.82742	0.68216
525.77362	0.68733
523.71982	0.69148
521.66602	0.69576
519.61221	0.70259
517.55841	0.70979
515.50461	0.71461
513.45080	0.71923
511.39700	0.72579
509.34320	0.73263
507.28939	0.73676
505.23559	0.73956
503.18179	0.74240
501.12798	0.74320
499.07418	0.74203
497.02038	0.74163
494.96657	0.74199
492.91277	0.73931
490.85897	0.73204
488.80516	0.72191
486.75136	0.71082
484.69756	0.69881
482.64375	0.68524
480.58995	0.67211
478.53615	0.65827
476.48234	0.64261
474.42854	0.62822
472.37474	0.61575
470.32093	0.60716
468.26713	0.60392
466.21333	0.60453
464.15953	0.60810
462.10572	0.61356
460.05192	0.62105
457.99812	0.62927
455.94431	0.63489
453.89051	0.63987
451.83671	0.64905
449.78290	0.66002
447.72910	0.66558
445.67530	0.66644
443.62149	0.66591
441.56769	0.66461
439.51389	0.66304
437.46008	0.66002
435.40628	0.65814
433.35248	0.65772
431.29867	0.65441
429.24487	0.64894
427.19107	0.64491
425.13726	0.64839
423.08346	0.65840
421.02966	0.66485
418.97585	0.66302
416.92205	0.65736
414.86825	0.66046
412.81445	0.67332
410.76064	0.68608
408.70684	0.69213
406.65304	0.69665
404.59923	0.70102
402.54543	0.69782
400.49163	0.69068
398.43782	0.69272
