3996.71440	0.98873
3994.66059	0.98866
3992.60678	0.98859
3990.55297	0.98858
3988.49916	0.98845
3986.44535	0.98830
3984.39154	0.98809
3982.33773	0.98795
3980.28391	0.98797
3978.23010	0.98789
3976.17629	0.98804
3974.12248	0.98840
3972.06867	0.98855
3970.01486	0.98861
3967.96105	0.98857
3965.90724	0.98845
3963.85343	0.98861
3961.79962	0.98903
3959.74581	0.98924
3957.69200	0.98901
3955.63819	0.98866
3953.58438	0.98844
3951.53057	0.98853
3949.47676	0.98884
3947.42295	0.98888
3945.36914	0.98865
3943.31533	0.98854
3941.26152	0.98858
3939.20771	0.98853
3937.15390	0.98877
3935.10009	0.98940
3933.04628	0.98935
3930.99247	0.98877
3928.93866	0.98863
3926.88485	0.98875
3924.83104	0.98864
3922.77723	0.98849
3920.72342	0.98889
3918.66961	0.98943
3916.61580	0.98938
3914.56199	0.98902
3912.50818	0.98876
3910.45437	0.98857
3908.40056	0.98848
3906.34675	0.98888
3904.29294	0.98959
3902.23913	0.98972
3900.18532	0.98938
3898.13151	0.98904
3896.07770	0.98875
3894.02389	0.98858
3891.97008	0.98868
3889.91627	0.98884
3887.86246	0.98902
3885.80865	0.98921
3883.75484	0.98905
3881.70103	0.98880
3879.64722	0.98869
3877.59341	0.98867
3875.53960	0.98873
3873.48579	0.98879
3871.43198	0.98881
3869.37817	0.98877
3867.32436	0.98888
3865.27055	0.98903
3863.21674	0.98884
3861.16293	0.98855
3859.10912	0.98866
3857.05531	0.98916
3855.00150	0.98941
3852.94769	0.98877
3850.89388	0.98822
3848.84007	0.98817
3846.78626	0.98828
3844.73245	0.98850
3842.67864	0.98879
3840.62483	0.98943
3838.57102	0.98998
3836.51721	0.98951
3834.46340	0.98892
3832.40959	0.98882
3830.35578	0.98889
3828.30197	0.98924
3826.24816	0.98954
3824.19435	0.98914
3822.14054	0.98847
3820.08673	0.98855
3818.03292	0.98912
3815.97911	0.98937
3813.92530	0.98935
3811.87149	0.98921
3809.81768	0.98914
3807.76387	0.98946
3805.71006	0.98976
3803.65625	0.98941
3801.60244	0.98883
3799.54863	0.98864
3797.49482	0.98848
3795.44101	0.98808
3793.38720	0.98792
3791.33339	0.98817
3789.27958	0.98856
3787.22577	0.98866
3785.17196	0.98850
3783.11815	0.98869
3781.06434	0.98939
3779.01053	0.98987
3776.95672	0.98979
3774.90291	0.98959
3772.84910	0.98949
3770.79529	0.98924
3768.74148	0.98880
3766.68767	0.98860
3764.63386	0.98860
3762.58005	0.98880
3760.52624	0.98910
3758.47243	0.98925
3756.41862	0.98912
3754.36481	0.98876
3752.31100	0.98846
3750.25719	0.98837
3748.20338	0.98839
3746.14957	0.98876
3744.09576	0.98924
3742.04195	0.98913
3739.98814	0.98897
3737.93433	0.98892
3735.88052	0.98867
3733.82671	0.98898
3731.77290	0.98976
3729.71909	0.98996
3727.66528	0.98973
3725.61147	0.98943
3723.55766	0.98899
3721.50385	0.98855
3719.45004	0.98859
3717.39623	0.98898
3715.34242	0.98940
3713.28861	0.98986
3711.23480	0.98983
3709.18099	0.98923
3707.12718	0.98861
3705.07337	0.98812
3703.01956	0.98795
3700.96575	0.98790
3698.91194	0.98785
3696.85813	0.98804
3694.80432	0.98816
3692.75051	0.98807
3690.69670	0.98826
3688.64289	0.98837
3686.58907	0.98798
3684.53526	0.98777
3682.48145	0.98794
3680.42764	0.98841
3678.37383	0.98894
3676.32002	0.98889
3674.26621	0.98834
3672.21240	0.98810
3670.15859	0.98797
3668.10478	0.98807
3666.05097	0.98827
3663.99716	0.98829
3661.94335	0.98821
3659.88954	0.98779
3657.83573	0.98716
3655.78192	0.98704
3653.72811	0.98747
3651.67430	0.98802
3649.62049	0.98864
3647.56668	0.98858
3645.51287	0.98782
3643.45906	0.98719
3641.40525	0.98676
3639.35144	0.98676
3637.29763	0.98726
3635.24382	0.98776
3633.19001	0.98802
3631.13620	0.98813
3629.08239	0.98803
3627.02858	0.98777
3624.97477	0.98755
3622.92096	0.98723
3620.86715	0.98702
3618.81334	0.98728
3616.75953	0.98749
3614.70572	0.98732
3612.65191	0.98722
3610.59810	0.98715
3608.54429	0.98696
3606.49048	0.98682
3604.43667	0.98663
3602.38286	0.98656
3600.32905	0.98684
3598.27524	0.98714
3596.22143	0.98703
3594.16762	0.98651
3592.11381	0.98602
3590.06000	0.98587
3588.00619	0.98587
3585.95238	0.98583
3583.89857	0.98605
3581.84476	0.98645
3579.79095	0.98670
3577.73714	0.98661
3575.68333	0.98616
3573.62952	0.98572
3571.57571	0.98567
3569.52190	0.98577
3567.46809	0.98565
3565.41428	0.98543
3563.36047	0.98544
3561.30666	0.98562
3559.25285	0.98581
3557.19904	0.98574
3555.14523	0.98537
3553.09142	0.98523
3551.03761	0.98542
3548.98380	0.98537
3546.92999	0.98516
3544.87618	0.98515
3542.82237	0.98535
3540.76856	0.98558
3538.71475	0.98543
3536.66094	0.98502
3534.60713	0.98478
3532.55332	0.98482
3530.49951	0.98509
3528.44570	0.98520
3526.39189	0.98494
3524.33808	0.98475
3522.28427	0.98474
3520.23046	0.98469
3518.17665	0.98469
3516.12284	0.98458
3514.06903	0.98426
3512.01522	0.98412
3509.96141	0.98429
3507.90760	0.98442
3505.85379	0.98452
3503.79998	0.98459
3501.74617	0.98444
3499.69236	0.98414
3497.63855	0.98374
3495.58474	0.98356
3493.53093	0.98388
3491.47712	0.98427
3489.42331	0.98446
3487.36950	0.98450
3485.31569	0.98430
3483.26188	0.98400
3481.20807	0.98370
3479.15426	0.98342
3477.10045	0.98345
3475.04664	0.98368
3472.99283	0.98377
3470.93902	0.98373
3468.88521	0.98343
3466.83140	0.98291
3464.77759	0.98280
3462.72378	0.98304
3460.66997	0.98325
3458.61616	0.98344
3456.56235	0.98340
3454.50854	0.98294
3452.45473	0.98259
3450.40092	0.98272
3448.34711	0.98292
3446.29330	0.98280
3444.23949	0.98269
3442.18568	0.98297
3440.13187	0.98338
3438.07806	0.98352
3436.02425	0.98315
3433.97044	0.98244
3431.91663	0.98203
3429.86282	0.98233
3427.80901	0.98276
3425.75520	0.98280
3423.70139	0.98279
3421.64758	0.98274
3419.59377	0.98238
3417.53996	0.98204
3415.48615	0.98199
3413.43234	0.98199
3411.37853	0.98183
3409.32472	0.98161
3407.27091	0.98151
3405.21710	0.98149
3403.16329	0.98152
3401.10948	0.98148
3399.05567	0.98138
3397.00186	0.98146
3394.94805	0.98164
3392.89424	0.98190
3390.84042	0.98213
3388.78661	0.98203
3386.73280	0.98174
3384.67899	0.98158
3382.62518	0.98160
3380.57137	0.98173
3378.51756	0.98193
3376.46375	0.98202
3374.40994	0.98193
3372.35613	0.98180
3370.30232	0.98157
3368.24851	0.98134
3366.19470	0.98128
3364.14089	0.98122
3362.08708	0.98126
3360.03327	0.98151
3357.97946	0.98172
3355.92565	0.98183
3353.87184	0.98193
3351.81803	0.98204
3349.76422	0.98200
3347.71041	0.98167
3345.65660	0.98136
3343.60279	0.98129
3341.54898	0.98121
3339.49517	0.98102
3337.44136	0.98104
3335.38755	0.98120
3333.33374	0.98139
3331.27993	0.98170
3329.22612	0.98183
3327.17231	0.98170
3325.11850	0.98162
3323.06469	0.98157
3321.01088	0.98134
3318.95707	0.98119
3316.90326	0.98133
3314.84945	0.98145
3312.79564	0.98147
3310.74183	0.98146
3308.68802	0.98126
3306.63421	0.98097
3304.58040	0.98086
3302.52659	0.98086
3300.47278	0.98104
3298.41897	0.98137
3296.36516	0.98150
3294.31135	0.98128
3292.25754	0.98102
3290.20373	0.98089
3288.14992	0.98086
3286.09611	0.98091
3284.04230	0.98102
3281.98849	0.98117
3279.93468	0.98135
3277.88087	0.98165
3275.82706	0.98189
3273.77325	0.98179
3271.71944	0.98161
3269.66563	0.98170
3267.61182	0.98198
3265.55801	0.98213
3263.50420	0.98213
3261.45039	0.98219
3259.39658	0.98204
3257.34277	0.98166
3255.28896	0.98145
3253.23515	0.98159
3251.18134	0.98188
3249.12753	0.98198
3247.07372	0.98188
3245.01991	0.98188
3242.96610	0.98211
3240.91229	0.98246
3238.85848	0.98279
3236.80467	0.98298
3234.75086	0.98287
3232.69705	0.98266
3230.64324	0.98246
3228.58943	0.98215
3226.53562	0.98182
3224.48181	0.98182
3222.42800	0.98224
3220.37419	0.98267
3218.32038	0.98276
3216.26657	0.98266
3214.21276	0.98258
3212.15895	0.98249
3210.10514	0.98275
3208.05133	0.98325
3205.99752	0.98320
3203.94371	0.98284
3201.88990	0.98275
3199.83609	0.98281
3197.78228	0.98289
3195.72847	0.98286
3193.67466	0.98266
3191.62085	0.98263
3189.56704	0.98282
3187.51323	0.98294
3185.45942	0.98308
3183.40561	0.98314
3181.35180	0.98299
3179.29799	0.98303
3177.24418	0.98333
3175.19037	0.98349
3173.13656	0.98341
3171.08275	0.98357
3169.02894	0.98420
3166.97513	0.98453
3164.92132	0.98402
3162.86751	0.98342
3160.81370	0.98352
3158.75989	0.98386
3156.70608	0.98378
3154.65227	0.98361
3152.59846	0.98370
3150.54465	0.98383
3148.49084	0.98396
3146.43703	0.98406
3144.38322	0.98413
3142.32941	0.98442
3140.27560	0.98488
3138.22179	0.98499
3136.16798	0.98466
3134.11417	0.98423
3132.06036	0.98401
3130.00655	0.98406
3127.95274	0.98427
3125.89893	0.98453
3123.84512	0.98472
3121.79131	0.98477
3119.73750	0.98477
3117.68369	0.98472
3115.62988	0.98446
3113.57607	0.98447
3111.52226	0.98497
3109.46845	0.98522
3107.41464	0.98506
3105.36083	0.98491
3103.30702	0.98473
3101.25321	0.98451
3099.19940	0.98460
3097.14559	0.98481
3095.09177	0.98479
3093.03796	0.98476
3090.98415	0.98486
3088.93034	0.98483
3086.87653	0.98476
3084.82272	0.98477
3082.76891	0.98469
3080.71510	0.98463
3078.66129	0.98485
3076.60748	0.98499
3074.55367	0.98484
3072.49986	0.98483
3070.44605	0.98500
3068.39224	0.98495
3066.33843	0.98481
3064.28462	0.98492
3062.23081	0.98523
3060.17700	0.98543
3058.12319	0.98537
3056.06938	0.98525
3054.01557	0.98510
3051.96176	0.98491
3049.90795	0.98496
3047.85414	0.98517
3045.80033	0.98525
3043.74652	0.98513
3041.69271	0.98501
3039.63890	0.98507
3037.58509	0.98522
3035.53128	0.98533
3033.47747	0.98536
3031.42366	0.98546
3029.36985	0.98560
3027.31604	0.98547
3025.26223	0.98527
3023.20842	0.98515
3021.15461	0.98482
3019.10080	0.98453
3017.04699	0.98463
3014.99318	0.98492
3012.93937	0.98516
3010.88556	0.98530
3008.83175	0.98513
3006.77794	0.98476
3004.72413	0.98462
3002.67032	0.98466
3000.61651	0.98465
2998.56270	0.98466
2996.50889	0.98462
2994.45508	0.98441
2992.40127	0.98410
2990.34746	0.98367
2988.29365	0.98319
2986.23984	0.98277
2984.18603	0.98238
2982.13222	0.98191
2980.07841	0.98116
2978.02460	0.98010
2975.97079	0.97873
2973.91698	0.97689
2971.86317	0.97464
2969.80936	0.97188
2967.75555	0.96838
2965.70174	0.96448
2963.64793	0.96074
2961.59412	0.95765
2959.54031	0.95568
2957.48650	0.95459
2955.43269	0.95333
2953.37888	0.95112
2951.32507	0.94847
2949.27126	0.94691
2947.21745	0.94748
2945.16364	0.94960
2943.10983	0.95172
2941.05602	0.95258
2939.00221	0.95145
2936.94840	0.94855
2934.89459	0.94462
2932.84078	0.93989
2930.78697	0.93401
2928.73316	0.92663
2926.67935	0.91818
2924.62554	0.90944
2922.57173	0.90049
2920.51792	0.89168
2918.46411	0.88480
2916.41030	0.88252
2914.35649	0.88600
2912.30268	0.89336
2910.24887	0.90155
2908.19506	0.90890
2906.14125	0.91516
2904.08744	0.92051
2902.03363	0.92520
2899.97982	0.92951
2897.92601	0.93334
2895.87220	0.93662
2893.81839	0.93957
2891.76458	0.94214
2889.71077	0.94420
2887.65696	0.94604
2885.60315	0.94775
2883.54934	0.94901
2881.49553	0.94982
2879.44172	0.95049
2877.38791	0.95134
2875.33410	0.95242
2873.28029	0.95328
2871.22648	0.95340
2869.17267	0.95269
2867.11886	0.95163
2865.06505	0.95092
2863.01124	0.95073
2860.95743	0.95022
2858.90362	0.94825
2856.84981	0.94408
2854.79600	0.93742
2852.74219	0.92880
2850.68838	0.92063
2848.63457	0.91675
2846.58076	0.91916
2844.52695	0.92565
2842.47314	0.93243
2840.41933	0.93788
2838.36552	0.94256
2836.31171	0.94737
2834.25790	0.95255
2832.20409	0.95783
2830.15028	0.96244
2828.09647	0.96577
2826.04266	0.96806
2823.98885	0.96995
2821.93504	0.97156
2819.88123	0.97280
2817.82742	0.97377
2815.77361	0.97443
2813.71980	0.97488
2811.66599	0.97543
2809.61218	0.97606
2807.55837	0.97660
2805.50456	0.97713
2803.45075	0.97751
2801.39693	0.97769
2799.34312	0.97804
2797.28931	0.97861
2795.23550	0.97914
2793.18169	0.97949
2791.12788	0.97963
2789.07407	0.97974
2787.02026	0.97997
2784.96645	0.98026
2782.91264	0.98046
2780.85883	0.98073
2778.80502	0.98104
2776.75121	0.98115
2774.69740	0.98126
2772.64359	0.98151
2770.58978	0.98169
2768.53597	0.98168
2766.48216	0.98169
2764.42835	0.98194
2762.37454	0.98237
2760.32073	0.98249
2758.26692	0.98236
2756.21311	0.98246
2754.15930	0.98275
2752.10549	0.98285
2750.05168	0.98272
2747.99787	0.98262
2745.94406	0.98265
2743.89025	0.98264
2741.83644	0.98260
2739.78263	0.98262
2737.72882	0.98260
2735.67501	0.98253
2733.62120	0.98251
2731.56739	0.98256
2729.51358	0.98260
2727.45977	0.98252
2725.40596	0.98238
2723.35215	0.98241
2721.29834	0.98257
2719.24453	0.98266
2717.19072	0.98266
2715.13691	0.98267
2713.08310	0.98288
2711.02929	0.98325
2708.97548	0.98351
2706.92167	0.98359
2704.86786	0.98355
2702.81405	0.98347
2700.76024	0.98352
2698.70643	0.98370
2696.65262	0.98381
2694.59881	0.98387
2692.54500	0.98391
2690.49119	0.98377
2688.43738	0.98362
2686.38357	0.98360
2684.32976	0.98367
2682.27595	0.98373
2680.22214	0.98379
2678.16833	0.98388
2676.11452	0.98395
2674.06071	0.98394
2672.00690	0.98383
2669.95309	0.98370
2667.89928	0.98371
2665.84547	0.98380
2663.79166	0.98379
2661.73785	0.98371
2659.68404	0.98375
2657.63023	0.98365
2655.57642	0.98330
2653.52261	0.98320
2651.46880	0.98345
2649.41499	0.98377
2647.36118	0.98406
2645.30737	0.98410
2643.25356	0.98393
2641.19975	0.98382
2639.14594	0.98388
2637.09213	0.98408
2635.03832	0.98428
2632.98451	0.98434
2630.93070	0.98420
2628.87689	0.98402
2626.82308	0.98402
2624.76927	0.98412
2622.71546	0.98413
2620.66165	0.98407
2618.60784	0.98404
2616.55403	0.98417
2614.50022	0.98448
2612.44641	0.98459
2610.39260	0.98440
2608.33879	0.98433
2606.28498	0.98443
2604.23117	0.98451
2602.17736	0.98472
2600.12355	0.98511
2598.06974	0.98544
2596.01593	0.98561
2593.96212	0.98563
2591.90831	0.98554
2589.85450	0.98542
2587.80069	0.98542
2585.74688	0.98546
2583.69307	0.98534
2581.63926	0.98514
2579.58545	0.98508
2577.53164	0.98526
2575.47783	0.98542
2573.42402	0.98553
2571.37021	0.98555
2569.31640	0.98539
2567.26259	0.98530
2565.20878	0.98535
2563.15497	0.98551
2561.10116	0.98576
2559.04735	0.98597
2556.99354	0.98600
2554.93973	0.98579
2552.88592	0.98560
2550.83211	0.98566
2548.77830	0.98567
2546.72449	0.98557
2544.67068	0.98553
2542.61687	0.98542
2540.56306	0.98533
2538.50925	0.98550
2536.45544	0.98583
2534.40163	0.98607
2532.34782	0.98625
2530.29401	0.98644
2528.24020	0.98640
2526.18639	0.98609
2524.13258	0.98588
2522.07877	0.98610
2520.02496	0.98647
2517.97115	0.98644
2515.91734	0.98633
2513.86353	0.98660
2511.80972	0.98683
2509.75591	0.98690
2507.70210	0.98695
2505.64828	0.98700
2503.59447	0.98704
2501.54066	0.98695
2499.48685	0.98681
2497.43304	0.98679
2495.37923	0.98685
2493.32542	0.98704
2491.27161	0.98733
2489.21780	0.98739
2487.16399	0.98703
2485.11018	0.98671
2483.05637	0.98684
2481.00256	0.98710
2478.94875	0.98718
2476.89494	0.98714
2474.84113	0.98697
2472.78732	0.98678
2470.73351	0.98682
2468.67970	0.98688
2466.62589	0.98678
2464.57208	0.98682
2462.51827	0.98716
2460.46446	0.98719
2458.41065	0.98686
2456.35684	0.98697
2454.30303	0.98740
2452.24922	0.98760
2450.19541	0.98769
2448.14160	0.98772
2446.08779	0.98755
2444.03398	0.98720
2441.98017	0.98703
2439.92636	0.98729
2437.87255	0.98744
2435.81874	0.98722
2433.76493	0.98694
2431.71112	0.98685
2429.65731	0.98709
2427.60350	0.98747
2425.54969	0.98763
2423.49588	0.98750
2421.44207	0.98715
2419.38826	0.98694
2417.33445	0.98723
2415.28064	0.98757
2413.22683	0.98743
2411.17302	0.98716
2409.11921	0.98719
2407.06540	0.98749
2405.01159	0.98779
2402.95778	0.98779
2400.90397	0.98742
2398.85016	0.98721
2396.79635	0.98732
2394.74254	0.98717
2392.68873	0.98683
2390.63492	0.98675
2388.58111	0.98683
2386.52730	0.98714
2384.47349	0.98761
2382.41968	0.98781
2380.36587	0.98775
2378.31206	0.98759
2376.25825	0.98747
2374.20444	0.98796
2372.15063	0.98863
2370.09682	0.98817
2368.04301	0.98735
2365.98920	0.98739
2363.93539	0.98754
2361.88158	0.98739
2359.82777	0.98751
2357.77396	0.98746
2355.72015	0.98720
2353.66634	0.98724
2351.61253	0.98731
2349.55872	0.98724
2347.50491	0.98722
2345.45110	0.98736
2343.39729	0.98769
2341.34348	0.98799
2339.28967	0.98769
2337.23586	0.98746
2335.18205	0.98779
2333.12824	0.98791
2331.07443	0.98772
2329.02062	0.98742
2326.96681	0.98696
2324.91300	0.98643
2322.85919	0.98605
2320.80538	0.98578
2318.75157	0.98567
2316.69776	0.98625
2314.64395	0.98705
2312.59014	0.98723
2310.53633	0.98699
2308.48252	0.98674
2306.42871	0.98667
2304.37490	0.98685
2302.32109	0.98710
2300.26728	0.98740
2298.21347	0.98748
2296.15966	0.98710
2294.10585	0.98680
2292.05204	0.98679
2289.99823	0.98678
2287.94442	0.98672
2285.89061	0.98684
2283.83680	0.98715
2281.78299	0.98732
2279.72918	0.98733
2277.67537	0.98725
2275.62156	0.98723
2273.56775	0.98750
2271.51394	0.98752
2269.46013	0.98691
2267.40632	0.98664
2265.35251	0.98706
2263.29870	0.98745
2261.24489	0.98780
2259.19108	0.98815
2257.13727	0.98786
2255.08346	0.98706
2253.02965	0.98681
2250.97584	0.98743
2248.92203	0.98803
2246.86822	0.98842
2244.81441	0.98870
2242.76060	0.98812
2240.70679	0.98714
2238.65298	0.98675
2236.59917	0.98683
2234.54536	0.98698
2232.49155	0.98725
2230.43774	0.98744
2228.38393	0.98698
2226.33012	0.98699
2224.27631	0.98821
2222.22250	0.98899
2220.16869	0.98863
2218.11488	0.98819
2216.06107	0.98827
2214.00726	0.98860
2211.95344	0.98889
2209.89963	0.98925
2207.84582	0.98969
2205.79201	0.98967
2203.73820	0.98909
2201.68439	0.98875
2199.63058	0.98891
2197.57677	0.98889
2195.52296	0.98814
2193.46915	0.98750
2191.41534	0.98787
2189.36153	0.98860
2187.30772	0.98903
2185.25391	0.98837
2183.20010	0.98705
2181.14629	0.98750
2179.09248	0.98902
2177.03867	0.98916
2174.98486	0.98886
2172.93105	0.98917
2170.87724	0.98888
2168.82343	0.98798
2166.76962	0.98788
2164.71581	0.98847
2162.66200	0.98898
2160.60819	0.99028
2158.55438	0.99211
2156.50057	0.99213
2154.44676	0.99124
2152.39295	0.99131
2150.33914	0.99094
2148.28533	0.98940
2146.23152	0.98817
2144.17771	0.98784
2142.12390	0.98791
2140.07009	0.98830
2138.01628	0.98924
2135.96247	0.98994
2133.90866	0.98972
2131.85485	0.98909
2129.80104	0.98804
2127.74723	0.98718
2125.69342	0.98731
2123.63961	0.98752
2121.58580	0.98737
2119.53199	0.98744
2117.47818	0.98754
2115.42437	0.98748
2113.37056	0.98728
2111.31675	0.98713
2109.26294	0.98747
2107.20913	0.98759
2105.15532	0.98733
2103.10151	0.98771
2101.04770	0.98849
2098.99389	0.98844
2096.94008	0.98760
2094.88627	0.98715
2092.83246	0.98756
2090.77865	0.98835
2088.72484	0.98880
2086.67103	0.98877
2084.61722	0.98861
2082.56341	0.98825
2080.50960	0.98778
2078.45579	0.98791
2076.40198	0.98866
2074.34817	0.98929
2072.29436	0.98937
2070.24055	0.98869
2068.18674	0.98790
2066.13293	0.98786
2064.07912	0.98868
2062.02531	0.98961
2059.97150	0.98986
2057.91769	0.98984
2055.86388	0.99006
2053.81007	0.98937
2051.75626	0.98716
2049.70245	0.98572
2047.64864	0.98649
2045.59483	0.98831
2043.54102	0.99004
2041.48721	0.99057
2039.43340	0.98985
2037.37959	0.98941
2035.32578	0.98970
2033.27197	0.99055
2031.21816	0.99113
2029.16435	0.99022
2027.11054	0.98909
2025.05673	0.98876
2023.00292	0.98893
2020.94911	0.98876
2018.89530	0.98749
2016.84149	0.98728
2014.78768	0.98886
2012.73387	0.99051
2010.68006	0.99160
2008.62625	0.99144
2006.57244	0.99075
2004.51863	0.99098
2002.46482	0.99196
2000.41101	0.99243
1998.35720	0.99195
1996.30339	0.99102
1994.24958	0.98970
1992.19577	0.98954
1990.14196	0.99065
1988.08815	0.99003
1986.03434	0.98869
1983.98053	0.98918
1981.92672	0.98989
1979.87291	0.98956
1977.81910	0.98925
1975.76529	0.98859
1973.71148	0.98750
1971.65767	0.98760
1969.60386	0.98878
1967.55005	0.99003
1965.49624	0.99071
1963.44243	0.99053
1961.38862	0.99025
1959.33481	0.99023
1957.28100	0.99004
1955.22719	0.98969
1953.17338	0.98939
1951.11957	0.98937
1949.06576	0.98998
1947.01195	0.99038
1944.95814	0.98976
1942.90433	0.98891
1940.85052	0.98828
1938.79671	0.98769
1936.74290	0.98739
1934.68909	0.98839
1932.63528	0.99037
1930.58147	0.99101
1928.52766	0.99018
1926.47385	0.98944
1924.42004	0.98911
1922.36623	0.98914
1920.31242	0.98930
1918.25861	0.98935
1916.20479	0.98928
1914.15098	0.98897
1912.09717	0.98839
1910.04336	0.98777
1907.98955	0.98771
1905.93574	0.98839
1903.88193	0.98935
1901.82812	0.99002
1899.77431	0.98989
1897.72050	0.98940
1895.66669	0.98888
1893.61288	0.98815
1891.55907	0.98778
1889.50526	0.98824
1887.45145	0.98896
1885.39764	0.98937
1883.34383	0.98954
1881.29002	0.98924
1879.23621	0.98866
1877.18240	0.98833
1875.12859	0.98809
1873.07478	0.98792
1871.02097	0.98829
1868.96716	0.98892
1866.91335	0.98885
1864.85954	0.98827
1862.80573	0.98797
1860.75192	0.98793
1858.69811	0.98806
1856.64430	0.98836
1854.59049	0.98836
1852.53668	0.98807
1850.48287	0.98802
1848.42906	0.98822
1846.37525	0.98812
1844.32144	0.98766
1842.26763	0.98740
1840.21382	0.98769
1838.16001	0.98839
1836.10620	0.98922
1834.05239	0.98979
1831.99858	0.98974
1829.94477	0.98903
1827.89096	0.98817
1825.83715	0.98779
1823.78334	0.98803
1821.72953	0.98846
1819.67572	0.98876
1817.62191	0.98884
1815.56810	0.98837
1813.51429	0.98765
1811.46048	0.98745
1809.40667	0.98767
1807.35286	0.98780
1805.29905	0.98788
1803.24524	0.98798
1801.19143	0.98783
1799.13762	0.98739
1797.08381	0.98710
1795.03000	0.98722
1792.97619	0.98750
1790.92238	0.98748
1788.86857	0.98714
1786.81476	0.98653
1784.76095	0.98586
1782.70714	0.98538
1780.65333	0.98491
1778.59952	0.98454
1776.54571	0.98458
1774.49190	0.98490
1772.43809	0.98508
1770.38428	0.98476
1768.33047	0.98423
1766.27666	0.98381
1764.22285	0.98344
1762.16904	0.98310
1760.11523	0.98295
1758.06142	0.98285
1756.00761	0.98234
1753.95380	0.98144
1751.89999	0.97999
1749.84618	0.97734
1747.79237	0.97383
1745.73856	0.97028
1743.68475	0.96668
1741.63094	0.96312
1739.57713	0.96057
1737.52332	0.96015
1735.46951	0.96140
1733.41570	0.96347
1731.36189	0.96578
1729.30808	0.96803
1727.25427	0.96983
1725.20046	0.97089
1723.14665	0.97120
1721.09284	0.97102
1719.03903	0.97064
1716.98522	0.97014
1714.93141	0.96990
1712.87760	0.96990
1710.82379	0.97021
1708.76998	0.97088
1706.71617	0.97160
1704.66236	0.97220
1702.60855	0.97283
1700.55474	0.97372
1698.50093	0.97471
1696.44712	0.97526
1694.39331	0.97577
1692.33950	0.97664
1690.28569	0.97738
1688.23188	0.97756
1686.17807	0.97738
1684.12426	0.97716
1682.07045	0.97701
1680.01664	0.97704
1677.96283	0.97717
1675.90902	0.97710
1673.85521	0.97692
1671.80140	0.97692
1669.74759	0.97660
1667.69378	0.97582
1665.63997	0.97535
1663.58616	0.97541
1661.53235	0.97551
1659.47854	0.97511
1657.42473	0.97442
1655.37092	0.97381
1653.31711	0.97331
1651.26330	0.97304
1649.20949	0.97306
1647.15568	0.97331
1645.10187	0.97350
1643.04806	0.97341
1640.99425	0.97338
1638.94044	0.97336
1636.88663	0.97319
1634.83282	0.97317
1632.77901	0.97334
1630.72520	0.97337
1628.67139	0.97332
1626.61758	0.97321
1624.56377	0.97292
1622.50996	0.97266
1620.45614	0.97275
1618.40233	0.97297
1616.34852	0.97314
1614.29471	0.97344
1612.24090	0.97369
1610.18709	0.97378
1608.13328	0.97386
1606.07947	0.97394
1604.02566	0.97397
1601.97185	0.97400
1599.91804	0.97406
1597.86423	0.97425
1595.81042	0.97444
1593.75661	0.97444
1591.70280	0.97429
1589.64899	0.97414
1587.59518	0.97409
1585.54137	0.97425
1583.48756	0.97447
1581.43375	0.97458
1579.37994	0.97462
1577.32613	0.97464
1575.27232	0.97459
1573.21851	0.97471
1571.16470	0.97504
1569.11089	0.97523
1567.05708	0.97505
1565.00327	0.97487
1562.94946	0.97481
1560.89565	0.97467
1558.84184	0.97429
1556.78803	0.97428
1554.73422	0.97448
1552.68041	0.97455
1550.62660	0.97470
1548.57279	0.97494
1546.51898	0.97517
1544.46517	0.97525
1542.41136	0.97489
1540.35755	0.97486
1538.30374	0.97582
1536.24993	0.97657
1534.19612	0.97713
1532.14231	0.97763
1530.08850	0.97775
1528.03469	0.97768
1525.98088	0.97770
1523.92707	0.97780
1521.87326	0.97815
1519.81945	0.97876
1517.76564	0.97909
1515.71183	0.97911
1513.65802	0.97893
1511.60421	0.97879
1509.55040	0.97888
1507.49659	0.97911
1505.44278	0.97919
1503.38897	0.97931
1501.33516	0.97960
1499.28135	0.97980
1497.22754	0.97961
1495.17373	0.97918
1493.11992	0.97890
1491.06611	0.97882
1489.01230	0.97882
1486.95849	0.97857
1484.90468	0.97793
1482.85087	0.97706
1480.79706	0.97603
1478.74325	0.97442
1476.68944	0.97086
1474.63563	0.96450
1472.58182	0.95737
1470.52801	0.95316
1468.47420	0.95102
1466.42039	0.94815
1464.36658	0.94422
1462.31277	0.94228
1460.25896	0.94332
1458.20515	0.94541
1456.15134	0.94685
1454.09753	0.94754
1452.04372	0.94807
1449.98991	0.94887
1447.93610	0.95073
1445.88229	0.95367
1443.82848	0.95648
1441.77467	0.95834
1439.72086	0.95925
1437.66705	0.95958
1435.61324	0.95969
1433.55943	0.96032
1431.50562	0.96158
1429.45181	0.96290
1427.39800	0.96390
1425.34419	0.96487
1423.29038	0.96565
1421.23657	0.96579
1419.18276	0.96532
1417.12895	0.96487
1415.07514	0.96501
1413.02133	0.96556
1410.96752	0.96637
1408.91371	0.96735
1406.85990	0.96829
1404.80609	0.96895
1402.75228	0.96922
1400.69847	0.96931
1398.64466	0.96957
1396.59085	0.97006
1394.53704	0.97050
1392.48323	0.97084
1390.42942	0.97094
1388.37561	0.97021
1386.32180	0.96824
1384.26799	0.96535
1382.21418	0.96111
1380.16037	0.95428
1378.10656	0.94578
1376.05275	0.94007
1373.99894	0.94112
1371.94513	0.94686
1369.89132	0.95262
1367.83751	0.95692
1365.78370	0.95978
1363.72989	0.96163
1361.67608	0.96262
1359.62227	0.96308
1357.56846	0.96385
1355.51465	0.96517
1353.46084	0.96667
1351.40703	0.96807
1349.35322	0.96940
1347.29941	0.97071
1345.24560	0.97184
1343.19179	0.97269
1341.13798	0.97326
1339.08417	0.97349
1337.03036	0.97350
1334.97655	0.97370
1332.92274	0.97398
1330.86893	0.97393
1328.81512	0.97380
1326.76130	0.97391
1324.70749	0.97391
1322.65368	0.97363
1320.59987	0.97345
1318.54606	0.97348
1316.49225	0.97355
1314.43844	0.97372
1312.38463	0.97401
1310.33082	0.97412
1308.27701	0.97378
1306.22320	0.97296
1304.16939	0.97218
1302.11558	0.97205
1300.06177	0.97242
1298.00796	0.97286
1295.95415	0.97320
1293.90034	0.97335
1291.84653	0.97329
1289.79272	0.97291
1287.73891	0.97237
1285.68510	0.97214
1283.63129	0.97220
1281.57748	0.97213
1279.52367	0.97190
1277.46986	0.97149
1275.41605	0.97078
1273.36224	0.96991
1271.30843	0.96915
1269.25462	0.96844
1267.20081	0.96775
1265.14700	0.96728
1263.09319	0.96665
1261.03938	0.96534
1258.98557	0.96354
1256.93176	0.96188
1254.87795	0.96049
1252.82414	0.95896
1250.77033	0.95714
1248.71652	0.95529
1246.66271	0.95336
1244.60890	0.95129
1242.55509	0.94942
1240.50128	0.94833
1238.44747	0.94823
1236.39366	0.94895
1234.33985	0.95046
1232.28604	0.95268
1230.23223	0.95497
1228.17842	0.95677
1226.12461	0.95824
1224.07080	0.95965
1222.01699	0.96091
1219.96318	0.96186
1217.90937	0.96252
1215.85556	0.96297
1213.80175	0.96326
1211.74794	0.96340
1209.69413	0.96349
1207.64032	0.96371
1205.58651	0.96410
1203.53270	0.96458
1201.47889	0.96491
1199.42508	0.96473
1197.37127	0.96418
1195.31746	0.96371
1193.26365	0.96336
1191.20984	0.96301
1189.15603	0.96274
1187.10222	0.96247
1185.04841	0.96193
1182.99460	0.96110
1180.94079	0.96013
1178.88698	0.95898
1176.83317	0.95775
1174.77936	0.95671
1172.72555	0.95561
1170.67174	0.95399
1168.61793	0.95226
1166.56412	0.95132
1164.51031	0.95117
1162.45650	0.95134
1160.40269	0.95172
1158.34888	0.95219
1156.29507	0.95251
1154.24126	0.95261
1152.18745	0.95244
1150.13364	0.95216
1148.07983	0.95188
1146.02602	0.95143
1143.97221	0.95105
1141.91840	0.95093
1139.86459	0.95109
1137.81078	0.95125
1135.75697	0.95089
1133.70316	0.95011
1131.64935	0.94921
1129.59554	0.94826
1127.54173	0.94744
1125.48792	0.94691
1123.43411	0.94664
1121.38030	0.94625
1119.32649	0.94542
1117.27268	0.94433
1115.21887	0.94335
1113.16506	0.94250
1111.11125	0.94166
1109.05744	0.94101
1107.00363	0.94067
1104.94982	0.94036
1102.89601	0.93956
1100.84220	0.93829
1098.78839	0.93723
1096.73458	0.93656
1094.68077	0.93604
1092.62696	0.93589
1090.57315	0.93614
1088.51934	0.93608
1086.46553	0.93548
1084.41172	0.93490
1082.35791	0.93458
1080.30410	0.93423
1078.25029	0.93392
1076.19648	0.93400
1074.14267	0.93430
1072.08886	0.93419
1070.03505	0.93335
1067.98124	0.93215
1065.92743	0.93104
1063.87362	0.93026
1061.81981	0.92995
1059.76600	0.92976
1057.71219	0.92905
1055.65838	0.92773
1053.60457	0.92608
1051.55076	0.92445
1049.49695	0.92309
1047.44314	0.92171
1045.38933	0.92031
1043.33552	0.91935
1041.28171	0.91874
1039.22790	0.91776
1037.17409	0.91634
1035.12028	0.91507
1033.06647	0.91424
1031.01265	0.91376
1028.95884	0.91332
1026.90503	0.91270
1024.85122	0.91189
1022.79741	0.91086
1020.74360	0.90987
1018.68979	0.90937
1016.63598	0.90945
1014.58217	0.91032
1012.52836	0.91203
1010.47455	0.91385
1008.42074	0.91512
1006.36693	0.91580
1004.31312	0.91596
1002.25931	0.91568
1000.20550	0.91512
998.15169	0.91497
996.09788	0.91615
994.04407	0.91845
991.99026	0.92077
989.93645	0.92253
987.88264	0.92394
985.82883	0.92527
983.77502	0.92653
981.72121	0.92795
979.66740	0.92917
977.61359	0.92949
975.55978	0.92887
973.50597	0.92801
971.45216	0.92814
969.39835	0.93008
967.34454	0.93297
965.29073	0.93545
963.23692	0.93736
961.18311	0.93888
959.12930	0.93976
957.07549	0.94019
955.02168	0.94083
952.96787	0.94187
950.91406	0.94303
948.86025	0.94426
946.80644	0.94539
944.75263	0.94603
942.69882	0.94627
940.64501	0.94638
938.59120	0.94655
936.53739	0.94699
934.48358	0.94777
932.42977	0.94890
930.37596	0.95017
928.32215	0.95101
926.26834	0.95131
924.21453	0.95147
922.16072	0.95170
920.10691	0.95215
918.05310	0.95287
915.99929	0.95366
913.94548	0.95408
911.89167	0.95414
909.83786	0.95428
907.78405	0.95461
905.73024	0.95500
903.67643	0.95542
901.62262	0.95580
899.56881	0.95629
897.51500	0.95694
895.46119	0.95748
893.40738	0.95777
891.35357	0.95816
889.29976	0.95895
887.24595	0.95979
885.19214	0.96034
883.13833	0.96021
881.08452	0.95944
879.03071	0.95850
876.97690	0.95745
874.92309	0.95679
872.86928	0.95762
870.81547	0.95992
868.76166	0.96210
866.70785	0.96306
864.65404	0.96326
862.60023	0.96346
860.54642	0.96352
858.49261	0.96345
856.43880	0.96424
854.38499	0.96564
852.33118	0.96628
850.27737	0.96615
848.22356	0.96569
846.16975	0.96472
844.11594	0.96295
842.06213	0.96114
840.00832	0.96122
837.95451	0.96369
835.90070	0.96653
833.84689	0.96780
831.79308	0.96757
829.73927	0.96695
827.68546	0.96639
825.63165	0.96607
823.57784	0.96634
821.52403	0.96717
819.47022	0.96817
817.41641	0.96839
815.36260	0.96711
813.30879	0.96475
811.25498	0.96233
809.20117	0.96092
807.14736	0.96103
805.09355	0.96175
803.03974	0.96131
800.98593	0.95959
798.93212	0.95823
796.87831	0.95801
794.82450	0.95876
792.77069	0.96017
790.71688	0.96131
788.66307	0.96163
786.60926	0.96151
784.55545	0.96102
782.50164	0.96011
780.44783	0.95933
778.39402	0.95948
776.34021	0.96035
774.28640	0.96110
772.23259	0.96185
770.17878	0.96271
768.12497	0.96270
766.07116	0.96172
764.01735	0.96120
761.96354	0.96182
759.90973	0.96299
757.85592	0.96412
755.80211	0.96516
753.74830	0.96576
751.69449	0.96527
749.64068	0.96415
747.58687	0.96319
745.53306	0.96290
743.47925	0.96356
741.42544	0.96440
739.37163	0.96421
737.31781	0.96252
735.26400	0.96001
733.21019	0.95711
731.15638	0.95399
729.10257	0.95223
727.04876	0.95230
724.99495	0.95215
722.94114	0.94971
720.88733	0.94505
718.83352	0.94197
716.77971	0.94382
714.72590	0.94893
712.67209	0.95401
710.61828	0.95752
708.56447	0.95960
706.51066	0.96033
704.45685	0.95990
702.40304	0.95903
700.34923	0.95802
698.29542	0.95733
696.24161	0.95805
694.18780	0.95979
692.13399	0.96058
690.08018	0.96017
688.02637	0.95959
685.97256	0.95889
683.91875	0.95869
681.86494	0.95970
679.81113	0.96111
677.75732	0.96174
675.70351	0.96134
673.64970	0.96014
671.59589	0.95824
669.54208	0.95601
667.48827	0.95536
665.43446	0.95727
663.38065	0.95950
661.32684	0.96049
659.27303	0.96005
657.21922	0.95923
655.16541	0.95793
653.11160	0.95639
651.05779	0.95568
649.00398	0.95639
646.95017	0.95744
644.89636	0.95716
642.84255	0.95574
640.78874	0.95400
638.73493	0.95255
636.68112	0.95190
634.62731	0.95225
632.57350	0.95353
630.51969	0.95428
628.46588	0.95368
626.41207	0.95288
624.35826	0.95187
622.30445	0.95033
620.25064	0.94932
618.19683	0.94945
616.14302	0.95011
614.08921	0.95051
612.03540	0.95028
609.98159	0.94869
607.92778	0.94579
605.87397	0.94396
603.82016	0.94469
601.76635	0.94624
599.71254	0.94693
597.65873	0.94712
595.60492	0.94691
593.55111	0.94537
591.49730	0.94263
589.44349	0.94065
587.38968	0.94096
585.33587	0.94279
583.28206	0.94373
581.22825	0.94298
579.17444	0.94177
577.12063	0.94053
575.06682	0.93837
573.01301	0.93637
570.95920	0.93742
568.90539	0.94160
566.85158	0.94524
564.79777	0.94564
562.74396	0.94340
560.69015	0.93972
558.63634	0.93537
556.58253	0.93244
554.52872	0.93395
552.47491	0.93902
550.42110	0.94197
548.36729	0.94008
546.31348	0.93607
544.25967	0.93244
542.20586	0.93024
540.15205	0.93040
538.09824	0.93305
536.04443	0.93632
533.99062	0.93743
531.93681	0.93548
529.88300	0.93147
527.82919	0.92775
525.77538	0.92630
523.72157	0.92706
521.66776	0.92911
519.61395	0.93139
517.56014	0.93239
515.50633	0.93168
513.45252	0.92976
511.39871	0.92720
509.34490	0.92563
507.29109	0.92615
505.23728	0.92831
503.18347	0.93075
501.12966	0.93167
499.07585	0.93138
497.02204	0.92971
494.96823	0.92640
492.91442	0.92450
490.86061	0.92617
488.80680	0.92952
486.75299	0.93078
484.69918	0.92877
482.64537	0.92445
480.59156	0.91746
478.53775	0.91024
476.48394	0.90789
474.43013	0.91056
472.37632	0.91476
470.32251	0.91714
468.26870	0.91469
466.21489	0.90842
464.16108	0.90351
462.10727	0.90159
460.05346	0.90254
457.99965	0.90826
455.94584	0.91581
453.89203	0.92028
451.83822	0.92077
449.78441	0.91641
447.73060	0.90948
445.67679	0.90664
443.62298	0.91124
441.56916	0.91893
439.51535	0.92452
437.46154	0.92670
435.40773	0.92271
433.35392	0.91238
431.30011	0.90392
429.24630	0.90152
427.19249	0.90378
425.13868	0.91199
423.08487	0.92323
421.03106	0.93031
418.97725	0.92861
416.92344	0.91988
414.86963	0.91330
412.81582	0.91231
410.76201	0.91824
408.70820	0.92966
406.65439	0.93974
404.60058	0.94038
402.54677	0.93014
400.49296	0.91283
398.43915	0.90040
