3996.70104	0.94652
3994.64724	0.94655
3992.59344	0.94713
3990.53964	0.94755
3988.48583	0.94713
3986.43203	0.94671
3984.37823	0.94720
3982.32442	0.94766
3980.27062	0.94723
3978.21682	0.94651
3976.16301	0.94632
3974.10921	0.94699
3972.05541	0.94791
3970.00160	0.94787
3967.94780	0.94688
3965.89400	0.94635
3963.84019	0.94661
3961.78639	0.94703
3959.73259	0.94750
3957.67878	0.94791
3955.62498	0.94788
3953.57118	0.94754
3951.51737	0.94727
3949.46357	0.94701
3947.40977	0.94661
3945.35596	0.94652
3943.30216	0.94730
3941.24836	0.94794
3939.19455	0.94739
3937.14075	0.94667
3935.08695	0.94683
3933.03315	0.94735
3930.97934	0.94739
3928.92554	0.94730
3926.87174	0.94785
3924.81793	0.94882
3922.76413	0.94915
3920.71033	0.94843
3918.65652	0.94717
3916.60272	0.94666
3914.54892	0.94713
3912.49511	0.94735
3910.44131	0.94717
3908.38751	0.94713
3906.33370	0.94754
3904.27990	0.94820
3902.22610	0.94878
3900.17229	0.94930
3898.11849	0.94944
3896.06469	0.94921
3894.01088	0.94867
3891.95708	0.94788
3889.90328	0.94762
3887.84947	0.94814
3885.79567	0.94899
3883.74187	0.94931
3881.68807	0.94893
3879.63426	0.94860
3877.58046	0.94852
3875.52666	0.94856
3873.47285	0.94882
3871.41905	0.94933
3869.36525	0.94949
3867.31144	0.94916
3865.25764	0.94870
3863.20384	0.94802
3861.15003	0.94770
3859.09623	0.94786
3857.04243	0.94804
3854.98862	0.94806
3852.93482	0.94838
3850.88102	0.94896
3848.82721	0.94900
3846.77341	0.94887
3844.71961	0.94927
3842.66580	0.95022
3840.61200	0.95051
3838.55820	0.94950
3836.50439	0.94853
3834.45059	0.94851
3832.39679	0.94865
3830.34298	0.94866
3828.28918	0.94889
3826.23538	0.94933
3824.18158	0.94966
3822.12777	0.94953
3820.07397	0.94916
3818.02017	0.94907
3815.96636	0.94919
3813.91256	0.94945
3811.85876	0.94956
3809.80495	0.94939
3807.75115	0.94926
3805.69735	0.94900
3803.64354	0.94823
3801.58974	0.94793
3799.53594	0.94864
3797.48213	0.94927
3795.42833	0.94951
3793.37453	0.94952
3791.32072	0.94938
3789.26692	0.94923
3787.21312	0.94934
3785.15931	0.94957
3783.10551	0.94956
3781.05171	0.94939
3778.99790	0.94960
3776.94410	0.94992
3774.89030	0.94974
3772.83650	0.94965
3770.78269	0.94997
3768.72889	0.95046
3766.67509	0.95111
3764.62128	0.95136
3762.56748	0.95070
3760.51368	0.94976
3758.45987	0.94966
3756.40607	0.95040
3754.35227	0.95108
3752.29846	0.95169
3750.24466	0.95224
3748.19086	0.95262
3746.13705	0.95300
3744.08325	0.95263
3742.02945	0.95162
3739.97564	0.95124
3737.92184	0.95137
3735.86804	0.95209
3733.81423	0.95296
3731.76043	0.95279
3729.70663	0.95222
3727.65282	0.95219
3725.59902	0.95265
3723.54522	0.95251
3721.49141	0.95175
3719.43761	0.95123
3717.38381	0.95122
3715.33001	0.95126
3713.27620	0.95057
3711.22240	0.94919
3709.16860	0.94779
3707.11479	0.94697
3705.06099	0.94689
3703.00719	0.94674
3700.95338	0.94588
3698.89958	0.94471
3696.84578	0.94375
3694.79197	0.94340
3692.73817	0.94343
3690.68437	0.94368
3688.63056	0.94477
3686.57676	0.94561
3684.52296	0.94524
3682.46915	0.94461
3680.41535	0.94428
3678.36155	0.94467
3676.30774	0.94623
3674.25394	0.94657
3672.20014	0.94482
3670.14633	0.94326
3668.09253	0.94278
3666.03873	0.94314
3663.98492	0.94356
3661.93112	0.94355
3659.87732	0.94316
3657.82352	0.94256
3655.76971	0.94203
3653.71591	0.94187
3651.66211	0.94205
3649.60830	0.94167
3647.55450	0.94018
3645.50070	0.93946
3643.44689	0.93932
3641.39309	0.93865
3639.33929	0.93740
3637.28548	0.93660
3635.23168	0.93669
3633.17788	0.93674
3631.12407	0.93640
3629.07027	0.93610
3627.01647	0.93558
3624.96266	0.93492
3622.90886	0.93457
3620.85506	0.93419
3618.80125	0.93350
3616.74745	0.93293
3614.69365	0.93253
3612.63984	0.93239
3610.58604	0.93302
3608.53224	0.93429
3606.47844	0.93496
3604.42463	0.93484
3602.37083	0.93462
3600.31703	0.93411
3598.26322	0.93344
3596.20942	0.93318
3594.15562	0.93327
3592.10181	0.93358
3590.04801	0.93364
3587.99421	0.93298
3585.94040	0.93232
3583.88660	0.93232
3581.83280	0.93253
3579.77899	0.93231
3577.72519	0.93170
3575.67139	0.93151
3573.61758	0.93174
3571.56378	0.93170
3569.50998	0.93125
3567.45617	0.93034
3565.40237	0.92979
3563.34857	0.92993
3561.29476	0.92979
3559.24096	0.92919
3557.18716	0.92867
3555.13335	0.92841
3553.07955	0.92821
3551.02575	0.92804
3548.97195	0.92793
3546.91814	0.92796
3544.86434	0.92800
3542.81054	0.92789
3540.75673	0.92787
3538.70293	0.92757
3536.64913	0.92697
3534.59532	0.92679
3532.54152	0.92693
3530.48772	0.92666
3528.43391	0.92585
3526.38011	0.92524
3524.32631	0.92525
3522.27250	0.92537
3520.21870	0.92515
3518.16490	0.92477
3516.11109	0.92471
3514.05729	0.92497
3512.00349	0.92501
3509.94968	0.92485
3507.89588	0.92472
3505.84208	0.92423
3503.78827	0.92371
3501.73447	0.92383
3499.68067	0.92398
3497.62687	0.92364
3495.57306	0.92345
3493.51926	0.92376
3491.46546	0.92379
3489.41165	0.92312
3487.35785	0.92243
3485.30405	0.92215
3483.25024	0.92175
3481.19644	0.92111
3479.14264	0.92083
3477.08883	0.92068
3475.03503	0.92022
3472.98123	0.91962
3470.92742	0.91940
3468.87362	0.91953
3466.81982	0.91939
3464.76601	0.91925
3462.71221	0.91926
3460.65841	0.91879
3458.60460	0.91817
3456.55080	0.91799
3454.49700	0.91782
3452.44319	0.91742
3450.38939	0.91733
3448.33559	0.91721
3446.28178	0.91671
3444.22798	0.91660
3442.17418	0.91680
3440.12038	0.91671
3438.06657	0.91651
3436.01277	0.91651
3433.95897	0.91669
3431.90516	0.91666
3429.85136	0.91610
3427.79756	0.91545
3425.74375	0.91520
3423.68995	0.91518
3421.63615	0.91520
3419.58234	0.91505
3417.52854	0.91444
3415.47474	0.91405
3413.42093	0.91445
3411.36713	0.91483
3409.31333	0.91432
3407.25952	0.91314
3405.20572	0.91246
3403.15192	0.91266
3401.09811	0.91300
3399.04431	0.91292
3396.99051	0.91254
3394.93670	0.91219
3392.88290	0.91202
3390.82910	0.91229
3388.77529	0.91259
3386.72149	0.91243
3384.66769	0.91208
3382.61389	0.91187
3380.56008	0.91164
3378.50628	0.91143
3376.45248	0.91162
3374.39867	0.91186
3372.34487	0.91181
3370.29107	0.91194
3368.23726	0.91218
3366.18346	0.91224
3364.12966	0.91215
3362.07585	0.91199
3360.02205	0.91172
3357.96825	0.91164
3355.91444	0.91186
3353.86064	0.91171
3351.80684	0.91110
3349.75303	0.91087
3347.69923	0.91128
3345.64543	0.91167
3343.59162	0.91186
3341.53782	0.91188
3339.48402	0.91130
3337.43021	0.91062
3335.37641	0.91062
3333.32261	0.91095
3331.26881	0.91116
3329.21500	0.91140
3327.16120	0.91187
3325.10740	0.91204
3323.05359	0.91147
3320.99979	0.91103
3318.94599	0.91129
3316.89218	0.91179
3314.83838	0.91203
3312.78458	0.91192
3310.73077	0.91198
3308.67697	0.91233
3306.62317	0.91262
3304.56936	0.91251
3302.51556	0.91190
3300.46176	0.91145
3298.40795	0.91163
3296.35415	0.91208
3294.30035	0.91225
3292.24654	0.91209
3290.19274	0.91191
3288.13894	0.91209
3286.08513	0.91262
3284.03133	0.91302
3281.97753	0.91311
3279.92372	0.91309
3277.86992	0.91291
3275.81612	0.91257
3273.76232	0.91229
3271.70851	0.91208
3269.65471	0.91199
3267.60091	0.91210
3265.54710	0.91224
3263.49330	0.91238
3261.43950	0.91274
3259.38569	0.91328
3257.33189	0.91361
3255.27809	0.91367
3253.22428	0.91358
3251.17048	0.91359
3249.11668	0.91386
3247.06287	0.91427
3245.00907	0.91475
3242.95527	0.91522
3240.90146	0.91536
3238.84766	0.91484
3236.79386	0.91447
3234.74005	0.91475
3232.68625	0.91499
3230.63245	0.91506
3228.57864	0.91506
3226.52484	0.91505
3224.47104	0.91548
3222.41724	0.91608
3220.36343	0.91595
3218.30963	0.91551
3216.25583	0.91576
3214.20202	0.91632
3212.14822	0.91655
3210.09442	0.91680
3208.04061	0.91725
3205.98681	0.91757
3203.93301	0.91759
3201.87920	0.91773
3199.82540	0.91830
3197.77160	0.91872
3195.71779	0.91866
3193.66399	0.91861
3191.61019	0.91872
3189.55638	0.91857
3187.50258	0.91838
3185.44878	0.91881
3183.39497	0.91957
3181.34117	0.92003
3179.28737	0.92044
3177.23356	0.92076
3175.17976	0.92089
3173.12596	0.92128
3171.07215	0.92177
3169.01835	0.92200
3166.96455	0.92199
3164.91075	0.92204
3162.85694	0.92228
3160.80314	0.92236
3158.74934	0.92239
3156.69553	0.92281
3154.64173	0.92339
3152.58793	0.92394
3150.53412	0.92417
3148.48032	0.92398
3146.42652	0.92389
3144.37271	0.92406
3142.31891	0.92452
3140.26511	0.92524
3138.21130	0.92549
3136.15750	0.92500
3134.10370	0.92457
3132.04989	0.92454
3129.99609	0.92466
3127.94229	0.92514
3125.88848	0.92613
3123.83468	0.92689
3121.78088	0.92704
3119.72707	0.92713
3117.67327	0.92722
3115.61947	0.92703
3113.56566	0.92658
3111.51186	0.92631
3109.45806	0.92626
3107.40426	0.92573
3105.35045	0.92475
3103.29665	0.92443
3101.24285	0.92531
3099.18904	0.92637
3097.13524	0.92658
3095.08144	0.92603
3093.02763	0.92540
3090.97383	0.92476
3088.92003	0.92368
3086.86622	0.92197
3084.81242	0.92010
3082.75862	0.91910
3080.70481	0.91915
3078.65101	0.91996
3076.59721	0.92139
3074.54340	0.92251
3072.48960	0.92233
3070.43580	0.92126
3068.38199	0.92035
3066.32819	0.91944
3064.27439	0.91795
3062.22058	0.91627
3060.16678	0.91505
3058.11298	0.91478
3056.05918	0.91594
3054.00537	0.91829
3051.95157	0.92071
3049.89777	0.92251
3047.84396	0.92386
3045.79016	0.92496
3043.73636	0.92560
3041.68255	0.92547
3039.62875	0.92456
3037.57495	0.92294
3035.52114	0.92034
3033.46734	0.91674
3031.41354	0.91233
3029.35973	0.90712
3027.30593	0.90232
3025.25213	0.90012
3023.19832	0.90158
3021.14452	0.90591
3019.09072	0.91132
3017.03691	0.91642
3014.98311	0.92040
3012.92931	0.92304
3010.87550	0.92471
3008.82170	0.92561
3006.76790	0.92588
3004.71409	0.92583
3002.66029	0.92565
3000.60649	0.92561
2998.55269	0.92638
2996.49888	0.92798
2994.44508	0.92930
2992.39128	0.92989
2990.33747	0.93041
2988.28367	0.93090
2986.22987	0.93105
2984.17606	0.93130
2982.12226	0.93187
2980.06846	0.93210
2978.01465	0.93192
2975.96085	0.93199
2973.90705	0.93225
2971.85324	0.93190
2969.79944	0.93093
2967.74564	0.93010
2965.69183	0.92961
2963.63803	0.92912
2961.58423	0.92873
2959.53042	0.92849
2957.47662	0.92809
2955.42282	0.92753
2953.36901	0.92688
2951.31521	0.92593
2949.26141	0.92476
2947.20761	0.92349
2945.15380	0.92178
2943.10000	0.91934
2941.04620	0.91610
2938.99239	0.91271
2936.93859	0.90982
2934.88479	0.90691
2932.83098	0.90342
2930.77718	0.89947
2928.72338	0.89554
2926.66957	0.89224
2924.61577	0.88968
2922.56197	0.88788
2920.50816	0.88739
2918.45436	0.88815
2916.40056	0.88955
2914.34675	0.89141
2912.29295	0.89368
2910.23915	0.89622
2908.18534	0.89870
2906.13154	0.90107
2904.07774	0.90350
2902.02393	0.90601
2899.97013	0.90858
2897.91633	0.91098
2895.86252	0.91278
2893.80872	0.91416
2891.75492	0.91553
2889.70112	0.91680
2887.64731	0.91808
2885.59351	0.91947
2883.53971	0.92041
2881.48590	0.92075
2879.43210	0.92117
2877.37830	0.92196
2875.32449	0.92289
2873.27069	0.92376
2871.21689	0.92426
2869.16308	0.92425
2867.10928	0.92396
2865.05548	0.92370
2863.00167	0.92316
2860.94787	0.92215
2858.89407	0.92080
2856.84026	0.91912
2854.78646	0.91732
2852.73266	0.91599
2850.67885	0.91567
2848.62505	0.91593
2846.57125	0.91659
2844.51744	0.91842
2842.46364	0.92123
2840.40984	0.92391
2838.35603	0.92582
2836.30223	0.92731
2834.24843	0.92878
2832.19463	0.93031
2830.14082	0.93183
2828.08702	0.93301
2826.03322	0.93374
2823.97941	0.93427
2821.92561	0.93453
2819.87181	0.93445
2817.81800	0.93444
2815.76420	0.93467
2813.71040	0.93497
2811.65659	0.93514
2809.60279	0.93532
2807.54899	0.93578
2805.49518	0.93636
2803.44138	0.93655
2801.38758	0.93643
2799.33377	0.93664
2797.27997	0.93709
2795.22617	0.93734
2793.17236	0.93735
2791.11856	0.93727
2789.06476	0.93738
2787.01095	0.93765
2784.95715	0.93785
2782.90335	0.93822
2780.84955	0.93880
2778.79574	0.93918
2776.74194	0.93927
2774.68814	0.93916
2772.63433	0.93893
2770.58053	0.93880
2768.52673	0.93908
2766.47292	0.93970
2764.41912	0.94000
2762.36532	0.93974
2760.31151	0.93938
2758.25771	0.93938
2756.20391	0.93964
2754.15010	0.93993
2752.09630	0.94009
2750.04250	0.94008
2747.98869	0.94007
2745.93489	0.94021
2743.88109	0.94030
2741.82728	0.94019
2739.77348	0.94025
2737.71968	0.94058
2735.66587	0.94082
2733.61207	0.94076
2731.55827	0.94045
2729.50446	0.94000
2727.45066	0.93968
2725.39686	0.93974
2723.34306	0.94017
2721.28925	0.94057
2719.23545	0.94064
2717.18165	0.94068
2715.12784	0.94089
2713.07404	0.94101
2711.02024	0.94113
2708.96643	0.94122
2706.91263	0.94101
2704.85883	0.94080
2702.80502	0.94085
2700.75122	0.94107
2698.69742	0.94148
2696.64361	0.94206
2694.58981	0.94243
2692.53601	0.94218
2690.48220	0.94173
2688.42840	0.94167
2686.37460	0.94188
2684.32079	0.94228
2682.26699	0.94272
2680.21319	0.94271
2678.15938	0.94238
2676.10558	0.94236
2674.05178	0.94250
2671.99797	0.94221
2669.94417	0.94171
2667.89037	0.94159
2665.83657	0.94176
2663.78276	0.94175
2661.72896	0.94156
2659.67516	0.94162
2657.62135	0.94183
2655.56755	0.94202
2653.51375	0.94225
2651.45994	0.94229
2649.40614	0.94212
2647.35234	0.94195
2645.29853	0.94204
2643.24473	0.94248
2641.19093	0.94280
2639.13712	0.94270
2637.08332	0.94255
2635.02952	0.94263
2632.97571	0.94278
2630.92191	0.94290
2628.86811	0.94307
2626.81430	0.94330
2624.76050	0.94344
2622.70670	0.94354
2620.65289	0.94367
2618.59909	0.94381
2616.54529	0.94409
2614.49149	0.94422
2612.43768	0.94401
2610.38388	0.94372
2608.33008	0.94352
2606.27627	0.94368
2604.22247	0.94423
2602.16867	0.94468
2600.11486	0.94498
2598.06106	0.94530
2596.00726	0.94521
2593.95345	0.94467
2591.89965	0.94434
2589.84585	0.94425
2587.79204	0.94426
2585.73824	0.94473
2583.68444	0.94537
2581.63063	0.94558
2579.57683	0.94550
2577.52303	0.94554
2575.46922	0.94556
2573.41542	0.94527
2571.36162	0.94478
2569.30781	0.94468
2567.25401	0.94529
2565.20021	0.94591
2563.14640	0.94587
2561.09260	0.94573
2559.03880	0.94609
2556.98500	0.94645
2554.93119	0.94621
2552.87739	0.94548
2550.82359	0.94516
2548.76978	0.94601
2546.71598	0.94707
2544.66218	0.94726
2542.60837	0.94702
2540.55457	0.94678
2538.50077	0.94606
2536.44696	0.94521
2534.39316	0.94528
2532.33936	0.94577
2530.28555	0.94573
2528.23175	0.94580
2526.17795	0.94648
2524.12414	0.94675
2522.07034	0.94647
2520.01654	0.94655
2517.96273	0.94662
2515.90893	0.94668
2513.85513	0.94694
2511.80132	0.94669
2509.74752	0.94644
2507.69372	0.94653
2505.63992	0.94610
2503.58611	0.94552
2501.53231	0.94581
2499.47851	0.94643
2497.42470	0.94651
2495.37090	0.94636
2493.31710	0.94638
2491.26329	0.94668
2489.20949	0.94700
2487.15569	0.94700
2485.10188	0.94710
2483.04808	0.94739
2480.99428	0.94760
2478.94047	0.94778
2476.88667	0.94778
2474.83287	0.94773
2472.77906	0.94805
2470.72526	0.94827
2468.67146	0.94825
2466.61765	0.94836
2464.56385	0.94837
2462.51005	0.94842
2460.45624	0.94845
2458.40244	0.94795
2456.34864	0.94742
2454.29483	0.94752
2452.24103	0.94800
2450.18723	0.94844
2448.13343	0.94909
2446.07962	0.94986
2444.02582	0.94975
2441.97202	0.94869
2439.91821	0.94801
2437.86441	0.94841
2435.81061	0.94893
2433.75680	0.94860
2431.70300	0.94806
2429.64920	0.94801
2427.59539	0.94825
2425.54159	0.94851
2423.48779	0.94845
2421.43398	0.94819
2419.38018	0.94784
2417.32638	0.94761
2415.27257	0.94826
2413.21877	0.94948
2411.16497	0.94992
2409.11116	0.94930
2407.05736	0.94866
2405.00356	0.94877
2402.94975	0.94897
2400.89595	0.94847
2398.84215	0.94805
2396.78834	0.94864
2394.73454	0.94957
2392.68074	0.94983
2390.62694	0.94928
2388.57313	0.94852
2386.51933	0.94850
2384.46553	0.94928
2382.41172	0.94999
2380.35792	0.95007
2378.30412	0.94944
2376.25031	0.94831
2374.19651	0.94751
2372.14271	0.94787
2370.08890	0.94840
2368.03510	0.94789
2365.98130	0.94755
2363.92749	0.94803
2361.87369	0.94820
2359.81989	0.94795
2357.76608	0.94806
2355.71228	0.94861
2353.65848	0.94934
2351.60467	0.94970
2349.55087	0.94931
2347.49707	0.94862
2345.44326	0.94809
2343.38946	0.94787
2341.33566	0.94826
2339.28186	0.94871
2337.22805	0.94832
2335.17425	0.94826
2333.12045	0.94932
2331.06664	0.94970
2329.01284	0.94900
2326.95904	0.94826
2324.90523	0.94760
2322.85143	0.94744
2320.79763	0.94753
2318.74382	0.94772
2316.69002	0.94868
2314.63622	0.94944
2312.58241	0.94900
2310.52861	0.94794
2308.47481	0.94677
2306.42100	0.94652
2304.36720	0.94775
2302.31340	0.94919
2300.25959	0.94981
2298.20579	0.94994
2296.15199	0.94987
2294.09818	0.94918
2292.04438	0.94844
2289.99058	0.94863
2287.93677	0.94941
2285.88297	0.95004
2283.82917	0.94996
2281.77537	0.94924
2279.72156	0.94850
2277.66776	0.94826
2275.61396	0.94896
2273.56015	0.94984
2271.50635	0.94999
2269.45255	0.95005
2267.39874	0.94997
2265.34494	0.94996
2263.29114	0.95060
2261.23733	0.95076
2259.18353	0.94981
2257.12973	0.94947
2255.07592	0.95083
2253.02212	0.95118
2250.96832	0.94957
2248.91451	0.94941
2246.86071	0.95055
2244.80691	0.95087
2242.75310	0.95135
2240.69930	0.95226
2238.64550	0.95256
2236.59169	0.95222
2234.53789	0.95116
2232.48409	0.94984
2230.43029	0.94946
2228.37648	0.95013
2226.32268	0.95044
2224.26888	0.94956
2222.21507	0.94898
2220.16127	0.95010
2218.10747	0.95178
2216.05366	0.95233
2213.99986	0.95199
2211.94606	0.95258
2209.89225	0.95419
2207.83845	0.95420
2205.78465	0.95313
2203.73084	0.95306
2201.67704	0.95348
2199.62324	0.95399
2197.56943	0.95488
2195.51563	0.95511
2193.46183	0.95274
2191.40802	0.94922
2189.35422	0.94813
2187.30042	0.94996
2185.24661	0.95269
2183.19281	0.95438
2181.13901	0.95391
2179.08520	0.95293
2177.03140	0.95421
2174.97760	0.95588
2172.92380	0.95454
2170.86999	0.95194
2168.81619	0.95057
2166.76239	0.95024
2164.70858	0.95114
2162.65478	0.95279
2160.60098	0.95457
2158.54717	0.95623
2156.49337	0.95718
2154.43957	0.95729
2152.38576	0.95619
2150.33196	0.95627
2148.27816	0.95870
2146.22435	0.95963
2144.17055	0.95777
2142.11675	0.95651
2140.06294	0.95645
2138.00914	0.95611
2135.95534	0.95626
2133.90153	0.95717
2131.84773	0.95801
2129.79393	0.95864
2127.74012	0.95869
2125.68632	0.95732
2123.63252	0.95494
2121.57871	0.95317
2119.52491	0.95279
2117.47111	0.95337
2115.41731	0.95440
2113.36350	0.95521
2111.30970	0.95508
2109.25590	0.95421
2107.20209	0.95311
2105.14829	0.95291
2103.09449	0.95370
2101.04068	0.95364
2098.98688	0.95275
2096.93308	0.95269
2094.87927	0.95348
2092.82547	0.95402
2090.77167	0.95414
2088.71786	0.95391
2086.66406	0.95373
2084.61026	0.95418
2082.55645	0.95500
2080.50265	0.95519
2078.44885	0.95425
2076.39504	0.95316
2074.34124	0.95318
2072.28744	0.95343
2070.23363	0.95295
2068.17983	0.95302
2066.12603	0.95315
2064.07223	0.95269
2062.01842	0.95355
2059.96462	0.95488
2057.91082	0.95447
2055.85701	0.95315
2053.80321	0.95208
2051.74941	0.95239
2049.69560	0.95528
2047.64180	0.95824
2045.58800	0.95805
2043.53419	0.95663
2041.48039	0.95728
2039.42659	0.95996
2037.37278	0.96170
2035.31898	0.96041
2033.26518	0.95780
2031.21137	0.95573
2029.15757	0.95354
2027.10377	0.95213
2025.04996	0.95301
2022.99616	0.95582
2020.94236	0.95940
2018.88855	0.96095
2016.83475	0.95873
2014.78095	0.95509
2012.72714	0.95263
2010.67334	0.95220
2008.61954	0.95441
2006.56574	0.95871
2004.51193	0.96172
2002.45813	0.96109
2000.40433	0.95919
1998.35052	0.95800
1996.29672	0.95770
1994.24292	0.95895
1992.18911	0.95971
1990.13531	0.95768
1988.08151	0.95587
1986.02770	0.95558
1983.97390	0.95477
1981.92010	0.95430
1979.86629	0.95522
1977.81249	0.95650
1975.75869	0.95747
1973.70488	0.95897
1971.65108	0.95954
1969.59728	0.95770
1967.54347	0.95607
1965.48967	0.95578
1963.43587	0.95567
1961.38206	0.95555
1959.32826	0.95523
1957.27446	0.95532
1955.22066	0.95674
1953.16685	0.95723
1951.11305	0.95570
1949.05925	0.95440
1947.00544	0.95445
1944.95164	0.95536
1942.89784	0.95517
1940.84403	0.95348
1938.79023	0.95282
1936.73643	0.95354
1934.68262	0.95452
1932.62882	0.95572
1930.57502	0.95656
1928.52121	0.95578
1926.46741	0.95414
1924.41361	0.95370
1922.35980	0.95462
1920.30600	0.95579
1918.25220	0.95676
1916.19839	0.95719
1914.14459	0.95682
1912.09079	0.95606
1910.03698	0.95631
1907.98318	0.95736
1905.92938	0.95705
1903.87557	0.95593
1901.82177	0.95578
1899.76797	0.95557
1897.71417	0.95458
1895.66036	0.95471
1893.60656	0.95577
1891.55276	0.95573
1889.49895	0.95518
1887.44515	0.95513
1885.39135	0.95480
1883.33754	0.95411
1881.28374	0.95386
1879.22994	0.95390
1877.17613	0.95371
1875.12233	0.95341
1873.06853	0.95313
1871.01472	0.95278
1868.96092	0.95256
1866.90712	0.95282
1864.85331	0.95312
1862.79951	0.95298
1860.74571	0.95304
1858.69190	0.95404
1856.63810	0.95525
1854.58430	0.95554
1852.53049	0.95524
1850.47669	0.95546
1848.42289	0.95598
1846.36908	0.95563
1844.31528	0.95507
1842.26148	0.95569
1840.20768	0.95669
1838.15387	0.95702
1836.10007	0.95680
1834.04627	0.95669
1831.99246	0.95670
1829.93866	0.95652
1827.88486	0.95606
1825.83105	0.95595
1823.77725	0.95641
1821.72345	0.95642
1819.66964	0.95567
1817.61584	0.95495
1815.56204	0.95468
1813.50823	0.95447
1811.45443	0.95395
1809.40063	0.95312
1807.34682	0.95264
1805.29302	0.95272
1803.23922	0.95264
1801.18541	0.95246
1799.13161	0.95275
1797.07781	0.95305
1795.02400	0.95329
1792.97020	0.95394
1790.91640	0.95454
1788.86260	0.95472
1786.80879	0.95476
1784.75499	0.95468
1782.70119	0.95451
1780.64738	0.95451
1778.59358	0.95499
1776.53978	0.95556
1774.48597	0.95568
1772.43217	0.95554
1770.37837	0.95541
1768.32456	0.95521
1766.27076	0.95491
1764.21696	0.95463
1762.16315	0.95448
1760.10935	0.95426
1758.05555	0.95364
1756.00174	0.95266
1753.94794	0.95173
1751.89414	0.95086
1749.84033	0.95001
1747.78653	0.94948
1745.73273	0.94893
1743.67892	0.94815
1741.62512	0.94775
1739.57132	0.94800
1737.51751	0.94818
1735.46371	0.94831
1733.40991	0.94869
1731.35611	0.94855
1729.30230	0.94797
1727.24850	0.94771
1725.19470	0.94785
1723.14089	0.94795
1721.08709	0.94774
1719.03329	0.94733
1716.97948	0.94701
1714.92568	0.94708
1712.87188	0.94717
1710.81807	0.94705
1708.76427	0.94686
1706.71047	0.94635
1704.65666	0.94534
1702.60286	0.94422
1700.54906	0.94289
1698.49525	0.94173
1696.44145	0.94090
1694.38765	0.93980
1692.33384	0.93870
1690.28004	0.93755
1688.22624	0.93621
1686.17243	0.93477
1684.11863	0.93265
1682.06483	0.93084
1680.01103	0.92948
1677.95722	0.92768
1675.90342	0.92566
1673.84962	0.92403
1671.79581	0.92284
1669.74201	0.92139
1667.68821	0.91969
1665.63440	0.91822
1663.58060	0.91673
1661.52680	0.91535
1659.47299	0.91423
1657.41919	0.91307
1655.36539	0.91202
1653.31158	0.91155
1651.25778	0.91165
1649.20398	0.91158
1647.15017	0.91118
1645.09637	0.91068
1643.04257	0.91034
1640.98876	0.91014
1638.93496	0.91020
1636.88116	0.91013
1634.82735	0.90943
1632.77355	0.90891
1630.71975	0.90894
1628.66594	0.90908
1626.61214	0.90880
1624.55834	0.90864
1622.50454	0.90912
1620.45073	0.90959
1618.39693	0.90999
1616.34313	0.91061
1614.28932	0.91092
1612.23552	0.91052
1610.18172	0.90926
1608.12791	0.90645
1606.07411	0.90150
1604.02031	0.89530
1601.96650	0.89070
1599.91270	0.89067
1597.85890	0.89489
1595.80509	0.90064
1593.75129	0.90559
1591.69749	0.90879
1589.64368	0.91040
1587.58988	0.91070
1585.53608	0.90990
1583.48227	0.90901
1581.42847	0.90970
1579.37467	0.91192
1577.32086	0.91453
1575.26706	0.91666
1573.21326	0.91770
1571.15945	0.91826
1569.10565	0.91861
1567.05185	0.91865
1564.99805	0.91868
1562.94424	0.91871
1560.89044	0.91859
1558.83664	0.91826
1556.78283	0.91791
1554.72903	0.91767
1552.67523	0.91756
1550.62142	0.91738
1548.56762	0.91716
1546.51382	0.91724
1544.46001	0.91723
1542.40621	0.91706
1540.35241	0.91736
1538.29860	0.91804
1536.24480	0.91881
1534.19100	0.91988
1532.13719	0.92102
1530.08339	0.92166
1528.02959	0.92215
1525.97578	0.92295
1523.92198	0.92385
1521.86818	0.92433
1519.81437	0.92441
1517.76057	0.92486
1515.70677	0.92579
1513.65297	0.92654
1511.59916	0.92702
1509.54536	0.92725
1507.49156	0.92739
1505.43775	0.92779
1503.38395	0.92739
1501.33015	0.92550
1499.27634	0.91969
1497.22254	0.90260
1495.16874	0.87591
1493.11493	0.85923
1491.06113	0.86279
1489.00733	0.88369
1486.95352	0.90204
1484.89972	0.91140
1482.84592	0.91698
1480.79211	0.92054
1478.73831	0.92239
1476.68451	0.92334
1474.63070	0.92407
1472.57690	0.92420
1470.52310	0.92324
1468.46929	0.92207
1466.41549	0.92113
1464.36169	0.92016
1462.30788	0.91890
1460.25408	0.91647
1458.20028	0.90729
1456.14648	0.88324
1454.09267	0.86043
1452.03887	0.84989
1449.98507	0.85205
1447.93126	0.86268
1445.87746	0.87351
1443.82366	0.88159
1441.76985	0.88810
1439.71605	0.89335
1437.66225	0.89814
1435.60844	0.90274
1433.55464	0.90600
1431.50084	0.90874
1429.44703	0.91119
1427.39323	0.91265
1425.33943	0.91365
1423.28562	0.91473
1421.23182	0.91558
1419.17802	0.91596
1417.12421	0.91606
1415.07041	0.91651
1413.01661	0.91715
1410.96280	0.91769
1408.90900	0.91812
1406.85520	0.91856
1404.80139	0.91910
1402.74759	0.91972
1400.69379	0.92031
1398.63999	0.92073
1396.58618	0.92113
1394.53238	0.92126
1392.47858	0.92089
1390.42477	0.92035
1388.37097	0.91964
1386.31717	0.91883
1384.26336	0.91813
1382.20956	0.91727
1380.15576	0.91618
1378.10195	0.91539
1376.04815	0.91503
1373.99435	0.91484
1371.94054	0.91497
1369.88674	0.91551
1367.83294	0.91612
1365.77913	0.91658
1363.72533	0.91723
1361.67153	0.91848
1359.61772	0.91989
1357.56392	0.92082
1355.51012	0.92124
1353.45631	0.92153
1351.40251	0.92195
1349.34871	0.92239
1347.29491	0.92270
1345.24110	0.92287
1343.18730	0.92323
1341.13350	0.92394
1339.07969	0.92461
1337.02589	0.92492
1334.97209	0.92503
1332.91828	0.92477
1330.86448	0.92409
1328.81068	0.92344
1326.75687	0.92311
1324.70307	0.92309
1322.64927	0.92329
1320.59546	0.92351
1318.54166	0.92373
1316.48786	0.92386
1314.43405	0.92386
1312.38025	0.92400
1310.32645	0.92427
1308.27264	0.92442
1306.21884	0.92462
1304.16504	0.92509
1302.11123	0.92572
1300.05743	0.92627
1298.00363	0.92657
1295.94982	0.92651
1293.89602	0.92630
1291.84222	0.92642
1289.78842	0.92671
1287.73461	0.92686
1285.68081	0.92672
1283.62701	0.92623
1281.57320	0.92556
1279.51940	0.92484
1277.46560	0.92428
1275.41179	0.92392
1273.35799	0.92363
1271.30419	0.92348
1269.25038	0.92353
1267.19658	0.92363
1265.14278	0.92379
1263.08897	0.92421
1261.03517	0.92448
1258.98137	0.92427
1256.92756	0.92379
1254.87376	0.92340
1252.81996	0.92332
1250.76615	0.92329
1248.71235	0.92308
1246.65855	0.92289
1244.60474	0.92275
1242.55094	0.92253
1240.49714	0.92229
1238.44334	0.92229
1236.38953	0.92248
1234.33573	0.92235
1232.28193	0.92172
1230.22812	0.92103
1228.17432	0.92074
1226.12052	0.92068
1224.06671	0.92053
1222.01291	0.92023
1219.95911	0.91967
1217.90530	0.91907
1215.85150	0.91837
1213.79770	0.91723
1211.74389	0.91597
1209.69009	0.91470
1207.63629	0.91317
1205.58248	0.91166
1203.52868	0.91020
1201.47488	0.90850
1199.42107	0.90650
1197.36727	0.90450
1195.31347	0.90267
1193.25966	0.90073
1191.20586	0.89851
1189.15206	0.89614
1187.09825	0.89373
1185.04445	0.89084
1182.99065	0.88728
1180.93685	0.88404
1178.88304	0.88225
1176.82924	0.88153
1174.77544	0.88067
1172.72163	0.87921
1170.66783	0.87716
1168.61403	0.87473
1166.56022	0.87243
1164.50642	0.87061
1162.45262	0.86883
1160.39881	0.86669
1158.34501	0.86417
1156.29121	0.86143
1154.23740	0.85925
1152.18360	0.85830
1150.12980	0.85827
1148.07599	0.85848
1146.02219	0.85839
1143.96839	0.85784
1141.91458	0.85685
1139.86078	0.85575
1137.80698	0.85480
1135.75317	0.85366
1133.69937	0.85217
1131.64557	0.85040
1129.59176	0.84812
1127.53796	0.84540
1125.48416	0.84262
1123.43036	0.83953
1121.37655	0.83575
1119.32275	0.83150
1117.26895	0.82718
1115.21514	0.82276
1113.16134	0.81811
1111.10754	0.81360
1109.05373	0.80953
1106.99993	0.80613
1104.94613	0.80349
1102.89232	0.80085
1100.83852	0.79808
1098.78472	0.79590
1096.73091	0.79417
1094.67711	0.79223
1092.62331	0.78995
1090.56950	0.78801
1088.51570	0.78675
1086.46190	0.78518
1084.40809	0.78289
1082.35429	0.78068
1080.30049	0.77858
1078.24668	0.77629
1076.19288	0.77386
1074.13908	0.77117
1072.08528	0.76804
1070.03147	0.76470
1067.97767	0.76185
1065.92387	0.75985
1063.87006	0.75832
1061.81626	0.75646
1059.76246	0.75394
1057.70865	0.75147
1055.65485	0.74891
1053.60105	0.74527
1051.54724	0.74082
1049.49344	0.73611
1047.43964	0.73068
1045.38583	0.72449
1043.33203	0.71838
1041.27823	0.71228
1039.22442	0.70559
1037.17062	0.69834
1035.11682	0.69044
1033.06301	0.68164
1031.00921	0.67303
1028.95541	0.66658
1026.90160	0.66328
1024.84780	0.66304
1022.79400	0.66452
1020.74019	0.66600
1018.68639	0.66695
1016.63259	0.66763
1014.57879	0.66818
1012.52498	0.66844
1010.47118	0.66828
1008.41738	0.66799
1006.36357	0.66787
1004.30977	0.66806
1002.25597	0.66940
1000.20216	0.67264
998.14836	0.67716
996.09456	0.68193
994.04075	0.68687
991.98695	0.69205
989.93315	0.69720
987.87934	0.70240
985.82554	0.70789
983.77174	0.71358
981.71793	0.71969
979.66413	0.72692
977.61033	0.73537
975.55652	0.74423
973.50272	0.75267
971.44892	0.76052
969.39511	0.76766
967.34131	0.77407
965.28751	0.78012
963.23371	0.78598
961.17990	0.79208
959.12610	0.79845
957.07230	0.80407
955.01849	0.80857
952.96469	0.81257
950.91089	0.81624
948.85708	0.81923
946.80328	0.82142
944.74948	0.82333
942.69567	0.82550
940.64187	0.82792
938.58807	0.83084
936.53426	0.83381
934.48046	0.83615
932.42666	0.83836
930.37285	0.84084
928.31905	0.84281
926.26525	0.84379
924.21144	0.84427
922.15764	0.84429
920.10384	0.84390
918.05003	0.84315
915.99623	0.84120
913.94243	0.83838
911.88862	0.83606
909.83482	0.83466
907.78102	0.83449
905.72722	0.83654
903.67341	0.84121
901.61961	0.84783
899.56581	0.85525
897.51200	0.86206
895.45820	0.86710
893.40440	0.87055
891.35059	0.87341
889.29679	0.87586
887.24299	0.87773
885.18918	0.87960
883.13538	0.88176
881.08158	0.88332
879.02777	0.88359
876.97397	0.88364
874.92017	0.88520
872.86636	0.88794
870.81256	0.89013
868.75876	0.89131
866.70495	0.89232
864.65115	0.89369
862.59735	0.89484
860.54354	0.89537
858.48974	0.89574
856.43594	0.89650
854.38213	0.89738
852.32833	0.89744
850.27453	0.89671
848.22073	0.89617
846.16692	0.89581
844.11312	0.89479
842.05932	0.89350
840.00551	0.89290
837.95171	0.89278
835.89791	0.89286
833.84410	0.89353
831.79030	0.89433
829.73650	0.89442
827.68269	0.89450
825.62889	0.89537
823.57509	0.89614
821.52128	0.89619
819.46748	0.89597
817.41368	0.89563
815.35987	0.89511
813.30607	0.89456
811.25227	0.89385
809.19846	0.89231
807.14466	0.88933
805.09086	0.88548
803.03705	0.88189
800.98325	0.87908
798.92945	0.87726
796.87565	0.87662
794.82184	0.87703
792.76804	0.87746
790.71424	0.87692
788.66043	0.87563
786.60663	0.87388
784.55283	0.87125
782.49902	0.86788
780.44522	0.86433
778.39142	0.86054
776.33761	0.85612
774.28381	0.85068
772.23001	0.84363
770.17620	0.83476
768.12240	0.82417
766.06860	0.81235
764.01479	0.80044
761.96099	0.78902
759.90719	0.77819
757.85338	0.76955
755.79958	0.76472
753.74578	0.76353
751.69197	0.76485
749.63817	0.76749
747.58437	0.77135
745.53056	0.77809
743.47676	0.78920
741.42296	0.80279
739.36916	0.81556
737.31535	0.82680
735.26155	0.83717
733.20775	0.84637
731.15394	0.85391
729.10014	0.85953
727.04634	0.86320
724.99253	0.86557
722.93873	0.86754
720.88493	0.86949
718.83112	0.87111
716.77732	0.87177
714.72352	0.87051
712.66971	0.86597
710.61591	0.85539
708.56211	0.83388
706.50830	0.79783
704.45450	0.74707
702.40070	0.68315
700.34689	0.61082
698.29309	0.54472
696.23929	0.51351
694.18548	0.54067
692.13168	0.61112
690.07788	0.68310
688.02408	0.73183
685.97027	0.75968
683.91647	0.77659
681.86267	0.78819
679.80886	0.79619
677.75506	0.80200
675.70126	0.80682
673.64745	0.81035
671.59365	0.81256
669.53985	0.81447
667.48604	0.81637
665.43224	0.81739
663.37844	0.81889
661.32463	0.82143
659.27083	0.82282
657.21703	0.82234
655.16322	0.82138
653.10942	0.82057
651.05562	0.81992
649.00181	0.81945
646.94801	0.81981
644.89421	0.82165
642.84040	0.82450
640.78660	0.82704
638.73280	0.82792
636.67899	0.82714
634.62519	0.82598
632.57139	0.82554
630.51759	0.82607
628.46378	0.82662
626.40998	0.82588
624.35618	0.82370
622.30237	0.82151
620.24857	0.82020
618.19477	0.81910
616.14096	0.81849
614.08716	0.81828
612.03336	0.81672
609.97955	0.81407
607.92575	0.81182
605.87195	0.80902
603.81814	0.80555
601.76434	0.80318
599.71054	0.80169
597.65673	0.79968
595.60293	0.79768
593.54913	0.79722
591.49532	0.79681
589.44152	0.79403
587.38772	0.79071
585.33391	0.78936
583.28011	0.78919
581.22631	0.78783
579.17250	0.78492
577.11870	0.78256
575.06490	0.78086
573.01110	0.77704
570.95729	0.77047
568.90349	0.76437
566.84969	0.76057
564.79588	0.75729
562.74208	0.75328
560.68828	0.74728
558.63447	0.73922
556.58067	0.73239
554.52687	0.72712
552.47306	0.72081
550.41926	0.71369
548.36546	0.70588
546.31165	0.69605
544.25785	0.68446
542.20405	0.67308
540.15024	0.66414
538.09644	0.65768
536.04264	0.65286
533.98883	0.65165
531.93503	0.65507
529.88123	0.66102
527.82742	0.66816
525.77362	0.67640
523.71982	0.68437
521.66602	0.69026
519.61221	0.69502
517.55841	0.70097
515.50461	0.70706
513.45080	0.71177
511.39700	0.71599
509.34320	0.72033
507.28939	0.72435
505.23559	0.72816
503.18179	0.73086
501.12798	0.73158
499.07418	0.73275
497.02038	0.73342
494.96657	0.73051
492.91277	0.72590
490.85897	0.72129
488.80516	0.71642
486.75136	0.71094
484.69756	0.70154
482.64375	0.68831
480.58995	0.67561
478.53615	0.66331
476.48234	0.65113
474.42854	0.64123
472.37474	0.63410
470.32093	0.62842
468.26713	0.62367
466.21333	0.62213
464.15953	0.62540
462.10572	0.63151
460.05192	0.63841
457.99812	0.64663
455.94431	0.65591
453.89051	0.66378
451.83671	0.66878
449.78290	0.67167
447.72910	0.67439
445.67530	0.67622
443.62149	0.67562
441.56769	0.67499
439.51389	0.67647
437.46008	0.67642
435.40628	0.67323
433.35248	0.66900
431.29867	0.66568
429.24487	0.66448
427.19107	0.66395
425.13726	0.66457
423.08346	0.66836
421.02966	0.67401
418.97585	0.68056
416.92205	0.68663
414.86825	0.69033
412.81445	0.69240
410.76064	0.69572
408.70684	0.69951
406.65304	0.70112
404.59923	0.70350
402.54543	0.70609
400.49163	0.70535
398.43782	0.70176
