3996.70104	0.99401
3994.64724	0.99400
3992.59344	0.99433
3990.53964	0.99457
3988.48583	0.99448
3986.43203	0.99413
3984.37823	0.99367
3982.32442	0.99335
3980.27062	0.99361
3978.21682	0.99408
3976.16301	0.99402
3974.10921	0.99376
3972.05541	0.99394
3970.00160	0.99449
3967.94780	0.99490
3965.89400	0.99496
3963.84019	0.99475
3961.78639	0.99452
3959.73259	0.99454
3957.67878	0.99465
3955.62498	0.99454
3953.57118	0.99422
3951.51737	0.99392
3949.46357	0.99395
3947.40977	0.99428
3945.35596	0.99481
3943.30216	0.99551
3941.24836	0.99593
3939.19455	0.99579
3937.14075	0.99550
3935.08695	0.99536
3933.03315	0.99491
3930.97934	0.99422
3928.92554	0.99379
3926.87174	0.99352
3924.81793	0.99395
3922.76413	0.99514
3920.71033	0.99527
3918.65652	0.99445
3916.60272	0.99453
3914.54892	0.99470
3912.49511	0.99413
3910.44131	0.99377
3908.38751	0.99402
3906.33370	0.99467
3904.27990	0.99505
3902.22610	0.99452
3900.17229	0.99377
3898.11849	0.99394
3896.06469	0.99476
3894.01088	0.99522
3891.95708	0.99485
3889.90328	0.99395
3887.84947	0.99364
3885.79567	0.99398
3883.74187	0.99411
3881.68807	0.99434
3879.63426	0.99500
3877.58046	0.99504
3875.52666	0.99460
3873.47285	0.99453
3871.41905	0.99459
3869.36525	0.99406
3867.31144	0.99388
3865.25764	0.99417
3863.20384	0.99393
3861.15003	0.99372
3859.09623	0.99398
3857.04243	0.99429
3854.98862	0.99472
3852.93482	0.99529
3850.88102	0.99538
3848.82721	0.99502
3846.77341	0.99468
3844.71961	0.99448
3842.66580	0.99407
3840.61200	0.99377
3838.55820	0.99394
3836.50439	0.99365
3834.45059	0.99321
3832.39679	0.99363
3830.34298	0.99423
3828.28918	0.99437
3826.23538	0.99472
3824.18158	0.99520
3822.12777	0.99483
3820.07397	0.99386
3818.02017	0.99374
3815.96636	0.99386
3813.91256	0.99367
3811.85876	0.99380
3809.80495	0.99449
3807.75115	0.99498
3805.69735	0.99435
3803.64354	0.99360
3801.58974	0.99390
3799.53594	0.99457
3797.48213	0.99449
3795.42833	0.99406
3793.37453	0.99377
3791.32072	0.99352
3789.26692	0.99371
3787.21312	0.99449
3785.15931	0.99500
3783.10551	0.99483
3781.05171	0.99450
3778.99790	0.99400
3776.94410	0.99394
3774.89030	0.99452
3772.83650	0.99482
3770.78269	0.99471
3768.72889	0.99456
3766.67509	0.99433
3764.62128	0.99401
3762.56748	0.99428
3760.51368	0.99520
3758.45987	0.99575
3756.40607	0.99511
3754.35227	0.99398
3752.29846	0.99343
3750.24466	0.99365
3748.19086	0.99413
3746.13705	0.99455
3744.08325	0.99438
3742.02945	0.99383
3739.97564	0.99376
3737.92184	0.99416
3735.86804	0.99472
3733.81423	0.99518
3731.76043	0.99483
3729.70663	0.99395
3727.65282	0.99362
3725.59902	0.99401
3723.54522	0.99415
3721.49141	0.99365
3719.43761	0.99261
3717.38381	0.99134
3715.33001	0.99080
3713.27620	0.99059
3711.22240	0.98890
3709.16860	0.98678
3707.11479	0.98560
3705.06099	0.98428
3703.00719	0.98261
3700.95338	0.98100
3698.89958	0.98027
3696.84578	0.98046
3694.79197	0.98114
3692.73817	0.98175
3690.68437	0.98134
3688.63056	0.98106
3686.57676	0.98238
3684.52296	0.98364
3682.46915	0.98446
3680.41535	0.98501
3678.36155	0.98461
3676.30774	0.98295
3674.25394	0.98212
3672.20014	0.98266
3670.14633	0.98281
3668.09253	0.98305
3666.03873	0.98397
3663.98492	0.98458
3661.93112	0.98418
3659.87732	0.98340
3657.82352	0.98306
3655.76971	0.98254
3653.71591	0.98163
3651.66211	0.98113
3649.60830	0.98079
3647.55450	0.98025
3645.50070	0.98020
3643.44689	0.98049
3641.39309	0.98071
3639.33929	0.98034
3637.28548	0.97907
3635.23168	0.97783
3633.17788	0.97791
3631.12407	0.97861
3629.07027	0.97755
3627.01647	0.97533
3624.96266	0.97464
3622.90886	0.97462
3620.85506	0.97479
3618.80125	0.97501
3616.74745	0.97520
3614.69365	0.97571
3612.63984	0.97647
3610.58604	0.97687
3608.53224	0.97669
3606.47844	0.97630
3604.42463	0.97575
3602.37083	0.97521
3600.31703	0.97519
3598.26322	0.97542
3596.20942	0.97525
3594.15562	0.97505
3592.10181	0.97576
3590.04801	0.97668
3587.99421	0.97633
3585.94040	0.97499
3583.88660	0.97413
3581.83280	0.97360
3579.77899	0.97310
3577.72519	0.97260
3575.67139	0.97217
3573.61758	0.97163
3571.56378	0.97085
3569.50998	0.97000
3567.45617	0.96924
3565.40237	0.96887
3563.34857	0.96888
3561.29476	0.96897
3559.24096	0.96875
3557.18716	0.96784
3555.13335	0.96685
3553.07955	0.96656
3551.02575	0.96658
3548.97195	0.96632
3546.91814	0.96581
3544.86434	0.96498
3542.81054	0.96419
3540.75673	0.96389
3538.70293	0.96384
3536.64913	0.96404
3534.59532	0.96469
3532.54152	0.96523
3530.48772	0.96506
3528.43391	0.96457
3526.38011	0.96457
3524.32631	0.96474
3522.27250	0.96468
3520.21870	0.96484
3518.16490	0.96517
3516.11109	0.96541
3514.05729	0.96571
3512.00349	0.96608
3509.94968	0.96636
3507.89588	0.96650
3505.84208	0.96659
3503.78827	0.96644
3501.73447	0.96622
3499.68067	0.96624
3497.62687	0.96631
3495.57306	0.96627
3493.51926	0.96599
3491.46546	0.96548
3489.41165	0.96522
3487.35785	0.96526
3485.30405	0.96543
3483.25024	0.96612
3481.19644	0.96687
3479.14264	0.96653
3477.08883	0.96554
3475.03503	0.96503
3472.98123	0.96509
3470.92742	0.96546
3468.87362	0.96577
3466.81982	0.96537
3464.76601	0.96474
3462.71221	0.96483
3460.65841	0.96517
3458.60460	0.96502
3456.55080	0.96496
3454.49700	0.96507
3452.44319	0.96472
3450.38939	0.96401
3448.33559	0.96336
3446.28178	0.96297
3444.22798	0.96282
3442.17418	0.96296
3440.12038	0.96350
3438.06657	0.96370
3436.01277	0.96300
3433.95897	0.96202
3431.90516	0.96119
3429.85136	0.96076
3427.79756	0.96079
3425.74375	0.96092
3423.68995	0.96073
3421.63615	0.95992
3419.58234	0.95890
3417.52854	0.95834
3415.47474	0.95826
3413.42093	0.95793
3411.36713	0.95716
3409.31333	0.95679
3407.25952	0.95668
3405.20572	0.95647
3403.15192	0.95644
3401.09811	0.95639
3399.04431	0.95626
3396.99051	0.95684
3394.93670	0.95790
3392.88290	0.95822
3390.82910	0.95796
3388.77529	0.95792
3386.72149	0.95810
3384.66769	0.95846
3382.61389	0.95887
3380.56008	0.95920
3378.50628	0.95941
3376.45248	0.95967
3374.39867	0.96007
3372.34487	0.96041
3370.29107	0.96079
3368.23726	0.96115
3366.18346	0.96140
3364.12966	0.96147
3362.07585	0.96118
3360.02205	0.96086
3357.96825	0.96076
3355.91444	0.96073
3353.86064	0.96100
3351.80684	0.96154
3349.75303	0.96192
3347.69923	0.96216
3345.64543	0.96232
3343.59162	0.96249
3341.53782	0.96266
3339.48402	0.96235
3337.43021	0.96161
3335.37641	0.96134
3333.32261	0.96201
3331.26881	0.96279
3329.21500	0.96314
3327.16120	0.96332
3325.10740	0.96315
3323.05359	0.96254
3320.99979	0.96208
3318.94599	0.96216
3316.89218	0.96258
3314.83838	0.96321
3312.78458	0.96347
3310.73077	0.96322
3308.67697	0.96339
3306.62317	0.96358
3304.56936	0.96316
3302.51556	0.96299
3300.46176	0.96362
3298.40795	0.96441
3296.35415	0.96456
3294.30035	0.96444
3292.24654	0.96477
3290.19274	0.96531
3288.13894	0.96555
3286.08513	0.96565
3284.03133	0.96582
3281.97753	0.96588
3279.92372	0.96577
3277.86992	0.96581
3275.81612	0.96609
3273.76232	0.96615
3271.70851	0.96596
3269.65471	0.96554
3267.60091	0.96503
3265.54710	0.96555
3263.49330	0.96674
3261.43950	0.96692
3259.38569	0.96617
3257.33189	0.96597
3255.27809	0.96671
3253.22428	0.96735
3251.17048	0.96727
3249.11668	0.96715
3247.06287	0.96752
3245.00907	0.96780
3242.95527	0.96762
3240.90146	0.96731
3238.84766	0.96737
3236.79386	0.96803
3234.74005	0.96864
3232.68625	0.96884
3230.63245	0.96883
3228.57864	0.96881
3226.52484	0.96895
3224.47104	0.96917
3222.41724	0.96955
3220.36343	0.96983
3218.30963	0.96966
3216.25583	0.96973
3214.20202	0.97019
3212.14822	0.97025
3210.09442	0.96996
3208.04061	0.97005
3205.98681	0.97065
3203.93301	0.97136
3201.87920	0.97191
3199.82540	0.97218
3197.77160	0.97211
3195.71779	0.97179
3193.66399	0.97161
3191.61019	0.97181
3189.55638	0.97210
3187.50258	0.97221
3185.44878	0.97226
3183.39497	0.97234
3181.34117	0.97214
3179.28737	0.97217
3177.23356	0.97300
3175.17976	0.97364
3173.12596	0.97361
3171.07215	0.97365
3169.01835	0.97413
3166.96455	0.97467
3164.91075	0.97503
3162.85694	0.97543
3160.80314	0.97587
3158.74934	0.97608
3156.69553	0.97608
3154.64173	0.97599
3152.58793	0.97572
3150.53412	0.97531
3148.48032	0.97517
3146.42652	0.97578
3144.37271	0.97664
3142.31891	0.97691
3140.26511	0.97693
3138.21130	0.97751
3136.15750	0.97821
3134.10370	0.97796
3132.04989	0.97755
3129.99609	0.97778
3127.94229	0.97781
3125.88848	0.97780
3123.83468	0.97845
3121.78088	0.97914
3119.72707	0.97929
3117.67327	0.97937
3115.61947	0.97973
3113.56566	0.98000
3111.51186	0.97982
3109.45806	0.97941
3107.40426	0.97952
3105.35045	0.98018
3103.29665	0.98057
3101.24285	0.98057
3099.18904	0.98048
3097.13524	0.98032
3095.08144	0.98036
3093.02763	0.98055
3090.97383	0.98078
3088.92003	0.98095
3086.86622	0.98095
3084.81242	0.98082
3082.75862	0.98065
3080.70481	0.98095
3078.65101	0.98148
3076.59721	0.98127
3074.54340	0.98102
3072.48960	0.98163
3070.43580	0.98227
3068.38199	0.98249
3066.32819	0.98282
3064.27439	0.98322
3062.22058	0.98343
3060.16678	0.98356
3058.11298	0.98380
3056.05918	0.98416
3054.00537	0.98433
3051.95157	0.98422
3049.89777	0.98404
3047.84396	0.98392
3045.79016	0.98380
3043.73636	0.98377
3041.68255	0.98382
3039.62875	0.98375
3037.57495	0.98369
3035.52114	0.98385
3033.46734	0.98406
3031.41354	0.98415
3029.35973	0.98400
3027.30593	0.98350
3025.25213	0.98301
3023.19832	0.98301
3021.14452	0.98338
3019.09072	0.98371
3017.03691	0.98380
3014.98311	0.98369
3012.92931	0.98368
3010.87550	0.98386
3008.82170	0.98401
3006.76790	0.98395
3004.71409	0.98346
3002.66029	0.98284
3000.60649	0.98263
2998.55269	0.98247
2996.49888	0.98207
2994.44508	0.98170
2992.39128	0.98114
2990.33747	0.98005
2988.28367	0.97866
2986.22987	0.97732
2984.17606	0.97587
2982.12226	0.97388
2980.06846	0.97155
2978.01465	0.96866
2975.96085	0.96442
2973.90705	0.95893
2971.85324	0.95235
2969.79944	0.94434
2967.74564	0.93475
2965.69183	0.92419
2963.63803	0.91407
2961.58423	0.90548
2959.53042	0.89863
2957.47662	0.89318
2955.42282	0.88822
2953.36901	0.88285
2951.31521	0.87808
2949.26141	0.87718
2947.20761	0.88260
2945.15380	0.89340
2943.10000	0.90594
2941.04620	0.91581
2938.99239	0.92035
2936.93859	0.91969
2934.88479	0.91492
2932.83098	0.90699
2930.77718	0.89701
2928.72338	0.88624
2926.66957	0.87566
2924.61577	0.86591
2922.56197	0.85734
2920.50816	0.84997
2918.45436	0.84454
2916.40056	0.84339
2914.34675	0.84807
2912.29295	0.85672
2910.23915	0.86573
2908.18534	0.87362
2906.13154	0.88124
2904.07774	0.88917
2902.02393	0.89733
2899.97013	0.90540
2897.91633	0.91242
2895.86252	0.91781
2893.80872	0.92188
2891.75492	0.92482
2889.70112	0.92619
2887.64731	0.92577
2885.59351	0.92432
2883.53971	0.92239
2881.48590	0.91944
2879.43210	0.91540
2877.37830	0.91208
2875.32449	0.91106
2873.27069	0.91129
2871.21689	0.91086
2869.16308	0.90971
2867.10928	0.90979
2865.05548	0.91385
2863.00167	0.92276
2860.94787	0.93394
2858.89407	0.94376
2856.84026	0.95003
2854.78646	0.95268
2852.73266	0.95299
2850.67885	0.95187
2848.62505	0.94940
2846.57125	0.94538
2844.51744	0.93964
2842.46364	0.93214
2840.40984	0.92376
2838.35603	0.91769
2836.30223	0.91799
2834.24843	0.92576
2832.19463	0.93784
2830.14082	0.94958
2828.08702	0.95842
2826.03322	0.96455
2823.97941	0.96899
2821.92561	0.97213
2819.87181	0.97421
2817.81800	0.97560
2815.76420	0.97656
2813.71040	0.97735
2811.65659	0.97801
2809.60279	0.97857
2807.54899	0.97944
2805.49518	0.98053
2803.44138	0.98135
2801.38758	0.98195
2799.33377	0.98248
2797.27997	0.98302
2795.22617	0.98385
2793.17236	0.98490
2791.11856	0.98570
2789.06476	0.98607
2787.01095	0.98631
2784.95715	0.98654
2782.90335	0.98679
2780.84955	0.98708
2778.79574	0.98733
2776.74194	0.98765
2774.68814	0.98794
2772.63433	0.98795
2770.58053	0.98781
2768.52673	0.98780
2766.47292	0.98792
2764.41912	0.98808
2762.36532	0.98845
2760.31151	0.98890
2758.25771	0.98906
2756.20391	0.98900
2754.15010	0.98904
2752.09630	0.98924
2750.04250	0.98943
2747.98869	0.98944
2745.93489	0.98920
2743.88109	0.98885
2741.82728	0.98858
2739.77348	0.98857
2737.71968	0.98864
2735.66587	0.98849
2733.61207	0.98832
2731.55827	0.98824
2729.50446	0.98794
2727.45066	0.98747
2725.39686	0.98704
2723.34306	0.98663
2721.28925	0.98661
2719.23545	0.98706
2717.18165	0.98755
2715.12784	0.98796
2713.07404	0.98845
2711.02024	0.98897
2708.96643	0.98938
2706.91263	0.98951
2704.85883	0.98947
2702.80502	0.98977
2700.75122	0.99034
2698.69742	0.99042
2696.64361	0.99009
2694.58981	0.99003
2692.53601	0.99013
2690.48220	0.99020
2688.42840	0.99025
2686.37460	0.99013
2684.32079	0.99016
2682.26699	0.99040
2680.21319	0.99038
2678.15938	0.99018
2676.10558	0.99033
2674.05178	0.99081
2671.99797	0.99105
2669.94417	0.99083
2667.89037	0.99028
2665.83657	0.98967
2663.78276	0.98951
2661.72896	0.98975
2659.67516	0.99014
2657.62135	0.99065
2655.56755	0.99095
2653.51375	0.99090
2651.45994	0.99081
2649.40614	0.99081
2647.35234	0.99090
2645.29853	0.99094
2643.24473	0.99085
2641.19093	0.99115
2639.13712	0.99174
2637.08332	0.99179
2635.02952	0.99140
2632.97571	0.99112
2630.92191	0.99101
2628.86811	0.99085
2626.81430	0.99063
2624.76050	0.99060
2622.70670	0.99089
2620.65289	0.99145
2618.59909	0.99175
2616.54529	0.99128
2614.49149	0.99095
2612.43768	0.99153
2610.38388	0.99209
2608.33008	0.99200
2606.27627	0.99168
2604.22247	0.99141
2602.16867	0.99128
2600.11486	0.99156
2598.06106	0.99216
2596.00726	0.99264
2593.95345	0.99282
2591.89965	0.99261
2589.84585	0.99195
2587.79204	0.99141
2585.73824	0.99138
2583.68444	0.99158
2581.63063	0.99199
2579.57683	0.99251
2577.52303	0.99266
2575.46922	0.99250
2573.41542	0.99255
2571.36162	0.99286
2569.30781	0.99319
2567.25401	0.99350
2565.20021	0.99349
2563.14640	0.99306
2561.09260	0.99271
2559.03880	0.99258
2556.98500	0.99243
2554.93119	0.99245
2552.87739	0.99288
2550.82359	0.99358
2548.76978	0.99395
2546.71598	0.99374
2544.66218	0.99335
2542.60837	0.99289
2540.55457	0.99277
2538.50077	0.99323
2536.44696	0.99365
2534.39316	0.99396
2532.33936	0.99468
2530.28555	0.99529
2528.23175	0.99493
2526.17795	0.99417
2524.12414	0.99378
2522.07034	0.99340
2520.01654	0.99327
2517.96273	0.99380
2515.90893	0.99413
2513.85513	0.99371
2511.80132	0.99330
2509.74752	0.99380
2507.69372	0.99435
2505.63992	0.99402
2503.58611	0.99367
2501.53231	0.99382
2499.47851	0.99375
2497.42470	0.99366
2495.37090	0.99414
2493.31710	0.99425
2491.26329	0.99388
2489.20949	0.99418
2487.15569	0.99500
2485.10188	0.99541
2483.04808	0.99505
2480.99428	0.99436
2478.94047	0.99424
2476.88667	0.99484
2474.83287	0.99546
2472.77906	0.99536
2470.72526	0.99482
2468.67146	0.99484
2466.61765	0.99495
2464.56385	0.99457
2462.51005	0.99462
2460.45624	0.99496
2458.40244	0.99480
2456.34864	0.99447
2454.29483	0.99458
2452.24103	0.99493
2450.18723	0.99503
2448.13343	0.99487
2446.07962	0.99464
2444.02582	0.99469
2441.97202	0.99539
2439.91821	0.99601
2437.86441	0.99544
2435.81061	0.99423
2433.75680	0.99354
2431.70300	0.99359
2429.64920	0.99403
2427.59539	0.99439
2425.54159	0.99465
2423.48779	0.99478
2421.43398	0.99474
2419.38018	0.99486
2417.32638	0.99498
2415.27257	0.99481
2413.21877	0.99437
2411.16497	0.99397
2409.11116	0.99416
2407.05736	0.99507
2405.00356	0.99592
2402.94975	0.99603
2400.89595	0.99566
2398.84215	0.99553
2396.78834	0.99572
2394.73454	0.99584
2392.68074	0.99555
2390.62694	0.99501
2388.57313	0.99497
2386.51933	0.99512
2384.46553	0.99485
2382.41172	0.99469
2380.35792	0.99504
2378.30412	0.99530
2376.25031	0.99474
2374.19651	0.99363
2372.14271	0.99319
2370.08890	0.99404
2368.03510	0.99515
2365.98130	0.99573
2363.92749	0.99576
2361.87369	0.99543
2359.81989	0.99546
2357.76608	0.99550
2355.71228	0.99507
2353.65848	0.99456
2351.60467	0.99428
2349.55087	0.99412
2347.49707	0.99394
2345.44326	0.99381
2343.38946	0.99358
2341.33566	0.99320
2339.28186	0.99343
2337.22805	0.99405
2335.17425	0.99394
2333.12045	0.99320
2331.06664	0.99251
2329.01284	0.99229
2326.95904	0.99243
2324.90523	0.99286
2322.85143	0.99369
2320.79763	0.99413
2318.74382	0.99358
2316.69002	0.99279
2314.63622	0.99253
2312.58241	0.99286
2310.52861	0.99331
2308.47481	0.99326
2306.42100	0.99291
2304.36720	0.99326
2302.31340	0.99431
2300.25959	0.99500
2298.20579	0.99481
2296.15199	0.99463
2294.09818	0.99525
2292.04438	0.99571
2289.99058	0.99547
2287.93677	0.99539
2285.88297	0.99578
2283.82917	0.99613
2281.77537	0.99596
2279.72156	0.99514
2277.66776	0.99450
2275.61396	0.99458
2273.56015	0.99448
2271.50635	0.99426
2269.45255	0.99445
2267.39874	0.99487
2265.34494	0.99521
2263.29114	0.99507
2261.23733	0.99486
2259.18353	0.99482
2257.12973	0.99420
2255.07592	0.99367
2253.02212	0.99394
2250.96832	0.99400
2248.91451	0.99385
2246.86071	0.99434
2244.80691	0.99458
2242.75310	0.99375
2240.69930	0.99300
2238.64550	0.99280
2236.59169	0.99227
2234.53789	0.99176
2232.48409	0.99249
2230.43029	0.99479
2228.37648	0.99640
2226.32268	0.99542
2224.26888	0.99433
2222.21507	0.99496
2220.16127	0.99617
2218.10747	0.99652
2216.05366	0.99591
2213.99986	0.99582
2211.94606	0.99633
2209.89225	0.99641
2207.83845	0.99528
2205.78465	0.99390
2203.73084	0.99360
2201.67704	0.99359
2199.62324	0.99394
2197.56943	0.99403
2195.51563	0.99319
2193.46183	0.99392
2191.40802	0.99665
2189.35422	0.99815
2187.30042	0.99733
2185.24661	0.99698
2183.19281	0.99891
2181.13901	1.00062
2179.08520	1.00013
2177.03140	0.99858
2174.97760	0.99756
2172.92380	0.99729
2170.86999	0.99657
2168.81619	0.99580
2166.76239	0.99640
2164.70858	0.99683
2162.65478	0.99472
2160.60098	0.99342
2158.54717	0.99828
2156.49337	1.00288
2154.43957	1.00051
2152.38576	0.99702
2150.33196	0.99603
2148.27816	0.99552
2146.22435	0.99544
2144.17055	0.99688
2142.11675	0.99860
2140.06294	0.99909
2138.00914	0.99873
2135.95534	0.99869
2133.90153	0.99945
2131.84773	0.99999
2129.79393	0.99933
2127.74012	0.99775
2125.68632	0.99605
2123.63252	0.99459
2121.57871	0.99402
2119.52491	0.99521
2117.47111	0.99654
2115.41731	0.99597
2113.36350	0.99462
2111.30970	0.99386
2109.25590	0.99357
2107.20209	0.99399
2105.14829	0.99505
2103.09449	0.99605
2101.04068	0.99641
2098.98688	0.99600
2096.93308	0.99535
2094.87927	0.99537
2092.82547	0.99612
2090.77167	0.99683
2088.71786	0.99705
2086.66406	0.99669
2084.61026	0.99632
2082.55645	0.99674
2080.50265	0.99789
2078.44885	0.99846
2076.39504	0.99759
2074.34124	0.99685
2072.28744	0.99742
2070.23363	0.99807
2068.17983	0.99736
2066.12603	0.99667
2064.07223	0.99728
2062.01842	0.99713
2059.96462	0.99600
2057.91082	0.99586
2055.85701	0.99642
2053.80321	0.99678
2051.74941	0.99681
2049.69560	0.99624
2047.64180	0.99592
2045.58800	0.99643
2043.53419	0.99666
2041.48039	0.99695
2039.42659	0.99703
2037.37278	0.99546
2035.31898	0.99438
2033.26518	0.99531
2031.21137	0.99686
2029.15757	0.99870
2027.10377	0.99974
2025.04996	0.99927
2022.99616	0.99855
2020.94236	0.99738
2018.88855	0.99571
2016.83475	0.99599
2014.78095	0.99888
2012.72714	1.00133
2010.67334	1.00119
2008.61954	0.99934
2006.56574	0.99799
2004.51193	0.99801
2002.45813	0.99757
2000.40433	0.99619
1998.35052	0.99532
1996.29672	0.99525
1994.24292	0.99524
1992.18911	0.99405
1990.13531	0.99380
1988.08151	0.99635
1986.02770	0.99736
1983.97390	0.99514
1981.92010	0.99352
1979.86629	0.99349
1977.81249	0.99254
1975.75869	0.99092
1973.70488	0.99211
1971.65108	0.99645
1969.59728	0.99984
1967.54347	0.99963
1965.48967	0.99783
1963.43587	0.99747
1961.38206	0.99847
1959.32826	0.99903
1957.27446	0.99882
1955.22066	0.99917
1953.16685	0.99982
1951.11305	0.99874
1949.05925	0.99681
1947.00544	0.99596
1944.95164	0.99570
1942.89784	0.99583
1940.84403	0.99633
1938.79023	0.99691
1936.73643	0.99804
1934.68262	0.99849
1932.62882	0.99684
1930.57502	0.99514
1928.52121	0.99537
1926.46741	0.99621
1924.41361	0.99614
1922.35980	0.99575
1920.30600	0.99622
1918.25220	0.99709
1916.19839	0.99702
1914.14459	0.99633
1912.09079	0.99590
1910.03698	0.99565
1907.98318	0.99519
1905.92938	0.99436
1903.87557	0.99399
1901.82177	0.99492
1899.76797	0.99605
1897.71417	0.99616
1895.66036	0.99605
1893.60656	0.99647
1891.55276	0.99663
1889.49895	0.99611
1887.44515	0.99560
1885.39135	0.99534
1883.33754	0.99523
1881.28374	0.99524
1879.22994	0.99509
1877.17613	0.99493
1875.12233	0.99515
1873.06853	0.99563
1871.01472	0.99630
1868.96092	0.99684
1866.90712	0.99632
1864.85331	0.99535
1862.79951	0.99513
1860.74571	0.99528
1858.69190	0.99497
1856.63810	0.99520
1854.58430	0.99603
1852.53049	0.99583
1850.47669	0.99531
1848.42289	0.99574
1846.36908	0.99635
1844.31528	0.99617
1842.26148	0.99564
1840.20768	0.99559
1838.15387	0.99542
1836.10007	0.99504
1834.04627	0.99494
1831.99246	0.99486
1829.93866	0.99455
1827.88486	0.99422
1825.83105	0.99449
1823.77725	0.99526
1821.72345	0.99565
1819.66964	0.99535
1817.61584	0.99481
1815.56204	0.99451
1813.50823	0.99456
1811.45443	0.99465
1809.40063	0.99442
1807.34682	0.99418
1805.29302	0.99430
1803.23922	0.99456
1801.18541	0.99449
1799.13161	0.99427
1797.07781	0.99419
1795.02400	0.99392
1792.97020	0.99391
1790.91640	0.99407
1788.86260	0.99336
1786.80879	0.99230
1784.75499	0.99154
1782.70119	0.99128
1780.64738	0.99138
1778.59358	0.99130
1776.53978	0.99098
1774.48597	0.99073
1772.43217	0.99050
1770.37837	0.99014
1768.32456	0.98963
1766.27076	0.98925
1764.21696	0.98920
1762.16315	0.98931
1760.10935	0.98909
1758.05555	0.98852
1756.00174	0.98812
1753.94794	0.98784
1751.89414	0.98761
1749.84033	0.98742
1747.78653	0.98660
1745.73273	0.98559
1743.67892	0.98512
1741.62512	0.98503
1739.57132	0.98471
1737.51751	0.98390
1735.46371	0.98324
1733.40991	0.98324
1731.35611	0.98329
1729.30230	0.98277
1727.24850	0.98195
1725.19470	0.98130
1723.14089	0.98072
1721.08709	0.97996
1719.03329	0.97902
1716.97948	0.97823
1714.92568	0.97799
1712.87188	0.97781
1710.81807	0.97760
1708.76427	0.97760
1706.71047	0.97761
1704.65666	0.97754
1702.60286	0.97755
1700.54906	0.97720
1698.49525	0.97654
1696.44145	0.97646
1694.38765	0.97648
1692.33384	0.97606
1690.28004	0.97526
1688.22624	0.97437
1686.17243	0.97382
1684.11863	0.97315
1682.06483	0.97243
1680.01103	0.97231
1677.95722	0.97204
1675.90342	0.97127
1673.84962	0.97081
1671.79581	0.97089
1669.74201	0.97070
1667.68821	0.96986
1665.63440	0.96892
1663.58060	0.96790
1661.52680	0.96700
1659.47299	0.96689
1657.41919	0.96718
1655.36539	0.96726
1653.31158	0.96611
1651.25778	0.96482
1649.20398	0.96480
1647.15017	0.96502
1645.09637	0.96532
1643.04257	0.96563
1640.98876	0.96577
1638.93496	0.96575
1636.88116	0.96549
1634.82735	0.96500
1632.77355	0.96516
1630.71975	0.96566
1628.66594	0.96566
1626.61214	0.96493
1624.55834	0.96427
1622.50454	0.96438
1620.45073	0.96498
1618.39693	0.96568
1616.34313	0.96686
1614.28932	0.96828
1612.23552	0.96953
1610.18172	0.97053
1608.12791	0.97106
1606.07411	0.97155
1604.02031	0.97210
1601.96650	0.97239
1599.91270	0.97265
1597.85890	0.97320
1595.80509	0.97381
1593.75129	0.97424
1591.69749	0.97468
1589.64368	0.97534
1587.58988	0.97601
1585.53608	0.97624
1583.48227	0.97623
1581.42847	0.97668
1579.37467	0.97746
1577.32086	0.97793
1575.26706	0.97809
1573.21326	0.97834
1571.15945	0.97869
1569.10565	0.97906
1567.05185	0.97927
1564.99805	0.97956
1562.94424	0.98027
1560.89044	0.98108
1558.83664	0.98096
1556.78283	0.98036
1554.72903	0.98056
1552.67523	0.98081
1550.62142	0.98082
1548.56762	0.98083
1546.51382	0.98112
1544.46001	0.98153
1542.40621	0.98170
1540.35241	0.98159
1538.29860	0.98164
1536.24480	0.98183
1534.19100	0.98224
1532.13719	0.98280
1530.08339	0.98305
1528.02959	0.98321
1525.97578	0.98351
1523.92198	0.98396
1521.86818	0.98453
1519.81437	0.98482
1517.76057	0.98471
1515.70677	0.98467
1513.65297	0.98461
1511.59916	0.98452
1509.54536	0.98482
1507.49156	0.98522
1505.43775	0.98513
1503.38395	0.98531
1501.33015	0.98546
1499.27634	0.98510
1497.22254	0.98442
1495.16874	0.98406
1493.11493	0.98374
1491.06113	0.98288
1489.00733	0.98194
1486.95352	0.98155
1484.89972	0.98108
1482.84592	0.98014
1480.79211	0.97851
1478.73831	0.97614
1476.68451	0.97329
1474.63070	0.96962
1472.57690	0.96269
1470.52310	0.95347
1468.46929	0.94515
1466.41549	0.93555
1464.36169	0.92391
1462.30788	0.91556
1460.25408	0.91157
1458.20028	0.90854
1456.14648	0.90576
1454.09267	0.90569
1452.03887	0.90792
1449.98507	0.91298
1447.93126	0.92221
1445.87746	0.93339
1443.82366	0.94223
1441.76985	0.94772
1439.71605	0.95021
1437.66225	0.95081
1435.60844	0.95185
1433.55464	0.95555
1431.50084	0.96081
1429.44703	0.96554
1427.39323	0.96826
1425.33943	0.96973
1423.28562	0.97073
1421.23182	0.97145
1419.17802	0.97164
1417.12421	0.97126
1415.07041	0.97131
1413.01661	0.97173
1410.96280	0.97218
1408.90900	0.97269
1406.85520	0.97306
1404.80139	0.97305
1402.74759	0.97298
1400.69379	0.97309
1398.63999	0.97320
1396.58618	0.97290
1394.53238	0.97218
1392.47858	0.97163
1390.42477	0.97094
1388.37097	0.96852
1386.31717	0.96259
1384.26336	0.95251
1382.20956	0.93590
1380.15576	0.91018
1378.10195	0.88121
1376.04815	0.86497
1373.99435	0.87480
1371.94054	0.90163
1369.88674	0.92626
1367.83294	0.94268
1365.77913	0.95076
1363.72533	0.95328
1361.67153	0.95252
1359.61772	0.95086
1357.56392	0.95136
1355.51012	0.95521
1353.45631	0.96064
1351.40251	0.96534
1349.34871	0.96885
1347.29491	0.97137
1345.24110	0.97295
1343.18730	0.97401
1341.13350	0.97488
1339.07969	0.97543
1337.02589	0.97551
1334.97209	0.97505
1332.91828	0.97442
1330.86448	0.97395
1328.81068	0.97381
1326.75687	0.97411
1324.70307	0.97454
1322.64927	0.97473
1320.59546	0.97491
1318.54166	0.97546
1316.48786	0.97618
1314.43405	0.97681
1312.38025	0.97715
1310.32645	0.97684
1308.27264	0.97594
1306.21884	0.97509
1304.16504	0.97454
1302.11123	0.97423
1300.05743	0.97400
1298.00363	0.97367
1295.94982	0.97326
1293.89602	0.97317
1291.84222	0.97375
1289.78842	0.97459
1287.73461	0.97517
1285.68081	0.97532
1283.62701	0.97517
1281.57320	0.97503
1279.51940	0.97476
1277.46560	0.97426
1275.41179	0.97386
1273.35799	0.97376
1271.30419	0.97367
1269.25038	0.97312
1267.19658	0.97229
1265.14278	0.97175
1263.08897	0.97142
1261.03517	0.97077
1258.98137	0.96967
1256.92756	0.96864
1254.87376	0.96839
1252.81996	0.96896
1250.76615	0.96961
1248.71235	0.96974
1246.65855	0.96944
1244.60474	0.96931
1242.55094	0.96937
1240.49714	0.96919
1238.44334	0.96869
1236.38953	0.96813
1234.33573	0.96764
1232.28193	0.96702
1230.22812	0.96641
1228.17432	0.96610
1226.12052	0.96574
1224.06671	0.96479
1222.01291	0.96365
1219.95911	0.96292
1217.90530	0.96238
1215.85150	0.96202
1213.79770	0.96186
1211.74389	0.96154
1209.69009	0.96100
1207.63629	0.96029
1205.58248	0.95955
1203.52868	0.95900
1201.47488	0.95850
1199.42107	0.95790
1197.36727	0.95712
1195.31347	0.95592
1193.25966	0.95449
1191.20586	0.95308
1189.15206	0.95144
1187.09825	0.94948
1185.04445	0.94740
1182.99065	0.94525
1180.93685	0.94273
1178.88304	0.93975
1176.82924	0.93649
1174.77544	0.93261
1172.72163	0.92790
1170.66783	0.92288
1168.61403	0.91825
1166.56022	0.91486
1164.50642	0.91336
1162.45262	0.91299
1160.39881	0.91236
1158.34501	0.91133
1156.29121	0.91018
1154.23740	0.90910
1152.18360	0.90847
1150.12980	0.90811
1148.07599	0.90755
1146.02219	0.90703
1143.96839	0.90707
1141.91458	0.90725
1139.86078	0.90716
1137.80698	0.90724
1135.75317	0.90721
1133.69937	0.90631
1131.64557	0.90457
1129.59176	0.90220
1127.53796	0.89958
1125.48416	0.89718
1123.43036	0.89471
1121.37655	0.89184
1119.32275	0.88867
1117.26895	0.88588
1115.21514	0.88400
1113.16134	0.88231
1111.10754	0.88013
1109.05373	0.87780
1106.99993	0.87558
1104.94613	0.87358
1102.89232	0.87206
1100.83852	0.87100
1098.78472	0.87028
1096.73091	0.87006
1094.67711	0.87028
1092.62331	0.87040
1090.56950	0.87009
1088.51570	0.86972
1086.46190	0.86961
1084.40809	0.86976
1082.35429	0.87022
1080.30049	0.87061
1078.24668	0.87021
1076.19288	0.86918
1074.13908	0.86818
1072.08528	0.86733
1070.03147	0.86653
1067.97767	0.86560
1065.92387	0.86418
1063.87006	0.86231
1061.81626	0.86017
1059.76246	0.85782
1057.70865	0.85547
1055.65485	0.85305
1053.60105	0.85010
1051.54724	0.84666
1049.49344	0.84306
1047.43964	0.83972
1045.38583	0.83685
1043.33203	0.83387
1041.27823	0.83058
1039.22442	0.82775
1037.17062	0.82566
1035.11682	0.82419
1033.06301	0.82371
1031.00921	0.82424
1028.95541	0.82560
1026.90160	0.82764
1024.84780	0.82971
1022.79400	0.83144
1020.74019	0.83281
1018.68639	0.83377
1016.63259	0.83449
1014.57879	0.83504
1012.52498	0.83537
1010.47118	0.83569
1008.41738	0.83636
1006.36357	0.83738
1004.30977	0.83845
1002.25597	0.83907
1000.20216	0.83943
998.14836	0.84150
996.09456	0.84731
994.04075	0.85568
991.98695	0.86375
989.93315	0.87068
987.87934	0.87687
985.82554	0.88242
983.77174	0.88705
981.71793	0.89036
979.66413	0.89205
977.61033	0.89223
975.55652	0.89156
973.50272	0.89210
971.44892	0.89675
969.39511	0.90481
967.34131	0.91216
965.28751	0.91744
963.23371	0.92170
961.17990	0.92492
959.12610	0.92701
957.07230	0.92860
955.01849	0.93030
952.96469	0.93219
950.91089	0.93393
948.85708	0.93503
946.80328	0.93528
944.74948	0.93527
942.69567	0.93550
940.64187	0.93604
938.58807	0.93689
936.53426	0.93778
934.48046	0.93863
932.42666	0.93965
930.37285	0.94065
928.31905	0.94111
926.26525	0.94114
924.21144	0.94107
922.15764	0.94097
920.10384	0.94055
918.05003	0.93936
915.99623	0.93819
913.94243	0.93778
911.88862	0.93792
909.83482	0.93883
907.78102	0.94020
905.72722	0.94121
903.67341	0.94133
901.61961	0.94062
899.56581	0.94058
897.51200	0.94304
895.45820	0.94741
893.40440	0.95092
891.35059	0.95290
889.29679	0.95470
887.24299	0.95611
885.18918	0.95680
883.13538	0.95732
881.08158	0.95776
879.02777	0.95799
876.97397	0.95803
874.92017	0.95841
872.86636	0.95949
870.81256	0.96026
868.75876	0.96007
866.70495	0.95986
864.65115	0.96035
862.59735	0.96091
860.54354	0.96108
858.48974	0.96151
856.43594	0.96294
854.38213	0.96436
852.32833	0.96418
850.27453	0.96327
848.22073	0.96256
846.16692	0.96068
844.11312	0.95658
842.05932	0.95248
840.00551	0.95247
837.95171	0.95620
835.89791	0.95955
833.84410	0.96127
831.79030	0.96209
829.73650	0.96209
827.68269	0.96178
825.62889	0.96164
823.57509	0.96137
821.52128	0.96085
819.46748	0.96005
817.41368	0.95915
815.35987	0.95789
813.30607	0.95518
811.25227	0.95104
809.19846	0.94738
807.14466	0.94617
805.09086	0.94713
803.03705	0.94869
800.98325	0.94994
798.92945	0.95087
796.87565	0.95185
794.82184	0.95289
792.76804	0.95342
790.71424	0.95347
788.66043	0.95329
786.60663	0.95293
784.55283	0.95291
782.49902	0.95318
780.44522	0.95315
778.39142	0.95313
776.33761	0.95381
774.28381	0.95472
772.23001	0.95501
770.17620	0.95486
768.12240	0.95452
766.06860	0.95416
764.01479	0.95381
761.96099	0.95332
759.90719	0.95291
757.85338	0.95256
755.79958	0.95225
753.74578	0.95187
751.69197	0.95145
749.63817	0.95143
747.58437	0.95166
745.53056	0.95206
743.47676	0.95299
741.42296	0.95384
739.36916	0.95410
737.31535	0.95410
735.26155	0.95411
733.20775	0.95401
731.15394	0.95352
729.10014	0.95285
727.04634	0.95245
724.99253	0.95265
722.93873	0.95308
720.88493	0.95278
718.83112	0.95150
716.77732	0.94990
714.72352	0.94885
712.66971	0.94856
710.61591	0.94816
708.56211	0.94714
706.50830	0.94570
704.45450	0.94377
702.40070	0.94164
700.34689	0.93972
698.29309	0.93806
696.23929	0.93696
694.18548	0.93654
692.13168	0.93672
690.07788	0.93729
688.02408	0.93733
685.97027	0.93700
683.91647	0.93692
681.86267	0.93599
679.80886	0.93435
677.75506	0.93388
675.70126	0.93406
673.64745	0.93362
671.59365	0.93307
669.53985	0.93262
667.48604	0.93313
665.43224	0.93532
663.37844	0.93732
661.32463	0.93806
659.27083	0.93769
657.21703	0.93721
655.16322	0.93691
653.10942	0.93654
651.05562	0.93617
649.00181	0.93577
646.94801	0.93509
644.89421	0.93456
642.84040	0.93433
640.78660	0.93394
638.73280	0.93368
636.67899	0.93405
634.62519	0.93454
632.57139	0.93414
630.51759	0.93326
628.46378	0.93264
626.40998	0.93164
624.35618	0.93082
622.30237	0.93086
620.24857	0.93067
618.19477	0.93027
616.14096	0.92972
614.08716	0.92849
612.03336	0.92680
609.97955	0.92444
607.92575	0.92181
605.87195	0.92048
603.81814	0.92075
601.76434	0.92157
599.71054	0.92183
597.65673	0.92148
595.60293	0.92118
593.54913	0.92096
591.49532	0.92011
589.44152	0.91898
587.38772	0.91891
585.33391	0.91986
583.28011	0.92057
581.22631	0.91969
579.17250	0.91804
577.11870	0.91691
575.06490	0.91551
573.01110	0.91454
570.95729	0.91401
568.90349	0.91261
566.84969	0.91118
564.79588	0.91016
562.74208	0.90929
560.68828	0.90879
558.63447	0.90887
556.58067	0.90878
554.52687	0.90689
552.47306	0.90444
550.41926	0.90293
548.36546	0.90139
546.31165	0.89940
544.25785	0.89646
542.20405	0.89297
540.15024	0.89020
538.09644	0.88802
536.04264	0.88737
533.98883	0.88871
531.93503	0.88914
529.88123	0.88897
527.82742	0.89106
525.77362	0.89387
523.71982	0.89504
521.66602	0.89510
519.61221	0.89514
517.55841	0.89627
515.50461	0.89798
513.45080	0.89889
511.39700	0.89928
509.34320	0.90004
507.28939	0.90159
505.23559	0.90315
503.18179	0.90341
501.12798	0.90359
499.07418	0.90521
497.02038	0.90599
494.96657	0.90383
492.91277	0.90184
490.85897	0.90248
488.80516	0.90295
486.75136	0.90180
484.69756	0.89968
482.64375	0.89658
480.58995	0.89256
478.53615	0.88745
476.48234	0.88194
474.42854	0.87718
472.37474	0.87109
470.32093	0.86327
468.26713	0.85971
466.21333	0.86304
464.15953	0.86774
462.10572	0.86908
460.05192	0.87027
457.99812	0.87448
455.94431	0.87785
453.89051	0.87954
451.83671	0.88376
449.78290	0.88751
447.72910	0.88795
445.67530	0.88902
443.62149	0.89082
441.56769	0.89104
439.51389	0.88923
437.46008	0.88654
435.40628	0.88730
433.35248	0.89140
431.29867	0.89309
429.24487	0.89137
427.19107	0.89192
425.13726	0.89440
423.08346	0.89144
421.02966	0.88496
418.97585	0.88616
416.92205	0.89828
414.86825	0.90945
412.81445	0.91296
410.76064	0.90683
408.70684	0.90361
406.65304	0.91049
404.59923	0.91452
402.54543	0.90988
400.49163	0.90666
398.43782	0.91510
