3996.70104	0.94976
3994.64724	0.94921
3992.59344	0.94861
3990.53964	0.94857
3988.48583	0.94913
3986.43203	0.94950
3984.37823	0.94957
3982.32442	0.94983
3980.27062	0.95024
3978.21682	0.95038
3976.16301	0.95013
3974.10921	0.94981
3972.05541	0.94970
3970.00160	0.94980
3967.94780	0.94971
3965.89400	0.94928
3963.84019	0.94903
3961.78639	0.94915
3959.73259	0.94901
3957.67878	0.94854
3955.62498	0.94827
3953.57118	0.94847
3951.51737	0.94870
3949.46357	0.94865
3947.40977	0.94878
3945.35596	0.94932
3943.30216	0.94966
3941.24836	0.94953
3939.19455	0.94936
3937.14075	0.94928
3935.08695	0.94963
3933.03315	0.95072
3930.97934	0.95145
3928.92554	0.95107
3926.87174	0.95021
3924.81793	0.94963
3922.76413	0.94978
3920.71033	0.94984
3918.65652	0.94937
3916.60272	0.94932
3914.54892	0.94971
3912.49511	0.94959
3910.44131	0.94939
3908.38751	0.94983
3906.33370	0.95016
3904.27990	0.94990
3902.22610	0.94992
3900.17229	0.95026
3898.11849	0.95017
3896.06469	0.94993
3894.01088	0.94968
3891.95708	0.94932
3889.90328	0.94934
3887.84947	0.94966
3885.79567	0.94980
3883.74187	0.95003
3881.68807	0.95010
3879.63426	0.94974
3877.58046	0.94989
3875.52666	0.95039
3873.47285	0.95049
3871.41905	0.95023
3869.36525	0.94953
3867.31144	0.94868
3865.25764	0.94841
3863.20384	0.94888
3861.15003	0.94942
3859.09623	0.94985
3857.04243	0.95083
3854.98862	0.95228
3852.93482	0.95263
3850.88102	0.95206
3848.82721	0.95197
3846.77341	0.95172
3844.71961	0.95104
3842.66580	0.95056
3840.61200	0.95078
3838.55820	0.95105
3836.50439	0.95080
3834.45059	0.95064
3832.39679	0.95070
3830.34298	0.95069
3828.28918	0.95064
3826.23538	0.95054
3824.18158	0.95054
3822.12777	0.95071
3820.07397	0.95035
3818.02017	0.94949
3815.96636	0.94931
3813.91256	0.94979
3811.85876	0.95007
3809.80495	0.95025
3807.75115	0.95036
3805.69735	0.95022
3803.64354	0.95017
3801.58974	0.95066
3799.53594	0.95111
3797.48213	0.95067
3795.42833	0.95005
3793.37453	0.94990
3791.32072	0.95002
3789.26692	0.95032
3787.21312	0.95051
3785.15931	0.95045
3783.10551	0.95080
3781.05171	0.95127
3778.99790	0.95106
3776.94410	0.95083
3774.89030	0.95083
3772.83650	0.95067
3770.78269	0.95027
3768.72889	0.94957
3766.67509	0.94949
3764.62128	0.95039
3762.56748	0.95102
3760.51368	0.95104
3758.45987	0.95077
3756.40607	0.95068
3754.35227	0.95119
3752.29846	0.95166
3750.24466	0.95176
3748.19086	0.95232
3746.13705	0.95257
3744.08325	0.95215
3742.02945	0.95209
3739.97564	0.95241
3737.92184	0.95238
3735.86804	0.95185
3733.81423	0.95188
3731.76043	0.95207
3729.70663	0.95159
3727.65282	0.95126
3725.59902	0.95183
3723.54522	0.95207
3721.49141	0.95085
3719.43761	0.94983
3717.38381	0.94988
3715.33001	0.94978
3713.27620	0.94905
3711.22240	0.94798
3709.16860	0.94708
3707.11479	0.94626
3705.06099	0.94497
3703.00719	0.94336
3700.95338	0.94206
3698.89958	0.94114
3696.84578	0.94064
3694.79197	0.94127
3692.73817	0.94253
3690.68437	0.94357
3688.63056	0.94447
3686.57676	0.94404
3684.52296	0.94288
3682.46915	0.94257
3680.41535	0.94284
3678.36155	0.94303
3676.30774	0.94348
3674.25394	0.94414
3672.20014	0.94404
3670.14633	0.94288
3668.09253	0.94133
3666.03873	0.94033
3663.98492	0.93974
3661.93112	0.93955
3659.87732	0.93922
3657.82352	0.93842
3655.76971	0.93825
3653.71591	0.93898
3651.66211	0.93931
3649.60830	0.93835
3647.55450	0.93638
3645.50070	0.93484
3643.44689	0.93420
3641.39309	0.93428
3639.33929	0.93471
3637.28548	0.93481
3635.23168	0.93440
3633.17788	0.93404
3631.12407	0.93397
3629.07027	0.93317
3627.01647	0.93136
3624.96266	0.92999
3622.90886	0.92918
3620.85506	0.92887
3618.80125	0.92878
3616.74745	0.92885
3614.69365	0.92939
3612.63984	0.93020
3610.58604	0.93077
3608.53224	0.93076
3606.47844	0.93045
3604.42463	0.93060
3602.37083	0.93083
3600.31703	0.93061
3598.26322	0.93070
3596.20942	0.93127
3594.15562	0.93148
3592.10181	0.93157
3590.04801	0.93173
3587.99421	0.93136
3585.94040	0.93105
3583.88660	0.93121
3581.83280	0.93081
3579.77899	0.93014
3577.72519	0.93032
3575.67139	0.93081
3573.61758	0.93066
3571.56378	0.93042
3569.50998	0.93025
3567.45617	0.92978
3565.40237	0.92959
3563.34857	0.92969
3561.29476	0.92951
3559.24096	0.92906
3557.18716	0.92842
3555.13335	0.92788
3553.07955	0.92787
3551.02575	0.92820
3548.97195	0.92811
3546.91814	0.92742
3544.86434	0.92673
3542.81054	0.92664
3540.75673	0.92696
3538.70293	0.92694
3536.64913	0.92660
3534.59532	0.92674
3532.54152	0.92727
3530.48772	0.92749
3528.43391	0.92742
3526.38011	0.92754
3524.32631	0.92767
3522.27250	0.92752
3520.21870	0.92729
3518.16490	0.92726
3516.11109	0.92743
3514.05729	0.92752
3512.00349	0.92772
3509.94968	0.92818
3507.89588	0.92825
3505.84208	0.92784
3503.78827	0.92784
3501.73447	0.92852
3499.68067	0.92900
3497.62687	0.92900
3495.57306	0.92870
3493.51926	0.92827
3491.46546	0.92808
3489.41165	0.92788
3487.35785	0.92738
3485.30405	0.92720
3483.25024	0.92754
3481.19644	0.92764
3479.14264	0.92744
3477.08883	0.92732
3475.03503	0.92723
3472.98123	0.92719
3470.92742	0.92713
3468.87362	0.92688
3466.81982	0.92643
3464.76601	0.92621
3462.71221	0.92678
3460.65841	0.92741
3458.60460	0.92719
3456.55080	0.92646
3454.49700	0.92594
3452.44319	0.92593
3450.38939	0.92598
3448.33559	0.92556
3446.28178	0.92496
3444.22798	0.92512
3442.17418	0.92576
3440.12038	0.92582
3438.06657	0.92544
3436.01277	0.92525
3433.95897	0.92532
3431.90516	0.92510
3429.85136	0.92477
3427.79756	0.92509
3425.74375	0.92559
3423.68995	0.92541
3421.63615	0.92451
3419.58234	0.92354
3417.52854	0.92286
3415.47474	0.92255
3413.42093	0.92266
3411.36713	0.92287
3409.31333	0.92271
3407.25952	0.92201
3405.20572	0.92146
3403.15192	0.92167
3401.09811	0.92220
3399.04431	0.92255
3396.99051	0.92264
3394.93670	0.92261
3392.88290	0.92254
3390.82910	0.92233
3388.77529	0.92235
3386.72149	0.92308
3384.66769	0.92399
3382.61389	0.92422
3380.56008	0.92388
3378.50628	0.92369
3376.45248	0.92389
3374.39867	0.92414
3372.34487	0.92416
3370.29107	0.92421
3368.23726	0.92443
3366.18346	0.92447
3364.12966	0.92419
3362.07585	0.92390
3360.02205	0.92403
3357.96825	0.92447
3355.91444	0.92491
3353.86064	0.92540
3351.80684	0.92561
3349.75303	0.92551
3347.69923	0.92558
3345.64543	0.92586
3343.59162	0.92578
3341.53782	0.92540
3339.48402	0.92539
3337.43021	0.92563
3335.37641	0.92566
3333.32261	0.92569
3331.26881	0.92609
3329.21500	0.92633
3327.16120	0.92607
3325.10740	0.92598
3323.05359	0.92626
3320.99979	0.92647
3318.94599	0.92655
3316.89218	0.92674
3314.83838	0.92699
3312.78458	0.92684
3310.73077	0.92624
3308.67697	0.92587
3306.62317	0.92610
3304.56936	0.92692
3302.51556	0.92780
3300.46176	0.92801
3298.40795	0.92772
3296.35415	0.92743
3294.30035	0.92722
3292.24654	0.92720
3290.19274	0.92714
3288.13894	0.92694
3286.08513	0.92719
3284.03133	0.92782
3281.97753	0.92821
3279.92372	0.92806
3277.86992	0.92756
3275.81612	0.92750
3273.76232	0.92779
3271.70851	0.92800
3269.65471	0.92847
3267.60091	0.92891
3265.54710	0.92905
3263.49330	0.92920
3261.43950	0.92955
3259.38569	0.92976
3257.33189	0.92954
3255.27809	0.92918
3253.22428	0.92885
3251.17048	0.92865
3249.11668	0.92884
3247.06287	0.92935
3245.00907	0.92981
3242.95527	0.93012
3240.90146	0.93040
3238.84766	0.93070
3236.79386	0.93116
3234.74005	0.93152
3232.68625	0.93147
3230.63245	0.93128
3228.57864	0.93113
3226.52484	0.93092
3224.47104	0.93077
3222.41724	0.93090
3220.36343	0.93104
3218.30963	0.93094
3216.25583	0.93107
3214.20202	0.93190
3212.14822	0.93280
3210.09442	0.93298
3208.04061	0.93309
3205.98681	0.93331
3203.93301	0.93290
3201.87920	0.93230
3199.82540	0.93238
3197.77160	0.93284
3195.71779	0.93302
3193.66399	0.93290
3191.61019	0.93306
3189.55638	0.93351
3187.50258	0.93375
3185.44878	0.93397
3183.39497	0.93425
3181.34117	0.93441
3179.28737	0.93440
3177.23356	0.93429
3175.17976	0.93442
3173.12596	0.93499
3171.07215	0.93576
3169.01835	0.93614
3166.96455	0.93593
3164.91075	0.93579
3162.85694	0.93619
3160.80314	0.93669
3158.74934	0.93666
3156.69553	0.93624
3154.64173	0.93605
3152.58793	0.93619
3150.53412	0.93643
3148.48032	0.93672
3146.42652	0.93690
3144.37271	0.93711
3142.31891	0.93747
3140.26511	0.93766
3138.21130	0.93768
3136.15750	0.93785
3134.10370	0.93791
3132.04989	0.93793
3129.99609	0.93819
3127.94229	0.93858
3125.88848	0.93910
3123.83468	0.93967
3121.78088	0.93981
3119.72707	0.93961
3117.67327	0.93960
3115.61947	0.93973
3113.56566	0.93977
3111.51186	0.93955
3109.45806	0.93889
3107.40426	0.93822
3105.35045	0.93800
3103.29665	0.93812
3101.24285	0.93841
3099.18904	0.93864
3097.13524	0.93848
3095.08144	0.93820
3093.02763	0.93783
3090.97383	0.93697
3088.92003	0.93578
3086.86622	0.93440
3084.81242	0.93266
3082.75862	0.93127
3080.70481	0.93114
3078.65101	0.93215
3076.59721	0.93351
3074.54340	0.93459
3072.48960	0.93516
3070.43580	0.93499
3068.38199	0.93384
3066.32819	0.93208
3064.27439	0.93033
3062.22058	0.92874
3060.16678	0.92760
3058.11298	0.92767
3056.05918	0.92895
3054.00537	0.93076
3051.95157	0.93261
3049.89777	0.93396
3047.84396	0.93455
3045.79016	0.93467
3043.73636	0.93480
3041.68255	0.93512
3039.62875	0.93519
3037.57495	0.93438
3035.52114	0.93225
3033.46734	0.92877
3031.41354	0.92422
3029.35973	0.91933
3027.30593	0.91522
3025.25213	0.91312
3023.19832	0.91404
3021.14452	0.91791
3019.09072	0.92313
3017.03691	0.92766
3014.98311	0.93101
3012.92931	0.93353
3010.87550	0.93520
3008.82170	0.93604
3006.76790	0.93609
3004.71409	0.93567
3002.66029	0.93538
3000.60649	0.93562
2998.55269	0.93652
2996.49888	0.93776
2994.44508	0.93874
2992.39128	0.93950
2990.33747	0.94034
2988.28367	0.94090
2986.22987	0.94112
2984.17606	0.94156
2982.12226	0.94202
2980.06846	0.94207
2978.01465	0.94187
2975.96085	0.94170
2973.90705	0.94170
2971.85324	0.94163
2969.79944	0.94147
2967.74564	0.94167
2965.69183	0.94221
2963.63803	0.94234
2961.58423	0.94152
2959.53042	0.94054
2957.47662	0.94019
2955.42282	0.93980
2953.36901	0.93890
2951.31521	0.93813
2949.26141	0.93739
2947.20761	0.93616
2945.15380	0.93433
2943.10000	0.93206
2941.04620	0.92987
2938.99239	0.92778
2936.93859	0.92517
2934.88479	0.92191
2932.83098	0.91856
2930.77718	0.91571
2928.72338	0.91323
2926.66957	0.91069
2924.61577	0.90829
2922.56197	0.90664
2920.50816	0.90591
2918.45436	0.90598
2916.40056	0.90673
2914.34675	0.90784
2912.29295	0.90928
2910.23915	0.91117
2908.18534	0.91340
2906.13154	0.91570
2904.07774	0.91769
2902.02393	0.91961
2899.97013	0.92190
2897.91633	0.92406
2895.86252	0.92543
2893.80872	0.92642
2891.75492	0.92752
2889.70112	0.92848
2887.64731	0.92933
2885.59351	0.93024
2883.53971	0.93107
2881.48590	0.93175
2879.43210	0.93238
2877.37830	0.93314
2875.32449	0.93407
2873.27069	0.93488
2871.21689	0.93548
2869.16308	0.93578
2867.10928	0.93561
2865.05548	0.93528
2863.00167	0.93488
2860.94787	0.93418
2858.89407	0.93310
2856.84026	0.93177
2854.78646	0.93037
2852.73266	0.92904
2850.67885	0.92814
2848.62505	0.92792
2846.57125	0.92824
2844.51744	0.92905
2842.46364	0.93057
2840.40984	0.93278
2838.35603	0.93533
2836.30223	0.93747
2834.24843	0.93871
2832.19463	0.93929
2830.14082	0.93993
2828.08702	0.94065
2826.03322	0.94099
2823.97941	0.94128
2821.92561	0.94156
2819.87181	0.94181
2817.81800	0.94244
2815.76420	0.94297
2813.71040	0.94289
2811.65659	0.94280
2809.60279	0.94301
2807.54899	0.94311
2805.49518	0.94310
2803.44138	0.94339
2801.38758	0.94398
2799.33377	0.94430
2797.27997	0.94404
2795.22617	0.94371
2793.17236	0.94374
2791.11856	0.94396
2789.06476	0.94435
2787.01095	0.94484
2784.95715	0.94501
2782.90335	0.94495
2780.84955	0.94483
2778.79574	0.94463
2776.74194	0.94478
2774.68814	0.94525
2772.63433	0.94555
2770.58053	0.94553
2768.52673	0.94518
2766.47292	0.94491
2764.41912	0.94532
2762.36532	0.94603
2760.31151	0.94621
2758.25771	0.94606
2756.20391	0.94607
2754.15010	0.94602
2752.09630	0.94595
2750.04250	0.94613
2747.98869	0.94630
2745.93489	0.94623
2743.88109	0.94601
2741.82728	0.94573
2739.77348	0.94553
2737.71968	0.94554
2735.66587	0.94576
2733.61207	0.94606
2731.55827	0.94636
2729.50446	0.94674
2727.45066	0.94685
2725.39686	0.94660
2723.34306	0.94650
2721.28925	0.94680
2719.23545	0.94731
2717.18165	0.94759
2715.12784	0.94733
2713.07404	0.94668
2711.02024	0.94623
2708.96643	0.94622
2706.91263	0.94636
2704.85883	0.94650
2702.80502	0.94674
2700.75122	0.94691
2698.69742	0.94697
2696.64361	0.94712
2694.58981	0.94734
2692.53601	0.94733
2690.48220	0.94704
2688.42840	0.94676
2686.37460	0.94684
2684.32079	0.94743
2682.26699	0.94796
2680.21319	0.94808
2678.15938	0.94797
2676.10558	0.94779
2674.05178	0.94764
2671.99797	0.94753
2669.94417	0.94758
2667.89037	0.94771
2665.83657	0.94750
2663.78276	0.94712
2661.72896	0.94714
2659.67516	0.94729
2657.62135	0.94704
2655.56755	0.94658
2653.51375	0.94642
2651.45994	0.94674
2649.40614	0.94721
2647.35234	0.94738
2645.29853	0.94735
2643.24473	0.94723
2641.19093	0.94700
2639.13712	0.94703
2637.08332	0.94756
2635.02952	0.94798
2632.97571	0.94794
2630.92191	0.94774
2628.86811	0.94753
2626.81430	0.94742
2624.76050	0.94757
2622.70670	0.94798
2620.65289	0.94835
2618.59909	0.94857
2616.54529	0.94882
2614.49149	0.94912
2612.43768	0.94940
2610.38388	0.94966
2608.33008	0.94966
2606.27627	0.94936
2604.22247	0.94900
2602.16867	0.94883
2600.11486	0.94886
2598.06106	0.94892
2596.00726	0.94897
2593.95345	0.94904
2591.89965	0.94927
2589.84585	0.94978
2587.79204	0.95023
2585.73824	0.95054
2583.68444	0.95075
2581.63063	0.95055
2579.57683	0.95016
2577.52303	0.95023
2575.46922	0.95065
2573.41542	0.95090
2571.36162	0.95057
2569.30781	0.94988
2567.25401	0.94969
2565.20021	0.95011
2563.14640	0.95036
2561.09260	0.95009
2559.03880	0.95003
2556.98500	0.95043
2554.93119	0.95065
2552.87739	0.95052
2550.82359	0.95047
2548.76978	0.95081
2546.71598	0.95128
2544.66218	0.95142
2542.60837	0.95118
2540.55457	0.95104
2538.50077	0.95098
2536.44696	0.95097
2534.39316	0.95124
2532.33936	0.95158
2530.28555	0.95166
2528.23175	0.95113
2526.17795	0.95011
2524.12414	0.94941
2522.07034	0.94987
2520.01654	0.95084
2517.96273	0.95124
2515.90893	0.95147
2513.85513	0.95174
2511.80132	0.95162
2509.74752	0.95139
2507.69372	0.95152
2505.63992	0.95187
2503.58611	0.95169
2501.53231	0.95091
2499.47851	0.95061
2497.42470	0.95119
2495.37090	0.95186
2493.31710	0.95205
2491.26329	0.95197
2489.20949	0.95197
2487.15569	0.95176
2485.10188	0.95133
2483.04808	0.95113
2480.99428	0.95137
2478.94047	0.95180
2476.88667	0.95177
2474.83287	0.95146
2472.77906	0.95159
2470.72526	0.95187
2468.67146	0.95164
2466.61765	0.95128
2464.56385	0.95153
2462.51005	0.95210
2460.45624	0.95237
2458.40244	0.95219
2456.34864	0.95183
2454.29483	0.95155
2452.24103	0.95135
2450.18723	0.95138
2448.13343	0.95194
2446.07962	0.95230
2444.02582	0.95197
2441.97202	0.95184
2439.91821	0.95200
2437.86441	0.95193
2435.81061	0.95149
2433.75680	0.95109
2431.70300	0.95132
2429.64920	0.95185
2427.59539	0.95228
2425.54159	0.95270
2423.48779	0.95324
2421.43398	0.95359
2419.38018	0.95334
2417.32638	0.95274
2415.27257	0.95252
2413.21877	0.95276
2411.16497	0.95283
2409.11116	0.95277
2407.05736	0.95281
2405.00356	0.95264
2402.94975	0.95236
2400.89595	0.95237
2398.84215	0.95234
2396.78834	0.95239
2394.73454	0.95274
2392.68074	0.95296
2390.62694	0.95303
2388.57313	0.95319
2386.51933	0.95321
2384.46553	0.95281
2382.41172	0.95247
2380.35792	0.95259
2378.30412	0.95273
2376.25031	0.95292
2374.19651	0.95312
2372.14271	0.95264
2370.08890	0.95218
2368.03510	0.95314
2365.98130	0.95494
2363.92749	0.95538
2361.87369	0.95397
2359.81989	0.95205
2357.76608	0.95103
2355.71228	0.95198
2353.65848	0.95363
2351.60467	0.95362
2349.55087	0.95243
2347.49707	0.95179
2345.44326	0.95229
2343.38946	0.95327
2341.33566	0.95388
2339.28186	0.95384
2337.22805	0.95301
2335.17425	0.95178
2333.12045	0.95140
2331.06664	0.95185
2329.01284	0.95187
2326.95904	0.95094
2324.90523	0.94991
2322.85143	0.95024
2320.79763	0.95166
2318.74382	0.95207
2316.69002	0.95117
2314.63622	0.95042
2312.58241	0.95046
2310.52861	0.95103
2308.47481	0.95168
2306.42100	0.95221
2304.36720	0.95285
2302.31340	0.95351
2300.25959	0.95357
2298.20579	0.95290
2296.15199	0.95241
2294.09818	0.95250
2292.04438	0.95219
2289.99058	0.95158
2287.93677	0.95169
2285.88297	0.95215
2283.82917	0.95265
2281.77537	0.95367
2279.72156	0.95425
2277.66776	0.95368
2275.61396	0.95315
2273.56015	0.95263
2271.50635	0.95179
2269.45255	0.95149
2267.39874	0.95203
2265.34494	0.95302
2263.29114	0.95321
2261.23733	0.95254
2259.18353	0.95266
2257.12973	0.95384
2255.07592	0.95515
2253.02212	0.95598
2250.96832	0.95583
2248.91451	0.95445
2246.86071	0.95353
2244.80691	0.95427
2242.75310	0.95475
2240.69930	0.95391
2238.64550	0.95286
2236.59169	0.95207
2234.53789	0.95062
2232.48409	0.94907
2230.43029	0.94995
2228.37648	0.95310
2226.32268	0.95492
2224.26888	0.95421
2222.21507	0.95360
2220.16127	0.95443
2218.10747	0.95575
2216.05366	0.95586
2213.99986	0.95509
2211.94606	0.95502
2209.89225	0.95557
2207.83845	0.95597
2205.78465	0.95585
2203.73084	0.95626
2201.67704	0.95684
2199.62324	0.95531
2197.56943	0.95268
2195.51563	0.95128
2193.46183	0.95248
2191.40802	0.95634
2189.35422	0.95818
2187.30042	0.95704
2185.24661	0.95713
2183.19281	0.95677
2181.13901	0.95465
2179.08520	0.95399
2177.03140	0.95587
2174.97760	0.95750
2172.92380	0.95691
2170.86999	0.95656
2168.81619	0.95743
2166.76239	0.95811
2164.70858	0.95792
2162.65478	0.95701
2160.60098	0.95764
2158.54717	0.95911
2156.49337	0.95776
2154.43957	0.95653
2152.38576	0.95837
2150.33196	0.96101
2148.27816	0.96215
2146.22435	0.96238
2144.17055	0.96262
2142.11675	0.96212
2140.06294	0.96102
2138.00914	0.96003
2135.95534	0.95870
2133.90153	0.95758
2131.84773	0.95748
2129.79393	0.95762
2127.74012	0.95777
2125.68632	0.95771
2123.63252	0.95717
2121.57871	0.95695
2119.52491	0.95701
2117.47111	0.95667
2115.41731	0.95562
2113.36350	0.95522
2111.30970	0.95644
2109.25590	0.95670
2107.20209	0.95531
2105.14829	0.95477
2103.09449	0.95542
2101.04068	0.95587
2098.98688	0.95606
2096.93308	0.95657
2094.87927	0.95682
2092.82547	0.95651
2090.77167	0.95641
2088.71786	0.95632
2086.66406	0.95608
2084.61026	0.95641
2082.55645	0.95732
2080.50265	0.95744
2078.44885	0.95630
2076.39504	0.95575
2074.34124	0.95593
2072.28744	0.95601
2070.23363	0.95716
2068.17983	0.95888
2066.12603	0.95933
2064.07223	0.95849
2062.01842	0.95699
2059.96462	0.95620
2057.91082	0.95678
2055.85701	0.95752
2053.80321	0.95768
2051.74941	0.95681
2049.69560	0.95576
2047.64180	0.95651
2045.58800	0.95825
2043.53419	0.95851
2041.48039	0.95767
2039.42659	0.95775
2037.37278	0.95797
2035.31898	0.95817
2033.26518	0.95993
2031.21137	0.96133
2029.15757	0.96082
2027.10377	0.96006
2025.04996	0.95949
2022.99616	0.95952
2020.94236	0.96120
2018.88855	0.96277
2016.83475	0.96189
2014.78095	0.95986
2012.72714	0.95922
2010.67334	0.95893
2008.61954	0.95928
2006.56574	0.96207
2004.51193	0.96282
2002.45813	0.96003
2000.40433	0.95873
1998.35052	0.95982
1996.29672	0.96084
1994.24292	0.96048
1992.18911	0.95883
1990.13531	0.95771
1988.08151	0.95842
1986.02770	0.95967
1983.97390	0.96029
1981.92010	0.96018
1979.86629	0.95860
1977.81249	0.95622
1975.75869	0.95654
1973.70488	0.96001
1971.65108	0.96200
1969.59728	0.96011
1967.54347	0.95768
1965.48967	0.95768
1963.43587	0.95880
1961.38206	0.96009
1959.32826	0.96116
1957.27446	0.96045
1955.22066	0.95929
1953.16685	0.95915
1951.11305	0.95904
1949.05925	0.95874
1947.00544	0.95820
1944.95164	0.95759
1942.89784	0.95707
1940.84403	0.95655
1938.79023	0.95641
1936.73643	0.95653
1934.68262	0.95692
1932.62882	0.95673
1930.57502	0.95549
1928.52121	0.95517
1926.46741	0.95628
1924.41361	0.95706
1922.35980	0.95737
1920.30600	0.95772
1918.25220	0.95798
1916.19839	0.95819
1914.14459	0.95790
1912.09079	0.95774
1910.03698	0.95817
1907.98318	0.95802
1905.92938	0.95715
1903.87557	0.95698
1901.82177	0.95772
1899.76797	0.95819
1897.71417	0.95806
1895.66036	0.95767
1893.60656	0.95714
1891.55276	0.95636
1889.49895	0.95539
1887.44515	0.95464
1885.39135	0.95456
1883.33754	0.95507
1881.28374	0.95519
1879.22994	0.95494
1877.17613	0.95484
1875.12233	0.95465
1873.06853	0.95437
1871.01472	0.95421
1868.96092	0.95431
1866.90712	0.95498
1864.85331	0.95556
1862.79951	0.95527
1860.74571	0.95480
1858.69190	0.95498
1856.63810	0.95555
1854.58430	0.95611
1852.53049	0.95653
1850.47669	0.95671
1848.42289	0.95668
1846.36908	0.95693
1844.31528	0.95748
1842.26148	0.95737
1840.20768	0.95669
1838.15387	0.95658
1836.10007	0.95759
1834.04627	0.95878
1831.99246	0.95891
1829.93866	0.95815
1827.88486	0.95791
1825.83105	0.95829
1823.77725	0.95803
1821.72345	0.95703
1819.66964	0.95614
1817.61584	0.95582
1815.56204	0.95597
1813.50823	0.95611
1811.45443	0.95584
1809.40063	0.95506
1807.34682	0.95436
1805.29302	0.95408
1803.23922	0.95376
1801.18541	0.95354
1799.13161	0.95396
1797.07781	0.95471
1795.02400	0.95522
1792.97020	0.95537
1790.91640	0.95541
1788.86260	0.95570
1786.80879	0.95596
1784.75499	0.95597
1782.70119	0.95595
1780.64738	0.95609
1778.59358	0.95633
1776.53978	0.95655
1774.48597	0.95645
1772.43217	0.95603
1770.37837	0.95612
1768.32456	0.95638
1766.27076	0.95634
1764.21696	0.95643
1762.16315	0.95655
1760.10935	0.95613
1758.05555	0.95552
1756.00174	0.95514
1753.94794	0.95479
1751.89414	0.95449
1749.84033	0.95415
1747.78653	0.95350
1745.73273	0.95308
1743.67892	0.95314
1741.62512	0.95300
1739.57132	0.95242
1737.51751	0.95204
1735.46371	0.95214
1733.40991	0.95247
1731.35611	0.95249
1729.30230	0.95219
1727.24850	0.95198
1725.19470	0.95214
1723.14089	0.95241
1721.08709	0.95260
1719.03329	0.95303
1716.97948	0.95337
1714.92568	0.95316
1712.87188	0.95302
1710.81807	0.95288
1708.76427	0.95239
1706.71047	0.95166
1704.65666	0.95133
1702.60286	0.95128
1700.54906	0.95048
1698.49525	0.94954
1696.44145	0.94912
1694.38765	0.94871
1692.33384	0.94833
1690.28004	0.94731
1688.22624	0.94559
1686.17243	0.94419
1684.11863	0.94328
1682.06483	0.94267
1680.01103	0.94216
1677.95722	0.94166
1675.90342	0.94088
1673.84962	0.93980
1671.79581	0.93900
1669.74201	0.93820
1667.68821	0.93758
1665.63440	0.93732
1663.58060	0.93678
1661.52680	0.93607
1659.47299	0.93574
1657.41919	0.93579
1655.36539	0.93607
1653.31158	0.93600
1651.25778	0.93543
1649.20398	0.93529
1647.15017	0.93544
1645.09637	0.93570
1643.04257	0.93581
1640.98876	0.93569
1638.93496	0.93572
1636.88116	0.93583
1634.82735	0.93558
1632.77355	0.93544
1630.71975	0.93559
1628.66594	0.93573
1626.61214	0.93558
1624.55834	0.93535
1622.50454	0.93541
1620.45073	0.93557
1618.39693	0.93568
1616.34313	0.93600
1614.28932	0.93626
1612.23552	0.93601
1610.18172	0.93492
1608.12791	0.93204
1606.07411	0.92669
1604.02031	0.92003
1601.96650	0.91528
1599.91270	0.91531
1597.85890	0.91949
1595.80509	0.92513
1593.75129	0.92983
1591.69749	0.93275
1589.64368	0.93437
1587.58988	0.93475
1585.53608	0.93394
1583.48227	0.93331
1581.42847	0.93415
1579.37467	0.93609
1577.32086	0.93844
1575.26706	0.94070
1573.21326	0.94203
1571.15945	0.94274
1569.10565	0.94321
1567.05185	0.94346
1564.99805	0.94360
1562.94424	0.94365
1560.89044	0.94351
1558.83664	0.94341
1556.78283	0.94363
1554.72903	0.94373
1552.67523	0.94375
1550.62142	0.94362
1548.56762	0.94333
1546.51382	0.94319
1544.46001	0.94316
1542.40621	0.94332
1540.35241	0.94353
1538.29860	0.94346
1536.24480	0.94346
1534.19100	0.94332
1532.13719	0.94327
1530.08339	0.94384
1528.02959	0.94465
1525.97578	0.94519
1523.92198	0.94538
1521.86818	0.94525
1519.81437	0.94506
1517.76057	0.94521
1515.70677	0.94519
1513.65297	0.94492
1511.59916	0.94483
1509.54536	0.94459
1507.49156	0.94371
1505.43775	0.94310
1503.38395	0.94256
1501.33015	0.94042
1499.27634	0.93404
1497.22254	0.91676
1495.16874	0.89082
1493.11493	0.87484
1491.06113	0.87790
1489.00733	0.89684
1486.95352	0.91342
1484.89972	0.92163
1482.84592	0.92653
1480.79211	0.92985
1478.73831	0.93145
1476.68451	0.93225
1474.63070	0.93307
1472.57690	0.93368
1470.52310	0.93408
1468.46929	0.93424
1466.41549	0.93398
1464.36169	0.93331
1462.30788	0.93247
1460.25408	0.93092
1458.20028	0.92313
1456.14648	0.90020
1454.09267	0.87839
1452.03887	0.86916
1449.98507	0.87196
1447.93126	0.88208
1445.87746	0.89212
1443.82366	0.89992
1441.76985	0.90656
1439.71605	0.91190
1437.66225	0.91656
1435.60844	0.92086
1433.55464	0.92370
1431.50084	0.92585
1429.44703	0.92801
1427.39323	0.93007
1425.33943	0.93182
1423.28562	0.93307
1421.23182	0.93403
1419.17802	0.93467
1417.12421	0.93491
1415.07041	0.93542
1413.01661	0.93638
1410.96280	0.93751
1408.90900	0.93849
1406.85520	0.93927
1404.80139	0.93986
1402.74759	0.94023
1400.69379	0.94072
1398.63999	0.94154
1396.58618	0.94239
1394.53238	0.94278
1392.47858	0.94258
1390.42477	0.94213
1388.37097	0.94151
1386.31717	0.94073
1384.26336	0.94010
1382.20956	0.93956
1380.15576	0.93885
1378.10195	0.93815
1376.04815	0.93776
1373.99435	0.93750
1371.94054	0.93722
1369.88674	0.93723
1367.83294	0.93749
1365.77913	0.93787
1363.72533	0.93831
1361.67153	0.93889
1359.61772	0.93985
1357.56392	0.94076
1355.51012	0.94118
1353.45631	0.94144
1351.40251	0.94180
1349.34871	0.94213
1347.29491	0.94241
1345.24110	0.94279
1343.18730	0.94336
1341.13350	0.94406
1339.07969	0.94437
1337.02589	0.94408
1334.97209	0.94366
1332.91828	0.94339
1330.86448	0.94303
1328.81068	0.94251
1326.75687	0.94225
1324.70307	0.94249
1322.64927	0.94303
1320.59546	0.94349
1318.54166	0.94357
1316.48786	0.94350
1314.43405	0.94356
1312.38025	0.94367
1310.32645	0.94367
1308.27264	0.94373
1306.21884	0.94413
1304.16504	0.94465
1302.11123	0.94496
1300.05743	0.94518
1298.00363	0.94540
1295.94982	0.94561
1293.89602	0.94581
1291.84222	0.94583
1289.78842	0.94567
1287.73461	0.94565
1285.68081	0.94579
1283.62701	0.94569
1281.57320	0.94524
1279.51940	0.94469
1277.46560	0.94442
1275.41179	0.94459
1273.35799	0.94488
1271.30419	0.94500
1269.25038	0.94526
1267.19658	0.94586
1265.14278	0.94630
1263.08897	0.94638
1261.03517	0.94637
1258.98137	0.94619
1256.92756	0.94569
1254.87376	0.94521
1252.81996	0.94492
1250.76615	0.94446
1248.71235	0.94387
1246.65855	0.94338
1244.60474	0.94290
1242.55094	0.94246
1240.49714	0.94236
1238.44334	0.94222
1236.38953	0.94167
1234.33573	0.94117
1232.28193	0.94100
1230.22812	0.94081
1228.17432	0.94034
1226.12052	0.93972
1224.06671	0.93897
1222.01291	0.93797
1219.95911	0.93673
1217.90530	0.93545
1215.85150	0.93420
1213.79770	0.93277
1211.74389	0.93109
1209.69009	0.92915
1207.63629	0.92692
1205.58248	0.92463
1203.52868	0.92247
1201.47488	0.92026
1199.42107	0.91772
1197.36727	0.91500
1195.31347	0.91251
1193.25966	0.91000
1191.20586	0.90718
1189.15206	0.90421
1187.09825	0.90099
1185.04445	0.89721
1182.99065	0.89314
1180.93685	0.88946
1178.88304	0.88675
1176.82924	0.88481
1174.77544	0.88262
1172.72163	0.87983
1170.66783	0.87701
1168.61403	0.87422
1166.56022	0.87131
1164.50642	0.86873
1162.45262	0.86671
1160.39881	0.86486
1158.34501	0.86257
1156.29121	0.85964
1154.23740	0.85685
1152.18360	0.85491
1150.12980	0.85394
1148.07599	0.85371
1146.02219	0.85323
1143.96839	0.85184
1141.91458	0.85001
1139.86078	0.84806
1137.80698	0.84602
1135.75317	0.84407
1133.69937	0.84191
1131.64557	0.83922
1129.59176	0.83617
1127.53796	0.83266
1125.48416	0.82869
1123.43036	0.82439
1121.37655	0.81947
1119.32275	0.81410
1117.26895	0.80896
1115.21514	0.80413
1113.16134	0.79931
1111.10754	0.79477
1109.05373	0.79091
1106.99993	0.78755
1104.94613	0.78433
1102.89232	0.78112
1100.83852	0.77801
1098.78472	0.77519
1096.73091	0.77270
1094.67711	0.77038
1092.62331	0.76834
1090.56950	0.76659
1088.51570	0.76468
1086.46190	0.76253
1084.40809	0.76038
1082.35429	0.75805
1080.30049	0.75531
1078.24668	0.75269
1076.19288	0.75030
1074.13908	0.74724
1072.08528	0.74350
1070.03147	0.73951
1067.97767	0.73545
1065.92387	0.73183
1063.87006	0.72880
1061.81626	0.72575
1059.76246	0.72228
1057.70865	0.71846
1055.65485	0.71374
1053.60105	0.70798
1051.54724	0.70199
1049.49344	0.69555
1047.43964	0.68789
1045.38583	0.67936
1043.33203	0.67048
1041.27823	0.66129
1039.22442	0.65210
1037.17062	0.64329
1035.11682	0.63438
1033.06301	0.62482
1031.00921	0.61526
1028.95541	0.60708
1026.90160	0.60169
1024.84780	0.59921
1022.79400	0.59790
1020.74019	0.59654
1018.68639	0.59507
1016.63259	0.59331
1014.57879	0.59127
1012.52498	0.58926
1010.47118	0.58721
1008.41738	0.58508
1006.36357	0.58335
1004.30977	0.58255
1002.25597	0.58296
1000.20216	0.58496
998.14836	0.58843
996.09456	0.59260
994.04075	0.59686
991.98695	0.60134
989.93315	0.60653
987.87934	0.61230
985.82554	0.61846
983.77174	0.62531
981.71793	0.63300
979.66413	0.64155
977.61033	0.65134
975.55652	0.66239
973.50272	0.67405
971.44892	0.68562
969.39511	0.69639
967.34131	0.70604
965.28751	0.71508
963.23371	0.72412
961.17990	0.73300
959.12610	0.74107
957.07230	0.74818
955.01849	0.75453
952.96469	0.76019
950.91089	0.76527
948.85708	0.76996
946.80328	0.77400
944.74948	0.77734
942.69567	0.78066
940.64187	0.78381
938.58807	0.78657
936.53426	0.78973
934.48046	0.79346
932.42666	0.79702
930.37285	0.79986
928.31905	0.80224
926.26525	0.80460
924.21144	0.80639
922.15764	0.80659
920.10384	0.80547
918.05003	0.80405
915.99623	0.80214
913.94243	0.79963
911.88862	0.79774
909.83482	0.79760
907.78102	0.79929
905.72722	0.80314
903.67341	0.80962
901.61961	0.81811
899.56581	0.82730
897.51200	0.83613
895.45820	0.84370
893.40440	0.84945
891.35059	0.85397
889.29679	0.85803
887.24299	0.86152
885.18918	0.86418
883.13538	0.86606
881.08158	0.86714
879.02777	0.86823
876.97397	0.87047
874.92017	0.87346
872.86636	0.87642
870.81256	0.87929
868.75876	0.88188
866.70495	0.88410
864.65115	0.88624
862.59735	0.88859
860.54354	0.89106
858.48974	0.89278
856.43594	0.89360
854.38213	0.89514
852.32833	0.89774
850.27453	0.89948
848.22073	0.89944
846.16692	0.89788
844.11312	0.89543
842.05932	0.89356
840.00551	0.89301
837.95171	0.89331
835.89791	0.89420
833.84410	0.89502
831.79030	0.89484
829.73650	0.89411
827.68269	0.89396
825.62889	0.89444
823.57509	0.89514
821.52128	0.89646
819.46748	0.89834
817.41368	0.89975
815.35987	0.90035
813.30607	0.89989
811.25227	0.89774
809.19846	0.89405
807.14466	0.88941
805.09086	0.88399
803.03705	0.87840
800.98325	0.87388
798.92945	0.87192
796.87565	0.87270
794.82184	0.87442
792.76804	0.87547
790.71424	0.87561
788.66043	0.87532
786.60663	0.87464
784.55283	0.87264
782.49902	0.86903
780.44522	0.86475
778.39142	0.86058
776.33761	0.85681
774.28381	0.85282
772.23001	0.84717
770.17620	0.83931
768.12240	0.82961
766.06860	0.81864
764.01479	0.80670
761.96099	0.79426
759.90719	0.78264
757.85338	0.77386
755.79958	0.76931
753.74578	0.76840
751.69197	0.76930
749.63817	0.77075
747.58437	0.77404
745.53056	0.78153
743.47676	0.79336
741.42296	0.80732
739.36916	0.82088
737.31535	0.83319
735.26155	0.84491
733.20775	0.85554
731.15394	0.86372
729.10014	0.86903
727.04634	0.87234
724.99253	0.87511
722.93873	0.87763
720.88493	0.88041
718.83112	0.88332
716.77732	0.88485
714.72352	0.88424
712.66971	0.88010
710.61591	0.86963
708.56211	0.84916
706.50830	0.81461
704.45450	0.76424
702.40070	0.70104
700.34689	0.63121
698.29309	0.56658
696.23929	0.53282
694.18548	0.55503
692.13168	0.62192
690.07788	0.69304
688.02408	0.74236
685.97027	0.76990
683.91647	0.78502
681.86267	0.79550
679.80886	0.80429
677.75506	0.81033
675.70126	0.81387
673.64745	0.81712
671.59365	0.81991
669.53985	0.82148
667.48604	0.82365
665.43224	0.82650
663.37844	0.82887
661.32463	0.83110
659.27083	0.83254
657.21703	0.83288
655.16322	0.83248
653.10942	0.83136
651.05562	0.82960
649.00181	0.82818
646.94801	0.82836
644.89421	0.82994
642.84040	0.83205
640.78660	0.83393
638.73280	0.83496
636.67899	0.83552
634.62519	0.83621
632.57139	0.83687
630.51759	0.83737
628.46378	0.83708
626.40998	0.83574
624.35618	0.83482
622.30237	0.83464
620.24857	0.83398
618.19477	0.83247
616.14096	0.82963
614.08716	0.82626
612.03336	0.82362
609.97955	0.82057
607.92575	0.81733
605.87195	0.81533
603.81814	0.81334
601.76434	0.81012
599.71054	0.80690
597.65673	0.80482
595.60293	0.80246
593.54913	0.79842
591.49532	0.79453
589.44152	0.79336
587.38772	0.79273
585.33391	0.78999
583.28011	0.78682
581.22631	0.78453
579.17250	0.78221
577.11870	0.78016
575.06490	0.77829
573.01110	0.77426
570.95729	0.76815
568.90349	0.76105
566.84969	0.75280
564.79588	0.74509
562.74208	0.73892
560.68828	0.73317
558.63447	0.72746
556.58067	0.72019
554.52687	0.71078
552.47306	0.70240
550.41926	0.69489
548.36546	0.68524
546.31165	0.67389
544.25785	0.66165
542.20405	0.64843
540.15024	0.63613
538.09644	0.62618
536.04264	0.61913
533.98883	0.61578
531.93503	0.61505
529.88123	0.61639
527.82742	0.62035
525.77362	0.62667
523.71982	0.63381
521.66602	0.63876
519.61221	0.64199
517.55841	0.64723
515.50461	0.65388
513.45080	0.66049
511.39700	0.66847
509.34320	0.67651
507.28939	0.68174
505.23559	0.68463
503.18179	0.68686
501.12798	0.68850
499.07418	0.68995
497.02038	0.69159
494.96657	0.69113
492.91277	0.68577
490.85897	0.67667
488.80516	0.66645
486.75136	0.65575
484.69756	0.64371
482.64375	0.63004
480.58995	0.61497
478.53615	0.59804
476.48234	0.58094
474.42854	0.56532
472.37474	0.55091
470.32093	0.53913
468.26713	0.53252
466.21333	0.53126
464.15953	0.53314
462.10572	0.53816
460.05192	0.54650
457.99812	0.55730
455.94431	0.56883
453.89051	0.57939
451.83671	0.58971
449.78290	0.59786
447.72910	0.60410
445.67530	0.60975
443.62149	0.61350
441.56769	0.61505
439.51389	0.61256
437.46008	0.60691
435.40628	0.60401
433.35248	0.60546
431.29867	0.60600
429.24487	0.60191
427.19107	0.59675
425.13726	0.59550
423.08346	0.59844
421.02966	0.60543
418.97585	0.61430
416.92205	0.61908
414.86825	0.62487
412.81445	0.63276
410.76064	0.63705
408.70684	0.63849
406.65304	0.64247
404.59923	0.65165
402.54543	0.66025
400.49163	0.66105
398.43782	0.65692
