3996.70104	0.98890
3994.64724	0.98950
3992.59344	0.98988
3990.53964	0.98974
3988.48583	0.98923
3986.43203	0.98885
3984.37823	0.98880
3982.32442	0.98878
3980.27062	0.98878
3978.21682	0.98901
3976.16301	0.98931
3974.10921	0.98987
3972.05541	0.99056
3970.00160	0.99056
3967.94780	0.98985
3965.89400	0.98920
3963.84019	0.98890
3961.78639	0.98877
3959.73259	0.98897
3957.67878	0.98936
3955.62498	0.98913
3953.57118	0.98863
3951.51737	0.98897
3949.46357	0.98970
3947.40977	0.98968
3945.35596	0.98946
3943.30216	0.98968
3941.24836	0.98971
3939.19455	0.98952
3937.14075	0.98948
3935.08695	0.98965
3933.03315	0.98979
3930.97934	0.98953
3928.92554	0.98913
3926.87174	0.98919
3924.81793	0.98969
3922.76413	0.98972
3920.71033	0.98910
3918.65652	0.98880
3916.60272	0.98903
3914.54892	0.98903
3912.49511	0.98892
3910.44131	0.98906
3908.38751	0.98934
3906.33370	0.99005
3904.27990	0.99101
3902.22610	0.99147
3900.17229	0.99130
3898.11849	0.99036
3896.06469	0.98929
3894.01088	0.98882
3891.95708	0.98897
3889.90328	0.98910
3887.84947	0.98908
3885.79567	0.98961
3883.74187	0.99049
3881.68807	0.99062
3879.63426	0.98992
3877.58046	0.98947
3875.52666	0.98976
3873.47285	0.99010
3871.41905	0.98959
3869.36525	0.98865
3867.31144	0.98873
3865.25764	0.98970
3863.20384	0.99032
3861.15003	0.99018
3859.09623	0.99023
3857.04243	0.99056
3854.98862	0.99068
3852.93482	0.99007
3850.88102	0.98910
3848.82721	0.98863
3846.77341	0.98892
3844.71961	0.98997
3842.66580	0.99062
3840.61200	0.98979
3838.55820	0.98868
3836.50439	0.98873
3834.45059	0.98932
3832.39679	0.98978
3830.34298	0.99003
3828.28918	0.98999
3826.23538	0.98975
3824.18158	0.98944
3822.12777	0.98912
3820.07397	0.98937
3818.02017	0.98993
3815.96636	0.98966
3813.91256	0.98868
3811.85876	0.98819
3809.80495	0.98860
3807.75115	0.98953
3805.69735	0.98957
3803.64354	0.98912
3801.58974	0.98973
3799.53594	0.99016
3797.48213	0.98973
3795.42833	0.98951
3793.37453	0.98912
3791.32072	0.98835
3789.26692	0.98809
3787.21312	0.98836
3785.15931	0.98846
3783.10551	0.98878
3781.05171	0.98961
3778.99790	0.98981
3776.94410	0.98905
3774.89030	0.98872
3772.83650	0.98897
3770.78269	0.98934
3768.72889	0.98926
3766.67509	0.98871
3764.62128	0.98872
3762.56748	0.98889
3760.51368	0.98854
3758.45987	0.98826
3756.40607	0.98846
3754.35227	0.98915
3752.29846	0.99071
3750.24466	0.99162
3748.19086	0.99037
3746.13705	0.98907
3744.08325	0.98815
3742.02945	0.98809
3739.97564	0.98903
3737.92184	0.99017
3735.86804	0.99078
3733.81423	0.99067
3731.76043	0.98979
3729.70663	0.98850
3727.65282	0.98756
3725.59902	0.98736
3723.54522	0.98738
3721.49141	0.98667
3719.43761	0.98535
3717.38381	0.98438
3715.33001	0.98382
3713.27620	0.98333
3711.22240	0.98246
3709.16860	0.98089
3707.11479	0.97934
3705.06099	0.97737
3703.00719	0.97471
3700.95338	0.97266
3698.89958	0.97189
3696.84578	0.97176
3694.79197	0.97207
3692.73817	0.97245
3690.68437	0.97235
3688.63056	0.97255
3686.57676	0.97384
3684.52296	0.97454
3682.46915	0.97455
3680.41535	0.97504
3678.36155	0.97595
3676.30774	0.97639
3674.25394	0.97608
3672.20014	0.97567
3670.14633	0.97501
3668.09253	0.97399
3666.03873	0.97347
3663.98492	0.97318
3661.93112	0.97249
3659.87732	0.97137
3657.82352	0.97053
3655.76971	0.97019
3653.71591	0.97001
3651.66211	0.97010
3649.60830	0.97002
3647.55450	0.96843
3645.50070	0.96674
3643.44689	0.96601
3641.39309	0.96573
3639.33929	0.96542
3637.28548	0.96472
3635.23168	0.96381
3633.17788	0.96330
3631.12407	0.96291
3629.07027	0.96101
3627.01647	0.95838
3624.96266	0.95728
3622.90886	0.95686
3620.85506	0.95670
3618.80125	0.95695
3616.74745	0.95760
3614.69365	0.95802
3612.63984	0.95781
3610.58604	0.95758
3608.53224	0.95731
3606.47844	0.95680
3604.42463	0.95661
3602.37083	0.95606
3600.31703	0.95508
3598.26322	0.95520
3596.20942	0.95570
3594.15562	0.95496
3592.10181	0.95414
3590.04801	0.95458
3587.99421	0.95497
3585.94040	0.95392
3583.88660	0.95311
3581.83280	0.95286
3579.77899	0.95234
3577.72519	0.95194
3575.67139	0.95193
3573.61758	0.95156
3571.56378	0.95115
3569.50998	0.95117
3567.45617	0.95036
3565.40237	0.94867
3563.34857	0.94778
3561.29476	0.94715
3559.24096	0.94605
3557.18716	0.94511
3555.13335	0.94500
3553.07955	0.94473
3551.02575	0.94374
3548.97195	0.94330
3546.91814	0.94374
3544.86434	0.94370
3542.81054	0.94290
3540.75673	0.94228
3538.70293	0.94175
3536.64913	0.94123
3534.59532	0.94067
3532.54152	0.93974
3530.48772	0.93881
3528.43391	0.93874
3526.38011	0.93920
3524.32631	0.93878
3522.27250	0.93764
3520.21870	0.93676
3518.16490	0.93606
3516.11109	0.93538
3514.05729	0.93490
3512.00349	0.93484
3509.94968	0.93502
3507.89588	0.93485
3505.84208	0.93448
3503.78827	0.93371
3501.73447	0.93238
3499.68067	0.93149
3497.62687	0.93121
3495.57306	0.93100
3493.51926	0.93064
3491.46546	0.93039
3489.41165	0.93030
3487.35785	0.92998
3485.30405	0.92950
3483.25024	0.92905
3481.19644	0.92865
3479.14264	0.92821
3477.08883	0.92737
3475.03503	0.92634
3472.98123	0.92553
3470.92742	0.92508
3468.87362	0.92522
3466.81982	0.92554
3464.76601	0.92507
3462.71221	0.92413
3460.65841	0.92370
3458.60460	0.92364
3456.55080	0.92339
3454.49700	0.92290
3452.44319	0.92221
3450.38939	0.92166
3448.33559	0.92131
3446.28178	0.92064
3444.22798	0.91998
3442.17418	0.91981
3440.12038	0.91983
3438.06657	0.91969
3436.01277	0.91902
3433.95897	0.91776
3431.90516	0.91648
3429.85136	0.91590
3427.79756	0.91622
3425.74375	0.91685
3423.68995	0.91671
3421.63615	0.91543
3419.58234	0.91402
3417.52854	0.91334
3415.47474	0.91327
3413.42093	0.91317
3411.36713	0.91266
3409.31333	0.91209
3407.25952	0.91170
3405.20572	0.91124
3403.15192	0.91087
3401.09811	0.91091
3399.04431	0.91087
3396.99051	0.91050
3394.93670	0.91012
3392.88290	0.90984
3390.82910	0.90957
3388.77529	0.90928
3386.72149	0.90904
3384.66769	0.90883
3382.61389	0.90848
3380.56008	0.90813
3378.50628	0.90838
3376.45248	0.90895
3374.39867	0.90901
3372.34487	0.90887
3370.29107	0.90876
3368.23726	0.90854
3366.18346	0.90851
3364.12966	0.90856
3362.07585	0.90874
3360.02205	0.90911
3357.96825	0.90902
3355.91444	0.90854
3353.86064	0.90824
3351.80684	0.90815
3349.75303	0.90826
3347.69923	0.90854
3345.64543	0.90887
3343.59162	0.90926
3341.53782	0.90965
3339.48402	0.90960
3337.43021	0.90936
3335.37641	0.90943
3333.32261	0.90952
3331.26881	0.90968
3329.21500	0.91012
3327.16120	0.91041
3325.10740	0.91034
3323.05359	0.91029
3320.99979	0.91044
3318.94599	0.91044
3316.89218	0.91055
3314.83838	0.91095
3312.78458	0.91120
3310.73077	0.91147
3308.67697	0.91175
3306.62317	0.91191
3304.56936	0.91211
3302.51556	0.91219
3300.46176	0.91240
3298.40795	0.91285
3296.35415	0.91303
3294.30035	0.91305
3292.24654	0.91345
3290.19274	0.91384
3288.13894	0.91395
3286.08513	0.91413
3284.03133	0.91440
3281.97753	0.91444
3279.92372	0.91443
3277.86992	0.91428
3275.81612	0.91373
3273.76232	0.91352
3271.70851	0.91377
3269.65471	0.91387
3267.60091	0.91429
3265.54710	0.91511
3263.49330	0.91554
3261.43950	0.91559
3259.38569	0.91547
3257.33189	0.91532
3255.27809	0.91535
3253.22428	0.91553
3251.17048	0.91623
3249.11668	0.91730
3247.06287	0.91781
3245.00907	0.91772
3242.95527	0.91767
3240.90146	0.91764
3238.84766	0.91761
3236.79386	0.91804
3234.74005	0.91873
3232.68625	0.91935
3230.63245	0.91996
3228.57864	0.92039
3226.52484	0.92049
3224.47104	0.92030
3222.41724	0.92007
3220.36343	0.92035
3218.30963	0.92098
3216.25583	0.92158
3214.20202	0.92226
3212.14822	0.92282
3210.09442	0.92317
3208.04061	0.92368
3205.98681	0.92445
3203.93301	0.92486
3201.87920	0.92473
3199.82540	0.92484
3197.77160	0.92567
3195.71779	0.92663
3193.66399	0.92707
3191.61019	0.92721
3189.55638	0.92745
3187.50258	0.92771
3185.44878	0.92786
3183.39497	0.92799
3181.34117	0.92842
3179.28737	0.92919
3177.23356	0.92999
3175.17976	0.93054
3173.12596	0.93070
3171.07215	0.93082
3169.01835	0.93137
3166.96455	0.93229
3164.91075	0.93333
3162.85694	0.93425
3160.80314	0.93484
3158.74934	0.93509
3156.69553	0.93518
3154.64173	0.93530
3152.58793	0.93596
3150.53412	0.93694
3148.48032	0.93730
3146.42652	0.93733
3144.37271	0.93760
3142.31891	0.93811
3140.26511	0.93891
3138.21130	0.93978
3136.15750	0.94060
3134.10370	0.94140
3132.04989	0.94184
3129.99609	0.94205
3127.94229	0.94248
3125.88848	0.94299
3123.83468	0.94346
3121.78088	0.94412
3119.72707	0.94498
3117.67327	0.94577
3115.61947	0.94602
3113.56566	0.94600
3111.51186	0.94631
3109.45806	0.94687
3107.40426	0.94744
3105.35045	0.94798
3103.29665	0.94842
3101.24285	0.94851
3099.18904	0.94839
3097.13524	0.94866
3095.08144	0.94948
3093.02763	0.95043
3090.97383	0.95108
3088.92003	0.95120
3086.86622	0.95111
3084.81242	0.95149
3082.75862	0.95220
3080.70481	0.95260
3078.65101	0.95274
3076.59721	0.95308
3074.54340	0.95361
3072.48960	0.95414
3070.43580	0.95447
3068.38199	0.95452
3066.32819	0.95468
3064.27439	0.95506
3062.22058	0.95551
3060.16678	0.95605
3058.11298	0.95650
3056.05918	0.95701
3054.00537	0.95782
3051.95157	0.95853
3049.89777	0.95878
3047.84396	0.95875
3045.79016	0.95891
3043.73636	0.95923
3041.68255	0.95931
3039.62875	0.95947
3037.57495	0.96006
3035.52114	0.96064
3033.46734	0.96083
3031.41354	0.96096
3029.35973	0.96143
3027.30593	0.96206
3025.25213	0.96231
3023.19832	0.96215
3021.14452	0.96236
3019.09072	0.96304
3017.03691	0.96348
3014.98311	0.96364
3012.92931	0.96383
3010.87550	0.96403
3008.82170	0.96444
3006.76790	0.96506
3004.71409	0.96539
3002.66029	0.96533
3000.60649	0.96528
2998.55269	0.96540
2996.49888	0.96562
2994.44508	0.96590
2992.39128	0.96645
2990.33747	0.96724
2988.28367	0.96741
2986.22987	0.96674
2984.17606	0.96644
2982.12226	0.96705
2980.06846	0.96771
2978.01465	0.96799
2975.96085	0.96807
2973.90705	0.96790
2971.85324	0.96750
2969.79944	0.96706
2967.74564	0.96675
2965.69183	0.96682
2963.63803	0.96714
2961.58423	0.96732
2959.53042	0.96734
2957.47662	0.96730
2955.42282	0.96723
2953.36901	0.96718
2951.31521	0.96726
2949.26141	0.96725
2947.20761	0.96690
2945.15380	0.96672
2943.10000	0.96706
2941.04620	0.96750
2938.99239	0.96757
2936.93859	0.96734
2934.88479	0.96706
2932.83098	0.96682
2930.77718	0.96690
2928.72338	0.96716
2926.66957	0.96712
2924.61577	0.96715
2922.56197	0.96756
2920.50816	0.96775
2918.45436	0.96755
2916.40056	0.96785
2914.34675	0.96880
2912.29295	0.96972
2910.23915	0.97040
2908.18534	0.97078
2906.13154	0.97075
2904.07774	0.97072
2902.02393	0.97098
2899.97013	0.97110
2897.91633	0.97112
2895.86252	0.97158
2893.80872	0.97205
2891.75492	0.97196
2889.70112	0.97173
2887.64731	0.97177
2885.59351	0.97192
2883.53971	0.97199
2881.48590	0.97213
2879.43210	0.97268
2877.37830	0.97346
2875.32449	0.97410
2873.27069	0.97444
2871.21689	0.97432
2869.16308	0.97407
2867.10928	0.97403
2865.05548	0.97427
2863.00167	0.97459
2860.94787	0.97491
2858.89407	0.97516
2856.84026	0.97517
2854.78646	0.97516
2852.73266	0.97522
2850.67885	0.97513
2848.62505	0.97506
2846.57125	0.97536
2844.51744	0.97587
2842.46364	0.97630
2840.40984	0.97642
2838.35603	0.97638
2836.30223	0.97681
2834.24843	0.97758
2832.19463	0.97799
2830.14082	0.97811
2828.08702	0.97826
2826.03322	0.97852
2823.97941	0.97887
2821.92561	0.97909
2819.87181	0.97928
2817.81800	0.97940
2815.76420	0.97933
2813.71040	0.97956
2811.65659	0.97999
2809.60279	0.98007
2807.54899	0.98008
2805.49518	0.98017
2803.44138	0.97992
2801.38758	0.97968
2799.33377	0.98000
2797.27997	0.98054
2795.22617	0.98083
2793.17236	0.98089
2791.11856	0.98083
2789.06476	0.98091
2787.01095	0.98110
2784.95715	0.98119
2782.90335	0.98149
2780.84955	0.98184
2778.79574	0.98167
2776.74194	0.98135
2774.68814	0.98139
2772.63433	0.98152
2770.58053	0.98143
2768.52673	0.98136
2766.47292	0.98141
2764.41912	0.98135
2762.36532	0.98127
2760.31151	0.98126
2758.25771	0.98130
2756.20391	0.98148
2754.15010	0.98190
2752.09630	0.98225
2750.04250	0.98228
2747.98869	0.98230
2745.93489	0.98253
2743.88109	0.98264
2741.82728	0.98251
2739.77348	0.98243
2737.71968	0.98242
2735.66587	0.98231
2733.61207	0.98238
2731.55827	0.98265
2729.50446	0.98289
2727.45066	0.98311
2725.39686	0.98340
2723.34306	0.98373
2721.28925	0.98368
2719.23545	0.98323
2717.18165	0.98302
2715.12784	0.98307
2713.07404	0.98290
2711.02024	0.98295
2708.96643	0.98343
2706.91263	0.98383
2704.85883	0.98403
2702.80502	0.98410
2700.75122	0.98401
2698.69742	0.98402
2696.64361	0.98424
2694.58981	0.98425
2692.53601	0.98400
2690.48220	0.98383
2688.42840	0.98389
2686.37460	0.98398
2684.32079	0.98397
2682.26699	0.98418
2680.21319	0.98447
2678.15938	0.98439
2676.10558	0.98415
2674.05178	0.98411
2671.99797	0.98429
2669.94417	0.98448
2667.89037	0.98450
2665.83657	0.98438
2663.78276	0.98435
2661.72896	0.98433
2659.67516	0.98393
2657.62135	0.98331
2655.56755	0.98317
2653.51375	0.98385
2651.45994	0.98485
2649.40614	0.98521
2647.35234	0.98470
2645.29853	0.98397
2643.24473	0.98367
2641.19093	0.98388
2639.13712	0.98419
2637.08332	0.98427
2635.02952	0.98435
2632.97571	0.98467
2630.92191	0.98497
2628.86811	0.98508
2626.81430	0.98525
2624.76050	0.98555
2622.70670	0.98561
2620.65289	0.98523
2618.59909	0.98499
2616.54529	0.98523
2614.49149	0.98534
2612.43768	0.98513
2610.38388	0.98497
2608.33008	0.98511
2606.27627	0.98549
2604.22247	0.98575
2602.16867	0.98612
2600.11486	0.98652
2598.06106	0.98633
2596.00726	0.98597
2593.95345	0.98605
2591.89965	0.98631
2589.84585	0.98619
2587.79204	0.98624
2585.73824	0.98686
2583.68444	0.98682
2581.63063	0.98615
2579.57683	0.98595
2577.52303	0.98589
2575.46922	0.98568
2573.41542	0.98573
2571.36162	0.98604
2569.30781	0.98638
2567.25401	0.98678
2565.20021	0.98721
2563.14640	0.98757
2561.09260	0.98766
2559.03880	0.98732
2556.98500	0.98684
2554.93119	0.98656
2552.87739	0.98645
2550.82359	0.98680
2548.76978	0.98723
2546.71598	0.98694
2544.66218	0.98640
2542.60837	0.98635
2540.55457	0.98664
2538.50077	0.98706
2536.44696	0.98792
2534.39316	0.98862
2532.33936	0.98820
2530.28555	0.98762
2528.23175	0.98766
2526.17795	0.98780
2524.12414	0.98745
2522.07034	0.98648
2520.01654	0.98580
2517.96273	0.98612
2515.90893	0.98704
2513.85513	0.98785
2511.80132	0.98799
2509.74752	0.98744
2507.69372	0.98682
2505.63992	0.98682
2503.58611	0.98733
2501.53231	0.98766
2499.47851	0.98740
2497.42470	0.98705
2495.37090	0.98700
2493.31710	0.98691
2491.26329	0.98665
2489.20949	0.98672
2487.15569	0.98715
2485.10188	0.98745
2483.04808	0.98743
2480.99428	0.98732
2478.94047	0.98728
2476.88667	0.98728
2474.83287	0.98713
2472.77906	0.98686
2470.72526	0.98686
2468.67146	0.98700
2466.61765	0.98704
2464.56385	0.98699
2462.51005	0.98672
2460.45624	0.98659
2458.40244	0.98703
2456.34864	0.98775
2454.29483	0.98788
2452.24103	0.98710
2450.18723	0.98638
2448.13343	0.98647
2446.07962	0.98689
2444.02582	0.98725
2441.97202	0.98769
2439.91821	0.98767
2437.86441	0.98705
2435.81061	0.98671
2433.75680	0.98712
2431.70300	0.98775
2429.64920	0.98807
2427.59539	0.98804
2425.54159	0.98775
2423.48779	0.98732
2421.43398	0.98697
2419.38018	0.98688
2417.32638	0.98720
2415.27257	0.98793
2413.21877	0.98878
2411.16497	0.98884
2409.11116	0.98789
2407.05736	0.98717
2405.00356	0.98717
2402.94975	0.98735
2400.89595	0.98752
2398.84215	0.98764
2396.78834	0.98797
2394.73454	0.98843
2392.68074	0.98856
2390.62694	0.98839
2388.57313	0.98810
2386.51933	0.98766
2384.46553	0.98703
2382.41172	0.98657
2380.35792	0.98644
2378.30412	0.98624
2376.25031	0.98648
2374.19651	0.98723
2372.14271	0.98775
2370.08890	0.98801
2368.03510	0.98812
2365.98130	0.98809
2363.92749	0.98706
2361.87369	0.98514
2359.81989	0.98464
2357.76608	0.98581
2355.71228	0.98675
2353.65848	0.98708
2351.60467	0.98685
2349.55087	0.98656
2347.49707	0.98666
2345.44326	0.98637
2343.38946	0.98539
2341.33566	0.98510
2339.28186	0.98587
2337.22805	0.98660
2335.17425	0.98681
2333.12045	0.98664
2331.06664	0.98630
2329.01284	0.98630
2326.95904	0.98612
2324.90523	0.98505
2322.85143	0.98420
2320.79763	0.98453
2318.74382	0.98475
2316.69002	0.98430
2314.63622	0.98399
2312.58241	0.98422
2310.52861	0.98461
2308.47481	0.98482
2306.42100	0.98517
2304.36720	0.98551
2302.31340	0.98544
2300.25959	0.98534
2298.20579	0.98556
2296.15199	0.98586
2294.09818	0.98568
2292.04438	0.98477
2289.99058	0.98400
2287.93677	0.98357
2285.88297	0.98311
2283.82917	0.98339
2281.77537	0.98420
2279.72156	0.98527
2277.66776	0.98669
2275.61396	0.98700
2273.56015	0.98600
2271.50635	0.98561
2269.45255	0.98659
2267.39874	0.98780
2265.34494	0.98760
2263.29114	0.98622
2261.23733	0.98531
2259.18353	0.98540
2257.12973	0.98623
2255.07592	0.98711
2253.02212	0.98704
2250.96832	0.98616
2248.91451	0.98552
2246.86071	0.98539
2244.80691	0.98519
2242.75310	0.98499
2240.69930	0.98573
2238.64550	0.98690
2236.59169	0.98726
2234.53789	0.98701
2232.48409	0.98634
2230.43029	0.98574
2228.37648	0.98573
2226.32268	0.98598
2224.26888	0.98619
2222.21507	0.98637
2220.16127	0.98720
2218.10747	0.98865
2216.05366	0.98940
2213.99986	0.98893
2211.94606	0.98860
2209.89225	0.98883
2207.83845	0.98814
2205.78465	0.98654
2203.73084	0.98542
2201.67704	0.98540
2199.62324	0.98678
2197.56943	0.98859
2195.51563	0.98851
2193.46183	0.98733
2191.40802	0.98793
2189.35422	0.98984
2187.30042	0.99023
2185.24661	0.98892
2183.19281	0.98809
2181.13901	0.98755
2179.08520	0.98634
2177.03140	0.98545
2174.97760	0.98604
2172.92380	0.98774
2170.86999	0.98832
2168.81619	0.98777
2166.76239	0.98798
2164.70858	0.98840
2162.65478	0.98908
2160.60098	0.99042
2158.54717	0.99091
2156.49337	0.99064
2154.43957	0.99077
2152.38576	0.99293
2150.33196	0.99700
2148.27816	0.99895
2146.22435	0.99659
2144.17055	0.99247
2142.11675	0.98969
2140.06294	0.98917
2138.00914	0.99012
2135.95534	0.99030
2133.90153	0.98921
2131.84773	0.98953
2129.79393	0.99091
2127.74012	0.99062
2125.68632	0.98867
2123.63252	0.98709
2121.57871	0.98740
2119.52491	0.98870
2117.47111	0.98904
2115.41731	0.98861
2113.36350	0.98855
2111.30970	0.98860
2109.25590	0.98758
2107.20209	0.98589
2105.14829	0.98586
2103.09449	0.98794
2101.04068	0.98988
2098.98688	0.99045
2096.93308	0.98990
2094.87927	0.98883
2092.82547	0.98842
2090.77167	0.98873
2088.71786	0.98868
2086.66406	0.98820
2084.61026	0.98788
2082.55645	0.98751
2080.50265	0.98684
2078.44885	0.98694
2076.39504	0.98743
2074.34124	0.98697
2072.28744	0.98720
2070.23363	0.98867
2068.17983	0.99013
2066.12603	0.99064
2064.07223	0.98967
2062.01842	0.98886
2059.96462	0.98809
2057.91082	0.98696
2055.85701	0.98726
2053.80321	0.98826
2051.74941	0.98811
2049.69560	0.98781
2047.64180	0.98803
2045.58800	0.98761
2043.53419	0.98712
2041.48039	0.98801
2039.42659	0.99079
2037.37278	0.99382
2035.31898	0.99529
2033.26518	0.99512
2031.21137	0.99232
2029.15757	0.98882
2027.10377	0.98918
2025.04996	0.99169
2022.99616	0.99205
2020.94236	0.99102
2018.88855	0.98989
2016.83475	0.98971
2014.78095	0.99211
2012.72714	0.99487
2010.67334	0.99480
2008.61954	0.99230
2006.56574	0.99119
2004.51193	0.99239
2002.45813	0.99275
2000.40433	0.99082
1998.35052	0.98793
1996.29672	0.98710
1994.24292	0.98881
1992.18911	0.98964
1990.13531	0.98826
1988.08151	0.98694
1986.02770	0.98782
1983.97390	0.99045
1981.92010	0.99219
1979.86629	0.99177
1977.81249	0.99046
1975.75869	0.99032
1973.70488	0.99025
1971.65108	0.98878
1969.59728	0.98892
1967.54347	0.99162
1965.48967	0.99309
1963.43587	0.99166
1961.38206	0.98914
1959.32826	0.98822
1957.27446	0.98968
1955.22066	0.99173
1953.16685	0.99325
1951.11305	0.99363
1949.05925	0.99255
1947.00544	0.99055
1944.95164	0.98865
1942.89784	0.98877
1940.84403	0.99081
1938.79023	0.99187
1936.73643	0.99094
1934.68262	0.98978
1932.62882	0.98971
1930.57502	0.98978
1928.52121	0.98975
1926.46741	0.99037
1924.41361	0.99146
1922.35980	0.99205
1920.30600	0.99164
1918.25220	0.99070
1916.19839	0.98975
1914.14459	0.98901
1912.09079	0.98872
1910.03698	0.98933
1907.98318	0.99035
1905.92938	0.99092
1903.87557	0.99060
1901.82177	0.98980
1899.76797	0.98981
1897.71417	0.98999
1895.66036	0.98940
1893.60656	0.98904
1891.55276	0.98946
1889.49895	0.99004
1887.44515	0.99025
1885.39135	0.99024
1883.33754	0.98972
1881.28374	0.98875
1879.22994	0.98809
1877.17613	0.98814
1875.12233	0.98881
1873.06853	0.98962
1871.01472	0.99002
1868.96092	0.98935
1866.90712	0.98832
1864.85331	0.98822
1862.79951	0.98849
1860.74571	0.98837
1858.69190	0.98769
1856.63810	0.98714
1854.58430	0.98753
1852.53049	0.98821
1850.47669	0.98808
1848.42289	0.98755
1846.36908	0.98783
1844.31528	0.98894
1842.26148	0.98943
1840.20768	0.98899
1838.15387	0.98845
1836.10007	0.98809
1834.04627	0.98814
1831.99246	0.98867
1829.93866	0.98941
1827.88486	0.98981
1825.83105	0.98954
1823.77725	0.98884
1821.72345	0.98862
1819.66964	0.98904
1817.61584	0.98925
1815.56204	0.98907
1813.50823	0.98895
1811.45443	0.98865
1809.40063	0.98797
1807.34682	0.98747
1805.29302	0.98760
1803.23922	0.98818
1801.18541	0.98857
1799.13161	0.98853
1797.07781	0.98835
1795.02400	0.98842
1792.97020	0.98881
1790.91640	0.98871
1788.86260	0.98808
1786.80879	0.98763
1784.75499	0.98732
1782.70119	0.98703
1780.64738	0.98690
1778.59358	0.98693
1776.53978	0.98686
1774.48597	0.98664
1772.43217	0.98665
1770.37837	0.98689
1768.32456	0.98664
1766.27076	0.98591
1764.21696	0.98553
1762.16315	0.98547
1760.10935	0.98509
1758.05555	0.98480
1756.00174	0.98483
1753.94794	0.98469
1751.89414	0.98432
1749.84033	0.98390
1747.78653	0.98343
1745.73273	0.98287
1743.67892	0.98221
1741.62512	0.98128
1739.57132	0.98034
1737.51751	0.97987
1735.46371	0.97960
1733.40991	0.97889
1731.35611	0.97812
1729.30230	0.97751
1727.24850	0.97721
1725.19470	0.97727
1723.14089	0.97719
1721.08709	0.97688
1719.03329	0.97653
1716.97948	0.97621
1714.92568	0.97590
1712.87188	0.97529
1710.81807	0.97461
1708.76427	0.97410
1706.71047	0.97334
1704.65666	0.97228
1702.60286	0.97168
1700.54906	0.97115
1698.49525	0.96993
1696.44145	0.96800
1694.38765	0.96555
1692.33384	0.96375
1690.28004	0.96223
1688.22624	0.96076
1686.17243	0.95947
1684.11863	0.95715
1682.06483	0.95502
1680.01103	0.95414
1677.95722	0.95325
1675.90342	0.95193
1673.84962	0.95046
1671.79581	0.94930
1669.74201	0.94783
1667.68821	0.94638
1665.63440	0.94565
1663.58060	0.94471
1661.52680	0.94306
1659.47299	0.94153
1657.41919	0.94063
1655.36539	0.94015
1653.31158	0.93867
1651.25778	0.93694
1649.20398	0.93665
1647.15017	0.93624
1645.09637	0.93564
1643.04257	0.93540
1640.98876	0.93507
1638.93496	0.93479
1636.88116	0.93468
1634.82735	0.93452
1632.77355	0.93478
1630.71975	0.93524
1628.66594	0.93547
1626.61214	0.93558
1624.55834	0.93588
1622.50454	0.93606
1620.45073	0.93610
1618.39693	0.93659
1616.34313	0.93763
1614.28932	0.93921
1612.23552	0.94115
1610.18172	0.94295
1608.12791	0.94426
1606.07411	0.94529
1604.02031	0.94631
1601.96650	0.94723
1599.91270	0.94786
1597.85890	0.94843
1595.80509	0.94916
1593.75129	0.94996
1591.69749	0.95082
1589.64368	0.95186
1587.58988	0.95301
1585.53608	0.95405
1583.48227	0.95490
1581.42847	0.95577
1579.37467	0.95699
1577.32086	0.95860
1575.26706	0.95967
1573.21326	0.96022
1571.15945	0.96113
1569.10565	0.96198
1567.05185	0.96227
1564.99805	0.96253
1562.94424	0.96306
1560.89044	0.96382
1558.83664	0.96444
1556.78283	0.96419
1554.72903	0.96414
1552.67523	0.96445
1550.62142	0.96454
1548.56762	0.96431
1546.51382	0.96451
1544.46001	0.96518
1542.40621	0.96570
1540.35241	0.96577
1538.29860	0.96547
1536.24480	0.96534
1534.19100	0.96548
1532.13719	0.96596
1530.08339	0.96663
1528.02959	0.96732
1525.97578	0.96792
1523.92198	0.96843
1521.86818	0.96841
1519.81437	0.96762
1517.76057	0.96653
1515.70677	0.96528
1513.65297	0.96448
1511.59916	0.96433
1509.54536	0.96458
1507.49156	0.96453
1505.43775	0.96450
1503.38395	0.96533
1501.33015	0.96638
1499.27634	0.96736
1497.22254	0.96809
1495.16874	0.96888
1493.11493	0.96994
1491.06113	0.97074
1489.00733	0.97065
1486.95352	0.97050
1484.89972	0.97084
1482.84592	0.97120
1480.79211	0.97121
1478.73831	0.97084
1476.68451	0.97044
1474.63070	0.96980
1472.57690	0.96840
1470.52310	0.96688
1468.46929	0.96582
1466.41549	0.96488
1464.36169	0.96382
1462.30788	0.96315
1460.25408	0.96341
1458.20028	0.96423
1456.14648	0.96414
1454.09267	0.96323
1452.03887	0.96256
1449.98507	0.96237
1447.93126	0.96276
1445.87746	0.96326
1443.82366	0.96354
1441.76985	0.96371
1439.71605	0.96361
1437.66225	0.96317
1435.60844	0.96259
1433.55464	0.96222
1431.50084	0.96176
1429.44703	0.96098
1427.39323	0.96033
1425.33943	0.96006
1423.28562	0.96004
1421.23182	0.96020
1419.17802	0.96049
1417.12421	0.96073
1415.07041	0.96082
1413.01661	0.96089
1410.96280	0.96116
1408.90900	0.96168
1406.85520	0.96231
1404.80139	0.96282
1402.74759	0.96299
1400.69379	0.96308
1398.63999	0.96352
1396.58618	0.96422
1394.53238	0.96454
1392.47858	0.96451
1390.42477	0.96457
1388.37097	0.96455
1386.31717	0.96432
1384.26336	0.96412
1382.20956	0.96388
1380.15576	0.96372
1378.10195	0.96408
1376.04815	0.96446
1373.99435	0.96416
1371.94054	0.96388
1369.88674	0.96419
1367.83294	0.96460
1365.77913	0.96484
1363.72533	0.96511
1361.67153	0.96522
1359.61772	0.96514
1357.56392	0.96525
1355.51012	0.96542
1353.45631	0.96541
1351.40251	0.96542
1349.34871	0.96533
1347.29491	0.96503
1345.24110	0.96472
1343.18730	0.96453
1341.13350	0.96451
1339.07969	0.96452
1337.02589	0.96438
1334.97209	0.96424
1332.91828	0.96426
1330.86448	0.96434
1328.81068	0.96430
1326.75687	0.96416
1324.70307	0.96409
1322.64927	0.96414
1320.59546	0.96423
1318.54166	0.96434
1316.48786	0.96469
1314.43405	0.96523
1312.38025	0.96540
1310.32645	0.96525
1308.27264	0.96520
1306.21884	0.96531
1304.16504	0.96562
1302.11123	0.96599
1300.05743	0.96622
1298.00363	0.96638
1295.94982	0.96653
1293.89602	0.96652
1291.84222	0.96628
1289.78842	0.96603
1287.73461	0.96577
1285.68081	0.96524
1283.62701	0.96441
1281.57320	0.96350
1279.51940	0.96269
1277.46560	0.96192
1275.41179	0.96124
1273.35799	0.96071
1271.30419	0.96008
1269.25038	0.95941
1267.19658	0.95909
1265.14278	0.95877
1263.08897	0.95815
1261.03517	0.95782
1258.98137	0.95788
1256.92756	0.95780
1254.87376	0.95752
1252.81996	0.95727
1250.76615	0.95703
1248.71235	0.95684
1246.65855	0.95692
1244.60474	0.95703
1242.55094	0.95663
1240.49714	0.95582
1238.44334	0.95507
1236.38953	0.95459
1234.33573	0.95453
1232.28193	0.95445
1230.22812	0.95413
1228.17432	0.95387
1226.12052	0.95335
1224.06671	0.95262
1222.01291	0.95223
1219.95911	0.95206
1217.90530	0.95187
1215.85150	0.95174
1213.79770	0.95155
1211.74389	0.95132
1209.69009	0.95141
1207.63629	0.95148
1205.58248	0.95098
1203.52868	0.95039
1201.47488	0.95018
1199.42107	0.94995
1197.36727	0.94964
1195.31347	0.94907
1193.25966	0.94802
1191.20586	0.94695
1189.15206	0.94603
1187.09825	0.94503
1185.04445	0.94391
1182.99065	0.94257
1180.93685	0.94081
1178.88304	0.93898
1176.82924	0.93742
1174.77544	0.93559
1172.72163	0.93310
1170.66783	0.93052
1168.61403	0.92840
1166.56022	0.92632
1164.50642	0.92384
1162.45262	0.92136
1160.39881	0.91914
1158.34501	0.91718
1156.29121	0.91561
1154.23740	0.91409
1152.18360	0.91214
1150.12980	0.90994
1148.07599	0.90773
1146.02219	0.90552
1143.96839	0.90337
1141.91458	0.90135
1139.86078	0.89937
1137.80698	0.89732
1135.75317	0.89515
1133.69937	0.89271
1131.64557	0.89003
1129.59176	0.88746
1127.53796	0.88488
1125.48416	0.88183
1123.43036	0.87844
1121.37655	0.87521
1119.32275	0.87237
1117.26895	0.86979
1115.21514	0.86741
1113.16134	0.86520
1111.10754	0.86301
1109.05373	0.86096
1106.99993	0.85921
1104.94613	0.85775
1102.89232	0.85652
1100.83852	0.85529
1098.78472	0.85384
1096.73091	0.85236
1094.67711	0.85143
1092.62331	0.85104
1090.56950	0.85021
1088.51570	0.84889
1086.46190	0.84805
1084.40809	0.84761
1082.35429	0.84700
1080.30049	0.84638
1078.24668	0.84593
1076.19288	0.84543
1074.13908	0.84476
1072.08528	0.84378
1070.03147	0.84218
1067.97767	0.83981
1065.92387	0.83700
1063.87006	0.83413
1061.81626	0.83132
1059.76246	0.82834
1057.70865	0.82505
1055.65485	0.82154
1053.60105	0.81754
1051.54724	0.81290
1049.49344	0.80815
1047.43964	0.80354
1045.38583	0.79880
1043.33203	0.79404
1041.27823	0.78962
1039.22442	0.78530
1037.17062	0.78089
1035.11682	0.77683
1033.06301	0.77348
1031.00921	0.77102
1028.95541	0.76980
1026.90160	0.76948
1024.84780	0.76920
1022.79400	0.76887
1020.74019	0.76856
1018.68639	0.76812
1016.63259	0.76754
1014.57879	0.76672
1012.52498	0.76575
1010.47118	0.76457
1008.41738	0.76309
1006.36357	0.76199
1004.30977	0.76168
1002.25597	0.76209
1000.20216	0.76332
998.14836	0.76507
996.09456	0.76689
994.04075	0.76905
991.98695	0.77209
989.93315	0.77584
987.87934	0.77940
985.82554	0.78283
983.77174	0.78702
981.71793	0.79156
979.66413	0.79570
977.61033	0.79964
975.55652	0.80371
973.50272	0.80786
971.44892	0.81191
969.39511	0.81589
967.34131	0.81995
965.28751	0.82365
963.23371	0.82687
961.17990	0.82992
959.12610	0.83298
957.07230	0.83620
955.01849	0.83937
952.96469	0.84223
950.91089	0.84480
948.85708	0.84710
946.80328	0.84926
944.74948	0.85132
942.69567	0.85303
940.64187	0.85427
938.58807	0.85545
936.53426	0.85684
934.48046	0.85824
932.42666	0.85931
930.37285	0.86006
928.31905	0.86067
926.26525	0.86108
924.21144	0.86091
922.15764	0.86008
920.10384	0.85862
918.05003	0.85650
915.99623	0.85441
913.94243	0.85303
911.88862	0.85266
909.83482	0.85379
907.78102	0.85633
905.72722	0.85960
903.67341	0.86328
901.61961	0.86694
899.56581	0.86997
897.51200	0.87285
895.45820	0.87596
893.40440	0.87880
891.35059	0.88136
889.29679	0.88373
887.24299	0.88553
885.18918	0.88687
883.13538	0.88805
881.08158	0.88921
879.02777	0.89038
876.97397	0.89152
874.92017	0.89274
872.86636	0.89408
870.81256	0.89553
868.75876	0.89696
866.70495	0.89853
864.65115	0.90065
862.59735	0.90283
860.54354	0.90448
858.48974	0.90585
856.43594	0.90722
854.38213	0.90807
852.32833	0.90796
850.27453	0.90778
848.22073	0.90879
846.16692	0.91048
844.11312	0.91147
842.05932	0.91178
840.00551	0.91135
837.95171	0.91041
835.89791	0.90991
833.84410	0.90971
831.79030	0.90943
829.73650	0.90932
827.68269	0.90938
825.62889	0.90939
823.57509	0.90933
821.52128	0.90928
819.46748	0.90971
817.41368	0.91068
815.35987	0.91078
813.30607	0.90974
811.25227	0.90878
809.19846	0.90812
807.14466	0.90751
805.09086	0.90621
803.03705	0.90350
800.98325	0.90050
798.92945	0.89850
796.87565	0.89742
794.82184	0.89721
792.76804	0.89783
790.71424	0.89813
788.66043	0.89757
786.60663	0.89711
784.55283	0.89675
782.49902	0.89602
780.44522	0.89545
778.39142	0.89545
776.33761	0.89584
774.28381	0.89601
772.23001	0.89573
770.17620	0.89497
768.12240	0.89380
766.06860	0.89282
764.01479	0.89195
761.96099	0.89115
759.90719	0.89067
757.85338	0.89028
755.79958	0.89002
753.74578	0.88948
751.69197	0.88813
749.63817	0.88710
747.58437	0.88725
745.53056	0.88743
743.47676	0.88722
741.42296	0.88726
739.36916	0.88744
737.31535	0.88800
735.26155	0.88899
733.20775	0.88934
731.15394	0.88905
729.10014	0.88888
727.04634	0.88847
724.99253	0.88761
722.93873	0.88728
720.88493	0.88836
718.83112	0.88953
716.77732	0.88859
714.72352	0.88655
712.66971	0.88533
710.61591	0.88438
708.56211	0.88302
706.50830	0.88146
704.45450	0.87948
702.40070	0.87709
700.34689	0.87508
698.29309	0.87326
696.23929	0.87089
694.18548	0.86891
692.13168	0.86816
690.07788	0.86800
688.02408	0.86769
685.97027	0.86718
683.91647	0.86657
681.86267	0.86536
679.80886	0.86409
677.75506	0.86369
675.70126	0.86338
673.64745	0.86260
671.59365	0.86189
669.53985	0.86035
667.48604	0.85815
665.43224	0.85945
663.37844	0.86191
661.32463	0.86283
659.27083	0.86301
657.21703	0.86362
655.16322	0.86387
653.10942	0.86306
651.05562	0.86174
649.00181	0.86056
646.94801	0.86008
644.89421	0.86021
642.84040	0.86060
640.78660	0.86113
638.73280	0.86118
636.67899	0.86021
634.62519	0.85884
632.57139	0.85816
630.51759	0.85818
628.46378	0.85786
626.40998	0.85720
624.35618	0.85724
622.30237	0.85714
620.24857	0.85628
618.19477	0.85560
616.14096	0.85495
614.08716	0.85377
612.03336	0.85188
609.97955	0.84891
607.92575	0.84523
605.87195	0.84264
603.81814	0.84163
601.76434	0.84065
599.71054	0.83951
597.65673	0.83855
595.60293	0.83816
593.54913	0.83899
591.49532	0.83866
589.44152	0.83582
587.38772	0.83324
585.33391	0.83209
583.28011	0.83204
581.22631	0.83250
579.17250	0.83230
577.11870	0.83175
575.06490	0.83148
573.01110	0.83101
570.95729	0.83022
568.90349	0.82838
566.84969	0.82487
564.79588	0.82137
562.74208	0.81987
560.68828	0.82000
558.63447	0.81897
556.58067	0.81597
554.52687	0.81281
552.47306	0.81019
550.41926	0.80778
548.36546	0.80518
546.31165	0.80238
544.25785	0.79935
542.20405	0.79577
540.15024	0.79235
538.09644	0.78898
536.04264	0.78488
533.98883	0.78161
531.93503	0.77931
529.88123	0.77741
527.82742	0.77788
525.77362	0.77979
523.71982	0.78012
521.66602	0.78021
519.61221	0.78118
517.55841	0.78125
515.50461	0.78088
513.45080	0.78162
511.39700	0.78398
509.34320	0.78720
507.28939	0.78970
505.23559	0.79197
503.18179	0.79317
501.12798	0.79259
499.07418	0.79241
497.02038	0.79335
494.96657	0.79489
492.91277	0.79559
490.85897	0.79376
488.80516	0.79166
486.75136	0.79192
484.69756	0.79058
482.64375	0.78534
480.58995	0.78000
478.53615	0.77519
476.48234	0.77118
474.42854	0.76816
472.37474	0.76191
470.32093	0.75388
468.26713	0.74994
466.21333	0.74859
464.15953	0.74643
462.10572	0.74434
460.05192	0.74503
457.99812	0.74752
455.94431	0.74913
453.89051	0.74929
451.83671	0.74790
449.78290	0.74737
447.72910	0.75007
445.67530	0.75437
443.62149	0.75655
441.56769	0.75479
439.51389	0.75257
437.46008	0.75409
435.40628	0.75694
433.35248	0.75555
431.29867	0.75230
429.24487	0.75241
427.19107	0.75258
425.13726	0.75104
423.08346	0.75214
421.02966	0.75533
418.97585	0.75650
416.92205	0.75156
414.86825	0.74746
412.81445	0.75010
410.76064	0.75700
408.70684	0.76221
406.65304	0.76133
404.59923	0.75641
402.54543	0.75495
400.49163	0.75590
398.43782	0.75360
