3996.70104	0.95871
3994.64724	0.95935
3992.59344	0.95905
3990.53964	0.95880
3988.48583	0.95896
3986.43203	0.95895
3984.37823	0.95912
3982.32442	0.95985
3980.27062	0.96014
3978.21682	0.95990
3976.16301	0.95966
3974.10921	0.95908
3972.05541	0.95854
3970.00160	0.95863
3967.94780	0.95892
3965.89400	0.95888
3963.84019	0.95871
3961.78639	0.95879
3959.73259	0.95897
3957.67878	0.95902
3955.62498	0.95916
3953.57118	0.95947
3951.51737	0.95951
3949.46357	0.95936
3947.40977	0.95935
3945.35596	0.95914
3943.30216	0.95864
3941.24836	0.95842
3939.19455	0.95870
3937.14075	0.95903
3935.08695	0.95876
3933.03315	0.95817
3930.97934	0.95821
3928.92554	0.95856
3926.87174	0.95861
3924.81793	0.95858
3922.76413	0.95859
3920.71033	0.95884
3918.65652	0.95959
3916.60272	0.96003
3914.54892	0.95981
3912.49511	0.95952
3910.44131	0.95931
3908.38751	0.95932
3906.33370	0.95947
3904.27990	0.95915
3902.22610	0.95867
3900.17229	0.95869
3898.11849	0.95881
3896.06469	0.95921
3894.01088	0.95973
3891.95708	0.95971
3889.90328	0.95957
3887.84947	0.95970
3885.79567	0.95946
3883.74187	0.95922
3881.68807	0.95939
3879.63426	0.95932
3877.58046	0.95933
3875.52666	0.95972
3873.47285	0.95985
3871.41905	0.95931
3869.36525	0.95889
3867.31144	0.95908
3865.25764	0.95905
3863.20384	0.95858
3861.15003	0.95823
3859.09623	0.95809
3857.04243	0.95838
3854.98862	0.95881
3852.93482	0.95862
3850.88102	0.95884
3848.82721	0.95947
3846.77341	0.95996
3844.71961	0.96005
3842.66580	0.95996
3840.61200	0.96008
3838.55820	0.95975
3836.50439	0.95931
3834.45059	0.95953
3832.39679	0.95975
3830.34298	0.95968
3828.28918	0.95981
3826.23538	0.96028
3824.18158	0.96046
3822.12777	0.95999
3820.07397	0.95943
3818.02017	0.95940
3815.96636	0.95895
3813.91256	0.95856
3811.85876	0.95941
3809.80495	0.96059
3807.75115	0.96056
3805.69735	0.95987
3803.64354	0.96001
3801.58974	0.95972
3799.53594	0.95870
3797.48213	0.95826
3795.42833	0.95847
3793.37453	0.95925
3791.32072	0.96006
3789.26692	0.96033
3787.21312	0.96002
3785.15931	0.95981
3783.10551	0.96011
3781.05171	0.96031
3778.99790	0.96009
3776.94410	0.95999
3774.89030	0.95991
3772.83650	0.95953
3770.78269	0.95908
3768.72889	0.95892
3766.67509	0.95912
3764.62128	0.95954
3762.56748	0.96034
3760.51368	0.96079
3758.45987	0.96040
3756.40607	0.96030
3754.35227	0.96059
3752.29846	0.96098
3750.24466	0.96119
3748.19086	0.96063
3746.13705	0.95964
3744.08325	0.95870
3742.02945	0.95876
3739.97564	0.95978
3737.92184	0.96120
3735.86804	0.96222
3733.81423	0.96215
3731.76043	0.96143
3729.70663	0.96097
3727.65282	0.96084
3725.59902	0.96064
3723.54522	0.96040
3721.49141	0.96055
3719.43761	0.96081
3717.38381	0.96065
3715.33001	0.96048
3713.27620	0.95998
3711.22240	0.95846
3709.16860	0.95712
3707.11479	0.95626
3705.06099	0.95534
3703.00719	0.95439
3700.95338	0.95325
3698.89958	0.95239
3696.84578	0.95247
3694.79197	0.95307
3692.73817	0.95344
3690.68437	0.95401
3688.63056	0.95496
3686.57676	0.95542
3684.52296	0.95550
3682.46915	0.95536
3680.41535	0.95533
3678.36155	0.95546
3676.30774	0.95486
3674.25394	0.95361
3672.20014	0.95328
3670.14633	0.95338
3668.09253	0.95348
3666.03873	0.95372
3663.98492	0.95359
3661.93112	0.95287
3659.87732	0.95197
3657.82352	0.95173
3655.76971	0.95256
3653.71591	0.95356
3651.66211	0.95349
3649.60830	0.95213
3647.55450	0.95076
3645.50070	0.95010
3643.44689	0.95007
3641.39309	0.95027
3639.33929	0.95041
3637.28548	0.95088
3635.23168	0.95145
3633.17788	0.95127
3631.12407	0.94996
3629.07027	0.94809
3627.01647	0.94777
3624.96266	0.94843
3622.90886	0.94847
3620.85506	0.94792
3618.80125	0.94768
3616.74745	0.94850
3614.69365	0.94938
3612.63984	0.94946
3610.58604	0.94932
3608.53224	0.94977
3606.47844	0.95044
3604.42463	0.95075
3602.37083	0.95052
3600.31703	0.94968
3598.26322	0.94902
3596.20942	0.94915
3594.15562	0.94956
3592.10181	0.94946
3590.04801	0.94892
3587.99421	0.94826
3585.94040	0.94802
3583.88660	0.94823
3581.83280	0.94825
3579.77899	0.94827
3577.72519	0.94855
3575.67139	0.94879
3573.61758	0.94870
3571.56378	0.94855
3569.50998	0.94869
3567.45617	0.94883
3565.40237	0.94845
3563.34857	0.94768
3561.29476	0.94727
3559.24096	0.94736
3557.18716	0.94737
3555.13335	0.94747
3553.07955	0.94791
3551.02575	0.94784
3548.97195	0.94731
3546.91814	0.94727
3544.86434	0.94784
3542.81054	0.94808
3540.75673	0.94761
3538.70293	0.94696
3536.64913	0.94638
3534.59532	0.94573
3532.54152	0.94537
3530.48772	0.94536
3528.43391	0.94550
3526.38011	0.94576
3524.32631	0.94593
3522.27250	0.94601
3520.21870	0.94579
3518.16490	0.94514
3516.11109	0.94457
3514.05729	0.94445
3512.00349	0.94483
3509.94968	0.94526
3507.89588	0.94541
3505.84208	0.94562
3503.78827	0.94589
3501.73447	0.94607
3499.68067	0.94596
3497.62687	0.94545
3495.57306	0.94516
3493.51926	0.94529
3491.46546	0.94515
3489.41165	0.94460
3487.35785	0.94393
3485.30405	0.94348
3483.25024	0.94362
3481.19644	0.94414
3479.14264	0.94435
3477.08883	0.94416
3475.03503	0.94382
3472.98123	0.94390
3470.92742	0.94455
3468.87362	0.94470
3466.81982	0.94405
3464.76601	0.94350
3462.71221	0.94347
3460.65841	0.94353
3458.60460	0.94308
3456.55080	0.94230
3454.49700	0.94188
3452.44319	0.94187
3450.38939	0.94208
3448.33559	0.94251
3446.28178	0.94273
3444.22798	0.94251
3442.17418	0.94201
3440.12038	0.94149
3438.06657	0.94117
3436.01277	0.94130
3433.95897	0.94174
3431.90516	0.94216
3429.85136	0.94236
3427.79756	0.94203
3425.74375	0.94158
3423.68995	0.94154
3421.63615	0.94165
3419.58234	0.94166
3417.52854	0.94150
3415.47474	0.94148
3413.42093	0.94160
3411.36713	0.94128
3409.31333	0.94064
3407.25952	0.93989
3405.20572	0.93922
3403.15192	0.93915
3401.09811	0.93951
3399.04431	0.93987
3396.99051	0.94014
3394.93670	0.94015
3392.88290	0.93997
3390.82910	0.94024
3388.77529	0.94090
3386.72149	0.94124
3384.66769	0.94100
3382.61389	0.94059
3380.56008	0.94037
3378.50628	0.94036
3376.45248	0.94047
3374.39867	0.94051
3372.34487	0.94055
3370.29107	0.94062
3368.23726	0.94069
3366.18346	0.94052
3364.12966	0.94031
3362.07585	0.94067
3360.02205	0.94089
3357.96825	0.94050
3355.91444	0.94025
3353.86064	0.94039
3351.80684	0.94078
3349.75303	0.94141
3347.69923	0.94174
3345.64543	0.94173
3343.59162	0.94172
3341.53782	0.94119
3339.48402	0.94056
3337.43021	0.94078
3335.37641	0.94098
3333.32261	0.94080
3331.26881	0.94110
3329.21500	0.94156
3327.16120	0.94171
3325.10740	0.94168
3323.05359	0.94131
3320.99979	0.94071
3318.94599	0.94053
3316.89218	0.94109
3314.83838	0.94183
3312.78458	0.94197
3310.73077	0.94184
3308.67697	0.94199
3306.62317	0.94241
3304.56936	0.94291
3302.51556	0.94338
3300.46176	0.94369
3298.40795	0.94348
3296.35415	0.94273
3294.30035	0.94224
3292.24654	0.94237
3290.19274	0.94257
3288.13894	0.94262
3286.08513	0.94289
3284.03133	0.94316
3281.97753	0.94330
3279.92372	0.94357
3277.86992	0.94391
3275.81612	0.94403
3273.76232	0.94343
3271.70851	0.94229
3269.65471	0.94202
3267.60091	0.94260
3265.54710	0.94282
3263.49330	0.94285
3261.43950	0.94308
3259.38569	0.94330
3257.33189	0.94332
3255.27809	0.94332
3253.22428	0.94387
3251.17048	0.94469
3249.11668	0.94509
3247.06287	0.94514
3245.00907	0.94515
3242.95527	0.94519
3240.90146	0.94504
3238.84766	0.94480
3236.79386	0.94467
3234.74005	0.94452
3232.68625	0.94455
3230.63245	0.94458
3228.57864	0.94475
3226.52484	0.94567
3224.47104	0.94639
3222.41724	0.94631
3220.36343	0.94604
3218.30963	0.94589
3216.25583	0.94571
3214.20202	0.94546
3212.14822	0.94562
3210.09442	0.94604
3208.04061	0.94624
3205.98681	0.94660
3203.93301	0.94717
3201.87920	0.94748
3199.82540	0.94746
3197.77160	0.94731
3195.71779	0.94708
3193.66399	0.94688
3191.61019	0.94682
3189.55638	0.94678
3187.50258	0.94678
3185.44878	0.94698
3183.39497	0.94730
3181.34117	0.94775
3179.28737	0.94806
3177.23356	0.94787
3175.17976	0.94758
3173.12596	0.94774
3171.07215	0.94828
3169.01835	0.94862
3166.96455	0.94878
3164.91075	0.94910
3162.85694	0.94926
3160.80314	0.94917
3158.74934	0.94916
3156.69553	0.94937
3154.64173	0.94960
3152.58793	0.94961
3150.53412	0.94937
3148.48032	0.94916
3146.42652	0.94929
3144.37271	0.94975
3142.31891	0.95016
3140.26511	0.95006
3138.21130	0.94977
3136.15750	0.94993
3134.10370	0.95033
3132.04989	0.95041
3129.99609	0.95023
3127.94229	0.95008
3125.88848	0.95018
3123.83468	0.95047
3121.78088	0.95063
3119.72707	0.95055
3117.67327	0.95061
3115.61947	0.95086
3113.56566	0.95076
3111.51186	0.95042
3109.45806	0.95035
3107.40426	0.95004
3105.35045	0.94918
3103.29665	0.94883
3101.24285	0.94917
3099.18904	0.94953
3097.13524	0.94978
3095.08144	0.94976
3093.02763	0.94946
3090.97383	0.94890
3088.92003	0.94762
3086.86622	0.94554
3084.81242	0.94358
3082.75862	0.94267
3080.70481	0.94287
3078.65101	0.94351
3076.59721	0.94424
3074.54340	0.94532
3072.48960	0.94665
3070.43580	0.94707
3068.38199	0.94591
3066.32819	0.94385
3064.27439	0.94157
3062.22058	0.93959
3060.16678	0.93860
3058.11298	0.93884
3056.05918	0.94025
3054.00537	0.94216
3051.95157	0.94377
3049.89777	0.94490
3047.84396	0.94573
3045.79016	0.94637
3043.73636	0.94666
3041.68255	0.94656
3039.62875	0.94609
3037.57495	0.94490
3035.52114	0.94292
3033.46734	0.94016
3031.41354	0.93611
3029.35973	0.93065
3027.30593	0.92560
3025.25213	0.92314
3023.19832	0.92383
3021.14452	0.92723
3019.09072	0.93220
3017.03691	0.93712
3014.98311	0.94097
3012.92931	0.94368
3010.87550	0.94555
3008.82170	0.94661
3006.76790	0.94680
3004.71409	0.94624
3002.66029	0.94522
3000.60649	0.94486
2998.55269	0.94600
2996.49888	0.94787
2994.44508	0.94929
2992.39128	0.95015
2990.33747	0.95065
2988.28367	0.95063
2986.22987	0.95043
2984.17606	0.95072
2982.12226	0.95140
2980.06846	0.95179
2978.01465	0.95169
2975.96085	0.95168
2973.90705	0.95212
2971.85324	0.95260
2969.79944	0.95268
2967.74564	0.95233
2965.69183	0.95192
2963.63803	0.95154
2961.58423	0.95107
2959.53042	0.95084
2957.47662	0.95072
2955.42282	0.95008
2953.36901	0.94935
2951.31521	0.94890
2949.26141	0.94812
2947.20761	0.94679
2945.15380	0.94539
2943.10000	0.94398
2941.04620	0.94224
2938.99239	0.94022
2936.93859	0.93791
2934.88479	0.93516
2932.83098	0.93227
2930.77718	0.92923
2928.72338	0.92608
2926.66957	0.92357
2924.61577	0.92207
2922.56197	0.92120
2920.50816	0.92057
2918.45436	0.92028
2916.40056	0.92065
2914.34675	0.92141
2912.29295	0.92236
2910.23915	0.92384
2908.18534	0.92569
2906.13154	0.92738
2904.07774	0.92906
2902.02393	0.93100
2899.97013	0.93292
2897.91633	0.93475
2895.86252	0.93650
2893.80872	0.93778
2891.75492	0.93854
2889.70112	0.93919
2887.64731	0.93995
2885.59351	0.94078
2883.53971	0.94153
2881.48590	0.94209
2879.43210	0.94256
2877.37830	0.94321
2875.32449	0.94423
2873.27069	0.94520
2871.21689	0.94590
2869.16308	0.94641
2867.10928	0.94639
2865.05548	0.94588
2863.00167	0.94538
2860.94787	0.94467
2858.89407	0.94345
2856.84026	0.94225
2854.78646	0.94129
2852.73266	0.94029
2850.67885	0.93932
2848.62505	0.93884
2846.57125	0.93902
2844.51744	0.93978
2842.46364	0.94113
2840.40984	0.94274
2838.35603	0.94446
2836.30223	0.94610
2834.24843	0.94711
2832.19463	0.94776
2830.14082	0.94838
2828.08702	0.94886
2826.03322	0.94939
2823.97941	0.95000
2821.92561	0.95034
2819.87181	0.95035
2817.81800	0.95028
2815.76420	0.95016
2813.71040	0.95005
2811.65659	0.95041
2809.60279	0.95107
2807.54899	0.95136
2805.49518	0.95142
2803.44138	0.95154
2801.38758	0.95166
2799.33377	0.95181
2797.27997	0.95186
2795.22617	0.95175
2793.17236	0.95167
2791.11856	0.95180
2789.06476	0.95211
2787.01095	0.95240
2784.95715	0.95247
2782.90335	0.95246
2780.84955	0.95257
2778.79574	0.95255
2776.74194	0.95236
2774.68814	0.95232
2772.63433	0.95245
2770.58053	0.95256
2768.52673	0.95274
2766.47292	0.95300
2764.41912	0.95320
2762.36532	0.95346
2760.31151	0.95351
2758.25771	0.95343
2756.20391	0.95356
2754.15010	0.95364
2752.09630	0.95360
2750.04250	0.95344
2747.98869	0.95318
2745.93489	0.95322
2743.88109	0.95355
2741.82728	0.95369
2739.77348	0.95352
2737.71968	0.95339
2735.66587	0.95338
2733.61207	0.95304
2731.55827	0.95264
2729.50446	0.95292
2727.45066	0.95355
2725.39686	0.95371
2723.34306	0.95356
2721.28925	0.95354
2719.23545	0.95341
2717.18165	0.95325
2715.12784	0.95351
2713.07404	0.95395
2711.02024	0.95409
2708.96643	0.95401
2706.91263	0.95399
2704.85883	0.95406
2702.80502	0.95406
2700.75122	0.95381
2698.69742	0.95347
2696.64361	0.95335
2694.58981	0.95345
2692.53601	0.95364
2690.48220	0.95380
2688.42840	0.95385
2686.37460	0.95395
2684.32079	0.95428
2682.26699	0.95447
2680.21319	0.95423
2678.15938	0.95396
2676.10558	0.95380
2674.05178	0.95359
2671.99797	0.95349
2669.94417	0.95375
2667.89037	0.95413
2665.83657	0.95408
2663.78276	0.95364
2661.72896	0.95352
2659.67516	0.95384
2657.62135	0.95414
2655.56755	0.95416
2653.51375	0.95420
2651.45994	0.95447
2649.40614	0.95449
2647.35234	0.95419
2645.29853	0.95404
2643.24473	0.95401
2641.19093	0.95387
2639.13712	0.95359
2637.08332	0.95330
2635.02952	0.95313
2632.97571	0.95315
2630.92191	0.95372
2628.86811	0.95472
2626.81430	0.95519
2624.76050	0.95493
2622.70670	0.95467
2620.65289	0.95466
2618.59909	0.95464
2616.54529	0.95478
2614.49149	0.95510
2612.43768	0.95516
2610.38388	0.95482
2608.33008	0.95418
2606.27627	0.95376
2604.22247	0.95405
2602.16867	0.95450
2600.11486	0.95465
2598.06106	0.95480
2596.00726	0.95486
2593.95345	0.95500
2591.89965	0.95531
2589.84585	0.95542
2587.79204	0.95563
2585.73824	0.95570
2583.68444	0.95518
2581.63063	0.95476
2579.57683	0.95506
2577.52303	0.95553
2575.46922	0.95587
2573.41542	0.95641
2571.36162	0.95670
2569.30781	0.95635
2567.25401	0.95589
2565.20021	0.95578
2563.14640	0.95580
2561.09260	0.95525
2559.03880	0.95453
2556.98500	0.95452
2554.93119	0.95491
2552.87739	0.95508
2550.82359	0.95490
2548.76978	0.95485
2546.71598	0.95543
2544.66218	0.95613
2542.60837	0.95648
2540.55457	0.95643
2538.50077	0.95622
2536.44696	0.95629
2534.39316	0.95647
2532.33936	0.95650
2530.28555	0.95625
2528.23175	0.95534
2526.17795	0.95467
2524.12414	0.95530
2522.07034	0.95616
2520.01654	0.95620
2517.96273	0.95578
2515.90893	0.95541
2513.85513	0.95502
2511.80132	0.95456
2509.74752	0.95516
2507.69372	0.95658
2505.63992	0.95677
2503.58611	0.95615
2501.53231	0.95650
2499.47851	0.95692
2497.42470	0.95636
2495.37090	0.95569
2493.31710	0.95568
2491.26329	0.95609
2489.20949	0.95618
2487.15569	0.95594
2485.10188	0.95593
2483.04808	0.95621
2480.99428	0.95659
2478.94047	0.95689
2476.88667	0.95704
2474.83287	0.95713
2472.77906	0.95696
2470.72526	0.95663
2468.67146	0.95665
2466.61765	0.95680
2464.56385	0.95675
2462.51005	0.95677
2460.45624	0.95700
2458.40244	0.95716
2456.34864	0.95698
2454.29483	0.95636
2452.24103	0.95569
2450.18723	0.95532
2448.13343	0.95501
2446.07962	0.95480
2444.02582	0.95524
2441.97202	0.95618
2439.91821	0.95685
2437.86441	0.95709
2435.81061	0.95725
2433.75680	0.95753
2431.70300	0.95775
2429.64920	0.95775
2427.59539	0.95775
2425.54159	0.95732
2423.48779	0.95655
2421.43398	0.95673
2419.38018	0.95725
2417.32638	0.95705
2415.27257	0.95668
2413.21877	0.95659
2411.16497	0.95668
2409.11116	0.95710
2407.05736	0.95766
2405.00356	0.95763
2402.94975	0.95724
2400.89595	0.95721
2398.84215	0.95724
2396.78834	0.95701
2394.73454	0.95679
2392.68074	0.95667
2390.62694	0.95672
2388.57313	0.95712
2386.51933	0.95760
2384.46553	0.95773
2382.41172	0.95764
2380.35792	0.95789
2378.30412	0.95803
2376.25031	0.95756
2374.19651	0.95722
2372.14271	0.95735
2370.08890	0.95759
2368.03510	0.95743
2365.98130	0.95628
2363.92749	0.95491
2361.87369	0.95515
2359.81989	0.95663
2357.76608	0.95658
2355.71228	0.95543
2353.65848	0.95523
2351.60467	0.95570
2349.55087	0.95586
2347.49707	0.95587
2345.44326	0.95652
2343.38946	0.95696
2341.33566	0.95608
2339.28186	0.95544
2337.22805	0.95592
2335.17425	0.95618
2333.12045	0.95530
2331.06664	0.95433
2329.01284	0.95435
2326.95904	0.95496
2324.90523	0.95518
2322.85143	0.95532
2320.79763	0.95592
2318.74382	0.95621
2316.69002	0.95621
2314.63622	0.95632
2312.58241	0.95593
2310.52861	0.95509
2308.47481	0.95465
2306.42100	0.95450
2304.36720	0.95469
2302.31340	0.95567
2300.25959	0.95678
2298.20579	0.95719
2296.15199	0.95698
2294.09818	0.95647
2292.04438	0.95612
2289.99058	0.95634
2287.93677	0.95658
2285.88297	0.95596
2283.82917	0.95480
2281.77537	0.95450
2279.72156	0.95525
2277.66776	0.95622
2275.61396	0.95711
2273.56015	0.95748
2271.50635	0.95744
2269.45255	0.95723
2267.39874	0.95672
2265.34494	0.95636
2263.29114	0.95658
2261.23733	0.95709
2259.18353	0.95735
2257.12973	0.95663
2255.07592	0.95525
2253.02212	0.95471
2250.96832	0.95503
2248.91451	0.95606
2246.86071	0.95737
2244.80691	0.95750
2242.75310	0.95671
2240.69930	0.95637
2238.64550	0.95708
2236.59169	0.95791
2234.53789	0.95817
2232.48409	0.95874
2230.43029	0.95969
2228.37648	0.95948
2226.32268	0.95932
2224.26888	0.96102
2222.21507	0.96185
2220.16127	0.96003
2218.10747	0.95834
2216.05366	0.95959
2213.99986	0.96149
2211.94606	0.96104
2209.89225	0.96041
2207.83845	0.96118
2205.78465	0.96186
2203.73084	0.96087
2201.67704	0.95930
2199.62324	0.95920
2197.56943	0.95957
2195.51563	0.95942
2193.46183	0.95888
2191.40802	0.95771
2189.35422	0.95706
2187.30042	0.95766
2185.24661	0.95780
2183.19281	0.95653
2181.13901	0.95591
2179.08520	0.95685
2177.03140	0.95728
2174.97760	0.95733
2172.92380	0.95787
2170.86999	0.95764
2168.81619	0.95772
2166.76239	0.95977
2164.70858	0.96180
2162.65478	0.96162
2160.60098	0.96092
2158.54717	0.96231
2156.49337	0.96578
2154.43957	0.96787
2152.38576	0.96614
2150.33196	0.96387
2148.27816	0.96406
2146.22435	0.96514
2144.17055	0.96557
2142.11675	0.96544
2140.06294	0.96469
2138.00914	0.96383
2135.95534	0.96336
2133.90153	0.96231
2131.84773	0.96107
2129.79393	0.96066
2127.74012	0.96073
2125.68632	0.96117
2123.63252	0.96147
2121.57871	0.96109
2119.52491	0.96025
2117.47111	0.95894
2115.41731	0.95772
2113.36350	0.95777
2111.30970	0.95866
2109.25590	0.95912
2107.20209	0.95909
2105.14829	0.95874
2103.09449	0.95819
2101.04068	0.95797
2098.98688	0.95803
2096.93308	0.95884
2094.87927	0.96057
2092.82547	0.96114
2090.77167	0.96054
2088.71786	0.96025
2086.66406	0.96003
2084.61026	0.96015
2082.55645	0.96045
2080.50265	0.96024
2078.44885	0.95944
2076.39504	0.95793
2074.34124	0.95760
2072.28744	0.95926
2070.23363	0.96011
2068.17983	0.95892
2066.12603	0.95728
2064.07223	0.95654
2062.01842	0.95731
2059.96462	0.95924
2057.91082	0.96026
2055.85701	0.96006
2053.80321	0.95964
2051.74941	0.95992
2049.69560	0.96213
2047.64180	0.96327
2045.58800	0.96204
2043.53419	0.96224
2041.48039	0.96355
2039.42659	0.96361
2037.37278	0.96192
2035.31898	0.95947
2033.26518	0.95784
2031.21137	0.95811
2029.15757	0.95945
2027.10377	0.95844
2025.04996	0.95619
2022.99616	0.95729
2020.94236	0.96000
2018.88855	0.96099
2016.83475	0.96084
2014.78095	0.96024
2012.72714	0.96000
2010.67334	0.96067
2008.61954	0.96210
2006.56574	0.96333
2004.51193	0.96236
2002.45813	0.96082
2000.40433	0.96054
1998.35052	0.96098
1996.29672	0.96179
1994.24292	0.96108
1992.18911	0.95916
1990.13531	0.95918
1988.08151	0.96055
1986.02770	0.96107
1983.97390	0.96052
1981.92010	0.95949
1979.86629	0.95935
1977.81249	0.96006
1975.75869	0.95911
1973.70488	0.95758
1971.65108	0.95762
1969.59728	0.95828
1967.54347	0.95820
1965.48967	0.95802
1963.43587	0.95993
1961.38206	0.96134
1959.32826	0.96001
1957.27446	0.95900
1955.22066	0.95917
1953.16685	0.96013
1951.11305	0.96073
1949.05925	0.95967
1947.00544	0.95883
1944.95164	0.95865
1942.89784	0.95840
1940.84403	0.95836
1938.79023	0.95752
1936.73643	0.95620
1934.68262	0.95640
1932.62882	0.95791
1930.57502	0.95888
1928.52121	0.95896
1926.46741	0.95904
1924.41361	0.95917
1922.35980	0.95901
1920.30600	0.95865
1918.25220	0.95903
1916.19839	0.96019
1914.14459	0.96066
1912.09079	0.96041
1910.03698	0.95962
1907.98318	0.95868
1905.92938	0.95842
1903.87557	0.95877
1901.82177	0.95940
1899.76797	0.95987
1897.71417	0.96044
1895.66036	0.96118
1893.60656	0.96065
1891.55276	0.95924
1889.49895	0.95872
1887.44515	0.95852
1885.39135	0.95801
1883.33754	0.95741
1881.28374	0.95653
1879.22994	0.95597
1877.17613	0.95608
1875.12233	0.95603
1873.06853	0.95554
1871.01472	0.95508
1868.96092	0.95486
1866.90712	0.95532
1864.85331	0.95659
1862.79951	0.95740
1860.74571	0.95728
1858.69190	0.95719
1856.63810	0.95734
1854.58430	0.95756
1852.53049	0.95818
1850.47669	0.95875
1848.42289	0.95843
1846.36908	0.95812
1844.31528	0.95894
1842.26148	0.95940
1840.20768	0.95875
1838.15387	0.95795
1836.10007	0.95786
1834.04627	0.95868
1831.99246	0.95935
1829.93866	0.95923
1827.88486	0.95875
1825.83105	0.95822
1823.77725	0.95806
1821.72345	0.95833
1819.66964	0.95842
1817.61584	0.95814
1815.56204	0.95756
1813.50823	0.95686
1811.45443	0.95606
1809.40063	0.95545
1807.34682	0.95588
1805.29302	0.95664
1803.23922	0.95645
1801.18541	0.95577
1799.13161	0.95573
1797.07781	0.95618
1795.02400	0.95654
1792.97020	0.95667
1790.91640	0.95673
1788.86260	0.95700
1786.80879	0.95752
1784.75499	0.95814
1782.70119	0.95855
1780.64738	0.95849
1778.59358	0.95835
1776.53978	0.95834
1774.48597	0.95826
1772.43217	0.95806
1770.37837	0.95783
1768.32456	0.95777
1766.27076	0.95804
1764.21696	0.95858
1762.16315	0.95882
1760.10935	0.95832
1758.05555	0.95779
1756.00174	0.95742
1753.94794	0.95704
1751.89414	0.95677
1749.84033	0.95655
1747.78653	0.95629
1745.73273	0.95616
1743.67892	0.95637
1741.62512	0.95664
1739.57132	0.95664
1737.51751	0.95654
1735.46371	0.95627
1733.40991	0.95595
1731.35611	0.95612
1729.30230	0.95628
1727.24850	0.95621
1725.19470	0.95607
1723.14089	0.95595
1721.08709	0.95596
1719.03329	0.95606
1716.97948	0.95629
1714.92568	0.95664
1712.87188	0.95688
1710.81807	0.95705
1708.76427	0.95725
1706.71047	0.95706
1704.65666	0.95652
1702.60286	0.95620
1700.54906	0.95566
1698.49525	0.95490
1696.44145	0.95454
1694.38765	0.95453
1692.33384	0.95460
1690.28004	0.95445
1688.22624	0.95400
1686.17243	0.95331
1684.11863	0.95226
1682.06483	0.95144
1680.01103	0.95120
1677.95722	0.95097
1675.90342	0.95044
1673.84962	0.94998
1671.79581	0.94961
1669.74201	0.94881
1667.68821	0.94830
1665.63440	0.94831
1663.58060	0.94827
1661.52680	0.94815
1659.47299	0.94814
1657.41919	0.94815
1655.36539	0.94799
1653.31158	0.94741
1651.25778	0.94729
1649.20398	0.94767
1647.15017	0.94774
1645.09637	0.94776
1643.04257	0.94820
1640.98876	0.94869
1638.93496	0.94915
1636.88116	0.94947
1634.82735	0.94938
1632.77355	0.94912
1630.71975	0.94902
1628.66594	0.94909
1626.61214	0.94915
1624.55834	0.94916
1622.50454	0.94936
1620.45073	0.94954
1618.39693	0.94949
1616.34313	0.94936
1614.28932	0.94920
1612.23552	0.94848
1610.18172	0.94671
1608.12791	0.94357
1606.07411	0.93867
1604.02031	0.93229
1601.96650	0.92683
1599.91270	0.92597
1597.85890	0.92994
1595.80509	0.93549
1593.75129	0.94013
1591.69749	0.94335
1589.64368	0.94519
1587.58988	0.94545
1585.53608	0.94429
1583.48227	0.94312
1581.42847	0.94398
1579.37467	0.94655
1577.32086	0.94869
1575.26706	0.94970
1573.21326	0.95066
1571.15945	0.95169
1569.10565	0.95245
1567.05185	0.95297
1564.99805	0.95344
1562.94424	0.95386
1560.89044	0.95420
1558.83664	0.95376
1556.78283	0.95339
1554.72903	0.95393
1552.67523	0.95424
1550.62142	0.95406
1548.56762	0.95362
1546.51382	0.95320
1544.46001	0.95303
1542.40621	0.95318
1540.35241	0.95384
1538.29860	0.95457
1536.24480	0.95466
1534.19100	0.95448
1532.13719	0.95457
1530.08339	0.95520
1528.02959	0.95601
1525.97578	0.95665
1523.92198	0.95724
1521.86818	0.95762
1519.81437	0.95756
1517.76057	0.95753
1515.70677	0.95792
1513.65297	0.95857
1511.59916	0.95910
1509.54536	0.95933
1507.49156	0.95888
1505.43775	0.95784
1503.38395	0.95704
1501.33015	0.95541
1499.27634	0.94982
1497.22254	0.93296
1495.16874	0.90682
1493.11493	0.88991
1491.06113	0.89145
1489.00733	0.90976
1486.95352	0.92748
1484.89972	0.93720
1482.84592	0.94303
1480.79211	0.94689
1478.73831	0.94926
1476.68451	0.95071
1474.63070	0.95163
1472.57690	0.95207
1470.52310	0.95233
1468.46929	0.95275
1466.41549	0.95315
1464.36169	0.95291
1462.30788	0.95210
1460.25408	0.95073
1458.20028	0.94327
1456.14648	0.92007
1454.09267	0.89707
1452.03887	0.88632
1449.98507	0.88796
1447.93126	0.89742
1445.87746	0.90706
1443.82366	0.91488
1441.76985	0.92173
1439.71605	0.92705
1437.66225	0.93163
1435.60844	0.93649
1433.55464	0.94036
1431.50084	0.94330
1429.44703	0.94587
1427.39323	0.94760
1425.33943	0.94838
1423.28562	0.94896
1421.23182	0.94959
1419.17802	0.94993
1417.12421	0.95025
1415.07041	0.95078
1413.01661	0.95114
1410.96280	0.95130
1408.90900	0.95174
1406.85520	0.95249
1404.80139	0.95302
1402.74759	0.95337
1400.69379	0.95369
1398.63999	0.95370
1396.58618	0.95345
1394.53238	0.95302
1392.47858	0.95243
1390.42477	0.95201
1388.37097	0.95160
1386.31717	0.95067
1384.26336	0.94933
1382.20956	0.94819
1380.15576	0.94734
1378.10195	0.94639
1376.04815	0.94533
1373.99435	0.94457
1371.94054	0.94434
1369.88674	0.94434
1367.83294	0.94422
1365.77913	0.94402
1363.72533	0.94409
1361.67153	0.94469
1359.61772	0.94547
1357.56392	0.94609
1355.51012	0.94651
1353.45631	0.94664
1351.40251	0.94682
1349.34871	0.94727
1347.29491	0.94762
1345.24110	0.94790
1343.18730	0.94840
1341.13350	0.94897
1339.07969	0.94923
1337.02589	0.94893
1334.97209	0.94833
1332.91828	0.94797
1330.86448	0.94777
1328.81068	0.94740
1326.75687	0.94718
1324.70307	0.94745
1322.64927	0.94785
1320.59546	0.94782
1318.54166	0.94763
1316.48786	0.94758
1314.43405	0.94740
1312.38025	0.94717
1310.32645	0.94723
1308.27264	0.94757
1306.21884	0.94813
1304.16504	0.94859
1302.11123	0.94884
1300.05743	0.94912
1298.00363	0.94954
1295.94982	0.94994
1293.89602	0.95007
1291.84222	0.94993
1289.78842	0.95000
1287.73461	0.95040
1285.68081	0.95055
1283.62701	0.95027
1281.57320	0.95001
1279.51940	0.94997
1277.46560	0.95008
1275.41179	0.95026
1273.35799	0.95039
1271.30419	0.95050
1269.25038	0.95067
1267.19658	0.95097
1265.14278	0.95139
1263.08897	0.95162
1261.03517	0.95169
1258.98137	0.95185
1256.92756	0.95171
1254.87376	0.95115
1252.81996	0.95068
1250.76615	0.95042
1248.71235	0.95026
1246.65855	0.95030
1244.60474	0.95028
1242.55094	0.95024
1240.49714	0.95028
1238.44334	0.95018
1236.38953	0.94997
1234.33573	0.94971
1232.28193	0.94939
1230.22812	0.94892
1228.17432	0.94833
1226.12052	0.94787
1224.06671	0.94754
1222.01291	0.94689
1219.95911	0.94566
1217.90530	0.94451
1215.85150	0.94378
1213.79770	0.94274
1211.74389	0.94101
1209.69009	0.93909
1207.63629	0.93756
1205.58248	0.93630
1203.52868	0.93461
1201.47488	0.93246
1199.42107	0.93032
1197.36727	0.92836
1195.31347	0.92646
1193.25966	0.92446
1191.20586	0.92242
1189.15206	0.92007
1187.09825	0.91715
1185.04445	0.91393
1182.99065	0.91078
1180.93685	0.90838
1178.88304	0.90726
1176.82924	0.90676
1174.77544	0.90598
1172.72163	0.90478
1170.66783	0.90311
1168.61403	0.90123
1166.56022	0.89949
1164.50642	0.89780
1162.45262	0.89600
1160.39881	0.89397
1158.34501	0.89168
1156.29121	0.88939
1154.23740	0.88748
1152.18360	0.88646
1150.12980	0.88638
1148.07599	0.88669
1146.02219	0.88666
1143.96839	0.88617
1141.91458	0.88555
1139.86078	0.88461
1137.80698	0.88357
1135.75317	0.88290
1133.69937	0.88204
1131.64557	0.88060
1129.59176	0.87884
1127.53796	0.87703
1125.48416	0.87509
1123.43036	0.87260
1121.37655	0.86963
1119.32275	0.86653
1117.26895	0.86304
1115.21514	0.85942
1113.16134	0.85617
1111.10754	0.85298
1109.05373	0.85009
1106.99993	0.84810
1104.94613	0.84668
1102.89232	0.84517
1100.83852	0.84335
1098.78472	0.84165
1096.73091	0.84063
1094.67711	0.84002
1092.62331	0.83960
1090.56950	0.83917
1088.51570	0.83827
1086.46190	0.83750
1084.40809	0.83726
1082.35429	0.83690
1080.30049	0.83609
1078.24668	0.83503
1076.19288	0.83359
1074.13908	0.83161
1072.08528	0.82912
1070.03147	0.82628
1067.97767	0.82377
1065.92387	0.82238
1063.87006	0.82189
1061.81626	0.82127
1059.76246	0.82006
1057.70865	0.81834
1055.65485	0.81608
1053.60105	0.81340
1051.54724	0.81074
1049.49344	0.80816
1047.43964	0.80527
1045.38583	0.80210
1043.33203	0.79876
1041.27823	0.79487
1039.22442	0.79061
1037.17062	0.78622
1035.11682	0.78080
1033.06301	0.77380
1031.00921	0.76650
1028.95541	0.76141
1026.90160	0.76012
1024.84780	0.76179
1022.79400	0.76428
1020.74019	0.76646
1018.68639	0.76815
1016.63259	0.76895
1014.57879	0.76914
1012.52498	0.76937
1010.47118	0.76963
1008.41738	0.76975
1006.36357	0.77010
1004.30977	0.77107
1002.25597	0.77303
1000.20216	0.77636
998.14836	0.78063
996.09456	0.78478
994.04075	0.78862
991.98695	0.79294
989.93315	0.79783
987.87934	0.80237
985.82554	0.80664
983.77174	0.81143
981.71793	0.81642
979.66413	0.82144
977.61033	0.82708
975.55652	0.83301
973.50272	0.83842
971.44892	0.84331
969.39511	0.84756
967.34131	0.85081
965.28751	0.85374
963.23371	0.85728
961.17990	0.86147
959.12610	0.86574
957.07230	0.86947
955.01849	0.87244
952.96469	0.87490
950.91089	0.87700
948.85708	0.87871
946.80328	0.88017
944.74948	0.88167
942.69567	0.88331
940.64187	0.88485
938.58807	0.88638
936.53426	0.88854
934.48046	0.89121
932.42666	0.89350
930.37285	0.89535
928.31905	0.89684
926.26525	0.89761
924.21144	0.89793
922.15764	0.89784
920.10384	0.89708
918.05003	0.89608
915.99623	0.89452
913.94243	0.89159
911.88862	0.88795
909.83482	0.88521
907.78102	0.88439
905.72722	0.88607
903.67341	0.89038
901.61961	0.89608
899.56581	0.90153
897.51200	0.90640
895.45820	0.91072
893.40440	0.91382
891.35059	0.91570
889.29679	0.91762
887.24299	0.91997
885.18918	0.92167
883.13538	0.92261
881.08158	0.92373
879.02777	0.92495
876.97397	0.92560
874.92017	0.92587
872.86636	0.92634
870.81256	0.92696
868.75876	0.92798
866.70495	0.92950
864.65115	0.93057
862.59735	0.93109
860.54354	0.93159
858.48974	0.93244
856.43594	0.93364
854.38213	0.93438
852.32833	0.93422
850.27453	0.93330
848.22073	0.93191
846.16692	0.93069
844.11312	0.92982
842.05932	0.92916
840.00551	0.92904
837.95171	0.92954
835.89791	0.93082
833.84410	0.93264
831.79030	0.93407
829.73650	0.93529
827.68269	0.93662
825.62889	0.93741
823.57509	0.93784
821.52128	0.93837
819.46748	0.93859
817.41368	0.93828
815.35987	0.93771
813.30607	0.93718
811.25227	0.93644
809.19846	0.93446
807.14466	0.93099
805.09086	0.92780
803.03705	0.92591
800.98325	0.92399
798.92945	0.92216
796.87565	0.92171
794.82184	0.92231
792.76804	0.92296
790.71424	0.92288
788.66043	0.92171
786.60663	0.91959
784.55283	0.91664
782.49902	0.91294
780.44522	0.90923
778.39142	0.90571
776.33761	0.90143
774.28381	0.89575
772.23001	0.88880
770.17620	0.88022
768.12240	0.86973
766.06860	0.85890
764.01479	0.84840
761.96099	0.83698
759.90719	0.82564
757.85338	0.81706
755.79958	0.81255
753.74578	0.81100
751.69197	0.81063
749.63817	0.81145
747.58437	0.81439
745.53056	0.82131
743.47676	0.83365
741.42296	0.84939
739.36916	0.86464
737.31535	0.87734
735.26155	0.88821
733.20775	0.89803
731.15394	0.90636
729.10014	0.91251
727.04634	0.91636
724.99253	0.91896
722.93873	0.92124
720.88493	0.92372
718.83112	0.92624
716.77732	0.92694
714.72352	0.92500
712.66971	0.92020
710.61591	0.91005
708.56211	0.89003
706.50830	0.85569
704.45450	0.80585
702.40070	0.74343
700.34689	0.67385
698.29309	0.60757
696.23929	0.56702
694.18548	0.57783
692.13168	0.63635
690.07788	0.70765
688.02408	0.76359
685.97027	0.80018
683.91647	0.82342
681.86267	0.83823
679.80886	0.84830
677.75506	0.85605
675.70126	0.86165
673.64745	0.86463
671.59365	0.86609
669.53985	0.86830
667.48604	0.87257
665.43224	0.87637
663.37844	0.87930
661.32463	0.88190
659.27083	0.88340
657.21703	0.88401
655.16322	0.88455
653.10942	0.88489
651.05562	0.88460
649.00181	0.88392
646.94801	0.88386
644.89421	0.88496
642.84040	0.88702
640.78660	0.88951
638.73280	0.89109
636.67899	0.89074
634.62519	0.88946
632.57139	0.88915
630.51759	0.88992
628.46378	0.89015
626.40998	0.88895
624.35618	0.88736
622.30237	0.88619
620.24857	0.88509
618.19477	0.88421
616.14096	0.88334
614.08716	0.88226
612.03336	0.88152
609.97955	0.88069
607.92575	0.87968
605.87195	0.87879
603.81814	0.87740
601.76434	0.87553
599.71054	0.87318
597.65673	0.87048
595.60293	0.86900
593.54913	0.86915
591.49532	0.86994
589.44152	0.87023
587.38772	0.86808
585.33391	0.86469
583.28011	0.86322
581.22631	0.86327
579.17250	0.86318
577.11870	0.86152
575.06490	0.85820
573.01110	0.85554
570.95729	0.85353
568.90349	0.85051
566.84969	0.84721
564.79588	0.84468
562.74208	0.84238
560.68828	0.83858
558.63447	0.83314
556.58067	0.82806
554.52687	0.82281
552.47306	0.81662
550.41926	0.81152
548.36546	0.80746
546.31165	0.80011
544.25785	0.78787
542.20405	0.77521
540.15024	0.76600
538.09644	0.76040
536.04264	0.75906
533.98883	0.76422
531.93503	0.77334
529.88123	0.78172
527.82742	0.78974
525.77362	0.79850
523.71982	0.80521
521.66602	0.81030
519.61221	0.81736
517.55841	0.82353
515.50461	0.82460
513.45080	0.82435
511.39700	0.82764
509.34320	0.83359
507.28939	0.83887
505.23559	0.84244
503.18179	0.84437
501.12798	0.84485
499.07418	0.84492
497.02038	0.84571
494.96657	0.84629
492.91277	0.84529
490.85897	0.84268
488.80516	0.83798
486.75136	0.83223
484.69756	0.82610
482.64375	0.81848
480.58995	0.81070
478.53615	0.80371
476.48234	0.79608
474.42854	0.78918
472.37474	0.78619
470.32093	0.78518
468.26713	0.78247
466.21333	0.77835
464.15953	0.77649
462.10572	0.77964
460.05192	0.78576
457.99812	0.79284
455.94431	0.79928
453.89051	0.80576
451.83671	0.81236
449.78290	0.81427
447.72910	0.81396
445.67530	0.81696
443.62149	0.82130
441.56769	0.82181
439.51389	0.81694
437.46008	0.80943
435.40628	0.80335
433.35248	0.80141
431.29867	0.80346
429.24487	0.80698
427.19107	0.80696
425.13726	0.80374
423.08346	0.80299
421.02966	0.80724
418.97585	0.81569
416.92205	0.82182
414.86825	0.82581
412.81445	0.83237
410.76064	0.83862
408.70684	0.84033
406.65304	0.84043
404.59923	0.84129
402.54543	0.84023
400.49163	0.83777
398.43782	0.83704
