3996.71440	0.98098
3994.66059	0.98077
3992.60678	0.98057
3990.55297	0.98047
3988.49916	0.98061
3986.44535	0.98080
3984.39154	0.98076
3982.33773	0.98064
3980.28391	0.98066
3978.23010	0.98097
3976.17629	0.98131
3974.12248	0.98121
3972.06867	0.98091
3970.01486	0.98093
3967.96105	0.98108
3965.90724	0.98104
3963.85343	0.98091
3961.79962	0.98085
3959.74581	0.98086
3957.69200	0.98091
3955.63819	0.98113
3953.58438	0.98138
3951.53057	0.98135
3949.47676	0.98100
3947.42295	0.98077
3945.36914	0.98086
3943.31533	0.98101
3941.26152	0.98103
3939.20771	0.98081
3937.15390	0.98073
3935.10009	0.98094
3933.04628	0.98072
3930.99247	0.98023
3928.93866	0.98041
3926.88485	0.98084
3924.83104	0.98080
3922.77723	0.98049
3920.72342	0.98032
3918.66961	0.98042
3916.61580	0.98059
3914.56199	0.98057
3912.50818	0.98058
3910.45437	0.98066
3908.40056	0.98072
3906.34675	0.98082
3904.29294	0.98083
3902.23913	0.98053
3900.18532	0.98031
3898.13151	0.98051
3896.07770	0.98082
3894.02389	0.98115
3891.97008	0.98143
3889.91627	0.98154
3887.86246	0.98150
3885.80865	0.98128
3883.75484	0.98110
3881.70103	0.98104
3879.64722	0.98096
3877.59341	0.98125
3875.53960	0.98167
3873.48579	0.98167
3871.43198	0.98120
3869.37817	0.98060
3867.32436	0.98059
3865.27055	0.98097
3863.21674	0.98103
3861.16293	0.98078
3859.10912	0.98052
3857.05531	0.98046
3855.00150	0.98066
3852.94769	0.98107
3850.89388	0.98139
3848.84007	0.98121
3846.78626	0.98082
3844.73245	0.98074
3842.67864	0.98083
3840.62483	0.98098
3838.57102	0.98117
3836.51721	0.98095
3834.46340	0.98069
3832.40959	0.98057
3830.35578	0.98052
3828.30197	0.98070
3826.24816	0.98104
3824.19435	0.98140
3822.14054	0.98143
3820.08673	0.98100
3818.03292	0.98100
3815.97911	0.98114
3813.92530	0.98085
3811.87149	0.98085
3809.81768	0.98124
3807.76387	0.98144
3805.71006	0.98139
3803.65625	0.98147
3801.60244	0.98148
3799.54863	0.98130
3797.49482	0.98119
3795.44101	0.98104
3793.38720	0.98094
3791.33339	0.98095
3789.27958	0.98105
3787.22577	0.98136
3785.17196	0.98169
3783.11815	0.98191
3781.06434	0.98212
3779.01053	0.98209
3776.95672	0.98161
3774.90291	0.98112
3772.84910	0.98110
3770.79529	0.98133
3768.74148	0.98130
3766.68767	0.98104
3764.63386	0.98087
3762.58005	0.98091
3760.52624	0.98106
3758.47243	0.98102
3756.41862	0.98089
3754.36481	0.98105
3752.31100	0.98145
3750.25719	0.98129
3748.20338	0.98075
3746.14957	0.98072
3744.09576	0.98110
3742.04195	0.98157
3739.98814	0.98175
3737.93433	0.98156
3735.88052	0.98133
3733.82671	0.98145
3731.77290	0.98160
3729.71909	0.98169
3727.66528	0.98214
3725.61147	0.98267
3723.55766	0.98269
3721.50385	0.98262
3719.45004	0.98246
3717.39623	0.98206
3715.34242	0.98191
3713.28861	0.98191
3711.23480	0.98148
3709.18099	0.98071
3707.12718	0.98017
3705.07337	0.98014
3703.01956	0.98027
3700.96575	0.98001
3698.91194	0.97985
3696.85813	0.98022
3694.80432	0.98056
3692.75051	0.98084
3690.69670	0.98103
3688.64289	0.98073
3686.58907	0.98068
3684.53526	0.98106
3682.48145	0.98119
3680.42764	0.98087
3678.37383	0.98050
3676.32002	0.98028
3674.26621	0.98032
3672.21240	0.98055
3670.15859	0.98045
3668.10478	0.98012
3666.05097	0.98003
3663.99716	0.98005
3661.94335	0.98000
3659.88954	0.97980
3657.83573	0.97952
3655.78192	0.97934
3653.72811	0.97942
3651.67430	0.97984
3649.62049	0.97998
3647.56668	0.97913
3645.51287	0.97854
3643.45906	0.97855
3641.40525	0.97857
3639.35144	0.97851
3637.29763	0.97849
3635.24382	0.97869
3633.19001	0.97913
3631.13620	0.97924
3629.08239	0.97854
3627.02858	0.97779
3624.97477	0.97764
3622.92096	0.97767
3620.86715	0.97764
3618.81334	0.97743
3616.75953	0.97707
3614.70572	0.97671
3612.65191	0.97644
3610.59810	0.97643
3608.54429	0.97629
3606.49048	0.97595
3604.43667	0.97588
3602.38286	0.97586
3600.32905	0.97595
3598.27524	0.97635
3596.22143	0.97668
3594.16762	0.97686
3592.11381	0.97697
3590.06000	0.97693
3588.00619	0.97676
3585.95238	0.97662
3583.89857	0.97652
3581.84476	0.97638
3579.79095	0.97619
3577.73714	0.97620
3575.68333	0.97649
3573.62952	0.97690
3571.57571	0.97727
3569.52190	0.97724
3567.46809	0.97672
3565.41428	0.97618
3563.36047	0.97596
3561.30666	0.97597
3559.25285	0.97611
3557.19904	0.97616
3555.14523	0.97606
3553.09142	0.97592
3551.03761	0.97577
3548.98380	0.97571
3546.92999	0.97586
3544.87618	0.97590
3542.82237	0.97560
3540.76856	0.97522
3538.71475	0.97502
3536.66094	0.97500
3534.60713	0.97483
3532.55332	0.97452
3530.49951	0.97443
3528.44570	0.97455
3526.39189	0.97463
3524.33808	0.97455
3522.28427	0.97430
3520.23046	0.97407
3518.17665	0.97390
3516.12284	0.97371
3514.06903	0.97377
3512.01522	0.97404
3509.96141	0.97418
3507.90760	0.97438
3505.85379	0.97476
3503.79998	0.97481
3501.74617	0.97444
3499.69236	0.97417
3497.63855	0.97402
3495.58474	0.97377
3493.53093	0.97359
3491.47712	0.97347
3489.42331	0.97328
3487.36950	0.97323
3485.31569	0.97324
3483.26188	0.97304
3481.20807	0.97312
3479.15426	0.97348
3477.10045	0.97340
3475.04664	0.97312
3472.99283	0.97303
3470.93902	0.97280
3468.88521	0.97237
3466.83140	0.97195
3464.77759	0.97174
3462.72378	0.97190
3460.66997	0.97218
3458.61616	0.97227
3456.56235	0.97230
3454.50854	0.97232
3452.45473	0.97201
3450.40092	0.97158
3448.34711	0.97132
3446.29330	0.97129
3444.23949	0.97158
3442.18568	0.97177
3440.13187	0.97176
3438.07806	0.97203
3436.02425	0.97228
3433.97044	0.97209
3431.91663	0.97172
3429.86282	0.97154
3427.80901	0.97166
3425.75520	0.97199
3423.70139	0.97215
3421.64758	0.97190
3419.59377	0.97155
3417.53996	0.97149
3415.48615	0.97157
3413.43234	0.97150
3411.37853	0.97143
3409.32472	0.97141
3407.27091	0.97142
3405.21710	0.97151
3403.16329	0.97142
3401.10948	0.97106
3399.05567	0.97083
3397.00186	0.97084
3394.94805	0.97091
3392.89424	0.97108
3390.84042	0.97119
3388.78661	0.97102
3386.73280	0.97105
3384.67899	0.97149
3382.62518	0.97162
3380.57137	0.97136
3378.51756	0.97118
3376.46375	0.97127
3374.40994	0.97144
3372.35613	0.97137
3370.30232	0.97113
3368.24851	0.97097
3366.19470	0.97096
3364.14089	0.97101
3362.08708	0.97114
3360.03327	0.97119
3357.97946	0.97082
3355.92565	0.97041
3353.87184	0.97041
3351.81803	0.97066
3349.76422	0.97078
3347.71041	0.97078
3345.65660	0.97082
3343.60279	0.97077
3341.54898	0.97067
3339.49517	0.97075
3337.44136	0.97098
3335.38755	0.97111
3333.33374	0.97120
3331.27993	0.97128
3329.22612	0.97116
3327.17231	0.97091
3325.11850	0.97084
3323.06469	0.97105
3321.01088	0.97111
3318.95707	0.97090
3316.90326	0.97080
3314.84945	0.97092
3312.79564	0.97111
3310.74183	0.97113
3308.68802	0.97101
3306.63421	0.97093
3304.58040	0.97091
3302.52659	0.97093
3300.47278	0.97100
3298.41897	0.97097
3296.36516	0.97078
3294.31135	0.97064
3292.25754	0.97051
3290.20373	0.97045
3288.14992	0.97076
3286.09611	0.97106
3284.04230	0.97092
3281.98849	0.97063
3279.93468	0.97049
3277.88087	0.97058
3275.82706	0.97085
3273.77325	0.97108
3271.71944	0.97137
3269.66563	0.97162
3267.61182	0.97155
3265.55801	0.97151
3263.50420	0.97190
3261.45039	0.97222
3259.39658	0.97200
3257.34277	0.97164
3255.28896	0.97163
3253.23515	0.97183
3251.18134	0.97191
3249.12753	0.97201
3247.07372	0.97208
3245.01991	0.97211
3242.96610	0.97233
3240.91229	0.97252
3238.85848	0.97252
3236.80467	0.97259
3234.75086	0.97267
3232.69705	0.97287
3230.64324	0.97317
3228.58943	0.97317
3226.53562	0.97298
3224.48181	0.97296
3222.42800	0.97305
3220.37419	0.97295
3218.32038	0.97292
3216.26657	0.97321
3214.21276	0.97336
3212.15895	0.97314
3210.10514	0.97319
3208.05133	0.97362
3205.99752	0.97389
3203.94371	0.97381
3201.88990	0.97364
3199.83609	0.97350
3197.78228	0.97334
3195.72847	0.97339
3193.67466	0.97372
3191.62085	0.97400
3189.56704	0.97420
3187.51323	0.97433
3185.45942	0.97429
3183.40561	0.97438
3181.35180	0.97475
3179.29799	0.97513
3177.24418	0.97509
3175.19037	0.97482
3173.13656	0.97476
3171.08275	0.97485
3169.02894	0.97491
3166.97513	0.97497
3164.92132	0.97494
3162.86751	0.97481
3160.81370	0.97481
3158.75989	0.97489
3156.70608	0.97487
3154.65227	0.97490
3152.59846	0.97503
3150.54465	0.97509
3148.49084	0.97514
3146.43703	0.97520
3144.38322	0.97507
3142.32941	0.97479
3140.27560	0.97486
3138.22179	0.97530
3136.16798	0.97566
3134.11417	0.97589
3132.06036	0.97585
3130.00655	0.97570
3127.95274	0.97586
3125.89893	0.97601
3123.84512	0.97602
3121.79131	0.97611
3119.73750	0.97609
3117.68369	0.97592
3115.62988	0.97590
3113.57607	0.97593
3111.52226	0.97579
3109.46845	0.97581
3107.41464	0.97600
3105.36083	0.97585
3103.30702	0.97553
3101.25321	0.97551
3099.19940	0.97554
3097.14559	0.97536
3095.09177	0.97515
3093.03796	0.97495
3090.98415	0.97463
3088.93034	0.97428
3086.87653	0.97410
3084.82272	0.97424
3082.76891	0.97459
3080.71510	0.97453
3078.66129	0.97405
3076.60748	0.97380
3074.55367	0.97400
3072.49986	0.97435
3070.44605	0.97441
3068.39224	0.97418
3066.33843	0.97394
3064.28462	0.97389
3062.23081	0.97408
3060.17700	0.97416
3058.12319	0.97408
3056.06938	0.97423
3054.01557	0.97445
3051.96176	0.97427
3049.90795	0.97395
3047.85414	0.97395
3045.80033	0.97416
3043.74652	0.97439
3041.69271	0.97455
3039.63890	0.97439
3037.58509	0.97403
3035.53128	0.97381
3033.47747	0.97378
3031.42366	0.97369
3029.36985	0.97351
3027.31604	0.97339
3025.26223	0.97331
3023.20842	0.97338
3021.15461	0.97357
3019.10080	0.97363
3017.04699	0.97361
3014.99318	0.97366
3012.93937	0.97358
3010.88556	0.97333
3008.83175	0.97311
3006.77794	0.97299
3004.72413	0.97287
3002.67032	0.97276
3000.61651	0.97277
2998.56270	0.97285
2996.50889	0.97284
2994.45508	0.97262
2992.40127	0.97235
2990.34746	0.97218
2988.29365	0.97181
2986.23984	0.97107
2984.18603	0.97030
2982.13222	0.96935
2980.07841	0.96822
2978.02460	0.96742
2975.97079	0.96713
2973.91698	0.96677
2971.86317	0.96592
2969.80936	0.96479
2967.75555	0.96334
2965.70174	0.96124
2963.64793	0.95847
2961.59412	0.95550
2959.54031	0.95266
2957.48650	0.94995
2955.43269	0.94764
2953.37888	0.94584
2951.32507	0.94396
2949.27126	0.94111
2947.21745	0.93639
2945.16364	0.92925
2943.10983	0.91958
2941.05602	0.90775
2939.00221	0.89419
2936.94840	0.87858
2934.89459	0.86013
2932.84078	0.83843
2930.78697	0.81325
2928.73316	0.78373
2926.67935	0.74865
2924.62554	0.70688
2922.57173	0.65814
2920.51792	0.60453
2918.46411	0.55158
2916.41030	0.50948
2914.35649	0.49068
2912.30268	0.50015
2910.24887	0.52990
2908.19506	0.56679
2906.14125	0.60174
2904.08744	0.63111
2902.03363	0.65460
2899.97982	0.67352
2897.92601	0.68951
2895.87220	0.70405
2893.81839	0.71828
2891.76458	0.73294
2889.71077	0.74826
2887.65696	0.76399
2885.60315	0.77997
2883.54934	0.79617
2881.49553	0.81258
2879.44172	0.82916
2877.38791	0.84524
2875.33410	0.85958
2873.28029	0.87092
2871.22648	0.87862
2869.17267	0.88284
2867.11886	0.88356
2865.06505	0.87981
2863.01124	0.87030
2860.95743	0.85362
2858.90362	0.82711
2856.84981	0.78685
2854.79600	0.72968
2852.74219	0.65749
2850.68838	0.58343
2848.63457	0.53234
2846.58076	0.52458
2844.52695	0.55800
2842.47314	0.61348
2840.41933	0.67258
2838.36552	0.72478
2836.31171	0.76673
2834.25790	0.79929
2832.20409	0.82443
2830.15028	0.84391
2828.09647	0.85933
2826.04266	0.87197
2823.98885	0.88258
2821.93504	0.89147
2819.88123	0.89876
2817.82742	0.90482
2815.77361	0.91001
2813.71980	0.91465
2811.66599	0.91884
2809.61218	0.92250
2807.55837	0.92564
2805.50456	0.92824
2803.45075	0.93056
2801.39693	0.93298
2799.34312	0.93540
2797.28931	0.93755
2795.23550	0.93944
2793.18169	0.94118
2791.12788	0.94290
2789.07407	0.94462
2787.02026	0.94620
2784.96645	0.94755
2782.91264	0.94881
2780.85883	0.95020
2778.80502	0.95162
2776.75121	0.95268
2774.69740	0.95339
2772.64359	0.95412
2770.58978	0.95494
2768.53597	0.95586
2766.48216	0.95682
2764.42835	0.95763
2762.37454	0.95821
2760.32073	0.95861
2758.26692	0.95908
2756.21311	0.95976
2754.15930	0.96031
2752.10549	0.96052
2750.05168	0.96062
2747.99787	0.96084
2745.94406	0.96100
2743.89025	0.96098
2741.83644	0.96100
2739.78263	0.96109
2737.72882	0.96124
2735.67501	0.96153
2733.62120	0.96193
2731.56739	0.96236
2729.51358	0.96282
2727.45977	0.96325
2725.40596	0.96355
2723.35215	0.96379
2721.29834	0.96397
2719.24453	0.96399
2717.19072	0.96400
2715.13691	0.96425
2713.08310	0.96472
2711.02929	0.96508
2708.97548	0.96534
2706.92167	0.96567
2704.86786	0.96588
2702.81405	0.96603
2700.76024	0.96639
2698.70643	0.96669
2696.65262	0.96665
2694.59881	0.96643
2692.54500	0.96633
2690.49119	0.96657
2688.43738	0.96700
2686.38357	0.96717
2684.32976	0.96707
2682.27595	0.96702
2680.22214	0.96703
2678.16833	0.96691
2676.11452	0.96668
2674.06071	0.96651
2672.00690	0.96641
2669.95309	0.96615
2667.89928	0.96571
2665.84547	0.96538
2663.79166	0.96525
2661.73785	0.96522
2659.68404	0.96511
2657.63023	0.96473
2655.57642	0.96443
2653.52261	0.96474
2651.46880	0.96540
2649.41499	0.96579
2647.36118	0.96571
2645.30737	0.96543
2643.25356	0.96533
2641.19975	0.96527
2639.14594	0.96507
2637.09213	0.96517
2635.03832	0.96563
2632.98451	0.96582
2630.93070	0.96576
2628.87689	0.96580
2626.82308	0.96601
2624.76927	0.96665
2622.71546	0.96753
2620.66165	0.96817
2618.60784	0.96859
2616.55403	0.96901
2614.50022	0.96946
2612.44641	0.96986
2610.39260	0.96991
2608.33879	0.96984
2606.28498	0.97021
2604.23117	0.97065
2602.17736	0.97079
2600.12355	0.97095
2598.06974	0.97120
2596.01593	0.97131
2593.96212	0.97155
2591.90831	0.97209
2589.85450	0.97254
2587.80069	0.97272
2585.74688	0.97288
2583.69307	0.97311
2581.63926	0.97327
2579.58545	0.97314
2577.53164	0.97292
2575.47783	0.97285
2573.42402	0.97293
2571.37021	0.97317
2569.31640	0.97344
2567.26259	0.97378
2565.20878	0.97402
2563.15497	0.97375
2561.10116	0.97335
2559.04735	0.97344
2556.99354	0.97379
2554.93973	0.97394
2552.88592	0.97385
2550.83211	0.97373
2548.77830	0.97390
2546.72449	0.97434
2544.67068	0.97463
2542.61687	0.97458
2540.56306	0.97453
2538.50925	0.97477
2536.45544	0.97501
2534.40163	0.97498
2532.34782	0.97480
2530.29401	0.97460
2528.24020	0.97460
2526.18639	0.97486
2524.13258	0.97500
2522.07877	0.97502
2520.02496	0.97529
2517.97115	0.97571
2515.91734	0.97593
2513.86353	0.97581
2511.80972	0.97554
2509.75591	0.97553
2507.70210	0.97589
2505.64828	0.97612
2503.59447	0.97624
2501.54066	0.97651
2499.48685	0.97641
2497.43304	0.97601
2495.37923	0.97594
2493.32542	0.97611
2491.27161	0.97626
2489.21780	0.97634
2487.16399	0.97644
2485.11018	0.97646
2483.05637	0.97620
2481.00256	0.97627
2478.94875	0.97670
2476.89494	0.97667
2474.84113	0.97636
2472.78732	0.97648
2470.73351	0.97681
2468.67970	0.97674
2466.62589	0.97656
2464.57208	0.97668
2462.51827	0.97688
2460.46446	0.97688
2458.41065	0.97667
2456.35684	0.97651
2454.30303	0.97657
2452.24922	0.97675
2450.19541	0.97686
2448.14160	0.97674
2446.08779	0.97661
2444.03398	0.97677
2441.98017	0.97702
2439.92636	0.97692
2437.87255	0.97667
2435.81874	0.97685
2433.76493	0.97719
2431.71112	0.97722
2429.65731	0.97740
2427.60350	0.97782
2425.54969	0.97782
2423.49588	0.97732
2421.44207	0.97688
2419.38826	0.97692
2417.33445	0.97717
2415.28064	0.97722
2413.22683	0.97706
2411.17302	0.97702
2409.11921	0.97722
2407.06540	0.97748
2405.01159	0.97762
2402.95778	0.97732
2400.90397	0.97671
2398.85016	0.97646
2396.79635	0.97683
2394.74254	0.97749
2392.68873	0.97781
2390.63492	0.97771
2388.58111	0.97759
2386.52730	0.97755
2384.47349	0.97767
2382.41968	0.97773
2380.36587	0.97759
2378.31206	0.97751
2376.25825	0.97736
2374.20444	0.97726
2372.15063	0.97732
2370.09682	0.97729
2368.04301	0.97730
2365.98920	0.97727
2363.93539	0.97682
2361.88158	0.97635
2359.82777	0.97670
2357.77396	0.97742
2355.72015	0.97704
2353.66634	0.97591
2351.61253	0.97562
2349.55872	0.97604
2347.50491	0.97595
2345.45110	0.97477
2343.39729	0.97353
2341.34348	0.97348
2339.28967	0.97405
2337.23586	0.97460
2335.18205	0.97461
2333.12824	0.97415
2331.07443	0.97370
2329.02062	0.97332
2326.96681	0.97304
2324.91300	0.97292
2322.85919	0.97297
2320.80538	0.97313
2318.75157	0.97348
2316.69776	0.97403
2314.64395	0.97467
2312.59014	0.97568
2310.53633	0.97656
2308.48252	0.97643
2306.42871	0.97564
2304.37490	0.97500
2302.32109	0.97473
2300.26728	0.97493
2298.21347	0.97535
2296.15966	0.97519
2294.10585	0.97467
2292.05204	0.97439
2289.99823	0.97422
2287.94442	0.97430
2285.89061	0.97480
2283.83680	0.97527
2281.78299	0.97538
2279.72918	0.97550
2277.67537	0.97590
2275.62156	0.97628
2273.56775	0.97637
2271.51394	0.97624
2269.46013	0.97630
2267.40632	0.97686
2265.35251	0.97756
2263.29870	0.97761
2261.24489	0.97717
2259.19108	0.97711
2257.13727	0.97730
2255.08346	0.97747
2253.02965	0.97767
2250.97584	0.97776
2248.92203	0.97767
2246.86822	0.97779
2244.81441	0.97823
2242.76060	0.97846
2240.70679	0.97841
2238.65298	0.97797
2236.59917	0.97742
2234.54536	0.97762
2232.49155	0.97795
2230.43774	0.97805
2228.38393	0.97811
2226.33012	0.97797
2224.27631	0.97812
2222.22250	0.97847
2220.16869	0.97843
2218.11488	0.97756
2216.06107	0.97645
2214.00726	0.97651
2211.95344	0.97806
2209.89963	0.98020
2207.84582	0.98099
2205.79201	0.98033
2203.73820	0.97994
2201.68439	0.98017
2199.63058	0.98047
2197.57677	0.98014
2195.52296	0.97930
2193.46915	0.97880
2191.41534	0.97875
2189.36153	0.97916
2187.30772	0.97963
2185.25391	0.97942
2183.20010	0.97866
2181.14629	0.97773
2179.09248	0.97696
2177.03867	0.97703
2174.98486	0.97780
2172.93105	0.97831
2170.87724	0.97845
2168.82343	0.97824
2166.76962	0.97742
2164.71581	0.97666
2162.66200	0.97658
2160.60819	0.97784
2158.55438	0.98078
2156.50057	0.98283
2154.44676	0.98369
2152.39295	0.98466
2150.33914	0.98404
2148.28533	0.98235
2146.23152	0.98157
2144.17771	0.98140
2142.12390	0.98120
2140.07009	0.98091
2138.01628	0.98094
2135.96247	0.98112
2133.90866	0.98135
2131.85485	0.98136
2129.80104	0.98077
2127.74723	0.98031
2125.69342	0.98050
2123.63961	0.98094
2121.58580	0.98071
2119.53199	0.97934
2117.47818	0.97811
2115.42437	0.97808
2113.37056	0.97857
2111.31675	0.97854
2109.26294	0.97797
2107.20913	0.97767
2105.15532	0.97778
2103.10151	0.97797
2101.04770	0.97785
2098.99389	0.97747
2096.94008	0.97765
2094.88627	0.97831
2092.83246	0.97859
2090.77865	0.97865
2088.72484	0.97870
2086.67103	0.97859
2084.61722	0.97838
2082.56341	0.97801
2080.50960	0.97773
2078.45579	0.97799
2076.40198	0.97827
2074.34817	0.97818
2072.29436	0.97839
2070.24055	0.97903
2068.18674	0.97947
2066.13293	0.97974
2064.07912	0.97981
2062.02531	0.97947
2059.97150	0.97894
2057.91769	0.97858
2055.86388	0.97875
2053.81007	0.97875
2051.75626	0.97770
2049.70245	0.97753
2047.64864	0.97896
2045.59483	0.97938
2043.54102	0.97800
2041.48721	0.97583
2039.43340	0.97482
2037.37959	0.97653
2035.32578	0.97873
2033.27197	0.97962
2031.21816	0.98084
2029.16435	0.98168
2027.11054	0.98035
2025.05673	0.97858
2023.00292	0.97842
2020.94911	0.97916
2018.89530	0.98001
2016.84149	0.98108
2014.78768	0.98140
2012.73387	0.98142
2010.68006	0.98164
2008.62625	0.98154
2006.57244	0.98144
2004.51863	0.98101
2002.46482	0.98046
2000.41101	0.98006
1998.35720	0.97952
1996.30339	0.97918
1994.24958	0.97878
1992.19577	0.97784
1990.14196	0.97786
1988.08815	0.97930
1986.03434	0.97939
1983.98053	0.97748
1981.92672	0.97616
1979.87291	0.97651
1977.81910	0.97793
1975.76529	0.97947
1973.71148	0.97971
1971.65767	0.97915
1969.60386	0.97995
1967.55005	0.98213
1965.49624	0.98299
1963.44243	0.98170
1961.38862	0.98063
1959.33481	0.98040
1957.28100	0.97986
1955.22719	0.97951
1953.17338	0.97950
1951.11957	0.97921
1949.06576	0.97890
1947.01195	0.97873
1944.95814	0.97846
1942.90433	0.97811
1940.85052	0.97791
1938.79671	0.97820
1936.74290	0.97901
1934.68909	0.98008
1932.63528	0.98083
1930.58147	0.98099
1928.52766	0.98089
1926.47385	0.98085
1924.42004	0.98107
1922.36623	0.98087
1920.31242	0.98010
1918.25861	0.97973
1916.20479	0.97964
1914.15098	0.97951
1912.09717	0.97940
1910.04336	0.97890
1907.98955	0.97791
1905.93574	0.97742
1903.88193	0.97776
1901.82812	0.97815
1899.77431	0.97808
1897.72050	0.97794
1895.66669	0.97807
1893.61288	0.97798
1891.55907	0.97751
1889.50526	0.97730
1887.45145	0.97774
1885.39764	0.97808
1883.34383	0.97770
1881.29002	0.97738
1879.23621	0.97782
1877.18240	0.97837
1875.12859	0.97834
1873.07478	0.97815
1871.02097	0.97820
1868.96716	0.97849
1866.91335	0.97891
1864.85954	0.97875
1862.80573	0.97812
1860.75192	0.97792
1858.69811	0.97806
1856.64430	0.97816
1854.59049	0.97844
1852.53668	0.97880
1850.48287	0.97867
1848.42906	0.97802
1846.37525	0.97750
1844.32144	0.97758
1842.26763	0.97781
1840.21382	0.97755
1838.16001	0.97718
1836.10620	0.97723
1834.05239	0.97728
1831.99858	0.97698
1829.94477	0.97668
1827.89096	0.97677
1825.83715	0.97710
1823.78334	0.97721
1821.72953	0.97722
1819.67572	0.97745
1817.62191	0.97772
1815.56810	0.97773
1813.51429	0.97756
1811.46048	0.97735
1809.40667	0.97701
1807.35286	0.97657
1805.29905	0.97631
1803.24524	0.97618
1801.19143	0.97606
1799.13762	0.97600
1797.08381	0.97595
1795.03000	0.97590
1792.97619	0.97578
1790.92238	0.97548
1788.86857	0.97517
1786.81476	0.97507
1784.76095	0.97519
1782.70714	0.97531
1780.65333	0.97530
1778.59952	0.97530
1776.54571	0.97533
1774.49190	0.97507
1772.43809	0.97441
1770.38428	0.97391
1768.33047	0.97378
1766.27666	0.97367
1764.22285	0.97354
1762.16904	0.97338
1760.11523	0.97316
1758.06142	0.97282
1756.00761	0.97245
1753.95380	0.97224
1751.89999	0.97186
1749.84618	0.97108
1747.79237	0.97037
1745.73856	0.96977
1743.68475	0.96896
1741.63094	0.96820
1739.57713	0.96770
1737.52332	0.96746
1735.46951	0.96729
1733.41570	0.96677
1731.36189	0.96611
1729.30808	0.96546
1727.25427	0.96444
1725.20046	0.96298
1723.14665	0.96148
1721.09284	0.96058
1719.03903	0.96020
1716.98522	0.95962
1714.93141	0.95909
1712.87760	0.95927
1710.82379	0.95996
1708.76998	0.96085
1706.71617	0.96165
1704.66236	0.96219
1702.60855	0.96258
1700.55474	0.96302
1698.50093	0.96332
1696.44712	0.96344
1694.39331	0.96380
1692.33950	0.96424
1690.28569	0.96452
1688.23188	0.96463
1686.17807	0.96439
1684.12426	0.96365
1682.07045	0.96328
1680.01664	0.96340
1677.96283	0.96346
1675.90902	0.96305
1673.85521	0.96215
1671.80140	0.96149
1669.74759	0.96109
1667.69378	0.96072
1665.63997	0.96052
1663.58616	0.96031
1661.53235	0.95994
1659.47854	0.95967
1657.42473	0.95952
1655.37092	0.95915
1653.31711	0.95859
1651.26330	0.95896
1649.20949	0.95964
1647.15568	0.95988
1645.10187	0.95953
1643.04806	0.95921
1640.99425	0.95925
1638.94044	0.95960
1636.88663	0.96005
1634.83282	0.96056
1632.77901	0.96114
1630.72520	0.96160
1628.67139	0.96187
1626.61758	0.96207
1624.56377	0.96247
1622.50996	0.96306
1620.45614	0.96352
1618.40233	0.96387
1616.34852	0.96431
1614.29471	0.96491
1612.24090	0.96542
1610.18709	0.96573
1608.13328	0.96601
1606.07947	0.96633
1604.02566	0.96657
1601.97185	0.96675
1599.91804	0.96702
1597.86423	0.96725
1595.81042	0.96735
1593.75661	0.96740
1591.70280	0.96734
1589.64899	0.96729
1587.59518	0.96737
1585.54137	0.96745
1583.48756	0.96748
1581.43375	0.96769
1579.37994	0.96804
1577.32613	0.96844
1575.27232	0.96863
1573.21851	0.96845
1571.16470	0.96810
1569.11089	0.96772
1567.05708	0.96758
1565.00327	0.96756
1562.94946	0.96732
1560.89565	0.96690
1558.84184	0.96669
1556.78803	0.96687
1554.73422	0.96690
1552.68041	0.96675
1550.62660	0.96645
1548.57279	0.96603
1546.51898	0.96572
1544.46517	0.96549
1542.41136	0.96520
1540.35755	0.96508
1538.30374	0.96535
1536.24993	0.96563
1534.19612	0.96573
1532.14231	0.96576
1530.08850	0.96600
1528.03469	0.96630
1525.98088	0.96652
1523.92707	0.96669
1521.87326	0.96656
1519.81945	0.96621
1517.76564	0.96599
1515.71183	0.96625
1513.65802	0.96685
1511.60421	0.96709
1509.55040	0.96672
1507.49659	0.96612
1505.44278	0.96629
1503.38897	0.96665
1501.33516	0.96669
1499.28135	0.96648
1497.22754	0.96610
1495.17373	0.96560
1493.11992	0.96514
1491.06611	0.96441
1489.01230	0.96331
1486.95849	0.96211
1484.90468	0.96055
1482.85087	0.95763
1480.79706	0.95129
1478.74325	0.93641
1476.68944	0.89852
1474.63563	0.82782
1472.58182	0.76194
1470.52801	0.75795
1468.47420	0.78468
1466.42039	0.79978
1464.36658	0.79352
1462.31277	0.79252
1460.25896	0.81784
1458.20515	0.86052
1456.15134	0.89659
1454.09753	0.91223
1452.04372	0.92074
1449.98991	0.92720
1447.93610	0.93160
1445.88229	0.93441
1443.82848	0.93634
1441.77467	0.93807
1439.72086	0.93975
1437.66705	0.94128
1435.61324	0.94297
1433.55943	0.94487
1431.50562	0.94703
1429.45181	0.94940
1427.39800	0.95149
1425.34419	0.95324
1423.29038	0.95479
1421.23657	0.95575
1419.18276	0.95617
1417.12895	0.95644
1415.07514	0.95668
1413.02133	0.95685
1410.96752	0.95705
1408.91371	0.95729
1406.85990	0.95762
1404.80609	0.95814
1402.75228	0.95859
1400.69847	0.95906
1398.64466	0.95993
1396.59085	0.96072
1394.53704	0.96085
1392.48323	0.96085
1390.42942	0.96110
1388.37561	0.96122
1386.32180	0.96096
1384.26799	0.96056
1382.21418	0.96017
1380.16037	0.95955
1378.10656	0.95875
1376.05275	0.95804
1373.99894	0.95714
1371.94513	0.95592
1369.89132	0.95499
1367.83751	0.95486
1365.78370	0.95544
1363.72989	0.95620
1361.67608	0.95680
1359.62227	0.95719
1357.56846	0.95744
1355.51465	0.95759
1353.46084	0.95770
1351.40703	0.95790
1349.35322	0.95827
1347.29941	0.95889
1345.24560	0.95969
1343.19179	0.96035
1341.13798	0.96075
1339.08417	0.96104
1337.03036	0.96137
1334.97655	0.96162
1332.92274	0.96177
1330.86893	0.96190
1328.81512	0.96193
1326.76130	0.96177
1324.70749	0.96158
1322.65368	0.96137
1320.59987	0.96097
1318.54606	0.96043
1316.49225	0.95990
1314.43844	0.95941
1312.38463	0.95895
1310.33082	0.95854
1308.27701	0.95816
1306.22320	0.95786
1304.16939	0.95773
1302.11558	0.95770
1300.06177	0.95756
1298.00796	0.95726
1295.95415	0.95696
1293.90034	0.95695
1291.84653	0.95708
1289.79272	0.95706
1287.73891	0.95691
1285.68510	0.95661
1283.63129	0.95613
1281.57748	0.95564
1279.52367	0.95520
1277.46986	0.95473
1275.41605	0.95419
1273.36224	0.95361
1271.30843	0.95297
1269.25462	0.95218
1267.20081	0.95147
1265.14700	0.95084
1263.09319	0.94983
1261.03938	0.94839
1258.98557	0.94664
1256.93176	0.94444
1254.87795	0.94164
1252.82414	0.93780
1250.77033	0.93268
1248.71652	0.92696
1246.66271	0.92209
1244.60890	0.91952
1242.55509	0.91971
1240.50128	0.92185
1238.44747	0.92490
1236.39366	0.92826
1234.33985	0.93141
1232.28604	0.93399
1230.23223	0.93570
1228.17842	0.93627
1226.12461	0.93570
1224.07080	0.93410
1222.01699	0.93144
1219.96318	0.92765
1217.90937	0.92311
1215.85556	0.91901
1213.80175	0.91679
1211.74794	0.91714
1209.69413	0.91899
1207.64032	0.92088
1205.58651	0.92297
1203.53270	0.92601
1201.47889	0.92982
1199.42508	0.93339
1197.37127	0.93594
1195.31746	0.93750
1193.26365	0.93859
1191.20984	0.93949
1189.15603	0.94007
1187.10222	0.94027
1185.04841	0.94030
1182.99460	0.94031
1180.94079	0.94029
1178.88698	0.94038
1176.83317	0.94064
1174.77936	0.94083
1172.72555	0.94083
1170.67174	0.94069
1168.61793	0.94005
1166.56412	0.93887
1164.51031	0.93786
1162.45650	0.93781
1160.40269	0.93863
1158.34888	0.93952
1156.29507	0.93994
1154.24126	0.94011
1152.18745	0.94030
1150.13364	0.94020
1148.07983	0.93991
1146.02602	0.93985
1143.97221	0.93977
1141.91840	0.93934
1139.86459	0.93871
1137.81078	0.93812
1135.75697	0.93748
1133.70316	0.93630
1131.64935	0.93493
1129.59554	0.93426
1127.54173	0.93412
1125.48792	0.93369
1123.43411	0.93271
1121.38030	0.93152
1119.32649	0.93003
1117.27268	0.92791
1115.21887	0.92518
1113.16506	0.92120
1111.11125	0.91505
1109.05744	0.90739
1107.00363	0.90096
1104.94982	0.89873
1102.89601	0.90090
1100.84220	0.90491
1098.78839	0.90805
1096.73458	0.91005
1094.68077	0.91231
1092.62696	0.91488
1090.57315	0.91669
1088.51934	0.91745
1086.46553	0.91779
1084.41172	0.91830
1082.35791	0.91890
1080.30410	0.91914
1078.25029	0.91921
1076.19648	0.91958
1074.14267	0.92023
1072.08886	0.92094
1070.03505	0.92139
1067.98124	0.92139
1065.92743	0.92087
1063.87362	0.91999
1061.81981	0.91942
1059.76600	0.91943
1057.71219	0.91944
1055.65838	0.91904
1053.60457	0.91829
1051.55076	0.91726
1049.49695	0.91608
1047.44314	0.91494
1045.38933	0.91412
1043.33552	0.91393
1041.28171	0.91416
1039.22790	0.91436
1037.17409	0.91419
1035.12028	0.91382
1033.06647	0.91395
1031.01265	0.91455
1028.95884	0.91497
1026.90503	0.91519
1024.85122	0.91557
1022.79741	0.91624
1020.74360	0.91672
1018.68979	0.91640
1016.63598	0.91532
1014.58217	0.91465
1012.52836	0.91533
1010.47455	0.91692
1008.42074	0.91874
1006.36693	0.92047
1004.31312	0.92188
1002.25931	0.92300
1000.20550	0.92351
998.15169	0.92320
996.09788	0.92301
994.04407	0.92349
991.99026	0.92393
989.93645	0.92445
987.88264	0.92611
985.82883	0.92828
983.77502	0.92925
981.72121	0.92895
979.66740	0.92906
977.61359	0.93027
975.55978	0.93110
973.50597	0.92996
971.45216	0.92616
969.39835	0.91991
967.34454	0.91352
965.29073	0.91044
963.23692	0.91217
961.18311	0.91762
959.12930	0.92450
957.07549	0.93064
955.02168	0.93507
952.96787	0.93795
950.91406	0.93990
948.86025	0.94136
946.80644	0.94229
944.75263	0.94285
942.69882	0.94353
940.64501	0.94452
938.59120	0.94575
936.53739	0.94692
934.48358	0.94773
932.42977	0.94825
930.37596	0.94841
928.32215	0.94817
926.26834	0.94801
924.21453	0.94804
922.16072	0.94781
920.10691	0.94737
918.05310	0.94701
915.99929	0.94658
913.94548	0.94563
911.89167	0.94374
909.83786	0.94169
907.78405	0.94135
905.73024	0.94325
903.67643	0.94590
901.62262	0.94805
899.56881	0.94959
897.51500	0.95074
895.46119	0.95146
893.40738	0.95186
891.35357	0.95204
889.29976	0.95211
887.24595	0.95250
885.19214	0.95316
883.13833	0.95358
881.08452	0.95385
879.03071	0.95389
876.97690	0.95361
874.92309	0.95363
872.86928	0.95421
870.81547	0.95479
868.76166	0.95494
866.70785	0.95463
864.65404	0.95369
862.60023	0.95140
860.54642	0.94677
858.49261	0.94041
856.43880	0.93534
854.38499	0.93460
852.33118	0.93826
850.27737	0.94356
848.22356	0.94788
846.16975	0.95043
844.11594	0.95137
842.06213	0.95102
840.00832	0.95031
837.95451	0.95077
835.90070	0.95214
833.84689	0.95292
831.79308	0.95316
829.73927	0.95355
827.68546	0.95395
825.63165	0.95389
823.57784	0.95357
821.52403	0.95339
819.47022	0.95345
817.41641	0.95395
815.36260	0.95467
813.30879	0.95503
811.25498	0.95469
809.20117	0.95395
807.14736	0.95293
805.09355	0.95198
803.03974	0.95183
800.98593	0.95200
798.93212	0.95190
796.87831	0.95206
794.82450	0.95266
792.77069	0.95312
790.71688	0.95295
788.66307	0.95236
786.60926	0.95211
784.55545	0.95179
782.50164	0.95126
780.44783	0.95137
778.39402	0.95176
776.34021	0.95191
774.28640	0.95192
772.23259	0.95177
770.17878	0.95132
768.12497	0.95081
766.07116	0.95096
764.01735	0.95165
761.96354	0.95186
759.90973	0.95177
757.85592	0.95164
755.80211	0.95067
753.74830	0.94928
751.69449	0.94858
749.64068	0.94846
747.58687	0.94827
745.53306	0.94746
743.47925	0.94608
741.42544	0.94440
739.37163	0.94175
737.31781	0.93576
735.26400	0.91953
733.21019	0.88403
731.15638	0.84315
729.10257	0.83011
727.04876	0.84292
724.99495	0.84660
722.94114	0.81903
720.88733	0.76239
718.83352	0.71198
716.77971	0.71048
714.72590	0.75778
712.67209	0.81909
710.61828	0.86398
708.56447	0.88876
706.51066	0.90290
704.45685	0.91214
702.40304	0.91825
700.34923	0.92226
698.29542	0.92448
696.24161	0.92580
694.18780	0.92703
692.13399	0.92790
690.08018	0.92879
688.02637	0.93007
685.97256	0.93108
683.91875	0.93168
681.86494	0.93209
679.81113	0.93246
677.75732	0.93304
675.70351	0.93348
673.64970	0.93357
671.59589	0.93354
669.54208	0.93350
667.48827	0.93350
665.43446	0.93377
663.38065	0.93429
661.32684	0.93469
659.27303	0.93472
657.21922	0.93455
655.16541	0.93448
653.11160	0.93450
651.05779	0.93423
649.00398	0.93327
646.95017	0.93242
644.89636	0.93270
642.84255	0.93357
640.78874	0.93380
638.73493	0.93332
636.68112	0.93257
634.62731	0.93145
632.57350	0.93053
630.51969	0.92915
628.46588	0.92484
626.41207	0.91802
624.35826	0.91422
622.30445	0.91684
620.25064	0.92183
618.19683	0.92478
616.14302	0.92557
614.08921	0.92559
612.03540	0.92615
609.98159	0.92711
607.92778	0.92691
605.87397	0.92622
603.82016	0.92646
601.76635	0.92715
599.71254	0.92757
597.65873	0.92739
595.60492	0.92705
593.55111	0.92624
591.49730	0.92375
589.44349	0.91963
587.38968	0.91687
585.33587	0.91858
583.28206	0.92235
581.22825	0.92410
579.17444	0.92448
577.12063	0.92573
575.06682	0.92758
573.01301	0.92822
570.95920	0.92792
568.90539	0.92802
566.85158	0.92823
564.79777	0.92772
562.74396	0.92625
560.69015	0.92502
558.63634	0.92525
556.58253	0.92566
554.52872	0.92567
552.47491	0.92639
550.42110	0.92744
548.36729	0.92761
546.31348	0.92696
544.25967	0.92617
542.20586	0.92529
540.15205	0.92420
538.09824	0.92338
536.04443	0.92319
533.99062	0.92334
531.93681	0.92400
529.88300	0.92478
527.82919	0.92481
525.77538	0.92441
523.72157	0.92386
521.66776	0.92362
519.61395	0.92445
517.56014	0.92546
515.50633	0.92544
513.45252	0.92475
511.39871	0.92413
509.34490	0.92464
507.29109	0.92662
505.23728	0.92869
503.18347	0.92989
501.12966	0.92904
499.07585	0.92612
497.02204	0.92388
494.96823	0.92382
492.91442	0.92464
490.86061	0.92508
488.80680	0.92488
486.75299	0.92430
484.69918	0.92328
482.64537	0.92153
480.59156	0.92044
478.53775	0.91946
476.48394	0.91707
474.43013	0.91535
472.37632	0.91491
470.32251	0.91286
468.26870	0.91029
466.21489	0.91111
464.16108	0.91459
462.10727	0.91710
460.05346	0.91851
457.99965	0.91989
455.94584	0.92034
453.89203	0.91979
451.83822	0.91874
449.78441	0.91827
447.73060	0.91942
445.67679	0.92170
443.62298	0.92380
441.56916	0.92275
439.51535	0.91847
437.46154	0.91520
435.40773	0.91576
433.35392	0.91896
431.30011	0.92174
429.24630	0.92305
427.19249	0.92448
425.13868	0.92657
423.08487	0.92742
421.03106	0.92723
418.97725	0.92733
416.92344	0.92770
414.86963	0.92700
412.81582	0.92451
410.76201	0.92250
408.70820	0.92380
406.65439	0.92798
404.60058	0.93085
402.54677	0.93015
400.49296	0.92767
398.43915	0.92489
