3996.70104	0.96873
3994.64724	0.96836
3992.59344	0.96756
3990.53964	0.96730
3988.48583	0.96751
3986.43203	0.96761
3984.37823	0.96753
3982.32442	0.96746
3980.27062	0.96753
3978.21682	0.96755
3976.16301	0.96733
3974.10921	0.96709
3972.05541	0.96702
3970.00160	0.96685
3967.94780	0.96645
3965.89400	0.96632
3963.84019	0.96646
3961.78639	0.96681
3959.73259	0.96712
3957.67878	0.96704
3955.62498	0.96688
3953.57118	0.96685
3951.51737	0.96687
3949.46357	0.96679
3947.40977	0.96665
3945.35596	0.96683
3943.30216	0.96713
3941.24836	0.96706
3939.19455	0.96693
3937.14075	0.96688
3935.08695	0.96654
3933.03315	0.96614
3930.97934	0.96650
3928.92554	0.96743
3926.87174	0.96803
3924.81793	0.96785
3922.76413	0.96743
3920.71033	0.96762
3918.65652	0.96809
3916.60272	0.96816
3914.54892	0.96791
3912.49511	0.96762
3910.44131	0.96778
3908.38751	0.96822
3906.33370	0.96803
3904.27990	0.96764
3902.22610	0.96838
3900.17229	0.96879
3898.11849	0.96807
3896.06469	0.96761
3894.01088	0.96757
3891.95708	0.96774
3889.90328	0.96806
3887.84947	0.96822
3885.79567	0.96843
3883.74187	0.96858
3881.68807	0.96814
3879.63426	0.96730
3877.58046	0.96680
3875.52666	0.96697
3873.47285	0.96763
3871.41905	0.96754
3869.36525	0.96633
3867.31144	0.96643
3865.25764	0.96769
3863.20384	0.96794
3861.15003	0.96741
3859.09623	0.96699
3857.04243	0.96665
3854.98862	0.96684
3852.93482	0.96761
3850.88102	0.96813
3848.82721	0.96822
3846.77341	0.96820
3844.71961	0.96818
3842.66580	0.96795
3840.61200	0.96785
3838.55820	0.96841
3836.50439	0.96869
3834.45059	0.96825
3832.39679	0.96774
3830.34298	0.96726
3828.28918	0.96719
3826.23538	0.96754
3824.18158	0.96777
3822.12777	0.96754
3820.07397	0.96695
3818.02017	0.96697
3815.96636	0.96736
3813.91256	0.96775
3811.85876	0.96823
3809.80495	0.96852
3807.75115	0.96840
3805.69735	0.96807
3803.64354	0.96783
3801.58974	0.96767
3799.53594	0.96777
3797.48213	0.96775
3795.42833	0.96762
3793.37453	0.96749
3791.32072	0.96723
3789.26692	0.96728
3787.21312	0.96785
3785.15931	0.96826
3783.10551	0.96796
3781.05171	0.96755
3778.99790	0.96760
3776.94410	0.96794
3774.89030	0.96821
3772.83650	0.96841
3770.78269	0.96854
3768.72889	0.96833
3766.67509	0.96796
3764.62128	0.96782
3762.56748	0.96780
3760.51368	0.96763
3758.45987	0.96760
3756.40607	0.96780
3754.35227	0.96799
3752.29846	0.96839
3750.24466	0.96924
3748.19086	0.97031
3746.13705	0.97064
3744.08325	0.96963
3742.02945	0.96885
3739.97564	0.96897
3737.92184	0.96933
3735.86804	0.96996
3733.81423	0.97051
3731.76043	0.96999
3729.70663	0.96911
3727.65282	0.96891
3725.59902	0.96958
3723.54522	0.97014
3721.49141	0.96996
3719.43761	0.96964
3717.38381	0.96904
3715.33001	0.96802
3713.27620	0.96700
3711.22240	0.96556
3709.16860	0.96404
3707.11479	0.96346
3705.06099	0.96320
3703.00719	0.96233
3700.95338	0.96088
3698.89958	0.95990
3696.84578	0.95958
3694.79197	0.96015
3692.73817	0.96146
3690.68437	0.96226
3688.63056	0.96196
3686.57676	0.96158
3684.52296	0.96149
3682.46915	0.96170
3680.41535	0.96225
3678.36155	0.96271
3676.30774	0.96221
3674.25394	0.96125
3672.20014	0.96140
3670.14633	0.96132
3668.09253	0.96046
3666.03873	0.96015
3663.98492	0.95986
3661.93112	0.95932
3659.87732	0.95919
3657.82352	0.95911
3655.76971	0.95846
3653.71591	0.95834
3651.66211	0.95929
3649.60830	0.95987
3647.55450	0.95875
3645.50070	0.95807
3643.44689	0.95795
3641.39309	0.95737
3639.33929	0.95685
3637.28548	0.95717
3635.23168	0.95774
3633.17788	0.95756
3631.12407	0.95669
3629.07027	0.95543
3627.01647	0.95453
3624.96266	0.95404
3622.90886	0.95324
3620.85506	0.95293
3618.80125	0.95308
3616.74745	0.95252
3614.69365	0.95194
3612.63984	0.95175
3610.58604	0.95206
3608.53224	0.95278
3606.47844	0.95320
3604.42463	0.95300
3602.37083	0.95239
3600.31703	0.95183
3598.26322	0.95157
3596.20942	0.95155
3594.15562	0.95164
3592.10181	0.95160
3590.04801	0.95142
3587.99421	0.95050
3585.94040	0.94923
3583.88660	0.94917
3581.83280	0.94958
3579.77899	0.94936
3577.72519	0.94879
3575.67139	0.94873
3573.61758	0.94884
3571.56378	0.94851
3569.50998	0.94782
3567.45617	0.94708
3565.40237	0.94665
3563.34857	0.94634
3561.29476	0.94602
3559.24096	0.94564
3557.18716	0.94484
3555.13335	0.94386
3553.07955	0.94370
3551.02575	0.94397
3548.97195	0.94338
3546.91814	0.94250
3544.86434	0.94228
3542.81054	0.94220
3540.75673	0.94161
3538.70293	0.94103
3536.64913	0.94105
3534.59532	0.94088
3532.54152	0.94009
3530.48772	0.93935
3528.43391	0.93903
3526.38011	0.93905
3524.32631	0.93876
3522.27250	0.93795
3520.21870	0.93754
3518.16490	0.93786
3516.11109	0.93802
3514.05729	0.93750
3512.00349	0.93685
3509.94968	0.93609
3507.89588	0.93554
3505.84208	0.93565
3503.78827	0.93565
3501.73447	0.93499
3499.68067	0.93424
3497.62687	0.93376
3495.57306	0.93334
3493.51926	0.93285
3491.46546	0.93237
3489.41165	0.93187
3487.35785	0.93118
3485.30405	0.93081
3483.25024	0.93125
3481.19644	0.93161
3479.14264	0.93111
3477.08883	0.93044
3475.03503	0.92996
3472.98123	0.92918
3470.92742	0.92865
3468.87362	0.92883
3466.81982	0.92905
3464.76601	0.92879
3462.71221	0.92792
3460.65841	0.92679
3458.60460	0.92608
3456.55080	0.92569
3454.49700	0.92521
3452.44319	0.92470
3450.38939	0.92426
3448.33559	0.92406
3446.28178	0.92413
3444.22798	0.92411
3442.17418	0.92370
3440.12038	0.92286
3438.06657	0.92211
3436.01277	0.92163
3433.95897	0.92087
3431.90516	0.91995
3429.85136	0.91966
3427.79756	0.91990
3425.74375	0.91977
3423.68995	0.91920
3421.63615	0.91885
3419.58234	0.91870
3417.52854	0.91826
3415.47474	0.91751
3413.42093	0.91676
3411.36713	0.91653
3409.31333	0.91683
3407.25952	0.91697
3405.20572	0.91692
3403.15192	0.91702
3401.09811	0.91700
3399.04431	0.91662
3396.99051	0.91601
3394.93670	0.91530
3392.88290	0.91471
3390.82910	0.91456
3388.77529	0.91473
3386.72149	0.91499
3384.66769	0.91545
3382.61389	0.91539
3380.56008	0.91457
3378.50628	0.91411
3376.45248	0.91427
3374.39867	0.91437
3372.34487	0.91439
3370.29107	0.91444
3368.23726	0.91402
3366.18346	0.91301
3364.12966	0.91233
3362.07585	0.91238
3360.02205	0.91276
3357.96825	0.91311
3355.91444	0.91300
3353.86064	0.91229
3351.80684	0.91185
3349.75303	0.91218
3347.69923	0.91236
3345.64543	0.91209
3343.59162	0.91194
3341.53782	0.91183
3339.48402	0.91171
3337.43021	0.91150
3335.37641	0.91103
3333.32261	0.91099
3331.26881	0.91171
3329.21500	0.91237
3327.16120	0.91246
3325.10740	0.91221
3323.05359	0.91184
3320.99979	0.91149
3318.94599	0.91120
3316.89218	0.91103
3314.83838	0.91125
3312.78458	0.91189
3310.73077	0.91234
3308.67697	0.91210
3306.62317	0.91150
3304.56936	0.91107
3302.51556	0.91104
3300.46176	0.91115
3298.40795	0.91128
3296.35415	0.91182
3294.30035	0.91229
3292.24654	0.91199
3290.19274	0.91141
3288.13894	0.91134
3286.08513	0.91169
3284.03133	0.91179
3281.97753	0.91173
3279.92372	0.91222
3277.86992	0.91279
3275.81612	0.91250
3273.76232	0.91155
3271.70851	0.91122
3269.65471	0.91184
3267.60091	0.91249
3265.54710	0.91280
3263.49330	0.91300
3261.43950	0.91313
3259.38569	0.91325
3257.33189	0.91347
3255.27809	0.91358
3253.22428	0.91360
3251.17048	0.91395
3249.11668	0.91447
3247.06287	0.91473
3245.00907	0.91483
3242.95527	0.91478
3240.90146	0.91457
3238.84766	0.91481
3236.79386	0.91523
3234.74005	0.91524
3232.68625	0.91549
3230.63245	0.91594
3228.57864	0.91589
3226.52484	0.91572
3224.47104	0.91587
3222.41724	0.91599
3220.36343	0.91606
3218.30963	0.91668
3216.25583	0.91774
3214.20202	0.91855
3212.14822	0.91847
3210.09442	0.91788
3208.04061	0.91790
3205.98681	0.91843
3203.93301	0.91905
3201.87920	0.91969
3199.82540	0.91990
3197.77160	0.91949
3195.71779	0.91928
3193.66399	0.91971
3191.61019	0.92023
3189.55638	0.92069
3187.50258	0.92103
3185.44878	0.92120
3183.39497	0.92151
3181.34117	0.92200
3179.28737	0.92241
3177.23356	0.92243
3175.17976	0.92234
3173.12596	0.92271
3171.07215	0.92344
3169.01835	0.92415
3166.96455	0.92474
3164.91075	0.92500
3162.85694	0.92477
3160.80314	0.92441
3158.74934	0.92453
3156.69553	0.92510
3154.64173	0.92553
3152.58793	0.92585
3150.53412	0.92627
3148.48032	0.92662
3146.42652	0.92697
3144.37271	0.92747
3142.31891	0.92795
3140.26511	0.92823
3138.21130	0.92836
3136.15750	0.92841
3134.10370	0.92862
3132.04989	0.92901
3129.99609	0.92918
3127.94229	0.92917
3125.88848	0.92958
3123.83468	0.93027
3121.78088	0.93046
3119.72707	0.93048
3117.67327	0.93112
3115.61947	0.93187
3113.56566	0.93223
3111.51186	0.93233
3109.45806	0.93228
3107.40426	0.93265
3105.35045	0.93341
3103.29665	0.93406
3101.24285	0.93432
3099.18904	0.93387
3097.13524	0.93304
3095.08144	0.93269
3093.02763	0.93316
3090.97383	0.93415
3088.92003	0.93487
3086.86622	0.93490
3084.81242	0.93447
3082.75862	0.93429
3080.70481	0.93486
3078.65101	0.93552
3076.59721	0.93592
3074.54340	0.93628
3072.48960	0.93649
3070.43580	0.93655
3068.38199	0.93655
3066.32819	0.93646
3064.27439	0.93662
3062.22058	0.93699
3060.16678	0.93710
3058.11298	0.93689
3056.05918	0.93681
3054.00537	0.93716
3051.95157	0.93761
3049.89777	0.93800
3047.84396	0.93869
3045.79016	0.93938
3043.73636	0.93956
3041.68255	0.93935
3039.62875	0.93917
3037.57495	0.93940
3035.52114	0.94004
3033.46734	0.94059
3031.41354	0.94076
3029.35973	0.94079
3027.30593	0.94066
3025.25213	0.94037
3023.19832	0.94056
3021.14452	0.94138
3019.09072	0.94191
3017.03691	0.94181
3014.98311	0.94149
3012.92931	0.94130
3010.87550	0.94162
3008.82170	0.94215
3006.76790	0.94226
3004.71409	0.94235
3002.66029	0.94292
3000.60649	0.94346
2998.55269	0.94348
2996.49888	0.94321
2994.44508	0.94329
2992.39128	0.94380
2990.33747	0.94403
2988.28367	0.94365
2986.22987	0.94325
2984.17606	0.94311
2982.12226	0.94291
2980.06846	0.94275
2978.01465	0.94254
2975.96085	0.94173
2973.90705	0.94039
2971.85324	0.93928
2969.79944	0.93862
2967.74564	0.93779
2965.69183	0.93660
2963.63803	0.93525
2961.58423	0.93350
2959.53042	0.93125
2957.47662	0.92888
2955.42282	0.92641
2953.36901	0.92382
2951.31521	0.92122
2949.26141	0.91847
2947.20761	0.91535
2945.15380	0.91210
2943.10000	0.90860
2941.04620	0.90450
2938.99239	0.90014
2936.93859	0.89599
2934.88479	0.89210
2932.83098	0.88827
2930.77718	0.88472
2928.72338	0.88187
2926.66957	0.87980
2924.61577	0.87850
2922.56197	0.87811
2920.50816	0.87854
2918.45436	0.87964
2916.40056	0.88133
2914.34675	0.88377
2912.29295	0.88697
2910.23915	0.89017
2908.18534	0.89291
2906.13154	0.89514
2904.07774	0.89699
2902.02393	0.89911
2899.97013	0.90156
2897.91633	0.90383
2895.86252	0.90582
2893.80872	0.90774
2891.75492	0.90963
2889.70112	0.91188
2887.64731	0.91461
2885.59351	0.91702
2883.53971	0.91829
2881.48590	0.91877
2879.43210	0.91943
2877.37830	0.92035
2875.32449	0.92074
2873.27069	0.92025
2871.21689	0.91894
2869.16308	0.91703
2867.10928	0.91475
2865.05548	0.91194
2863.00167	0.90872
2860.94787	0.90509
2858.89407	0.90101
2856.84026	0.89717
2854.78646	0.89414
2852.73266	0.89253
2850.67885	0.89295
2848.62505	0.89528
2846.57125	0.89900
2844.51744	0.90379
2842.46364	0.90889
2840.40984	0.91339
2838.35603	0.91717
2836.30223	0.92046
2834.24843	0.92316
2832.19463	0.92515
2830.14082	0.92680
2828.08702	0.92831
2826.03322	0.92928
2823.97941	0.92974
2821.92561	0.93044
2819.87181	0.93142
2817.81800	0.93202
2815.76420	0.93230
2813.71040	0.93281
2811.65659	0.93376
2809.60279	0.93473
2807.54899	0.93529
2805.49518	0.93566
2803.44138	0.93620
2801.38758	0.93668
2799.33377	0.93674
2797.27997	0.93652
2795.22617	0.93667
2793.17236	0.93726
2791.11856	0.93754
2789.06476	0.93754
2787.01095	0.93789
2784.95715	0.93853
2782.90335	0.93885
2780.84955	0.93898
2778.79574	0.93933
2776.74194	0.93969
2774.68814	0.93994
2772.63433	0.93998
2770.58053	0.93978
2768.52673	0.93974
2766.47292	0.94014
2764.41912	0.94060
2762.36532	0.94076
2760.31151	0.94085
2758.25771	0.94106
2756.20391	0.94124
2754.15010	0.94134
2752.09630	0.94123
2750.04250	0.94089
2747.98869	0.94084
2745.93489	0.94132
2743.88109	0.94196
2741.82728	0.94225
2739.77348	0.94197
2737.71968	0.94163
2735.66587	0.94157
2733.61207	0.94171
2731.55827	0.94199
2729.50446	0.94214
2727.45066	0.94218
2725.39686	0.94231
2723.34306	0.94234
2721.28925	0.94235
2719.23545	0.94236
2717.18165	0.94226
2715.12784	0.94224
2713.07404	0.94243
2711.02024	0.94266
2708.96643	0.94280
2706.91263	0.94279
2704.85883	0.94264
2702.80502	0.94262
2700.75122	0.94268
2698.69742	0.94259
2696.64361	0.94251
2694.58981	0.94264
2692.53601	0.94284
2690.48220	0.94294
2688.42840	0.94304
2686.37460	0.94315
2684.32079	0.94303
2682.26699	0.94292
2680.21319	0.94325
2678.15938	0.94379
2676.10558	0.94403
2674.05178	0.94390
2671.99797	0.94366
2669.94417	0.94357
2667.89037	0.94367
2665.83657	0.94388
2663.78276	0.94399
2661.72896	0.94383
2659.67516	0.94347
2657.62135	0.94328
2655.56755	0.94356
2653.51375	0.94399
2651.45994	0.94407
2649.40614	0.94388
2647.35234	0.94386
2645.29853	0.94408
2643.24473	0.94432
2641.19093	0.94467
2639.13712	0.94510
2637.08332	0.94518
2635.02952	0.94491
2632.97571	0.94476
2630.92191	0.94474
2628.86811	0.94482
2626.81430	0.94525
2624.76050	0.94567
2622.70670	0.94567
2620.65289	0.94561
2618.59909	0.94574
2616.54529	0.94579
2614.49149	0.94569
2612.43768	0.94556
2610.38388	0.94519
2608.33008	0.94491
2606.27627	0.94544
2604.22247	0.94614
2602.16867	0.94621
2600.11486	0.94621
2598.06106	0.94658
2596.00726	0.94673
2593.95345	0.94631
2591.89965	0.94585
2589.84585	0.94592
2587.79204	0.94630
2585.73824	0.94660
2583.68444	0.94693
2581.63063	0.94727
2579.57683	0.94767
2577.52303	0.94797
2575.46922	0.94800
2573.41542	0.94789
2571.36162	0.94751
2569.30781	0.94743
2567.25401	0.94804
2565.20021	0.94836
2563.14640	0.94815
2561.09260	0.94791
2559.03880	0.94767
2556.98500	0.94765
2554.93119	0.94785
2552.87739	0.94790
2550.82359	0.94804
2548.76978	0.94827
2546.71598	0.94842
2544.66218	0.94837
2542.60837	0.94802
2540.55457	0.94782
2538.50077	0.94768
2536.44696	0.94759
2534.39316	0.94826
2532.33936	0.94910
2530.28555	0.94941
2528.23175	0.94938
2526.17795	0.94884
2524.12414	0.94817
2522.07034	0.94768
2520.01654	0.94724
2517.96273	0.94735
2515.90893	0.94807
2513.85513	0.94843
2511.80132	0.94840
2509.74752	0.94871
2507.69372	0.94911
2505.63992	0.94916
2503.58611	0.94891
2501.53231	0.94884
2499.47851	0.94929
2497.42470	0.94963
2495.37090	0.94917
2493.31710	0.94858
2491.26329	0.94841
2489.20949	0.94801
2487.15569	0.94771
2485.10188	0.94846
2483.04808	0.94938
2480.99428	0.94957
2478.94047	0.94932
2476.88667	0.94900
2474.83287	0.94899
2472.77906	0.94930
2470.72526	0.94952
2468.67146	0.94940
2466.61765	0.94946
2464.56385	0.94994
2462.51005	0.95012
2460.45624	0.94987
2458.40244	0.94955
2456.34864	0.94926
2454.29483	0.94920
2452.24103	0.94935
2450.18723	0.94947
2448.13343	0.94928
2446.07962	0.94893
2444.02582	0.94889
2441.97202	0.94888
2439.91821	0.94850
2437.86441	0.94825
2435.81061	0.94858
2433.75680	0.94925
2431.70300	0.94993
2429.64920	0.94998
2427.59539	0.94958
2425.54159	0.94933
2423.48779	0.94897
2421.43398	0.94851
2419.38018	0.94833
2417.32638	0.94862
2415.27257	0.94926
2413.21877	0.94997
2411.16497	0.95040
2409.11116	0.95018
2407.05736	0.94937
2405.00356	0.94861
2402.94975	0.94847
2400.89595	0.94875
2398.84215	0.94891
2396.78834	0.94903
2394.73454	0.94924
2392.68074	0.94949
2390.62694	0.94974
2388.57313	0.94990
2386.51933	0.95002
2384.46553	0.95014
2382.41172	0.94983
2380.35792	0.94911
2378.30412	0.94876
2376.25031	0.94896
2374.19651	0.94944
2372.14271	0.94988
2370.08890	0.94975
2368.03510	0.94933
2365.98130	0.94940
2363.92749	0.94996
2361.87369	0.95002
2359.81989	0.94944
2357.76608	0.94901
2355.71228	0.94878
2353.65848	0.94877
2351.60467	0.94931
2349.55087	0.94973
2347.49707	0.94932
2345.44326	0.94902
2343.38946	0.95015
2341.33566	0.95135
2339.28186	0.95086
2337.22805	0.94908
2335.17425	0.94763
2333.12045	0.94783
2331.06664	0.94873
2329.01284	0.94882
2326.95904	0.94786
2324.90523	0.94680
2322.85143	0.94681
2320.79763	0.94687
2318.74382	0.94651
2316.69002	0.94746
2314.63622	0.94889
2312.58241	0.94874
2310.52861	0.94818
2308.47481	0.94865
2306.42100	0.94921
2304.36720	0.94890
2302.31340	0.94812
2300.25959	0.94804
2298.20579	0.94836
2296.15199	0.94832
2294.09818	0.94821
2292.04438	0.94823
2289.99058	0.94829
2287.93677	0.94843
2285.88297	0.94864
2283.82917	0.94886
2281.77537	0.94876
2279.72156	0.94828
2277.66776	0.94834
2275.61396	0.94879
2273.56015	0.94924
2271.50635	0.95014
2269.45255	0.95086
2267.39874	0.95103
2265.34494	0.95120
2263.29114	0.95140
2261.23733	0.95188
2259.18353	0.95265
2257.12973	0.95278
2255.07592	0.95218
2253.02212	0.95137
2250.96832	0.95095
2248.91451	0.95102
2246.86071	0.95086
2244.80691	0.95081
2242.75310	0.95123
2240.69930	0.95093
2238.64550	0.94942
2236.59169	0.94880
2234.53789	0.95059
2232.48409	0.95248
2230.43029	0.95231
2228.37648	0.95180
2226.32268	0.95251
2224.26888	0.95416
2222.21507	0.95522
2220.16127	0.95344
2218.10747	0.94982
2216.05366	0.94840
2213.99986	0.94998
2211.94606	0.95104
2209.89225	0.95065
2207.83845	0.95120
2205.78465	0.95239
2203.73084	0.95195
2201.67704	0.94987
2199.62324	0.94933
2197.56943	0.95173
2195.51563	0.95339
2193.46183	0.95298
2191.40802	0.95239
2189.35422	0.95109
2187.30042	0.94950
2185.24661	0.94957
2183.19281	0.95178
2181.13901	0.95452
2179.08520	0.95499
2177.03140	0.95350
2174.97760	0.95241
2172.92380	0.95234
2170.86999	0.95293
2168.81619	0.95312
2166.76239	0.95258
2164.70858	0.95286
2162.65478	0.95366
2160.60098	0.95276
2158.54717	0.95099
2156.49337	0.95060
2154.43957	0.95091
2152.38576	0.95243
2150.33196	0.95456
2148.27816	0.95434
2146.22435	0.95334
2144.17055	0.95366
2142.11675	0.95338
2140.06294	0.95185
2138.00914	0.95082
2135.95534	0.95098
2133.90153	0.95109
2131.84773	0.95098
2129.79393	0.95213
2127.74012	0.95407
2125.68632	0.95492
2123.63252	0.95430
2121.57871	0.95322
2119.52491	0.95216
2117.47111	0.95123
2115.41731	0.95080
2113.36350	0.95055
2111.30970	0.95063
2109.25590	0.95113
2107.20209	0.95146
2105.14829	0.95171
2103.09449	0.95165
2101.04068	0.95099
2098.98688	0.94999
2096.93308	0.94967
2094.87927	0.95029
2092.82547	0.95111
2090.77167	0.95154
2088.71786	0.95114
2086.66406	0.95095
2084.61026	0.95171
2082.55645	0.95262
2080.50265	0.95337
2078.44885	0.95372
2076.39504	0.95350
2074.34124	0.95309
2072.28744	0.95223
2070.23363	0.95171
2068.17983	0.95314
2066.12603	0.95401
2064.07223	0.95189
2062.01842	0.95076
2059.96462	0.95279
2057.91082	0.95522
2055.85701	0.95634
2053.80321	0.95452
2051.74941	0.95008
2049.69560	0.94805
2047.64180	0.95069
2045.58800	0.95406
2043.53419	0.95619
2041.48039	0.95742
2039.42659	0.95595
2037.37278	0.95290
2035.31898	0.95283
2033.26518	0.95546
2031.21137	0.95617
2029.15757	0.95508
2027.10377	0.95586
2025.04996	0.95796
2022.99616	0.95903
2020.94236	0.95866
2018.88855	0.95695
2016.83475	0.95541
2014.78095	0.95657
2012.72714	0.95925
2010.67334	0.95928
2008.61954	0.95820
2006.56574	0.95923
2004.51193	0.95881
2002.45813	0.95572
2000.40433	0.95340
1998.35052	0.95318
1996.29672	0.95435
1994.24292	0.95513
1992.18911	0.95347
1990.13531	0.95133
1988.08151	0.95159
1986.02770	0.95245
1983.97390	0.95243
1981.92010	0.95130
1979.86629	0.95114
1977.81249	0.95527
1975.75869	0.95931
1973.70488	0.95932
1971.65108	0.95845
1969.59728	0.95763
1967.54347	0.95654
1965.48967	0.95499
1963.43587	0.95322
1961.38206	0.95344
1959.32826	0.95581
1957.27446	0.95789
1955.22066	0.95789
1953.16685	0.95728
1951.11305	0.95807
1949.05925	0.95807
1947.00544	0.95683
1944.95164	0.95595
1942.89784	0.95417
1940.84403	0.95246
1938.79023	0.95279
1936.73643	0.95384
1934.68262	0.95415
1932.62882	0.95399
1930.57502	0.95467
1928.52121	0.95616
1926.46741	0.95656
1924.41361	0.95505
1922.35980	0.95402
1920.30600	0.95487
1918.25220	0.95581
1916.19839	0.95595
1914.14459	0.95555
1912.09079	0.95494
1910.03698	0.95483
1907.98318	0.95513
1905.92938	0.95483
1903.87557	0.95367
1901.82177	0.95254
1899.76797	0.95243
1897.71417	0.95326
1895.66036	0.95377
1893.60656	0.95370
1891.55276	0.95381
1889.49895	0.95379
1887.44515	0.95385
1885.39135	0.95442
1883.33754	0.95528
1881.28374	0.95619
1879.22994	0.95661
1877.17613	0.95648
1875.12233	0.95600
1873.06853	0.95528
1871.01472	0.95437
1868.96092	0.95346
1866.90712	0.95355
1864.85331	0.95437
1862.79951	0.95487
1860.74571	0.95481
1858.69190	0.95480
1856.63810	0.95513
1854.58430	0.95519
1852.53049	0.95492
1850.47669	0.95502
1848.42289	0.95557
1846.36908	0.95567
1844.31528	0.95530
1842.26148	0.95549
1840.20768	0.95595
1838.15387	0.95609
1836.10007	0.95588
1834.04627	0.95546
1831.99246	0.95518
1829.93866	0.95510
1827.88486	0.95489
1825.83105	0.95506
1823.77725	0.95597
1821.72345	0.95667
1819.66964	0.95643
1817.61584	0.95595
1815.56204	0.95599
1813.50823	0.95614
1811.45443	0.95655
1809.40063	0.95753
1807.34682	0.95795
1805.29302	0.95764
1803.23922	0.95742
1801.18541	0.95730
1799.13161	0.95726
1797.07781	0.95741
1795.02400	0.95737
1792.97020	0.95719
1790.91640	0.95724
1788.86260	0.95753
1786.80879	0.95793
1784.75499	0.95807
1782.70119	0.95783
1780.64738	0.95761
1778.59358	0.95740
1776.53978	0.95717
1774.48597	0.95720
1772.43217	0.95782
1770.37837	0.95807
1768.32456	0.95734
1766.27076	0.95680
1764.21696	0.95677
1762.16315	0.95661
1760.10935	0.95614
1758.05555	0.95552
1756.00174	0.95473
1753.94794	0.95406
1751.89414	0.95316
1749.84033	0.95113
1747.78653	0.94786
1745.73273	0.94358
1743.67892	0.93772
1741.62512	0.92992
1739.57132	0.92011
1737.51751	0.91102
1735.46371	0.90284
1733.40991	0.89280
1731.35611	0.88619
1729.30230	0.88361
1727.24850	0.88273
1725.19470	0.88330
1723.14089	0.88521
1721.08709	0.88806
1719.03329	0.89101
1716.97948	0.89250
1714.92568	0.89216
1712.87188	0.89197
1710.81807	0.89218
1708.76427	0.89255
1706.71047	0.89285
1704.65666	0.89312
1702.60286	0.89367
1700.54906	0.89488
1698.49525	0.89642
1696.44145	0.89744
1694.38765	0.89842
1692.33384	0.89929
1690.28004	0.89994
1688.22624	0.90057
1686.17243	0.90091
1684.11863	0.90043
1682.06483	0.89999
1680.01103	0.89989
1677.95722	0.89970
1675.90342	0.89925
1673.84962	0.89874
1671.79581	0.89854
1669.74201	0.89794
1667.68821	0.89678
1665.63440	0.89620
1663.58060	0.89566
1661.52680	0.89459
1659.47299	0.89373
1657.41919	0.89315
1655.36539	0.89264
1653.31158	0.89144
1651.25778	0.89006
1649.20398	0.88951
1647.15017	0.88832
1645.09637	0.88659
1643.04257	0.88540
1640.98876	0.88414
1638.93496	0.88269
1636.88116	0.88063
1634.82735	0.87764
1632.77355	0.87574
1630.71975	0.87461
1628.66594	0.87359
1626.61214	0.87319
1624.55834	0.87379
1622.50454	0.87478
1620.45073	0.87545
1618.39693	0.87592
1616.34313	0.87634
1614.28932	0.87669
1612.23552	0.87630
1610.18172	0.87450
1608.12791	0.87173
1606.07411	0.86967
1604.02031	0.86931
1601.96650	0.87062
1599.91270	0.87277
1597.85890	0.87494
1595.80509	0.87710
1593.75129	0.87923
1591.69749	0.88089
1589.64368	0.88183
1587.58988	0.88247
1585.53608	0.88338
1583.48227	0.88460
1581.42847	0.88617
1579.37467	0.88814
1577.32086	0.89041
1575.26706	0.89264
1573.21326	0.89420
1571.15945	0.89539
1569.10565	0.89650
1567.05185	0.89722
1564.99805	0.89747
1562.94424	0.89760
1560.89044	0.89786
1558.83664	0.89772
1556.78283	0.89695
1554.72903	0.89658
1552.67523	0.89682
1550.62142	0.89727
1548.56762	0.89741
1546.51382	0.89757
1544.46001	0.89795
1542.40621	0.89816
1540.35241	0.89840
1538.29860	0.90008
1536.24480	0.90205
1534.19100	0.90353
1532.13719	0.90467
1530.08339	0.90577
1528.02959	0.90672
1525.97578	0.90711
1523.92198	0.90672
1521.86818	0.90406
1519.81437	0.89887
1517.76057	0.89412
1515.70677	0.89066
1513.65297	0.88986
1511.59916	0.89164
1509.54536	0.89489
1507.49156	0.90029
1505.43775	0.90632
1503.38395	0.90923
1501.33015	0.91128
1499.27634	0.91325
1497.22254	0.91543
1495.16874	0.91763
1493.11493	0.91914
1491.06113	0.92023
1489.00733	0.92104
1486.95352	0.92146
1484.89972	0.92190
1482.84592	0.92218
1480.79211	0.92179
1478.73831	0.92097
1476.68451	0.91997
1474.63070	0.91828
1472.57690	0.91406
1470.52310	0.90789
1468.46929	0.90272
1466.41549	0.89812
1464.36169	0.89403
1462.30788	0.89185
1460.25408	0.89106
1458.20028	0.89004
1456.14648	0.88853
1454.09267	0.88829
1452.03887	0.88898
1449.98507	0.88961
1447.93126	0.88970
1445.87746	0.88924
1443.82366	0.88856
1441.76985	0.88798
1439.71605	0.88768
1437.66225	0.88753
1435.60844	0.88739
1433.55464	0.88764
1431.50084	0.88846
1429.44703	0.88987
1427.39323	0.89143
1425.33943	0.89267
1423.28562	0.89338
1421.23182	0.89365
1419.17802	0.89329
1417.12421	0.89260
1415.07041	0.89281
1413.01661	0.89364
1410.96280	0.89459
1408.90900	0.89572
1406.85520	0.89695
1404.80139	0.89804
1402.74759	0.89878
1400.69379	0.89932
1398.63999	0.89990
1396.58618	0.90024
1394.53238	0.89988
1392.47858	0.89933
1390.42477	0.89904
1388.37097	0.89872
1386.31717	0.89818
1384.26336	0.89759
1382.20956	0.89674
1380.15576	0.89540
1378.10195	0.89416
1376.04815	0.89343
1373.99435	0.89264
1371.94054	0.89178
1369.88674	0.89132
1367.83294	0.89105
1365.77913	0.89099
1363.72533	0.89119
1361.67153	0.89115
1359.61772	0.89095
1357.56392	0.89108
1355.51012	0.89112
1353.45631	0.89107
1351.40251	0.89137
1349.34871	0.89152
1347.29491	0.89128
1345.24110	0.89116
1343.18730	0.89140
1341.13350	0.89184
1339.07969	0.89223
1337.02589	0.89251
1334.97209	0.89287
1332.91828	0.89344
1330.86448	0.89408
1328.81068	0.89438
1326.75687	0.89434
1324.70307	0.89416
1322.64927	0.89387
1320.59546	0.89359
1318.54166	0.89346
1316.48786	0.89348
1314.43405	0.89353
1312.38025	0.89345
1310.32645	0.89340
1308.27264	0.89334
1306.21884	0.89324
1304.16504	0.89342
1302.11123	0.89399
1300.05743	0.89473
1298.00363	0.89518
1295.94982	0.89488
1293.89602	0.89380
1291.84222	0.89222
1289.78842	0.89061
1287.73461	0.88923
1285.68081	0.88794
1283.62701	0.88648
1281.57320	0.88476
1279.51940	0.88308
1277.46560	0.88167
1275.41179	0.88029
1273.35799	0.87888
1271.30419	0.87781
1269.25038	0.87720
1267.19658	0.87661
1265.14278	0.87572
1263.08897	0.87465
1261.03517	0.87352
1258.98137	0.87262
1256.92756	0.87204
1254.87376	0.87134
1252.81996	0.87032
1250.76615	0.86916
1248.71235	0.86821
1246.65855	0.86768
1244.60474	0.86735
1242.55094	0.86721
1240.49714	0.86739
1238.44334	0.86750
1236.38953	0.86727
1234.33573	0.86691
1232.28193	0.86689
1230.22812	0.86718
1228.17432	0.86742
1226.12052	0.86766
1224.06671	0.86797
1222.01291	0.86817
1219.95911	0.86819
1217.90530	0.86829
1215.85150	0.86864
1213.79770	0.86869
1211.74389	0.86804
1209.69009	0.86704
1207.63629	0.86600
1205.58248	0.86490
1203.52868	0.86376
1201.47488	0.86261
1199.42107	0.86170
1197.36727	0.86092
1195.31347	0.85999
1193.25966	0.85883
1191.20586	0.85752
1189.15206	0.85595
1187.09825	0.85372
1185.04445	0.85102
1182.99065	0.84847
1180.93685	0.84611
1178.88304	0.84357
1176.82924	0.84061
1174.77544	0.83668
1172.72163	0.83132
1170.66783	0.82524
1168.61403	0.81976
1166.56022	0.81586
1164.50642	0.81377
1162.45262	0.81351
1160.39881	0.81477
1158.34501	0.81659
1156.29121	0.81852
1154.23740	0.82078
1152.18360	0.82315
1150.12980	0.82536
1148.07599	0.82748
1146.02219	0.82952
1143.96839	0.83155
1141.91458	0.83361
1139.86078	0.83550
1137.80698	0.83702
1135.75317	0.83826
1133.69937	0.83918
1131.64557	0.83947
1129.59176	0.83933
1127.53796	0.83910
1125.48416	0.83834
1123.43036	0.83642
1121.37655	0.83350
1119.32275	0.83026
1117.26895	0.82666
1115.21514	0.82256
1113.16134	0.81857
1111.10754	0.81458
1109.05373	0.81013
1106.99993	0.80582
1104.94613	0.80222
1102.89232	0.79921
1100.83852	0.79702
1098.78472	0.79612
1096.73091	0.79635
1094.67711	0.79688
1092.62331	0.79736
1090.56950	0.79801
1088.51570	0.79880
1086.46190	0.79947
1084.40809	0.79983
1082.35429	0.79953
1080.30049	0.79860
1078.24668	0.79767
1076.19288	0.79695
1074.13908	0.79601
1072.08528	0.79470
1070.03147	0.79319
1067.97767	0.79151
1065.92387	0.78937
1063.87006	0.78686
1061.81626	0.78423
1059.76246	0.78161
1057.70865	0.77940
1055.65485	0.77730
1053.60105	0.77445
1051.54724	0.77089
1049.49344	0.76695
1047.43964	0.76300
1045.38583	0.75970
1043.33203	0.75647
1041.27823	0.75253
1039.22442	0.74869
1037.17062	0.74551
1035.11682	0.74283
1033.06301	0.74074
1031.00921	0.73943
1028.95541	0.73926
1026.90160	0.73998
1024.84780	0.74077
1022.79400	0.74159
1020.74019	0.74221
1018.68639	0.74214
1016.63259	0.74173
1014.57879	0.74131
1012.52498	0.74052
1010.47118	0.73972
1008.41738	0.73970
1006.36357	0.74011
1004.30977	0.74076
1002.25597	0.74228
1000.20216	0.74488
998.14836	0.74817
996.09456	0.75192
994.04075	0.75607
991.98695	0.76035
989.93315	0.76441
987.87934	0.76804
985.82554	0.77155
983.77174	0.77538
981.71793	0.77938
979.66413	0.78346
977.61033	0.78788
975.55652	0.79237
973.50272	0.79651
971.44892	0.80019
969.39511	0.80326
967.34131	0.80615
965.28751	0.80929
963.23371	0.81229
961.17990	0.81494
959.12610	0.81720
957.07230	0.81899
955.01849	0.82074
952.96469	0.82307
950.91089	0.82610
948.85708	0.82905
946.80328	0.83111
944.74948	0.83256
942.69567	0.83373
940.64187	0.83476
938.58807	0.83610
936.53426	0.83782
934.48046	0.83943
932.42666	0.84059
930.37285	0.84137
928.31905	0.84195
926.26525	0.84276
924.21144	0.84361
922.15764	0.84352
920.10384	0.84276
918.05003	0.84184
915.99623	0.84057
913.94243	0.83947
911.88862	0.83942
909.83482	0.84052
907.78102	0.84212
905.72722	0.84407
903.67341	0.84668
901.61961	0.84923
899.56581	0.85129
897.51200	0.85309
895.45820	0.85431
893.40440	0.85536
891.35059	0.85687
889.29679	0.85828
887.24299	0.85970
885.18918	0.86114
883.13538	0.86199
881.08158	0.86256
879.02777	0.86326
876.97397	0.86396
874.92017	0.86467
872.86636	0.86551
870.81256	0.86641
868.75876	0.86749
866.70495	0.86859
864.65115	0.86913
862.59735	0.86941
860.54354	0.86996
858.48974	0.87085
856.43594	0.87194
854.38213	0.87232
852.32833	0.87185
850.27453	0.87185
848.22073	0.87202
846.16692	0.87127
844.11312	0.86994
842.05932	0.86808
840.00551	0.86498
837.95171	0.86081
835.89791	0.85640
833.84410	0.85294
831.79030	0.85220
829.73650	0.85422
827.68269	0.85688
825.62889	0.85907
823.57509	0.86067
821.52128	0.86130
819.46748	0.86155
817.41368	0.86225
815.35987	0.86278
813.30607	0.86284
811.25227	0.86329
809.19846	0.86408
807.14466	0.86418
805.09086	0.86350
803.03705	0.86305
800.98325	0.86271
798.92945	0.86203
796.87565	0.86189
794.82184	0.86230
792.76804	0.86262
790.71424	0.86263
788.66043	0.86275
786.60663	0.86341
784.55283	0.86339
782.49902	0.86279
780.44522	0.86296
778.39142	0.86319
776.33761	0.86295
774.28381	0.86279
772.23001	0.86295
770.17620	0.86321
768.12240	0.86315
766.06860	0.86241
764.01479	0.86108
761.96099	0.86019
759.90719	0.85970
757.85338	0.85857
755.79958	0.85782
753.74578	0.85820
751.69197	0.85879
749.63817	0.85870
747.58437	0.85757
745.53056	0.85615
743.47676	0.85546
741.42296	0.85546
739.36916	0.85537
737.31535	0.85554
735.26155	0.85569
733.20775	0.85412
731.15394	0.85130
729.10014	0.84867
727.04634	0.84607
724.99253	0.84356
722.93873	0.84228
720.88493	0.84279
718.83112	0.84379
716.77732	0.84443
714.72352	0.84487
712.66971	0.84515
710.61591	0.84526
708.56211	0.84465
706.50830	0.84407
704.45450	0.84424
702.40070	0.84372
700.34689	0.84242
698.29309	0.84127
696.23929	0.84012
694.18548	0.83920
692.13168	0.83887
690.07788	0.83896
688.02408	0.83927
685.97027	0.83931
683.91647	0.83872
681.86267	0.83847
679.80886	0.83878
677.75506	0.83839
675.70126	0.83751
673.64745	0.83675
671.59365	0.83639
669.53985	0.83692
667.48604	0.83711
665.43224	0.83657
663.37844	0.83676
661.32463	0.83737
659.27083	0.83739
657.21703	0.83652
655.16322	0.83544
653.10942	0.83441
651.05562	0.83368
649.00181	0.83370
646.94801	0.83371
644.89421	0.83286
642.84040	0.83177
640.78660	0.83137
638.73280	0.83159
636.67899	0.83158
634.62519	0.83089
632.57139	0.82962
630.51759	0.82863
628.46378	0.82888
626.40998	0.82980
624.35618	0.83031
622.30237	0.82983
620.24857	0.82821
618.19477	0.82604
616.14096	0.82443
614.08716	0.82382
612.03336	0.82353
609.97955	0.82282
607.92575	0.82183
605.87195	0.82102
603.81814	0.82032
601.76434	0.81937
599.71054	0.81777
597.65673	0.81686
595.60293	0.81765
593.54913	0.81779
591.49532	0.81570
589.44152	0.81303
587.38772	0.81159
585.33391	0.81089
583.28011	0.80962
581.22631	0.80827
579.17250	0.80743
577.11870	0.80757
575.06490	0.80826
573.01110	0.80726
570.95729	0.80517
568.90349	0.80322
566.84969	0.80048
564.79588	0.79813
562.74208	0.79707
560.68828	0.79585
558.63447	0.79408
556.58067	0.79207
554.52687	0.78990
552.47306	0.78778
550.41926	0.78506
548.36546	0.78193
546.31165	0.77955
544.25785	0.77753
542.20405	0.77523
540.15024	0.77211
538.09644	0.76840
536.04264	0.76537
533.98883	0.76359
531.93503	0.76274
529.88123	0.76122
527.82742	0.75893
525.77362	0.75803
523.71982	0.75849
521.66602	0.75887
519.61221	0.75917
517.55841	0.76015
515.50461	0.76240
513.45080	0.76505
511.39700	0.76784
509.34320	0.77077
507.28939	0.77303
505.23559	0.77499
503.18179	0.77628
501.12798	0.77697
499.07418	0.77808
497.02038	0.77786
494.96657	0.77693
492.91277	0.77649
490.85897	0.77525
488.80516	0.77447
486.75136	0.77399
484.69756	0.77084
482.64375	0.76552
480.58995	0.76090
478.53615	0.75661
476.48234	0.75148
474.42854	0.74628
472.37474	0.74188
470.32093	0.73722
468.26713	0.73082
466.21333	0.72506
464.15953	0.72387
462.10572	0.72727
460.05192	0.73205
457.99812	0.73601
455.94431	0.73765
453.89051	0.73664
451.83671	0.73558
449.78290	0.73822
447.72910	0.74562
445.67530	0.75210
443.62149	0.75183
441.56769	0.74824
439.51389	0.74913
437.46008	0.75276
435.40628	0.75027
433.35248	0.74409
431.29867	0.74166
429.24487	0.74035
427.19107	0.73923
425.13726	0.74066
423.08346	0.74314
421.02966	0.74536
418.97585	0.74681
416.92205	0.74821
414.86825	0.75086
412.81445	0.75293
410.76064	0.75449
408.70684	0.75668
406.65304	0.75879
404.59923	0.76307
402.54543	0.77166
400.49163	0.78089
398.43782	0.78433
