3996.70104	0.99310
3994.64724	0.99282
3992.59344	0.99254
3990.53964	0.99288
3988.48583	0.99315
3986.43203	0.99279
3984.37823	0.99237
3982.32442	0.99245
3980.27062	0.99264
3978.21682	0.99266
3976.16301	0.99291
3974.10921	0.99348
3972.05541	0.99357
3970.00160	0.99324
3967.94780	0.99336
3965.89400	0.99368
3963.84019	0.99376
3961.78639	0.99368
3959.73259	0.99359
3957.67878	0.99376
3955.62498	0.99396
3953.57118	0.99368
3951.51737	0.99293
3949.46357	0.99209
3947.40977	0.99194
3945.35596	0.99246
3943.30216	0.99271
3941.24836	0.99282
3939.19455	0.99333
3937.14075	0.99378
3935.08695	0.99392
3933.03315	0.99400
3930.97934	0.99400
3928.92554	0.99372
3926.87174	0.99295
3924.81793	0.99231
3922.76413	0.99264
3920.71033	0.99309
3918.65652	0.99314
3916.60272	0.99308
3914.54892	0.99288
3912.49511	0.99273
3910.44131	0.99285
3908.38751	0.99266
3906.33370	0.99214
3904.27990	0.99252
3902.22610	0.99348
3900.17229	0.99354
3898.11849	0.99289
3896.06469	0.99219
3894.01088	0.99207
3891.95708	0.99265
3889.90328	0.99299
3887.84947	0.99295
3885.79567	0.99319
3883.74187	0.99353
3881.68807	0.99384
3879.63426	0.99398
3877.58046	0.99391
3875.52666	0.99426
3873.47285	0.99456
3871.41905	0.99417
3869.36525	0.99383
3867.31144	0.99347
3865.25764	0.99238
3863.20384	0.99172
3861.15003	0.99228
3859.09623	0.99299
3857.04243	0.99361
3854.98862	0.99395
3852.93482	0.99362
3850.88102	0.99349
3848.82721	0.99376
3846.77341	0.99402
3844.71961	0.99393
3842.66580	0.99351
3840.61200	0.99350
3838.55820	0.99376
3836.50439	0.99400
3834.45059	0.99404
3832.39679	0.99340
3830.34298	0.99266
3828.28918	0.99240
3826.23538	0.99279
3824.18158	0.99363
3822.12777	0.99430
3820.07397	0.99471
3818.02017	0.99484
3815.96636	0.99432
3813.91256	0.99367
3811.85876	0.99324
3809.80495	0.99269
3807.75115	0.99252
3805.69735	0.99288
3803.64354	0.99312
3801.58974	0.99379
3799.53594	0.99437
3797.48213	0.99371
3795.42833	0.99334
3793.37453	0.99382
3791.32072	0.99381
3789.26692	0.99327
3787.21312	0.99290
3785.15931	0.99252
3783.10551	0.99211
3781.05171	0.99200
3778.99790	0.99214
3776.94410	0.99230
3774.89030	0.99231
3772.83650	0.99235
3770.78269	0.99256
3768.72889	0.99231
3766.67509	0.99185
3764.62128	0.99240
3762.56748	0.99337
3760.51368	0.99367
3758.45987	0.99352
3756.40607	0.99351
3754.35227	0.99362
3752.29846	0.99343
3750.24466	0.99298
3748.19086	0.99304
3746.13705	0.99326
3744.08325	0.99365
3742.02945	0.99402
3739.97564	0.99349
3737.92184	0.99277
3735.86804	0.99318
3733.81423	0.99390
3731.76043	0.99341
3729.70663	0.99278
3727.65282	0.99284
3725.59902	0.99328
3723.54522	0.99337
3721.49141	0.99326
3719.43761	0.99344
3717.38381	0.99348
3715.33001	0.99279
3713.27620	0.99136
3711.22240	0.98960
3709.16860	0.98847
3707.11479	0.98806
3705.06099	0.98790
3703.00719	0.98772
3700.95338	0.98733
3698.89958	0.98641
3696.84578	0.98507
3694.79197	0.98433
3692.73817	0.98448
3690.68437	0.98467
3688.63056	0.98504
3686.57676	0.98587
3684.52296	0.98610
3682.46915	0.98610
3680.41535	0.98663
3678.36155	0.98666
3676.30774	0.98570
3674.25394	0.98591
3672.20014	0.98658
3670.14633	0.98576
3668.09253	0.98437
3666.03873	0.98400
3663.98492	0.98423
3661.93112	0.98445
3659.87732	0.98439
3657.82352	0.98397
3655.76971	0.98314
3653.71591	0.98249
3651.66211	0.98242
3649.60830	0.98283
3647.55450	0.98285
3645.50070	0.98201
3643.44689	0.98102
3641.39309	0.98017
3639.33929	0.97916
3637.28548	0.97841
3635.23168	0.97856
3633.17788	0.97894
3631.12407	0.97891
3629.07027	0.97797
3627.01647	0.97681
3624.96266	0.97661
3622.90886	0.97662
3620.85506	0.97631
3618.80125	0.97598
3616.74745	0.97637
3614.69365	0.97701
3612.63984	0.97742
3610.58604	0.97718
3608.53224	0.97607
3606.47844	0.97524
3604.42463	0.97535
3602.37083	0.97588
3600.31703	0.97625
3598.26322	0.97596
3596.20942	0.97559
3594.15562	0.97577
3592.10181	0.97616
3590.04801	0.97600
3587.99421	0.97481
3585.94040	0.97416
3583.88660	0.97478
3581.83280	0.97515
3579.77899	0.97465
3577.72519	0.97366
3575.67139	0.97321
3573.61758	0.97341
3571.56378	0.97354
3569.50998	0.97375
3567.45617	0.97380
3565.40237	0.97289
3563.34857	0.97198
3561.29476	0.97194
3559.24096	0.97231
3557.18716	0.97198
3555.13335	0.97124
3553.07955	0.97102
3551.02575	0.97112
3548.97195	0.97093
3546.91814	0.97003
3544.86434	0.96896
3542.81054	0.96883
3540.75673	0.96929
3538.70293	0.96934
3536.64913	0.96892
3534.59532	0.96892
3532.54152	0.96945
3530.48772	0.96993
3528.43391	0.97031
3526.38011	0.97047
3524.32631	0.97031
3522.27250	0.97023
3520.21870	0.97019
3518.16490	0.97013
3516.11109	0.97011
3514.05729	0.97016
3512.00349	0.97056
3509.94968	0.97098
3507.89588	0.97103
3505.84208	0.97082
3503.78827	0.97033
3501.73447	0.97008
3499.68067	0.97019
3497.62687	0.96989
3495.57306	0.96957
3493.51926	0.96983
3491.46546	0.97030
3489.41165	0.97084
3487.35785	0.97100
3485.30405	0.97061
3483.25024	0.97045
3481.19644	0.97041
3479.14264	0.97036
3477.08883	0.97042
3475.03503	0.97040
3472.98123	0.97025
3470.92742	0.96992
3468.87362	0.96945
3466.81982	0.96925
3464.76601	0.96938
3462.71221	0.96934
3460.65841	0.96918
3458.60460	0.96924
3456.55080	0.96933
3454.49700	0.96940
3452.44319	0.96941
3450.38939	0.96930
3448.33559	0.96908
3446.28178	0.96861
3444.22798	0.96841
3442.17418	0.96886
3440.12038	0.96912
3438.06657	0.96887
3436.01277	0.96883
3433.95897	0.96913
3431.90516	0.96915
3429.85136	0.96888
3427.79756	0.96850
3425.74375	0.96781
3423.68995	0.96730
3421.63615	0.96723
3419.58234	0.96716
3417.52854	0.96694
3415.47474	0.96667
3413.42093	0.96656
3411.36713	0.96655
3409.31333	0.96667
3407.25952	0.96699
3405.20572	0.96712
3403.15192	0.96687
3401.09811	0.96654
3399.04431	0.96628
3396.99051	0.96612
3394.93670	0.96620
3392.88290	0.96648
3390.82910	0.96656
3388.77529	0.96649
3386.72149	0.96675
3384.66769	0.96724
3382.61389	0.96757
3380.56008	0.96779
3378.50628	0.96776
3376.45248	0.96734
3374.39867	0.96732
3372.34487	0.96783
3370.29107	0.96788
3368.23726	0.96751
3366.18346	0.96755
3364.12966	0.96801
3362.07585	0.96825
3360.02205	0.96821
3357.96825	0.96828
3355.91444	0.96843
3353.86064	0.96867
3351.80684	0.96913
3349.75303	0.96957
3347.69923	0.96984
3345.64543	0.97007
3343.59162	0.97031
3341.53782	0.97039
3339.48402	0.97012
3337.43021	0.96998
3335.37641	0.97053
3333.32261	0.97125
3331.26881	0.97131
3329.21500	0.97119
3327.16120	0.97135
3325.10740	0.97120
3323.05359	0.97072
3320.99979	0.97066
3318.94599	0.97106
3316.89218	0.97139
3314.83838	0.97157
3312.78458	0.97168
3310.73077	0.97170
3308.67697	0.97177
3306.62317	0.97195
3304.56936	0.97189
3302.51556	0.97176
3300.46176	0.97220
3298.40795	0.97295
3296.35415	0.97319
3294.30035	0.97318
3292.24654	0.97357
3290.19274	0.97356
3288.13894	0.97300
3286.08513	0.97293
3284.03133	0.97337
3281.97753	0.97363
3279.92372	0.97363
3277.86992	0.97388
3275.81612	0.97407
3273.76232	0.97383
3271.70851	0.97375
3269.65471	0.97401
3267.60091	0.97437
3265.54710	0.97463
3263.49330	0.97460
3261.43950	0.97450
3259.38569	0.97466
3257.33189	0.97499
3255.27809	0.97487
3253.22428	0.97444
3251.17048	0.97445
3249.11668	0.97491
3247.06287	0.97507
3245.00907	0.97472
3242.95527	0.97443
3240.90146	0.97455
3238.84766	0.97510
3236.79386	0.97572
3234.74005	0.97596
3232.68625	0.97598
3230.63245	0.97623
3228.57864	0.97637
3226.52484	0.97602
3224.47104	0.97591
3222.41724	0.97609
3220.36343	0.97609
3218.30963	0.97651
3216.25583	0.97744
3214.20202	0.97769
3212.14822	0.97701
3210.09442	0.97650
3208.04061	0.97673
3205.98681	0.97709
3203.93301	0.97752
3201.87920	0.97826
3199.82540	0.97854
3197.77160	0.97814
3195.71779	0.97780
3193.66399	0.97779
3191.61019	0.97809
3189.55638	0.97875
3187.50258	0.97928
3185.44878	0.97960
3183.39497	0.97966
3181.34117	0.97928
3179.28737	0.97893
3177.23356	0.97907
3175.17976	0.97949
3173.12596	0.97965
3171.07215	0.97972
3169.01835	0.97994
3166.96455	0.98006
3164.91075	0.98016
3162.85694	0.98037
3160.80314	0.98067
3158.74934	0.98081
3156.69553	0.98079
3154.64173	0.98077
3152.58793	0.98078
3150.53412	0.98114
3148.48032	0.98180
3146.42652	0.98219
3144.37271	0.98224
3142.31891	0.98223
3140.26511	0.98207
3138.21130	0.98170
3136.15750	0.98159
3134.10370	0.98176
3132.04989	0.98184
3129.99609	0.98217
3127.94229	0.98268
3125.88848	0.98294
3123.83468	0.98294
3121.78088	0.98273
3119.72707	0.98256
3117.67327	0.98276
3115.61947	0.98316
3113.56566	0.98316
3111.51186	0.98277
3109.45806	0.98245
3107.40426	0.98222
3105.35045	0.98211
3103.29665	0.98223
3101.24285	0.98216
3099.18904	0.98197
3097.13524	0.98206
3095.08144	0.98222
3093.02763	0.98232
3090.97383	0.98221
3088.92003	0.98145
3086.86622	0.98044
3084.81242	0.97994
3082.75862	0.97977
3080.70481	0.97987
3078.65101	0.98030
3076.59721	0.98074
3074.54340	0.98093
3072.48960	0.98091
3070.43580	0.98085
3068.38199	0.98072
3066.32819	0.98046
3064.27439	0.98002
3062.22058	0.97923
3060.16678	0.97842
3058.11298	0.97798
3056.05918	0.97846
3054.00537	0.97998
3051.95157	0.98126
3049.89777	0.98178
3047.84396	0.98233
3045.79016	0.98307
3043.73636	0.98328
3041.68255	0.98276
3039.62875	0.98180
3037.57495	0.98074
3035.52114	0.97965
3033.46734	0.97799
3031.41354	0.97575
3029.35973	0.97376
3027.30593	0.97273
3025.25213	0.97282
3023.19832	0.97385
3021.14452	0.97590
3019.09072	0.97864
3017.03691	0.98081
3014.98311	0.98174
3012.92931	0.98214
3010.87550	0.98282
3008.82170	0.98339
3006.76790	0.98322
3004.71409	0.98245
3002.66029	0.98176
3000.60649	0.98185
2998.55269	0.98249
2996.49888	0.98298
2994.44508	0.98329
2992.39128	0.98347
2990.33747	0.98336
2988.28367	0.98288
2986.22987	0.98214
2984.17606	0.98133
2982.12226	0.98040
2980.06846	0.97924
2978.01465	0.97821
2975.96085	0.97742
2973.90705	0.97662
2971.85324	0.97588
2969.79944	0.97547
2967.74564	0.97541
2965.69183	0.97515
2963.63803	0.97443
2961.58423	0.97387
2959.53042	0.97379
2957.47662	0.97366
2955.42282	0.97302
2953.36901	0.97232
2951.31521	0.97191
2949.26141	0.97149
2947.20761	0.97060
2945.15380	0.96915
2943.10000	0.96717
2941.04620	0.96468
2938.99239	0.96197
2936.93859	0.95905
2934.88479	0.95543
2932.83098	0.95128
2930.77718	0.94711
2928.72338	0.94240
2926.66957	0.93707
2924.61577	0.93223
2922.56197	0.92864
2920.50816	0.92669
2918.45436	0.92697
2916.40056	0.92955
2914.34675	0.93362
2912.29295	0.93811
2910.23915	0.94215
2908.18534	0.94561
2906.13154	0.94884
2904.07774	0.95181
2902.02393	0.95462
2899.97013	0.95765
2897.91633	0.96083
2895.86252	0.96402
2893.80872	0.96706
2891.75492	0.96977
2889.70112	0.97205
2887.64731	0.97346
2885.59351	0.97435
2883.53971	0.97542
2881.48590	0.97644
2879.43210	0.97726
2877.37830	0.97791
2875.32449	0.97816
2873.27069	0.97797
2871.21689	0.97782
2869.16308	0.97771
2867.10928	0.97736
2865.05548	0.97711
2863.00167	0.97657
2860.94787	0.97457
2858.89407	0.97119
2856.84026	0.96720
2854.78646	0.96275
2852.73266	0.95859
2850.67885	0.95698
2848.62505	0.95923
2846.57125	0.96387
2844.51744	0.96880
2842.46364	0.97302
2840.40984	0.97630
2838.35603	0.97899
2836.30223	0.98127
2834.24843	0.98290
2832.19463	0.98406
2830.14082	0.98494
2828.08702	0.98537
2826.03322	0.98537
2823.97941	0.98539
2821.92561	0.98562
2819.87181	0.98580
2817.81800	0.98588
2815.76420	0.98617
2813.71040	0.98654
2811.65659	0.98675
2809.60279	0.98708
2807.54899	0.98770
2805.49518	0.98821
2803.44138	0.98852
2801.38758	0.98903
2799.33377	0.98964
2797.27997	0.98978
2795.22617	0.98955
2793.17236	0.98943
2791.11856	0.98951
2789.06476	0.98958
2787.01095	0.98954
2784.95715	0.98954
2782.90335	0.98978
2780.84955	0.99008
2778.79574	0.99007
2776.74194	0.98999
2774.68814	0.99032
2772.63433	0.99066
2770.58053	0.99054
2768.52673	0.99039
2766.47292	0.99058
2764.41912	0.99081
2762.36532	0.99065
2760.31151	0.99029
2758.25771	0.99030
2756.20391	0.99056
2754.15010	0.99067
2752.09630	0.99074
2750.04250	0.99069
2747.98869	0.99049
2745.93489	0.99034
2743.88109	0.99015
2741.82728	0.98997
2739.77348	0.99007
2737.71968	0.99036
2735.66587	0.99068
2733.61207	0.99087
2731.55827	0.99083
2729.50446	0.99091
2727.45066	0.99124
2725.39686	0.99134
2723.34306	0.99097
2721.28925	0.99077
2719.23545	0.99082
2717.18165	0.99086
2715.12784	0.99101
2713.07404	0.99106
2711.02024	0.99086
2708.96643	0.99079
2706.91263	0.99118
2704.85883	0.99159
2702.80502	0.99153
2700.75122	0.99123
2698.69742	0.99103
2696.64361	0.99134
2694.58981	0.99188
2692.53601	0.99220
2690.48220	0.99228
2688.42840	0.99211
2686.37460	0.99186
2684.32079	0.99162
2682.26699	0.99133
2680.21319	0.99112
2678.15938	0.99102
2676.10558	0.99106
2674.05178	0.99135
2671.99797	0.99154
2669.94417	0.99133
2667.89037	0.99134
2665.83657	0.99172
2663.78276	0.99187
2661.72896	0.99180
2659.67516	0.99168
2657.62135	0.99138
2655.56755	0.99096
2653.51375	0.99069
2651.45994	0.99092
2649.40614	0.99134
2647.35234	0.99153
2645.29853	0.99152
2643.24473	0.99147
2641.19093	0.99125
2639.13712	0.99092
2637.08332	0.99076
2635.02952	0.99078
2632.97571	0.99080
2630.92191	0.99069
2628.86811	0.99083
2626.81430	0.99127
2624.76050	0.99138
2622.70670	0.99141
2620.65289	0.99187
2618.59909	0.99204
2616.54529	0.99147
2614.49149	0.99120
2612.43768	0.99178
2610.38388	0.99238
2608.33008	0.99220
2606.27627	0.99182
2604.22247	0.99202
2602.16867	0.99246
2600.11486	0.99278
2598.06106	0.99264
2596.00726	0.99197
2593.95345	0.99177
2591.89965	0.99235
2589.84585	0.99277
2587.79204	0.99250
2585.73824	0.99217
2583.68444	0.99233
2581.63063	0.99272
2579.57683	0.99316
2577.52303	0.99328
2575.46922	0.99300
2573.41542	0.99305
2571.36162	0.99346
2569.30781	0.99336
2567.25401	0.99254
2565.20021	0.99184
2563.14640	0.99177
2561.09260	0.99219
2559.03880	0.99273
2556.98500	0.99284
2554.93119	0.99277
2552.87739	0.99344
2550.82359	0.99441
2548.76978	0.99431
2546.71598	0.99334
2544.66218	0.99253
2542.60837	0.99210
2540.55457	0.99215
2538.50077	0.99279
2536.44696	0.99378
2534.39316	0.99436
2532.33936	0.99416
2530.28555	0.99391
2528.23175	0.99364
2526.17795	0.99285
2524.12414	0.99217
2522.07034	0.99223
2520.01654	0.99286
2517.96273	0.99332
2515.90893	0.99328
2513.85513	0.99306
2511.80132	0.99304
2509.74752	0.99311
2507.69372	0.99299
2505.63992	0.99303
2503.58611	0.99298
2501.53231	0.99267
2499.47851	0.99256
2497.42470	0.99248
2495.37090	0.99241
2493.31710	0.99252
2491.26329	0.99268
2489.20949	0.99298
2487.15569	0.99349
2485.10188	0.99379
2483.04808	0.99377
2480.99428	0.99398
2478.94047	0.99444
2476.88667	0.99458
2474.83287	0.99437
2472.77906	0.99413
2470.72526	0.99408
2468.67146	0.99403
2466.61765	0.99372
2464.56385	0.99348
2462.51005	0.99341
2460.45624	0.99311
2458.40244	0.99257
2456.34864	0.99226
2454.29483	0.99264
2452.24103	0.99341
2450.18723	0.99366
2448.13343	0.99346
2446.07962	0.99358
2444.02582	0.99390
2441.97202	0.99406
2439.91821	0.99420
2437.86441	0.99427
2435.81061	0.99430
2433.75680	0.99440
2431.70300	0.99437
2429.64920	0.99387
2427.59539	0.99334
2425.54159	0.99348
2423.48779	0.99376
2421.43398	0.99401
2419.38018	0.99449
2417.32638	0.99463
2415.27257	0.99432
2413.21877	0.99415
2411.16497	0.99386
2409.11116	0.99352
2407.05736	0.99404
2405.00356	0.99519
2402.94975	0.99577
2400.89595	0.99511
2398.84215	0.99416
2396.78834	0.99400
2394.73454	0.99408
2392.68074	0.99386
2390.62694	0.99367
2388.57313	0.99367
2386.51933	0.99384
2384.46553	0.99409
2382.41172	0.99429
2380.35792	0.99454
2378.30412	0.99467
2376.25031	0.99422
2374.19651	0.99324
2372.14271	0.99220
2370.08890	0.99176
2368.03510	0.99179
2365.98130	0.99202
2363.92749	0.99242
2361.87369	0.99248
2359.81989	0.99226
2357.76608	0.99223
2355.71228	0.99223
2353.65848	0.99186
2351.60467	0.99150
2349.55087	0.99177
2347.49707	0.99255
2345.44326	0.99323
2343.38946	0.99293
2341.33566	0.99233
2339.28186	0.99313
2337.22805	0.99431
2335.17425	0.99424
2333.12045	0.99309
2331.06664	0.99195
2329.01284	0.99178
2326.95904	0.99203
2324.90523	0.99161
2322.85143	0.99100
2320.79763	0.99171
2318.74382	0.99259
2316.69002	0.99176
2314.63622	0.99063
2312.58241	0.99078
2310.52861	0.99145
2308.47481	0.99207
2306.42100	0.99262
2304.36720	0.99247
2302.31340	0.99223
2300.25959	0.99262
2298.20579	0.99270
2296.15199	0.99271
2294.09818	0.99316
2292.04438	0.99285
2289.99058	0.99213
2287.93677	0.99217
2285.88297	0.99246
2283.82917	0.99267
2281.77537	0.99268
2279.72156	0.99262
2277.66776	0.99260
2275.61396	0.99251
2273.56015	0.99301
2271.50635	0.99421
2269.45255	0.99516
2267.39874	0.99482
2265.34494	0.99376
2263.29114	0.99362
2261.23733	0.99364
2259.18353	0.99282
2257.12973	0.99237
2255.07592	0.99298
2253.02212	0.99416
2250.96832	0.99518
2248.91451	0.99536
2246.86071	0.99479
2244.80691	0.99387
2242.75310	0.99308
2240.69930	0.99305
2238.64550	0.99361
2236.59169	0.99346
2234.53789	0.99202
2232.48409	0.99055
2230.43029	0.99068
2228.37648	0.99297
2226.32268	0.99594
2224.26888	0.99649
2222.21507	0.99510
2220.16127	0.99469
2218.10747	0.99391
2216.05366	0.99208
2213.99986	0.99187
2211.94606	0.99299
2209.89225	0.99355
2207.83845	0.99382
2205.78465	0.99404
2203.73084	0.99407
2201.67704	0.99454
2199.62324	0.99502
2197.56943	0.99501
2195.51563	0.99475
2193.46183	0.99421
2191.40802	0.99333
2189.35422	0.99355
2187.30042	0.99557
2185.24661	0.99560
2183.19281	0.99299
2181.13901	0.99257
2179.08520	0.99407
2177.03140	0.99489
2174.97760	0.99591
2172.92380	0.99693
2170.86999	0.99614
2168.81619	0.99442
2166.76239	0.99433
2164.70858	0.99512
2162.65478	0.99394
2160.60098	0.99138
2158.54717	0.99184
2156.49337	0.99457
2154.43957	0.99549
2152.38576	0.99581
2150.33196	0.99576
2148.27816	0.99486
2146.22435	0.99546
2144.17055	0.99802
2142.11675	1.00006
2140.06294	1.00047
2138.00914	1.00004
2135.95534	0.99884
2133.90153	0.99720
2131.84773	0.99670
2129.79393	0.99654
2127.74012	0.99527
2125.68632	0.99410
2123.63252	0.99377
2121.57871	0.99380
2119.52491	0.99386
2117.47111	0.99371
2115.41731	0.99354
2113.36350	0.99379
2111.30970	0.99457
2109.25590	0.99457
2107.20209	0.99328
2105.14829	0.99243
2103.09449	0.99272
2101.04068	0.99315
2098.98688	0.99369
2096.93308	0.99484
2094.87927	0.99566
2092.82547	0.99596
2090.77167	0.99623
2088.71786	0.99528
2086.66406	0.99370
2084.61026	0.99371
2082.55645	0.99459
2080.50265	0.99493
2078.44885	0.99502
2076.39504	0.99476
2074.34124	0.99402
2072.28744	0.99384
2070.23363	0.99488
2068.17983	0.99599
2066.12603	0.99580
2064.07223	0.99409
2062.01842	0.99265
2059.96462	0.99401
2057.91082	0.99645
2055.85701	0.99623
2053.80321	0.99451
2051.74941	0.99420
2049.69560	0.99507
2047.64180	0.99541
2045.58800	0.99470
2043.53419	0.99403
2041.48039	0.99346
2039.42659	0.99224
2037.37278	0.99256
2035.31898	0.99519
2033.26518	0.99686
2031.21137	0.99767
2029.15757	0.99752
2027.10377	0.99574
2025.04996	0.99643
2022.99616	0.99912
2020.94236	0.99865
2018.88855	0.99452
2016.83475	0.99181
2014.78095	0.99452
2012.72714	0.99870
2010.67334	1.00004
2008.61954	0.99921
2006.56574	0.99682
2004.51193	0.99438
2002.45813	0.99481
2000.40433	0.99722
1998.35052	0.99843
1996.29672	0.99781
1994.24292	0.99599
1992.18911	0.99391
1990.13531	0.99418
1988.08151	0.99572
1986.02770	0.99544
1983.97390	0.99437
1981.92010	0.99302
1979.86629	0.99111
1977.81249	0.99130
1975.75869	0.99391
1973.70488	0.99521
1971.65108	0.99452
1969.59728	0.99493
1967.54347	0.99601
1965.48967	0.99418
1963.43587	0.99130
1961.38206	0.99126
1959.32826	0.99337
1957.27446	0.99462
1955.22066	0.99432
1953.16685	0.99448
1951.11305	0.99506
1949.05925	0.99426
1947.00544	0.99350
1944.95164	0.99414
1942.89784	0.99490
1940.84403	0.99515
1938.79023	0.99539
1936.73643	0.99509
1934.68262	0.99424
1932.62882	0.99373
1930.57502	0.99345
1928.52121	0.99353
1926.46741	0.99388
1924.41361	0.99443
1922.35980	0.99549
1920.30600	0.99650
1918.25220	0.99652
1916.19839	0.99496
1914.14459	0.99335
1912.09079	0.99326
1910.03698	0.99368
1907.98318	0.99375
1905.92938	0.99429
1903.87557	0.99476
1901.82177	0.99439
1899.76797	0.99386
1897.71417	0.99379
1895.66036	0.99402
1893.60656	0.99441
1891.55276	0.99479
1889.49895	0.99480
1887.44515	0.99450
1885.39135	0.99380
1883.33754	0.99270
1881.28374	0.99180
1879.22994	0.99169
1877.17613	0.99223
1875.12233	0.99271
1873.06853	0.99296
1871.01472	0.99270
1868.96092	0.99201
1866.90712	0.99163
1864.85331	0.99169
1862.79951	0.99232
1860.74571	0.99352
1858.69190	0.99424
1856.63810	0.99407
1854.58430	0.99361
1852.53049	0.99337
1850.47669	0.99350
1848.42289	0.99386
1846.36908	0.99451
1844.31528	0.99509
1842.26148	0.99476
1840.20768	0.99422
1838.15387	0.99432
1836.10007	0.99476
1834.04627	0.99468
1831.99246	0.99381
1829.93866	0.99266
1827.88486	0.99255
1825.83105	0.99331
1823.77725	0.99348
1821.72345	0.99307
1819.66964	0.99305
1817.61584	0.99345
1815.56204	0.99346
1813.50823	0.99318
1811.45443	0.99319
1809.40063	0.99317
1807.34682	0.99264
1805.29302	0.99198
1803.23922	0.99177
1801.18541	0.99179
1799.13161	0.99148
1797.07781	0.99100
1795.02400	0.99095
1792.97020	0.99136
1790.91640	0.99174
1788.86260	0.99188
1786.80879	0.99174
1784.75499	0.99151
1782.70119	0.99144
1780.64738	0.99139
1778.59358	0.99139
1776.53978	0.99151
1774.48597	0.99149
1772.43217	0.99107
1770.37837	0.99067
1768.32456	0.99090
1766.27076	0.99125
1764.21696	0.99133
1762.16315	0.99112
1760.10935	0.99063
1758.05555	0.99005
1756.00174	0.98941
1753.94794	0.98887
1751.89414	0.98784
1749.84033	0.98567
1747.78653	0.98347
1745.73273	0.98175
1743.67892	0.98017
1741.62512	0.97879
1739.57132	0.97769
1737.51751	0.97716
1735.46371	0.97711
1733.40991	0.97659
1731.35611	0.97571
1729.30230	0.97563
1727.24850	0.97633
1725.19470	0.97724
1723.14089	0.97835
1721.08709	0.97972
1719.03329	0.98115
1716.97948	0.98273
1714.92568	0.98388
1712.87188	0.98426
1710.81807	0.98457
1708.76427	0.98529
1706.71047	0.98609
1704.65666	0.98600
1702.60286	0.98524
1700.54906	0.98464
1698.49525	0.98436
1696.44145	0.98393
1694.38765	0.98319
1692.33384	0.98242
1690.28004	0.98162
1688.22624	0.98088
1686.17243	0.98021
1684.11863	0.97949
1682.06483	0.97898
1680.01103	0.97825
1677.95722	0.97727
1675.90342	0.97645
1673.84962	0.97609
1671.79581	0.97594
1669.74201	0.97537
1667.68821	0.97475
1665.63440	0.97466
1663.58060	0.97431
1661.52680	0.97338
1659.47299	0.97301
1657.41919	0.97308
1655.36539	0.97285
1653.31158	0.97247
1651.25778	0.97247
1649.20398	0.97233
1647.15017	0.97210
1645.09637	0.97220
1643.04257	0.97207
1640.98876	0.97160
1638.93496	0.97132
1636.88116	0.97136
1634.82735	0.97119
1632.77355	0.97089
1630.71975	0.97082
1628.66594	0.97077
1626.61214	0.97066
1624.55834	0.97045
1622.50454	0.96996
1620.45073	0.96971
1618.39693	0.96968
1616.34313	0.96930
1614.28932	0.96883
1612.23552	0.96849
1610.18172	0.96777
1608.12791	0.96607
1606.07411	0.96349
1604.02031	0.96090
1601.96650	0.95936
1599.91270	0.95968
1597.85890	0.96158
1595.80509	0.96395
1593.75129	0.96597
1591.69749	0.96748
1589.64368	0.96849
1587.58988	0.96883
1585.53608	0.96850
1583.48227	0.96813
1581.42847	0.96861
1579.37467	0.96972
1577.32086	0.97087
1575.26706	0.97221
1573.21326	0.97342
1571.15945	0.97426
1569.10565	0.97505
1567.05185	0.97579
1564.99805	0.97630
1562.94424	0.97652
1560.89044	0.97664
1558.83664	0.97722
1556.78283	0.97766
1554.72903	0.97740
1552.67523	0.97729
1550.62142	0.97754
1548.56762	0.97756
1546.51382	0.97731
1544.46001	0.97684
1542.40621	0.97600
1540.35241	0.97545
1538.29860	0.97618
1536.24480	0.97694
1534.19100	0.97729
1532.13719	0.97759
1530.08339	0.97781
1528.02959	0.97767
1525.97578	0.97729
1523.92198	0.97722
1521.86818	0.97688
1519.81437	0.97591
1517.76057	0.97510
1515.70677	0.97454
1513.65297	0.97434
1511.59916	0.97417
1509.54536	0.97384
1507.49156	0.97294
1505.43775	0.97132
1503.38395	0.97010
1501.33015	0.96834
1499.27634	0.96437
1497.22254	0.95520
1495.16874	0.94345
1493.11493	0.93775
1491.06113	0.94007
1489.00733	0.94801
1486.95352	0.95424
1484.89972	0.95717
1482.84592	0.95860
1480.79211	0.95884
1478.73831	0.95822
1476.68451	0.95690
1474.63070	0.95465
1472.57690	0.95200
1470.52310	0.95076
1468.46929	0.95069
1466.41549	0.95080
1464.36169	0.95087
1462.30788	0.95090
1460.25408	0.95041
1458.20028	0.94643
1456.14648	0.93525
1454.09267	0.92667
1452.03887	0.92460
1449.98507	0.92712
1447.93126	0.93150
1445.87746	0.93470
1443.82366	0.93593
1441.76985	0.93507
1439.71605	0.93207
1437.66225	0.92695
1435.60844	0.92120
1433.55464	0.91878
1431.50084	0.91829
1429.44703	0.91696
1427.39323	0.91513
1425.33943	0.91551
1423.28562	0.91937
1421.23182	0.92486
1419.17802	0.93088
1417.12421	0.93681
1415.07041	0.94152
1413.01661	0.94607
1410.96280	0.95098
1408.90900	0.95545
1406.85520	0.95879
1404.80139	0.96139
1402.74759	0.96323
1400.69379	0.96440
1398.63999	0.96525
1396.58618	0.96581
1394.53238	0.96615
1392.47858	0.96620
1390.42477	0.96590
1388.37097	0.96541
1386.31717	0.96485
1384.26336	0.96436
1382.20956	0.96405
1380.15576	0.96366
1378.10195	0.96317
1376.04815	0.96288
1373.99435	0.96266
1371.94054	0.96252
1369.88674	0.96258
1367.83294	0.96246
1365.77913	0.96216
1363.72533	0.96179
1361.67153	0.96132
1359.61772	0.96093
1357.56392	0.96075
1355.51012	0.96079
1353.45631	0.96105
1351.40251	0.96157
1349.34871	0.96213
1347.29491	0.96202
1345.24110	0.96121
1343.18730	0.96009
1341.13350	0.95806
1339.07969	0.95460
1337.02589	0.95080
1334.97209	0.94776
1332.91828	0.94574
1330.86448	0.94450
1328.81068	0.94362
1326.75687	0.94329
1324.70307	0.94401
1322.64927	0.94543
1320.59546	0.94696
1318.54166	0.94866
1316.48786	0.95048
1314.43405	0.95235
1312.38025	0.95417
1310.32645	0.95559
1308.27264	0.95671
1306.21884	0.95785
1304.16504	0.95884
1302.11123	0.95946
1300.05743	0.96009
1298.00363	0.96114
1295.94982	0.96227
1293.89602	0.96311
1291.84222	0.96360
1289.78842	0.96370
1287.73461	0.96331
1285.68081	0.96246
1283.62701	0.96149
1281.57320	0.96050
1279.51940	0.95905
1277.46560	0.95707
1275.41179	0.95477
1273.35799	0.95194
1271.30419	0.94870
1269.25038	0.94541
1267.19658	0.94191
1265.14278	0.93778
1263.08897	0.93361
1261.03517	0.93033
1258.98137	0.92776
1256.92756	0.92558
1254.87376	0.92411
1252.81996	0.92324
1250.76615	0.92254
1248.71235	0.92205
1246.65855	0.92168
1244.60474	0.92141
1242.55094	0.92146
1240.49714	0.92201
1238.44334	0.92327
1236.38953	0.92512
1234.33573	0.92749
1232.28193	0.93044
1230.22812	0.93389
1228.17432	0.93740
1226.12052	0.94080
1224.06671	0.94414
1222.01291	0.94695
1219.95911	0.94887
1217.90530	0.94983
1215.85150	0.94967
1213.79770	0.94865
1211.74389	0.94743
1209.69009	0.94621
1207.63629	0.94476
1205.58248	0.94282
1203.52868	0.94065
1201.47488	0.93861
1199.42107	0.93671
1197.36727	0.93502
1195.31347	0.93368
1193.25966	0.93279
1191.20586	0.93226
1189.15206	0.93167
1187.09825	0.93058
1185.04445	0.92904
1182.99065	0.92773
1180.93685	0.92690
1178.88304	0.92603
1176.82924	0.92489
1174.77544	0.92348
1172.72163	0.92187
1170.66783	0.92023
1168.61403	0.91865
1166.56022	0.91727
1164.50642	0.91636
1162.45262	0.91607
1160.39881	0.91594
1158.34501	0.91515
1156.29121	0.91384
1154.23740	0.91286
1152.18360	0.91238
1150.12980	0.91192
1148.07599	0.91166
1146.02219	0.91179
1143.96839	0.91198
1141.91458	0.91190
1139.86078	0.91136
1137.80698	0.91060
1135.75317	0.90986
1133.69937	0.90891
1131.64557	0.90769
1129.59176	0.90633
1127.53796	0.90474
1125.48416	0.90281
1123.43036	0.90046
1121.37655	0.89773
1119.32275	0.89480
1117.26895	0.89194
1115.21514	0.88951
1113.16134	0.88744
1111.10754	0.88526
1109.05373	0.88299
1106.99993	0.88082
1104.94613	0.87838
1102.89232	0.87578
1100.83852	0.87349
1098.78472	0.87150
1096.73091	0.86978
1094.67711	0.86837
1092.62331	0.86732
1090.56950	0.86673
1088.51570	0.86648
1086.46190	0.86626
1084.40809	0.86596
1082.35429	0.86564
1080.30049	0.86515
1078.24668	0.86457
1076.19288	0.86389
1074.13908	0.86268
1072.08528	0.86122
1070.03147	0.86003
1067.97767	0.85921
1065.92387	0.85865
1063.87006	0.85810
1061.81626	0.85757
1059.76246	0.85720
1057.70865	0.85679
1055.65485	0.85604
1053.60105	0.85477
1051.54724	0.85297
1049.49344	0.85108
1047.43964	0.84925
1045.38583	0.84717
1043.33203	0.84512
1041.27823	0.84330
1039.22442	0.84154
1037.17062	0.83956
1035.11682	0.83690
1033.06301	0.83375
1031.00921	0.83091
1028.95541	0.82901
1026.90160	0.82838
1024.84780	0.82886
1022.79400	0.82968
1020.74019	0.83010
1018.68639	0.82997
1016.63259	0.82988
1014.57879	0.82997
1012.52498	0.83015
1010.47118	0.83053
1008.41738	0.83100
1006.36357	0.83153
1004.30977	0.83220
1002.25597	0.83319
1000.20216	0.83463
998.14836	0.83628
996.09456	0.83782
994.04075	0.83941
991.98695	0.84137
989.93315	0.84320
987.87934	0.84458
985.82554	0.84605
983.77174	0.84769
981.71793	0.84908
979.66413	0.85034
977.61033	0.85182
975.55652	0.85331
973.50272	0.85421
971.44892	0.85468
969.39511	0.85566
967.34131	0.85752
965.28751	0.85987
963.23371	0.86248
961.17990	0.86556
959.12610	0.86930
957.07230	0.87370
955.01849	0.87837
952.96469	0.88254
950.91089	0.88569
948.85708	0.88816
946.80328	0.89066
944.74948	0.89320
942.69567	0.89533
940.64187	0.89724
938.58807	0.89941
936.53426	0.90176
934.48046	0.90426
932.42666	0.90686
930.37285	0.90895
928.31905	0.91020
926.26525	0.91087
924.21144	0.91169
922.15764	0.91291
920.10384	0.91362
918.05003	0.91359
915.99623	0.91341
913.94243	0.91332
911.88862	0.91321
909.83482	0.91353
907.78102	0.91515
905.72722	0.91788
903.67341	0.92105
901.61961	0.92452
899.56581	0.92793
897.51200	0.93123
895.45820	0.93420
893.40440	0.93616
891.35059	0.93756
889.29679	0.93896
887.24299	0.93995
885.18918	0.94021
883.13538	0.93955
881.08158	0.93786
879.02777	0.93582
876.97397	0.93460
874.92017	0.93512
872.86636	0.93768
870.81256	0.94101
868.75876	0.94325
866.70495	0.94377
864.65115	0.94361
862.59735	0.94419
860.54354	0.94549
858.48974	0.94694
856.43594	0.94862
854.38213	0.94999
852.32833	0.95032
850.27453	0.95023
848.22073	0.95040
846.16692	0.95029
844.11312	0.94963
842.05932	0.94921
840.00551	0.94900
837.95171	0.94850
835.89791	0.94816
833.84410	0.94818
831.79030	0.94841
829.73650	0.94934
827.68269	0.95154
825.62889	0.95435
823.57509	0.95632
821.52128	0.95734
819.46748	0.95844
817.41368	0.95929
815.35987	0.95934
813.30607	0.95885
811.25227	0.95783
809.19846	0.95664
807.14466	0.95565
805.09086	0.95391
803.03705	0.95111
800.98325	0.94896
798.92945	0.94825
796.87565	0.94848
794.82184	0.94924
792.76804	0.94989
790.71424	0.95008
788.66043	0.95002
786.60663	0.94935
784.55283	0.94756
782.49902	0.94551
780.44522	0.94393
778.39142	0.94218
776.33761	0.94014
774.28381	0.93831
772.23001	0.93606
770.17620	0.93258
768.12240	0.92819
766.06860	0.92355
764.01479	0.91878
761.96099	0.91369
759.90719	0.90897
757.85338	0.90578
755.79958	0.90460
753.74578	0.90545
751.69197	0.90719
749.63817	0.90872
747.58437	0.91097
745.53056	0.91498
743.47676	0.92011
741.42296	0.92552
739.36916	0.93104
737.31535	0.93576
735.26155	0.93859
733.20775	0.94010
731.15394	0.94118
729.10014	0.94204
727.04634	0.94200
724.99253	0.94061
722.93873	0.93922
720.88493	0.93855
718.83112	0.93801
716.77732	0.93737
714.72352	0.93575
712.66971	0.93181
710.61591	0.92493
708.56211	0.91433
706.50830	0.89842
704.45450	0.87611
702.40070	0.84891
700.34689	0.82095
698.29309	0.79886
696.23929	0.79259
694.18548	0.80747
692.13168	0.83428
690.07788	0.85821
688.02408	0.87352
685.97027	0.88242
683.91647	0.88752
681.86267	0.89003
679.80886	0.89111
677.75506	0.89241
675.70126	0.89462
673.64745	0.89674
671.59365	0.89842
669.53985	0.90066
667.48604	0.90412
665.43224	0.90715
663.37844	0.90876
661.32463	0.90875
659.27083	0.90720
657.21703	0.90463
655.16322	0.90169
653.10942	0.89808
651.05562	0.89313
649.00181	0.88798
646.94801	0.88393
644.89421	0.88158
642.84040	0.88087
640.78660	0.87978
638.73280	0.87701
636.67899	0.87422
634.62519	0.87261
632.57139	0.87142
630.51759	0.87033
628.46378	0.86958
626.40998	0.86802
624.35618	0.86479
622.30237	0.86133
620.24857	0.85860
618.19477	0.85572
616.14096	0.85205
614.08716	0.84767
612.03336	0.84387
609.97955	0.84293
607.92575	0.84535
605.87195	0.84950
603.81814	0.85441
601.76434	0.86035
599.71054	0.86711
597.65673	0.87329
595.60293	0.87762
593.54913	0.88103
591.49532	0.88420
589.44152	0.88569
587.38772	0.88651
585.33391	0.88796
583.28011	0.88936
581.22631	0.89239
579.17250	0.89683
577.11870	0.89930
575.06490	0.89994
573.01110	0.89933
570.95729	0.89736
568.90349	0.89608
566.84969	0.89532
564.79588	0.89423
562.74208	0.89396
560.68828	0.89234
558.63447	0.88920
556.58067	0.88832
554.52687	0.88855
552.47306	0.88671
550.41926	0.88301
548.36546	0.87962
546.31165	0.87708
544.25785	0.87310
542.20405	0.86789
540.15024	0.86410
538.09644	0.86291
536.04264	0.86389
533.98883	0.86588
531.93503	0.86878
529.88123	0.87318
527.82742	0.87782
525.77362	0.88109
523.71982	0.88361
521.66602	0.88588
519.61221	0.88607
517.55841	0.88507
515.50461	0.88739
513.45080	0.89206
511.39700	0.89530
509.34320	0.89698
507.28939	0.89827
505.23559	0.89941
503.18179	0.89957
501.12798	0.89897
499.07418	0.89902
497.02038	0.89862
494.96657	0.89687
492.91277	0.89505
490.85897	0.89406
488.80516	0.89247
486.75136	0.88878
484.69756	0.88559
482.64375	0.88472
480.58995	0.88271
478.53615	0.87764
476.48234	0.87318
474.42854	0.87193
472.37474	0.87135
470.32093	0.87057
468.26713	0.87117
466.21333	0.87186
464.15953	0.87039
462.10572	0.86848
460.05192	0.86982
457.99812	0.87402
455.94431	0.87842
453.89051	0.88244
451.83671	0.88549
449.78290	0.88801
447.72910	0.89141
445.67530	0.89343
443.62149	0.89160
441.56769	0.88733
439.51389	0.88532
437.46008	0.88697
435.40628	0.88828
433.35248	0.88720
431.29867	0.88450
429.24487	0.88189
427.19107	0.88252
425.13726	0.88611
423.08346	0.88868
421.02966	0.89094
418.97585	0.89602
416.92205	0.89744
414.86825	0.89511
412.81445	0.89395
410.76064	0.89506
408.70684	0.89652
406.65304	0.89574
404.59923	0.89537
402.54543	0.89664
400.49163	0.89419
398.43782	0.88754
