3996.70104	0.94782
3994.64724	0.94774
3992.59344	0.94782
3990.53964	0.94811
3988.48583	0.94807
3986.43203	0.94771
3984.37823	0.94746
3982.32442	0.94748
3980.27062	0.94764
3978.21682	0.94776
3976.16301	0.94802
3974.10921	0.94855
3972.05541	0.94861
3970.00160	0.94787
3967.94780	0.94727
3965.89400	0.94749
3963.84019	0.94797
3961.78639	0.94824
3959.73259	0.94841
3957.67878	0.94827
3955.62498	0.94795
3953.57118	0.94799
3951.51737	0.94796
3949.46357	0.94746
3947.40977	0.94734
3945.35596	0.94795
3943.30216	0.94858
3941.24836	0.94881
3939.19455	0.94908
3937.14075	0.94947
3935.08695	0.94939
3933.03315	0.94871
3930.97934	0.94809
3928.92554	0.94785
3926.87174	0.94782
3924.81793	0.94824
3922.76413	0.94846
3920.71033	0.94781
3918.65652	0.94695
3916.60272	0.94674
3914.54892	0.94719
3912.49511	0.94801
3910.44131	0.94872
3908.38751	0.94860
3906.33370	0.94795
3904.27990	0.94787
3902.22610	0.94851
3900.17229	0.94907
3898.11849	0.94940
3896.06469	0.94929
3894.01088	0.94864
3891.95708	0.94805
3889.90328	0.94808
3887.84947	0.94840
3885.79567	0.94880
3883.74187	0.94919
3881.68807	0.94947
3879.63426	0.94983
3877.58046	0.95011
3875.52666	0.95021
3873.47285	0.95008
3871.41905	0.94999
3869.36525	0.95027
3867.31144	0.95052
3865.25764	0.95037
3863.20384	0.94970
3861.15003	0.94937
3859.09623	0.94979
3857.04243	0.94990
3854.98862	0.94938
3852.93482	0.94970
3850.88102	0.95034
3848.82721	0.94992
3846.77341	0.94907
3844.71961	0.94848
3842.66580	0.94869
3840.61200	0.94953
3838.55820	0.95028
3836.50439	0.95047
3834.45059	0.95047
3832.39679	0.95053
3830.34298	0.95041
3828.28918	0.95001
3826.23538	0.94969
3824.18158	0.94969
3822.12777	0.95000
3820.07397	0.95081
3818.02017	0.95125
3815.96636	0.95081
3813.91256	0.94984
3811.85876	0.94892
3809.80495	0.94848
3807.75115	0.94891
3805.69735	0.94979
3803.64354	0.95017
3801.58974	0.95004
3799.53594	0.94980
3797.48213	0.95014
3795.42833	0.95067
3793.37453	0.95043
3791.32072	0.94965
3789.26692	0.94907
3787.21312	0.94910
3785.15931	0.94963
3783.10551	0.95001
3781.05171	0.94980
3778.99790	0.94951
3776.94410	0.94967
3774.89030	0.94994
3772.83650	0.95008
3770.78269	0.95021
3768.72889	0.95038
3766.67509	0.95062
3764.62128	0.95100
3762.56748	0.95098
3760.51368	0.95041
3758.45987	0.94981
3756.40607	0.94944
3754.35227	0.94898
3752.29846	0.94927
3750.24466	0.95103
3748.19086	0.95129
3746.13705	0.95007
3744.08325	0.95034
3742.02945	0.95194
3739.97564	0.95221
3737.92184	0.95175
3735.86804	0.95168
3733.81423	0.95146
3731.76043	0.95099
3729.70663	0.95106
3727.65282	0.95145
3725.59902	0.95174
3723.54522	0.95161
3721.49141	0.95089
3719.43761	0.95003
3717.38381	0.94958
3715.33001	0.94924
3713.27620	0.94879
3711.22240	0.94846
3709.16860	0.94791
3707.11479	0.94694
3705.06099	0.94585
3703.00719	0.94470
3700.95338	0.94379
3698.89958	0.94330
3696.84578	0.94270
3694.79197	0.94228
3692.73817	0.94253
3690.68437	0.94317
3688.63056	0.94356
3686.57676	0.94317
3684.52296	0.94275
3682.46915	0.94282
3680.41535	0.94295
3678.36155	0.94272
3676.30774	0.94205
3674.25394	0.94136
3672.20014	0.94127
3670.14633	0.94158
3668.09253	0.94152
3666.03873	0.94100
3663.98492	0.94016
3661.93112	0.93920
3659.87732	0.93863
3657.82352	0.93859
3655.76971	0.93853
3653.71591	0.93791
3651.66211	0.93694
3649.60830	0.93549
3647.55450	0.93436
3645.50070	0.93401
3643.44689	0.93373
3641.39309	0.93325
3639.33929	0.93272
3637.28548	0.93263
3635.23168	0.93248
3633.17788	0.93124
3631.12407	0.92961
3629.07027	0.92902
3627.01647	0.92915
3624.96266	0.92909
3622.90886	0.92906
3620.85506	0.92852
3618.80125	0.92736
3616.74745	0.92688
3614.69365	0.92695
3612.63984	0.92676
3610.58604	0.92632
3608.53224	0.92598
3606.47844	0.92607
3604.42463	0.92607
3602.37083	0.92545
3600.31703	0.92484
3598.26322	0.92473
3596.20942	0.92481
3594.15562	0.92481
3592.10181	0.92501
3590.04801	0.92545
3587.99421	0.92543
3585.94040	0.92457
3583.88660	0.92412
3581.83280	0.92422
3579.77899	0.92372
3577.72519	0.92248
3575.67139	0.92156
3573.61758	0.92112
3571.56378	0.92099
3569.50998	0.92098
3567.45617	0.92038
3565.40237	0.91956
3563.34857	0.91940
3561.29476	0.91913
3559.24096	0.91822
3557.18716	0.91714
3555.13335	0.91660
3553.07955	0.91655
3551.02575	0.91671
3548.97195	0.91699
3546.91814	0.91717
3544.86434	0.91720
3542.81054	0.91682
3540.75673	0.91592
3538.70293	0.91492
3536.64913	0.91395
3534.59532	0.91351
3532.54152	0.91380
3530.48772	0.91383
3528.43391	0.91334
3526.38011	0.91311
3524.32631	0.91315
3522.27250	0.91289
3520.21870	0.91249
3518.16490	0.91225
3516.11109	0.91203
3514.05729	0.91160
3512.00349	0.91106
3509.94968	0.91071
3507.89588	0.91055
3505.84208	0.91026
3503.78827	0.90962
3501.73447	0.90894
3499.68067	0.90866
3497.62687	0.90870
3495.57306	0.90865
3493.51926	0.90840
3491.46546	0.90816
3489.41165	0.90786
3487.35785	0.90748
3485.30405	0.90681
3483.25024	0.90588
3481.19644	0.90524
3479.14264	0.90503
3477.08883	0.90475
3475.03503	0.90455
3472.98123	0.90476
3470.92742	0.90486
3468.87362	0.90450
3466.81982	0.90375
3464.76601	0.90283
3462.71221	0.90215
3460.65841	0.90211
3458.60460	0.90225
3456.55080	0.90164
3454.49700	0.90085
3452.44319	0.90064
3450.38939	0.90057
3448.33559	0.90069
3446.28178	0.90119
3444.22798	0.90128
3442.17418	0.90052
3440.12038	0.89930
3438.06657	0.89850
3436.01277	0.89861
3433.95897	0.89886
3431.90516	0.89835
3429.85136	0.89755
3427.79756	0.89711
3425.74375	0.89688
3423.68995	0.89692
3421.63615	0.89723
3419.58234	0.89684
3417.52854	0.89560
3415.47474	0.89457
3413.42093	0.89420
3411.36713	0.89412
3409.31333	0.89406
3407.25952	0.89402
3405.20572	0.89413
3403.15192	0.89440
3401.09811	0.89435
3399.04431	0.89383
3396.99051	0.89346
3394.93670	0.89336
3392.88290	0.89342
3390.82910	0.89343
3388.77529	0.89317
3386.72149	0.89307
3384.66769	0.89336
3382.61389	0.89334
3380.56008	0.89269
3378.50628	0.89204
3376.45248	0.89191
3374.39867	0.89223
3372.34487	0.89271
3370.29107	0.89319
3368.23726	0.89363
3366.18346	0.89395
3364.12966	0.89407
3362.07585	0.89407
3360.02205	0.89408
3357.96825	0.89416
3355.91444	0.89420
3353.86064	0.89409
3351.80684	0.89359
3349.75303	0.89286
3347.69923	0.89284
3345.64543	0.89379
3343.59162	0.89465
3341.53782	0.89475
3339.48402	0.89448
3337.43021	0.89432
3335.37641	0.89435
3333.32261	0.89452
3331.26881	0.89500
3329.21500	0.89567
3327.16120	0.89594
3325.10740	0.89569
3323.05359	0.89551
3320.99979	0.89571
3318.94599	0.89638
3316.89218	0.89710
3314.83838	0.89702
3312.78458	0.89655
3310.73077	0.89667
3308.67697	0.89741
3306.62317	0.89808
3304.56936	0.89818
3302.51556	0.89806
3300.46176	0.89817
3298.40795	0.89831
3296.35415	0.89835
3294.30035	0.89861
3292.24654	0.89883
3290.19274	0.89871
3288.13894	0.89896
3286.08513	0.89969
3284.03133	0.89998
3281.97753	0.89982
3279.92372	0.89972
3277.86992	0.89967
3275.81612	0.89983
3273.76232	0.90025
3271.70851	0.90073
3269.65471	0.90094
3267.60091	0.90095
3265.54710	0.90127
3263.49330	0.90151
3261.43950	0.90110
3259.38569	0.90062
3257.33189	0.90066
3255.27809	0.90111
3253.22428	0.90156
3251.17048	0.90183
3249.11668	0.90215
3247.06287	0.90263
3245.00907	0.90292
3242.95527	0.90303
3240.90146	0.90329
3238.84766	0.90344
3236.79386	0.90321
3234.74005	0.90321
3232.68625	0.90373
3230.63245	0.90414
3228.57864	0.90409
3226.52484	0.90412
3224.47104	0.90465
3222.41724	0.90527
3220.36343	0.90557
3218.30963	0.90570
3216.25583	0.90565
3214.20202	0.90558
3212.14822	0.90608
3210.09442	0.90701
3208.04061	0.90792
3205.98681	0.90857
3203.93301	0.90880
3201.87920	0.90882
3199.82540	0.90885
3197.77160	0.90883
3195.71779	0.90892
3193.66399	0.90941
3191.61019	0.91008
3189.55638	0.91046
3187.50258	0.91058
3185.44878	0.91089
3183.39497	0.91129
3181.34117	0.91122
3179.28737	0.91102
3177.23356	0.91144
3175.17976	0.91222
3173.12596	0.91277
3171.07215	0.91286
3169.01835	0.91294
3166.96455	0.91360
3164.91075	0.91414
3162.85694	0.91425
3160.80314	0.91450
3158.74934	0.91502
3156.69553	0.91572
3154.64173	0.91636
3152.58793	0.91678
3150.53412	0.91698
3148.48032	0.91698
3146.42652	0.91706
3144.37271	0.91745
3142.31891	0.91794
3140.26511	0.91819
3138.21130	0.91816
3136.15750	0.91842
3134.10370	0.91919
3132.04989	0.91988
3129.99609	0.92012
3127.94229	0.92016
3125.88848	0.92047
3123.83468	0.92116
3121.78088	0.92177
3119.72707	0.92197
3117.67327	0.92191
3115.61947	0.92182
3113.56566	0.92166
3111.51186	0.92137
3109.45806	0.92105
3107.40426	0.92052
3105.35045	0.92029
3103.29665	0.92079
3101.24285	0.92118
3099.18904	0.92147
3097.13524	0.92216
3095.08144	0.92282
3093.02763	0.92316
3090.97383	0.92278
3088.92003	0.92137
3086.86622	0.91938
3084.81242	0.91744
3082.75862	0.91634
3080.70481	0.91650
3078.65101	0.91752
3076.59721	0.91881
3074.54340	0.91991
3072.48960	0.92054
3070.43580	0.92063
3068.38199	0.92007
3066.32819	0.91886
3064.27439	0.91709
3062.22058	0.91515
3060.16678	0.91382
3058.11298	0.91381
3056.05918	0.91521
3054.00537	0.91711
3051.95157	0.91874
3049.89777	0.92019
3047.84396	0.92136
3045.79016	0.92211
3043.73636	0.92265
3041.68255	0.92300
3039.62875	0.92272
3037.57495	0.92162
3035.52114	0.92000
3033.46734	0.91761
3031.41354	0.91392
3029.35973	0.90907
3027.30593	0.90413
3025.25213	0.90109
3023.19832	0.90130
3021.14452	0.90442
3019.09072	0.90934
3017.03691	0.91424
3014.98311	0.91782
3012.92931	0.92028
3010.87550	0.92212
3008.82170	0.92330
3006.76790	0.92365
3004.71409	0.92323
3002.66029	0.92248
3000.60649	0.92233
2998.55269	0.92332
2996.49888	0.92483
2994.44508	0.92624
2992.39128	0.92759
2990.33747	0.92889
2988.28367	0.92974
2986.22987	0.93003
2984.17606	0.92995
2982.12226	0.92971
2980.06846	0.92978
2978.01465	0.93037
2975.96085	0.93100
2973.90705	0.93103
2971.85324	0.93037
2969.79944	0.92973
2967.74564	0.92970
2965.69183	0.92991
2963.63803	0.92956
2961.58423	0.92905
2959.53042	0.92898
2957.47662	0.92880
2955.42282	0.92820
2953.36901	0.92756
2951.31521	0.92703
2949.26141	0.92637
2947.20761	0.92527
2945.15380	0.92375
2943.10000	0.92207
2941.04620	0.92021
2938.99239	0.91818
2936.93859	0.91610
2934.88479	0.91362
2932.83098	0.91054
2930.77718	0.90725
2928.72338	0.90405
2926.66957	0.90123
2924.61577	0.89912
2922.56197	0.89759
2920.50816	0.89647
2918.45436	0.89607
2916.40056	0.89649
2914.34675	0.89764
2912.29295	0.89928
2910.23915	0.90106
2908.18534	0.90292
2906.13154	0.90503
2904.07774	0.90731
2902.02393	0.90942
2899.97013	0.91116
2897.91633	0.91278
2895.86252	0.91451
2893.80872	0.91626
2891.75492	0.91770
2889.70112	0.91869
2887.64731	0.91940
2885.59351	0.91998
2883.53971	0.92088
2881.48590	0.92232
2879.43210	0.92342
2877.37830	0.92380
2875.32449	0.92406
2873.27069	0.92454
2871.21689	0.92492
2869.16308	0.92503
2867.10928	0.92515
2865.05548	0.92520
2863.00167	0.92494
2860.94787	0.92432
2858.89407	0.92332
2856.84026	0.92196
2854.78646	0.92045
2852.73266	0.91897
2850.67885	0.91764
2848.62505	0.91675
2846.57125	0.91681
2844.51744	0.91818
2842.46364	0.92059
2840.40984	0.92317
2838.35603	0.92526
2836.30223	0.92688
2834.24843	0.92798
2832.19463	0.92886
2830.14082	0.92984
2828.08702	0.93051
2826.03322	0.93085
2823.97941	0.93129
2821.92561	0.93182
2819.87181	0.93227
2817.81800	0.93277
2815.76420	0.93333
2813.71040	0.93366
2811.65659	0.93376
2809.60279	0.93365
2807.54899	0.93346
2805.49518	0.93366
2803.44138	0.93409
2801.38758	0.93434
2799.33377	0.93452
2797.27997	0.93472
2795.22617	0.93470
2793.17236	0.93451
2791.11856	0.93455
2789.06476	0.93485
2787.01095	0.93499
2784.95715	0.93486
2782.90335	0.93492
2780.84955	0.93543
2778.79574	0.93604
2776.74194	0.93620
2774.68814	0.93596
2772.63433	0.93610
2770.58053	0.93663
2768.52673	0.93678
2766.47292	0.93649
2764.41912	0.93631
2762.36532	0.93647
2760.31151	0.93678
2758.25771	0.93694
2756.20391	0.93689
2754.15010	0.93689
2752.09630	0.93715
2750.04250	0.93753
2747.98869	0.93779
2745.93489	0.93773
2743.88109	0.93741
2741.82728	0.93722
2739.77348	0.93733
2737.71968	0.93765
2735.66587	0.93790
2733.61207	0.93793
2731.55827	0.93787
2729.50446	0.93770
2727.45066	0.93746
2725.39686	0.93733
2723.34306	0.93733
2721.28925	0.93745
2719.23545	0.93764
2717.18165	0.93774
2715.12784	0.93774
2713.07404	0.93778
2711.02024	0.93777
2708.96643	0.93780
2706.91263	0.93791
2704.85883	0.93784
2702.80502	0.93767
2700.75122	0.93786
2698.69742	0.93831
2696.64361	0.93845
2694.58981	0.93839
2692.53601	0.93846
2690.48220	0.93853
2688.42840	0.93858
2686.37460	0.93875
2684.32079	0.93885
2682.26699	0.93888
2680.21319	0.93904
2678.15938	0.93900
2676.10558	0.93871
2674.05178	0.93870
2671.99797	0.93887
2669.94417	0.93891
2667.89037	0.93885
2665.83657	0.93866
2663.78276	0.93857
2661.72896	0.93877
2659.67516	0.93880
2657.62135	0.93848
2655.56755	0.93828
2653.51375	0.93836
2651.45994	0.93842
2649.40614	0.93839
2647.35234	0.93824
2645.29853	0.93824
2643.24473	0.93869
2641.19093	0.93904
2639.13712	0.93916
2637.08332	0.93928
2635.02952	0.93929
2632.97571	0.93932
2630.92191	0.93933
2628.86811	0.93923
2626.81430	0.93934
2624.76050	0.93988
2622.70670	0.94035
2620.65289	0.94065
2618.59909	0.94078
2616.54529	0.94057
2614.49149	0.94051
2612.43768	0.94069
2610.38388	0.94073
2608.33008	0.94060
2606.27627	0.94056
2604.22247	0.94065
2602.16867	0.94046
2600.11486	0.94017
2598.06106	0.94031
2596.00726	0.94079
2593.95345	0.94111
2591.89965	0.94119
2589.84585	0.94122
2587.79204	0.94113
2585.73824	0.94091
2583.68444	0.94109
2581.63063	0.94139
2579.57683	0.94074
2577.52303	0.93999
2575.46922	0.94067
2573.41542	0.94182
2571.36162	0.94187
2569.30781	0.94136
2567.25401	0.94127
2565.20021	0.94133
2563.14640	0.94110
2561.09260	0.94047
2559.03880	0.93990
2556.98500	0.94011
2554.93119	0.94093
2552.87739	0.94141
2550.82359	0.94143
2548.76978	0.94152
2546.71598	0.94161
2544.66218	0.94181
2542.60837	0.94205
2540.55457	0.94201
2538.50077	0.94179
2536.44696	0.94145
2534.39316	0.94103
2532.33936	0.94076
2530.28555	0.94094
2528.23175	0.94142
2526.17795	0.94161
2524.12414	0.94127
2522.07034	0.94093
2520.01654	0.94112
2517.96273	0.94193
2515.90893	0.94297
2513.85513	0.94368
2511.80132	0.94355
2509.74752	0.94284
2507.69372	0.94266
2505.63992	0.94321
2503.58611	0.94356
2501.53231	0.94301
2499.47851	0.94194
2497.42470	0.94154
2495.37090	0.94184
2493.31710	0.94215
2491.26329	0.94214
2489.20949	0.94181
2487.15569	0.94181
2485.10188	0.94202
2483.04808	0.94185
2480.99428	0.94195
2478.94047	0.94255
2476.88667	0.94303
2474.83287	0.94288
2472.77906	0.94253
2470.72526	0.94266
2468.67146	0.94252
2466.61765	0.94182
2464.56385	0.94165
2462.51005	0.94234
2460.45624	0.94283
2458.40244	0.94245
2456.34864	0.94190
2454.29483	0.94182
2452.24103	0.94221
2450.18723	0.94239
2448.13343	0.94187
2446.07962	0.94173
2444.02582	0.94258
2441.97202	0.94339
2439.91821	0.94341
2437.86441	0.94321
2435.81061	0.94305
2433.75680	0.94261
2431.70300	0.94218
2429.64920	0.94206
2427.59539	0.94270
2425.54159	0.94382
2423.48779	0.94370
2421.43398	0.94278
2419.38018	0.94258
2417.32638	0.94242
2415.27257	0.94209
2413.21877	0.94252
2411.16497	0.94342
2409.11116	0.94369
2407.05736	0.94339
2405.00356	0.94346
2402.94975	0.94376
2400.89595	0.94356
2398.84215	0.94315
2396.78834	0.94323
2394.73454	0.94352
2392.68074	0.94327
2390.62694	0.94230
2388.57313	0.94152
2386.51933	0.94161
2384.46553	0.94209
2382.41172	0.94214
2380.35792	0.94216
2378.30412	0.94298
2376.25031	0.94373
2374.19651	0.94375
2372.14271	0.94363
2370.08890	0.94287
2368.03510	0.94201
2365.98130	0.94248
2363.92749	0.94307
2361.87369	0.94298
2359.81989	0.94339
2357.76608	0.94355
2355.71228	0.94240
2353.65848	0.94180
2351.60467	0.94207
2349.55087	0.94187
2347.49707	0.94171
2345.44326	0.94230
2343.38946	0.94295
2341.33566	0.94321
2339.28186	0.94337
2337.22805	0.94298
2335.17425	0.94225
2333.12045	0.94210
2331.06664	0.94222
2329.01284	0.94172
2326.95904	0.94079
2324.90523	0.94016
2322.85143	0.94027
2320.79763	0.94106
2318.74382	0.94192
2316.69002	0.94242
2314.63622	0.94245
2312.58241	0.94249
2310.52861	0.94275
2308.47481	0.94251
2306.42100	0.94174
2304.36720	0.94144
2302.31340	0.94184
2300.25959	0.94198
2298.20579	0.94145
2296.15199	0.94119
2294.09818	0.94175
2292.04438	0.94246
2289.99058	0.94250
2287.93677	0.94179
2285.88297	0.94061
2283.82917	0.93983
2281.77537	0.94054
2279.72156	0.94191
2277.66776	0.94297
2275.61396	0.94403
2273.56015	0.94453
2271.50635	0.94391
2269.45255	0.94314
2267.39874	0.94327
2265.34494	0.94382
2263.29114	0.94321
2261.23733	0.94142
2259.18353	0.94018
2257.12973	0.94047
2255.07592	0.94179
2253.02212	0.94308
2250.96832	0.94352
2248.91451	0.94332
2246.86071	0.94348
2244.80691	0.94352
2242.75310	0.94272
2240.69930	0.94230
2238.64550	0.94205
2236.59169	0.94154
2234.53789	0.94253
2232.48409	0.94502
2230.43029	0.94691
2228.37648	0.94754
2226.32268	0.94722
2224.26888	0.94580
2222.21507	0.94392
2220.16127	0.94256
2218.10747	0.94204
2216.05366	0.94264
2213.99986	0.94351
2211.94606	0.94356
2209.89225	0.94423
2207.83845	0.94592
2205.78465	0.94620
2203.73084	0.94528
2201.67704	0.94484
2199.62324	0.94493
2197.56943	0.94485
2195.51563	0.94454
2193.46183	0.94497
2191.40802	0.94611
2189.35422	0.94726
2187.30042	0.94844
2185.24661	0.94903
2183.19281	0.94843
2181.13901	0.94636
2179.08520	0.94338
2177.03140	0.94235
2174.97760	0.94337
2172.92380	0.94390
2170.86999	0.94413
2168.81619	0.94419
2166.76239	0.94404
2164.70858	0.94468
2162.65478	0.94583
2160.60098	0.94801
2158.54717	0.95051
2156.49337	0.94996
2154.43957	0.94849
2152.38576	0.94792
2150.33196	0.94722
2148.27816	0.94594
2146.22435	0.94404
2144.17055	0.94359
2142.11675	0.94530
2140.06294	0.94731
2138.00914	0.94802
2135.95534	0.94783
2133.90153	0.94743
2131.84773	0.94662
2129.79393	0.94634
2127.74012	0.94688
2125.68632	0.94751
2123.63252	0.94778
2121.57871	0.94805
2119.52491	0.94878
2117.47111	0.94856
2115.41731	0.94614
2113.36350	0.94341
2111.30970	0.94286
2109.25590	0.94383
2107.20209	0.94421
2105.14829	0.94354
2103.09449	0.94319
2101.04068	0.94421
2098.98688	0.94580
2096.93308	0.94680
2094.87927	0.94705
2092.82547	0.94690
2090.77167	0.94603
2088.71786	0.94422
2086.66406	0.94320
2084.61026	0.94443
2082.55645	0.94685
2080.50265	0.94816
2078.44885	0.94793
2076.39504	0.94713
2074.34124	0.94633
2072.28744	0.94622
2070.23363	0.94605
2068.17983	0.94519
2066.12603	0.94489
2064.07223	0.94502
2062.01842	0.94431
2059.96462	0.94408
2057.91082	0.94567
2055.85701	0.94762
2053.80321	0.94862
2051.74941	0.94819
2049.69560	0.94687
2047.64180	0.94607
2045.58800	0.94686
2043.53419	0.94854
2041.48039	0.94885
2039.42659	0.94704
2037.37278	0.94533
2035.31898	0.94503
2033.26518	0.94467
2031.21137	0.94572
2029.15757	0.94884
2027.10377	0.95009
2025.04996	0.94984
2022.99616	0.95110
2020.94236	0.95202
2018.88855	0.95079
2016.83475	0.94906
2014.78095	0.94775
2012.72714	0.94710
2010.67334	0.94952
2008.61954	0.95511
2006.56574	0.95791
2004.51193	0.95581
2002.45813	0.95270
2000.40433	0.95053
1998.35052	0.94963
1996.29672	0.95027
1994.24292	0.95111
1992.18911	0.95009
1990.13531	0.94957
1988.08151	0.95163
1986.02770	0.95261
1983.97390	0.95021
1981.92010	0.94647
1979.86629	0.94413
1977.81249	0.94435
1975.75869	0.94653
1973.70488	0.94844
1971.65108	0.94866
1969.59728	0.94716
1967.54347	0.94553
1965.48967	0.94619
1963.43587	0.94735
1961.38206	0.94710
1959.32826	0.94720
1957.27446	0.94846
1955.22066	0.94957
1953.16685	0.94923
1951.11305	0.94720
1949.05925	0.94533
1947.00544	0.94543
1944.95164	0.94588
1942.89784	0.94520
1940.84403	0.94470
1938.79023	0.94493
1936.73643	0.94487
1934.68262	0.94422
1932.62882	0.94439
1930.57502	0.94564
1928.52121	0.94616
1926.46741	0.94557
1924.41361	0.94533
1922.35980	0.94591
1920.30600	0.94609
1918.25220	0.94582
1916.19839	0.94596
1914.14459	0.94553
1912.09079	0.94453
1910.03698	0.94447
1907.98318	0.94498
1905.92938	0.94509
1903.87557	0.94526
1901.82177	0.94577
1899.76797	0.94645
1897.71417	0.94672
1895.66036	0.94644
1893.60656	0.94652
1891.55276	0.94660
1889.49895	0.94572
1887.44515	0.94486
1885.39135	0.94470
1883.33754	0.94437
1881.28374	0.94381
1879.22994	0.94368
1877.17613	0.94383
1875.12233	0.94377
1873.06853	0.94368
1871.01472	0.94384
1868.96092	0.94428
1866.90712	0.94471
1864.85331	0.94477
1862.79951	0.94471
1860.74571	0.94489
1858.69190	0.94534
1856.63810	0.94547
1854.58430	0.94517
1852.53049	0.94507
1850.47669	0.94506
1848.42289	0.94514
1846.36908	0.94586
1844.31528	0.94709
1842.26148	0.94740
1840.20768	0.94671
1838.15387	0.94607
1836.10007	0.94574
1834.04627	0.94550
1831.99246	0.94541
1829.93866	0.94560
1827.88486	0.94551
1825.83105	0.94499
1823.77725	0.94472
1821.72345	0.94486
1819.66964	0.94504
1817.61584	0.94513
1815.56204	0.94523
1813.50823	0.94526
1811.45443	0.94459
1809.40063	0.94372
1807.34682	0.94360
1805.29302	0.94352
1803.23922	0.94315
1801.18541	0.94301
1799.13161	0.94321
1797.07781	0.94343
1795.02400	0.94349
1792.97020	0.94384
1790.91640	0.94486
1788.86260	0.94561
1786.80879	0.94567
1784.75499	0.94549
1782.70119	0.94543
1780.64738	0.94522
1778.59358	0.94477
1776.53978	0.94468
1774.48597	0.94508
1772.43217	0.94560
1770.37837	0.94584
1768.32456	0.94584
1766.27076	0.94550
1764.21696	0.94497
1762.16315	0.94472
1760.10935	0.94472
1758.05555	0.94458
1756.00174	0.94413
1753.94794	0.94370
1751.89414	0.94368
1749.84033	0.94365
1747.78653	0.94298
1745.73273	0.94209
1743.67892	0.94147
1741.62512	0.94128
1739.57132	0.94129
1737.51751	0.94116
1735.46371	0.94113
1733.40991	0.94118
1731.35611	0.94110
1729.30230	0.94124
1727.24850	0.94131
1725.19470	0.94097
1723.14089	0.94051
1721.08709	0.94029
1719.03329	0.94044
1716.97948	0.94047
1714.92568	0.94007
1712.87188	0.94001
1710.81807	0.94008
1708.76427	0.94007
1706.71047	0.93981
1704.65666	0.93912
1702.60286	0.93874
1700.54906	0.93864
1698.49525	0.93746
1696.44145	0.93570
1694.38765	0.93457
1692.33384	0.93384
1690.28004	0.93291
1688.22624	0.93175
1686.17243	0.93043
1684.11863	0.92867
1682.06483	0.92755
1680.01103	0.92710
1677.95722	0.92651
1675.90342	0.92542
1673.84962	0.92408
1671.79581	0.92323
1669.74201	0.92249
1667.68821	0.92155
1665.63440	0.92064
1663.58060	0.91981
1661.52680	0.91932
1659.47299	0.91896
1657.41919	0.91839
1655.36539	0.91778
1653.31158	0.91737
1651.25778	0.91732
1649.20398	0.91695
1647.15017	0.91621
1645.09637	0.91609
1643.04257	0.91628
1640.98876	0.91608
1638.93496	0.91571
1636.88116	0.91578
1634.82735	0.91624
1632.77355	0.91607
1630.71975	0.91562
1628.66594	0.91521
1626.61214	0.91499
1624.55834	0.91500
1622.50454	0.91485
1620.45073	0.91465
1618.39693	0.91477
1616.34313	0.91541
1614.28932	0.91613
1612.23552	0.91622
1610.18172	0.91538
1608.12791	0.91316
1606.07411	0.90912
1604.02031	0.90340
1601.96650	0.89811
1599.91270	0.89689
1597.85890	0.90023
1595.80509	0.90533
1593.75129	0.90980
1591.69749	0.91310
1589.64368	0.91529
1587.58988	0.91581
1585.53608	0.91490
1583.48227	0.91431
1581.42847	0.91534
1579.37467	0.91729
1577.32086	0.91947
1575.26706	0.92159
1573.21326	0.92263
1571.15945	0.92333
1569.10565	0.92465
1567.05185	0.92591
1564.99805	0.92661
1562.94424	0.92688
1560.89044	0.92695
1558.83664	0.92763
1556.78283	0.92830
1554.72903	0.92838
1552.67523	0.92831
1550.62142	0.92807
1548.56762	0.92790
1546.51382	0.92807
1544.46001	0.92815
1542.40621	0.92751
1540.35241	0.92715
1538.29860	0.92828
1536.24480	0.92946
1534.19100	0.93091
1532.13719	0.93238
1530.08339	0.93291
1528.02959	0.93318
1525.97578	0.93364
1523.92198	0.93416
1521.86818	0.93460
1519.81437	0.93496
1517.76057	0.93566
1515.70677	0.93645
1513.65297	0.93667
1511.59916	0.93675
1509.54536	0.93727
1507.49156	0.93810
1505.43775	0.93808
1503.38395	0.93733
1501.33015	0.93594
1499.27634	0.93129
1497.22254	0.91585
1495.16874	0.89059
1493.11493	0.87340
1491.06113	0.87358
1489.00733	0.89126
1486.95352	0.90822
1484.89972	0.91655
1482.84592	0.92136
1480.79211	0.92474
1478.73831	0.92686
1476.68451	0.92798
1474.63070	0.92880
1472.57690	0.92984
1470.52310	0.93040
1468.46929	0.93023
1466.41549	0.92976
1464.36169	0.92928
1462.30788	0.92902
1460.25408	0.92801
1458.20028	0.92125
1456.14648	0.89984
1454.09267	0.87828
1452.03887	0.86705
1449.98507	0.86720
1447.93126	0.87601
1445.87746	0.88547
1443.82366	0.89231
1441.76985	0.89804
1439.71605	0.90269
1437.66225	0.90698
1435.60844	0.91144
1433.55464	0.91430
1431.50084	0.91641
1429.44703	0.91867
1427.39323	0.92031
1425.33943	0.92131
1423.28562	0.92218
1421.23182	0.92309
1419.17802	0.92422
1417.12421	0.92506
1415.07041	0.92541
1413.01661	0.92583
1410.96280	0.92638
1408.90900	0.92694
1406.85520	0.92749
1404.80139	0.92825
1402.74759	0.92926
1400.69379	0.93006
1398.63999	0.93031
1396.58618	0.93011
1394.53238	0.92988
1392.47858	0.92977
1390.42477	0.92969
1388.37097	0.92960
1386.31717	0.92918
1384.26336	0.92833
1382.20956	0.92733
1380.15576	0.92626
1378.10195	0.92532
1376.04815	0.92465
1373.99435	0.92417
1371.94054	0.92376
1369.88674	0.92341
1367.83294	0.92317
1365.77913	0.92319
1363.72533	0.92382
1361.67153	0.92503
1359.61772	0.92595
1357.56392	0.92631
1355.51012	0.92666
1353.45631	0.92715
1351.40251	0.92754
1349.34871	0.92798
1347.29491	0.92860
1345.24110	0.92919
1343.18730	0.92965
1341.13350	0.93005
1339.07969	0.93048
1337.02589	0.93066
1334.97209	0.93044
1332.91828	0.92991
1330.86448	0.92928
1328.81068	0.92900
1326.75687	0.92927
1324.70307	0.92963
1322.64927	0.92987
1320.59546	0.93020
1318.54166	0.93054
1316.48786	0.93043
1314.43405	0.92999
1312.38025	0.92990
1310.32645	0.93014
1308.27264	0.93049
1306.21884	0.93106
1304.16504	0.93184
1302.11123	0.93263
1300.05743	0.93320
1298.00363	0.93356
1295.94982	0.93369
1293.89602	0.93368
1291.84222	0.93373
1289.78842	0.93369
1287.73461	0.93350
1285.68081	0.93351
1283.62701	0.93369
1281.57320	0.93358
1279.51940	0.93317
1277.46560	0.93302
1275.41179	0.93339
1273.35799	0.93370
1271.30419	0.93355
1269.25038	0.93354
1267.19658	0.93388
1265.14278	0.93418
1263.08897	0.93443
1261.03517	0.93466
1258.98137	0.93473
1256.92756	0.93452
1254.87376	0.93419
1252.81996	0.93398
1250.76615	0.93385
1248.71235	0.93368
1246.65855	0.93343
1244.60474	0.93305
1242.55094	0.93268
1240.49714	0.93251
1238.44334	0.93244
1236.38953	0.93243
1234.33573	0.93256
1232.28193	0.93245
1230.22812	0.93177
1228.17432	0.93099
1226.12052	0.93049
1224.06671	0.93005
1222.01291	0.92941
1219.95911	0.92839
1217.90530	0.92712
1215.85150	0.92582
1213.79770	0.92457
1211.74389	0.92301
1209.69009	0.92083
1207.63629	0.91833
1205.58248	0.91590
1203.52868	0.91350
1201.47488	0.91109
1199.42107	0.90884
1197.36727	0.90669
1195.31347	0.90426
1193.25966	0.90144
1191.20586	0.89841
1189.15206	0.89513
1187.09825	0.89159
1185.04445	0.88778
1182.99065	0.88367
1180.93685	0.87999
1178.88304	0.87722
1176.82924	0.87493
1174.77544	0.87292
1172.72163	0.87089
1170.66783	0.86851
1168.61403	0.86594
1166.56022	0.86326
1164.50642	0.86064
1162.45262	0.85861
1160.39881	0.85696
1158.34501	0.85487
1156.29121	0.85202
1154.23740	0.84910
1152.18360	0.84708
1150.12980	0.84602
1148.07599	0.84519
1146.02219	0.84402
1143.96839	0.84259
1141.91458	0.84128
1139.86078	0.83998
1137.80698	0.83848
1135.75317	0.83686
1133.69937	0.83510
1131.64557	0.83303
1129.59176	0.83058
1127.53796	0.82782
1125.48416	0.82491
1123.43036	0.82167
1121.37655	0.81782
1119.32275	0.81330
1117.26895	0.80822
1115.21514	0.80304
1113.16134	0.79800
1111.10754	0.79312
1109.05373	0.78876
1106.99993	0.78523
1104.94613	0.78226
1102.89232	0.77951
1100.83852	0.77704
1098.78472	0.77505
1096.73091	0.77315
1094.67711	0.77111
1092.62331	0.76928
1090.56950	0.76776
1088.51570	0.76637
1086.46190	0.76486
1084.40809	0.76328
1082.35429	0.76194
1080.30049	0.76079
1078.24668	0.75983
1076.19288	0.75890
1074.13908	0.75716
1072.08528	0.75403
1070.03147	0.75025
1067.97767	0.74688
1065.92387	0.74403
1063.87006	0.74126
1061.81626	0.73842
1059.76246	0.73554
1057.70865	0.73227
1055.65485	0.72884
1053.60105	0.72561
1051.54724	0.72184
1049.49344	0.71676
1047.43964	0.71051
1045.38583	0.70360
1043.33203	0.69659
1041.27823	0.68964
1039.22442	0.68217
1037.17062	0.67397
1035.11682	0.66538
1033.06301	0.65647
1031.00921	0.64753
1028.95541	0.63966
1026.90160	0.63388
1024.84780	0.63026
1022.79400	0.62831
1020.74019	0.62742
1018.68639	0.62683
1016.63259	0.62594
1014.57879	0.62444
1012.52498	0.62216
1010.47118	0.61949
1008.41738	0.61717
1006.36357	0.61533
1004.30977	0.61364
1002.25597	0.61289
1000.20216	0.61397
998.14836	0.61635
996.09456	0.61938
994.04075	0.62275
991.98695	0.62618
989.93315	0.62995
987.87934	0.63435
985.82554	0.63916
983.77174	0.64423
981.71793	0.64961
979.66413	0.65576
977.61033	0.66318
975.55652	0.67185
973.50272	0.68111
971.44892	0.69028
969.39511	0.69878
967.34131	0.70622
965.28751	0.71292
963.23371	0.71988
961.17990	0.72752
959.12610	0.73504
957.07230	0.74183
955.01849	0.74794
952.96469	0.75352
950.91089	0.75845
948.85708	0.76258
946.80328	0.76602
944.74948	0.76904
942.69567	0.77192
940.64187	0.77504
938.58807	0.77859
936.53426	0.78207
934.48046	0.78504
932.42666	0.78789
930.37285	0.79079
928.31905	0.79332
926.26525	0.79545
924.21144	0.79728
922.15764	0.79819
920.10384	0.79790
918.05003	0.79699
915.99623	0.79558
913.94243	0.79356
911.88862	0.79164
909.83482	0.79059
907.78102	0.79088
905.72722	0.79297
903.67341	0.79737
901.61961	0.80406
899.56581	0.81201
897.51200	0.81948
895.45820	0.82555
893.40440	0.83057
891.35059	0.83460
889.29679	0.83764
887.24299	0.84045
885.18918	0.84338
883.13538	0.84553
881.08158	0.84677
879.02777	0.84803
876.97397	0.84928
874.92017	0.85082
872.86636	0.85352
870.81256	0.85721
868.75876	0.86069
866.70495	0.86292
864.65115	0.86442
862.59735	0.86629
860.54354	0.86849
858.48974	0.87041
856.43594	0.87173
854.38213	0.87256
852.32833	0.87310
850.27453	0.87322
848.22073	0.87281
846.16692	0.87179
844.11312	0.87030
842.05932	0.86907
840.00551	0.86876
837.95171	0.86916
835.89791	0.86977
833.84410	0.87001
831.79030	0.86955
829.73650	0.86898
827.68269	0.86906
825.62889	0.86960
823.57509	0.86986
821.52128	0.87034
819.46748	0.87130
817.41368	0.87175
815.35987	0.87189
813.30607	0.87173
811.25227	0.87053
809.19846	0.86811
807.14466	0.86412
805.09086	0.85851
803.03705	0.85271
800.98325	0.84842
798.92945	0.84649
796.87565	0.84699
794.82184	0.84863
792.76804	0.84963
790.71424	0.84973
788.66043	0.84935
786.60663	0.84837
784.55283	0.84644
782.49902	0.84333
780.44522	0.83908
778.39142	0.83490
776.33761	0.83221
774.28381	0.82986
772.23001	0.82517
770.17620	0.81739
768.12240	0.80780
766.06860	0.79740
764.01479	0.78620
761.96099	0.77431
759.90719	0.76243
757.85338	0.75233
755.79958	0.74599
753.74578	0.74376
751.69197	0.74343
749.63817	0.74319
747.58437	0.74426
745.53056	0.74860
743.47676	0.75733
741.42296	0.76955
739.36916	0.78233
737.31535	0.79395
735.26155	0.80485
733.20775	0.81528
731.15394	0.82442
729.10014	0.83150
727.04634	0.83598
724.99253	0.83855
722.93873	0.84116
720.88493	0.84479
718.83112	0.84850
716.77732	0.85086
714.72352	0.85208
712.66971	0.85167
710.61591	0.84570
708.56211	0.82937
706.50830	0.80029
704.45450	0.75706
702.40070	0.70006
700.34689	0.63410
698.29309	0.56942
696.23929	0.52463
694.18548	0.52185
692.13168	0.56127
690.07788	0.61587
688.02408	0.66230
685.97027	0.69553
683.91647	0.71792
681.86267	0.73282
679.80886	0.74343
677.75506	0.75075
675.70126	0.75550
673.64745	0.75887
671.59365	0.76106
669.53985	0.76306
667.48604	0.76650
665.43224	0.77006
663.37844	0.77270
661.32463	0.77428
659.27083	0.77453
657.21703	0.77465
655.16322	0.77505
653.10942	0.77482
651.05562	0.77374
649.00181	0.77263
646.94801	0.77347
644.89421	0.77691
642.84040	0.78031
640.78660	0.78143
638.73280	0.78176
636.67899	0.78319
634.62519	0.78491
632.57139	0.78530
630.51759	0.78456
628.46378	0.78449
626.40998	0.78528
624.35618	0.78478
622.30237	0.78233
620.24857	0.77973
618.19477	0.77777
616.14096	0.77574
614.08716	0.77357
612.03336	0.77152
609.97955	0.76973
607.92575	0.76856
605.87195	0.76706
603.81814	0.76441
601.76434	0.76226
599.71054	0.76086
597.65673	0.75880
595.60293	0.75695
593.54913	0.75611
591.49532	0.75419
589.44152	0.75093
587.38772	0.74944
585.33391	0.75019
583.28011	0.75041
581.22631	0.74898
579.17250	0.74688
577.11870	0.74429
575.06490	0.74088
573.01110	0.73697
570.95729	0.73315
568.90349	0.72998
566.84969	0.72722
564.79588	0.72339
562.74208	0.71755
560.68828	0.71091
558.63447	0.70462
556.58067	0.69830
554.52687	0.69170
552.47306	0.68609
550.41926	0.68079
548.36546	0.67153
546.31165	0.65827
544.25785	0.64602
542.20405	0.63503
540.15024	0.62283
538.09644	0.61171
536.04264	0.60443
533.98883	0.60100
531.93503	0.60124
529.88123	0.60408
527.82742	0.60816
525.77362	0.61331
523.71982	0.61892
521.66602	0.62374
519.61221	0.62778
517.55841	0.63248
515.50461	0.63848
513.45080	0.64401
511.39700	0.64784
509.34320	0.65087
507.28939	0.65492
505.23559	0.66005
503.18179	0.66441
501.12798	0.66648
499.07418	0.66619
497.02038	0.66535
494.96657	0.66350
492.91277	0.65917
490.85897	0.65440
488.80516	0.64988
486.75136	0.64284
484.69756	0.63106
482.64375	0.61632
480.58995	0.60168
478.53615	0.58774
476.48234	0.57717
474.42854	0.56942
472.37474	0.55796
470.32093	0.54391
468.26713	0.53528
466.21333	0.53158
464.15953	0.52927
462.10572	0.53094
460.05192	0.53709
457.99812	0.54377
455.94431	0.54949
453.89051	0.55456
451.83671	0.56056
449.78290	0.56778
447.72910	0.57331
445.67530	0.57566
443.62149	0.57579
441.56769	0.57405
439.51389	0.57291
437.46008	0.57288
435.40628	0.56981
433.35248	0.56374
431.29867	0.55697
429.24487	0.55138
427.19107	0.55114
425.13726	0.55585
423.08346	0.55877
421.02966	0.55839
418.97585	0.56207
416.92205	0.56592
414.86825	0.56499
412.81445	0.56748
410.76064	0.57591
408.70684	0.58660
406.65304	0.59597
404.59923	0.60153
402.54543	0.60357
400.49163	0.60208
398.43782	0.59477
