3996.70104	0.93844
3994.64724	0.93850
3992.59344	0.93837
3990.53964	0.93804
3988.48583	0.93806
3986.43203	0.93866
3984.37823	0.93928
3982.32442	0.93928
3980.27062	0.93880
3978.21682	0.93835
3976.16301	0.93798
3974.10921	0.93775
3972.05541	0.93797
3970.00160	0.93840
3967.94780	0.93873
3965.89400	0.93916
3963.84019	0.93961
3961.78639	0.93970
3959.73259	0.93975
3957.67878	0.93997
3955.62498	0.93959
3953.57118	0.93896
3951.51737	0.93908
3949.46357	0.93940
3947.40977	0.93944
3945.35596	0.93937
3943.30216	0.93888
3941.24836	0.93829
3939.19455	0.93838
3937.14075	0.93899
3935.08695	0.93952
3933.03315	0.93977
3930.97934	0.94014
3928.92554	0.94059
3926.87174	0.94046
3924.81793	0.93972
3922.76413	0.93929
3920.71033	0.93952
3918.65652	0.93973
3916.60272	0.93968
3914.54892	0.93953
3912.49511	0.93934
3910.44131	0.93937
3908.38751	0.93951
3906.33370	0.93921
3904.27990	0.93901
3902.22610	0.93967
3900.17229	0.94019
3898.11849	0.93999
3896.06469	0.93979
3894.01088	0.94009
3891.95708	0.94046
3889.90328	0.94022
3887.84947	0.93994
3885.79567	0.93968
3883.74187	0.93938
3881.68807	0.93948
3879.63426	0.93979
3877.58046	0.94004
3875.52666	0.94032
3873.47285	0.94039
3871.41905	0.94036
3869.36525	0.94054
3867.31144	0.94009
3865.25764	0.93946
3863.20384	0.93957
3861.15003	0.93973
3859.09623	0.93968
3857.04243	0.93990
3854.98862	0.94067
3852.93482	0.94173
3850.88102	0.94161
3848.82721	0.94087
3846.77341	0.94042
3844.71961	0.94022
3842.66580	0.93970
3840.61200	0.93895
3838.55820	0.93821
3836.50439	0.93779
3834.45059	0.93823
3832.39679	0.93900
3830.34298	0.93983
3828.28918	0.94051
3826.23538	0.94065
3824.18158	0.94033
3822.12777	0.94028
3820.07397	0.94071
3818.02017	0.94051
3815.96636	0.94016
3813.91256	0.94014
3811.85876	0.94000
3809.80495	0.93990
3807.75115	0.93995
3805.69735	0.94022
3803.64354	0.94049
3801.58974	0.94045
3799.53594	0.94051
3797.48213	0.94052
3795.42833	0.94032
3793.37453	0.94032
3791.32072	0.94044
3789.26692	0.94094
3787.21312	0.94164
3785.15931	0.94167
3783.10551	0.94147
3781.05171	0.94159
3778.99790	0.94169
3776.94410	0.94143
3774.89030	0.94109
3772.83650	0.94081
3770.78269	0.94043
3768.72889	0.94015
3766.67509	0.94031
3764.62128	0.94090
3762.56748	0.94151
3760.51368	0.94179
3758.45987	0.94188
3756.40607	0.94214
3754.35227	0.94246
3752.29846	0.94267
3750.24466	0.94280
3748.19086	0.94306
3746.13705	0.94393
3744.08325	0.94451
3742.02945	0.94387
3739.97564	0.94361
3737.92184	0.94403
3735.86804	0.94490
3733.81423	0.94583
3731.76043	0.94523
3729.70663	0.94403
3727.65282	0.94346
3725.59902	0.94310
3723.54522	0.94240
3721.49141	0.94176
3719.43761	0.94143
3717.38381	0.94093
3715.33001	0.94010
3713.27620	0.93938
3711.22240	0.93912
3709.16860	0.93801
3707.11479	0.93568
3705.06099	0.93365
3703.00719	0.93246
3700.95338	0.93100
3698.89958	0.92925
3696.84578	0.92881
3694.79197	0.92973
3692.73817	0.93097
3690.68437	0.93189
3688.63056	0.93224
3686.57676	0.93214
3684.52296	0.93201
3682.46915	0.93213
3680.41535	0.93264
3678.36155	0.93343
3676.30774	0.93395
3674.25394	0.93398
3672.20014	0.93359
3670.14633	0.93247
3668.09253	0.93140
3666.03873	0.93085
3663.98492	0.93034
3661.93112	0.93000
3659.87732	0.92965
3657.82352	0.92897
3655.76971	0.92792
3653.71591	0.92694
3651.66211	0.92644
3649.60830	0.92642
3647.55450	0.92589
3645.50070	0.92510
3643.44689	0.92502
3641.39309	0.92514
3639.33929	0.92475
3637.28548	0.92392
3635.23168	0.92316
3633.17788	0.92266
3631.12407	0.92290
3629.07027	0.92390
3627.01647	0.92315
3624.96266	0.92118
3622.90886	0.91983
3620.85506	0.91905
3618.80125	0.91856
3616.74745	0.91867
3614.69365	0.91896
3612.63984	0.91868
3610.58604	0.91821
3608.53224	0.91875
3606.47844	0.91974
3604.42463	0.92004
3602.37083	0.91992
3600.31703	0.91977
3598.26322	0.92002
3596.20942	0.92052
3594.15562	0.92046
3592.10181	0.91986
3590.04801	0.91907
3587.99421	0.91863
3585.94040	0.91886
3583.88660	0.91875
3581.83280	0.91824
3579.77899	0.91801
3577.72519	0.91833
3575.67139	0.91836
3573.61758	0.91791
3571.56378	0.91781
3569.50998	0.91811
3567.45617	0.91818
3565.40237	0.91765
3563.34857	0.91707
3561.29476	0.91673
3559.24096	0.91673
3557.18716	0.91671
3555.13335	0.91634
3553.07955	0.91586
3551.02575	0.91562
3548.97195	0.91593
3546.91814	0.91625
3544.86434	0.91572
3542.81054	0.91483
3540.75673	0.91462
3538.70293	0.91496
3536.64913	0.91491
3534.59532	0.91439
3532.54152	0.91390
3530.48772	0.91347
3528.43391	0.91319
3526.38011	0.91326
3524.32631	0.91374
3522.27250	0.91404
3520.21870	0.91373
3518.16490	0.91335
3516.11109	0.91306
3514.05729	0.91253
3512.00349	0.91211
3509.94968	0.91214
3507.89588	0.91204
3505.84208	0.91152
3503.78827	0.91100
3501.73447	0.91065
3499.68067	0.91063
3497.62687	0.91077
3495.57306	0.91058
3493.51926	0.91038
3491.46546	0.91051
3489.41165	0.91045
3487.35785	0.91026
3485.30405	0.91025
3483.25024	0.91009
3481.19644	0.91006
3479.14264	0.91023
3477.08883	0.91009
3475.03503	0.91008
3472.98123	0.91019
3470.92742	0.90956
3468.87362	0.90852
3466.81982	0.90789
3464.76601	0.90757
3462.71221	0.90717
3460.65841	0.90691
3458.60460	0.90692
3456.55080	0.90669
3454.49700	0.90603
3452.44319	0.90535
3450.38939	0.90493
3448.33559	0.90475
3446.28178	0.90487
3444.22798	0.90520
3442.17418	0.90542
3440.12038	0.90537
3438.06657	0.90512
3436.01277	0.90493
3433.95897	0.90471
3431.90516	0.90431
3429.85136	0.90410
3427.79756	0.90402
3425.74375	0.90401
3423.68995	0.90448
3421.63615	0.90480
3419.58234	0.90421
3417.52854	0.90341
3415.47474	0.90299
3413.42093	0.90288
3411.36713	0.90288
3409.31333	0.90283
3407.25952	0.90280
3405.20572	0.90276
3403.15192	0.90282
3401.09811	0.90318
3399.04431	0.90346
3396.99051	0.90339
3394.93670	0.90318
3392.88290	0.90269
3390.82910	0.90218
3388.77529	0.90199
3386.72149	0.90176
3384.66769	0.90160
3382.61389	0.90191
3380.56008	0.90245
3378.50628	0.90279
3376.45248	0.90253
3374.39867	0.90189
3372.34487	0.90169
3370.29107	0.90207
3368.23726	0.90257
3366.18346	0.90284
3364.12966	0.90281
3362.07585	0.90275
3360.02205	0.90291
3357.96825	0.90330
3355.91444	0.90341
3353.86064	0.90304
3351.80684	0.90288
3349.75303	0.90304
3347.69923	0.90308
3345.64543	0.90314
3343.59162	0.90311
3341.53782	0.90281
3339.48402	0.90279
3337.43021	0.90310
3335.37641	0.90300
3333.32261	0.90251
3331.26881	0.90239
3329.21500	0.90272
3327.16120	0.90329
3325.10740	0.90384
3323.05359	0.90411
3320.99979	0.90444
3318.94599	0.90463
3316.89218	0.90423
3314.83838	0.90372
3312.78458	0.90370
3310.73077	0.90424
3308.67697	0.90507
3306.62317	0.90557
3304.56936	0.90566
3302.51556	0.90565
3300.46176	0.90564
3298.40795	0.90565
3296.35415	0.90550
3294.30035	0.90528
3292.24654	0.90524
3290.19274	0.90517
3288.13894	0.90530
3286.08513	0.90578
3284.03133	0.90595
3281.97753	0.90583
3279.92372	0.90600
3277.86992	0.90675
3275.81612	0.90761
3273.76232	0.90737
3271.70851	0.90638
3269.65471	0.90621
3267.60091	0.90674
3265.54710	0.90722
3263.49330	0.90732
3261.43950	0.90688
3259.38569	0.90674
3257.33189	0.90730
3255.27809	0.90781
3253.22428	0.90808
3251.17048	0.90845
3249.11668	0.90886
3247.06287	0.90917
3245.00907	0.90946
3242.95527	0.90973
3240.90146	0.90978
3238.84766	0.90944
3236.79386	0.90897
3234.74005	0.90902
3232.68625	0.90954
3230.63245	0.90974
3228.57864	0.90950
3226.52484	0.90948
3224.47104	0.90987
3222.41724	0.91023
3220.36343	0.91023
3218.30963	0.91037
3216.25583	0.91102
3214.20202	0.91158
3212.14822	0.91164
3210.09442	0.91158
3208.04061	0.91182
3205.98681	0.91218
3203.93301	0.91234
3201.87920	0.91258
3199.82540	0.91311
3197.77160	0.91340
3195.71779	0.91347
3193.66399	0.91389
3191.61019	0.91428
3189.55638	0.91438
3187.50258	0.91465
3185.44878	0.91520
3183.39497	0.91548
3181.34117	0.91508
3179.28737	0.91476
3177.23356	0.91498
3175.17976	0.91503
3173.12596	0.91493
3171.07215	0.91521
3169.01835	0.91572
3166.96455	0.91615
3164.91075	0.91638
3162.85694	0.91618
3160.80314	0.91589
3158.74934	0.91587
3156.69553	0.91619
3154.64173	0.91711
3152.58793	0.91805
3150.53412	0.91844
3148.48032	0.91871
3146.42652	0.91903
3144.37271	0.91903
3142.31891	0.91912
3140.26511	0.91966
3138.21130	0.91993
3136.15750	0.91993
3134.10370	0.92033
3132.04989	0.92070
3129.99609	0.92070
3127.94229	0.92075
3125.88848	0.92081
3123.83468	0.92093
3121.78088	0.92129
3119.72707	0.92171
3117.67327	0.92185
3115.61947	0.92181
3113.56566	0.92186
3111.51186	0.92169
3109.45806	0.92138
3107.40426	0.92110
3105.35045	0.92060
3103.29665	0.92016
3101.24285	0.92032
3099.18904	0.92095
3097.13524	0.92161
3095.08144	0.92198
3093.02763	0.92177
3090.97383	0.92090
3088.92003	0.91941
3086.86622	0.91728
3084.81242	0.91481
3082.75862	0.91296
3080.70481	0.91269
3078.65101	0.91396
3076.59721	0.91575
3074.54340	0.91711
3072.48960	0.91758
3070.43580	0.91716
3068.38199	0.91608
3066.32819	0.91446
3064.27439	0.91240
3062.22058	0.91006
3060.16678	0.90820
3058.11298	0.90788
3056.05918	0.90939
3054.00537	0.91194
3051.95157	0.91452
3049.89777	0.91672
3047.84396	0.91852
3045.79016	0.91965
3043.73636	0.91993
3041.68255	0.91967
3039.62875	0.91912
3037.57495	0.91802
3035.52114	0.91581
3033.46734	0.91226
3031.41354	0.90735
3029.35973	0.90120
3027.30593	0.89499
3025.25213	0.89115
3023.19832	0.89174
3021.14452	0.89628
3019.09072	0.90223
3017.03691	0.90770
3014.98311	0.91223
3012.92931	0.91558
3010.87550	0.91750
3008.82170	0.91845
3006.76790	0.91894
3004.71409	0.91879
3002.66029	0.91832
3000.60649	0.91837
2998.55269	0.91897
2996.49888	0.91999
2994.44508	0.92131
2992.39128	0.92265
2990.33747	0.92395
2988.28367	0.92492
2986.22987	0.92532
2984.17606	0.92543
2982.12226	0.92549
2980.06846	0.92554
2978.01465	0.92554
2975.96085	0.92550
2973.90705	0.92545
2971.85324	0.92524
2969.79944	0.92472
2967.74564	0.92398
2965.69183	0.92336
2963.63803	0.92287
2961.58423	0.92204
2959.53042	0.92089
2957.47662	0.91993
2955.42282	0.91930
2953.36901	0.91868
2951.31521	0.91794
2949.26141	0.91701
2947.20761	0.91568
2945.15380	0.91388
2943.10000	0.91164
2941.04620	0.90899
2938.99239	0.90576
2936.93859	0.90185
2934.88479	0.89755
2932.83098	0.89314
2930.77718	0.88850
2928.72338	0.88359
2926.66957	0.87891
2924.61577	0.87488
2922.56197	0.87180
2920.50816	0.87028
2918.45436	0.87054
2916.40056	0.87236
2914.34675	0.87527
2912.29295	0.87863
2910.23915	0.88214
2908.18534	0.88538
2906.13154	0.88800
2904.07774	0.89070
2902.02393	0.89392
2899.97013	0.89683
2897.91633	0.89922
2895.86252	0.90159
2893.80872	0.90370
2891.75492	0.90534
2889.70112	0.90706
2887.64731	0.90899
2885.59351	0.91039
2883.53971	0.91108
2881.48590	0.91167
2879.43210	0.91234
2877.37830	0.91306
2875.32449	0.91388
2873.27069	0.91443
2871.21689	0.91462
2869.16308	0.91491
2867.10928	0.91520
2865.05548	0.91485
2863.00167	0.91369
2860.94787	0.91229
2858.89407	0.91066
2856.84026	0.90833
2854.78646	0.90560
2852.73266	0.90327
2850.67885	0.90205
2848.62505	0.90218
2846.57125	0.90347
2844.51744	0.90586
2842.46364	0.90889
2840.40984	0.91198
2838.35603	0.91481
2836.30223	0.91726
2834.24843	0.91948
2832.19463	0.92159
2830.14082	0.92322
2828.08702	0.92391
2826.03322	0.92392
2823.97941	0.92410
2821.92561	0.92492
2819.87181	0.92601
2817.81800	0.92653
2815.76420	0.92625
2813.71040	0.92612
2811.65659	0.92664
2809.60279	0.92696
2807.54899	0.92683
2805.49518	0.92701
2803.44138	0.92747
2801.38758	0.92755
2799.33377	0.92753
2797.27997	0.92796
2795.22617	0.92856
2793.17236	0.92879
2791.11856	0.92870
2789.06476	0.92868
2787.01095	0.92884
2784.95715	0.92907
2782.90335	0.92910
2780.84955	0.92894
2778.79574	0.92906
2776.74194	0.92947
2774.68814	0.92971
2772.63433	0.92979
2770.58053	0.93000
2768.52673	0.93025
2766.47292	0.93040
2764.41912	0.93066
2762.36532	0.93097
2760.31151	0.93092
2758.25771	0.93080
2756.20391	0.93117
2754.15010	0.93170
2752.09630	0.93179
2750.04250	0.93138
2747.98869	0.93105
2745.93489	0.93101
2743.88109	0.93099
2741.82728	0.93108
2739.77348	0.93122
2737.71968	0.93115
2735.66587	0.93111
2733.61207	0.93138
2731.55827	0.93186
2729.50446	0.93211
2727.45066	0.93194
2725.39686	0.93188
2723.34306	0.93223
2721.28925	0.93247
2719.23545	0.93231
2717.18165	0.93221
2715.12784	0.93229
2713.07404	0.93239
2711.02024	0.93242
2708.96643	0.93236
2706.91263	0.93221
2704.85883	0.93208
2702.80502	0.93215
2700.75122	0.93218
2698.69742	0.93214
2696.64361	0.93224
2694.58981	0.93230
2692.53601	0.93216
2690.48220	0.93213
2688.42840	0.93247
2686.37460	0.93287
2684.32079	0.93297
2682.26699	0.93290
2680.21319	0.93294
2678.15938	0.93293
2676.10558	0.93272
2674.05178	0.93257
2671.99797	0.93265
2669.94417	0.93292
2667.89037	0.93323
2665.83657	0.93336
2663.78276	0.93326
2661.72896	0.93299
2659.67516	0.93266
2657.62135	0.93266
2655.56755	0.93311
2653.51375	0.93340
2651.45994	0.93314
2649.40614	0.93273
2647.35234	0.93263
2645.29853	0.93287
2643.24473	0.93311
2641.19093	0.93324
2639.13712	0.93346
2637.08332	0.93365
2635.02952	0.93360
2632.97571	0.93363
2630.92191	0.93384
2628.86811	0.93397
2626.81430	0.93395
2624.76050	0.93401
2622.70670	0.93448
2620.65289	0.93488
2618.59909	0.93481
2616.54529	0.93493
2614.49149	0.93540
2612.43768	0.93542
2610.38388	0.93481
2608.33008	0.93432
2606.27627	0.93433
2604.22247	0.93456
2602.16867	0.93486
2600.11486	0.93540
2598.06106	0.93581
2596.00726	0.93561
2593.95345	0.93543
2591.89965	0.93588
2589.84585	0.93658
2587.79204	0.93680
2585.73824	0.93639
2583.68444	0.93605
2581.63063	0.93618
2579.57683	0.93637
2577.52303	0.93636
2575.46922	0.93605
2573.41542	0.93582
2571.36162	0.93602
2569.30781	0.93616
2567.25401	0.93590
2565.20021	0.93561
2563.14640	0.93537
2561.09260	0.93519
2559.03880	0.93566
2556.98500	0.93658
2554.93119	0.93725
2552.87739	0.93750
2550.82359	0.93711
2548.76978	0.93635
2546.71598	0.93634
2544.66218	0.93713
2542.60837	0.93740
2540.55457	0.93675
2538.50077	0.93609
2536.44696	0.93589
2534.39316	0.93617
2532.33936	0.93669
2530.28555	0.93695
2528.23175	0.93669
2526.17795	0.93639
2524.12414	0.93659
2522.07034	0.93704
2520.01654	0.93725
2517.96273	0.93714
2515.90893	0.93712
2513.85513	0.93735
2511.80132	0.93726
2509.74752	0.93674
2507.69372	0.93621
2505.63992	0.93605
2503.58611	0.93682
2501.53231	0.93764
2499.47851	0.93747
2497.42470	0.93733
2495.37090	0.93754
2493.31710	0.93718
2491.26329	0.93661
2489.20949	0.93650
2487.15569	0.93688
2485.10188	0.93791
2483.04808	0.93931
2480.99428	0.94012
2478.94047	0.93991
2476.88667	0.93915
2474.83287	0.93861
2472.77906	0.93862
2470.72526	0.93852
2468.67146	0.93778
2466.61765	0.93720
2464.56385	0.93722
2462.51005	0.93723
2460.45624	0.93708
2458.40244	0.93729
2456.34864	0.93772
2454.29483	0.93800
2452.24103	0.93806
2450.18723	0.93810
2448.13343	0.93815
2446.07962	0.93804
2444.02582	0.93810
2441.97202	0.93821
2439.91821	0.93829
2437.86441	0.93870
2435.81061	0.93905
2433.75680	0.93903
2431.70300	0.93884
2429.64920	0.93883
2427.59539	0.93896
2425.54159	0.93887
2423.48779	0.93866
2421.43398	0.93879
2419.38018	0.93908
2417.32638	0.93910
2415.27257	0.93906
2413.21877	0.93930
2411.16497	0.93980
2409.11116	0.94039
2407.05736	0.94076
2405.00356	0.94025
2402.94975	0.93915
2400.89595	0.93866
2398.84215	0.93917
2396.78834	0.93985
2394.73454	0.93984
2392.68074	0.93960
2390.62694	0.93966
2388.57313	0.93959
2386.51933	0.93918
2384.46553	0.93886
2382.41172	0.93897
2380.35792	0.93939
2378.30412	0.93969
2376.25031	0.93931
2374.19651	0.93818
2372.14271	0.93742
2370.08890	0.93774
2368.03510	0.93824
2365.98130	0.93841
2363.92749	0.93893
2361.87369	0.93937
2359.81989	0.93869
2357.76608	0.93812
2355.71228	0.93851
2353.65848	0.93889
2351.60467	0.93903
2349.55087	0.93865
2347.49707	0.93751
2345.44326	0.93657
2343.38946	0.93718
2341.33566	0.93865
2339.28186	0.93972
2337.22805	0.93995
2335.17425	0.93888
2333.12045	0.93717
2331.06664	0.93648
2329.01284	0.93725
2326.95904	0.93785
2324.90523	0.93739
2322.85143	0.93695
2320.79763	0.93714
2318.74382	0.93790
2316.69002	0.93880
2314.63622	0.93890
2312.58241	0.93863
2310.52861	0.93843
2308.47481	0.93802
2306.42100	0.93799
2304.36720	0.93855
2302.31340	0.93875
2300.25959	0.93863
2298.20579	0.93900
2296.15199	0.93957
2294.09818	0.93959
2292.04438	0.93947
2289.99058	0.93976
2287.93677	0.93957
2285.88297	0.93862
2283.82917	0.93836
2281.77537	0.93911
2279.72156	0.93960
2277.66776	0.93954
2275.61396	0.93993
2273.56015	0.94045
2271.50635	0.94027
2269.45255	0.93998
2267.39874	0.94012
2265.34494	0.94095
2263.29114	0.94220
2261.23733	0.94220
2259.18353	0.94084
2257.12973	0.94055
2255.07592	0.94176
2253.02212	0.94229
2250.96832	0.94104
2248.91451	0.93956
2246.86071	0.93993
2244.80691	0.94152
2242.75310	0.94208
2240.69930	0.94099
2238.64550	0.93946
2236.59169	0.93904
2234.53789	0.94026
2232.48409	0.94117
2230.43029	0.94135
2228.37648	0.94283
2226.32268	0.94456
2224.26888	0.94462
2222.21507	0.94396
2220.16127	0.94342
2218.10747	0.94249
2216.05366	0.94237
2213.99986	0.94331
2211.94606	0.94331
2209.89225	0.94311
2207.83845	0.94344
2205.78465	0.94278
2203.73084	0.94140
2201.67704	0.94130
2199.62324	0.94236
2197.56943	0.94268
2195.51563	0.94239
2193.46183	0.94144
2191.40802	0.94049
2189.35422	0.94187
2187.30042	0.94396
2185.24661	0.94395
2183.19281	0.94327
2181.13901	0.94305
2179.08520	0.94245
2177.03140	0.94307
2174.97760	0.94488
2172.92380	0.94536
2170.86999	0.94502
2168.81619	0.94477
2166.76239	0.94392
2164.70858	0.94287
2162.65478	0.94287
2160.60098	0.94395
2158.54717	0.94616
2156.49337	0.94779
2154.43957	0.94852
2152.38576	0.95029
2150.33196	0.95178
2148.27816	0.95158
2146.22435	0.94936
2144.17055	0.94625
2142.11675	0.94468
2140.06294	0.94403
2138.00914	0.94294
2135.95534	0.94266
2133.90153	0.94242
2131.84773	0.94083
2129.79393	0.94069
2127.74012	0.94311
2125.68632	0.94486
2123.63252	0.94479
2121.57871	0.94464
2119.52491	0.94459
2117.47111	0.94412
2115.41731	0.94365
2113.36350	0.94337
2111.30970	0.94314
2109.25590	0.94294
2107.20209	0.94267
2105.14829	0.94223
2103.09449	0.94175
2101.04068	0.94164
2098.98688	0.94263
2096.93308	0.94387
2094.87927	0.94432
2092.82547	0.94486
2090.77167	0.94612
2088.71786	0.94709
2086.66406	0.94678
2084.61026	0.94572
2082.55645	0.94473
2080.50265	0.94428
2078.44885	0.94390
2076.39504	0.94283
2074.34124	0.94184
2072.28744	0.94199
2070.23363	0.94302
2068.17983	0.94350
2066.12603	0.94297
2064.07223	0.94297
2062.01842	0.94462
2059.96462	0.94670
2057.91082	0.94739
2055.85701	0.94633
2053.80321	0.94457
2051.74941	0.94306
2049.69560	0.94269
2047.64180	0.94366
2045.58800	0.94461
2043.53419	0.94436
2041.48039	0.94400
2039.42659	0.94665
2037.37278	0.94961
2035.31898	0.94829
2033.26518	0.94527
2031.21137	0.94418
2029.15757	0.94556
2027.10377	0.94724
2025.04996	0.94733
2022.99616	0.94658
2020.94236	0.94545
2018.88855	0.94472
2016.83475	0.94533
2014.78095	0.94602
2012.72714	0.94745
2010.67334	0.95004
2008.61954	0.95128
2006.56574	0.95115
2004.51193	0.95010
2002.45813	0.94749
2000.40433	0.94497
1998.35052	0.94494
1996.29672	0.94686
1994.24292	0.94759
1992.18911	0.94628
1990.13531	0.94541
1988.08151	0.94558
1986.02770	0.94537
1983.97390	0.94400
1981.92010	0.94226
1979.86629	0.94257
1977.81249	0.94495
1975.75869	0.94652
1973.70488	0.94669
1971.65108	0.94683
1969.59728	0.94661
1967.54347	0.94656
1965.48967	0.94693
1963.43587	0.94561
1961.38206	0.94403
1959.32826	0.94500
1957.27446	0.94670
1955.22066	0.94652
1953.16685	0.94510
1951.11305	0.94346
1949.05925	0.94214
1947.00544	0.94211
1944.95164	0.94315
1942.89784	0.94429
1940.84403	0.94429
1938.79023	0.94330
1936.73643	0.94268
1934.68262	0.94256
1932.62882	0.94270
1930.57502	0.94326
1928.52121	0.94391
1926.46741	0.94395
1924.41361	0.94368
1922.35980	0.94414
1920.30600	0.94514
1918.25220	0.94585
1916.19839	0.94587
1914.14459	0.94559
1912.09079	0.94523
1910.03698	0.94436
1907.98318	0.94363
1905.92938	0.94381
1903.87557	0.94441
1901.82177	0.94511
1899.76797	0.94581
1897.71417	0.94568
1895.66036	0.94488
1893.60656	0.94427
1891.55276	0.94377
1889.49895	0.94356
1887.44515	0.94379
1885.39135	0.94375
1883.33754	0.94320
1881.28374	0.94274
1879.22994	0.94272
1877.17613	0.94232
1875.12233	0.94136
1873.06853	0.94088
1871.01472	0.94139
1868.96092	0.94245
1866.90712	0.94262
1864.85331	0.94216
1862.79951	0.94209
1860.74571	0.94205
1858.69190	0.94218
1856.63810	0.94285
1854.58430	0.94353
1852.53049	0.94390
1850.47669	0.94399
1848.42289	0.94369
1846.36908	0.94351
1844.31528	0.94427
1842.26148	0.94552
1840.20768	0.94608
1838.15387	0.94584
1836.10007	0.94565
1834.04627	0.94581
1831.99246	0.94591
1829.93866	0.94547
1827.88486	0.94441
1825.83105	0.94379
1823.77725	0.94385
1821.72345	0.94373
1819.66964	0.94345
1817.61584	0.94329
1815.56204	0.94287
1813.50823	0.94248
1811.45443	0.94249
1809.40063	0.94235
1807.34682	0.94169
1805.29302	0.94119
1803.23922	0.94127
1801.18541	0.94148
1799.13161	0.94152
1797.07781	0.94160
1795.02400	0.94193
1792.97020	0.94248
1790.91640	0.94292
1788.86260	0.94295
1786.80879	0.94293
1784.75499	0.94347
1782.70119	0.94413
1780.64738	0.94437
1778.59358	0.94417
1776.53978	0.94385
1774.48597	0.94417
1772.43217	0.94510
1770.37837	0.94526
1768.32456	0.94448
1766.27076	0.94367
1764.21696	0.94352
1762.16315	0.94402
1760.10935	0.94431
1758.05555	0.94377
1756.00174	0.94254
1753.94794	0.94102
1751.89414	0.93946
1749.84033	0.93809
1747.78653	0.93716
1745.73273	0.93667
1743.67892	0.93640
1741.62512	0.93624
1739.57132	0.93637
1737.51751	0.93657
1735.46371	0.93675
1733.40991	0.93720
1731.35611	0.93776
1729.30230	0.93819
1727.24850	0.93835
1725.19470	0.93824
1723.14089	0.93810
1721.08709	0.93809
1719.03329	0.93850
1716.97948	0.93945
1714.92568	0.93984
1712.87188	0.93970
1710.81807	0.93957
1708.76427	0.93957
1706.71047	0.93975
1704.65666	0.93981
1702.60286	0.93912
1700.54906	0.93753
1698.49525	0.93637
1696.44145	0.93618
1694.38765	0.93562
1692.33384	0.93488
1690.28004	0.93430
1688.22624	0.93357
1686.17243	0.93278
1684.11863	0.93177
1682.06483	0.93045
1680.01103	0.92953
1677.95722	0.92875
1675.90342	0.92771
1673.84962	0.92646
1671.79581	0.92536
1669.74201	0.92451
1667.68821	0.92385
1665.63440	0.92315
1663.58060	0.92215
1661.52680	0.92117
1659.47299	0.92065
1657.41919	0.92010
1655.36539	0.91914
1653.31158	0.91838
1651.25778	0.91873
1649.20398	0.91918
1647.15017	0.91972
1645.09637	0.91985
1643.04257	0.91926
1640.98876	0.91846
1638.93496	0.91753
1636.88116	0.91660
1634.82735	0.91648
1632.77355	0.91686
1630.71975	0.91692
1628.66594	0.91689
1626.61214	0.91694
1624.55834	0.91674
1622.50454	0.91639
1620.45073	0.91639
1618.39693	0.91685
1616.34313	0.91783
1614.28932	0.91822
1612.23552	0.91768
1610.18172	0.91629
1608.12791	0.91321
1606.07411	0.90775
1604.02031	0.90062
1601.96650	0.89471
1599.91270	0.89393
1597.85890	0.89860
1595.80509	0.90518
1593.75129	0.91046
1591.69749	0.91398
1589.64368	0.91613
1587.58988	0.91648
1585.53608	0.91506
1583.48227	0.91350
1581.42847	0.91376
1579.37467	0.91563
1577.32086	0.91804
1575.26706	0.92051
1573.21326	0.92216
1571.15945	0.92344
1569.10565	0.92484
1567.05185	0.92592
1564.99805	0.92671
1562.94424	0.92724
1560.89044	0.92753
1558.83664	0.92808
1556.78283	0.92868
1554.72903	0.92864
1552.67523	0.92813
1550.62142	0.92738
1548.56762	0.92649
1546.51382	0.92581
1544.46001	0.92547
1542.40621	0.92544
1540.35241	0.92535
1538.29860	0.92504
1536.24480	0.92520
1534.19100	0.92624
1532.13719	0.92798
1530.08339	0.92908
1528.02959	0.92954
1525.97578	0.92988
1523.92198	0.93034
1521.86818	0.93061
1519.81437	0.93030
1517.76057	0.92981
1515.70677	0.92948
1513.65297	0.92941
1511.59916	0.92960
1509.54536	0.92999
1507.49156	0.93019
1505.43775	0.92898
1503.38395	0.92725
1501.33015	0.92495
1499.27634	0.91878
1497.22254	0.89981
1495.16874	0.86966
1493.11493	0.84992
1491.06113	0.85070
1489.00733	0.87094
1486.95352	0.88997
1484.89972	0.89913
1482.84592	0.90408
1480.79211	0.90729
1478.73831	0.90896
1476.68451	0.90934
1474.63070	0.90895
1472.57690	0.90798
1470.52310	0.90706
1468.46929	0.90656
1466.41549	0.90614
1464.36169	0.90560
1462.30788	0.90502
1460.25408	0.90382
1458.20028	0.89621
1456.14648	0.87126
1454.09267	0.84649
1452.03887	0.83451
1449.98507	0.83575
1447.93126	0.84596
1445.87746	0.85617
1443.82366	0.86369
1441.76985	0.87033
1439.71605	0.87597
1437.66225	0.88094
1435.60844	0.88569
1433.55464	0.88908
1431.50084	0.89175
1429.44703	0.89402
1427.39323	0.89542
1425.33943	0.89638
1423.28562	0.89748
1421.23182	0.89850
1419.17802	0.89934
1417.12421	0.90053
1415.07041	0.90208
1413.01661	0.90377
1410.96280	0.90578
1408.90900	0.90794
1406.85520	0.91005
1404.80139	0.91233
1402.74759	0.91435
1400.69379	0.91591
1398.63999	0.91729
1396.58618	0.91838
1394.53238	0.91920
1392.47858	0.91969
1390.42477	0.91990
1388.37097	0.91988
1386.31717	0.91955
1384.26336	0.91917
1382.20956	0.91883
1380.15576	0.91834
1378.10195	0.91771
1376.04815	0.91716
1373.99435	0.91690
1371.94054	0.91700
1369.88674	0.91752
1367.83294	0.91812
1365.77913	0.91853
1363.72533	0.91913
1361.67153	0.92013
1359.61772	0.92107
1357.56392	0.92181
1355.51012	0.92252
1353.45631	0.92310
1351.40251	0.92377
1349.34871	0.92431
1347.29491	0.92442
1345.24110	0.92469
1343.18730	0.92545
1341.13350	0.92641
1339.07969	0.92713
1337.02589	0.92735
1334.97209	0.92728
1332.91828	0.92692
1330.86448	0.92639
1328.81068	0.92598
1326.75687	0.92563
1324.70307	0.92542
1322.64927	0.92565
1320.59546	0.92636
1318.54166	0.92711
1316.48786	0.92729
1314.43405	0.92679
1312.38025	0.92632
1310.32645	0.92663
1308.27264	0.92765
1306.21884	0.92858
1304.16504	0.92909
1302.11123	0.92961
1300.05743	0.93006
1298.00363	0.93024
1295.94982	0.93046
1293.89602	0.93076
1291.84222	0.93093
1289.78842	0.93098
1287.73461	0.93103
1285.68081	0.93101
1283.62701	0.93088
1281.57320	0.93062
1279.51940	0.93011
1277.46560	0.92929
1275.41179	0.92849
1273.35799	0.92824
1271.30419	0.92852
1269.25038	0.92900
1267.19658	0.92946
1265.14278	0.92990
1263.08897	0.93042
1261.03517	0.93092
1258.98137	0.93139
1256.92756	0.93180
1254.87376	0.93176
1252.81996	0.93132
1250.76615	0.93075
1248.71235	0.93035
1246.65855	0.93024
1244.60474	0.93024
1242.55094	0.93031
1240.49714	0.93053
1238.44334	0.93062
1236.38953	0.93038
1234.33573	0.92995
1232.28193	0.92947
1230.22812	0.92880
1228.17432	0.92821
1226.12052	0.92789
1224.06671	0.92737
1222.01291	0.92654
1219.95911	0.92582
1217.90530	0.92510
1215.85150	0.92418
1213.79770	0.92333
1211.74389	0.92236
1209.69009	0.92068
1207.63629	0.91848
1205.58248	0.91625
1203.52868	0.91393
1201.47488	0.91152
1199.42107	0.90934
1197.36727	0.90726
1195.31347	0.90485
1193.25966	0.90234
1191.20586	0.89995
1189.15206	0.89713
1187.09825	0.89344
1185.04445	0.88947
1182.99065	0.88578
1180.93685	0.88259
1178.88304	0.88023
1176.82924	0.87863
1174.77544	0.87735
1172.72163	0.87602
1170.66783	0.87400
1168.61403	0.87135
1166.56022	0.86899
1164.50642	0.86697
1162.45262	0.86513
1160.39881	0.86358
1158.34501	0.86130
1156.29121	0.85789
1154.23740	0.85495
1152.18360	0.85363
1150.12980	0.85329
1148.07599	0.85308
1146.02219	0.85281
1143.96839	0.85226
1141.91458	0.85122
1139.86078	0.84997
1137.80698	0.84857
1135.75317	0.84699
1133.69937	0.84519
1131.64557	0.84304
1129.59176	0.84064
1127.53796	0.83761
1125.48416	0.83369
1123.43036	0.82931
1121.37655	0.82405
1119.32275	0.81739
1117.26895	0.81068
1115.21514	0.80497
1113.16134	0.79945
1111.10754	0.79392
1109.05373	0.78903
1106.99993	0.78482
1104.94613	0.78100
1102.89232	0.77759
1100.83852	0.77504
1098.78472	0.77329
1096.73091	0.77145
1094.67711	0.76926
1092.62331	0.76741
1090.56950	0.76617
1088.51570	0.76501
1086.46190	0.76355
1084.40809	0.76210
1082.35429	0.76082
1080.30049	0.75933
1078.24668	0.75743
1076.19288	0.75498
1074.13908	0.75199
1072.08528	0.74889
1070.03147	0.74568
1067.97767	0.74232
1065.92387	0.73914
1063.87006	0.73583
1061.81626	0.73211
1059.76246	0.72820
1057.70865	0.72400
1055.65485	0.71905
1053.60105	0.71320
1051.54724	0.70652
1049.49344	0.69886
1047.43964	0.69040
1045.38583	0.68143
1043.33203	0.67202
1041.27823	0.66246
1039.22442	0.65299
1037.17062	0.64327
1035.11682	0.63280
1033.06301	0.62172
1031.00921	0.61101
1028.95541	0.60215
1026.90160	0.59665
1024.84780	0.59475
1022.79400	0.59489
1020.74019	0.59533
1018.68639	0.59503
1016.63259	0.59353
1014.57879	0.59140
1012.52498	0.58917
1010.47118	0.58662
1008.41738	0.58380
1006.36357	0.58104
1004.30977	0.57875
1002.25597	0.57798
1000.20216	0.57951
998.14836	0.58302
996.09456	0.58791
994.04075	0.59333
991.98695	0.59871
989.93315	0.60444
987.87934	0.61059
985.82554	0.61676
983.77174	0.62329
981.71793	0.63063
979.66413	0.63854
977.61033	0.64689
975.55652	0.65581
973.50272	0.66521
971.44892	0.67482
969.39511	0.68392
967.34131	0.69203
965.28751	0.69955
963.23371	0.70721
961.17990	0.71530
959.12610	0.72339
957.07230	0.73081
955.01849	0.73732
952.96469	0.74324
950.91089	0.74859
948.85708	0.75282
946.80328	0.75591
944.74948	0.75888
942.69567	0.76220
940.64187	0.76520
938.58807	0.76761
936.53426	0.77015
934.48046	0.77315
932.42666	0.77629
930.37285	0.77932
928.31905	0.78194
926.26525	0.78367
924.21144	0.78434
922.15764	0.78414
920.10384	0.78299
918.05003	0.78058
915.99623	0.77736
913.94243	0.77412
911.88862	0.77105
909.83482	0.76884
907.78102	0.76909
905.72722	0.77249
903.67341	0.77909
901.61961	0.78846
899.56581	0.79885
897.51200	0.80843
895.45820	0.81644
893.40440	0.82264
891.35059	0.82726
889.29679	0.83088
887.24299	0.83399
885.18918	0.83652
883.13538	0.83774
881.08158	0.83695
879.02777	0.83441
876.97397	0.83175
874.92017	0.83125
872.86636	0.83471
870.81256	0.84183
868.75876	0.84938
866.70495	0.85451
864.65115	0.85832
862.59735	0.86199
860.54354	0.86482
858.48974	0.86736
856.43594	0.86987
854.38213	0.87180
852.32833	0.87322
850.27453	0.87377
848.22073	0.87334
846.16692	0.87242
844.11312	0.87142
842.05932	0.87053
840.00551	0.87012
837.95171	0.87006
835.89791	0.87026
833.84410	0.87097
831.79030	0.87159
829.73650	0.87177
827.68269	0.87209
825.62889	0.87268
823.57509	0.87351
821.52128	0.87454
819.46748	0.87579
817.41368	0.87707
815.35987	0.87775
813.30607	0.87737
811.25227	0.87588
809.19846	0.87354
807.14466	0.86996
805.09086	0.86519
803.03705	0.86092
800.98325	0.85758
798.92945	0.85450
796.87565	0.85264
794.82184	0.85274
792.76804	0.85364
790.71424	0.85406
788.66043	0.85332
786.60663	0.85173
784.55283	0.84976
782.49902	0.84690
780.44522	0.84303
778.39142	0.83872
776.33761	0.83416
774.28381	0.82896
772.23001	0.82190
770.17620	0.81266
768.12240	0.80193
766.06860	0.79017
764.01479	0.77766
761.96099	0.76454
759.90719	0.75222
757.85338	0.74272
755.79958	0.73690
753.74578	0.73489
751.69197	0.73553
749.63817	0.73698
747.58437	0.73919
745.53056	0.74491
743.47676	0.75700
741.42296	0.77340
739.36916	0.78886
737.31535	0.80194
735.26155	0.81397
733.20775	0.82472
731.15394	0.83296
729.10014	0.83826
727.04634	0.84170
724.99253	0.84498
722.93873	0.84885
720.88493	0.85227
718.83112	0.85424
716.77732	0.85521
714.72352	0.85495
712.66971	0.85180
710.61591	0.84251
708.56211	0.82218
706.50830	0.78690
704.45450	0.73474
702.40070	0.66685
700.34689	0.58974
698.29309	0.51714
696.23929	0.47554
694.18548	0.49174
692.13168	0.55659
690.07788	0.62958
688.02408	0.68308
685.97027	0.71527
683.91647	0.73412
681.86267	0.74649
679.80886	0.75583
677.75506	0.76293
675.70126	0.76764
673.64745	0.77101
671.59365	0.77384
669.53985	0.77614
667.48604	0.77826
665.43224	0.78046
663.37844	0.78230
661.32463	0.78316
659.27083	0.78311
657.21703	0.78232
655.16322	0.78152
653.10942	0.78190
651.05562	0.78303
649.00181	0.78388
646.94801	0.78410
644.89421	0.78464
642.84040	0.78701
640.78660	0.78999
638.73280	0.79168
636.67899	0.79232
634.62519	0.79174
632.57139	0.79040
630.51759	0.79002
628.46378	0.79050
626.40998	0.79108
624.35618	0.79090
622.30237	0.78929
620.24857	0.78769
618.19477	0.78717
616.14096	0.78604
614.08716	0.78354
612.03336	0.78102
609.97955	0.77845
607.92575	0.77560
605.87195	0.77287
603.81814	0.76891
601.76434	0.76373
599.71054	0.76064
597.65673	0.76049
595.60293	0.76040
593.54913	0.75859
591.49532	0.75577
589.44152	0.75388
587.38772	0.75343
585.33391	0.75273
583.28011	0.75052
581.22631	0.74703
579.17250	0.74324
577.11870	0.74024
575.06490	0.73791
573.01110	0.73511
570.95729	0.73048
568.90349	0.72400
566.84969	0.71730
564.79588	0.71100
562.74208	0.70415
560.68828	0.69720
558.63447	0.69123
556.58067	0.68416
554.52687	0.67479
552.47306	0.66509
550.41926	0.65582
548.36546	0.64561
546.31165	0.63399
544.25785	0.62136
542.20405	0.60645
540.15024	0.59020
538.09644	0.57772
536.04264	0.57113
533.98883	0.56744
531.93503	0.56578
529.88123	0.56791
527.82742	0.57303
525.77362	0.57893
523.71982	0.58387
521.66602	0.58844
519.61221	0.59467
517.55841	0.60212
515.50461	0.60950
513.45080	0.61558
511.39700	0.62050
509.34320	0.62712
507.28939	0.63444
505.23559	0.63899
503.18179	0.64236
501.12798	0.64604
499.07418	0.64812
497.02038	0.64837
494.96657	0.64698
492.91277	0.64304
490.85897	0.63777
488.80516	0.63149
486.75136	0.62218
484.69756	0.61061
482.64375	0.59808
480.58995	0.58407
478.53615	0.56719
476.48234	0.54777
474.42854	0.52924
472.37474	0.51410
470.32093	0.50285
468.26713	0.49341
466.21333	0.48647
464.15953	0.48462
462.10572	0.48723
460.05192	0.49377
457.99812	0.50348
455.94431	0.51180
453.89051	0.51579
451.83671	0.51881
449.78290	0.52335
447.72910	0.52719
445.67530	0.52896
443.62149	0.53073
441.56769	0.53238
439.51389	0.53101
437.46008	0.52697
435.40628	0.52041
433.35248	0.51372
431.29867	0.51033
429.24487	0.50608
427.19107	0.50125
425.13726	0.50179
423.08346	0.50734
421.02966	0.51455
418.97585	0.52144
416.92205	0.52443
414.86825	0.52684
412.81445	0.53147
410.76064	0.53695
408.70684	0.54277
406.65304	0.54925
404.59923	0.55629
402.54543	0.56524
400.49163	0.57506
398.43782	0.57788
