3996.70104	0.99232
3994.64724	0.99233
3992.59344	0.99258
3990.53964	0.99300
3988.48583	0.99340
3986.43203	0.99377
3984.37823	0.99404
3982.32442	0.99400
3980.27062	0.99379
3978.21682	0.99348
3976.16301	0.99325
3974.10921	0.99374
3972.05541	0.99455
3970.00160	0.99486
3967.94780	0.99476
3965.89400	0.99431
3963.84019	0.99380
3961.78639	0.99377
3959.73259	0.99410
3957.67878	0.99412
3955.62498	0.99363
3953.57118	0.99355
3951.51737	0.99394
3949.46357	0.99376
3947.40977	0.99345
3945.35596	0.99380
3943.30216	0.99390
3941.24836	0.99331
3939.19455	0.99296
3937.14075	0.99337
3935.08695	0.99407
3933.03315	0.99428
3930.97934	0.99396
3928.92554	0.99362
3926.87174	0.99350
3924.81793	0.99356
3922.76413	0.99350
3920.71033	0.99334
3918.65652	0.99357
3916.60272	0.99367
3914.54892	0.99328
3912.49511	0.99318
3910.44131	0.99328
3908.38751	0.99319
3906.33370	0.99281
3904.27990	0.99220
3902.22610	0.99190
3900.17229	0.99198
3898.11849	0.99241
3896.06469	0.99293
3894.01088	0.99306
3891.95708	0.99303
3889.90328	0.99304
3887.84947	0.99294
3885.79567	0.99298
3883.74187	0.99351
3881.68807	0.99383
3879.63426	0.99348
3877.58046	0.99309
3875.52666	0.99303
3873.47285	0.99330
3871.41905	0.99383
3869.36525	0.99416
3867.31144	0.99422
3865.25764	0.99428
3863.20384	0.99416
3861.15003	0.99377
3859.09623	0.99321
3857.04243	0.99258
3854.98862	0.99249
3852.93482	0.99332
3850.88102	0.99421
3848.82721	0.99478
3846.77341	0.99483
3844.71961	0.99463
3842.66580	0.99460
3840.61200	0.99414
3838.55820	0.99327
3836.50439	0.99298
3834.45059	0.99353
3832.39679	0.99423
3830.34298	0.99433
3828.28918	0.99364
3826.23538	0.99269
3824.18158	0.99214
3822.12777	0.99251
3820.07397	0.99357
3818.02017	0.99409
3815.96636	0.99413
3813.91256	0.99395
3811.85876	0.99381
3809.80495	0.99355
3807.75115	0.99311
3805.69735	0.99280
3803.64354	0.99296
3801.58974	0.99382
3799.53594	0.99405
3797.48213	0.99336
3795.42833	0.99313
3793.37453	0.99341
3791.32072	0.99374
3789.26692	0.99409
3787.21312	0.99402
3785.15931	0.99344
3783.10551	0.99331
3781.05171	0.99373
3778.99790	0.99387
3776.94410	0.99355
3774.89030	0.99353
3772.83650	0.99368
3770.78269	0.99341
3768.72889	0.99297
3766.67509	0.99272
3764.62128	0.99266
3762.56748	0.99281
3760.51368	0.99312
3758.45987	0.99334
3756.40607	0.99327
3754.35227	0.99320
3752.29846	0.99375
3750.24466	0.99429
3748.19086	0.99408
3746.13705	0.99412
3744.08325	0.99469
3742.02945	0.99559
3739.97564	0.99575
3737.92184	0.99468
3735.86804	0.99347
3733.81423	0.99314
3731.76043	0.99271
3729.70663	0.99227
3727.65282	0.99283
3725.59902	0.99424
3723.54522	0.99500
3721.49141	0.99493
3719.43761	0.99473
3717.38381	0.99442
3715.33001	0.99405
3713.27620	0.99377
3711.22240	0.99365
3709.16860	0.99335
3707.11479	0.99289
3705.06099	0.99283
3703.00719	0.99319
3700.95338	0.99352
3698.89958	0.99349
3696.84578	0.99334
3694.79197	0.99346
3692.73817	0.99346
3690.68437	0.99277
3688.63056	0.99203
3686.57676	0.99223
3684.52296	0.99258
3682.46915	0.99243
3680.41535	0.99252
3678.36155	0.99305
3676.30774	0.99309
3674.25394	0.99269
3672.20014	0.99283
3670.14633	0.99364
3668.09253	0.99415
3666.03873	0.99354
3663.98492	0.99249
3661.93112	0.99180
3659.87732	0.99160
3657.82352	0.99127
3655.76971	0.99104
3653.71591	0.99149
3651.66211	0.99170
3649.60830	0.99135
3647.55450	0.99192
3645.50070	0.99262
3643.44689	0.99272
3641.39309	0.99277
3639.33929	0.99259
3637.28548	0.99213
3635.23168	0.99188
3633.17788	0.99174
3631.12407	0.99111
3629.07027	0.99039
3627.01647	0.99078
3624.96266	0.99124
3622.90886	0.99137
3620.85506	0.99144
3618.80125	0.99152
3616.74745	0.99193
3614.69365	0.99236
3612.63984	0.99209
3610.58604	0.99111
3608.53224	0.99048
3606.47844	0.99066
3604.42463	0.99077
3602.37083	0.99068
3600.31703	0.99063
3598.26322	0.99054
3596.20942	0.99042
3594.15562	0.99025
3592.10181	0.99034
3590.04801	0.99069
3587.99421	0.99056
3585.94040	0.98996
3583.88660	0.98938
3581.83280	0.98902
3579.77899	0.98894
3577.72519	0.98899
3575.67139	0.98925
3573.61758	0.98972
3571.56378	0.99001
3569.50998	0.98990
3567.45617	0.98984
3565.40237	0.98976
3563.34857	0.98927
3561.29476	0.98888
3559.24096	0.98893
3557.18716	0.98883
3555.13335	0.98832
3553.07955	0.98812
3551.02575	0.98813
3548.97195	0.98790
3546.91814	0.98777
3544.86434	0.98745
3542.81054	0.98687
3540.75673	0.98679
3538.70293	0.98710
3536.64913	0.98735
3534.59532	0.98748
3532.54152	0.98734
3530.48772	0.98724
3528.43391	0.98763
3526.38011	0.98742
3524.32631	0.98604
3522.27250	0.98539
3520.21870	0.98627
3518.16490	0.98736
3516.11109	0.98772
3514.05729	0.98731
3512.00349	0.98640
3509.94968	0.98562
3507.89588	0.98564
3505.84208	0.98600
3503.78827	0.98621
3501.73447	0.98626
3499.68067	0.98615
3497.62687	0.98612
3495.57306	0.98612
3493.51926	0.98591
3491.46546	0.98577
3489.41165	0.98566
3487.35785	0.98525
3485.30405	0.98494
3483.25024	0.98508
3481.19644	0.98521
3479.14264	0.98498
3477.08883	0.98473
3475.03503	0.98469
3472.98123	0.98466
3470.92742	0.98436
3468.87362	0.98407
3466.81982	0.98423
3464.76601	0.98445
3462.71221	0.98433
3460.65841	0.98398
3458.60460	0.98376
3456.55080	0.98397
3454.49700	0.98439
3452.44319	0.98445
3450.38939	0.98417
3448.33559	0.98400
3446.28178	0.98371
3444.22798	0.98313
3442.17418	0.98237
3440.12038	0.98170
3438.06657	0.98184
3436.01277	0.98258
3433.95897	0.98263
3431.90516	0.98217
3429.85136	0.98213
3427.79756	0.98238
3425.74375	0.98266
3423.68995	0.98261
3421.63615	0.98232
3419.58234	0.98225
3417.52854	0.98214
3415.47474	0.98171
3413.42093	0.98122
3411.36713	0.98084
3409.31333	0.98042
3407.25952	0.98007
3405.20572	0.97995
3403.15192	0.98013
3401.09811	0.98069
3399.04431	0.98139
3396.99051	0.98155
3394.93670	0.98079
3392.88290	0.98018
3390.82910	0.98072
3388.77529	0.98121
3386.72149	0.98060
3384.66769	0.97987
3382.61389	0.97961
3380.56008	0.97941
3378.50628	0.97935
3376.45248	0.97953
3374.39867	0.97969
3372.34487	0.97963
3370.29107	0.97946
3368.23726	0.97933
3366.18346	0.97923
3364.12966	0.97924
3362.07585	0.97920
3360.02205	0.97908
3357.96825	0.97947
3355.91444	0.98016
3353.86064	0.98016
3351.80684	0.97953
3349.75303	0.97907
3347.69923	0.97889
3345.64543	0.97877
3343.59162	0.97880
3341.53782	0.97859
3339.48402	0.97793
3337.43021	0.97755
3335.37641	0.97757
3333.32261	0.97753
3331.26881	0.97757
3329.21500	0.97763
3327.16120	0.97768
3325.10740	0.97816
3323.05359	0.97847
3320.99979	0.97802
3318.94599	0.97766
3316.89218	0.97792
3314.83838	0.97819
3312.78458	0.97783
3310.73077	0.97711
3308.67697	0.97686
3306.62317	0.97702
3304.56936	0.97713
3302.51556	0.97718
3300.46176	0.97698
3298.40795	0.97655
3296.35415	0.97631
3294.30035	0.97637
3292.24654	0.97661
3290.19274	0.97661
3288.13894	0.97630
3286.08513	0.97615
3284.03133	0.97614
3281.97753	0.97614
3279.92372	0.97597
3277.86992	0.97554
3275.81612	0.97541
3273.76232	0.97566
3271.70851	0.97588
3269.65471	0.97602
3267.60091	0.97614
3265.54710	0.97620
3263.49330	0.97622
3261.43950	0.97606
3259.38569	0.97572
3257.33189	0.97584
3255.27809	0.97640
3253.22428	0.97658
3251.17048	0.97645
3249.11668	0.97660
3247.06287	0.97678
3245.00907	0.97673
3242.95527	0.97679
3240.90146	0.97695
3238.84766	0.97678
3236.79386	0.97651
3234.74005	0.97647
3232.68625	0.97676
3230.63245	0.97704
3228.57864	0.97670
3226.52484	0.97617
3224.47104	0.97627
3222.41724	0.97690
3220.36343	0.97742
3218.30963	0.97750
3216.25583	0.97722
3214.20202	0.97704
3212.14822	0.97745
3210.09442	0.97803
3208.04061	0.97810
3205.98681	0.97810
3203.93301	0.97808
3201.87920	0.97759
3199.82540	0.97726
3197.77160	0.97720
3195.71779	0.97722
3193.66399	0.97769
3191.61019	0.97834
3189.55638	0.97883
3187.50258	0.97894
3185.44878	0.97851
3183.39497	0.97809
3181.34117	0.97808
3179.28737	0.97826
3177.23356	0.97857
3175.17976	0.97881
3173.12596	0.97895
3171.07215	0.97897
3169.01835	0.97886
3166.96455	0.97898
3164.91075	0.97920
3162.85694	0.97948
3160.80314	0.98000
3158.74934	0.98029
3156.69553	0.98010
3154.64173	0.97998
3152.58793	0.98015
3150.53412	0.98046
3148.48032	0.98062
3146.42652	0.98073
3144.37271	0.98109
3142.31891	0.98131
3140.26511	0.98120
3138.21130	0.98112
3136.15750	0.98108
3134.10370	0.98109
3132.04989	0.98157
3129.99609	0.98212
3127.94229	0.98221
3125.88848	0.98214
3123.83468	0.98224
3121.78088	0.98246
3119.72707	0.98240
3117.67327	0.98202
3115.61947	0.98178
3113.56566	0.98205
3111.51186	0.98253
3109.45806	0.98243
3107.40426	0.98215
3105.35045	0.98255
3103.29665	0.98301
3101.24285	0.98285
3099.18904	0.98258
3097.13524	0.98243
3095.08144	0.98229
3093.02763	0.98229
3090.97383	0.98240
3088.92003	0.98235
3086.86622	0.98224
3084.81242	0.98225
3082.75862	0.98238
3080.70481	0.98257
3078.65101	0.98273
3076.59721	0.98288
3074.54340	0.98286
3072.48960	0.98260
3070.43580	0.98222
3068.38199	0.98167
3066.32819	0.98131
3064.27439	0.98158
3062.22058	0.98211
3060.16678	0.98257
3058.11298	0.98271
3056.05918	0.98249
3054.00537	0.98258
3051.95157	0.98287
3049.89777	0.98281
3047.84396	0.98275
3045.79016	0.98301
3043.73636	0.98316
3041.68255	0.98317
3039.62875	0.98322
3037.57495	0.98320
3035.52114	0.98336
3033.46734	0.98377
3031.41354	0.98405
3029.35973	0.98415
3027.30593	0.98421
3025.25213	0.98431
3023.19832	0.98423
3021.14452	0.98399
3019.09072	0.98410
3017.03691	0.98453
3014.98311	0.98471
3012.92931	0.98461
3010.87550	0.98455
3008.82170	0.98457
3006.76790	0.98458
3004.71409	0.98466
3002.66029	0.98476
3000.60649	0.98460
2998.55269	0.98429
2996.49888	0.98426
2994.44508	0.98436
2992.39128	0.98422
2990.33747	0.98425
2988.28367	0.98472
2986.22987	0.98498
2984.17606	0.98461
2982.12226	0.98411
2980.06846	0.98367
2978.01465	0.98322
2975.96085	0.98302
2973.90705	0.98283
2971.85324	0.98252
2969.79944	0.98247
2967.74564	0.98269
2965.69183	0.98303
2963.63803	0.98338
2961.58423	0.98345
2959.53042	0.98322
2957.47662	0.98298
2955.42282	0.98297
2953.36901	0.98321
2951.31521	0.98325
2949.26141	0.98318
2947.20761	0.98329
2945.15380	0.98347
2943.10000	0.98358
2941.04620	0.98356
2938.99239	0.98354
2936.93859	0.98351
2934.88479	0.98343
2932.83098	0.98358
2930.77718	0.98370
2928.72338	0.98342
2926.66957	0.98315
2924.61577	0.98321
2922.56197	0.98345
2920.50816	0.98378
2918.45436	0.98394
2916.40056	0.98360
2914.34675	0.98329
2912.29295	0.98339
2910.23915	0.98380
2908.18534	0.98435
2906.13154	0.98477
2904.07774	0.98501
2902.02393	0.98507
2899.97013	0.98494
2897.91633	0.98482
2895.86252	0.98495
2893.80872	0.98513
2891.75492	0.98514
2889.70112	0.98506
2887.64731	0.98506
2885.59351	0.98521
2883.53971	0.98547
2881.48590	0.98554
2879.43210	0.98520
2877.37830	0.98487
2875.32449	0.98472
2873.27069	0.98464
2871.21689	0.98473
2869.16308	0.98480
2867.10928	0.98509
2865.05548	0.98580
2863.00167	0.98598
2860.94787	0.98560
2858.89407	0.98563
2856.84026	0.98601
2854.78646	0.98623
2852.73266	0.98626
2850.67885	0.98620
2848.62505	0.98626
2846.57125	0.98663
2844.51744	0.98689
2842.46364	0.98676
2840.40984	0.98656
2838.35603	0.98671
2836.30223	0.98722
2834.24843	0.98756
2832.19463	0.98766
2830.14082	0.98780
2828.08702	0.98797
2826.03322	0.98782
2823.97941	0.98737
2821.92561	0.98723
2819.87181	0.98741
2817.81800	0.98749
2815.76420	0.98762
2813.71040	0.98789
2811.65659	0.98815
2809.60279	0.98834
2807.54899	0.98830
2805.49518	0.98816
2803.44138	0.98821
2801.38758	0.98822
2799.33377	0.98811
2797.27997	0.98820
2795.22617	0.98850
2793.17236	0.98868
2791.11856	0.98870
2789.06476	0.98866
2787.01095	0.98848
2784.95715	0.98838
2782.90335	0.98866
2780.84955	0.98894
2778.79574	0.98877
2776.74194	0.98834
2774.68814	0.98820
2772.63433	0.98836
2770.58053	0.98847
2768.52673	0.98869
2766.47292	0.98906
2764.41912	0.98924
2762.36532	0.98928
2760.31151	0.98931
2758.25771	0.98922
2756.20391	0.98916
2754.15010	0.98933
2752.09630	0.98937
2750.04250	0.98908
2747.98869	0.98900
2745.93489	0.98925
2743.88109	0.98936
2741.82728	0.98936
2739.77348	0.98938
2737.71968	0.98925
2735.66587	0.98892
2733.61207	0.98879
2731.55827	0.98928
2729.50446	0.98978
2727.45066	0.98960
2725.39686	0.98913
2723.34306	0.98902
2721.28925	0.98930
2719.23545	0.98946
2717.18165	0.98935
2715.12784	0.98943
2713.07404	0.98963
2711.02024	0.98959
2708.96643	0.98954
2706.91263	0.98971
2704.85883	0.98992
2702.80502	0.99001
2700.75122	0.99011
2698.69742	0.99004
2696.64361	0.98992
2694.58981	0.99019
2692.53601	0.99035
2690.48220	0.99039
2688.42840	0.99074
2686.37460	0.99075
2684.32079	0.99027
2682.26699	0.98997
2680.21319	0.98984
2678.15938	0.98964
2676.10558	0.98964
2674.05178	0.98992
2671.99797	0.99017
2669.94417	0.99011
2667.89037	0.98984
2665.83657	0.98984
2663.78276	0.99000
2661.72896	0.98980
2659.67516	0.98946
2657.62135	0.98927
2655.56755	0.98918
2653.51375	0.98930
2651.45994	0.98944
2649.40614	0.98934
2647.35234	0.98940
2645.29853	0.98955
2643.24473	0.98935
2641.19093	0.98923
2639.13712	0.98931
2637.08332	0.98927
2635.02952	0.98928
2632.97571	0.98924
2630.92191	0.98901
2628.86811	0.98878
2626.81430	0.98882
2624.76050	0.98912
2622.70670	0.98925
2620.65289	0.98923
2618.59909	0.98931
2616.54529	0.98904
2614.49149	0.98866
2612.43768	0.98895
2610.38388	0.98943
2608.33008	0.98951
2606.27627	0.98916
2604.22247	0.98897
2602.16867	0.98922
2600.11486	0.98930
2598.06106	0.98930
2596.00726	0.98965
2593.95345	0.98997
2591.89965	0.98999
2589.84585	0.98988
2587.79204	0.98989
2585.73824	0.99005
2583.68444	0.99058
2581.63063	0.99147
2579.57683	0.99167
2577.52303	0.99088
2575.46922	0.99006
2573.41542	0.98996
2571.36162	0.99029
2569.30781	0.99053
2567.25401	0.99070
2565.20021	0.99036
2563.14640	0.98997
2561.09260	0.99038
2559.03880	0.99097
2556.98500	0.99069
2554.93119	0.98981
2552.87739	0.98968
2550.82359	0.99041
2548.76978	0.99094
2546.71598	0.99093
2544.66218	0.99046
2542.60837	0.98978
2540.55457	0.98961
2538.50077	0.98980
2536.44696	0.98948
2534.39316	0.98911
2532.33936	0.98957
2530.28555	0.99020
2528.23175	0.99022
2526.17795	0.99005
2524.12414	0.98989
2522.07034	0.98948
2520.01654	0.98910
2517.96273	0.98933
2515.90893	0.98973
2513.85513	0.98990
2511.80132	0.99003
2509.74752	0.98991
2507.69372	0.98964
2505.63992	0.98946
2503.58611	0.98929
2501.53231	0.98958
2499.47851	0.99054
2497.42470	0.99084
2495.37090	0.98984
2493.31710	0.98902
2491.26329	0.98959
2489.20949	0.99078
2487.15569	0.99139
2485.10188	0.99155
2483.04808	0.99182
2480.99428	0.99191
2478.94047	0.99162
2476.88667	0.99140
2474.83287	0.99157
2472.77906	0.99177
2470.72526	0.99169
2468.67146	0.99165
2466.61765	0.99190
2464.56385	0.99198
2462.51005	0.99113
2460.45624	0.98996
2458.40244	0.98987
2456.34864	0.99075
2454.29483	0.99188
2452.24103	0.99227
2450.18723	0.99138
2448.13343	0.99036
2446.07962	0.99022
2444.02582	0.99028
2441.97202	0.99016
2439.91821	0.99072
2437.86441	0.99153
2435.81061	0.99157
2433.75680	0.99139
2431.70300	0.99162
2429.64920	0.99199
2427.59539	0.99250
2425.54159	0.99302
2423.48779	0.99297
2421.43398	0.99273
2419.38018	0.99292
2417.32638	0.99307
2415.27257	0.99275
2413.21877	0.99226
2411.16497	0.99231
2409.11116	0.99279
2407.05736	0.99285
2405.00356	0.99286
2402.94975	0.99320
2400.89595	0.99307
2398.84215	0.99251
2396.78834	0.99243
2394.73454	0.99273
2392.68074	0.99269
2390.62694	0.99256
2388.57313	0.99271
2386.51933	0.99273
2384.46553	0.99260
2382.41172	0.99257
2380.35792	0.99233
2378.30412	0.99184
2376.25031	0.99130
2374.19651	0.99102
2372.14271	0.99171
2370.08890	0.99302
2368.03510	0.99381
2365.98130	0.99379
2363.92749	0.99351
2361.87369	0.99300
2359.81989	0.99181
2357.76608	0.99125
2355.71228	0.99234
2353.65848	0.99353
2351.60467	0.99376
2349.55087	0.99326
2347.49707	0.99232
2345.44326	0.99185
2343.38946	0.99248
2341.33566	0.99299
2339.28186	0.99268
2337.22805	0.99228
2335.17425	0.99198
2333.12045	0.99171
2331.06664	0.99238
2329.01284	0.99338
2326.95904	0.99287
2324.90523	0.99126
2322.85143	0.99022
2320.79763	0.98996
2318.74382	0.98997
2316.69002	0.99051
2314.63622	0.99139
2312.58241	0.99175
2310.52861	0.99169
2308.47481	0.99199
2306.42100	0.99214
2304.36720	0.99182
2302.31340	0.99162
2300.25959	0.99145
2298.20579	0.99168
2296.15199	0.99246
2294.09818	0.99290
2292.04438	0.99290
2289.99058	0.99244
2287.93677	0.99162
2285.88297	0.99118
2283.82917	0.99079
2281.77537	0.99028
2279.72156	0.99044
2277.66776	0.99123
2275.61396	0.99211
2273.56015	0.99246
2271.50635	0.99188
2269.45255	0.99129
2267.39874	0.99126
2265.34494	0.99178
2263.29114	0.99239
2261.23733	0.99213
2259.18353	0.99152
2257.12973	0.99114
2255.07592	0.99069
2253.02212	0.99091
2250.96832	0.99258
2248.91451	0.99356
2246.86071	0.99242
2244.80691	0.99143
2242.75310	0.99170
2240.69930	0.99175
2238.64550	0.99064
2236.59169	0.98998
2234.53789	0.99106
2232.48409	0.99213
2230.43029	0.99242
2228.37648	0.99307
2226.32268	0.99353
2224.26888	0.99307
2222.21507	0.99339
2220.16127	0.99435
2218.10747	0.99375
2216.05366	0.99284
2213.99986	0.99254
2211.94606	0.99206
2209.89225	0.99280
2207.83845	0.99428
2205.78465	0.99381
2203.73084	0.99123
2201.67704	0.98962
2199.62324	0.99123
2197.56943	0.99293
2195.51563	0.99194
2193.46183	0.99053
2191.40802	0.99042
2189.35422	0.99063
2187.30042	0.99117
2185.24661	0.99192
2183.19281	0.99122
2181.13901	0.99023
2179.08520	0.99156
2177.03140	0.99339
2174.97760	0.99298
2172.92380	0.99211
2170.86999	0.99234
2168.81619	0.99238
2166.76239	0.99279
2164.70858	0.99358
2162.65478	0.99284
2160.60098	0.99187
2158.54717	0.99460
2156.49337	0.99856
2154.43957	0.99902
2152.38576	0.99729
2150.33196	0.99426
2148.27816	0.99142
2146.22435	0.99044
2144.17055	0.99063
2142.11675	0.99168
2140.06294	0.99285
2138.00914	0.99452
2135.95534	0.99622
2133.90153	0.99610
2131.84773	0.99584
2129.79393	0.99694
2127.74012	0.99740
2125.68632	0.99640
2123.63252	0.99569
2121.57871	0.99535
2119.52491	0.99379
2117.47111	0.99219
2115.41731	0.99275
2113.36350	0.99437
2111.30970	0.99482
2109.25590	0.99399
2107.20209	0.99367
2105.14829	0.99478
2103.09449	0.99543
2101.04068	0.99438
2098.98688	0.99349
2096.93308	0.99383
2094.87927	0.99386
2092.82547	0.99287
2090.77167	0.99209
2088.71786	0.99237
2086.66406	0.99334
2084.61026	0.99466
2082.55645	0.99549
2080.50265	0.99481
2078.44885	0.99363
2076.39504	0.99350
2074.34124	0.99428
2072.28744	0.99394
2070.23363	0.99177
2068.17983	0.99068
2066.12603	0.99218
2064.07223	0.99394
2062.01842	0.99423
2059.96462	0.99408
2057.91082	0.99446
2055.85701	0.99462
2053.80321	0.99363
2051.74941	0.99224
2049.69560	0.99221
2047.64180	0.99364
2045.58800	0.99526
2043.53419	0.99608
2041.48039	0.99532
2039.42659	0.99334
2037.37278	0.99164
2035.31898	0.99070
2033.26518	0.99043
2031.21137	0.99216
2029.15757	0.99490
2027.10377	0.99534
2025.04996	0.99297
2022.99616	0.99065
2020.94236	0.99139
2018.88855	0.99454
2016.83475	0.99686
2014.78095	0.99723
2012.72714	0.99742
2010.67334	0.99705
2008.61954	0.99649
2006.56574	0.99811
2004.51193	0.99884
2002.45813	0.99729
2000.40433	0.99587
1998.35052	0.99516
1996.29672	0.99536
1994.24292	0.99549
1992.18911	0.99470
1990.13531	0.99310
1988.08151	0.99080
1986.02770	0.98968
1983.97390	0.99063
1981.92010	0.99076
1979.86629	0.98997
1977.81249	0.99209
1975.75869	0.99561
1973.70488	0.99641
1971.65108	0.99549
1969.59728	0.99528
1967.54347	0.99672
1965.48967	0.99793
1963.43587	0.99671
1961.38206	0.99492
1959.32826	0.99437
1957.27446	0.99402
1955.22066	0.99335
1953.16685	0.99332
1951.11305	0.99397
1949.05925	0.99434
1947.00544	0.99507
1944.95164	0.99606
1942.89784	0.99573
1940.84403	0.99484
1938.79023	0.99503
1936.73643	0.99598
1934.68262	0.99615
1932.62882	0.99474
1930.57502	0.99350
1928.52121	0.99412
1926.46741	0.99514
1924.41361	0.99512
1922.35980	0.99505
1920.30600	0.99548
1918.25220	0.99552
1916.19839	0.99513
1914.14459	0.99473
1912.09079	0.99482
1910.03698	0.99564
1907.98318	0.99607
1905.92938	0.99581
1903.87557	0.99544
1901.82177	0.99490
1899.76797	0.99425
1897.71417	0.99399
1895.66036	0.99401
1893.60656	0.99394
1891.55276	0.99445
1889.49895	0.99560
1887.44515	0.99584
1885.39135	0.99505
1883.33754	0.99440
1881.28374	0.99405
1879.22994	0.99398
1877.17613	0.99436
1875.12233	0.99462
1873.06853	0.99444
1871.01472	0.99414
1868.96092	0.99376
1866.90712	0.99370
1864.85331	0.99406
1862.79951	0.99425
1860.74571	0.99447
1858.69190	0.99491
1856.63810	0.99543
1854.58430	0.99623
1852.53049	0.99687
1850.47669	0.99667
1848.42289	0.99579
1846.36908	0.99488
1844.31528	0.99454
1842.26148	0.99452
1840.20768	0.99431
1838.15387	0.99443
1836.10007	0.99479
1834.04627	0.99476
1831.99246	0.99467
1829.93866	0.99491
1827.88486	0.99522
1825.83105	0.99538
1823.77725	0.99525
1821.72345	0.99500
1819.66964	0.99496
1817.61584	0.99495
1815.56204	0.99454
1813.50823	0.99411
1811.45443	0.99417
1809.40063	0.99423
1807.34682	0.99411
1805.29302	0.99387
1803.23922	0.99317
1801.18541	0.99249
1799.13161	0.99236
1797.07781	0.99238
1795.02400	0.99246
1792.97020	0.99276
1790.91640	0.99319
1788.86260	0.99381
1786.80879	0.99430
1784.75499	0.99432
1782.70119	0.99405
1780.64738	0.99372
1778.59358	0.99371
1776.53978	0.99424
1774.48597	0.99440
1772.43217	0.99373
1770.37837	0.99343
1768.32456	0.99394
1766.27076	0.99473
1764.21696	0.99520
1762.16315	0.99514
1760.10935	0.99462
1758.05555	0.99415
1756.00174	0.99406
1753.94794	0.99407
1751.89414	0.99421
1749.84033	0.99477
1747.78653	0.99539
1745.73273	0.99552
1743.67892	0.99520
1741.62512	0.99482
1739.57132	0.99472
1737.51751	0.99456
1735.46371	0.99402
1733.40991	0.99385
1731.35611	0.99424
1729.30230	0.99446
1727.24850	0.99447
1725.19470	0.99451
1723.14089	0.99458
1721.08709	0.99427
1719.03329	0.99365
1716.97948	0.99356
1714.92568	0.99383
1712.87188	0.99337
1710.81807	0.99246
1708.76427	0.99172
1706.71047	0.99107
1704.65666	0.99019
1702.60286	0.98926
1700.54906	0.98836
1698.49525	0.98752
1696.44145	0.98652
1694.38765	0.98498
1692.33384	0.98355
1690.28004	0.98221
1688.22624	0.98081
1686.17243	0.97939
1684.11863	0.97750
1682.06483	0.97590
1680.01103	0.97483
1677.95722	0.97358
1675.90342	0.97198
1673.84962	0.97032
1671.79581	0.96929
1669.74201	0.96864
1667.68821	0.96743
1665.63440	0.96595
1663.58060	0.96479
1661.52680	0.96386
1659.47299	0.96293
1657.41919	0.96207
1655.36539	0.96116
1653.31158	0.96036
1651.25778	0.96018
1649.20398	0.95976
1647.15017	0.95888
1645.09637	0.95842
1643.04257	0.95844
1640.98876	0.95826
1638.93496	0.95798
1636.88116	0.95810
1634.82735	0.95891
1632.77355	0.95959
1630.71975	0.96001
1628.66594	0.96049
1626.61214	0.96101
1624.55834	0.96153
1622.50454	0.96236
1620.45073	0.96335
1618.39693	0.96423
1616.34313	0.96532
1614.28932	0.96635
1612.23552	0.96703
1610.18172	0.96766
1608.12791	0.96840
1606.07411	0.96939
1604.02031	0.97058
1601.96650	0.97138
1599.91270	0.97160
1597.85890	0.97189
1595.80509	0.97236
1593.75129	0.97266
1591.69749	0.97297
1589.64368	0.97336
1587.58988	0.97352
1585.53608	0.97360
1583.48227	0.97362
1581.42847	0.97358
1579.37467	0.97373
1577.32086	0.97376
1575.26706	0.97326
1573.21326	0.97272
1571.15945	0.97231
1569.10565	0.97171
1567.05185	0.97095
1564.99805	0.97019
1562.94424	0.96956
1560.89044	0.96895
1558.83664	0.96790
1556.78283	0.96679
1554.72903	0.96580
1552.67523	0.96482
1550.62142	0.96388
1548.56762	0.96267
1546.51382	0.96146
1544.46001	0.96032
1542.40621	0.95909
1540.35241	0.95780
1538.29860	0.95666
1536.24480	0.95574
1534.19100	0.95455
1532.13719	0.95326
1530.08339	0.95262
1528.02959	0.95225
1525.97578	0.95160
1523.92198	0.95065
1521.86818	0.94971
1519.81437	0.94922
1517.76057	0.94859
1515.70677	0.94742
1513.65297	0.94657
1511.59916	0.94635
1509.54536	0.94614
1507.49156	0.94571
1505.43775	0.94570
1503.38395	0.94576
1501.33015	0.94578
1499.27634	0.94585
1497.22254	0.94592
1495.16874	0.94597
1493.11493	0.94594
1491.06113	0.94594
1489.00733	0.94595
1486.95352	0.94557
1484.89972	0.94501
1482.84592	0.94469
1480.79211	0.94456
1478.73831	0.94399
1476.68451	0.94286
1474.63070	0.94184
1472.57690	0.94132
1470.52310	0.94101
1468.46929	0.94044
1466.41549	0.93948
1464.36169	0.93863
1462.30788	0.93806
1460.25408	0.93737
1458.20028	0.93658
1456.14648	0.93572
1454.09267	0.93464
1452.03887	0.93366
1449.98507	0.93287
1447.93126	0.93206
1445.87746	0.93120
1443.82366	0.93047
1441.76985	0.92993
1439.71605	0.92945
1437.66225	0.92873
1435.60844	0.92750
1433.55464	0.92643
1431.50084	0.92601
1429.44703	0.92593
1427.39323	0.92542
1425.33943	0.92436
1423.28562	0.92317
1421.23182	0.92220
1419.17802	0.92149
1417.12421	0.92097
1415.07041	0.92056
1413.01661	0.91977
1410.96280	0.91836
1408.90900	0.91706
1406.85520	0.91634
1404.80139	0.91585
1402.74759	0.91528
1400.69379	0.91480
1398.63999	0.91445
1396.58618	0.91420
1394.53238	0.91434
1392.47858	0.91443
1390.42477	0.91400
1388.37097	0.91381
1386.31717	0.91427
1384.26336	0.91472
1382.20956	0.91502
1380.15576	0.91543
1378.10195	0.91593
1376.04815	0.91649
1373.99435	0.91695
1371.94054	0.91722
1369.88674	0.91767
1367.83294	0.91825
1365.77913	0.91853
1363.72533	0.91869
1361.67153	0.91902
1359.61772	0.91960
1357.56392	0.92040
1355.51012	0.92112
1353.45631	0.92163
1351.40251	0.92203
1349.34871	0.92249
1347.29491	0.92299
1345.24110	0.92343
1343.18730	0.92380
1341.13350	0.92409
1339.07969	0.92462
1337.02589	0.92554
1334.97209	0.92635
1332.91828	0.92684
1330.86448	0.92726
1328.81068	0.92766
1326.75687	0.92812
1324.70307	0.92882
1322.64927	0.92923
1320.59546	0.92905
1318.54166	0.92909
1316.48786	0.92987
1314.43405	0.93085
1312.38025	0.93150
1310.32645	0.93188
1308.27264	0.93226
1306.21884	0.93260
1304.16504	0.93302
1302.11123	0.93356
1300.05743	0.93396
1298.00363	0.93410
1295.94982	0.93413
1293.89602	0.93444
1291.84222	0.93515
1289.78842	0.93577
1287.73461	0.93614
1285.68081	0.93652
1283.62701	0.93688
1281.57320	0.93719
1279.51940	0.93758
1277.46560	0.93811
1275.41179	0.93854
1273.35799	0.93874
1271.30419	0.93892
1269.25038	0.93916
1267.19658	0.93937
1265.14278	0.93974
1263.08897	0.94030
1261.03517	0.94062
1258.98137	0.94057
1256.92756	0.94065
1254.87376	0.94102
1252.81996	0.94129
1250.76615	0.94143
1248.71235	0.94159
1246.65855	0.94169
1244.60474	0.94180
1242.55094	0.94197
1240.49714	0.94208
1238.44334	0.94215
1236.38953	0.94234
1234.33573	0.94269
1232.28193	0.94305
1230.22812	0.94344
1228.17432	0.94377
1226.12052	0.94393
1224.06671	0.94417
1222.01291	0.94460
1219.95911	0.94509
1217.90530	0.94567
1215.85150	0.94593
1213.79770	0.94585
1211.74389	0.94609
1209.69009	0.94652
1207.63629	0.94677
1205.58248	0.94680
1203.52868	0.94654
1201.47488	0.94633
1199.42107	0.94651
1197.36727	0.94671
1195.31347	0.94670
1193.25966	0.94655
1191.20586	0.94627
1189.15206	0.94611
1187.09825	0.94622
1185.04445	0.94625
1182.99065	0.94573
1180.93685	0.94497
1178.88304	0.94449
1176.82924	0.94427
1174.77544	0.94417
1172.72163	0.94407
1170.66783	0.94374
1168.61403	0.94318
1166.56022	0.94277
1164.50642	0.94279
1162.45262	0.94285
1160.39881	0.94290
1158.34501	0.94309
1156.29121	0.94308
1154.23740	0.94267
1152.18360	0.94224
1150.12980	0.94217
1148.07599	0.94229
1146.02219	0.94228
1143.96839	0.94233
1141.91458	0.94265
1139.86078	0.94277
1137.80698	0.94224
1135.75317	0.94158
1133.69937	0.94139
1131.64557	0.94163
1129.59176	0.94188
1127.53796	0.94182
1125.48416	0.94145
1123.43036	0.94108
1121.37655	0.94082
1119.32275	0.94055
1117.26895	0.94010
1115.21514	0.93951
1113.16134	0.93915
1111.10754	0.93900
1109.05373	0.93874
1106.99993	0.93843
1104.94613	0.93829
1102.89232	0.93814
1100.83852	0.93774
1098.78472	0.93723
1096.73091	0.93683
1094.67711	0.93650
1092.62331	0.93620
1090.56950	0.93588
1088.51570	0.93547
1086.46190	0.93517
1084.40809	0.93511
1082.35429	0.93514
1080.30049	0.93532
1078.24668	0.93542
1076.19288	0.93525
1074.13908	0.93541
1072.08528	0.93583
1070.03147	0.93603
1067.97767	0.93616
1065.92387	0.93612
1063.87006	0.93588
1061.81626	0.93589
1059.76246	0.93608
1057.70865	0.93610
1055.65485	0.93551
1053.60105	0.93458
1051.54724	0.93445
1049.49344	0.93513
1047.43964	0.93557
1045.38583	0.93534
1043.33203	0.93490
1041.27823	0.93480
1039.22442	0.93494
1037.17062	0.93510
1035.11682	0.93498
1033.06301	0.93444
1031.00921	0.93412
1028.95541	0.93451
1026.90160	0.93493
1024.84780	0.93501
1022.79400	0.93524
1020.74019	0.93558
1018.68639	0.93584
1016.63259	0.93606
1014.57879	0.93588
1012.52498	0.93540
1010.47118	0.93517
1008.41738	0.93534
1006.36357	0.93580
1004.30977	0.93656
1002.25597	0.93747
1000.20216	0.93818
998.14836	0.93862
996.09456	0.93924
994.04075	0.94021
991.98695	0.94092
989.93315	0.94127
987.87934	0.94191
985.82554	0.94326
983.77174	0.94484
981.71793	0.94595
979.66413	0.94670
977.61033	0.94751
975.55652	0.94835
973.50272	0.94914
971.44892	0.95007
969.39511	0.95133
967.34131	0.95263
965.28751	0.95354
963.23371	0.95431
961.17990	0.95530
959.12610	0.95639
957.07230	0.95721
955.01849	0.95750
952.96469	0.95754
950.91089	0.95824
948.85708	0.95980
946.80328	0.96118
944.74948	0.96146
942.69567	0.96088
940.64187	0.96037
938.58807	0.96046
936.53426	0.96107
934.48046	0.96170
932.42666	0.96209
930.37285	0.96266
928.31905	0.96332
926.26525	0.96358
924.21144	0.96370
922.15764	0.96400
920.10384	0.96411
918.05003	0.96417
915.99623	0.96470
913.94243	0.96560
911.88862	0.96641
909.83482	0.96712
907.78102	0.96799
905.72722	0.96872
903.67341	0.96909
901.61961	0.96958
899.56581	0.97043
897.51200	0.97107
895.45820	0.97116
893.40440	0.97160
891.35059	0.97292
889.29679	0.97299
887.24299	0.96929
885.18918	0.96207
883.13538	0.95323
881.08158	0.94456
879.02777	0.93705
876.97397	0.93038
874.92017	0.92400
872.86636	0.91866
870.81256	0.91534
868.75876	0.91450
866.70495	0.91602
864.65115	0.91897
862.59735	0.92285
860.54354	0.92736
858.48974	0.93135
856.43594	0.93420
854.38213	0.93690
852.32833	0.93969
850.27453	0.94133
848.22073	0.94177
846.16692	0.94284
844.11312	0.94508
842.05932	0.94704
840.00551	0.94873
837.95171	0.95077
835.89791	0.95214
833.84410	0.95245
831.79030	0.95275
829.73650	0.95309
827.68269	0.95313
825.62889	0.95361
823.57509	0.95451
821.52128	0.95507
819.46748	0.95532
817.41368	0.95573
815.35987	0.95636
813.30607	0.95653
811.25227	0.95593
809.19846	0.95559
807.14466	0.95589
805.09086	0.95558
803.03705	0.95461
800.98325	0.95459
798.92945	0.95576
796.87565	0.95670
794.82184	0.95687
792.76804	0.95716
790.71424	0.95755
788.66043	0.95706
786.60663	0.95608
784.55283	0.95578
782.49902	0.95572
780.44522	0.95511
778.39142	0.95480
776.33761	0.95502
774.28381	0.95493
772.23001	0.95487
770.17620	0.95502
768.12240	0.95467
766.06860	0.95424
764.01479	0.95460
761.96099	0.95508
759.90719	0.95484
757.85338	0.95440
755.79958	0.95419
753.74578	0.95399
751.69197	0.95376
749.63817	0.95385
747.58437	0.95465
745.53056	0.95582
743.47676	0.95645
741.42296	0.95632
739.36916	0.95617
737.31535	0.95619
735.26155	0.95616
733.20775	0.95661
731.15394	0.95709
729.10014	0.95668
727.04634	0.95551
724.99253	0.95432
722.93873	0.95333
720.88493	0.95180
718.83112	0.94887
716.77732	0.94437
714.72352	0.93961
712.66971	0.93689
710.61591	0.93709
708.56211	0.93873
706.50830	0.94076
704.45450	0.94291
702.40070	0.94378
700.34689	0.94309
698.29309	0.94278
696.23929	0.94392
694.18548	0.94524
692.13168	0.94558
690.07788	0.94570
688.02408	0.94624
685.97027	0.94660
683.91647	0.94656
681.86267	0.94647
679.80886	0.94595
677.75506	0.94535
675.70126	0.94557
673.64745	0.94602
671.59365	0.94629
669.53985	0.94694
667.48604	0.94739
665.43224	0.94676
663.37844	0.94594
661.32463	0.94548
659.27083	0.94509
657.21703	0.94375
655.16322	0.94237
653.10942	0.94254
651.05562	0.94346
649.00181	0.94388
646.94801	0.94382
644.89421	0.94395
642.84040	0.94464
640.78660	0.94532
638.73280	0.94528
636.67899	0.94454
634.62519	0.94402
632.57139	0.94419
630.51759	0.94416
628.46378	0.94403
626.40998	0.94435
624.35618	0.94405
622.30237	0.94285
620.24857	0.94187
618.19477	0.94155
616.14096	0.94208
614.08716	0.94304
612.03336	0.94298
609.97955	0.94205
607.92575	0.94194
605.87195	0.94244
603.81814	0.94172
601.76434	0.94080
599.71054	0.94133
597.65673	0.94123
595.60293	0.93971
593.54913	0.93946
591.49532	0.94084
589.44152	0.94095
587.38772	0.93921
585.33391	0.93751
583.28011	0.93676
581.22631	0.93750
579.17250	0.93932
577.11870	0.94077
575.06490	0.94096
573.01110	0.93990
570.95729	0.93907
568.90349	0.93918
566.84969	0.93894
564.79588	0.93826
562.74208	0.93914
560.68828	0.94124
558.63447	0.94205
556.58067	0.94117
554.52687	0.94042
552.47306	0.94051
550.41926	0.94016
548.36546	0.93951
546.31165	0.93942
544.25785	0.93943
542.20405	0.93845
540.15024	0.93676
538.09644	0.93677
536.04264	0.93789
533.98883	0.93728
531.93503	0.93545
529.88123	0.93571
527.82742	0.93911
525.77362	0.94141
523.71982	0.94026
521.66602	0.93888
519.61221	0.93874
517.55841	0.93819
515.50461	0.93799
513.45080	0.94044
511.39700	0.94306
509.34320	0.94336
507.28939	0.94255
505.23559	0.94167
503.18179	0.94039
501.12798	0.93892
499.07418	0.93872
497.02038	0.94011
494.96657	0.94190
492.91277	0.94347
490.85897	0.94428
488.80516	0.94393
486.75136	0.94354
484.69756	0.94161
482.64375	0.93803
480.58995	0.93651
478.53615	0.93655
476.48234	0.93712
474.42854	0.93756
472.37474	0.93675
470.32093	0.93596
468.26713	0.93576
466.21333	0.93520
464.15953	0.93514
462.10572	0.93650
460.05192	0.93687
457.99812	0.93663
455.94431	0.93830
453.89051	0.93910
451.83671	0.93769
449.78290	0.93811
447.72910	0.94208
445.67530	0.94464
443.62149	0.94323
441.56769	0.94211
439.51389	0.94151
437.46008	0.93728
435.40628	0.93393
433.35248	0.93614
431.29867	0.93773
429.24487	0.93702
427.19107	0.93672
425.13726	0.93680
423.08346	0.93707
421.02966	0.93673
418.97585	0.93691
416.92205	0.93763
414.86825	0.93871
412.81445	0.94131
410.76064	0.94169
408.70684	0.93835
406.65304	0.93627
404.59923	0.93666
402.54543	0.93795
400.49163	0.94176
398.43782	0.94435
