3996.70104	0.97102
3994.64724	0.97084
3992.59344	0.97050
3990.53964	0.97028
3988.48583	0.97086
3986.43203	0.97177
3984.37823	0.97232
3982.32442	0.97239
3980.27062	0.97162
3978.21682	0.97052
3976.16301	0.97047
3974.10921	0.97137
3972.05541	0.97223
3970.00160	0.97243
3967.94780	0.97212
3965.89400	0.97213
3963.84019	0.97229
3961.78639	0.97190
3959.73259	0.97135
3957.67878	0.97129
3955.62498	0.97145
3953.57118	0.97151
3951.51737	0.97158
3949.46357	0.97164
3947.40977	0.97189
3945.35596	0.97200
3943.30216	0.97158
3941.24836	0.97147
3939.19455	0.97166
3937.14075	0.97160
3935.08695	0.97170
3933.03315	0.97207
3930.97934	0.97204
3928.92554	0.97152
3926.87174	0.97132
3924.81793	0.97181
3922.76413	0.97236
3920.71033	0.97236
3918.65652	0.97218
3916.60272	0.97196
3914.54892	0.97140
3912.49511	0.97108
3910.44131	0.97131
3908.38751	0.97177
3906.33370	0.97205
3904.27990	0.97169
3902.22610	0.97158
3900.17229	0.97199
3898.11849	0.97162
3896.06469	0.97116
3894.01088	0.97136
3891.95708	0.97164
3889.90328	0.97179
3887.84947	0.97204
3885.79567	0.97220
3883.74187	0.97197
3881.68807	0.97156
3879.63426	0.97168
3877.58046	0.97180
3875.52666	0.97122
3873.47285	0.97090
3871.41905	0.97126
3869.36525	0.97160
3867.31144	0.97175
3865.25764	0.97198
3863.20384	0.97240
3861.15003	0.97248
3859.09623	0.97236
3857.04243	0.97233
3854.98862	0.97223
3852.93482	0.97245
3850.88102	0.97264
3848.82721	0.97236
3846.77341	0.97211
3844.71961	0.97191
3842.66580	0.97159
3840.61200	0.97160
3838.55820	0.97189
3836.50439	0.97153
3834.45059	0.97091
3832.39679	0.97067
3830.34298	0.97099
3828.28918	0.97159
3826.23538	0.97219
3824.18158	0.97269
3822.12777	0.97266
3820.07397	0.97276
3818.02017	0.97391
3815.96636	0.97426
3813.91256	0.97275
3811.85876	0.97185
3809.80495	0.97224
3807.75115	0.97232
3805.69735	0.97151
3803.64354	0.97124
3801.58974	0.97184
3799.53594	0.97222
3797.48213	0.97254
3795.42833	0.97308
3793.37453	0.97280
3791.32072	0.97216
3789.26692	0.97209
3787.21312	0.97225
3785.15931	0.97230
3783.10551	0.97224
3781.05171	0.97212
3778.99790	0.97246
3776.94410	0.97335
3774.89030	0.97343
3772.83650	0.97241
3770.78269	0.97154
3768.72889	0.97158
3766.67509	0.97209
3764.62128	0.97259
3762.56748	0.97277
3760.51368	0.97255
3758.45987	0.97208
3756.40607	0.97192
3754.35227	0.97190
3752.29846	0.97110
3750.24466	0.97050
3748.19086	0.97158
3746.13705	0.97266
3744.08325	0.97287
3742.02945	0.97279
3739.97564	0.97227
3737.92184	0.97108
3735.86804	0.97032
3733.81423	0.97082
3731.76043	0.97158
3729.70663	0.97224
3727.65282	0.97259
3725.59902	0.97240
3723.54522	0.97238
3721.49141	0.97270
3719.43761	0.97264
3717.38381	0.97244
3715.33001	0.97245
3713.27620	0.97246
3711.22240	0.97215
3709.16860	0.97163
3707.11479	0.97151
3705.06099	0.97175
3703.00719	0.97198
3700.95338	0.97216
3698.89958	0.97202
3696.84578	0.97196
3694.79197	0.97250
3692.73817	0.97280
3690.68437	0.97238
3688.63056	0.97204
3686.57676	0.97219
3684.52296	0.97251
3682.46915	0.97294
3680.41535	0.97318
3678.36155	0.97327
3676.30774	0.97375
3674.25394	0.97384
3672.20014	0.97289
3670.14633	0.97187
3668.09253	0.97175
3666.03873	0.97228
3663.98492	0.97285
3661.93112	0.97291
3659.87732	0.97239
3657.82352	0.97167
3655.76971	0.97083
3653.71591	0.97046
3651.66211	0.97037
3649.60830	0.97007
3647.55450	0.97053
3645.50070	0.97164
3643.44689	0.97227
3641.39309	0.97223
3639.33929	0.97211
3637.28548	0.97219
3635.23168	0.97200
3633.17788	0.97145
3631.12407	0.97107
3629.07027	0.97123
3627.01647	0.97114
3624.96266	0.97076
3622.90886	0.97058
3620.85506	0.97014
3618.80125	0.96957
3616.74745	0.96982
3614.69365	0.97065
3612.63984	0.97107
3610.58604	0.97054
3608.53224	0.96995
3606.47844	0.97022
3604.42463	0.97082
3602.37083	0.97099
3600.31703	0.97068
3598.26322	0.97045
3596.20942	0.97015
3594.15562	0.96963
3592.10181	0.96965
3590.04801	0.96991
3587.99421	0.96935
3585.94040	0.96830
3583.88660	0.96799
3581.83280	0.96821
3579.77899	0.96815
3577.72519	0.96750
3575.67139	0.96692
3573.61758	0.96684
3571.56378	0.96722
3569.50998	0.96770
3567.45617	0.96679
3565.40237	0.96518
3563.34857	0.96489
3561.29476	0.96506
3559.24096	0.96505
3557.18716	0.96495
3555.13335	0.96479
3553.07955	0.96470
3551.02575	0.96476
3548.97195	0.96466
3546.91814	0.96419
3544.86434	0.96362
3542.81054	0.96346
3540.75673	0.96379
3538.70293	0.96398
3536.64913	0.96375
3534.59532	0.96361
3532.54152	0.96367
3530.48772	0.96368
3528.43391	0.96364
3526.38011	0.96329
3524.32631	0.96229
3522.27250	0.96166
3520.21870	0.96209
3518.16490	0.96254
3516.11109	0.96274
3514.05729	0.96296
3512.00349	0.96289
3509.94968	0.96267
3507.89588	0.96299
3505.84208	0.96360
3503.78827	0.96342
3501.73447	0.96272
3499.68067	0.96231
3497.62687	0.96223
3495.57306	0.96235
3493.51926	0.96210
3491.46546	0.96150
3489.41165	0.96130
3487.35785	0.96165
3485.30405	0.96209
3483.25024	0.96223
3481.19644	0.96186
3479.14264	0.96120
3477.08883	0.96100
3475.03503	0.96114
3472.98123	0.96100
3470.92742	0.96068
3468.87362	0.96045
3466.81982	0.96040
3464.76601	0.96062
3462.71221	0.96092
3460.65841	0.96096
3458.60460	0.96073
3456.55080	0.96064
3454.49700	0.96071
3452.44319	0.96040
3450.38939	0.95970
3448.33559	0.95930
3446.28178	0.95947
3444.22798	0.95980
3442.17418	0.95989
3440.12038	0.95973
3438.06657	0.95980
3436.01277	0.96015
3433.95897	0.96022
3431.90516	0.95991
3429.85136	0.95939
3427.79756	0.95903
3425.74375	0.95904
3423.68995	0.95899
3421.63615	0.95860
3419.58234	0.95810
3417.52854	0.95782
3415.47474	0.95784
3413.42093	0.95801
3411.36713	0.95776
3409.31333	0.95726
3407.25952	0.95752
3405.20572	0.95809
3403.15192	0.95791
3401.09811	0.95751
3399.04431	0.95747
3396.99051	0.95763
3394.93670	0.95786
3392.88290	0.95785
3390.82910	0.95767
3388.77529	0.95766
3386.72149	0.95749
3384.66769	0.95708
3382.61389	0.95701
3380.56008	0.95736
3378.50628	0.95769
3376.45248	0.95785
3374.39867	0.95822
3372.34487	0.95868
3370.29107	0.95874
3368.23726	0.95839
3366.18346	0.95800
3364.12966	0.95806
3362.07585	0.95839
3360.02205	0.95836
3357.96825	0.95782
3355.91444	0.95746
3353.86064	0.95779
3351.80684	0.95786
3349.75303	0.95731
3347.69923	0.95708
3345.64543	0.95746
3343.59162	0.95764
3341.53782	0.95740
3339.48402	0.95740
3337.43021	0.95761
3335.37641	0.95787
3333.32261	0.95830
3331.26881	0.95858
3329.21500	0.95836
3327.16120	0.95788
3325.10740	0.95741
3323.05359	0.95685
3320.99979	0.95645
3318.94599	0.95676
3316.89218	0.95713
3314.83838	0.95683
3312.78458	0.95644
3310.73077	0.95666
3308.67697	0.95725
3306.62317	0.95752
3304.56936	0.95756
3302.51556	0.95763
3300.46176	0.95736
3298.40795	0.95696
3296.35415	0.95708
3294.30035	0.95771
3292.24654	0.95813
3290.19274	0.95815
3288.13894	0.95816
3286.08513	0.95807
3284.03133	0.95807
3281.97753	0.95844
3279.92372	0.95880
3277.86992	0.95863
3275.81612	0.95790
3273.76232	0.95743
3271.70851	0.95756
3269.65471	0.95788
3267.60091	0.95795
3265.54710	0.95763
3263.49330	0.95735
3261.43950	0.95742
3259.38569	0.95755
3257.33189	0.95793
3255.27809	0.95847
3253.22428	0.95861
3251.17048	0.95854
3249.11668	0.95845
3247.06287	0.95846
3245.00907	0.95852
3242.95527	0.95823
3240.90146	0.95781
3238.84766	0.95744
3236.79386	0.95721
3234.74005	0.95762
3232.68625	0.95825
3230.63245	0.95850
3228.57864	0.95847
3226.52484	0.95849
3224.47104	0.95881
3222.41724	0.95904
3220.36343	0.95868
3218.30963	0.95835
3216.25583	0.95840
3214.20202	0.95852
3212.14822	0.95839
3210.09442	0.95816
3208.04061	0.95835
3205.98681	0.95907
3203.93301	0.95977
3201.87920	0.95967
3199.82540	0.95886
3197.77160	0.95844
3195.71779	0.95901
3193.66399	0.95976
3191.61019	0.95967
3189.55638	0.95908
3187.50258	0.95889
3185.44878	0.95918
3183.39497	0.95963
3181.34117	0.95949
3179.28737	0.95873
3177.23356	0.95832
3175.17976	0.95868
3173.12596	0.95938
3171.07215	0.95984
3169.01835	0.95987
3166.96455	0.95975
3164.91075	0.95976
3162.85694	0.95959
3160.80314	0.95918
3158.74934	0.95889
3156.69553	0.95902
3154.64173	0.95995
3152.58793	0.96111
3150.53412	0.96170
3148.48032	0.96186
3146.42652	0.96169
3144.37271	0.96127
3142.31891	0.96085
3140.26511	0.96074
3138.21130	0.96088
3136.15750	0.96081
3134.10370	0.96081
3132.04989	0.96120
3129.99609	0.96152
3127.94229	0.96130
3125.88848	0.96099
3123.83468	0.96119
3121.78088	0.96157
3119.72707	0.96153
3117.67327	0.96132
3115.61947	0.96140
3113.56566	0.96152
3111.51186	0.96167
3109.45806	0.96204
3107.40426	0.96207
3105.35045	0.96162
3103.29665	0.96137
3101.24285	0.96158
3099.18904	0.96189
3097.13524	0.96205
3095.08144	0.96231
3093.02763	0.96281
3090.97383	0.96291
3088.92003	0.96222
3086.86622	0.96165
3084.81242	0.96177
3082.75862	0.96187
3080.70481	0.96178
3078.65101	0.96194
3076.59721	0.96216
3074.54340	0.96228
3072.48960	0.96238
3070.43580	0.96254
3068.38199	0.96290
3066.32819	0.96324
3064.27439	0.96332
3062.22058	0.96329
3060.16678	0.96307
3058.11298	0.96271
3056.05918	0.96279
3054.00537	0.96328
3051.95157	0.96351
3049.89777	0.96330
3047.84396	0.96285
3045.79016	0.96262
3043.73636	0.96304
3041.68255	0.96370
3039.62875	0.96395
3037.57495	0.96405
3035.52114	0.96444
3033.46734	0.96481
3031.41354	0.96471
3029.35973	0.96423
3027.30593	0.96373
3025.25213	0.96360
3023.19832	0.96387
3021.14452	0.96397
3019.09072	0.96374
3017.03691	0.96358
3014.98311	0.96330
3012.92931	0.96298
3010.87550	0.96325
3008.82170	0.96402
3006.76790	0.96446
3004.71409	0.96422
3002.66029	0.96390
3000.60649	0.96383
2998.55269	0.96352
2996.49888	0.96330
2994.44508	0.96369
2992.39128	0.96409
2990.33747	0.96432
2988.28367	0.96426
2986.22987	0.96378
2984.17606	0.96377
2982.12226	0.96427
2980.06846	0.96426
2978.01465	0.96369
2975.96085	0.96330
2973.90705	0.96348
2971.85324	0.96400
2969.79944	0.96445
2967.74564	0.96479
2965.69183	0.96500
2963.63803	0.96498
2961.58423	0.96494
2959.53042	0.96506
2957.47662	0.96523
2955.42282	0.96512
2953.36901	0.96498
2951.31521	0.96530
2949.26141	0.96570
2947.20761	0.96593
2945.15380	0.96605
2943.10000	0.96584
2941.04620	0.96581
2938.99239	0.96622
2936.93859	0.96674
2934.88479	0.96735
2932.83098	0.96791
2930.77718	0.96856
2928.72338	0.96947
2926.66957	0.97017
2924.61577	0.97037
2922.56197	0.97034
2920.50816	0.97032
2918.45436	0.96991
2916.40056	0.96893
2914.34675	0.96793
2912.29295	0.96726
2910.23915	0.96692
2908.18534	0.96679
2906.13154	0.96676
2904.07774	0.96684
2902.02393	0.96686
2899.97013	0.96670
2897.91633	0.96642
2895.86252	0.96609
2893.80872	0.96586
2891.75492	0.96573
2889.70112	0.96537
2887.64731	0.96479
2885.59351	0.96472
2883.53971	0.96529
2881.48590	0.96572
2879.43210	0.96588
2877.37830	0.96589
2875.32449	0.96558
2873.27069	0.96517
2871.21689	0.96522
2869.16308	0.96590
2867.10928	0.96650
2865.05548	0.96659
2863.00167	0.96668
2860.94787	0.96701
2858.89407	0.96750
2856.84026	0.96814
2854.78646	0.96871
2852.73266	0.96881
2850.67885	0.96832
2848.62505	0.96775
2846.57125	0.96761
2844.51744	0.96778
2842.46364	0.96777
2840.40984	0.96757
2838.35603	0.96747
2836.30223	0.96745
2834.24843	0.96753
2832.19463	0.96777
2830.14082	0.96790
2828.08702	0.96780
2826.03322	0.96766
2823.97941	0.96779
2821.92561	0.96819
2819.87181	0.96834
2817.81800	0.96826
2815.76420	0.96844
2813.71040	0.96852
2811.65659	0.96832
2809.60279	0.96839
2807.54899	0.96865
2805.49518	0.96860
2803.44138	0.96841
2801.38758	0.96835
2799.33377	0.96857
2797.27997	0.96895
2795.22617	0.96904
2793.17236	0.96879
2791.11856	0.96856
2789.06476	0.96860
2787.01095	0.96885
2784.95715	0.96915
2782.90335	0.96940
2780.84955	0.96946
2778.79574	0.96935
2776.74194	0.96926
2774.68814	0.96938
2772.63433	0.96950
2770.58053	0.96950
2768.52673	0.96953
2766.47292	0.96961
2764.41912	0.96995
2762.36532	0.97048
2760.31151	0.97063
2758.25771	0.97042
2756.20391	0.97027
2754.15010	0.97024
2752.09630	0.97029
2750.04250	0.97058
2747.98869	0.97101
2745.93489	0.97115
2743.88109	0.97106
2741.82728	0.97103
2739.77348	0.97093
2737.71968	0.97090
2735.66587	0.97110
2733.61207	0.97101
2731.55827	0.97061
2729.50446	0.97041
2727.45066	0.97033
2725.39686	0.97034
2723.34306	0.97063
2721.28925	0.97109
2719.23545	0.97138
2717.18165	0.97127
2715.12784	0.97106
2713.07404	0.97101
2711.02024	0.97084
2708.96643	0.97065
2706.91263	0.97079
2704.85883	0.97104
2702.80502	0.97101
2700.75122	0.97097
2698.69742	0.97127
2696.64361	0.97161
2694.58981	0.97165
2692.53601	0.97156
2690.48220	0.97185
2688.42840	0.97239
2686.37460	0.97257
2684.32079	0.97247
2682.26699	0.97237
2680.21319	0.97209
2678.15938	0.97174
2676.10558	0.97167
2674.05178	0.97190
2671.99797	0.97222
2669.94417	0.97237
2667.89037	0.97220
2665.83657	0.97193
2663.78276	0.97172
2661.72896	0.97155
2659.67516	0.97134
2657.62135	0.97108
2655.56755	0.97096
2653.51375	0.97118
2651.45994	0.97154
2649.40614	0.97154
2647.35234	0.97131
2645.29853	0.97135
2643.24473	0.97169
2641.19093	0.97171
2639.13712	0.97132
2637.08332	0.97128
2635.02952	0.97155
2632.97571	0.97143
2630.92191	0.97115
2628.86811	0.97115
2626.81430	0.97114
2624.76050	0.97114
2622.70670	0.97119
2620.65289	0.97097
2618.59909	0.97062
2616.54529	0.97042
2614.49149	0.97040
2612.43768	0.97052
2610.38388	0.97050
2608.33008	0.97048
2606.27627	0.97082
2604.22247	0.97126
2602.16867	0.97122
2600.11486	0.97067
2598.06106	0.97019
2596.00726	0.97004
2593.95345	0.97041
2591.89965	0.97126
2589.84585	0.97157
2587.79204	0.97083
2585.73824	0.97016
2583.68444	0.97030
2581.63063	0.97059
2579.57683	0.97081
2577.52303	0.97075
2575.46922	0.96991
2573.41542	0.96945
2571.36162	0.97013
2569.30781	0.97068
2567.25401	0.97061
2565.20021	0.97057
2563.14640	0.97079
2561.09260	0.97108
2559.03880	0.97102
2556.98500	0.97070
2554.93119	0.97048
2552.87739	0.97022
2550.82359	0.97020
2548.76978	0.97034
2546.71598	0.97022
2544.66218	0.97015
2542.60837	0.96992
2540.55457	0.96911
2538.50077	0.96814
2536.44696	0.96758
2534.39316	0.96754
2532.33936	0.96764
2530.28555	0.96736
2528.23175	0.96688
2526.17795	0.96659
2524.12414	0.96612
2522.07034	0.96560
2520.01654	0.96524
2517.96273	0.96456
2515.90893	0.96363
2513.85513	0.96321
2511.80132	0.96392
2509.74752	0.96508
2507.69372	0.96547
2505.63992	0.96561
2503.58611	0.96615
2501.53231	0.96658
2499.47851	0.96653
2497.42470	0.96632
2495.37090	0.96655
2493.31710	0.96744
2491.26329	0.96831
2489.20949	0.96848
2487.15569	0.96868
2485.10188	0.96964
2483.04808	0.97107
2480.99428	0.97211
2478.94047	0.97208
2476.88667	0.97192
2474.83287	0.97297
2472.77906	0.97441
2470.72526	0.97452
2468.67146	0.97386
2466.61765	0.97377
2464.56385	0.97370
2462.51005	0.97305
2460.45624	0.97251
2458.40244	0.97253
2456.34864	0.97297
2454.29483	0.97346
2452.24103	0.97355
2450.18723	0.97376
2448.13343	0.97431
2446.07962	0.97458
2444.02582	0.97453
2441.97202	0.97454
2439.91821	0.97477
2437.86441	0.97500
2435.81061	0.97476
2433.75680	0.97442
2431.70300	0.97467
2429.64920	0.97553
2427.59539	0.97631
2425.54159	0.97595
2423.48779	0.97521
2421.43398	0.97571
2419.38018	0.97650
2417.32638	0.97630
2415.27257	0.97574
2413.21877	0.97564
2411.16497	0.97583
2409.11116	0.97597
2407.05736	0.97591
2405.00356	0.97603
2402.94975	0.97673
2400.89595	0.97714
2398.84215	0.97684
2396.78834	0.97683
2394.73454	0.97756
2392.68074	0.97788
2390.62694	0.97701
2388.57313	0.97589
2386.51933	0.97568
2384.46553	0.97658
2382.41172	0.97744
2380.35792	0.97710
2378.30412	0.97635
2376.25031	0.97637
2374.19651	0.97635
2372.14271	0.97571
2370.08890	0.97528
2368.03510	0.97526
2365.98130	0.97564
2363.92749	0.97560
2361.87369	0.97400
2359.81989	0.97273
2357.76608	0.97313
2355.71228	0.97346
2353.65848	0.97381
2351.60467	0.97502
2349.55087	0.97543
2347.49707	0.97497
2345.44326	0.97510
2343.38946	0.97523
2341.33566	0.97433
2339.28186	0.97371
2337.22805	0.97359
2335.17425	0.97361
2333.12045	0.97398
2331.06664	0.97437
2329.01284	0.97483
2326.95904	0.97496
2324.90523	0.97403
2322.85143	0.97309
2320.79763	0.97279
2318.74382	0.97252
2316.69002	0.97290
2314.63622	0.97398
2312.58241	0.97483
2310.52861	0.97536
2308.47481	0.97564
2306.42100	0.97570
2304.36720	0.97598
2302.31340	0.97641
2300.25959	0.97626
2298.20579	0.97539
2296.15199	0.97487
2294.09818	0.97530
2292.04438	0.97573
2289.99058	0.97575
2287.93677	0.97624
2285.88297	0.97684
2283.82917	0.97658
2281.77537	0.97619
2279.72156	0.97634
2277.66776	0.97617
2275.61396	0.97544
2273.56015	0.97471
2271.50635	0.97473
2269.45255	0.97583
2267.39874	0.97670
2265.34494	0.97757
2263.29114	0.97882
2261.23733	0.97873
2259.18353	0.97754
2257.12973	0.97664
2255.07592	0.97618
2253.02212	0.97563
2250.96832	0.97552
2248.91451	0.97712
2246.86071	0.97895
2244.80691	0.97911
2242.75310	0.97884
2240.69930	0.97940
2238.64550	0.98002
2236.59169	0.97960
2234.53789	0.97813
2232.48409	0.97721
2230.43029	0.97801
2228.37648	0.97845
2226.32268	0.97747
2224.26888	0.97732
2222.21507	0.97770
2220.16127	0.97639
2218.10747	0.97452
2216.05366	0.97437
2213.99986	0.97578
2211.94606	0.97787
2209.89225	0.98023
2207.83845	0.98155
2205.78465	0.98132
2203.73084	0.98089
2201.67704	0.98173
2199.62324	0.98332
2197.56943	0.98311
2195.51563	0.98103
2193.46183	0.98004
2191.40802	0.97993
2189.35422	0.97803
2187.30042	0.97548
2185.24661	0.97486
2183.19281	0.97530
2181.13901	0.97504
2179.08520	0.97569
2177.03140	0.97860
2174.97760	0.98162
2172.92380	0.98318
2170.86999	0.98319
2168.81619	0.98232
2166.76239	0.98203
2164.70858	0.98270
2162.65478	0.98174
2160.60098	0.97997
2158.54717	0.98213
2156.49337	0.98508
2154.43957	0.98503
2152.38576	0.98384
2150.33196	0.98299
2148.27816	0.98283
2146.22435	0.98329
2144.17055	0.98362
2142.11675	0.98305
2140.06294	0.98176
2138.00914	0.98064
2135.95534	0.98043
2133.90153	0.98073
2131.84773	0.98028
2129.79393	0.97992
2127.74012	0.98126
2125.68632	0.98209
2123.63252	0.98034
2121.57871	0.97829
2119.52491	0.97843
2117.47111	0.98005
2115.41731	0.98144
2113.36350	0.98180
2111.30970	0.98089
2109.25590	0.98005
2107.20209	0.98024
2105.14829	0.98033
2103.09449	0.98027
2101.04068	0.98068
2098.98688	0.98069
2096.93308	0.98069
2094.87927	0.98175
2092.82547	0.98217
2090.77167	0.98070
2088.71786	0.97904
2086.66406	0.97867
2084.61026	0.97921
2082.55645	0.98013
2080.50265	0.98040
2078.44885	0.97966
2076.39504	0.97973
2074.34124	0.98044
2072.28744	0.98054
2070.23363	0.98054
2068.17983	0.98051
2066.12603	0.98080
2064.07223	0.98180
2062.01842	0.98247
2059.96462	0.98278
2057.91082	0.98286
2055.85701	0.98254
2053.80321	0.98251
2051.74941	0.98263
2049.69560	0.98265
2047.64180	0.98243
2045.58800	0.98158
2043.53419	0.98100
2041.48039	0.98116
2039.42659	0.98201
2037.37278	0.98336
2035.31898	0.98540
2033.26518	0.98723
2031.21137	0.98612
2029.15757	0.98279
2027.10377	0.98102
2025.04996	0.98244
2022.99616	0.98451
2020.94236	0.98401
2018.88855	0.98228
2016.83475	0.98185
2014.78095	0.98253
2012.72714	0.98263
2010.67334	0.98289
2008.61954	0.98435
2006.56574	0.98454
2004.51193	0.98331
2002.45813	0.98367
2000.40433	0.98610
1998.35052	0.98762
1996.29672	0.98545
1994.24292	0.98240
1992.18911	0.98234
1990.13531	0.98286
1988.08151	0.98173
1986.02770	0.98103
1983.97390	0.98008
1981.92010	0.97740
1979.86629	0.97659
1977.81249	0.97992
1975.75869	0.98360
1973.70488	0.98459
1971.65108	0.98380
1969.59728	0.98405
1967.54347	0.98626
1965.48967	0.98811
1963.43587	0.98858
1961.38206	0.98871
1959.32826	0.98991
1957.27446	0.99186
1955.22066	0.99125
1953.16685	0.98817
1951.11305	0.98627
1949.05925	0.98529
1947.00544	0.98412
1944.95164	0.98368
1942.89784	0.98452
1940.84403	0.98643
1938.79023	0.98808
1936.73643	0.98781
1934.68262	0.98604
1932.62882	0.98511
1930.57502	0.98519
1928.52121	0.98509
1926.46741	0.98548
1924.41361	0.98638
1922.35980	0.98690
1920.30600	0.98726
1918.25220	0.98691
1916.19839	0.98557
1914.14459	0.98473
1912.09079	0.98465
1910.03698	0.98476
1907.98318	0.98477
1905.92938	0.98482
1903.87557	0.98578
1901.82177	0.98701
1899.76797	0.98715
1897.71417	0.98684
1895.66036	0.98699
1893.60656	0.98747
1891.55276	0.98780
1889.49895	0.98776
1887.44515	0.98720
1885.39135	0.98659
1883.33754	0.98702
1881.28374	0.98824
1879.22994	0.98905
1877.17613	0.98875
1875.12233	0.98785
1873.06853	0.98758
1871.01472	0.98734
1868.96092	0.98635
1866.90712	0.98638
1864.85331	0.98757
1862.79951	0.98795
1860.74571	0.98720
1858.69190	0.98631
1856.63810	0.98592
1854.58430	0.98622
1852.53049	0.98693
1850.47669	0.98711
1848.42289	0.98649
1846.36908	0.98620
1844.31528	0.98704
1842.26148	0.98796
1840.20768	0.98805
1838.15387	0.98779
1836.10007	0.98761
1834.04627	0.98729
1831.99246	0.98712
1829.93866	0.98736
1827.88486	0.98708
1825.83105	0.98613
1823.77725	0.98564
1821.72345	0.98626
1819.66964	0.98699
1817.61584	0.98675
1815.56204	0.98575
1813.50823	0.98460
1811.45443	0.98320
1809.40063	0.98146
1807.34682	0.97975
1805.29302	0.97805
1803.23922	0.97624
1801.18541	0.97454
1799.13161	0.97345
1797.07781	0.97285
1795.02400	0.97237
1792.97020	0.97268
1790.91640	0.97464
1788.86260	0.97706
1786.80879	0.97879
1784.75499	0.97994
1782.70119	0.98105
1780.64738	0.98193
1778.59358	0.98262
1776.53978	0.98354
1774.48597	0.98412
1772.43217	0.98384
1770.37837	0.98345
1768.32456	0.98394
1766.27076	0.98506
1764.21696	0.98601
1762.16315	0.98629
1760.10935	0.98593
1758.05555	0.98588
1756.00174	0.98655
1753.94794	0.98709
1751.89414	0.98748
1749.84033	0.98796
1747.78653	0.98800
1745.73273	0.98796
1743.67892	0.98826
1741.62512	0.98865
1739.57132	0.98894
1737.51751	0.98899
1735.46371	0.98881
1733.40991	0.98822
1731.35611	0.98748
1729.30230	0.98722
1727.24850	0.98704
1725.19470	0.98656
1723.14089	0.98624
1721.08709	0.98629
1719.03329	0.98618
1716.97948	0.98592
1714.92568	0.98612
1712.87188	0.98649
1710.81807	0.98680
1708.76427	0.98678
1706.71047	0.98624
1704.65666	0.98549
1702.60286	0.98483
1700.54906	0.98430
1698.49525	0.98411
1696.44145	0.98406
1694.38765	0.98404
1692.33384	0.98392
1690.28004	0.98368
1688.22624	0.98352
1686.17243	0.98321
1684.11863	0.98235
1682.06483	0.98210
1680.01103	0.98250
1677.95722	0.98256
1675.90342	0.98220
1673.84962	0.98170
1671.79581	0.98148
1669.74201	0.98157
1667.68821	0.98150
1665.63440	0.98132
1663.58060	0.98133
1661.52680	0.98130
1659.47299	0.98118
1657.41919	0.98121
1655.36539	0.98114
1653.31158	0.98031
1651.25778	0.97935
1649.20398	0.97910
1647.15017	0.97886
1645.09637	0.97899
1643.04257	0.97947
1640.98876	0.97944
1638.93496	0.97882
1636.88116	0.97797
1634.82735	0.97761
1632.77355	0.97800
1630.71975	0.97849
1628.66594	0.97872
1626.61214	0.97858
1624.55834	0.97828
1622.50454	0.97812
1620.45073	0.97796
1618.39693	0.97767
1616.34313	0.97768
1614.28932	0.97803
1612.23552	0.97811
1610.18172	0.97789
1608.12791	0.97775
1606.07411	0.97760
1604.02031	0.97712
1601.96650	0.97647
1599.91270	0.97603
1597.85890	0.97569
1595.80509	0.97502
1593.75129	0.97414
1591.69749	0.97339
1589.64368	0.97277
1587.58988	0.97215
1585.53608	0.97153
1583.48227	0.97077
1581.42847	0.97008
1579.37467	0.96949
1577.32086	0.96867
1575.26706	0.96749
1573.21326	0.96659
1571.15945	0.96554
1569.10565	0.96381
1567.05185	0.96210
1564.99805	0.96022
1562.94424	0.95800
1560.89044	0.95515
1558.83664	0.94926
1556.78283	0.94254
1554.72903	0.93709
1552.67523	0.93057
1550.62142	0.92314
1548.56762	0.91544
1546.51382	0.90839
1544.46001	0.90115
1542.40621	0.89347
1540.35241	0.88407
1538.29860	0.87537
1536.24480	0.87035
1534.19100	0.86419
1532.13719	0.85638
1530.08339	0.85062
1528.02959	0.84533
1525.97578	0.83866
1523.92198	0.83212
1521.86818	0.82481
1519.81437	0.81737
1517.76057	0.81114
1515.70677	0.80472
1513.65297	0.79915
1511.59916	0.79423
1509.54536	0.78893
1507.49156	0.78093
1505.43775	0.77175
1503.38395	0.76691
1501.33015	0.76272
1499.27634	0.75697
1497.22254	0.74960
1495.16874	0.74239
1493.11493	0.73719
1491.06113	0.73161
1489.00733	0.72358
1486.95352	0.71582
1484.89972	0.70974
1482.84592	0.70397
1480.79211	0.69756
1478.73831	0.69116
1476.68451	0.68486
1474.63070	0.67807
1472.57690	0.66970
1470.52310	0.66172
1468.46929	0.65606
1466.41549	0.65000
1464.36169	0.64209
1462.30788	0.63496
1460.25408	0.62919
1458.20028	0.62120
1456.14648	0.61044
1454.09267	0.60323
1452.03887	0.59823
1449.98507	0.59303
1447.93126	0.58717
1445.87746	0.58143
1443.82366	0.57644
1441.76985	0.57154
1439.71605	0.56661
1437.66225	0.56052
1435.60844	0.55287
1433.55464	0.54676
1431.50084	0.54093
1429.44703	0.53369
1427.39323	0.52651
1425.33943	0.51940
1423.28562	0.51160
1421.23182	0.50420
1419.17802	0.49558
1417.12421	0.48626
1415.07041	0.47916
1413.01661	0.47235
1410.96280	0.46505
1408.90900	0.45842
1406.85520	0.45293
1404.80139	0.44803
1402.74759	0.44428
1400.69379	0.44162
1398.63999	0.43949
1396.58618	0.43832
1394.53238	0.43827
1392.47858	0.43915
1390.42477	0.44058
1388.37097	0.44258
1386.31717	0.44551
1384.26336	0.44922
1382.20956	0.45319
1380.15576	0.45766
1378.10195	0.46260
1376.04815	0.46781
1373.99435	0.47333
1371.94054	0.47891
1369.88674	0.48455
1367.83294	0.49060
1365.77913	0.49692
1363.72533	0.50368
1361.67153	0.51066
1359.61772	0.51705
1357.56392	0.52334
1355.51012	0.53015
1353.45631	0.53721
1351.40251	0.54398
1349.34871	0.55063
1347.29491	0.55729
1345.24110	0.56382
1343.18730	0.57014
1341.13350	0.57648
1339.07969	0.58334
1337.02589	0.59028
1334.97209	0.59637
1332.91828	0.60184
1330.86448	0.60743
1328.81068	0.61321
1326.75687	0.61887
1324.70307	0.62434
1322.64927	0.62967
1320.59546	0.63488
1318.54166	0.64004
1316.48786	0.64507
1314.43405	0.65002
1312.38025	0.65511
1310.32645	0.66023
1308.27264	0.66515
1306.21884	0.67009
1304.16504	0.67526
1302.11123	0.68018
1300.05743	0.68456
1298.00363	0.68884
1295.94982	0.69316
1293.89602	0.69735
1291.84222	0.70149
1289.78842	0.70568
1287.73461	0.70982
1285.68081	0.71379
1283.62701	0.71769
1281.57320	0.72163
1279.51940	0.72547
1277.46560	0.72911
1275.41179	0.73267
1273.35799	0.73631
1271.30419	0.73991
1269.25038	0.74324
1267.19658	0.74650
1265.14278	0.74985
1263.08897	0.75304
1261.03517	0.75618
1258.98137	0.75942
1256.92756	0.76237
1254.87376	0.76506
1252.81996	0.76796
1250.76615	0.77095
1248.71235	0.77357
1246.65855	0.77586
1244.60474	0.77818
1242.55094	0.78064
1240.49714	0.78317
1238.44334	0.78581
1236.38953	0.78830
1234.33573	0.79068
1232.28193	0.79336
1230.22812	0.79595
1228.17432	0.79790
1226.12052	0.79982
1224.06671	0.80212
1222.01291	0.80431
1219.95911	0.80622
1217.90530	0.80793
1215.85150	0.80962
1213.79770	0.81137
1211.74389	0.81294
1209.69009	0.81419
1207.63629	0.81524
1205.58248	0.81617
1203.52868	0.81714
1201.47488	0.81812
1199.42107	0.81877
1197.36727	0.81922
1195.31347	0.81961
1193.25966	0.81992
1191.20586	0.82022
1189.15206	0.82034
1187.09825	0.82025
1185.04445	0.82000
1182.99065	0.81956
1180.93685	0.81878
1178.88304	0.81768
1176.82924	0.81669
1174.77544	0.81610
1172.72163	0.81559
1170.66783	0.81477
1168.61403	0.81381
1166.56022	0.81308
1164.50642	0.81257
1162.45262	0.81226
1160.39881	0.81209
1158.34501	0.81203
1156.29121	0.81226
1154.23740	0.81260
1152.18360	0.81277
1150.12980	0.81276
1148.07599	0.81261
1146.02219	0.81240
1143.96839	0.81215
1141.91458	0.81191
1139.86078	0.81191
1137.80698	0.81245
1135.75317	0.81327
1133.69937	0.81407
1131.64557	0.81521
1129.59176	0.81675
1127.53796	0.81814
1125.48416	0.81930
1123.43036	0.82057
1121.37655	0.82185
1119.32275	0.82304
1117.26895	0.82436
1115.21514	0.82600
1113.16134	0.82756
1111.10754	0.82836
1109.05373	0.82904
1106.99993	0.83058
1104.94613	0.83251
1102.89232	0.83414
1100.83852	0.83560
1098.78472	0.83732
1096.73091	0.83889
1094.67711	0.83952
1092.62331	0.83929
1090.56950	0.83814
1088.51570	0.83583
1086.46190	0.83362
1084.40809	0.83300
1082.35429	0.83407
1080.30049	0.83641
1078.24668	0.83914
1076.19288	0.84183
1074.13908	0.84484
1072.08528	0.84803
1070.03147	0.85135
1067.97767	0.85444
1065.92387	0.85660
1063.87006	0.85811
1061.81626	0.85963
1059.76246	0.86135
1057.70865	0.86313
1055.65485	0.86475
1053.60105	0.86632
1051.54724	0.86780
1049.49344	0.86883
1047.43964	0.86953
1045.38583	0.87040
1043.33203	0.87159
1041.27823	0.87282
1039.22442	0.87401
1037.17062	0.87489
1035.11682	0.87526
1033.06301	0.87580
1031.00921	0.87700
1028.95541	0.87851
1026.90160	0.87977
1024.84780	0.88057
1022.79400	0.88100
1020.74019	0.88132
1018.68639	0.88175
1016.63259	0.88228
1014.57879	0.88286
1012.52498	0.88348
1010.47118	0.88417
1008.41738	0.88498
1006.36357	0.88582
1004.30977	0.88652
1002.25597	0.88734
1000.20216	0.88822
998.14836	0.88875
996.09456	0.88929
994.04075	0.89025
991.98695	0.89157
989.93315	0.89280
987.87934	0.89371
985.82554	0.89457
983.77174	0.89557
981.71793	0.89661
979.66413	0.89746
977.61033	0.89809
975.55652	0.89880
973.50272	0.89993
971.44892	0.90129
969.39511	0.90226
967.34131	0.90286
965.28751	0.90383
963.23371	0.90516
961.17990	0.90611
959.12610	0.90680
957.07230	0.90761
955.01849	0.90813
952.96469	0.90811
950.91089	0.90822
948.85708	0.90874
946.80328	0.90917
944.74948	0.90965
942.69567	0.91064
940.64187	0.91201
938.58807	0.91323
936.53426	0.91380
934.48046	0.91382
932.42666	0.91377
930.37285	0.91371
928.31905	0.91412
926.26525	0.91538
924.21144	0.91651
922.15764	0.91692
920.10384	0.91713
918.05003	0.91746
915.99623	0.91810
913.94243	0.91920
911.88862	0.92056
909.83482	0.92153
907.78102	0.92183
905.72722	0.92253
903.67341	0.92396
901.61961	0.92507
899.56581	0.92557
897.51200	0.92597
895.45820	0.92609
893.40440	0.92541
891.35059	0.92235
889.29679	0.90975
887.24299	0.87638
885.18918	0.82241
883.13538	0.76328
881.08158	0.70898
879.02777	0.65764
876.97397	0.60815
874.92017	0.56293
872.86636	0.52908
870.81256	0.52198
868.75876	0.55160
866.70495	0.60593
864.65115	0.66354
862.59735	0.71320
860.54354	0.75291
858.48974	0.78305
856.43594	0.80566
854.38213	0.82291
852.32833	0.83325
850.27453	0.83489
848.22073	0.83482
846.16692	0.84207
844.11312	0.85397
842.05932	0.86383
840.00551	0.87016
837.95171	0.87420
835.89791	0.87782
833.84410	0.88105
831.79030	0.88351
829.73650	0.88566
827.68269	0.88749
825.62889	0.88910
823.57509	0.89088
821.52128	0.89255
819.46748	0.89375
817.41368	0.89518
815.35987	0.89694
813.30607	0.89792
811.25227	0.89807
809.19846	0.89831
807.14466	0.89856
805.09086	0.89837
803.03705	0.89783
800.98325	0.89801
798.92945	0.89911
796.87565	0.89972
794.82184	0.89997
792.76804	0.90120
790.71424	0.90282
788.66043	0.90367
786.60663	0.90403
784.55283	0.90418
782.49902	0.90402
780.44522	0.90382
778.39142	0.90396
776.33761	0.90447
774.28381	0.90531
772.23001	0.90632
770.17620	0.90699
768.12240	0.90758
766.06860	0.90858
764.01479	0.90931
761.96099	0.90926
759.90719	0.90933
757.85338	0.91004
755.79958	0.91066
753.74578	0.91107
751.69197	0.91181
749.63817	0.91301
747.58437	0.91418
745.53056	0.91503
743.47676	0.91570
741.42296	0.91627
739.36916	0.91664
737.31535	0.91671
735.26155	0.91634
733.20775	0.91553
731.15394	0.91407
729.10014	0.91132
727.04634	0.90605
724.99253	0.89641
722.93873	0.88111
720.88493	0.86008
718.83112	0.83589
716.77732	0.81434
714.72352	0.80066
712.66971	0.79741
710.61591	0.80398
708.56211	0.81630
706.50830	0.82935
704.45450	0.84128
702.40070	0.85269
700.34689	0.86258
698.29309	0.86938
696.23929	0.87421
694.18548	0.87890
692.13168	0.88331
690.07788	0.88664
688.02408	0.88858
685.97027	0.88948
683.91647	0.89035
681.86267	0.89205
679.80886	0.89408
677.75506	0.89547
675.70126	0.89587
673.64745	0.89511
671.59365	0.89400
669.53985	0.89433
667.48604	0.89649
665.43224	0.89716
663.37844	0.89720
661.32463	0.89838
659.27083	0.89931
657.21703	0.89928
655.16322	0.89948
653.10942	0.90002
651.05562	0.90061
649.00181	0.90095
646.94801	0.90152
644.89421	0.90228
642.84040	0.90163
640.78660	0.90028
638.73280	0.90008
636.67899	0.90081
634.62519	0.90146
632.57139	0.90128
630.51759	0.89999
628.46378	0.89864
626.40998	0.89842
624.35618	0.89958
622.30237	0.90148
620.24857	0.90260
618.19477	0.90199
616.14096	0.90063
614.08716	0.90004
612.03336	0.90003
609.97955	0.89977
607.92575	0.89947
605.87195	0.90006
603.81814	0.90139
601.76434	0.90280
599.71054	0.90467
597.65673	0.90710
595.60293	0.90939
593.54913	0.91091
591.49532	0.91091
589.44152	0.90922
587.38772	0.90807
585.33391	0.90941
583.28011	0.91164
581.22631	0.91255
579.17250	0.91231
577.11870	0.91275
575.06490	0.91430
573.01110	0.91558
570.95729	0.91547
568.90349	0.91461
566.84969	0.91437
564.79588	0.91445
562.74208	0.91469
560.68828	0.91501
558.63447	0.91468
556.58067	0.91468
554.52687	0.91565
552.47306	0.91618
550.41926	0.91662
548.36546	0.91801
546.31165	0.91796
544.25785	0.91634
542.20405	0.91528
540.15024	0.91480
538.09644	0.91641
536.04264	0.91937
533.98883	0.92043
531.93503	0.92076
529.88123	0.92151
527.82742	0.92116
525.77362	0.92017
523.71982	0.91991
521.66602	0.92009
519.61221	0.92066
517.55841	0.92125
515.50461	0.92122
513.45080	0.92111
511.39700	0.92102
509.34320	0.92059
507.28939	0.91973
505.23559	0.91819
503.18179	0.91652
501.12798	0.91623
499.07418	0.91774
497.02038	0.91952
494.96657	0.91970
492.91277	0.91852
490.85897	0.91788
488.80516	0.91832
486.75136	0.91918
484.69756	0.91889
482.64375	0.91686
480.58995	0.91583
478.53615	0.91628
476.48234	0.91625
474.42854	0.91510
472.37474	0.91344
470.32093	0.91314
468.26713	0.91525
466.21333	0.91752
464.15953	0.91718
462.10572	0.91624
460.05192	0.91623
457.99812	0.91571
455.94431	0.91615
453.89051	0.91700
451.83671	0.91514
449.78290	0.91098
447.72910	0.90764
445.67530	0.90814
443.62149	0.91107
441.56769	0.91000
439.51389	0.90572
437.46008	0.90500
435.40628	0.90700
433.35248	0.90641
431.29867	0.90369
429.24487	0.90005
427.19107	0.89416
425.13726	0.88970
423.08346	0.88977
421.02966	0.88906
418.97585	0.88656
416.92205	0.88597
414.86825	0.88262
412.81445	0.87619
410.76064	0.87099
408.70684	0.86519
406.65304	0.86011
404.59923	0.86295
402.54543	0.86736
400.49163	0.86452
398.43782	0.85627
