3996.70104	0.98555
3994.64724	0.98570
3992.59344	0.98541
3990.53964	0.98462
3988.48583	0.98409
3986.43203	0.98401
3984.37823	0.98416
3982.32442	0.98460
3980.27062	0.98498
3978.21682	0.98501
3976.16301	0.98517
3974.10921	0.98525
3972.05541	0.98490
3970.00160	0.98488
3967.94780	0.98523
3965.89400	0.98549
3963.84019	0.98550
3961.78639	0.98537
3959.73259	0.98534
3957.67878	0.98532
3955.62498	0.98530
3953.57118	0.98548
3951.51737	0.98581
3949.46357	0.98573
3947.40977	0.98540
3945.35596	0.98538
3943.30216	0.98536
3941.24836	0.98513
3939.19455	0.98512
3937.14075	0.98533
3935.08695	0.98564
3933.03315	0.98616
3930.97934	0.98672
3928.92554	0.98711
3926.87174	0.98721
3924.81793	0.98672
3922.76413	0.98592
3920.71033	0.98548
3918.65652	0.98543
3916.60272	0.98555
3914.54892	0.98568
3912.49511	0.98574
3910.44131	0.98584
3908.38751	0.98575
3906.33370	0.98520
3904.27990	0.98495
3902.22610	0.98560
3900.17229	0.98654
3898.11849	0.98697
3896.06469	0.98693
3894.01088	0.98700
3891.95708	0.98679
3889.90328	0.98573
3887.84947	0.98473
3885.79567	0.98454
3883.74187	0.98509
3881.68807	0.98560
3879.63426	0.98603
3877.58046	0.98639
3875.52666	0.98656
3873.47285	0.98653
3871.41905	0.98639
3869.36525	0.98652
3867.31144	0.98649
3865.25764	0.98586
3863.20384	0.98552
3861.15003	0.98615
3859.09623	0.98665
3857.04243	0.98630
3854.98862	0.98616
3852.93482	0.98701
3850.88102	0.98660
3848.82721	0.98575
3846.77341	0.98550
3844.71961	0.98564
3842.66580	0.98605
3840.61200	0.98686
3838.55820	0.98750
3836.50439	0.98700
3834.45059	0.98595
3832.39679	0.98498
3830.34298	0.98462
3828.28918	0.98518
3826.23538	0.98562
3824.18158	0.98557
3822.12777	0.98579
3820.07397	0.98564
3818.02017	0.98498
3815.96636	0.98507
3813.91256	0.98552
3811.85876	0.98578
3809.80495	0.98577
3807.75115	0.98537
3805.69735	0.98502
3803.64354	0.98506
3801.58974	0.98566
3799.53594	0.98642
3797.48213	0.98670
3795.42833	0.98659
3793.37453	0.98593
3791.32072	0.98558
3789.26692	0.98594
3787.21312	0.98577
3785.15931	0.98513
3783.10551	0.98527
3781.05171	0.98595
3778.99790	0.98615
3776.94410	0.98588
3774.89030	0.98621
3772.83650	0.98662
3770.78269	0.98621
3768.72889	0.98590
3766.67509	0.98625
3764.62128	0.98649
3762.56748	0.98641
3760.51368	0.98597
3758.45987	0.98582
3756.40607	0.98627
3754.35227	0.98656
3752.29846	0.98684
3750.24466	0.98732
3748.19086	0.98710
3746.13705	0.98625
3744.08325	0.98613
3742.02945	0.98672
3739.97564	0.98653
3737.92184	0.98621
3735.86804	0.98696
3733.81423	0.98733
3731.76043	0.98659
3729.70663	0.98650
3727.65282	0.98626
3725.59902	0.98558
3723.54522	0.98498
3721.49141	0.98425
3719.43761	0.98334
3717.38381	0.98178
3715.33001	0.97961
3713.27620	0.97697
3711.22240	0.97371
3709.16860	0.97028
3707.11479	0.96679
3705.06099	0.96314
3703.00719	0.95912
3700.95338	0.95474
3698.89958	0.95168
3696.84578	0.95079
3694.79197	0.95137
3692.73817	0.95278
3690.68437	0.95441
3688.63056	0.95637
3686.57676	0.95926
3684.52296	0.96176
3682.46915	0.96309
3680.41535	0.96304
3678.36155	0.96230
3676.30774	0.96205
3674.25394	0.96163
3672.20014	0.96047
3670.14633	0.95983
3668.09253	0.96012
3666.03873	0.95982
3663.98492	0.95866
3661.93112	0.95706
3659.87732	0.95525
3657.82352	0.95400
3655.76971	0.95368
3653.71591	0.95354
3651.66211	0.95267
3649.60830	0.95096
3647.55450	0.95007
3645.50070	0.95008
3643.44689	0.94994
3641.39309	0.94935
3639.33929	0.94839
3637.28548	0.94730
3635.23168	0.94589
3633.17788	0.94419
3631.12407	0.94267
3629.07027	0.94076
3627.01647	0.93812
3624.96266	0.93616
3622.90886	0.93502
3620.85506	0.93488
3618.80125	0.93597
3616.74745	0.93705
3614.69365	0.93775
3612.63984	0.93917
3610.58604	0.94049
3608.53224	0.94078
3606.47844	0.94042
3604.42463	0.93979
3602.37083	0.93942
3600.31703	0.93935
3598.26322	0.93902
3596.20942	0.93877
3594.15562	0.93913
3592.10181	0.93953
3590.04801	0.93912
3587.99421	0.93786
3585.94040	0.93730
3583.88660	0.93761
3581.83280	0.93721
3579.77899	0.93594
3577.72519	0.93481
3575.67139	0.93445
3573.61758	0.93458
3571.56378	0.93437
3569.50998	0.93346
3567.45617	0.93197
3565.40237	0.93038
3563.34857	0.92933
3561.29476	0.92847
3559.24096	0.92772
3557.18716	0.92709
3555.13335	0.92640
3553.07955	0.92564
3551.02575	0.92506
3548.97195	0.92492
3546.91814	0.92479
3544.86434	0.92432
3542.81054	0.92353
3540.75673	0.92262
3538.70293	0.92189
3536.64913	0.92168
3534.59532	0.92215
3532.54152	0.92263
3530.48772	0.92285
3528.43391	0.92329
3526.38011	0.92381
3524.32631	0.92405
3522.27250	0.92420
3520.21870	0.92446
3518.16490	0.92431
3516.11109	0.92350
3514.05729	0.92296
3512.00349	0.92302
3509.94968	0.92341
3507.89588	0.92393
3505.84208	0.92425
3503.78827	0.92422
3501.73447	0.92388
3499.68067	0.92362
3497.62687	0.92344
3495.57306	0.92300
3493.51926	0.92264
3491.46546	0.92270
3489.41165	0.92291
3487.35785	0.92294
3485.30405	0.92267
3483.25024	0.92206
3481.19644	0.92133
3479.14264	0.92068
3477.08883	0.92017
3475.03503	0.91966
3472.98123	0.91876
3470.92742	0.91767
3468.87362	0.91703
3466.81982	0.91689
3464.76601	0.91709
3462.71221	0.91761
3460.65841	0.91757
3458.60460	0.91670
3456.55080	0.91588
3454.49700	0.91494
3452.44319	0.91415
3450.38939	0.91430
3448.33559	0.91477
3446.28178	0.91501
3444.22798	0.91456
3442.17418	0.91319
3440.12038	0.91195
3438.06657	0.91145
3436.01277	0.91134
3433.95897	0.91122
3431.90516	0.91077
3429.85136	0.91011
3427.79756	0.90980
3425.74375	0.90975
3423.68995	0.90925
3421.63615	0.90821
3419.58234	0.90733
3417.52854	0.90665
3415.47474	0.90587
3413.42093	0.90522
3411.36713	0.90487
3409.31333	0.90434
3407.25952	0.90372
3405.20572	0.90345
3403.15192	0.90319
3401.09811	0.90284
3399.04431	0.90260
3396.99051	0.90246
3394.93670	0.90264
3392.88290	0.90293
3390.82910	0.90308
3388.77529	0.90347
3386.72149	0.90417
3384.66769	0.90480
3382.61389	0.90503
3380.56008	0.90501
3378.50628	0.90522
3376.45248	0.90584
3374.39867	0.90662
3372.34487	0.90716
3370.29107	0.90735
3368.23726	0.90765
3366.18346	0.90822
3364.12966	0.90858
3362.07585	0.90856
3360.02205	0.90875
3357.96825	0.90932
3355.91444	0.90988
3353.86064	0.91020
3351.80684	0.91033
3349.75303	0.91047
3347.69923	0.91055
3345.64543	0.91036
3343.59162	0.91059
3341.53782	0.91147
3339.48402	0.91195
3337.43021	0.91177
3335.37641	0.91174
3333.32261	0.91221
3331.26881	0.91269
3329.21500	0.91293
3327.16120	0.91298
3325.10740	0.91319
3323.05359	0.91338
3320.99979	0.91282
3318.94599	0.91246
3316.89218	0.91312
3314.83838	0.91389
3312.78458	0.91414
3310.73077	0.91417
3308.67697	0.91439
3306.62317	0.91491
3304.56936	0.91560
3302.51556	0.91593
3300.46176	0.91564
3298.40795	0.91544
3296.35415	0.91572
3294.30035	0.91621
3292.24654	0.91667
3290.19274	0.91725
3288.13894	0.91806
3286.08513	0.91835
3284.03133	0.91798
3281.97753	0.91799
3279.92372	0.91818
3277.86992	0.91806
3275.81612	0.91826
3273.76232	0.91869
3271.70851	0.91870
3269.65471	0.91877
3267.60091	0.91939
3265.54710	0.92007
3263.49330	0.92053
3261.43950	0.92099
3259.38569	0.92147
3257.33189	0.92192
3255.27809	0.92234
3253.22428	0.92283
3251.17048	0.92344
3249.11668	0.92392
3247.06287	0.92410
3245.00907	0.92416
3242.95527	0.92421
3240.90146	0.92435
3238.84766	0.92485
3236.79386	0.92554
3234.74005	0.92601
3232.68625	0.92614
3230.63245	0.92630
3228.57864	0.92670
3226.52484	0.92731
3224.47104	0.92818
3222.41724	0.92896
3220.36343	0.92924
3218.30963	0.92950
3216.25583	0.93028
3214.20202	0.93114
3212.14822	0.93160
3210.09442	0.93193
3208.04061	0.93233
3205.98681	0.93265
3203.93301	0.93289
3201.87920	0.93327
3199.82540	0.93382
3197.77160	0.93456
3195.71779	0.93531
3193.66399	0.93577
3191.61019	0.93599
3189.55638	0.93632
3187.50258	0.93686
3185.44878	0.93730
3183.39497	0.93753
3181.34117	0.93831
3179.28737	0.93973
3177.23356	0.94064
3175.17976	0.94078
3173.12596	0.94095
3171.07215	0.94143
3169.01835	0.94172
3166.96455	0.94160
3164.91075	0.94178
3162.85694	0.94229
3160.80314	0.94276
3158.74934	0.94348
3156.69553	0.94418
3154.64173	0.94453
3152.58793	0.94509
3150.53412	0.94608
3148.48032	0.94690
3146.42652	0.94730
3144.37271	0.94756
3142.31891	0.94801
3140.26511	0.94848
3138.21130	0.94852
3136.15750	0.94880
3134.10370	0.94996
3132.04989	0.95115
3129.99609	0.95162
3127.94229	0.95164
3125.88848	0.95160
3123.83468	0.95179
3121.78088	0.95213
3119.72707	0.95227
3117.67327	0.95252
3115.61947	0.95322
3113.56566	0.95403
3111.51186	0.95445
3109.45806	0.95448
3107.40426	0.95469
3105.35045	0.95514
3103.29665	0.95527
3101.24285	0.95527
3099.18904	0.95557
3097.13524	0.95581
3095.08144	0.95585
3093.02763	0.95581
3090.97383	0.95577
3088.92003	0.95623
3086.86622	0.95700
3084.81242	0.95707
3082.75862	0.95645
3080.70481	0.95647
3078.65101	0.95726
3076.59721	0.95775
3074.54340	0.95803
3072.48960	0.95862
3070.43580	0.95929
3068.38199	0.95966
3066.32819	0.95970
3064.27439	0.95990
3062.22058	0.96035
3060.16678	0.96038
3058.11298	0.96026
3056.05918	0.96073
3054.00537	0.96114
3051.95157	0.96099
3049.89777	0.96104
3047.84396	0.96154
3045.79016	0.96210
3043.73636	0.96245
3041.68255	0.96256
3039.62875	0.96254
3037.57495	0.96261
3035.52114	0.96280
3033.46734	0.96312
3031.41354	0.96354
3029.35973	0.96387
3027.30593	0.96403
3025.25213	0.96402
3023.19832	0.96411
3021.14452	0.96452
3019.09072	0.96471
3017.03691	0.96448
3014.98311	0.96428
3012.92931	0.96448
3010.87550	0.96506
3008.82170	0.96553
3006.76790	0.96563
3004.71409	0.96552
3002.66029	0.96551
3000.60649	0.96553
2998.55269	0.96514
2996.49888	0.96455
2994.44508	0.96426
2992.39128	0.96418
2990.33747	0.96409
2988.28367	0.96389
2986.22987	0.96340
2984.17606	0.96277
2982.12226	0.96221
2980.06846	0.96161
2978.01465	0.96109
2975.96085	0.96062
2973.90705	0.95970
2971.85324	0.95812
2969.79944	0.95624
2967.74564	0.95433
2965.69183	0.95232
2963.63803	0.95026
2961.58423	0.94820
2959.53042	0.94635
2957.47662	0.94491
2955.42282	0.94367
2953.36901	0.94230
2951.31521	0.94079
2949.26141	0.93876
2947.20761	0.93559
2945.15380	0.93085
2943.10000	0.92446
2941.04620	0.91669
2938.99239	0.90700
2936.93859	0.89490
2934.88479	0.88081
2932.83098	0.86458
2930.77718	0.84570
2928.72338	0.82423
2926.66957	0.79957
2924.61577	0.77021
2922.56197	0.73619
2920.50816	0.69994
2918.45436	0.66615
2916.40056	0.64256
2914.34675	0.63702
2912.29295	0.65038
2910.23915	0.67484
2908.18534	0.70135
2906.13154	0.72562
2904.07774	0.74645
2902.02393	0.76336
2899.97013	0.77673
2897.91633	0.78793
2895.86252	0.79832
2893.80872	0.80846
2891.75492	0.81851
2889.70112	0.82878
2887.64731	0.83967
2885.59351	0.85103
2883.53971	0.86233
2881.48590	0.87322
2879.43210	0.88348
2877.37830	0.89296
2875.32449	0.90121
2873.27069	0.90747
2871.21689	0.91156
2869.16308	0.91372
2867.10928	0.91359
2865.05548	0.91035
2863.00167	0.90327
2860.94787	0.89128
2858.89407	0.87246
2856.84026	0.84430
2854.78646	0.80474
2852.73266	0.75503
2850.67885	0.70486
2848.62505	0.67246
2846.57125	0.67193
2844.51744	0.70055
2842.46364	0.74316
2840.40984	0.78571
2838.35603	0.82183
2836.30223	0.85062
2834.24843	0.87286
2832.19463	0.88956
2830.14082	0.90193
2828.08702	0.91168
2826.03322	0.92007
2823.97941	0.92711
2821.92561	0.93264
2819.87181	0.93715
2817.81800	0.94108
2815.76420	0.94439
2813.71040	0.94706
2811.65659	0.94935
2809.60279	0.95139
2807.54899	0.95330
2805.49518	0.95530
2803.44138	0.95721
2801.38758	0.95850
2799.33377	0.95933
2797.27997	0.96036
2795.22617	0.96158
2793.17236	0.96252
2791.11856	0.96315
2789.06476	0.96396
2787.01095	0.96520
2784.95715	0.96651
2782.90335	0.96759
2780.84955	0.96840
2778.79574	0.96928
2776.74194	0.97030
2774.68814	0.97097
2772.63433	0.97141
2770.58053	0.97194
2768.52673	0.97220
2766.47292	0.97210
2764.41912	0.97224
2762.36532	0.97299
2760.31151	0.97375
2758.25771	0.97394
2756.20391	0.97383
2754.15010	0.97365
2752.09630	0.97374
2750.04250	0.97425
2747.98869	0.97463
2745.93489	0.97472
2743.88109	0.97485
2741.82728	0.97516
2739.77348	0.97543
2737.71968	0.97564
2735.66587	0.97585
2733.61207	0.97585
2731.55827	0.97581
2729.50446	0.97582
2727.45066	0.97587
2725.39686	0.97638
2723.34306	0.97694
2721.28925	0.97686
2719.23545	0.97668
2717.18165	0.97689
2715.12784	0.97715
2713.07404	0.97739
2711.02024	0.97773
2708.96643	0.97797
2706.91263	0.97810
2704.85883	0.97815
2702.80502	0.97799
2700.75122	0.97792
2698.69742	0.97812
2696.64361	0.97850
2694.58981	0.97883
2692.53601	0.97900
2690.48220	0.97909
2688.42840	0.97912
2686.37460	0.97908
2684.32079	0.97887
2682.26699	0.97859
2680.21319	0.97857
2678.15938	0.97892
2676.10558	0.97937
2674.05178	0.97954
2671.99797	0.97927
2669.94417	0.97890
2667.89037	0.97887
2665.83657	0.97882
2663.78276	0.97843
2661.72896	0.97826
2659.67516	0.97865
2657.62135	0.97921
2655.56755	0.97945
2653.51375	0.97916
2651.45994	0.97859
2649.40614	0.97843
2647.35234	0.97885
2645.29853	0.97942
2643.24473	0.97993
2641.19093	0.98001
2639.13712	0.97952
2637.08332	0.97915
2635.02952	0.97904
2632.97571	0.97899
2630.92191	0.97946
2628.86811	0.98021
2626.81430	0.98072
2624.76050	0.98098
2622.70670	0.98100
2620.65289	0.98108
2618.59909	0.98170
2616.54529	0.98238
2614.49149	0.98219
2612.43768	0.98148
2610.38388	0.98134
2608.33008	0.98151
2606.27627	0.98181
2604.22247	0.98278
2602.16867	0.98361
2600.11486	0.98344
2598.06106	0.98318
2596.00726	0.98353
2593.95345	0.98390
2591.89965	0.98384
2589.84585	0.98360
2587.79204	0.98354
2585.73824	0.98350
2583.68444	0.98346
2581.63063	0.98378
2579.57683	0.98406
2577.52303	0.98408
2575.46922	0.98413
2573.41542	0.98408
2571.36162	0.98371
2569.30781	0.98336
2567.25401	0.98352
2565.20021	0.98371
2563.14640	0.98377
2561.09260	0.98443
2559.03880	0.98532
2556.98500	0.98545
2554.93119	0.98516
2552.87739	0.98496
2550.82359	0.98479
2548.76978	0.98547
2546.71598	0.98674
2544.66218	0.98695
2542.60837	0.98630
2540.55457	0.98573
2538.50077	0.98531
2536.44696	0.98506
2534.39316	0.98511
2532.33936	0.98544
2530.28555	0.98596
2528.23175	0.98606
2526.17795	0.98565
2524.12414	0.98569
2522.07034	0.98623
2520.01654	0.98670
2517.96273	0.98753
2515.90893	0.98821
2513.85513	0.98807
2511.80132	0.98784
2509.74752	0.98761
2507.69372	0.98736
2505.63992	0.98727
2503.58611	0.98726
2501.53231	0.98727
2499.47851	0.98721
2497.42470	0.98727
2495.37090	0.98762
2493.31710	0.98789
2491.26329	0.98801
2489.20949	0.98804
2487.15569	0.98744
2485.10188	0.98638
2483.04808	0.98596
2480.99428	0.98650
2478.94047	0.98703
2476.88667	0.98701
2474.83287	0.98697
2472.77906	0.98731
2470.72526	0.98768
2468.67146	0.98762
2466.61765	0.98744
2464.56385	0.98773
2462.51005	0.98822
2460.45624	0.98825
2458.40244	0.98783
2456.34864	0.98761
2454.29483	0.98773
2452.24103	0.98761
2450.18723	0.98713
2448.13343	0.98667
2446.07962	0.98643
2444.02582	0.98646
2441.97202	0.98678
2439.91821	0.98737
2437.86441	0.98775
2435.81061	0.98761
2433.75680	0.98710
2431.70300	0.98656
2429.64920	0.98645
2427.59539	0.98665
2425.54159	0.98720
2423.48779	0.98804
2421.43398	0.98806
2419.38018	0.98713
2417.32638	0.98687
2415.27257	0.98786
2413.21877	0.98877
2411.16497	0.98858
2409.11116	0.98770
2407.05736	0.98733
2405.00356	0.98770
2402.94975	0.98802
2400.89595	0.98830
2398.84215	0.98866
2396.78834	0.98863
2394.73454	0.98808
2392.68074	0.98732
2390.62694	0.98694
2388.57313	0.98733
2386.51933	0.98787
2384.46553	0.98804
2382.41172	0.98816
2380.35792	0.98844
2378.30412	0.98871
2376.25031	0.98859
2374.19651	0.98793
2372.14271	0.98704
2370.08890	0.98610
2368.03510	0.98525
2365.98130	0.98520
2363.92749	0.98581
2361.87369	0.98583
2359.81989	0.98544
2357.76608	0.98555
2355.71228	0.98578
2353.65848	0.98592
2351.60467	0.98641
2349.55087	0.98680
2347.49707	0.98673
2345.44326	0.98678
2343.38946	0.98673
2341.33566	0.98599
2339.28186	0.98562
2337.22805	0.98616
2335.17425	0.98677
2333.12045	0.98680
2331.06664	0.98677
2329.01284	0.98682
2326.95904	0.98643
2324.90523	0.98537
2322.85143	0.98420
2320.79763	0.98436
2318.74382	0.98536
2316.69002	0.98556
2314.63622	0.98486
2312.58241	0.98409
2310.52861	0.98401
2308.47481	0.98503
2306.42100	0.98634
2304.36720	0.98656
2302.31340	0.98625
2300.25959	0.98641
2298.20579	0.98627
2296.15199	0.98571
2294.09818	0.98547
2292.04438	0.98563
2289.99058	0.98569
2287.93677	0.98536
2285.88297	0.98540
2283.82917	0.98613
2281.77537	0.98669
2279.72156	0.98704
2277.66776	0.98712
2275.61396	0.98664
2273.56015	0.98595
2271.50635	0.98551
2269.45255	0.98611
2267.39874	0.98732
2265.34494	0.98796
2263.29114	0.98781
2261.23733	0.98736
2259.18353	0.98723
2257.12973	0.98727
2255.07592	0.98730
2253.02212	0.98707
2250.96832	0.98653
2248.91451	0.98679
2246.86071	0.98779
2244.80691	0.98792
2242.75310	0.98765
2240.69930	0.98813
2238.64550	0.98827
2236.59169	0.98792
2234.53789	0.98804
2232.48409	0.98792
2230.43029	0.98767
2228.37648	0.98806
2226.32268	0.98887
2224.26888	0.99035
2222.21507	0.99113
2220.16127	0.98976
2218.10747	0.98852
2216.05366	0.98891
2213.99986	0.98925
2211.94606	0.98878
2209.89225	0.98890
2207.83845	0.98999
2205.78465	0.99072
2203.73084	0.99109
2201.67704	0.99216
2199.62324	0.99208
2197.56943	0.98975
2195.51563	0.98895
2193.46183	0.99083
2191.40802	0.99203
2189.35422	0.99111
2187.30042	0.98975
2185.24661	0.98974
2183.19281	0.99022
2181.13901	0.98837
2179.08520	0.98555
2177.03140	0.98642
2174.97760	0.99054
2172.92380	0.99364
2170.86999	0.99396
2168.81619	0.99310
2166.76239	0.99198
2164.70858	0.99040
2162.65478	0.98924
2160.60098	0.98976
2158.54717	0.99164
2156.49337	0.99287
2154.43957	0.99342
2152.38576	0.99225
2150.33196	0.98963
2148.27816	0.98845
2146.22435	0.98868
2144.17055	0.98952
2142.11675	0.99019
2140.06294	0.98960
2138.00914	0.98903
2135.95534	0.99008
2133.90153	0.99222
2131.84773	0.99349
2129.79393	0.99291
2127.74012	0.99173
2125.68632	0.99108
2123.63252	0.99094
2121.57871	0.99104
2119.52491	0.99028
2117.47111	0.98885
2115.41731	0.98840
2113.36350	0.98864
2111.30970	0.98879
2109.25590	0.98932
2107.20209	0.99016
2105.14829	0.99043
2103.09449	0.99015
2101.04068	0.98947
2098.98688	0.98863
2096.93308	0.98912
2094.87927	0.99107
2092.82547	0.99205
2090.77167	0.99086
2088.71786	0.98942
2086.66406	0.98921
2084.61026	0.98973
2082.55645	0.99010
2080.50265	0.98994
2078.44885	0.98931
2076.39504	0.98875
2074.34124	0.98943
2072.28744	0.99068
2070.23363	0.99144
2068.17983	0.99179
2066.12603	0.99067
2064.07223	0.98860
2062.01842	0.98848
2059.96462	0.99053
2057.91082	0.99168
2055.85701	0.99009
2053.80321	0.98726
2051.74941	0.98485
2049.69560	0.98378
2047.64180	0.98520
2045.58800	0.98850
2043.53419	0.99130
2041.48039	0.99108
2039.42659	0.98847
2037.37278	0.98626
2035.31898	0.98615
2033.26518	0.98831
2031.21137	0.99098
2029.15757	0.99327
2027.10377	0.99471
2025.04996	0.99453
2022.99616	0.99375
2020.94236	0.99356
2018.88855	0.99200
2016.83475	0.98964
2014.78095	0.99041
2012.72714	0.99335
2010.67334	0.99510
2008.61954	0.99426
2006.56574	0.99109
2004.51193	0.98788
2002.45813	0.98818
2000.40433	0.99052
1998.35052	0.99082
1996.29672	0.99015
1994.24292	0.99092
1992.18911	0.99208
1990.13531	0.99175
1988.08151	0.99068
1986.02770	0.99174
1983.97390	0.99407
1981.92010	0.99332
1979.86629	0.99085
1977.81249	0.99091
1975.75869	0.99193
1973.70488	0.99128
1971.65108	0.99171
1969.59728	0.99471
1967.54347	0.99713
1965.48967	0.99710
1963.43587	0.99541
1961.38206	0.99374
1959.32826	0.99265
1957.27446	0.99142
1955.22066	0.99116
1953.16685	0.99220
1951.11305	0.99213
1949.05925	0.99043
1947.00544	0.98885
1944.95164	0.98824
1942.89784	0.98905
1940.84403	0.99057
1938.79023	0.99084
1936.73643	0.99056
1934.68262	0.99104
1932.62882	0.99119
1930.57502	0.99102
1928.52121	0.99174
1926.46741	0.99299
1924.41361	0.99357
1922.35980	0.99265
1920.30600	0.99132
1918.25220	0.99087
1916.19839	0.99037
1914.14459	0.98939
1912.09079	0.98920
1910.03698	0.98988
1907.98318	0.99014
1905.92938	0.98989
1903.87557	0.98992
1901.82177	0.99005
1899.76797	0.98986
1897.71417	0.98983
1895.66036	0.99019
1893.60656	0.99045
1891.55276	0.99032
1889.49895	0.99002
1887.44515	0.98979
1885.39135	0.98949
1883.33754	0.98930
1881.28374	0.98993
1879.22994	0.99049
1877.17613	0.98977
1875.12233	0.98893
1873.06853	0.98912
1871.01472	0.98960
1868.96092	0.98957
1866.90712	0.98952
1864.85331	0.98946
1862.79951	0.98908
1860.74571	0.98868
1858.69190	0.98822
1856.63810	0.98768
1854.58430	0.98759
1852.53049	0.98796
1850.47669	0.98810
1848.42289	0.98832
1846.36908	0.98895
1844.31528	0.98902
1842.26148	0.98836
1840.20768	0.98789
1838.15387	0.98780
1836.10007	0.98817
1834.04627	0.98867
1831.99246	0.98875
1829.93866	0.98858
1827.88486	0.98842
1825.83105	0.98839
1823.77725	0.98849
1821.72345	0.98863
1819.66964	0.98882
1817.61584	0.98910
1815.56204	0.98905
1813.50823	0.98853
1811.45443	0.98824
1809.40063	0.98829
1807.34682	0.98814
1805.29302	0.98781
1803.23922	0.98775
1801.18541	0.98786
1799.13161	0.98770
1797.07781	0.98737
1795.02400	0.98710
1792.97020	0.98698
1790.91640	0.98683
1788.86260	0.98659
1786.80879	0.98652
1784.75499	0.98672
1782.70119	0.98693
1780.64738	0.98683
1778.59358	0.98639
1776.53978	0.98579
1774.48597	0.98541
1772.43217	0.98540
1770.37837	0.98505
1768.32456	0.98453
1766.27076	0.98437
1764.21696	0.98413
1762.16315	0.98358
1760.10935	0.98312
1758.05555	0.98275
1756.00174	0.98203
1753.94794	0.98115
1751.89414	0.98022
1749.84033	0.97897
1747.78653	0.97728
1745.73273	0.97523
1743.67892	0.97310
1741.62512	0.97094
1739.57132	0.96886
1737.51751	0.96772
1735.46371	0.96770
1733.40991	0.96775
1731.35611	0.96735
1729.30230	0.96727
1727.24850	0.96756
1725.19470	0.96771
1723.14089	0.96742
1721.08709	0.96729
1719.03329	0.96781
1716.97948	0.96800
1714.92568	0.96728
1712.87188	0.96683
1710.81807	0.96672
1708.76427	0.96663
1706.71047	0.96594
1704.65666	0.96473
1702.60286	0.96371
1700.54906	0.96236
1698.49525	0.96060
1696.44145	0.95878
1694.38765	0.95671
1692.33384	0.95532
1690.28004	0.95412
1688.22624	0.95246
1686.17243	0.95017
1684.11863	0.94659
1682.06483	0.94411
1680.01103	0.94333
1677.95722	0.94251
1675.90342	0.94138
1673.84962	0.93994
1671.79581	0.93833
1669.74201	0.93623
1667.68821	0.93416
1665.63440	0.93303
1663.58060	0.93193
1661.52680	0.93010
1659.47299	0.92843
1657.41919	0.92764
1655.36539	0.92746
1653.31158	0.92681
1651.25778	0.92552
1649.20398	0.92492
1647.15017	0.92457
1645.09637	0.92424
1643.04257	0.92395
1640.98876	0.92372
1638.93496	0.92357
1636.88116	0.92338
1634.82735	0.92312
1632.77355	0.92307
1630.71975	0.92302
1628.66594	0.92282
1626.61214	0.92284
1624.55834	0.92312
1622.50454	0.92366
1620.45073	0.92468
1618.39693	0.92652
1616.34313	0.92957
1614.28932	0.93225
1612.23552	0.93417
1610.18172	0.93612
1608.12791	0.93791
1606.07411	0.93935
1604.02031	0.94051
1601.96650	0.94142
1599.91270	0.94234
1597.85890	0.94337
1595.80509	0.94418
1593.75129	0.94464
1591.69749	0.94476
1589.64368	0.94472
1587.58988	0.94454
1585.53608	0.94400
1583.48227	0.94291
1581.42847	0.94139
1579.37467	0.93997
1577.32086	0.93930
1575.26706	0.94001
1573.21326	0.94097
1571.15945	0.94141
1569.10565	0.94223
1567.05185	0.94367
1564.99805	0.94460
1562.94424	0.94477
1560.89044	0.94500
1558.83664	0.94615
1556.78283	0.94686
1554.72903	0.94662
1552.67523	0.94608
1550.62142	0.94513
1548.56762	0.94390
1546.51382	0.94267
1544.46001	0.94132
1542.40621	0.94034
1540.35241	0.94091
1538.29860	0.94331
1536.24480	0.94568
1534.19100	0.94818
1532.13719	0.95081
1530.08339	0.95268
1528.02959	0.95446
1525.97578	0.95640
1523.92198	0.95767
1521.86818	0.95891
1519.81437	0.96064
1517.76057	0.96180
1515.70677	0.96249
1513.65297	0.96330
1511.59916	0.96432
1509.54536	0.96559
1507.49156	0.96701
1505.43775	0.96684
1503.38395	0.96631
1501.33015	0.96662
1499.27634	0.96702
1497.22254	0.96682
1495.16874	0.96619
1493.11493	0.96576
1491.06113	0.96537
1489.00733	0.96445
1486.95352	0.96292
1484.89972	0.96094
1482.84592	0.95797
1480.79211	0.95298
1478.73831	0.94362
1476.68451	0.92188
1474.63070	0.88102
1472.57690	0.84058
1470.52310	0.83455
1468.46929	0.84505
1466.41549	0.84998
1464.36169	0.84504
1462.30788	0.84515
1460.25408	0.86043
1458.20028	0.88636
1456.14648	0.90988
1454.09267	0.91986
1452.03887	0.92507
1449.98507	0.92927
1447.93126	0.93265
1445.87746	0.93491
1443.82366	0.93619
1441.76985	0.93719
1439.71605	0.93814
1437.66225	0.93900
1435.60844	0.94006
1433.55464	0.94144
1431.50084	0.94328
1429.44703	0.94540
1427.39323	0.94708
1425.33943	0.94831
1423.28562	0.94908
1421.23182	0.94935
1419.17802	0.94992
1417.12421	0.95068
1415.07041	0.95105
1413.01661	0.95154
1410.96280	0.95239
1408.90900	0.95332
1406.85520	0.95403
1404.80139	0.95471
1402.74759	0.95546
1400.69379	0.95616
1398.63999	0.95671
1396.58618	0.95725
1394.53238	0.95775
1392.47858	0.95785
1390.42477	0.95763
1388.37097	0.95744
1386.31717	0.95726
1384.26336	0.95709
1382.20956	0.95674
1380.15576	0.95599
1378.10195	0.95540
1376.04815	0.95534
1373.99435	0.95541
1371.94054	0.95497
1369.88674	0.95430
1367.83294	0.95408
1365.77913	0.95450
1363.72533	0.95555
1361.67153	0.95700
1359.61772	0.95806
1357.56392	0.95871
1355.51012	0.95916
1353.45631	0.95933
1351.40251	0.95936
1349.34871	0.95953
1347.29491	0.96015
1345.24110	0.96098
1343.18730	0.96137
1341.13350	0.96150
1339.07969	0.96176
1337.02589	0.96197
1334.97209	0.96219
1332.91828	0.96234
1330.86448	0.96225
1328.81068	0.96201
1326.75687	0.96172
1324.70307	0.96148
1322.64927	0.96130
1320.59546	0.96104
1318.54166	0.96055
1316.48786	0.96012
1314.43405	0.96015
1312.38025	0.96030
1310.32645	0.96014
1308.27264	0.95968
1306.21884	0.95920
1304.16504	0.95881
1302.11123	0.95842
1300.05743	0.95812
1298.00363	0.95808
1295.94982	0.95815
1293.89602	0.95802
1291.84222	0.95760
1289.78842	0.95724
1287.73461	0.95714
1285.68081	0.95696
1283.62701	0.95648
1281.57320	0.95595
1279.51940	0.95548
1277.46560	0.95482
1275.41179	0.95411
1273.35799	0.95355
1271.30419	0.95283
1269.25038	0.95168
1267.19658	0.95043
1265.14278	0.94946
1263.08897	0.94870
1261.03517	0.94802
1258.98137	0.94742
1256.92756	0.94677
1254.87376	0.94610
1252.81996	0.94559
1250.76615	0.94486
1248.71235	0.94351
1246.65855	0.94204
1244.60474	0.94106
1242.55094	0.94035
1240.49714	0.93954
1238.44334	0.93873
1236.38953	0.93809
1234.33573	0.93754
1232.28193	0.93673
1230.22812	0.93565
1228.17432	0.93469
1226.12052	0.93400
1224.06671	0.93339
1222.01291	0.93250
1219.95911	0.93139
1217.90530	0.93039
1215.85150	0.92950
1213.79770	0.92852
1211.74389	0.92721
1209.69009	0.92541
1207.63629	0.92342
1205.58248	0.92158
1203.52868	0.92003
1201.47488	0.91859
1199.42107	0.91675
1197.36727	0.91448
1195.31347	0.91191
1193.25966	0.90916
1191.20586	0.90644
1189.15206	0.90360
1187.09825	0.90038
1185.04445	0.89705
1182.99065	0.89371
1180.93685	0.88978
1178.88304	0.88504
1176.82924	0.88006
1174.77544	0.87541
1172.72163	0.87112
1170.66783	0.86694
1168.61403	0.86264
1166.56022	0.85837
1164.50642	0.85470
1162.45262	0.85198
1160.39881	0.84991
1158.34501	0.84790
1156.29121	0.84573
1154.23740	0.84334
1152.18360	0.84074
1150.12980	0.83817
1148.07599	0.83570
1146.02219	0.83347
1143.96839	0.83152
1141.91458	0.82972
1139.86078	0.82786
1137.80698	0.82570
1135.75317	0.82332
1133.69937	0.82064
1131.64557	0.81744
1129.59176	0.81373
1127.53796	0.80941
1125.48416	0.80422
1123.43036	0.79818
1121.37655	0.79162
1119.32275	0.78514
1117.26895	0.77912
1115.21514	0.77355
1113.16134	0.76834
1111.10754	0.76350
1109.05373	0.75928
1106.99993	0.75577
1104.94613	0.75259
1102.89232	0.74956
1100.83852	0.74677
1098.78472	0.74413
1096.73091	0.74180
1094.67711	0.74015
1092.62331	0.73893
1090.56950	0.73769
1088.51570	0.73624
1086.46190	0.73482
1084.40809	0.73355
1082.35429	0.73245
1080.30049	0.73160
1078.24668	0.73070
1076.19288	0.72937
1074.13908	0.72750
1072.08528	0.72533
1070.03147	0.72291
1067.97767	0.72007
1065.92387	0.71669
1063.87006	0.71273
1061.81626	0.70829
1059.76246	0.70357
1057.70865	0.69865
1055.65485	0.69337
1053.60105	0.68751
1051.54724	0.68113
1049.49344	0.67441
1047.43964	0.66748
1045.38583	0.66021
1043.33203	0.65258
1041.27823	0.64549
1039.22442	0.63965
1037.17062	0.63452
1035.11682	0.62979
1033.06301	0.62610
1031.00921	0.62398
1028.95541	0.62308
1026.90160	0.62309
1024.84780	0.62407
1022.79400	0.62550
1020.74019	0.62650
1018.68639	0.62667
1016.63259	0.62658
1014.57879	0.62643
1012.52498	0.62589
1010.47118	0.62548
1008.41738	0.62569
1006.36357	0.62658
1004.30977	0.62863
1002.25597	0.63225
1000.20216	0.63753
998.14836	0.64412
996.09456	0.65123
994.04075	0.65841
991.98695	0.66591
989.93315	0.67379
987.87934	0.68184
985.82554	0.68983
983.77174	0.69781
981.71793	0.70618
979.66413	0.71467
977.61033	0.72300
975.55652	0.73120
973.50272	0.73873
971.44892	0.74558
969.39511	0.75229
967.34131	0.75871
965.28751	0.76468
963.23371	0.77023
961.17990	0.77522
959.12610	0.77992
957.07230	0.78458
955.01849	0.78879
952.96469	0.79247
950.91089	0.79597
948.85708	0.79941
946.80328	0.80239
944.74948	0.80444
942.69567	0.80586
940.64187	0.80751
938.58807	0.80960
936.53426	0.81191
934.48046	0.81381
932.42666	0.81496
930.37285	0.81614
928.31905	0.81745
926.26525	0.81796
924.21144	0.81724
922.15764	0.81545
920.10384	0.81297
918.05003	0.80989
915.99623	0.80655
913.94243	0.80426
911.88862	0.80401
909.83482	0.80599
907.78102	0.81065
905.72722	0.81762
903.67341	0.82499
901.61961	0.83165
899.56581	0.83801
897.51200	0.84431
895.45820	0.84961
893.40440	0.85371
891.35059	0.85721
889.29679	0.86048
887.24299	0.86384
885.18918	0.86684
883.13538	0.86897
881.08158	0.87071
879.02777	0.87260
876.97397	0.87433
874.92017	0.87577
872.86636	0.87726
870.81256	0.87923
868.75876	0.88187
866.70495	0.88452
864.65115	0.88699
862.59735	0.88992
860.54354	0.89274
858.48974	0.89462
856.43594	0.89650
854.38213	0.89884
852.32833	0.90055
850.27453	0.90122
848.22073	0.90141
846.16692	0.90190
844.11312	0.90272
842.05932	0.90315
840.00551	0.90328
837.95171	0.90316
835.89791	0.90225
833.84410	0.90094
831.79030	0.90005
829.73650	0.89941
827.68269	0.89869
825.62889	0.89825
823.57509	0.89772
821.52128	0.89639
819.46748	0.89504
817.41368	0.89467
815.35987	0.89479
813.30607	0.89430
811.25227	0.89261
809.19846	0.88989
807.14466	0.88641
805.09086	0.88193
803.03705	0.87688
800.98325	0.87290
798.92945	0.87102
796.87565	0.87067
794.82184	0.87083
792.76804	0.87141
790.71424	0.87248
788.66043	0.87312
786.60663	0.87291
784.55283	0.87254
782.49902	0.87198
780.44522	0.87112
778.39142	0.87083
776.33761	0.87152
774.28381	0.87254
772.23001	0.87323
770.17620	0.87347
768.12240	0.87311
766.06860	0.87176
764.01479	0.86962
761.96099	0.86735
759.90719	0.86541
757.85338	0.86435
755.79958	0.86384
753.74578	0.86310
751.69197	0.86185
749.63817	0.86042
747.58437	0.85980
745.53056	0.86011
743.47676	0.86071
741.42296	0.86114
739.36916	0.86094
737.31535	0.85860
735.26155	0.84961
733.20775	0.82829
731.15394	0.80308
729.10014	0.79480
727.04634	0.80245
724.99253	0.80442
722.93873	0.78713
720.88493	0.75307
718.83112	0.72444
716.77732	0.72463
714.72352	0.75142
712.66971	0.78468
710.61591	0.80825
708.56211	0.82022
706.50830	0.82458
704.45450	0.82480
702.40070	0.82385
700.34689	0.82252
698.29309	0.82073
696.23929	0.81905
694.18548	0.81778
692.13168	0.81737
690.07788	0.81848
688.02408	0.81999
685.97027	0.82041
683.91647	0.82014
681.86267	0.82035
679.80886	0.82139
677.75506	0.82206
675.70126	0.82138
673.64745	0.82008
671.59365	0.81971
669.53985	0.82095
667.48604	0.82302
665.43224	0.82471
663.37844	0.82606
661.32463	0.82724
659.27083	0.82872
657.21703	0.83000
655.16322	0.82968
653.10942	0.82831
651.05562	0.82696
649.00181	0.82571
646.94801	0.82538
644.89421	0.82621
642.84040	0.82689
640.78660	0.82721
638.73280	0.82774
636.67899	0.82832
634.62519	0.82844
632.57139	0.82781
630.51759	0.82663
628.46378	0.82575
626.40998	0.82542
624.35618	0.82482
622.30237	0.82401
620.24857	0.82288
618.19477	0.81998
616.14096	0.81652
614.08716	0.81472
612.03336	0.81315
609.97955	0.81038
607.92575	0.80688
605.87195	0.80381
603.81814	0.80122
601.76434	0.79792
599.71054	0.79522
597.65673	0.79476
595.60293	0.79459
593.54913	0.79307
591.49532	0.79136
589.44152	0.78986
587.38772	0.78785
585.33391	0.78561
583.28011	0.78284
581.22631	0.77960
579.17250	0.77725
577.11870	0.77589
575.06490	0.77500
573.01110	0.77446
570.95729	0.77314
568.90349	0.77041
566.84969	0.76772
564.79588	0.76488
562.74208	0.76093
560.68828	0.75741
558.63447	0.75505
556.58067	0.75265
554.52687	0.75028
552.47306	0.74764
550.41926	0.74308
548.36546	0.73767
546.31165	0.73269
544.25785	0.72695
542.20405	0.72119
540.15024	0.71634
538.09644	0.71170
536.04264	0.70799
533.98883	0.70548
531.93503	0.70406
529.88123	0.70402
527.82742	0.70525
525.77362	0.70777
523.71982	0.71034
521.66602	0.71265
519.61221	0.71477
517.55841	0.71706
515.50461	0.72073
513.45080	0.72364
511.39700	0.72572
509.34320	0.72869
507.28939	0.73104
505.23559	0.73299
503.18179	0.73557
501.12798	0.73783
499.07418	0.73914
497.02038	0.73910
494.96657	0.73836
492.91277	0.73779
490.85897	0.73673
488.80516	0.73385
486.75136	0.72841
484.69756	0.72101
482.64375	0.71334
480.58995	0.70550
478.53615	0.69547
476.48234	0.68377
474.42854	0.67165
472.37474	0.66021
470.32093	0.65429
468.26713	0.65242
466.21333	0.64991
464.15953	0.64930
462.10572	0.65426
460.05192	0.66119
457.99812	0.66426
455.94431	0.66604
453.89051	0.67094
451.83671	0.67633
449.78290	0.67950
447.72910	0.68201
445.67530	0.68533
443.62149	0.68901
441.56769	0.69069
439.51389	0.68701
437.46008	0.68063
435.40628	0.67650
433.35248	0.67461
431.29867	0.67303
429.24487	0.67224
427.19107	0.67350
425.13726	0.67443
423.08346	0.67482
421.02966	0.68011
418.97585	0.68930
416.92205	0.69699
414.86825	0.70456
412.81445	0.71079
410.76064	0.71295
408.70684	0.71130
406.65304	0.71036
404.59923	0.71528
402.54543	0.72151
400.49163	0.72339
398.43782	0.72585
