3996.70104	0.97650
3994.64724	0.97608
3992.59344	0.97601
3990.53964	0.97644
3988.48583	0.97687
3986.43203	0.97650
3984.37823	0.97586
3982.32442	0.97556
3980.27062	0.97568
3978.21682	0.97638
3976.16301	0.97713
3974.10921	0.97736
3972.05541	0.97696
3970.00160	0.97628
3967.94780	0.97624
3965.89400	0.97656
3963.84019	0.97662
3961.78639	0.97668
3959.73259	0.97678
3957.67878	0.97684
3955.62498	0.97724
3953.57118	0.97765
3951.51737	0.97743
3949.46357	0.97692
3947.40977	0.97652
3945.35596	0.97635
3943.30216	0.97652
3941.24836	0.97656
3939.19455	0.97634
3937.14075	0.97654
3935.08695	0.97707
3933.03315	0.97715
3930.97934	0.97673
3928.92554	0.97640
3926.87174	0.97647
3924.81793	0.97682
3922.76413	0.97699
3920.71033	0.97669
3918.65652	0.97651
3916.60272	0.97681
3914.54892	0.97699
3912.49511	0.97693
3910.44131	0.97668
3908.38751	0.97611
3906.33370	0.97558
3904.27990	0.97568
3902.22610	0.97643
3900.17229	0.97707
3898.11849	0.97710
3896.06469	0.97682
3894.01088	0.97681
3891.95708	0.97701
3889.90328	0.97666
3887.84947	0.97616
3885.79567	0.97642
3883.74187	0.97688
3881.68807	0.97715
3879.63426	0.97763
3877.58046	0.97772
3875.52666	0.97738
3873.47285	0.97719
3871.41905	0.97715
3869.36525	0.97694
3867.31144	0.97681
3865.25764	0.97671
3863.20384	0.97635
3861.15003	0.97637
3859.09623	0.97683
3857.04243	0.97713
3854.98862	0.97758
3852.93482	0.97855
3850.88102	0.97837
3848.82721	0.97731
3846.77341	0.97617
3844.71961	0.97560
3842.66580	0.97595
3840.61200	0.97634
3838.55820	0.97685
3836.50439	0.97774
3834.45059	0.97758
3832.39679	0.97692
3830.34298	0.97669
3828.28918	0.97676
3826.23538	0.97701
3824.18158	0.97737
3822.12777	0.97768
3820.07397	0.97762
3818.02017	0.97732
3815.96636	0.97731
3813.91256	0.97741
3811.85876	0.97745
3809.80495	0.97768
3807.75115	0.97772
3805.69735	0.97726
3803.64354	0.97692
3801.58974	0.97694
3799.53594	0.97706
3797.48213	0.97719
3795.42833	0.97750
3793.37453	0.97763
3791.32072	0.97743
3789.26692	0.97726
3787.21312	0.97738
3785.15931	0.97764
3783.10551	0.97751
3781.05171	0.97721
3778.99790	0.97745
3776.94410	0.97797
3774.89030	0.97814
3772.83650	0.97802
3770.78269	0.97824
3768.72889	0.97870
3766.67509	0.97845
3764.62128	0.97778
3762.56748	0.97730
3760.51368	0.97729
3758.45987	0.97781
3756.40607	0.97822
3754.35227	0.97839
3752.29846	0.97855
3750.24466	0.97867
3748.19086	0.97870
3746.13705	0.97880
3744.08325	0.97919
3742.02945	0.97902
3739.97564	0.97825
3737.92184	0.97788
3735.86804	0.97813
3733.81423	0.97788
3731.76043	0.97659
3729.70663	0.97544
3727.65282	0.97494
3725.59902	0.97455
3723.54522	0.97392
3721.49141	0.97332
3719.43761	0.97215
3717.38381	0.97006
3715.33001	0.96715
3713.27620	0.96331
3711.22240	0.95871
3709.16860	0.95340
3707.11479	0.94717
3705.06099	0.94086
3703.00719	0.93448
3700.95338	0.92811
3698.89958	0.92424
3696.84578	0.92338
3694.79197	0.92419
3692.73817	0.92671
3690.68437	0.93145
3688.63056	0.93634
3686.57676	0.93868
3684.52296	0.93984
3682.46915	0.94069
3680.41535	0.94119
3678.36155	0.94131
3676.30774	0.94056
3674.25394	0.93926
3672.20014	0.93849
3670.14633	0.93760
3668.09253	0.93633
3666.03873	0.93506
3663.98492	0.93407
3661.93112	0.93308
3659.87732	0.93098
3657.82352	0.92809
3655.76971	0.92612
3653.71591	0.92575
3651.66211	0.92574
3649.60830	0.92422
3647.55450	0.92132
3645.50070	0.92016
3643.44689	0.92017
3641.39309	0.91997
3639.33929	0.91885
3637.28548	0.91670
3635.23168	0.91421
3633.17788	0.91215
3631.12407	0.91053
3629.07027	0.90847
3627.01647	0.90567
3624.96266	0.90327
3622.90886	0.90145
3620.85506	0.90033
3618.80125	0.90083
3616.74745	0.90306
3614.69365	0.90521
3612.63984	0.90657
3610.58604	0.90739
3608.53224	0.90817
3606.47844	0.90886
3604.42463	0.90884
3602.37083	0.90821
3600.31703	0.90800
3598.26322	0.90829
3596.20942	0.90819
3594.15562	0.90823
3592.10181	0.90848
3590.04801	0.90809
3587.99421	0.90757
3585.94040	0.90758
3583.88660	0.90749
3581.83280	0.90713
3579.77899	0.90641
3577.72519	0.90554
3575.67139	0.90493
3573.61758	0.90409
3571.56378	0.90283
3569.50998	0.90176
3567.45617	0.90102
3565.40237	0.90010
3563.34857	0.89906
3561.29476	0.89824
3559.24096	0.89798
3557.18716	0.89792
3555.13335	0.89715
3553.07955	0.89599
3551.02575	0.89524
3548.97195	0.89461
3546.91814	0.89376
3544.86434	0.89310
3542.81054	0.89291
3540.75673	0.89259
3538.70293	0.89175
3536.64913	0.89107
3534.59532	0.89092
3532.54152	0.89095
3530.48772	0.89095
3528.43391	0.89105
3526.38011	0.89122
3524.32631	0.89098
3522.27250	0.89058
3520.21870	0.89064
3518.16490	0.89081
3516.11109	0.89103
3514.05729	0.89167
3512.00349	0.89237
3509.94968	0.89279
3507.89588	0.89289
3505.84208	0.89283
3503.78827	0.89270
3501.73447	0.89234
3499.68067	0.89165
3497.62687	0.89119
3495.57306	0.89099
3493.51926	0.89063
3491.46546	0.89032
3489.41165	0.88998
3487.35785	0.88929
3485.30405	0.88845
3483.25024	0.88790
3481.19644	0.88788
3479.14264	0.88823
3477.08883	0.88848
3475.03503	0.88807
3472.98123	0.88697
3470.92742	0.88592
3468.87362	0.88540
3466.81982	0.88543
3464.76601	0.88584
3462.71221	0.88595
3460.65841	0.88521
3458.60460	0.88439
3456.55080	0.88412
3454.49700	0.88385
3452.44319	0.88299
3450.38939	0.88173
3448.33559	0.88086
3446.28178	0.88089
3444.22798	0.88100
3442.17418	0.88023
3440.12038	0.87907
3438.06657	0.87836
3436.01277	0.87779
3433.95897	0.87681
3431.90516	0.87565
3429.85136	0.87490
3427.79756	0.87456
3425.74375	0.87435
3423.68995	0.87413
3421.63615	0.87358
3419.58234	0.87239
3417.52854	0.87126
3415.47474	0.87070
3413.42093	0.87011
3411.36713	0.86949
3409.31333	0.86924
3407.25952	0.86890
3405.20572	0.86825
3403.15192	0.86760
3401.09811	0.86697
3399.04431	0.86645
3396.99051	0.86660
3394.93670	0.86745
3392.88290	0.86839
3390.82910	0.86901
3388.77529	0.86919
3386.72149	0.86903
3384.66769	0.86890
3382.61389	0.86917
3380.56008	0.86980
3378.50628	0.87046
3376.45248	0.87115
3374.39867	0.87197
3372.34487	0.87274
3370.29107	0.87341
3368.23726	0.87398
3366.18346	0.87418
3364.12966	0.87435
3362.07585	0.87496
3360.02205	0.87594
3357.96825	0.87659
3355.91444	0.87645
3353.86064	0.87638
3351.80684	0.87682
3349.75303	0.87724
3347.69923	0.87766
3345.64543	0.87822
3343.59162	0.87893
3341.53782	0.87961
3339.48402	0.87989
3337.43021	0.88019
3335.37641	0.88078
3333.32261	0.88117
3331.26881	0.88139
3329.21500	0.88167
3327.16120	0.88199
3325.10740	0.88255
3323.05359	0.88342
3320.99979	0.88399
3318.94599	0.88395
3316.89218	0.88391
3314.83838	0.88446
3312.78458	0.88519
3310.73077	0.88542
3308.67697	0.88535
3306.62317	0.88556
3304.56936	0.88625
3302.51556	0.88726
3300.46176	0.88809
3298.40795	0.88834
3296.35415	0.88859
3294.30035	0.88920
3292.24654	0.88951
3290.19274	0.88953
3288.13894	0.88973
3286.08513	0.89025
3284.03133	0.89076
3281.97753	0.89069
3279.92372	0.89035
3277.86992	0.89049
3275.81612	0.89105
3273.76232	0.89174
3271.70851	0.89240
3269.65471	0.89303
3267.60091	0.89369
3265.54710	0.89410
3263.49330	0.89430
3261.43950	0.89459
3259.38569	0.89497
3257.33189	0.89555
3255.27809	0.89620
3253.22428	0.89648
3251.17048	0.89657
3249.11668	0.89728
3247.06287	0.89835
3245.00907	0.89857
3242.95527	0.89834
3240.90146	0.89896
3238.84766	0.90007
3236.79386	0.90076
3234.74005	0.90122
3232.68625	0.90187
3230.63245	0.90248
3228.57864	0.90287
3226.52484	0.90350
3224.47104	0.90464
3222.41724	0.90562
3220.36343	0.90584
3218.30963	0.90598
3216.25583	0.90650
3214.20202	0.90696
3212.14822	0.90757
3210.09442	0.90833
3208.04061	0.90867
3205.98681	0.90900
3203.93301	0.90968
3201.87920	0.91031
3199.82540	0.91090
3197.77160	0.91146
3195.71779	0.91205
3193.66399	0.91266
3191.61019	0.91322
3189.55638	0.91386
3187.50258	0.91464
3185.44878	0.91568
3183.39497	0.91682
3181.34117	0.91761
3179.28737	0.91791
3177.23356	0.91799
3175.17976	0.91826
3173.12596	0.91880
3171.07215	0.91949
3169.01835	0.92019
3166.96455	0.92066
3164.91075	0.92126
3162.85694	0.92208
3160.80314	0.92278
3158.74934	0.92362
3156.69553	0.92461
3154.64173	0.92553
3152.58793	0.92632
3150.53412	0.92695
3148.48032	0.92744
3146.42652	0.92776
3144.37271	0.92814
3142.31891	0.92883
3140.26511	0.92952
3138.21130	0.93009
3136.15750	0.93086
3134.10370	0.93195
3132.04989	0.93293
3129.99609	0.93320
3127.94229	0.93316
3125.88848	0.93367
3123.83468	0.93453
3121.78088	0.93519
3119.72707	0.93546
3117.67327	0.93563
3115.61947	0.93618
3113.56566	0.93694
3111.51186	0.93715
3109.45806	0.93703
3107.40426	0.93760
3105.35045	0.93850
3103.29665	0.93880
3101.24285	0.93865
3099.18904	0.93877
3097.13524	0.93926
3095.08144	0.93976
3093.02763	0.94009
3090.97383	0.94031
3088.92003	0.94055
3086.86622	0.94093
3084.81242	0.94135
3082.75862	0.94151
3080.70481	0.94178
3078.65101	0.94266
3076.59721	0.94361
3074.54340	0.94408
3072.48960	0.94438
3070.43580	0.94465
3068.38199	0.94475
3066.32819	0.94502
3064.27439	0.94561
3062.22058	0.94617
3060.16678	0.94620
3058.11298	0.94597
3056.05918	0.94632
3054.00537	0.94715
3051.95157	0.94782
3049.89777	0.94819
3047.84396	0.94825
3045.79016	0.94819
3043.73636	0.94835
3041.68255	0.94856
3039.62875	0.94875
3037.57495	0.94929
3035.52114	0.95016
3033.46734	0.95090
3031.41354	0.95133
3029.35973	0.95153
3027.30593	0.95148
3025.25213	0.95142
3023.19832	0.95157
3021.14452	0.95169
3019.09072	0.95173
3017.03691	0.95185
3014.98311	0.95231
3012.92931	0.95293
3010.87550	0.95322
3008.82170	0.95312
3006.76790	0.95303
3004.71409	0.95352
3002.66029	0.95429
3000.60649	0.95452
2998.55269	0.95451
2996.49888	0.95471
2994.44508	0.95474
2992.39128	0.95449
2990.33747	0.95433
2988.28367	0.95442
2986.22987	0.95431
2984.17606	0.95384
2982.12226	0.95340
2980.06846	0.95291
2978.01465	0.95190
2975.96085	0.95055
2973.90705	0.94941
2971.85324	0.94841
2969.79944	0.94720
2967.74564	0.94555
2965.69183	0.94350
2963.63803	0.94123
2961.58423	0.93920
2959.53042	0.93759
2957.47662	0.93599
2955.42282	0.93443
2953.36901	0.93296
2951.31521	0.93126
2949.26141	0.92927
2947.20761	0.92685
2945.15380	0.92343
2943.10000	0.91835
2941.04620	0.91100
2938.99239	0.90111
2936.93859	0.88900
2934.88479	0.87489
2932.83098	0.85841
2930.77718	0.83896
2928.72338	0.81594
2926.66957	0.78886
2924.61577	0.75671
2922.56197	0.71868
2920.50816	0.67682
2918.45436	0.63691
2916.40056	0.60813
2914.34675	0.60026
2912.29295	0.61522
2910.23915	0.64403
2908.18534	0.67583
2906.13154	0.70463
2904.07774	0.72835
2902.02393	0.74693
2899.97013	0.76158
2897.91633	0.77379
2895.86252	0.78473
2893.80872	0.79528
2891.75492	0.80591
2889.70112	0.81666
2887.64731	0.82740
2885.59351	0.83848
2883.53971	0.85002
2881.48590	0.86145
2879.43210	0.87249
2877.37830	0.88283
2875.32449	0.89178
2873.27069	0.89902
2871.21689	0.90417
2869.16308	0.90672
2867.10928	0.90672
2865.05548	0.90416
2863.00167	0.89834
2860.94787	0.88794
2858.89407	0.87112
2856.84026	0.84505
2854.78646	0.80632
2852.73266	0.75386
2850.67885	0.69554
2848.62505	0.65191
2846.57125	0.64290
2844.51744	0.66865
2842.46364	0.71232
2840.40984	0.75728
2838.35603	0.79573
2836.30223	0.82644
2834.24843	0.85037
2832.19463	0.86879
2830.14082	0.88299
2828.08702	0.89404
2826.03322	0.90266
2823.97941	0.90947
2821.92561	0.91537
2819.87181	0.92071
2817.81800	0.92519
2815.76420	0.92892
2813.71040	0.93203
2811.65659	0.93486
2809.60279	0.93767
2807.54899	0.93989
2805.49518	0.94140
2803.44138	0.94291
2801.38758	0.94462
2799.33377	0.94618
2797.27997	0.94749
2795.22617	0.94886
2793.17236	0.95030
2791.11856	0.95153
2789.06476	0.95243
2787.01095	0.95318
2784.95715	0.95408
2782.90335	0.95521
2780.84955	0.95635
2778.79574	0.95734
2776.74194	0.95820
2774.68814	0.95887
2772.63433	0.95919
2770.58053	0.95921
2768.52673	0.95950
2766.47292	0.96013
2764.41912	0.96043
2762.36532	0.96069
2760.31151	0.96133
2758.25771	0.96182
2756.20391	0.96222
2754.15010	0.96277
2752.09630	0.96309
2750.04250	0.96327
2747.98869	0.96339
2745.93489	0.96350
2743.88109	0.96394
2741.82728	0.96444
2739.77348	0.96427
2737.71968	0.96376
2735.66587	0.96398
2733.61207	0.96489
2731.55827	0.96542
2729.50446	0.96525
2727.45066	0.96511
2725.39686	0.96532
2723.34306	0.96560
2721.28925	0.96599
2719.23545	0.96647
2717.18165	0.96677
2715.12784	0.96695
2713.07404	0.96699
2711.02024	0.96684
2708.96643	0.96694
2706.91263	0.96736
2704.85883	0.96759
2702.80502	0.96765
2700.75122	0.96797
2698.69742	0.96841
2696.64361	0.96841
2694.58981	0.96820
2692.53601	0.96841
2690.48220	0.96879
2688.42840	0.96896
2686.37460	0.96893
2684.32079	0.96890
2682.26699	0.96910
2680.21319	0.96931
2678.15938	0.96922
2676.10558	0.96897
2674.05178	0.96862
2671.99797	0.96841
2669.94417	0.96871
2667.89037	0.96900
2665.83657	0.96881
2663.78276	0.96854
2661.72896	0.96854
2659.67516	0.96871
2657.62135	0.96878
2655.56755	0.96876
2653.51375	0.96903
2651.45994	0.96935
2649.40614	0.96934
2647.35234	0.96926
2645.29853	0.96932
2643.24473	0.96927
2641.19093	0.96917
2639.13712	0.96932
2637.08332	0.96982
2635.02952	0.97061
2632.97571	0.97100
2630.92191	0.97052
2628.86811	0.96988
2626.81430	0.96978
2624.76050	0.97019
2622.70670	0.97056
2620.65289	0.97060
2618.59909	0.97077
2616.54529	0.97142
2614.49149	0.97221
2612.43768	0.97285
2610.38388	0.97295
2608.33008	0.97268
2606.27627	0.97293
2604.22247	0.97328
2602.16867	0.97333
2600.11486	0.97349
2598.06106	0.97354
2596.00726	0.97344
2593.95345	0.97336
2591.89965	0.97331
2589.84585	0.97356
2587.79204	0.97416
2585.73824	0.97459
2583.68444	0.97410
2581.63063	0.97341
2579.57683	0.97403
2577.52303	0.97553
2575.46922	0.97603
2573.41542	0.97526
2571.36162	0.97467
2569.30781	0.97468
2567.25401	0.97487
2565.20021	0.97536
2563.14640	0.97568
2561.09260	0.97552
2559.03880	0.97587
2556.98500	0.97648
2554.93119	0.97647
2552.87739	0.97610
2550.82359	0.97582
2548.76978	0.97589
2546.71598	0.97611
2544.66218	0.97616
2542.60837	0.97637
2540.55457	0.97703
2538.50077	0.97756
2536.44696	0.97753
2534.39316	0.97737
2532.33936	0.97715
2530.28555	0.97677
2528.23175	0.97649
2526.17795	0.97656
2524.12414	0.97672
2522.07034	0.97647
2520.01654	0.97622
2517.96273	0.97658
2515.90893	0.97711
2513.85513	0.97744
2511.80132	0.97777
2509.74752	0.97801
2507.69372	0.97798
2505.63992	0.97781
2503.58611	0.97828
2501.53231	0.97932
2499.47851	0.97966
2497.42470	0.97937
2495.37090	0.97902
2493.31710	0.97846
2491.26329	0.97813
2489.20949	0.97814
2487.15569	0.97820
2485.10188	0.97829
2483.04808	0.97810
2480.99428	0.97801
2478.94047	0.97830
2476.88667	0.97832
2474.83287	0.97809
2472.77906	0.97795
2470.72526	0.97781
2468.67146	0.97775
2466.61765	0.97793
2464.56385	0.97787
2462.51005	0.97787
2460.45624	0.97827
2458.40244	0.97844
2456.34864	0.97884
2454.29483	0.97969
2452.24103	0.98012
2450.18723	0.98019
2448.13343	0.98012
2446.07962	0.97953
2444.02582	0.97883
2441.97202	0.97889
2439.91821	0.97942
2437.86441	0.97940
2435.81061	0.97902
2433.75680	0.97921
2431.70300	0.97963
2429.64920	0.97952
2427.59539	0.97932
2425.54159	0.97918
2423.48779	0.97895
2421.43398	0.97886
2419.38018	0.97872
2417.32638	0.97865
2415.27257	0.97893
2413.21877	0.97921
2411.16497	0.97892
2409.11116	0.97843
2407.05736	0.97855
2405.00356	0.97891
2402.94975	0.97867
2400.89595	0.97827
2398.84215	0.97826
2396.78834	0.97818
2394.73454	0.97820
2392.68074	0.97866
2390.62694	0.97874
2388.57313	0.97846
2386.51933	0.97863
2384.46553	0.97886
2382.41172	0.97883
2380.35792	0.97897
2378.30412	0.97933
2376.25031	0.97972
2374.19651	0.97942
2372.14271	0.97848
2370.08890	0.97764
2368.03510	0.97676
2365.98130	0.97665
2363.92749	0.97708
2361.87369	0.97667
2359.81989	0.97615
2357.76608	0.97687
2355.71228	0.97823
2353.65848	0.97875
2351.60467	0.97836
2349.55087	0.97779
2347.49707	0.97745
2345.44326	0.97735
2343.38946	0.97733
2341.33566	0.97659
2339.28186	0.97577
2337.22805	0.97630
2335.17425	0.97698
2333.12045	0.97671
2331.06664	0.97664
2329.01284	0.97715
2326.95904	0.97743
2324.90523	0.97765
2322.85143	0.97803
2320.79763	0.97788
2318.74382	0.97705
2316.69002	0.97664
2314.63622	0.97727
2312.58241	0.97804
2310.52861	0.97833
2308.47481	0.97814
2306.42100	0.97753
2304.36720	0.97677
2302.31340	0.97659
2300.25959	0.97678
2298.20579	0.97650
2296.15199	0.97629
2294.09818	0.97668
2292.04438	0.97711
2289.99058	0.97723
2287.93677	0.97721
2285.88297	0.97713
2283.82917	0.97748
2281.77537	0.97854
2279.72156	0.97953
2277.66776	0.98020
2275.61396	0.98029
2273.56015	0.97944
2271.50635	0.97846
2269.45255	0.97816
2267.39874	0.97847
2265.34494	0.97864
2263.29114	0.97862
2261.23733	0.97950
2259.18353	0.98093
2257.12973	0.98126
2255.07592	0.98078
2253.02212	0.98046
2250.96832	0.97974
2248.91451	0.97866
2246.86071	0.97824
2244.80691	0.97845
2242.75310	0.97874
2240.69930	0.97898
2238.64550	0.97866
2236.59169	0.97845
2234.53789	0.97919
2232.48409	0.97938
2230.43029	0.97871
2228.37648	0.97855
2226.32268	0.97895
2224.26888	0.97937
2222.21507	0.97951
2220.16127	0.97944
2218.10747	0.97960
2216.05366	0.98041
2213.99986	0.98127
2211.94606	0.98104
2209.89225	0.98062
2207.83845	0.98069
2205.78465	0.98116
2203.73084	0.98207
2201.67704	0.98260
2199.62324	0.98300
2197.56943	0.98291
2195.51563	0.98107
2193.46183	0.97978
2191.40802	0.98081
2189.35422	0.98186
2187.30042	0.98207
2185.24661	0.98182
2183.19281	0.98207
2181.13901	0.98328
2179.08520	0.98329
2177.03140	0.98345
2174.97760	0.98617
2172.92380	0.98914
2170.86999	0.98912
2168.81619	0.98622
2166.76239	0.98266
2164.70858	0.98096
2162.65478	0.98307
2160.60098	0.98686
2158.54717	0.98771
2156.49337	0.98682
2154.43957	0.98692
2152.38576	0.98606
2150.33196	0.98502
2148.27816	0.98442
2146.22435	0.98279
2144.17055	0.98182
2142.11675	0.98221
2140.06294	0.98238
2138.00914	0.98257
2135.95534	0.98380
2133.90153	0.98522
2131.84773	0.98509
2129.79393	0.98323
2127.74012	0.98144
2125.68632	0.98132
2123.63252	0.98135
2121.57871	0.98027
2119.52491	0.97978
2117.47111	0.98012
2115.41731	0.98031
2113.36350	0.98089
2111.30970	0.98215
2109.25590	0.98334
2107.20209	0.98405
2105.14829	0.98378
2103.09449	0.98238
2101.04068	0.98103
2098.98688	0.98035
2096.93308	0.98031
2094.87927	0.98088
2092.82547	0.98143
2090.77167	0.98142
2088.71786	0.98117
2086.66406	0.98150
2084.61026	0.98233
2082.55645	0.98254
2080.50265	0.98178
2078.44885	0.98131
2076.39504	0.98175
2074.34124	0.98259
2072.28744	0.98310
2070.23363	0.98328
2068.17983	0.98406
2066.12603	0.98476
2064.07223	0.98389
2062.01842	0.98299
2059.96462	0.98362
2057.91082	0.98367
2055.85701	0.98244
2053.80321	0.98144
2051.74941	0.98032
2049.69560	0.97947
2047.64180	0.98130
2045.58800	0.98462
2043.53419	0.98545
2041.48039	0.98382
2039.42659	0.98239
2037.37278	0.98286
2035.31898	0.98438
2033.26518	0.98488
2031.21137	0.98464
2029.15757	0.98501
2027.10377	0.98621
2025.04996	0.98742
2022.99616	0.98658
2020.94236	0.98402
2018.88855	0.98309
2016.83475	0.98291
2014.78095	0.98201
2012.72714	0.98362
2010.67334	0.98594
2008.61954	0.98460
2006.56574	0.98211
2004.51193	0.98142
2002.45813	0.98361
2000.40433	0.98669
1998.35052	0.98543
1996.29672	0.98268
1994.24292	0.98366
1992.18911	0.98519
1990.13531	0.98399
1988.08151	0.98245
1986.02770	0.98176
1983.97390	0.98180
1981.92010	0.98267
1979.86629	0.98339
1977.81249	0.98485
1975.75869	0.98675
1973.70488	0.98660
1971.65108	0.98515
1969.59728	0.98409
1967.54347	0.98345
1965.48967	0.98332
1963.43587	0.98286
1961.38206	0.98184
1959.32826	0.98195
1957.27446	0.98346
1955.22066	0.98537
1953.16685	0.98635
1951.11305	0.98634
1949.05925	0.98608
1947.00544	0.98488
1944.95164	0.98301
1942.89784	0.98198
1940.84403	0.98148
1938.79023	0.98141
1936.73643	0.98234
1934.68262	0.98304
1932.62882	0.98300
1930.57502	0.98253
1928.52121	0.98190
1926.46741	0.98162
1924.41361	0.98201
1922.35980	0.98298
1920.30600	0.98331
1918.25220	0.98290
1916.19839	0.98266
1914.14459	0.98235
1912.09079	0.98208
1910.03698	0.98189
1907.98318	0.98110
1905.92938	0.98021
1903.87557	0.98020
1901.82177	0.98055
1899.76797	0.98032
1897.71417	0.97981
1895.66036	0.97994
1893.60656	0.98055
1891.55276	0.98067
1889.49895	0.98026
1887.44515	0.98050
1885.39135	0.98139
1883.33754	0.98179
1881.28374	0.98150
1879.22994	0.98121
1877.17613	0.98114
1875.12233	0.98122
1873.06853	0.98147
1871.01472	0.98181
1868.96092	0.98210
1866.90712	0.98207
1864.85331	0.98184
1862.79951	0.98134
1860.74571	0.98062
1858.69190	0.98063
1856.63810	0.98149
1854.58430	0.98198
1852.53049	0.98157
1850.47669	0.98087
1848.42289	0.98044
1846.36908	0.98040
1844.31528	0.98060
1842.26148	0.98068
1840.20768	0.98068
1838.15387	0.98095
1836.10007	0.98144
1834.04627	0.98159
1831.99246	0.98110
1829.93866	0.98041
1827.88486	0.98035
1825.83105	0.98061
1823.77725	0.98048
1821.72345	0.97994
1819.66964	0.97958
1817.61584	0.97973
1815.56204	0.97985
1813.50823	0.97983
1811.45443	0.98009
1809.40063	0.98039
1807.34682	0.98034
1805.29302	0.98011
1803.23922	0.97997
1801.18541	0.97967
1799.13161	0.97908
1797.07781	0.97860
1795.02400	0.97843
1792.97020	0.97823
1790.91640	0.97808
1788.86260	0.97839
1786.80879	0.97867
1784.75499	0.97849
1782.70119	0.97796
1780.64738	0.97753
1778.59358	0.97727
1776.53978	0.97707
1774.48597	0.97683
1772.43217	0.97638
1770.37837	0.97618
1768.32456	0.97625
1766.27076	0.97599
1764.21696	0.97547
1762.16315	0.97485
1760.10935	0.97426
1758.05555	0.97401
1756.00174	0.97397
1753.94794	0.97374
1751.89414	0.97317
1749.84033	0.97271
1747.78653	0.97224
1745.73273	0.97083
1743.67892	0.96898
1741.62512	0.96752
1739.57132	0.96634
1737.51751	0.96579
1735.46371	0.96601
1733.40991	0.96574
1731.35611	0.96461
1729.30230	0.96376
1727.24850	0.96297
1725.19470	0.96193
1723.14089	0.96111
1721.08709	0.96078
1719.03329	0.96047
1716.97948	0.95968
1714.92568	0.95803
1712.87188	0.95645
1710.81807	0.95551
1708.76427	0.95511
1706.71047	0.95493
1704.65666	0.95447
1702.60286	0.95320
1700.54906	0.95093
1698.49525	0.94888
1696.44145	0.94720
1694.38765	0.94475
1692.33384	0.94239
1690.28004	0.94023
1688.22624	0.93816
1686.17243	0.93606
1684.11863	0.93318
1682.06483	0.93069
1680.01103	0.92914
1677.95722	0.92787
1675.90342	0.92640
1673.84962	0.92459
1671.79581	0.92307
1669.74201	0.92136
1667.68821	0.91947
1665.63440	0.91789
1663.58060	0.91589
1661.52680	0.91368
1659.47299	0.91230
1657.41919	0.91157
1655.36539	0.91100
1653.31158	0.90953
1651.25778	0.90781
1649.20398	0.90725
1647.15017	0.90646
1645.09637	0.90556
1643.04257	0.90534
1640.98876	0.90530
1638.93496	0.90526
1636.88116	0.90503
1634.82735	0.90482
1632.77355	0.90532
1630.71975	0.90574
1628.66594	0.90542
1626.61214	0.90470
1624.55834	0.90441
1622.50454	0.90483
1620.45073	0.90602
1618.39693	0.90829
1616.34313	0.91225
1614.28932	0.91584
1612.23552	0.91814
1610.18172	0.92040
1608.12791	0.92289
1606.07411	0.92504
1604.02031	0.92661
1601.96650	0.92794
1599.91270	0.92942
1597.85890	0.93086
1595.80509	0.93203
1593.75129	0.93298
1591.69749	0.93392
1589.64368	0.93523
1587.58988	0.93663
1585.53608	0.93754
1583.48227	0.93804
1581.42847	0.93859
1579.37467	0.93921
1577.32086	0.94007
1575.26706	0.94129
1573.21326	0.94207
1571.15945	0.94258
1569.10565	0.94324
1567.05185	0.94367
1564.99805	0.94376
1562.94424	0.94382
1560.89044	0.94405
1558.83664	0.94431
1556.78283	0.94417
1554.72903	0.94425
1552.67523	0.94473
1550.62142	0.94524
1548.56762	0.94536
1546.51382	0.94534
1544.46001	0.94559
1542.40621	0.94595
1540.35241	0.94676
1538.29860	0.94838
1536.24480	0.94931
1534.19100	0.94971
1532.13719	0.95016
1530.08339	0.95092
1528.02959	0.95225
1525.97578	0.95387
1523.92198	0.95481
1521.86818	0.95525
1519.81437	0.95581
1517.76057	0.95616
1515.70677	0.95664
1513.65297	0.95732
1511.59916	0.95786
1509.54536	0.95837
1507.49156	0.95924
1505.43775	0.96014
1503.38395	0.96044
1501.33015	0.96055
1499.27634	0.96036
1497.22254	0.96026
1495.16874	0.96053
1493.11493	0.96048
1491.06113	0.96001
1489.00733	0.95960
1486.95352	0.95928
1484.89972	0.95841
1482.84592	0.95643
1480.79211	0.95222
1478.73831	0.94311
1476.68451	0.91997
1474.63070	0.87517
1472.57690	0.83439
1470.52310	0.83522
1468.46929	0.85020
1466.41549	0.85261
1464.36169	0.83518
1462.30788	0.82199
1460.25408	0.83450
1458.20028	0.86787
1456.14648	0.90038
1454.09267	0.91243
1452.03887	0.91779
1449.98507	0.92222
1447.93126	0.92604
1445.87746	0.92904
1443.82366	0.93104
1441.76985	0.93235
1439.71605	0.93330
1437.66225	0.93428
1435.60844	0.93558
1433.55464	0.93708
1431.50084	0.93896
1429.44703	0.94096
1427.39323	0.94253
1425.33943	0.94367
1423.28562	0.94444
1421.23182	0.94493
1419.17802	0.94520
1417.12421	0.94505
1415.07041	0.94517
1413.01661	0.94571
1410.96280	0.94619
1408.90900	0.94654
1406.85520	0.94688
1404.80139	0.94729
1402.74759	0.94779
1400.69379	0.94830
1398.63999	0.94865
1396.58618	0.94888
1394.53238	0.94902
1392.47858	0.94901
1390.42477	0.94898
1388.37097	0.94886
1386.31717	0.94834
1384.26336	0.94740
1382.20956	0.94624
1380.15576	0.94487
1378.10195	0.94331
1376.04815	0.94204
1373.99435	0.94190
1371.94054	0.94264
1369.88674	0.94327
1367.83294	0.94371
1365.77913	0.94427
1363.72533	0.94500
1361.67153	0.94588
1359.61772	0.94659
1357.56392	0.94707
1355.51012	0.94755
1353.45631	0.94798
1351.40251	0.94843
1349.34871	0.94892
1347.29491	0.94949
1345.24110	0.95027
1343.18730	0.95108
1341.13350	0.95164
1339.07969	0.95193
1337.02589	0.95211
1334.97209	0.95234
1332.91828	0.95246
1330.86448	0.95218
1328.81068	0.95189
1326.75687	0.95195
1324.70307	0.95185
1322.64927	0.95131
1320.59546	0.95081
1318.54166	0.95073
1316.48786	0.95093
1314.43405	0.95104
1312.38025	0.95082
1310.32645	0.95046
1308.27264	0.95021
1306.21884	0.95007
1304.16504	0.94984
1302.11123	0.94949
1300.05743	0.94929
1298.00363	0.94944
1295.94982	0.94950
1293.89602	0.94930
1291.84222	0.94924
1289.78842	0.94921
1287.73461	0.94894
1285.68081	0.94866
1283.62701	0.94834
1281.57320	0.94781
1279.51940	0.94733
1277.46560	0.94698
1275.41179	0.94651
1273.35799	0.94589
1271.30419	0.94526
1269.25038	0.94465
1267.19658	0.94409
1265.14278	0.94357
1263.08897	0.94293
1261.03517	0.94198
1258.98137	0.94091
1256.92756	0.94000
1254.87376	0.93927
1252.81996	0.93869
1250.76615	0.93804
1248.71235	0.93715
1246.65855	0.93616
1244.60474	0.93519
1242.55094	0.93415
1240.49714	0.93314
1238.44334	0.93221
1236.38953	0.93133
1234.33573	0.93062
1232.28193	0.92992
1230.22812	0.92905
1228.17432	0.92807
1226.12052	0.92706
1224.06671	0.92615
1222.01291	0.92524
1219.95911	0.92416
1217.90530	0.92289
1215.85150	0.92141
1213.79770	0.91966
1211.74389	0.91776
1209.69009	0.91584
1207.63629	0.91393
1205.58248	0.91206
1203.52868	0.91018
1201.47488	0.90818
1199.42107	0.90579
1197.36727	0.90294
1195.31347	0.89998
1193.25966	0.89714
1191.20586	0.89409
1189.15206	0.89059
1187.09825	0.88678
1185.04445	0.88265
1182.99065	0.87836
1180.93685	0.87402
1178.88304	0.86904
1176.82924	0.86334
1174.77544	0.85755
1172.72163	0.85199
1170.66783	0.84676
1168.61403	0.84187
1166.56022	0.83708
1164.50642	0.83264
1162.45262	0.82875
1160.39881	0.82543
1158.34501	0.82245
1156.29121	0.81931
1154.23740	0.81558
1152.18360	0.81132
1150.12980	0.80717
1148.07599	0.80355
1146.02219	0.79980
1143.96839	0.79562
1141.91458	0.79166
1139.86078	0.78822
1137.80698	0.78463
1135.75317	0.78041
1133.69937	0.77563
1131.64557	0.76991
1129.59176	0.76308
1127.53796	0.75548
1125.48416	0.74696
1123.43036	0.73727
1121.37655	0.72689
1119.32275	0.71660
1117.26895	0.70697
1115.21514	0.69823
1113.16134	0.69039
1111.10754	0.68325
1109.05373	0.67673
1106.99993	0.67081
1104.94613	0.66532
1102.89232	0.66066
1100.83852	0.65711
1098.78472	0.65425
1096.73091	0.65193
1094.67711	0.65014
1092.62331	0.64846
1090.56950	0.64643
1088.51570	0.64417
1086.46190	0.64207
1084.40809	0.64021
1082.35429	0.63822
1080.30049	0.63583
1078.24668	0.63318
1076.19288	0.63019
1074.13908	0.62665
1072.08528	0.62236
1070.03147	0.61736
1067.97767	0.61186
1065.92387	0.60574
1063.87006	0.59880
1061.81626	0.59102
1059.76246	0.58259
1057.70865	0.57361
1055.65485	0.56388
1053.60105	0.55321
1051.54724	0.54191
1049.49344	0.53035
1047.43964	0.51855
1045.38583	0.50664
1043.33203	0.49490
1041.27823	0.48343
1039.22442	0.47263
1037.17062	0.46292
1035.11682	0.45429
1033.06301	0.44695
1031.00921	0.44151
1028.95541	0.43857
1026.90160	0.43790
1024.84780	0.43877
1022.79400	0.44033
1020.74019	0.44136
1018.68639	0.44124
1016.63259	0.44028
1014.57879	0.43879
1012.52498	0.43682
1010.47118	0.43497
1008.41738	0.43383
1006.36357	0.43350
1004.30977	0.43465
1002.25597	0.43816
1000.20216	0.44414
998.14836	0.45273
996.09456	0.46408
994.04075	0.47715
991.98695	0.49073
989.93315	0.50462
987.87934	0.51911
985.82554	0.53424
983.77174	0.54951
981.71793	0.56437
979.66413	0.57893
977.61033	0.59318
975.55652	0.60667
973.50272	0.61968
971.44892	0.63315
969.39511	0.64679
967.34131	0.65926
965.28751	0.67054
963.23371	0.68120
961.17990	0.69075
959.12610	0.69860
957.07230	0.70545
955.01849	0.71197
952.96469	0.71774
950.91089	0.72265
948.85708	0.72738
946.80328	0.73183
944.74948	0.73514
942.69567	0.73750
940.64187	0.73948
938.58807	0.74129
936.53426	0.74309
934.48046	0.74480
932.42666	0.74652
930.37285	0.74809
928.31905	0.74869
926.26525	0.74819
924.21144	0.74671
922.15764	0.74388
920.10384	0.73998
918.05003	0.73551
915.99623	0.73079
913.94243	0.72728
911.88862	0.72656
909.83482	0.72936
907.78102	0.73650
905.72722	0.74745
903.67341	0.75991
901.61961	0.77211
899.56581	0.78320
897.51200	0.79277
895.45820	0.80095
893.40440	0.80775
891.35059	0.81314
889.29679	0.81767
887.24299	0.82174
885.18918	0.82527
883.13538	0.82810
881.08158	0.83020
879.02777	0.83194
876.97397	0.83408
874.92017	0.83694
872.86636	0.84022
870.81256	0.84394
868.75876	0.84778
866.70495	0.85124
864.65115	0.85464
862.59735	0.85810
860.54354	0.86119
858.48974	0.86383
856.43594	0.86635
854.38213	0.86873
852.32833	0.87076
850.27453	0.87253
848.22073	0.87400
846.16692	0.87461
844.11312	0.87412
842.05932	0.87358
840.00551	0.87367
837.95171	0.87384
835.89791	0.87346
833.84410	0.87253
831.79030	0.87144
829.73650	0.87029
827.68269	0.86886
825.62889	0.86761
823.57509	0.86682
821.52128	0.86596
819.46748	0.86514
817.41368	0.86435
815.35987	0.86333
813.30607	0.86251
811.25227	0.86182
809.19846	0.86024
807.14466	0.85667
805.09086	0.85182
803.03705	0.84720
800.98325	0.84362
798.92945	0.84123
796.87565	0.83974
794.82184	0.83911
792.76804	0.83935
790.71424	0.83974
788.66043	0.83992
786.60663	0.83983
784.55283	0.83895
782.49902	0.83778
780.44522	0.83728
778.39142	0.83732
776.33761	0.83739
774.28381	0.83730
772.23001	0.83735
770.17620	0.83735
768.12240	0.83649
766.06860	0.83467
764.01479	0.83252
761.96099	0.83026
759.90719	0.82762
757.85338	0.82522
755.79958	0.82377
753.74578	0.82283
751.69197	0.82197
749.63817	0.82123
747.58437	0.82104
745.53056	0.82160
743.47676	0.82243
741.42296	0.82372
739.36916	0.82500
737.31535	0.82312
735.26155	0.81090
733.20775	0.77941
731.15394	0.74245
729.10014	0.73401
727.04634	0.75270
724.99253	0.76396
722.93873	0.74657
720.88493	0.70243
718.83112	0.66475
716.77732	0.66817
714.72352	0.70301
712.66971	0.74001
710.61591	0.76338
708.56211	0.77287
706.50830	0.77452
704.45450	0.77301
702.40070	0.76987
700.34689	0.76541
698.29309	0.76082
696.23929	0.75802
694.18548	0.75750
692.13168	0.75801
690.07788	0.75830
688.02408	0.75839
685.97027	0.75892
683.91647	0.75940
681.86267	0.75952
679.80886	0.75973
677.75506	0.75987
675.70126	0.76024
673.64745	0.76065
671.59365	0.76034
669.53985	0.76063
667.48604	0.76467
665.43224	0.76963
663.37844	0.77293
661.32463	0.77597
659.27083	0.77833
657.21703	0.77917
655.16322	0.77888
653.10942	0.77754
651.05562	0.77593
649.00181	0.77491
646.94801	0.77417
644.89421	0.77419
642.84040	0.77497
640.78660	0.77540
638.73280	0.77510
636.67899	0.77368
634.62519	0.77166
632.57139	0.77085
630.51759	0.77124
628.46378	0.77120
626.40998	0.76970
624.35618	0.76770
622.30237	0.76635
620.24857	0.76480
618.19477	0.76209
616.14096	0.75829
614.08716	0.75421
612.03336	0.75036
609.97955	0.74612
607.92575	0.74161
605.87195	0.73733
603.81814	0.73314
601.76434	0.73056
599.71054	0.73041
597.65673	0.72984
595.60293	0.72753
593.54913	0.72473
591.49532	0.72176
589.44152	0.71876
587.38772	0.71610
585.33391	0.71366
583.28011	0.71096
581.22631	0.70791
579.17250	0.70591
577.11870	0.70466
575.06490	0.70161
573.01110	0.69663
570.95729	0.69096
568.90349	0.68534
566.84969	0.68052
564.79588	0.67561
562.74208	0.66971
560.68828	0.66314
558.63447	0.65730
556.58067	0.65259
554.52687	0.64739
552.47306	0.64268
550.41926	0.63858
548.36546	0.63233
546.31165	0.62410
544.25785	0.61472
542.20405	0.60479
540.15024	0.59574
538.09644	0.58772
536.04264	0.58145
533.98883	0.57857
531.93503	0.57817
529.88123	0.57822
527.82742	0.57889
525.77362	0.58038
523.71982	0.58212
521.66602	0.58544
519.61221	0.59122
517.55841	0.59794
515.50461	0.60424
513.45080	0.60949
511.39700	0.61351
509.34320	0.61746
507.28939	0.62275
505.23559	0.62872
503.18179	0.63287
501.12798	0.63510
499.07418	0.63628
497.02038	0.63498
494.96657	0.63221
492.91277	0.63062
490.85897	0.62949
488.80516	0.62648
486.75136	0.61979
484.69756	0.60915
482.64375	0.59651
480.58995	0.58282
478.53615	0.56826
476.48234	0.55225
474.42854	0.53440
472.37474	0.51768
470.32093	0.50527
468.26713	0.49629
466.21333	0.49132
464.15953	0.49307
462.10572	0.50196
460.05192	0.51332
457.99812	0.52247
455.94431	0.52962
453.89051	0.53706
451.83671	0.54713
449.78290	0.55678
447.72910	0.56185
445.67530	0.56510
443.62149	0.56966
441.56769	0.57287
439.51389	0.57010
437.46008	0.56240
435.40628	0.55507
433.35248	0.55184
431.29867	0.55160
429.24487	0.55187
427.19107	0.55338
425.13726	0.55881
423.08346	0.56571
421.02966	0.56955
418.97585	0.57458
416.92205	0.58473
414.86825	0.59390
412.81445	0.60432
410.76064	0.61877
408.70684	0.63218
406.65304	0.63970
404.59923	0.64328
402.54543	0.64693
400.49163	0.65243
398.43782	0.66000
