3996.70104	0.97980
3994.64724	0.97973
3992.59344	0.97980
3990.53964	0.97997
3988.48583	0.97978
3986.43203	0.97945
3984.37823	0.97918
3982.32442	0.97884
3980.27062	0.97830
3978.21682	0.97803
3976.16301	0.97846
3974.10921	0.97894
3972.05541	0.97903
3970.00160	0.97902
3967.94780	0.97884
3965.89400	0.97875
3963.84019	0.97893
3961.78639	0.97889
3959.73259	0.97872
3957.67878	0.97900
3955.62498	0.97949
3953.57118	0.97940
3951.51737	0.97906
3949.46357	0.97931
3947.40977	0.97969
3945.35596	0.97943
3943.30216	0.97870
3941.24836	0.97838
3939.19455	0.97889
3937.14075	0.97929
3935.08695	0.97880
3933.03315	0.97811
3930.97934	0.97859
3928.92554	0.97956
3926.87174	0.97965
3924.81793	0.97931
3922.76413	0.97911
3920.71033	0.97879
3918.65652	0.97847
3916.60272	0.97873
3914.54892	0.97933
3912.49511	0.97964
3910.44131	0.97958
3908.38751	0.97903
3906.33370	0.97834
3904.27990	0.97837
3902.22610	0.97885
3900.17229	0.97914
3898.11849	0.97972
3896.06469	0.98009
3894.01088	0.97974
3891.95708	0.97956
3889.90328	0.97985
3887.84947	0.97965
3885.79567	0.97931
3883.74187	0.97976
3881.68807	0.98019
3879.63426	0.97984
3877.58046	0.97954
3875.52666	0.97964
3873.47285	0.97971
3871.41905	0.97992
3869.36525	0.98022
3867.31144	0.97987
3865.25764	0.97914
3863.20384	0.97848
3861.15003	0.97847
3859.09623	0.97904
3857.04243	0.97900
3854.98862	0.97766
3852.93482	0.97676
3850.88102	0.97832
3848.82721	0.97943
3846.77341	0.97917
3844.71961	0.97850
3842.66580	0.97843
3840.61200	0.97893
3838.55820	0.97952
3836.50439	0.97982
3834.45059	0.97983
3832.39679	0.97976
3830.34298	0.97979
3828.28918	0.98000
3826.23538	0.98021
3824.18158	0.98035
3822.12777	0.98043
3820.07397	0.98045
3818.02017	0.98043
3815.96636	0.98021
3813.91256	0.98008
3811.85876	0.98014
3809.80495	0.98005
3807.75115	0.97983
3805.69735	0.97980
3803.64354	0.97980
3801.58974	0.97999
3799.53594	0.98039
3797.48213	0.98009
3795.42833	0.97964
3793.37453	0.97987
3791.32072	0.98020
3789.26692	0.98025
3787.21312	0.98038
3785.15931	0.98062
3783.10551	0.98044
3781.05171	0.97994
3778.99790	0.97961
3776.94410	0.97933
3774.89030	0.97917
3772.83650	0.97923
3770.78269	0.97907
3768.72889	0.97901
3766.67509	0.97948
3764.62128	0.97965
3762.56748	0.97941
3760.51368	0.97966
3758.45987	0.98060
3756.40607	0.98121
3754.35227	0.98113
3752.29846	0.98081
3750.24466	0.98048
3748.19086	0.97977
3746.13705	0.97883
3744.08325	0.97901
3742.02945	0.97994
3739.97564	0.98026
3737.92184	0.98039
3735.86804	0.98036
3733.81423	0.98005
3731.76043	0.97958
3729.70663	0.97895
3727.65282	0.97841
3725.59902	0.97829
3723.54522	0.97796
3721.49141	0.97726
3719.43761	0.97696
3717.38381	0.97622
3715.33001	0.97485
3713.27620	0.97376
3711.22240	0.97222
3709.16860	0.96920
3707.11479	0.96620
3705.06099	0.96371
3703.00719	0.96113
3700.95338	0.95801
3698.89958	0.95533
3696.84578	0.95442
3694.79197	0.95492
3692.73817	0.95588
3690.68437	0.95750
3688.63056	0.95974
3686.57676	0.96155
3684.52296	0.96280
3682.46915	0.96345
3680.41535	0.96360
3678.36155	0.96389
3676.30774	0.96406
3674.25394	0.96329
3672.20014	0.96298
3670.14633	0.96310
3668.09253	0.96241
3666.03873	0.96152
3663.98492	0.96138
3661.93112	0.96158
3659.87732	0.96086
3657.82352	0.95941
3655.76971	0.95824
3653.71591	0.95746
3651.66211	0.95679
3649.60830	0.95644
3647.55450	0.95662
3645.50070	0.95659
3643.44689	0.95618
3641.39309	0.95573
3639.33929	0.95549
3637.28548	0.95532
3635.23168	0.95503
3633.17788	0.95460
3631.12407	0.95443
3629.07027	0.95399
3627.01647	0.95162
3624.96266	0.94914
3622.90886	0.94798
3620.85506	0.94786
3618.80125	0.94828
3616.74745	0.94926
3614.69365	0.95056
3612.63984	0.95145
3610.58604	0.95162
3608.53224	0.95157
3606.47844	0.95180
3604.42463	0.95201
3602.37083	0.95172
3600.31703	0.95156
3598.26322	0.95193
3596.20942	0.95195
3594.15562	0.95166
3592.10181	0.95142
3590.04801	0.95147
3587.99421	0.95225
3585.94040	0.95253
3583.88660	0.95167
3581.83280	0.95092
3579.77899	0.95055
3577.72519	0.95020
3575.67139	0.94970
3573.61758	0.94920
3571.56378	0.94913
3569.50998	0.94906
3567.45617	0.94791
3565.40237	0.94703
3563.34857	0.94749
3561.29476	0.94769
3559.24096	0.94735
3557.18716	0.94683
3555.13335	0.94574
3553.07955	0.94451
3551.02575	0.94416
3548.97195	0.94448
3546.91814	0.94453
3544.86434	0.94399
3542.81054	0.94363
3540.75673	0.94361
3538.70293	0.94345
3536.64913	0.94340
3534.59532	0.94341
3532.54152	0.94292
3530.48772	0.94222
3528.43391	0.94159
3526.38011	0.94132
3524.32631	0.94197
3522.27250	0.94283
3520.21870	0.94300
3518.16490	0.94282
3516.11109	0.94303
3514.05729	0.94361
3512.00349	0.94379
3509.94968	0.94351
3507.89588	0.94322
3505.84208	0.94274
3503.78827	0.94190
3501.73447	0.94161
3499.68067	0.94204
3497.62687	0.94226
3495.57306	0.94214
3493.51926	0.94197
3491.46546	0.94197
3489.41165	0.94207
3487.35785	0.94179
3485.30405	0.94109
3483.25024	0.94050
3481.19644	0.94048
3479.14264	0.94074
3477.08883	0.94059
3475.03503	0.94031
3472.98123	0.94006
3470.92742	0.93959
3468.87362	0.93926
3466.81982	0.93925
3464.76601	0.93933
3462.71221	0.93925
3460.65841	0.93896
3458.60460	0.93876
3456.55080	0.93855
3454.49700	0.93799
3452.44319	0.93722
3450.38939	0.93664
3448.33559	0.93661
3446.28178	0.93685
3444.22798	0.93696
3442.17418	0.93675
3440.12038	0.93604
3438.06657	0.93527
3436.01277	0.93500
3433.95897	0.93499
3431.90516	0.93495
3429.85136	0.93520
3427.79756	0.93540
3425.74375	0.93478
3423.68995	0.93361
3421.63615	0.93260
3419.58234	0.93208
3417.52854	0.93217
3415.47474	0.93215
3413.42093	0.93158
3411.36713	0.93117
3409.31333	0.93092
3407.25952	0.93059
3405.20572	0.93034
3403.15192	0.93020
3401.09811	0.93034
3399.04431	0.93075
3396.99051	0.93097
3394.93670	0.93076
3392.88290	0.93025
3390.82910	0.92963
3388.77529	0.92960
3386.72149	0.93046
3384.66769	0.93134
3382.61389	0.93153
3380.56008	0.93132
3378.50628	0.93126
3376.45248	0.93158
3374.39867	0.93185
3372.34487	0.93184
3370.29107	0.93190
3368.23726	0.93224
3366.18346	0.93281
3364.12966	0.93314
3362.07585	0.93332
3360.02205	0.93373
3357.96825	0.93391
3355.91444	0.93392
3353.86064	0.93401
3351.80684	0.93403
3349.75303	0.93398
3347.69923	0.93380
3345.64543	0.93355
3343.59162	0.93380
3341.53782	0.93442
3339.48402	0.93475
3337.43021	0.93478
3335.37641	0.93434
3333.32261	0.93374
3331.26881	0.93375
3329.21500	0.93405
3327.16120	0.93429
3325.10740	0.93452
3323.05359	0.93442
3320.99979	0.93437
3318.94599	0.93501
3316.89218	0.93574
3314.83838	0.93577
3312.78458	0.93533
3310.73077	0.93478
3308.67697	0.93444
3306.62317	0.93465
3304.56936	0.93521
3302.51556	0.93566
3300.46176	0.93559
3298.40795	0.93523
3296.35415	0.93524
3294.30035	0.93535
3292.24654	0.93529
3290.19274	0.93570
3288.13894	0.93644
3286.08513	0.93651
3284.03133	0.93617
3281.97753	0.93633
3279.92372	0.93682
3277.86992	0.93698
3275.81612	0.93700
3273.76232	0.93723
3271.70851	0.93762
3269.65471	0.93816
3267.60091	0.93866
3265.54710	0.93894
3263.49330	0.93901
3261.43950	0.93919
3259.38569	0.93975
3257.33189	0.94017
3255.27809	0.94008
3253.22428	0.93988
3251.17048	0.93995
3249.11668	0.94039
3247.06287	0.94107
3245.00907	0.94156
3242.95527	0.94170
3240.90146	0.94190
3238.84766	0.94221
3236.79386	0.94232
3234.74005	0.94225
3232.68625	0.94229
3230.63245	0.94269
3228.57864	0.94308
3226.52484	0.94322
3224.47104	0.94327
3222.41724	0.94324
3220.36343	0.94352
3218.30963	0.94431
3216.25583	0.94513
3214.20202	0.94554
3212.14822	0.94535
3210.09442	0.94498
3208.04061	0.94509
3205.98681	0.94581
3203.93301	0.94673
3201.87920	0.94742
3199.82540	0.94788
3197.77160	0.94821
3195.71779	0.94832
3193.66399	0.94814
3191.61019	0.94790
3189.55638	0.94778
3187.50258	0.94816
3185.44878	0.94917
3183.39497	0.94986
3181.34117	0.94998
3179.28737	0.95041
3177.23356	0.95095
3175.17976	0.95105
3173.12596	0.95135
3171.07215	0.95195
3169.01835	0.95230
3166.96455	0.95249
3164.91075	0.95261
3162.85694	0.95262
3160.80314	0.95268
3158.74934	0.95299
3156.69553	0.95360
3154.64173	0.95433
3152.58793	0.95475
3150.53412	0.95481
3148.48032	0.95487
3146.42652	0.95508
3144.37271	0.95555
3142.31891	0.95613
3140.26511	0.95633
3138.21130	0.95620
3136.15750	0.95637
3134.10370	0.95706
3132.04989	0.95776
3129.99609	0.95810
3127.94229	0.95811
3125.88848	0.95811
3123.83468	0.95840
3121.78088	0.95865
3119.72707	0.95851
3117.67327	0.95855
3115.61947	0.95893
3113.56566	0.95903
3111.51186	0.95883
3109.45806	0.95870
3107.40426	0.95890
3105.35045	0.95925
3103.29665	0.95950
3101.24285	0.95953
3099.18904	0.95944
3097.13524	0.95953
3095.08144	0.95957
3093.02763	0.95939
3090.97383	0.95946
3088.92003	0.95979
3086.86622	0.95997
3084.81242	0.96007
3082.75862	0.96035
3080.70481	0.96073
3078.65101	0.96103
3076.59721	0.96115
3074.54340	0.96106
3072.48960	0.96081
3070.43580	0.96067
3068.38199	0.96085
3066.32819	0.96122
3064.27439	0.96159
3062.22058	0.96203
3060.16678	0.96222
3058.11298	0.96194
3056.05918	0.96191
3054.00537	0.96225
3051.95157	0.96205
3049.89777	0.96156
3047.84396	0.96177
3045.79016	0.96253
3043.73636	0.96292
3041.68255	0.96270
3039.62875	0.96262
3037.57495	0.96286
3035.52114	0.96291
3033.46734	0.96306
3031.41354	0.96350
3029.35973	0.96368
3027.30593	0.96357
3025.25213	0.96346
3023.19832	0.96346
3021.14452	0.96365
3019.09072	0.96391
3017.03691	0.96417
3014.98311	0.96423
3012.92931	0.96400
3010.87550	0.96388
3008.82170	0.96399
3006.76790	0.96401
3004.71409	0.96383
3002.66029	0.96369
3000.60649	0.96381
2998.55269	0.96421
2996.49888	0.96455
2994.44508	0.96438
2992.39128	0.96384
2990.33747	0.96335
2988.28367	0.96283
2986.22987	0.96232
2984.17606	0.96184
2982.12226	0.96098
2980.06846	0.95983
2978.01465	0.95871
2975.96085	0.95760
2973.90705	0.95627
2971.85324	0.95436
2969.79944	0.95181
2967.74564	0.94893
2965.69183	0.94592
2963.63803	0.94290
2961.58423	0.94001
2959.53042	0.93701
2957.47662	0.93404
2955.42282	0.93190
2953.36901	0.93074
2951.31521	0.92983
2949.26141	0.92854
2947.20761	0.92620
2945.15380	0.92191
2943.10000	0.91494
2941.04620	0.90537
2938.99239	0.89391
2936.93859	0.88044
2934.88479	0.86410
2932.83098	0.84460
2930.77718	0.82162
2928.72338	0.79471
2926.66957	0.76322
2924.61577	0.72628
2922.56197	0.68384
2920.50816	0.63766
2918.45436	0.59303
2916.40056	0.56027
2914.34675	0.55089
2912.29295	0.56742
2910.23915	0.60019
2908.18534	0.63647
2906.13154	0.66862
2904.07774	0.69465
2902.02393	0.71531
2899.97013	0.73197
2897.91633	0.74589
2895.86252	0.75827
2893.80872	0.77024
2891.75492	0.78236
2889.70112	0.79468
2887.64731	0.80732
2885.59351	0.82019
2883.53971	0.83272
2881.48590	0.84477
2879.43210	0.85675
2877.37830	0.86821
2875.32449	0.87782
2873.27069	0.88545
2871.21689	0.89138
2869.16308	0.89477
2867.10928	0.89511
2865.05548	0.89209
2863.00167	0.88465
2860.94787	0.87142
2858.89407	0.85070
2856.84026	0.82006
2854.78646	0.77621
2852.73266	0.71788
2850.67885	0.65363
2848.62505	0.60602
2846.57125	0.59699
2844.51744	0.62689
2842.46364	0.67722
2840.40984	0.72964
2838.35603	0.77465
2836.30223	0.80997
2834.24843	0.83699
2832.19463	0.85771
2830.14082	0.87368
2828.08702	0.88598
2826.03322	0.89571
2823.97941	0.90372
2821.92561	0.91045
2819.87181	0.91616
2817.81800	0.92089
2815.76420	0.92460
2813.71040	0.92778
2811.65659	0.93086
2809.60279	0.93375
2807.54899	0.93629
2805.49518	0.93837
2803.44138	0.94010
2801.38758	0.94178
2799.33377	0.94369
2797.27997	0.94548
2795.22617	0.94669
2793.17236	0.94783
2791.11856	0.94935
2789.06476	0.95079
2787.01095	0.95204
2784.95715	0.95334
2782.90335	0.95448
2780.84955	0.95521
2778.79574	0.95572
2776.74194	0.95631
2774.68814	0.95711
2772.63433	0.95808
2770.58053	0.95891
2768.52673	0.95950
2766.47292	0.95994
2764.41912	0.96005
2762.36532	0.96006
2760.31151	0.96027
2758.25771	0.96070
2756.20391	0.96134
2754.15010	0.96189
2752.09630	0.96200
2750.04250	0.96185
2747.98869	0.96186
2745.93489	0.96204
2743.88109	0.96231
2741.82728	0.96275
2739.77348	0.96311
2737.71968	0.96321
2735.66587	0.96332
2733.61207	0.96351
2731.55827	0.96364
2729.50446	0.96383
2727.45066	0.96415
2725.39686	0.96444
2723.34306	0.96474
2721.28925	0.96522
2719.23545	0.96571
2717.18165	0.96609
2715.12784	0.96641
2713.07404	0.96665
2711.02024	0.96679
2708.96643	0.96685
2706.91263	0.96685
2704.85883	0.96688
2702.80502	0.96692
2700.75122	0.96692
2698.69742	0.96692
2696.64361	0.96699
2694.58981	0.96714
2692.53601	0.96738
2690.48220	0.96763
2688.42840	0.96774
2686.37460	0.96767
2684.32079	0.96750
2682.26699	0.96758
2680.21319	0.96773
2678.15938	0.96754
2676.10558	0.96732
2674.05178	0.96734
2671.99797	0.96729
2669.94417	0.96713
2667.89037	0.96729
2665.83657	0.96762
2663.78276	0.96776
2661.72896	0.96774
2659.67516	0.96757
2657.62135	0.96734
2655.56755	0.96715
2653.51375	0.96721
2651.45994	0.96761
2649.40614	0.96788
2647.35234	0.96800
2645.29853	0.96802
2643.24473	0.96780
2641.19093	0.96761
2639.13712	0.96752
2637.08332	0.96747
2635.02952	0.96773
2632.97571	0.96817
2630.92191	0.96822
2628.86811	0.96803
2626.81430	0.96818
2624.76050	0.96882
2622.70670	0.96970
2620.65289	0.97032
2618.59909	0.97048
2616.54529	0.97093
2614.49149	0.97156
2612.43768	0.97127
2610.38388	0.97081
2608.33008	0.97121
2606.27627	0.97182
2604.22247	0.97202
2602.16867	0.97199
2600.11486	0.97177
2598.06106	0.97158
2596.00726	0.97199
2593.95345	0.97279
2591.89965	0.97339
2589.84585	0.97349
2587.79204	0.97310
2585.73824	0.97244
2583.68444	0.97215
2581.63063	0.97255
2579.57683	0.97312
2577.52303	0.97352
2575.46922	0.97379
2573.41542	0.97368
2571.36162	0.97328
2569.30781	0.97353
2567.25401	0.97437
2565.20021	0.97488
2563.14640	0.97489
2561.09260	0.97437
2559.03880	0.97380
2556.98500	0.97400
2554.93119	0.97478
2552.87739	0.97524
2550.82359	0.97492
2548.76978	0.97453
2546.71598	0.97455
2544.66218	0.97443
2542.60837	0.97448
2540.55457	0.97544
2538.50077	0.97638
2536.44696	0.97579
2534.39316	0.97457
2532.33936	0.97453
2530.28555	0.97509
2528.23175	0.97520
2526.17795	0.97549
2524.12414	0.97654
2522.07034	0.97744
2520.01654	0.97751
2517.96273	0.97693
2515.90893	0.97629
2513.85513	0.97600
2511.80132	0.97586
2509.74752	0.97599
2507.69372	0.97668
2505.63992	0.97738
2503.58611	0.97718
2501.53231	0.97652
2499.47851	0.97644
2497.42470	0.97641
2495.37090	0.97585
2493.31710	0.97545
2491.26329	0.97592
2489.20949	0.97686
2487.15569	0.97721
2485.10188	0.97690
2483.04808	0.97668
2480.99428	0.97657
2478.94047	0.97647
2476.88667	0.97635
2474.83287	0.97626
2472.77906	0.97681
2470.72526	0.97779
2468.67146	0.97806
2466.61765	0.97764
2464.56385	0.97743
2462.51005	0.97758
2460.45624	0.97790
2458.40244	0.97818
2456.34864	0.97801
2454.29483	0.97729
2452.24103	0.97656
2450.18723	0.97641
2448.13343	0.97708
2446.07962	0.97789
2444.02582	0.97786
2441.97202	0.97761
2439.91821	0.97793
2437.86441	0.97825
2435.81061	0.97819
2433.75680	0.97799
2431.70300	0.97773
2429.64920	0.97774
2427.59539	0.97806
2425.54159	0.97823
2423.48779	0.97822
2421.43398	0.97822
2419.38018	0.97834
2417.32638	0.97852
2415.27257	0.97853
2413.21877	0.97841
2411.16497	0.97818
2409.11116	0.97755
2407.05736	0.97690
2405.00356	0.97692
2402.94975	0.97762
2400.89595	0.97817
2398.84215	0.97808
2396.78834	0.97787
2394.73454	0.97788
2392.68074	0.97802
2390.62694	0.97826
2388.57313	0.97839
2386.51933	0.97834
2384.46553	0.97830
2382.41172	0.97808
2380.35792	0.97782
2378.30412	0.97806
2376.25031	0.97838
2374.19651	0.97832
2372.14271	0.97818
2370.08890	0.97799
2368.03510	0.97781
2365.98130	0.97797
2363.92749	0.97794
2361.87369	0.97721
2359.81989	0.97627
2357.76608	0.97571
2355.71228	0.97616
2353.65848	0.97647
2351.60467	0.97593
2349.55087	0.97565
2347.49707	0.97594
2345.44326	0.97622
2343.38946	0.97608
2341.33566	0.97566
2339.28186	0.97547
2337.22805	0.97599
2335.17425	0.97706
2333.12045	0.97767
2331.06664	0.97747
2329.01284	0.97694
2326.95904	0.97628
2324.90523	0.97639
2322.85143	0.97755
2320.79763	0.97786
2318.74382	0.97681
2316.69002	0.97614
2314.63622	0.97653
2312.58241	0.97707
2310.52861	0.97745
2308.47481	0.97807
2306.42100	0.97823
2304.36720	0.97763
2302.31340	0.97737
2300.25959	0.97770
2298.20579	0.97796
2296.15199	0.97816
2294.09818	0.97840
2292.04438	0.97833
2289.99058	0.97824
2287.93677	0.97815
2285.88297	0.97724
2283.82917	0.97587
2281.77537	0.97548
2279.72156	0.97609
2277.66776	0.97617
2275.61396	0.97569
2273.56015	0.97571
2271.50635	0.97628
2269.45255	0.97696
2267.39874	0.97787
2265.34494	0.97922
2263.29114	0.98017
2261.23733	0.97964
2259.18353	0.97861
2257.12973	0.97910
2255.07592	0.98036
2253.02212	0.98106
2250.96832	0.98179
2248.91451	0.98195
2246.86071	0.98090
2244.80691	0.97904
2242.75310	0.97749
2240.69930	0.97777
2238.64550	0.97840
2236.59169	0.97857
2234.53789	0.98051
2232.48409	0.98296
2230.43029	0.98245
2228.37648	0.97961
2226.32268	0.97745
2224.26888	0.97689
2222.21507	0.97734
2220.16127	0.97845
2218.10747	0.97932
2216.05366	0.97934
2213.99986	0.97858
2211.94606	0.97759
2209.89225	0.97785
2207.83845	0.97900
2205.78465	0.98007
2203.73084	0.98137
2201.67704	0.98183
2199.62324	0.98063
2197.56943	0.97883
2195.51563	0.97771
2193.46183	0.97807
2191.40802	0.97843
2189.35422	0.97783
2187.30042	0.97894
2185.24661	0.98103
2183.19281	0.98127
2181.13901	0.98128
2179.08520	0.98121
2177.03140	0.97991
2174.97760	0.97834
2172.92380	0.97747
2170.86999	0.97783
2168.81619	0.97780
2166.76239	0.97600
2164.70858	0.97517
2162.65478	0.97659
2160.60098	0.97855
2158.54717	0.98168
2156.49337	0.98379
2154.43957	0.98246
2152.38576	0.98187
2150.33196	0.98436
2148.27816	0.98577
2146.22435	0.98402
2144.17055	0.98152
2142.11675	0.97996
2140.06294	0.98092
2138.00914	0.98316
2135.95534	0.98400
2133.90153	0.98453
2131.84773	0.98474
2129.79393	0.98286
2127.74012	0.98093
2125.68632	0.98095
2123.63252	0.98116
2121.57871	0.98100
2119.52491	0.98149
2117.47111	0.98218
2115.41731	0.98144
2113.36350	0.97908
2111.30970	0.97780
2109.25590	0.97847
2107.20209	0.97900
2105.14829	0.97947
2103.09449	0.98088
2101.04068	0.98207
2098.98688	0.98193
2096.93308	0.98127
2094.87927	0.98148
2092.82547	0.98231
2090.77167	0.98237
2088.71786	0.98159
2086.66406	0.98125
2084.61026	0.98141
2082.55645	0.98096
2080.50265	0.98056
2078.44885	0.98093
2076.39504	0.98076
2074.34124	0.98055
2072.28744	0.98108
2070.23363	0.98141
2068.17983	0.98140
2066.12603	0.98120
2064.07223	0.98114
2062.01842	0.98180
2059.96462	0.98243
2057.91082	0.98212
2055.85701	0.98114
2053.80321	0.98000
2051.74941	0.97938
2049.69560	0.98062
2047.64180	0.98318
2045.58800	0.98365
2043.53419	0.98134
2041.48039	0.98051
2039.42659	0.98218
2037.37278	0.98205
2035.31898	0.98047
2033.26518	0.98098
2031.21137	0.98084
2029.15757	0.97875
2027.10377	0.97983
2025.04996	0.98312
2022.99616	0.98393
2020.94236	0.98333
2018.88855	0.98230
2016.83475	0.98121
2014.78095	0.98140
2012.72714	0.98076
2010.67334	0.97892
2008.61954	0.97869
2006.56574	0.98042
2004.51193	0.98269
2002.45813	0.98398
2000.40433	0.98268
1998.35052	0.98062
1996.29672	0.98116
1994.24292	0.98202
1992.18911	0.98022
1990.13531	0.97780
1988.08151	0.97708
1986.02770	0.97795
1983.97390	0.97917
1981.92010	0.98022
1979.86629	0.98095
1977.81249	0.97969
1975.75869	0.97818
1973.70488	0.97998
1971.65108	0.98091
1969.59728	0.97824
1967.54347	0.97643
1965.48967	0.97819
1963.43587	0.98167
1961.38206	0.98441
1959.32826	0.98531
1957.27446	0.98428
1955.22066	0.98250
1953.16685	0.98173
1951.11305	0.98199
1949.05925	0.98135
1947.00544	0.97929
1944.95164	0.97781
1942.89784	0.97792
1940.84403	0.97875
1938.79023	0.97899
1936.73643	0.97869
1934.68262	0.97848
1932.62882	0.97837
1930.57502	0.97794
1928.52121	0.97794
1926.46741	0.97969
1924.41361	0.98146
1922.35980	0.98146
1920.30600	0.98103
1918.25220	0.98076
1916.19839	0.98047
1914.14459	0.98059
1912.09079	0.98083
1910.03698	0.98081
1907.98318	0.98097
1905.92938	0.98106
1903.87557	0.98044
1901.82177	0.97949
1899.76797	0.97907
1897.71417	0.97942
1895.66036	0.97985
1893.60656	0.97980
1891.55276	0.97955
1889.49895	0.97988
1887.44515	0.98111
1885.39135	0.98216
1883.33754	0.98232
1881.28374	0.98193
1879.22994	0.98165
1877.17613	0.98160
1875.12233	0.98155
1873.06853	0.98135
1871.01472	0.98119
1868.96092	0.98089
1866.90712	0.98040
1864.85331	0.98021
1862.79951	0.98020
1860.74571	0.98021
1858.69190	0.98014
1856.63810	0.98000
1854.58430	0.97979
1852.53049	0.97950
1850.47669	0.97933
1848.42289	0.97970
1846.36908	0.98013
1844.31528	0.97988
1842.26148	0.97969
1840.20768	0.97978
1838.15387	0.97967
1836.10007	0.97961
1834.04627	0.97983
1831.99246	0.97997
1829.93866	0.98013
1827.88486	0.98020
1825.83105	0.97997
1823.77725	0.98017
1821.72345	0.98042
1819.66964	0.98003
1817.61584	0.97966
1815.56204	0.97996
1813.50823	0.98062
1811.45443	0.98089
1809.40063	0.98041
1807.34682	0.97966
1805.29302	0.97928
1803.23922	0.97944
1801.18541	0.97973
1799.13161	0.97946
1797.07781	0.97893
1795.02400	0.97879
1792.97020	0.97888
1790.91640	0.97893
1788.86260	0.97897
1786.80879	0.97874
1784.75499	0.97854
1782.70119	0.97864
1780.64738	0.97881
1778.59358	0.97902
1776.53978	0.97899
1774.48597	0.97866
1772.43217	0.97810
1770.37837	0.97726
1768.32456	0.97690
1766.27076	0.97703
1764.21696	0.97684
1762.16315	0.97638
1760.10935	0.97588
1758.05555	0.97506
1756.00174	0.97417
1753.94794	0.97385
1751.89414	0.97374
1749.84033	0.97289
1747.78653	0.97146
1745.73273	0.96991
1743.67892	0.96821
1741.62512	0.96684
1739.57132	0.96599
1737.51751	0.96545
1735.46371	0.96538
1733.40991	0.96528
1731.35611	0.96480
1729.30230	0.96465
1727.24850	0.96467
1725.19470	0.96430
1723.14089	0.96329
1721.08709	0.96214
1719.03329	0.96098
1716.97948	0.95888
1714.92568	0.95667
1712.87188	0.95582
1710.81807	0.95603
1708.76427	0.95667
1706.71047	0.95702
1704.65666	0.95689
1702.60286	0.95652
1700.54906	0.95555
1698.49525	0.95444
1696.44145	0.95383
1694.38765	0.95315
1692.33384	0.95257
1690.28004	0.95159
1688.22624	0.95005
1686.17243	0.94884
1684.11863	0.94759
1682.06483	0.94584
1680.01103	0.94453
1677.95722	0.94378
1675.90342	0.94293
1673.84962	0.94146
1671.79581	0.94011
1669.74201	0.93870
1667.68821	0.93733
1665.63440	0.93658
1663.58060	0.93569
1661.52680	0.93430
1659.47299	0.93308
1657.41919	0.93222
1655.36539	0.93142
1653.31158	0.93062
1651.25778	0.93046
1649.20398	0.93022
1647.15017	0.92941
1645.09637	0.92903
1643.04257	0.92925
1640.98876	0.92945
1638.93496	0.92959
1636.88116	0.92953
1634.82735	0.92922
1632.77355	0.92910
1630.71975	0.92937
1628.66594	0.92981
1626.61214	0.92997
1624.55834	0.93006
1622.50454	0.93067
1620.45073	0.93157
1618.39693	0.93289
1616.34313	0.93516
1614.28932	0.93701
1612.23552	0.93800
1610.18172	0.93890
1608.12791	0.93978
1606.07411	0.94044
1604.02031	0.94101
1601.96650	0.94160
1599.91270	0.94185
1597.85890	0.94151
1595.80509	0.94086
1593.75129	0.93997
1591.69749	0.93872
1589.64368	0.93692
1587.58988	0.93412
1585.53608	0.92999
1583.48227	0.92453
1581.42847	0.91820
1579.37467	0.91273
1577.32086	0.90936
1575.26706	0.90878
1573.21326	0.91060
1571.15945	0.91370
1569.10565	0.91841
1567.05185	0.92279
1564.99805	0.92569
1562.94424	0.92739
1560.89044	0.92799
1558.83664	0.92839
1556.78283	0.92900
1554.72903	0.92851
1552.67523	0.92700
1550.62142	0.92455
1548.56762	0.92113
1546.51382	0.91714
1544.46001	0.91183
1542.40621	0.90614
1540.35241	0.90441
1538.29860	0.90861
1536.24480	0.91398
1534.19100	0.92142
1532.13719	0.93019
1530.08339	0.93586
1528.02959	0.93972
1525.97578	0.94302
1523.92198	0.94592
1521.86818	0.94887
1519.81437	0.95087
1517.76057	0.95179
1515.70677	0.95273
1513.65297	0.95359
1511.59916	0.95428
1509.54536	0.95499
1507.49156	0.95620
1505.43775	0.95779
1503.38395	0.95850
1501.33015	0.95900
1499.27634	0.95948
1497.22254	0.95946
1495.16874	0.95884
1493.11493	0.95842
1491.06113	0.95795
1489.00733	0.95631
1486.95352	0.95317
1484.89972	0.94913
1482.84592	0.94375
1480.79211	0.93601
1478.73831	0.92391
1476.68451	0.89814
1474.63070	0.85046
1472.57690	0.80680
1470.52310	0.80555
1468.46929	0.81911
1466.41549	0.82005
1464.36169	0.80046
1462.30788	0.78618
1460.25408	0.80082
1458.20028	0.83957
1456.14648	0.87798
1454.09267	0.89335
1452.03887	0.90095
1449.98507	0.90718
1447.93126	0.91247
1445.87746	0.91627
1443.82366	0.91841
1441.76985	0.91972
1439.71605	0.92045
1437.66225	0.92047
1435.60844	0.92058
1433.55464	0.92205
1431.50084	0.92456
1429.44703	0.92747
1427.39323	0.92971
1425.33943	0.93094
1423.28562	0.93165
1421.23182	0.93221
1419.17802	0.93296
1417.12421	0.93421
1415.07041	0.93568
1413.01661	0.93728
1410.96280	0.93905
1408.90900	0.94071
1406.85520	0.94232
1404.80139	0.94423
1402.74759	0.94590
1400.69379	0.94723
1398.63999	0.94851
1396.58618	0.94939
1394.53238	0.95002
1392.47858	0.95066
1390.42477	0.95109
1388.37097	0.95130
1386.31717	0.95095
1384.26336	0.94999
1382.20956	0.94895
1380.15576	0.94779
1378.10195	0.94671
1376.04815	0.94609
1373.99435	0.94604
1371.94054	0.94641
1369.88674	0.94685
1367.83294	0.94733
1365.77913	0.94800
1363.72533	0.94895
1361.67153	0.95025
1359.61772	0.95142
1357.56392	0.95199
1355.51012	0.95213
1353.45631	0.95232
1351.40251	0.95267
1349.34871	0.95320
1347.29491	0.95394
1345.24110	0.95445
1343.18730	0.95450
1341.13350	0.95443
1339.07969	0.95457
1337.02589	0.95505
1334.97209	0.95563
1332.91828	0.95593
1330.86448	0.95581
1328.81068	0.95558
1326.75687	0.95550
1324.70307	0.95538
1322.64927	0.95505
1320.59546	0.95444
1318.54166	0.95374
1316.48786	0.95345
1314.43405	0.95328
1312.38025	0.95284
1310.32645	0.95245
1308.27264	0.95218
1306.21884	0.95180
1304.16504	0.95142
1302.11123	0.95141
1300.05743	0.95147
1298.00363	0.95113
1295.94982	0.95087
1293.89602	0.95110
1291.84222	0.95140
1289.78842	0.95151
1287.73461	0.95167
1285.68081	0.95195
1283.62701	0.95216
1281.57320	0.95189
1279.51940	0.95121
1277.46560	0.95079
1275.41179	0.95082
1273.35799	0.95081
1271.30419	0.95053
1269.25038	0.95005
1267.19658	0.94950
1265.14278	0.94871
1263.08897	0.94777
1261.03517	0.94722
1258.98137	0.94708
1256.92756	0.94716
1254.87376	0.94750
1252.81996	0.94794
1250.76615	0.94799
1248.71235	0.94761
1246.65855	0.94720
1244.60474	0.94703
1242.55094	0.94678
1240.49714	0.94625
1238.44334	0.94549
1236.38953	0.94459
1234.33573	0.94405
1232.28193	0.94390
1230.22812	0.94373
1228.17432	0.94354
1226.12052	0.94343
1224.06671	0.94323
1222.01291	0.94283
1219.95911	0.94228
1217.90530	0.94176
1215.85150	0.94126
1213.79770	0.94045
1211.74389	0.93949
1209.69009	0.93873
1207.63629	0.93810
1205.58248	0.93734
1203.52868	0.93646
1201.47488	0.93574
1199.42107	0.93494
1197.36727	0.93383
1195.31347	0.93270
1193.25966	0.93106
1191.20586	0.92868
1189.15206	0.92646
1187.09825	0.92471
1185.04445	0.92294
1182.99065	0.92081
1180.93685	0.91816
1178.88304	0.91518
1176.82924	0.91216
1174.77544	0.90906
1172.72163	0.90587
1170.66783	0.90298
1168.61403	0.90041
1166.56022	0.89756
1164.50642	0.89452
1162.45262	0.89194
1160.39881	0.89003
1158.34501	0.88853
1156.29121	0.88704
1154.23740	0.88551
1152.18360	0.88375
1150.12980	0.88161
1148.07599	0.87947
1146.02219	0.87768
1143.96839	0.87628
1141.91458	0.87495
1139.86078	0.87327
1137.80698	0.87126
1135.75317	0.86923
1133.69937	0.86686
1131.64557	0.86370
1129.59176	0.85993
1127.53796	0.85577
1125.48416	0.85111
1123.43036	0.84576
1121.37655	0.83946
1119.32275	0.83246
1117.26895	0.82573
1115.21514	0.81977
1113.16134	0.81447
1111.10754	0.80977
1109.05373	0.80557
1106.99993	0.80172
1104.94613	0.79816
1102.89232	0.79521
1100.83852	0.79304
1098.78472	0.79127
1096.73091	0.79006
1094.67711	0.78941
1092.62331	0.78877
1090.56950	0.78795
1088.51570	0.78713
1086.46190	0.78629
1084.40809	0.78551
1082.35429	0.78495
1080.30049	0.78418
1078.24668	0.78269
1076.19288	0.78080
1074.13908	0.77926
1072.08528	0.77781
1070.03147	0.77554
1067.97767	0.77245
1065.92387	0.76892
1063.87006	0.76500
1061.81626	0.76080
1059.76246	0.75645
1057.70865	0.75152
1055.65485	0.74598
1053.60105	0.74004
1051.54724	0.73331
1049.49344	0.72577
1047.43964	0.71798
1045.38583	0.71059
1043.33203	0.70377
1041.27823	0.69761
1039.22442	0.69237
1037.17062	0.68755
1035.11682	0.68297
1033.06301	0.67981
1031.00921	0.67891
1028.95541	0.67949
1026.90160	0.68078
1024.84780	0.68279
1022.79400	0.68518
1020.74019	0.68737
1018.68639	0.68895
1016.63259	0.68953
1014.57879	0.68954
1012.52498	0.68960
1010.47118	0.68995
1008.41738	0.69076
1006.36357	0.69251
1004.30977	0.69584
1002.25597	0.70059
1000.20216	0.70632
998.14836	0.71333
996.09456	0.72184
994.04075	0.73084
991.98695	0.73964
989.93315	0.74855
987.87934	0.75748
985.82554	0.76613
983.77174	0.77451
981.71793	0.78250
979.66413	0.79020
977.61033	0.79757
975.55652	0.80404
973.50272	0.81006
971.44892	0.81671
969.39511	0.82337
967.34131	0.82902
965.28751	0.83408
963.23371	0.83875
961.17990	0.84259
959.12610	0.84586
957.07230	0.84899
955.01849	0.85199
952.96469	0.85500
950.91089	0.85783
948.85708	0.85976
946.80328	0.86096
944.74948	0.86213
942.69567	0.86340
940.64187	0.86472
938.58807	0.86573
936.53426	0.86632
934.48046	0.86742
932.42666	0.86903
930.37285	0.86990
928.31905	0.86996
926.26525	0.86978
924.21144	0.86924
922.15764	0.86812
920.10384	0.86629
918.05003	0.86391
915.99623	0.86127
913.94243	0.85873
911.88862	0.85742
909.83482	0.85851
907.78102	0.86239
905.72722	0.86856
903.67341	0.87549
901.61961	0.88154
899.56581	0.88618
897.51200	0.89000
895.45820	0.89356
893.40440	0.89655
891.35059	0.89873
889.29679	0.90069
887.24299	0.90293
885.18918	0.90478
883.13538	0.90552
881.08158	0.90619
879.02777	0.90755
876.97397	0.90891
874.92017	0.91022
872.86636	0.91168
870.81256	0.91295
868.75876	0.91383
866.70495	0.91494
864.65115	0.91677
862.59735	0.91877
860.54354	0.92041
858.48974	0.92170
856.43594	0.92268
854.38213	0.92336
852.32833	0.92387
850.27453	0.92451
848.22073	0.92519
846.16692	0.92558
844.11312	0.92566
842.05932	0.92551
840.00551	0.92525
837.95171	0.92503
835.89791	0.92523
833.84410	0.92564
831.79030	0.92536
829.73650	0.92443
827.68269	0.92305
825.62889	0.92215
823.57509	0.92265
821.52128	0.92316
819.46748	0.92284
817.41368	0.92216
815.35987	0.92113
813.30607	0.92006
811.25227	0.91904
809.19846	0.91749
807.14466	0.91522
805.09086	0.91276
803.03705	0.91082
800.98325	0.90902
798.92945	0.90702
796.87565	0.90580
794.82184	0.90584
792.76804	0.90632
790.71424	0.90673
788.66043	0.90716
786.60663	0.90730
784.55283	0.90716
782.49902	0.90700
780.44522	0.90686
778.39142	0.90670
776.33761	0.90676
774.28381	0.90722
772.23001	0.90755
770.17620	0.90750
768.12240	0.90685
766.06860	0.90546
764.01479	0.90422
761.96099	0.90334
759.90719	0.90163
757.85338	0.89914
755.79958	0.89758
753.74578	0.89723
751.69197	0.89706
749.63817	0.89701
747.58437	0.89740
745.53056	0.89747
743.47676	0.89684
741.42296	0.89607
739.36916	0.89464
737.31535	0.88985
735.26155	0.87418
733.20775	0.83799
731.15394	0.79631
729.10014	0.78611
727.04634	0.80579
724.99253	0.81674
722.93873	0.79452
720.88493	0.74330
718.83112	0.70627
716.77732	0.72163
714.72352	0.76926
712.66971	0.81261
710.61591	0.83883
708.56211	0.85178
706.50830	0.85771
704.45450	0.86039
702.40070	0.86122
700.34689	0.86014
698.29309	0.85858
696.23929	0.85866
694.18548	0.85962
692.13168	0.85998
690.07788	0.86010
688.02408	0.86079
685.97027	0.86207
683.91647	0.86333
681.86267	0.86385
679.80886	0.86397
677.75506	0.86483
675.70126	0.86541
673.64745	0.86529
671.59365	0.86590
669.53985	0.86672
667.48604	0.86760
665.43224	0.86968
663.37844	0.87199
661.32463	0.87342
659.27083	0.87394
657.21703	0.87420
655.16322	0.87380
653.10942	0.87306
651.05562	0.87274
649.00181	0.87285
646.94801	0.87327
644.89421	0.87331
642.84040	0.87320
640.78660	0.87374
638.73280	0.87397
636.67899	0.87345
634.62519	0.87335
632.57139	0.87345
630.51759	0.87263
628.46378	0.87099
626.40998	0.86885
624.35618	0.86678
622.30237	0.86593
620.24857	0.86658
618.19477	0.86741
616.14096	0.86690
614.08716	0.86500
612.03336	0.86268
609.97955	0.86111
607.92575	0.85969
605.87195	0.85688
603.81814	0.85424
601.76434	0.85351
599.71054	0.85303
597.65673	0.85114
595.60293	0.84824
593.54913	0.84547
591.49532	0.84359
589.44152	0.84227
587.38772	0.84087
585.33391	0.84028
583.28011	0.84050
581.22631	0.83927
579.17250	0.83712
577.11870	0.83604
575.06490	0.83450
573.01110	0.83176
570.95729	0.82905
568.90349	0.82571
566.84969	0.82221
564.79588	0.82040
562.74208	0.81956
560.68828	0.81799
558.63447	0.81553
556.58067	0.81277
554.52687	0.80975
552.47306	0.80621
550.41926	0.80219
548.36546	0.79778
546.31165	0.79351
544.25785	0.78927
542.20405	0.78409
540.15024	0.77846
538.09644	0.77329
536.04264	0.76917
533.98883	0.76758
531.93503	0.76782
529.88123	0.76768
527.82742	0.76814
525.77362	0.77034
523.71982	0.77299
521.66602	0.77662
519.61221	0.78145
517.55841	0.78545
515.50461	0.78821
513.45080	0.79014
511.39700	0.79194
509.34320	0.79397
507.28939	0.79583
505.23559	0.79900
503.18179	0.80232
501.12798	0.80264
499.07418	0.80289
497.02038	0.80442
494.96657	0.80329
492.91277	0.79912
490.85897	0.79465
488.80516	0.79090
486.75136	0.78683
484.69756	0.78099
482.64375	0.77435
480.58995	0.76760
478.53615	0.75905
476.48234	0.74844
474.42854	0.73673
472.37474	0.72427
470.32093	0.71454
468.26713	0.71049
466.21333	0.71025
464.15953	0.71276
462.10572	0.71938
460.05192	0.72842
457.99812	0.73788
455.94431	0.74631
453.89051	0.75023
451.83671	0.75176
449.78290	0.75576
447.72910	0.76108
445.67530	0.76481
443.62149	0.76723
441.56769	0.76728
439.51389	0.76531
437.46008	0.76337
435.40628	0.75978
433.35248	0.75604
431.29867	0.75571
429.24487	0.75635
427.19107	0.75579
425.13726	0.75790
423.08346	0.76529
421.02966	0.77269
418.97585	0.77692
416.92205	0.77748
414.86825	0.77735
412.81445	0.78256
410.76064	0.79078
408.70684	0.79509
406.65304	0.79838
404.59923	0.80652
402.54543	0.81645
400.49163	0.82082
398.43782	0.81871
