3996.70104	0.98765
3994.64724	0.98770
3992.59344	0.98802
3990.53964	0.98803
3988.48583	0.98767
3986.43203	0.98727
3984.37823	0.98751
3982.32442	0.98823
3980.27062	0.98830
3978.21682	0.98773
3976.16301	0.98741
3974.10921	0.98740
3972.05541	0.98770
3970.00160	0.98817
3967.94780	0.98816
3965.89400	0.98775
3963.84019	0.98754
3961.78639	0.98785
3959.73259	0.98825
3957.67878	0.98826
3955.62498	0.98800
3953.57118	0.98780
3951.51737	0.98787
3949.46357	0.98804
3947.40977	0.98810
3945.35596	0.98802
3943.30216	0.98801
3941.24836	0.98847
3939.19455	0.98909
3937.14075	0.98917
3935.08695	0.98849
3933.03315	0.98794
3930.97934	0.98854
3928.92554	0.98919
3926.87174	0.98874
3924.81793	0.98796
3922.76413	0.98796
3920.71033	0.98845
3918.65652	0.98854
3916.60272	0.98789
3914.54892	0.98713
3912.49511	0.98707
3910.44131	0.98778
3908.38751	0.98875
3906.33370	0.98922
3904.27990	0.98855
3902.22610	0.98746
3900.17229	0.98731
3898.11849	0.98789
3896.06469	0.98819
3894.01088	0.98809
3891.95708	0.98823
3889.90328	0.98857
3887.84947	0.98866
3885.79567	0.98849
3883.74187	0.98828
3881.68807	0.98835
3879.63426	0.98854
3877.58046	0.98855
3875.52666	0.98831
3873.47285	0.98806
3871.41905	0.98796
3869.36525	0.98780
3867.31144	0.98769
3865.25764	0.98806
3863.20384	0.98872
3861.15003	0.98897
3859.09623	0.98882
3857.04243	0.98870
3854.98862	0.98873
3852.93482	0.98872
3850.88102	0.98887
3848.82721	0.98901
3846.77341	0.98893
3844.71961	0.98886
3842.66580	0.98897
3840.61200	0.98902
3838.55820	0.98877
3836.50439	0.98878
3834.45059	0.98881
3832.39679	0.98821
3830.34298	0.98804
3828.28918	0.98875
3826.23538	0.98953
3824.18158	0.98990
3822.12777	0.98973
3820.07397	0.98903
3818.02017	0.98886
3815.96636	0.98936
3813.91256	0.98957
3811.85876	0.98928
3809.80495	0.98893
3807.75115	0.98889
3805.69735	0.98875
3803.64354	0.98795
3801.58974	0.98745
3799.53594	0.98819
3797.48213	0.98885
3795.42833	0.98893
3793.37453	0.98893
3791.32072	0.98869
3789.26692	0.98840
3787.21312	0.98871
3785.15931	0.98901
3783.10551	0.98876
3781.05171	0.98856
3778.99790	0.98834
3776.94410	0.98784
3774.89030	0.98758
3772.83650	0.98797
3770.78269	0.98886
3768.72889	0.98952
3766.67509	0.98947
3764.62128	0.98920
3762.56748	0.98959
3760.51368	0.99042
3758.45987	0.99051
3756.40607	0.98989
3754.35227	0.98963
3752.29846	0.98993
3750.24466	0.99018
3748.19086	0.99022
3746.13705	0.99067
3744.08325	0.99104
3742.02945	0.98984
3739.97564	0.98864
3737.92184	0.98897
3735.86804	0.99047
3733.81423	0.99148
3731.76043	0.99045
3729.70663	0.98861
3727.65282	0.98783
3725.59902	0.98857
3723.54522	0.98981
3721.49141	0.99040
3719.43761	0.99037
3717.38381	0.98980
3715.33001	0.98904
3713.27620	0.98887
3711.22240	0.98846
3709.16860	0.98708
3707.11479	0.98645
3705.06099	0.98652
3703.00719	0.98626
3700.95338	0.98600
3698.89958	0.98593
3696.84578	0.98559
3694.79197	0.98545
3692.73817	0.98536
3690.68437	0.98499
3688.63056	0.98547
3686.57676	0.98627
3684.52296	0.98630
3682.46915	0.98609
3680.41535	0.98580
3678.36155	0.98533
3676.30774	0.98501
3674.25394	0.98506
3672.20014	0.98529
3670.14633	0.98541
3668.09253	0.98516
3666.03873	0.98467
3663.98492	0.98441
3661.93112	0.98433
3659.87732	0.98388
3657.82352	0.98391
3655.76971	0.98479
3653.71591	0.98488
3651.66211	0.98423
3649.60830	0.98394
3647.55450	0.98379
3645.50070	0.98306
3643.44689	0.98209
3641.39309	0.98145
3639.33929	0.98174
3637.28548	0.98229
3635.23168	0.98201
3633.17788	0.98116
3631.12407	0.98063
3629.07027	0.98087
3627.01647	0.98075
3624.96266	0.97980
3622.90886	0.97933
3620.85506	0.97954
3618.80125	0.97935
3616.74745	0.97890
3614.69365	0.97867
3612.63984	0.97824
3610.58604	0.97815
3608.53224	0.97907
3606.47844	0.98016
3604.42463	0.98014
3602.37083	0.97962
3600.31703	0.97947
3598.26322	0.97957
3596.20942	0.97962
3594.15562	0.97936
3592.10181	0.97891
3590.04801	0.97859
3587.99421	0.97858
3585.94040	0.97862
3583.88660	0.97824
3581.83280	0.97795
3579.77899	0.97826
3577.72519	0.97845
3575.67139	0.97784
3573.61758	0.97741
3571.56378	0.97749
3569.50998	0.97725
3567.45617	0.97702
3565.40237	0.97737
3563.34857	0.97725
3561.29476	0.97655
3559.24096	0.97623
3557.18716	0.97616
3555.13335	0.97559
3553.07955	0.97502
3551.02575	0.97498
3548.97195	0.97473
3546.91814	0.97400
3544.86434	0.97343
3542.81054	0.97332
3540.75673	0.97348
3538.70293	0.97343
3536.64913	0.97321
3534.59532	0.97312
3532.54152	0.97283
3530.48772	0.97268
3528.43391	0.97315
3526.38011	0.97339
3524.32631	0.97265
3522.27250	0.97151
3520.21870	0.97106
3518.16490	0.97140
3516.11109	0.97171
3514.05729	0.97156
3512.00349	0.97126
3509.94968	0.97091
3507.89588	0.97033
3505.84208	0.96995
3503.78827	0.96999
3501.73447	0.96989
3499.68067	0.96962
3497.62687	0.96962
3495.57306	0.96960
3493.51926	0.96925
3491.46546	0.96884
3489.41165	0.96848
3487.35785	0.96789
3485.30405	0.96739
3483.25024	0.96733
3481.19644	0.96755
3479.14264	0.96786
3477.08883	0.96787
3475.03503	0.96721
3472.98123	0.96643
3470.92742	0.96625
3468.87362	0.96594
3466.81982	0.96499
3464.76601	0.96420
3462.71221	0.96377
3460.65841	0.96365
3458.60460	0.96382
3456.55080	0.96404
3454.49700	0.96427
3452.44319	0.96423
3450.38939	0.96373
3448.33559	0.96326
3446.28178	0.96311
3444.22798	0.96296
3442.17418	0.96236
3440.12038	0.96146
3438.06657	0.96099
3436.01277	0.96117
3433.95897	0.96125
3431.90516	0.96066
3429.85136	0.95976
3427.79756	0.95928
3425.74375	0.95959
3423.68995	0.96022
3421.63615	0.96020
3419.58234	0.95939
3417.52854	0.95881
3415.47474	0.95873
3413.42093	0.95861
3411.36713	0.95830
3409.31333	0.95781
3407.25952	0.95725
3405.20572	0.95715
3403.15192	0.95754
3401.09811	0.95769
3399.04431	0.95714
3396.99051	0.95627
3394.93670	0.95578
3392.88290	0.95561
3390.82910	0.95547
3388.77529	0.95561
3386.72149	0.95569
3384.66769	0.95522
3382.61389	0.95458
3380.56008	0.95428
3378.50628	0.95431
3376.45248	0.95445
3374.39867	0.95455
3372.34487	0.95443
3370.29107	0.95400
3368.23726	0.95357
3366.18346	0.95302
3364.12966	0.95240
3362.07585	0.95230
3360.02205	0.95251
3357.96825	0.95246
3355.91444	0.95241
3353.86064	0.95262
3351.80684	0.95249
3349.75303	0.95220
3347.69923	0.95222
3345.64543	0.95229
3343.59162	0.95225
3341.53782	0.95186
3339.48402	0.95098
3337.43021	0.95004
3335.37641	0.94962
3333.32261	0.94988
3331.26881	0.95053
3329.21500	0.95105
3327.16120	0.95106
3325.10740	0.95066
3323.05359	0.95022
3320.99979	0.94986
3318.94599	0.94951
3316.89218	0.94930
3314.83838	0.94962
3312.78458	0.95062
3310.73077	0.95141
3308.67697	0.95137
3306.62317	0.95118
3304.56936	0.95105
3302.51556	0.95056
3300.46176	0.95012
3298.40795	0.95046
3296.35415	0.95114
3294.30035	0.95139
3292.24654	0.95109
3290.19274	0.95057
3288.13894	0.95057
3286.08513	0.95092
3284.03133	0.95095
3281.97753	0.95095
3279.92372	0.95122
3277.86992	0.95160
3275.81612	0.95171
3273.76232	0.95151
3271.70851	0.95153
3269.65471	0.95175
3267.60091	0.95177
3265.54710	0.95145
3263.49330	0.95122
3261.43950	0.95157
3259.38569	0.95219
3257.33189	0.95256
3255.27809	0.95255
3253.22428	0.95263
3251.17048	0.95312
3249.11668	0.95341
3247.06287	0.95361
3245.00907	0.95401
3242.95527	0.95428
3240.90146	0.95443
3238.84766	0.95470
3236.79386	0.95530
3234.74005	0.95585
3232.68625	0.95572
3230.63245	0.95550
3228.57864	0.95594
3226.52484	0.95648
3224.47104	0.95683
3222.41724	0.95747
3220.36343	0.95807
3218.30963	0.95801
3216.25583	0.95751
3214.20202	0.95716
3212.14822	0.95726
3210.09442	0.95766
3208.04061	0.95809
3205.98681	0.95863
3203.93301	0.95904
3201.87920	0.95914
3199.82540	0.95922
3197.77160	0.95929
3195.71779	0.95951
3193.66399	0.95985
3191.61019	0.96003
3189.55638	0.96035
3187.50258	0.96094
3185.44878	0.96155
3183.39497	0.96203
3181.34117	0.96210
3179.28737	0.96196
3177.23356	0.96211
3175.17976	0.96246
3173.12596	0.96287
3171.07215	0.96337
3169.01835	0.96359
3166.96455	0.96377
3164.91075	0.96418
3162.85694	0.96437
3160.80314	0.96459
3158.74934	0.96515
3156.69553	0.96556
3154.64173	0.96562
3152.58793	0.96590
3150.53412	0.96647
3148.48032	0.96701
3146.42652	0.96740
3144.37271	0.96741
3142.31891	0.96716
3140.26511	0.96700
3138.21130	0.96710
3136.15750	0.96725
3134.10370	0.96716
3132.04989	0.96724
3129.99609	0.96779
3127.94229	0.96831
3125.88848	0.96851
3123.83468	0.96871
3121.78088	0.96893
3119.72707	0.96897
3117.67327	0.96920
3115.61947	0.96987
3113.56566	0.97045
3111.51186	0.97070
3109.45806	0.97082
3107.40426	0.97099
3105.35045	0.97106
3103.29665	0.97079
3101.24285	0.97042
3099.18904	0.97025
3097.13524	0.97031
3095.08144	0.97086
3093.02763	0.97186
3090.97383	0.97256
3088.92003	0.97249
3086.86622	0.97201
3084.81242	0.97195
3082.75862	0.97263
3080.70481	0.97349
3078.65101	0.97400
3076.59721	0.97400
3074.54340	0.97361
3072.48960	0.97343
3070.43580	0.97347
3068.38199	0.97335
3066.32819	0.97339
3064.27439	0.97373
3062.22058	0.97403
3060.16678	0.97402
3058.11298	0.97378
3056.05918	0.97364
3054.00537	0.97400
3051.95157	0.97489
3049.89777	0.97546
3047.84396	0.97545
3045.79016	0.97550
3043.73636	0.97576
3041.68255	0.97596
3039.62875	0.97603
3037.57495	0.97614
3035.52114	0.97618
3033.46734	0.97603
3031.41354	0.97609
3029.35973	0.97656
3027.30593	0.97725
3025.25213	0.97778
3023.19832	0.97773
3021.14452	0.97751
3019.09072	0.97755
3017.03691	0.97755
3014.98311	0.97759
3012.92931	0.97775
3010.87550	0.97813
3008.82170	0.97866
3006.76790	0.97861
3004.71409	0.97811
3002.66029	0.97816
3000.60649	0.97861
2998.55269	0.97880
2996.49888	0.97877
2994.44508	0.97888
2992.39128	0.97908
2990.33747	0.97902
2988.28367	0.97860
2986.22987	0.97816
2984.17606	0.97815
2982.12226	0.97844
2980.06846	0.97851
2978.01465	0.97849
2975.96085	0.97876
2973.90705	0.97901
2971.85324	0.97874
2969.79944	0.97826
2967.74564	0.97819
2965.69183	0.97840
2963.63803	0.97855
2961.58423	0.97846
2959.53042	0.97807
2957.47662	0.97772
2955.42282	0.97773
2953.36901	0.97801
2951.31521	0.97828
2949.26141	0.97814
2947.20761	0.97741
2945.15380	0.97657
2943.10000	0.97636
2941.04620	0.97669
2938.99239	0.97686
2936.93859	0.97680
2934.88479	0.97681
2932.83098	0.97683
2930.77718	0.97692
2928.72338	0.97719
2926.66957	0.97739
2924.61577	0.97723
2922.56197	0.97689
2920.50816	0.97675
2918.45436	0.97653
2916.40056	0.97589
2914.34675	0.97520
2912.29295	0.97484
2910.23915	0.97441
2908.18534	0.97354
2906.13154	0.97295
2904.07774	0.97297
2902.02393	0.97299
2899.97013	0.97271
2897.91633	0.97240
2895.86252	0.97243
2893.80872	0.97258
2891.75492	0.97274
2889.70112	0.97312
2887.64731	0.97335
2885.59351	0.97324
2883.53971	0.97305
2881.48590	0.97305
2879.43210	0.97328
2877.37830	0.97343
2875.32449	0.97356
2873.27069	0.97414
2871.21689	0.97478
2869.16308	0.97477
2867.10928	0.97437
2865.05548	0.97423
2863.00167	0.97441
2860.94787	0.97476
2858.89407	0.97535
2856.84026	0.97593
2854.78646	0.97611
2852.73266	0.97590
2850.67885	0.97566
2848.62505	0.97602
2846.57125	0.97694
2844.51744	0.97752
2842.46364	0.97752
2840.40984	0.97758
2838.35603	0.97765
2836.30223	0.97739
2834.24843	0.97732
2832.19463	0.97775
2830.14082	0.97804
2828.08702	0.97798
2826.03322	0.97790
2823.97941	0.97804
2821.92561	0.97835
2819.87181	0.97861
2817.81800	0.97870
2815.76420	0.97856
2813.71040	0.97846
2811.65659	0.97860
2809.60279	0.97890
2807.54899	0.97945
2805.49518	0.98010
2803.44138	0.98041
2801.38758	0.98018
2799.33377	0.97968
2797.27997	0.97929
2795.22617	0.97912
2793.17236	0.97897
2791.11856	0.97884
2789.06476	0.97899
2787.01095	0.97928
2784.95715	0.97958
2782.90335	0.98009
2780.84955	0.98039
2778.79574	0.97999
2776.74194	0.97958
2774.68814	0.97984
2772.63433	0.98022
2770.58053	0.98015
2768.52673	0.98004
2766.47292	0.98024
2764.41912	0.98040
2762.36532	0.98057
2760.31151	0.98093
2758.25771	0.98118
2756.20391	0.98109
2754.15010	0.98084
2752.09630	0.98064
2750.04250	0.98076
2747.98869	0.98118
2745.93489	0.98139
2743.88109	0.98126
2741.82728	0.98100
2739.77348	0.98076
2737.71968	0.98072
2735.66587	0.98105
2733.61207	0.98156
2731.55827	0.98190
2729.50446	0.98195
2727.45066	0.98181
2725.39686	0.98179
2723.34306	0.98185
2721.28925	0.98178
2719.23545	0.98178
2717.18165	0.98158
2715.12784	0.98101
2713.07404	0.98056
2711.02024	0.98048
2708.96643	0.98068
2706.91263	0.98095
2704.85883	0.98111
2702.80502	0.98105
2700.75122	0.98084
2698.69742	0.98082
2696.64361	0.98114
2694.58981	0.98128
2692.53601	0.98104
2690.48220	0.98103
2688.42840	0.98143
2686.37460	0.98174
2684.32079	0.98184
2682.26699	0.98184
2680.21319	0.98179
2678.15938	0.98171
2676.10558	0.98160
2674.05178	0.98159
2671.99797	0.98183
2669.94417	0.98211
2667.89037	0.98215
2665.83657	0.98208
2663.78276	0.98189
2661.72896	0.98143
2659.67516	0.98119
2657.62135	0.98156
2655.56755	0.98185
2653.51375	0.98142
2651.45994	0.98084
2649.40614	0.98103
2647.35234	0.98172
2645.29853	0.98201
2643.24473	0.98173
2641.19093	0.98131
2639.13712	0.98115
2637.08332	0.98127
2635.02952	0.98170
2632.97571	0.98196
2630.92191	0.98171
2628.86811	0.98182
2626.81430	0.98240
2624.76050	0.98275
2622.70670	0.98298
2620.65289	0.98308
2618.59909	0.98286
2616.54529	0.98244
2614.49149	0.98204
2612.43768	0.98198
2610.38388	0.98206
2608.33008	0.98234
2606.27627	0.98266
2604.22247	0.98248
2602.16867	0.98243
2600.11486	0.98257
2598.06106	0.98256
2596.00726	0.98258
2593.95345	0.98271
2591.89965	0.98320
2589.84585	0.98381
2587.79204	0.98385
2585.73824	0.98356
2583.68444	0.98349
2581.63063	0.98361
2579.57683	0.98388
2577.52303	0.98417
2575.46922	0.98411
2573.41542	0.98379
2571.36162	0.98357
2569.30781	0.98361
2567.25401	0.98378
2565.20021	0.98343
2563.14640	0.98270
2561.09260	0.98267
2559.03880	0.98324
2556.98500	0.98358
2554.93119	0.98366
2552.87739	0.98382
2550.82359	0.98408
2548.76978	0.98447
2546.71598	0.98508
2544.66218	0.98583
2542.60837	0.98612
2540.55457	0.98567
2538.50077	0.98499
2536.44696	0.98411
2534.39316	0.98298
2532.33936	0.98250
2530.28555	0.98301
2528.23175	0.98376
2526.17795	0.98419
2524.12414	0.98412
2522.07034	0.98392
2520.01654	0.98409
2517.96273	0.98415
2515.90893	0.98398
2513.85513	0.98425
2511.80132	0.98457
2509.74752	0.98442
2507.69372	0.98431
2505.63992	0.98444
2503.58611	0.98447
2501.53231	0.98453
2499.47851	0.98463
2497.42470	0.98443
2495.37090	0.98419
2493.31710	0.98433
2491.26329	0.98477
2489.20949	0.98477
2487.15569	0.98408
2485.10188	0.98378
2483.04808	0.98418
2480.99428	0.98450
2478.94047	0.98447
2476.88667	0.98452
2474.83287	0.98477
2472.77906	0.98479
2470.72526	0.98457
2468.67146	0.98420
2466.61765	0.98408
2464.56385	0.98452
2462.51005	0.98481
2460.45624	0.98459
2458.40244	0.98412
2456.34864	0.98337
2454.29483	0.98303
2452.24103	0.98390
2450.18723	0.98479
2448.13343	0.98470
2446.07962	0.98452
2444.02582	0.98472
2441.97202	0.98486
2439.91821	0.98484
2437.86441	0.98472
2435.81061	0.98490
2433.75680	0.98537
2431.70300	0.98539
2429.64920	0.98507
2427.59539	0.98524
2425.54159	0.98567
2423.48779	0.98553
2421.43398	0.98488
2419.38018	0.98445
2417.32638	0.98455
2415.27257	0.98478
2413.21877	0.98518
2411.16497	0.98590
2409.11116	0.98617
2407.05736	0.98597
2405.00356	0.98586
2402.94975	0.98533
2400.89595	0.98473
2398.84215	0.98495
2396.78834	0.98550
2394.73454	0.98565
2392.68074	0.98543
2390.62694	0.98535
2388.57313	0.98561
2386.51933	0.98576
2384.46553	0.98547
2382.41172	0.98492
2380.35792	0.98438
2378.30412	0.98418
2376.25031	0.98424
2374.19651	0.98426
2372.14271	0.98475
2370.08890	0.98541
2368.03510	0.98522
2365.98130	0.98460
2363.92749	0.98382
2361.87369	0.98306
2359.81989	0.98323
2357.76608	0.98417
2355.71228	0.98514
2353.65848	0.98558
2351.60467	0.98510
2349.55087	0.98450
2347.49707	0.98483
2345.44326	0.98584
2343.38946	0.98602
2341.33566	0.98518
2339.28186	0.98462
2337.22805	0.98464
2335.17425	0.98471
2333.12045	0.98468
2331.06664	0.98466
2329.01284	0.98421
2326.95904	0.98318
2324.90523	0.98224
2322.85143	0.98205
2320.79763	0.98224
2318.74382	0.98241
2316.69002	0.98265
2314.63622	0.98317
2312.58241	0.98367
2310.52861	0.98392
2308.47481	0.98426
2306.42100	0.98417
2304.36720	0.98391
2302.31340	0.98398
2300.25959	0.98390
2298.20579	0.98389
2296.15199	0.98421
2294.09818	0.98478
2292.04438	0.98507
2289.99058	0.98434
2287.93677	0.98363
2285.88297	0.98403
2283.82917	0.98461
2281.77537	0.98497
2279.72156	0.98564
2277.66776	0.98570
2275.61396	0.98445
2273.56015	0.98361
2271.50635	0.98443
2269.45255	0.98532
2267.39874	0.98488
2265.34494	0.98371
2263.29114	0.98235
2261.23733	0.98146
2259.18353	0.98190
2257.12973	0.98293
2255.07592	0.98368
2253.02212	0.98467
2250.96832	0.98569
2248.91451	0.98584
2246.86071	0.98509
2244.80691	0.98462
2242.75310	0.98529
2240.69930	0.98595
2238.64550	0.98598
2236.59169	0.98538
2234.53789	0.98379
2232.48409	0.98219
2230.43029	0.98203
2228.37648	0.98366
2226.32268	0.98610
2224.26888	0.98767
2222.21507	0.98728
2220.16127	0.98555
2218.10747	0.98439
2216.05366	0.98461
2213.99986	0.98568
2211.94606	0.98750
2209.89225	0.98956
2207.83845	0.99077
2205.78465	0.99032
2203.73084	0.98818
2201.67704	0.98531
2199.62324	0.98358
2197.56943	0.98424
2195.51563	0.98583
2193.46183	0.98668
2191.40802	0.98641
2189.35422	0.98606
2187.30042	0.98687
2185.24661	0.98684
2183.19281	0.98583
2181.13901	0.98697
2179.08520	0.98839
2177.03140	0.98757
2174.97760	0.98790
2172.92380	0.99006
2170.86999	0.99085
2168.81619	0.99000
2166.76239	0.98710
2164.70858	0.98265
2162.65478	0.98092
2160.60098	0.98336
2158.54717	0.98716
2156.49337	0.98911
2154.43957	0.98891
2152.38576	0.98881
2150.33196	0.98892
2148.27816	0.98850
2146.22435	0.98845
2144.17055	0.98898
2142.11675	0.98896
2140.06294	0.98871
2138.00914	0.98975
2135.95534	0.99084
2133.90153	0.99046
2131.84773	0.98948
2129.79393	0.98822
2127.74012	0.98723
2125.68632	0.98701
2123.63252	0.98672
2121.57871	0.98606
2119.52491	0.98575
2117.47111	0.98640
2115.41731	0.98743
2113.36350	0.98771
2111.30970	0.98655
2109.25590	0.98464
2107.20209	0.98389
2105.14829	0.98464
2103.09449	0.98580
2101.04068	0.98685
2098.98688	0.98746
2096.93308	0.98713
2094.87927	0.98680
2092.82547	0.98677
2090.77167	0.98632
2088.71786	0.98620
2086.66406	0.98622
2084.61026	0.98619
2082.55645	0.98681
2080.50265	0.98698
2078.44885	0.98639
2076.39504	0.98660
2074.34124	0.98744
2072.28744	0.98702
2070.23363	0.98608
2068.17983	0.98584
2066.12603	0.98496
2064.07223	0.98348
2062.01842	0.98305
2059.96462	0.98465
2057.91082	0.98735
2055.85701	0.98841
2053.80321	0.98675
2051.74941	0.98339
2049.69560	0.98114
2047.64180	0.98274
2045.58800	0.98605
2043.53419	0.98821
2041.48039	0.98919
2039.42659	0.98848
2037.37278	0.98664
2035.31898	0.98554
2033.26518	0.98599
2031.21137	0.98701
2029.15757	0.98701
2027.10377	0.98694
2025.04996	0.98776
2022.99616	0.98913
2020.94236	0.99037
2018.88855	0.98950
2016.83475	0.98681
2014.78095	0.98497
2012.72714	0.98566
2010.67334	0.98758
2008.61954	0.98921
2006.56574	0.99167
2004.51193	0.99309
2002.45813	0.99152
2000.40433	0.98962
1998.35052	0.98887
1996.29672	0.98795
1994.24292	0.98687
1992.18911	0.98676
1990.13531	0.98760
1988.08151	0.98829
1986.02770	0.98760
1983.97390	0.98704
1981.92010	0.98791
1979.86629	0.98823
1977.81249	0.98839
1975.75869	0.98947
1973.70488	0.99045
1971.65108	0.99095
1969.59728	0.99070
1967.54347	0.98959
1965.48967	0.98788
1963.43587	0.98751
1961.38206	0.98861
1959.32826	0.98821
1957.27446	0.98629
1955.22066	0.98552
1953.16685	0.98667
1951.11305	0.98828
1949.05925	0.98956
1947.00544	0.99065
1944.95164	0.99061
1942.89784	0.98909
1940.84403	0.98709
1938.79023	0.98640
1936.73643	0.98755
1934.68262	0.98803
1932.62882	0.98680
1930.57502	0.98575
1928.52121	0.98568
1926.46741	0.98653
1924.41361	0.98772
1922.35980	0.98807
1920.30600	0.98708
1918.25220	0.98563
1916.19839	0.98534
1914.14459	0.98618
1912.09079	0.98691
1910.03698	0.98750
1907.98318	0.98808
1905.92938	0.98827
1903.87557	0.98821
1901.82177	0.98784
1899.76797	0.98731
1897.71417	0.98730
1895.66036	0.98742
1893.60656	0.98697
1891.55276	0.98678
1889.49895	0.98734
1887.44515	0.98768
1885.39135	0.98792
1883.33754	0.98818
1881.28374	0.98787
1879.22994	0.98733
1877.17613	0.98699
1875.12233	0.98660
1873.06853	0.98588
1871.01472	0.98530
1868.96092	0.98526
1866.90712	0.98498
1864.85331	0.98444
1862.79951	0.98462
1860.74571	0.98578
1858.69190	0.98713
1856.63810	0.98763
1854.58430	0.98742
1852.53049	0.98710
1850.47669	0.98676
1848.42289	0.98688
1846.36908	0.98757
1844.31528	0.98794
1842.26148	0.98781
1840.20768	0.98740
1838.15387	0.98695
1836.10007	0.98718
1834.04627	0.98751
1831.99246	0.98724
1829.93866	0.98689
1827.88486	0.98676
1825.83105	0.98679
1823.77725	0.98657
1821.72345	0.98617
1819.66964	0.98629
1817.61584	0.98688
1815.56204	0.98726
1813.50823	0.98709
1811.45443	0.98652
1809.40063	0.98605
1807.34682	0.98601
1805.29302	0.98618
1803.23922	0.98616
1801.18541	0.98580
1799.13161	0.98577
1797.07781	0.98619
1795.02400	0.98635
1792.97020	0.98634
1790.91640	0.98661
1788.86260	0.98684
1786.80879	0.98680
1784.75499	0.98653
1782.70119	0.98621
1780.64738	0.98609
1778.59358	0.98606
1776.53978	0.98602
1774.48597	0.98605
1772.43217	0.98623
1770.37837	0.98639
1768.32456	0.98625
1766.27076	0.98590
1764.21696	0.98586
1762.16315	0.98646
1760.10935	0.98693
1758.05555	0.98678
1756.00174	0.98647
1753.94794	0.98635
1751.89414	0.98625
1749.84033	0.98617
1747.78653	0.98621
1745.73273	0.98607
1743.67892	0.98599
1741.62512	0.98600
1739.57132	0.98573
1737.51751	0.98538
1735.46371	0.98520
1733.40991	0.98488
1731.35611	0.98460
1729.30230	0.98474
1727.24850	0.98502
1725.19470	0.98514
1723.14089	0.98507
1721.08709	0.98495
1719.03329	0.98496
1716.97948	0.98507
1714.92568	0.98509
1712.87188	0.98498
1710.81807	0.98476
1708.76427	0.98432
1706.71047	0.98384
1704.65666	0.98352
1702.60286	0.98301
1700.54906	0.98222
1698.49525	0.98156
1696.44145	0.98099
1694.38765	0.98058
1692.33384	0.98038
1690.28004	0.98015
1688.22624	0.97981
1686.17243	0.97935
1684.11863	0.97860
1682.06483	0.97750
1680.01103	0.97653
1677.95722	0.97611
1675.90342	0.97598
1673.84962	0.97570
1671.79581	0.97550
1669.74201	0.97509
1667.68821	0.97438
1665.63440	0.97387
1663.58060	0.97337
1661.52680	0.97256
1659.47299	0.97181
1657.41919	0.97151
1655.36539	0.97170
1653.31158	0.97189
1651.25778	0.97127
1649.20398	0.97081
1647.15017	0.97062
1645.09637	0.97025
1643.04257	0.97001
1640.98876	0.96987
1638.93496	0.96960
1636.88116	0.96949
1634.82735	0.96973
1632.77355	0.97007
1630.71975	0.97035
1628.66594	0.97051
1626.61214	0.97062
1624.55834	0.97106
1622.50454	0.97170
1620.45073	0.97200
1618.39693	0.97223
1616.34313	0.97265
1614.28932	0.97272
1612.23552	0.97253
1610.18172	0.97269
1608.12791	0.97321
1606.07411	0.97362
1604.02031	0.97401
1601.96650	0.97473
1599.91270	0.97548
1597.85890	0.97580
1595.80509	0.97570
1593.75129	0.97574
1591.69749	0.97606
1589.64368	0.97613
1587.58988	0.97594
1585.53608	0.97597
1583.48227	0.97632
1581.42847	0.97673
1579.37467	0.97705
1577.32086	0.97726
1575.26706	0.97729
1573.21326	0.97747
1571.15945	0.97788
1569.10565	0.97798
1567.05185	0.97786
1564.99805	0.97790
1562.94424	0.97778
1560.89044	0.97753
1558.83664	0.97757
1556.78283	0.97771
1554.72903	0.97777
1552.67523	0.97770
1550.62142	0.97742
1548.56762	0.97711
1546.51382	0.97701
1544.46001	0.97734
1542.40621	0.97822
1540.35241	0.97925
1538.29860	0.97949
1536.24480	0.97931
1534.19100	0.97898
1532.13719	0.97827
1530.08339	0.97799
1528.02959	0.97837
1525.97578	0.97904
1523.92198	0.97969
1521.86818	0.97965
1519.81437	0.97878
1517.76057	0.97846
1515.70677	0.97882
1513.65297	0.97914
1511.59916	0.97934
1509.54536	0.97957
1507.49156	0.97994
1505.43775	0.97993
1503.38395	0.97948
1501.33015	0.97929
1499.27634	0.97952
1497.22254	0.97973
1495.16874	0.97948
1493.11493	0.97922
1491.06113	0.97921
1489.00733	0.97936
1486.95352	0.97947
1484.89972	0.97939
1482.84592	0.97903
1480.79211	0.97855
1478.73831	0.97811
1476.68451	0.97764
1474.63070	0.97714
1472.57690	0.97655
1470.52310	0.97591
1468.46929	0.97522
1466.41549	0.97446
1464.36169	0.97378
1462.30788	0.97340
1460.25408	0.97311
1458.20028	0.97261
1456.14648	0.97215
1454.09267	0.97180
1452.03887	0.97139
1449.98507	0.97113
1447.93126	0.97112
1445.87746	0.97117
1443.82366	0.97103
1441.76985	0.97071
1439.71605	0.97025
1437.66225	0.96972
1435.60844	0.96937
1433.55464	0.96894
1431.50084	0.96813
1429.44703	0.96744
1427.39323	0.96719
1425.33943	0.96724
1423.28562	0.96762
1421.23182	0.96809
1419.17802	0.96830
1417.12421	0.96836
1415.07041	0.96866
1413.01661	0.96901
1410.96280	0.96935
1408.90900	0.96990
1406.85520	0.97042
1404.80139	0.97063
1402.74759	0.97066
1400.69379	0.97052
1398.63999	0.97025
1396.58618	0.97032
1394.53238	0.97099
1392.47858	0.97176
1390.42477	0.97209
1388.37097	0.97183
1386.31717	0.97104
1384.26336	0.97018
1382.20956	0.96944
1380.15576	0.96876
1378.10195	0.96808
1376.04815	0.96729
1373.99435	0.96672
1371.94054	0.96643
1369.88674	0.96609
1367.83294	0.96599
1365.77913	0.96634
1363.72533	0.96659
1361.67153	0.96656
1359.61772	0.96672
1357.56392	0.96726
1355.51012	0.96792
1353.45631	0.96831
1351.40251	0.96817
1349.34871	0.96779
1347.29491	0.96770
1345.24110	0.96784
1343.18730	0.96770
1341.13350	0.96712
1339.07969	0.96631
1337.02589	0.96576
1334.97209	0.96580
1332.91828	0.96608
1330.86448	0.96637
1328.81068	0.96661
1326.75687	0.96630
1324.70307	0.96551
1322.64927	0.96482
1320.59546	0.96416
1318.54166	0.96347
1316.48786	0.96300
1314.43405	0.96290
1312.38025	0.96308
1310.32645	0.96361
1308.27264	0.96447
1306.21884	0.96540
1304.16504	0.96638
1302.11123	0.96740
1300.05743	0.96827
1298.00363	0.96900
1295.94982	0.96963
1293.89602	0.97002
1291.84222	0.97011
1289.78842	0.97009
1287.73461	0.96995
1285.68081	0.96957
1283.62701	0.96923
1281.57320	0.96910
1279.51940	0.96890
1277.46560	0.96879
1275.41179	0.96891
1273.35799	0.96901
1271.30419	0.96915
1269.25038	0.96915
1267.19658	0.96883
1265.14278	0.96848
1263.08897	0.96843
1261.03517	0.96878
1258.98137	0.96903
1256.92756	0.96919
1254.87376	0.96931
1252.81996	0.96924
1250.76615	0.96904
1248.71235	0.96880
1246.65855	0.96867
1244.60474	0.96869
1242.55094	0.96870
1240.49714	0.96860
1238.44334	0.96846
1236.38953	0.96852
1234.33573	0.96860
1232.28193	0.96842
1230.22812	0.96832
1228.17432	0.96851
1226.12052	0.96873
1224.06671	0.96886
1222.01291	0.96889
1219.95911	0.96877
1217.90530	0.96837
1215.85150	0.96793
1213.79770	0.96726
1211.74389	0.96588
1209.69009	0.96420
1207.63629	0.96272
1205.58248	0.96143
1203.52868	0.96024
1201.47488	0.95927
1199.42107	0.95868
1197.36727	0.95836
1195.31347	0.95798
1193.25966	0.95750
1191.20586	0.95693
1189.15206	0.95613
1187.09825	0.95505
1185.04445	0.95353
1182.99065	0.95173
1180.93685	0.95004
1178.88304	0.94813
1176.82924	0.94566
1174.77544	0.94293
1172.72163	0.94015
1170.66783	0.93686
1168.61403	0.93282
1166.56022	0.92866
1164.50642	0.92506
1162.45262	0.92254
1160.39881	0.92165
1158.34501	0.92201
1156.29121	0.92230
1154.23740	0.92194
1152.18360	0.92169
1150.12980	0.92212
1148.07599	0.92251
1146.02219	0.92231
1143.96839	0.92194
1141.91458	0.92183
1139.86078	0.92173
1137.80698	0.92116
1135.75317	0.91997
1133.69937	0.91823
1131.64557	0.91594
1129.59176	0.91337
1127.53796	0.91114
1125.48416	0.90905
1123.43036	0.90624
1121.37655	0.90281
1119.32275	0.89956
1117.26895	0.89666
1115.21514	0.89337
1113.16134	0.88969
1111.10754	0.88663
1109.05373	0.88430
1106.99993	0.88240
1104.94613	0.88088
1102.89232	0.87925
1100.83852	0.87737
1098.78472	0.87604
1096.73091	0.87561
1094.67711	0.87526
1092.62331	0.87432
1090.56950	0.87293
1088.51570	0.87144
1086.46190	0.87045
1084.40809	0.87004
1082.35429	0.86944
1080.30049	0.86818
1078.24668	0.86651
1076.19288	0.86474
1074.13908	0.86279
1072.08528	0.86049
1070.03147	0.85808
1067.97767	0.85534
1065.92387	0.85172
1063.87006	0.84728
1061.81626	0.84296
1059.76246	0.83939
1057.70865	0.83622
1055.65485	0.83330
1053.60105	0.83090
1051.54724	0.82869
1049.49344	0.82636
1047.43964	0.82457
1045.38583	0.82333
1043.33203	0.82173
1041.27823	0.81919
1039.22442	0.81581
1037.17062	0.81214
1035.11682	0.80842
1033.06301	0.80473
1031.00921	0.80188
1028.95541	0.80031
1026.90160	0.79919
1024.84780	0.79811
1022.79400	0.79712
1020.74019	0.79605
1018.68639	0.79509
1016.63259	0.79463
1014.57879	0.79426
1012.52498	0.79365
1010.47118	0.79299
1008.41738	0.79219
1006.36357	0.79136
1004.30977	0.79044
1002.25597	0.78921
1000.20216	0.78836
998.14836	0.78829
996.09456	0.78833
994.04075	0.78827
991.98695	0.78845
989.93315	0.78884
987.87934	0.78916
985.82554	0.78938
983.77174	0.78979
981.71793	0.79095
979.66413	0.79303
977.61033	0.79564
975.55652	0.79836
973.50272	0.80133
971.44892	0.80483
969.39511	0.80817
967.34131	0.81095
965.28751	0.81409
963.23371	0.81781
961.17990	0.82164
959.12610	0.82535
957.07230	0.82879
955.01849	0.83174
952.96469	0.83437
950.91089	0.83729
948.85708	0.84061
946.80328	0.84364
944.74948	0.84599
942.69567	0.84806
940.64187	0.85048
938.58807	0.85336
936.53426	0.85607
934.48046	0.85818
932.42666	0.85993
930.37285	0.86168
928.31905	0.86352
926.26525	0.86541
924.21144	0.86720
922.15764	0.86870
920.10384	0.86994
918.05003	0.87070
915.99623	0.87091
913.94243	0.87109
911.88862	0.87139
909.83482	0.87170
907.78102	0.87255
905.72722	0.87387
903.67341	0.87525
901.61961	0.87674
899.56581	0.87823
897.51200	0.87972
895.45820	0.88108
893.40440	0.88264
891.35059	0.88507
889.29679	0.88810
887.24299	0.89141
885.18918	0.89453
883.13538	0.89657
881.08158	0.89807
879.02777	0.89980
876.97397	0.90152
874.92017	0.90308
872.86636	0.90449
870.81256	0.90590
868.75876	0.90797
866.70495	0.91075
864.65115	0.91320
862.59735	0.91473
860.54354	0.91596
858.48974	0.91753
856.43594	0.91958
854.38213	0.92169
852.32833	0.92278
850.27453	0.92274
848.22073	0.92311
846.16692	0.92409
844.11312	0.92448
842.05932	0.92462
840.00551	0.92527
837.95171	0.92568
835.89791	0.92521
833.84410	0.92430
831.79030	0.92359
829.73650	0.92373
827.68269	0.92466
825.62889	0.92543
823.57509	0.92582
821.52128	0.92582
819.46748	0.92534
817.41368	0.92480
815.35987	0.92444
813.30607	0.92377
811.25227	0.92210
809.19846	0.92016
807.14466	0.91840
805.09086	0.91560
803.03705	0.91185
800.98325	0.90831
798.92945	0.90583
796.87565	0.90506
794.82184	0.90533
792.76804	0.90577
790.71424	0.90631
788.66043	0.90647
786.60663	0.90603
784.55283	0.90520
782.49902	0.90413
780.44522	0.90286
778.39142	0.90171
776.33761	0.90181
774.28381	0.90299
772.23001	0.90399
770.17620	0.90459
768.12240	0.90479
766.06860	0.90489
764.01479	0.90496
761.96099	0.90441
759.90719	0.90347
757.85338	0.90324
755.79958	0.90388
753.74578	0.90437
751.69197	0.90439
749.63817	0.90456
747.58437	0.90520
745.53056	0.90587
743.47676	0.90602
741.42296	0.90567
739.36916	0.90575
737.31535	0.90682
735.26155	0.90798
733.20775	0.90868
731.15394	0.90900
729.10014	0.90875
727.04634	0.90778
724.99253	0.90644
722.93873	0.90534
720.88493	0.90509
718.83112	0.90554
716.77732	0.90542
714.72352	0.90420
712.66971	0.90294
710.61591	0.90258
708.56211	0.90251
706.50830	0.90182
704.45450	0.90101
702.40070	0.90036
700.34689	0.89879
698.29309	0.89608
696.23929	0.89364
694.18548	0.89301
692.13168	0.89351
690.07788	0.89358
688.02408	0.89390
685.97027	0.89488
683.91647	0.89528
681.86267	0.89483
679.80886	0.89427
677.75506	0.89357
675.70126	0.89251
673.64745	0.89145
671.59365	0.89061
669.53985	0.88925
667.48604	0.88680
665.43224	0.88509
663.37844	0.88436
661.32463	0.88398
659.27083	0.88319
657.21703	0.88219
655.16322	0.88205
653.10942	0.88230
651.05562	0.88204
649.00181	0.88158
646.94801	0.88134
644.89421	0.88093
642.84040	0.88098
640.78660	0.88222
638.73280	0.88321
636.67899	0.88279
634.62519	0.88164
632.57139	0.88052
630.51759	0.87956
628.46378	0.87920
626.40998	0.87863
624.35618	0.87718
622.30237	0.87578
620.24857	0.87491
618.19477	0.87454
616.14096	0.87414
614.08716	0.87326
612.03336	0.87175
609.97955	0.86964
607.92575	0.86785
605.87195	0.86678
603.81814	0.86508
601.76434	0.86246
599.71054	0.86099
597.65673	0.86128
595.60293	0.86169
593.54913	0.86114
591.49532	0.85942
589.44152	0.85774
587.38772	0.85758
585.33391	0.85818
583.28011	0.85784
581.22631	0.85596
579.17250	0.85350
577.11870	0.85243
575.06490	0.85309
573.01110	0.85359
570.95729	0.85203
568.90349	0.84946
566.84969	0.84823
564.79588	0.84714
562.74208	0.84436
560.68828	0.84058
558.63447	0.83742
556.58067	0.83552
554.52687	0.83286
552.47306	0.82926
550.41926	0.82771
548.36546	0.82779
546.31165	0.82622
544.25785	0.82286
542.20405	0.81951
540.15024	0.81603
538.09644	0.81139
536.04264	0.80716
533.98883	0.80571
531.93503	0.80542
529.88123	0.80385
527.82742	0.80142
525.77362	0.79940
523.71982	0.79869
521.66602	0.79971
519.61221	0.80125
517.55841	0.80194
515.50461	0.80165
513.45080	0.80094
511.39700	0.80256
509.34320	0.80585
507.28939	0.80747
505.23559	0.80903
503.18179	0.81202
501.12798	0.81325
499.07418	0.81007
497.02038	0.80628
494.96657	0.80512
492.91277	0.80499
490.85897	0.80461
488.80516	0.80185
486.75136	0.79509
484.69756	0.78723
482.64375	0.78140
480.58995	0.77790
478.53615	0.77543
476.48234	0.77285
474.42854	0.76946
472.37474	0.76349
470.32093	0.75658
468.26713	0.75175
466.21333	0.74816
464.15953	0.74702
462.10572	0.74843
460.05192	0.74899
457.99812	0.74736
455.94431	0.74673
453.89051	0.74907
451.83671	0.75030
449.78290	0.75043
447.72910	0.75245
445.67530	0.75377
443.62149	0.75493
441.56769	0.75775
439.51389	0.75842
437.46008	0.75635
435.40628	0.75292
433.35248	0.74988
431.29867	0.74957
429.24487	0.75058
427.19107	0.74965
425.13726	0.74721
423.08346	0.74530
421.02966	0.74273
418.97585	0.74312
416.92205	0.75183
414.86825	0.75761
412.81445	0.75602
410.76064	0.75201
408.70684	0.75306
406.65304	0.75994
404.59923	0.76555
402.54543	0.76619
400.49163	0.76253
398.43782	0.75729
