3996.71440	0.99404
3994.66059	0.99406
3992.60678	0.99449
3990.55297	0.99478
3988.49916	0.99450
3986.44535	0.99399
3984.39154	0.99381
3982.33773	0.99407
3980.28391	0.99437
3978.23010	0.99447
3976.17629	0.99449
3974.12248	0.99454
3972.06867	0.99454
3970.01486	0.99454
3967.96105	0.99446
3965.90724	0.99413
3963.85343	0.99373
3961.79962	0.99366
3959.74581	0.99404
3957.69200	0.99435
3955.63819	0.99424
3953.58438	0.99412
3951.53057	0.99407
3949.47676	0.99391
3947.42295	0.99403
3945.36914	0.99437
3943.31533	0.99448
3941.26152	0.99427
3939.20771	0.99411
3937.15390	0.99416
3935.10009	0.99410
3933.04628	0.99393
3930.99247	0.99390
3928.93866	0.99381
3926.88485	0.99376
3924.83104	0.99397
3922.77723	0.99428
3920.72342	0.99453
3918.66961	0.99446
3916.61580	0.99425
3914.56199	0.99438
3912.50818	0.99463
3910.45437	0.99462
3908.40056	0.99427
3906.34675	0.99368
3904.29294	0.99336
3902.23913	0.99370
3900.18532	0.99380
3898.13151	0.99357
3896.07770	0.99364
3894.02389	0.99389
3891.97008	0.99431
3889.91627	0.99463
3887.86246	0.99431
3885.80865	0.99391
3883.75484	0.99406
3881.70103	0.99438
3879.64722	0.99442
3877.59341	0.99432
3875.53960	0.99429
3873.48579	0.99412
3871.43198	0.99368
3869.37817	0.99344
3867.32436	0.99352
3865.27055	0.99357
3863.21674	0.99376
3861.16293	0.99396
3859.10912	0.99391
3857.05531	0.99385
3855.00150	0.99382
3852.94769	0.99358
3850.89388	0.99368
3848.84007	0.99410
3846.78626	0.99430
3844.73245	0.99431
3842.67864	0.99420
3840.62483	0.99372
3838.57102	0.99331
3836.51721	0.99351
3834.46340	0.99381
3832.40959	0.99377
3830.35578	0.99367
3828.30197	0.99377
3826.24816	0.99389
3824.19435	0.99410
3822.14054	0.99449
3820.08673	0.99470
3818.03292	0.99439
3815.97911	0.99392
3813.92530	0.99404
3811.87149	0.99452
3809.81768	0.99465
3807.76387	0.99447
3805.71006	0.99407
3803.65625	0.99316
3801.60244	0.99252
3799.54863	0.99330
3797.49482	0.99426
3795.44101	0.99443
3793.38720	0.99424
3791.33339	0.99423
3789.27958	0.99443
3787.22577	0.99454
3785.17196	0.99443
3783.11815	0.99415
3781.06434	0.99387
3779.01053	0.99399
3776.95672	0.99441
3774.90291	0.99456
3772.84910	0.99437
3770.79529	0.99403
3768.74148	0.99381
3766.68767	0.99380
3764.63386	0.99393
3762.58005	0.99427
3760.52624	0.99463
3758.47243	0.99449
3756.41862	0.99398
3754.36481	0.99369
3752.31100	0.99352
3750.25719	0.99347
3748.20338	0.99357
3746.14957	0.99342
3744.09576	0.99335
3742.04195	0.99356
3739.98814	0.99355
3737.93433	0.99338
3735.88052	0.99304
3733.82671	0.99274
3731.77290	0.99324
3729.71909	0.99405
3727.66528	0.99433
3725.61147	0.99412
3723.55766	0.99407
3721.50385	0.99426
3719.45004	0.99420
3717.39623	0.99396
3715.34242	0.99377
3713.28861	0.99357
3711.23480	0.99336
3709.18099	0.99339
3707.12718	0.99365
3705.07337	0.99380
3703.01956	0.99341
3700.96575	0.99273
3698.91194	0.99283
3696.85813	0.99334
3694.80432	0.99339
3692.75051	0.99298
3690.69670	0.99255
3688.64289	0.99251
3686.58907	0.99252
3684.53526	0.99242
3682.48145	0.99231
3680.42764	0.99203
3678.37383	0.99145
3676.32002	0.99116
3674.26621	0.99164
3672.21240	0.99155
3670.15859	0.99091
3668.10478	0.99075
3666.05097	0.99079
3663.99716	0.99051
3661.94335	0.98994
3659.88954	0.98929
3657.83573	0.98862
3655.78192	0.98798
3653.72811	0.98753
3651.67430	0.98721
3649.62049	0.98674
3647.56668	0.98629
3645.51287	0.98613
3643.45906	0.98586
3641.40525	0.98526
3639.35144	0.98452
3637.29763	0.98391
3635.24382	0.98342
3633.19001	0.98291
3631.13620	0.98235
3629.08239	0.98162
3627.02858	0.98134
3624.97477	0.98129
3622.92096	0.98066
3620.86715	0.97965
3618.81334	0.97903
3616.75953	0.97896
3614.70572	0.97871
3612.65191	0.97807
3610.59810	0.97722
3608.54429	0.97655
3606.49048	0.97625
3604.43667	0.97588
3602.38286	0.97523
3600.32905	0.97469
3598.27524	0.97420
3596.22143	0.97369
3594.16762	0.97354
3592.11381	0.97341
3590.06000	0.97300
3588.00619	0.97251
3585.95238	0.97201
3583.89857	0.97142
3581.84476	0.97062
3579.79095	0.96992
3577.73714	0.96962
3575.68333	0.96925
3573.62952	0.96863
3571.57571	0.96799
3569.52190	0.96724
3567.46809	0.96635
3565.41428	0.96585
3563.36047	0.96596
3561.30666	0.96601
3559.25285	0.96546
3557.19904	0.96447
3555.14523	0.96350
3553.09142	0.96281
3551.03761	0.96233
3548.98380	0.96190
3546.92999	0.96137
3544.87618	0.96090
3542.82237	0.96052
3540.76856	0.95982
3538.71475	0.95900
3536.66094	0.95858
3534.60713	0.95845
3532.55332	0.95820
3530.49951	0.95755
3528.44570	0.95666
3526.39189	0.95598
3524.33808	0.95529
3522.28427	0.95445
3520.23046	0.95401
3518.17665	0.95407
3516.12284	0.95395
3514.06903	0.95312
3512.01522	0.95199
3509.96141	0.95118
3507.90760	0.95063
3505.85379	0.94997
3503.79998	0.94911
3501.74617	0.94842
3499.69236	0.94806
3497.63855	0.94775
3495.58474	0.94744
3493.53093	0.94727
3491.47712	0.94695
3489.42331	0.94617
3487.36950	0.94562
3485.31569	0.94545
3483.26188	0.94489
3481.20807	0.94386
3479.15426	0.94286
3477.10045	0.94211
3475.04664	0.94166
3472.99283	0.94161
3470.93902	0.94152
3468.88521	0.94082
3466.83140	0.94010
3464.77759	0.93997
3462.72378	0.93982
3460.66997	0.93930
3458.61616	0.93900
3456.56235	0.93890
3454.50854	0.93849
3452.45473	0.93787
3450.40092	0.93733
3448.34711	0.93689
3446.29330	0.93656
3444.23949	0.93629
3442.18568	0.93605
3440.13187	0.93598
3438.07806	0.93593
3436.02425	0.93565
3433.97044	0.93538
3431.91663	0.93530
3429.86282	0.93527
3427.80901	0.93501
3425.75520	0.93460
3423.70139	0.93422
3421.64758	0.93391
3419.59377	0.93365
3417.53996	0.93340
3415.48615	0.93325
3413.43234	0.93311
3411.37853	0.93289
3409.32472	0.93296
3407.27091	0.93328
3405.21710	0.93346
3403.16329	0.93354
3401.10948	0.93359
3399.05567	0.93354
3397.00186	0.93331
3394.94805	0.93299
3392.89424	0.93286
3390.84042	0.93286
3388.78661	0.93281
3386.73280	0.93282
3384.67899	0.93295
3382.62518	0.93311
3380.57137	0.93324
3378.51756	0.93337
3376.46375	0.93349
3374.40994	0.93355
3372.35613	0.93362
3370.30232	0.93379
3368.24851	0.93403
3366.19470	0.93427
3364.14089	0.93440
3362.08708	0.93438
3360.03327	0.93447
3357.97946	0.93495
3355.92565	0.93532
3353.87184	0.93532
3351.81803	0.93542
3349.76422	0.93552
3347.71041	0.93546
3345.65660	0.93565
3343.60279	0.93603
3341.54898	0.93626
3339.49517	0.93643
3337.44136	0.93667
3335.38755	0.93694
3333.33374	0.93724
3331.27993	0.93768
3329.22612	0.93822
3327.17231	0.93861
3325.11850	0.93873
3323.06469	0.93881
3321.01088	0.93921
3318.95707	0.93983
3316.90326	0.94028
3314.84945	0.94044
3312.79564	0.94032
3310.74183	0.94018
3308.68802	0.94039
3306.63421	0.94100
3304.58040	0.94166
3302.52659	0.94183
3300.47278	0.94158
3298.41897	0.94163
3296.36516	0.94215
3294.31135	0.94251
3292.25754	0.94269
3290.20373	0.94306
3288.14992	0.94369
3286.09611	0.94443
3284.04230	0.94487
3281.98849	0.94488
3279.93468	0.94475
3277.88087	0.94476
3275.82706	0.94503
3273.77325	0.94533
3271.71944	0.94544
3269.66563	0.94549
3267.61182	0.94584
3265.55801	0.94654
3263.50420	0.94713
3261.45039	0.94731
3259.39658	0.94737
3257.34277	0.94756
3255.28896	0.94782
3253.23515	0.94814
3251.18134	0.94852
3249.12753	0.94880
3247.07372	0.94888
3245.01991	0.94875
3242.96610	0.94886
3240.91229	0.94937
3238.85848	0.94986
3236.80467	0.95023
3234.75086	0.95053
3232.69705	0.95075
3230.64324	0.95094
3228.58943	0.95133
3226.53562	0.95194
3224.48181	0.95232
3222.42800	0.95253
3220.37419	0.95287
3218.32038	0.95331
3216.26657	0.95372
3214.21276	0.95395
3212.15895	0.95428
3210.10514	0.95470
3208.05133	0.95493
3205.99752	0.95513
3203.94371	0.95547
3201.88990	0.95583
3199.83609	0.95616
3197.78228	0.95653
3195.72847	0.95695
3193.67466	0.95751
3191.62085	0.95812
3189.56704	0.95857
3187.51323	0.95886
3185.45942	0.95919
3183.40561	0.95977
3181.35180	0.96033
3179.29799	0.96056
3177.24418	0.96063
3175.19037	0.96083
3173.13656	0.96123
3171.08275	0.96179
3169.02894	0.96243
3166.97513	0.96317
3164.92132	0.96381
3162.86751	0.96405
3160.81370	0.96412
3158.75989	0.96439
3156.70608	0.96483
3154.65227	0.96516
3152.59846	0.96537
3150.54465	0.96576
3148.49084	0.96639
3146.43703	0.96694
3144.38322	0.96735
3142.32941	0.96761
3140.27560	0.96747
3138.22179	0.96717
3136.16798	0.96745
3134.11417	0.96827
3132.06036	0.96885
3130.00655	0.96908
3127.95274	0.96946
3125.89893	0.96990
3123.84512	0.96990
3121.79131	0.96987
3119.73750	0.97048
3117.68369	0.97120
3115.62988	0.97139
3113.57607	0.97143
3111.52226	0.97172
3109.46845	0.97218
3107.41464	0.97257
3105.36083	0.97268
3103.30702	0.97265
3101.25321	0.97278
3099.19940	0.97295
3097.14559	0.97307
3095.09177	0.97313
3093.03796	0.97327
3090.98415	0.97365
3088.93034	0.97407
3086.87653	0.97441
3084.82272	0.97479
3082.76891	0.97518
3080.71510	0.97546
3078.66129	0.97554
3076.60748	0.97558
3074.55367	0.97559
3072.49986	0.97558
3070.44605	0.97575
3068.39224	0.97598
3066.33843	0.97621
3064.28462	0.97660
3062.23081	0.97699
3060.17700	0.97713
3058.12319	0.97714
3056.06938	0.97730
3054.01557	0.97761
3051.96176	0.97781
3049.90795	0.97792
3047.85414	0.97800
3045.80033	0.97803
3043.74652	0.97795
3041.69271	0.97791
3039.63890	0.97817
3037.58509	0.97864
3035.53128	0.97911
3033.47747	0.97927
3031.42366	0.97918
3029.36985	0.97911
3027.31604	0.97917
3025.26223	0.97946
3023.20842	0.97973
3021.15461	0.97966
3019.10080	0.97936
3017.04699	0.97912
3014.99318	0.97910
3012.93937	0.97927
3010.88556	0.97945
3008.83175	0.97950
3006.77794	0.97937
3004.72413	0.97911
3002.67032	0.97881
3000.61651	0.97860
2998.56270	0.97850
2996.50889	0.97821
2994.45508	0.97775
2992.40127	0.97734
2990.34746	0.97690
2988.29365	0.97619
2986.23984	0.97534
2984.18603	0.97454
2982.13222	0.97365
2980.07841	0.97239
2978.02460	0.97049
2975.97079	0.96797
2973.91698	0.96498
2971.86317	0.96139
2969.80936	0.95698
2967.75555	0.95180
2965.70174	0.94615
2963.64793	0.94056
2961.59412	0.93562
2959.54031	0.93169
2957.48650	0.92880
2955.43269	0.92644
2953.37888	0.92387
2951.32507	0.92159
2949.27126	0.92133
2947.21745	0.92397
2945.16364	0.92897
2943.10983	0.93461
2941.05602	0.93882
2939.00221	0.94038
2936.94840	0.93920
2934.89459	0.93581
2932.84078	0.93069
2930.78697	0.92454
2928.73316	0.91836
2926.67935	0.91238
2924.62554	0.90683
2922.57173	0.90232
2920.51792	0.89888
2918.46411	0.89682
2916.41030	0.89726
2914.35649	0.90053
2912.30268	0.90562
2910.24887	0.91107
2908.19506	0.91579
2906.14125	0.91973
2904.08744	0.92361
2902.03363	0.92773
2899.97982	0.93182
2897.92601	0.93580
2895.87220	0.93934
2893.81839	0.94192
2891.76458	0.94362
2889.71077	0.94493
2887.65696	0.94591
2885.60315	0.94624
2883.54934	0.94579
2881.49553	0.94472
2879.44172	0.94339
2877.38791	0.94232
2875.33410	0.94192
2873.28029	0.94200
2871.22648	0.94175
2869.17267	0.94103
2867.11886	0.94066
2865.06505	0.94179
2863.01124	0.94486
2860.95743	0.94889
2858.90362	0.95221
2856.84981	0.95374
2854.79600	0.95368
2852.74219	0.95301
2850.68838	0.95261
2848.63457	0.95267
2846.58076	0.95265
2844.52695	0.95168
2842.47314	0.94931
2840.41933	0.94635
2838.36552	0.94447
2836.31171	0.94512
2834.25790	0.94898
2832.20409	0.95531
2830.15028	0.96214
2828.09647	0.96764
2826.04266	0.97141
2823.98885	0.97408
2821.93504	0.97625
2819.88123	0.97795
2817.82742	0.97910
2815.77361	0.97985
2813.71980	0.98040
2811.66599	0.98089
2809.61218	0.98146
2807.55837	0.98214
2805.50456	0.98279
2803.45075	0.98332
2801.39693	0.98375
2799.34312	0.98413
2797.28931	0.98456
2795.23550	0.98491
2793.18169	0.98497
2791.12788	0.98505
2789.07407	0.98546
2787.02026	0.98610
2784.96645	0.98663
2782.91264	0.98679
2780.85883	0.98683
2778.80502	0.98708
2776.75121	0.98735
2774.69740	0.98754
2772.64359	0.98780
2770.58978	0.98807
2768.53597	0.98813
2766.48216	0.98802
2764.42835	0.98810
2762.37454	0.98834
2760.32073	0.98853
2758.26692	0.98864
2756.21311	0.98878
2754.15930	0.98880
2752.10549	0.98869
2750.05168	0.98878
2747.99787	0.98899
2745.94406	0.98905
2743.89025	0.98902
2741.83644	0.98897
2739.78263	0.98887
2737.72882	0.98881
2735.67501	0.98886
2733.62120	0.98877
2731.56739	0.98843
2729.51358	0.98818
2727.45977	0.98806
2725.40596	0.98789
2723.35215	0.98783
2721.29834	0.98801
2719.24453	0.98830
2717.19072	0.98866
2715.13691	0.98902
2713.08310	0.98924
2711.02929	0.98937
2708.97548	0.98946
2706.92167	0.98950
2704.86786	0.98953
2702.81405	0.98972
2700.76024	0.98986
2698.70643	0.98973
2696.65262	0.98963
2694.59881	0.98971
2692.54500	0.98969
2690.49119	0.98961
2688.43738	0.98972
2686.38357	0.98991
2684.32976	0.99001
2682.27595	0.99009
2680.22214	0.99024
2678.16833	0.99033
2676.11452	0.99024
2674.06071	0.99007
2672.00690	0.99005
2669.95309	0.99019
2667.89928	0.99033
2665.84547	0.99028
2663.79166	0.99010
2661.73785	0.98995
2659.68404	0.98989
2657.63023	0.98987
2655.57642	0.98979
2653.52261	0.98977
2651.46880	0.98992
2649.41499	0.99018
2647.36118	0.99043
2645.30737	0.99045
2643.25356	0.99025
2641.19975	0.99026
2639.14594	0.99061
2637.09213	0.99077
2635.03832	0.99053
2632.98451	0.99021
2630.93070	0.99007
2628.87689	0.99011
2626.82308	0.99025
2624.76927	0.99036
2622.71546	0.99052
2620.66165	0.99085
2618.60784	0.99109
2616.55403	0.99118
2614.50022	0.99139
2612.44641	0.99172
2610.39260	0.99185
2608.33879	0.99173
2606.28498	0.99162
2604.23117	0.99158
2602.17736	0.99148
2600.12355	0.99130
2598.06974	0.99141
2596.01593	0.99186
2593.96212	0.99213
2591.90831	0.99213
2589.85450	0.99196
2587.80069	0.99170
2585.74688	0.99174
2583.69307	0.99217
2581.63926	0.99256
2579.58545	0.99262
2577.53164	0.99238
2575.47783	0.99223
2573.42402	0.99219
2571.37021	0.99195
2569.31640	0.99191
2567.26259	0.99242
2565.20878	0.99282
2563.15497	0.99275
2561.10116	0.99260
2559.04735	0.99246
2556.99354	0.99237
2554.93973	0.99248
2552.88592	0.99256
2550.83211	0.99255
2548.77830	0.99272
2546.72449	0.99282
2544.67068	0.99262
2542.61687	0.99252
2540.56306	0.99277
2538.50925	0.99285
2536.45544	0.99277
2534.40163	0.99312
2532.34782	0.99348
2530.29401	0.99324
2528.24020	0.99295
2526.18639	0.99306
2524.13258	0.99345
2522.07877	0.99380
2520.02496	0.99390
2517.97115	0.99371
2515.91734	0.99354
2513.86353	0.99370
2511.80972	0.99379
2509.75591	0.99376
2507.70210	0.99392
2505.64828	0.99390
2503.59447	0.99377
2501.54066	0.99375
2499.48685	0.99370
2497.43304	0.99399
2495.37923	0.99432
2493.32542	0.99410
2491.27161	0.99392
2489.21780	0.99409
2487.16399	0.99402
2485.11018	0.99374
2483.05637	0.99378
2481.00256	0.99411
2478.94875	0.99438
2476.89494	0.99436
2474.84113	0.99411
2472.78732	0.99378
2470.73351	0.99348
2468.67970	0.99336
2466.62589	0.99355
2464.57208	0.99378
2462.51827	0.99394
2460.46446	0.99410
2458.41065	0.99403
2456.35684	0.99374
2454.30303	0.99354
2452.24922	0.99358
2450.19541	0.99361
2448.14160	0.99360
2446.08779	0.99376
2444.03398	0.99407
2441.98017	0.99439
2439.92636	0.99446
2437.87255	0.99430
2435.81874	0.99407
2433.76493	0.99381
2431.71112	0.99378
2429.65731	0.99402
2427.60350	0.99415
2425.54969	0.99384
2423.49588	0.99351
2421.44207	0.99372
2419.38826	0.99402
2417.33445	0.99413
2415.28064	0.99413
2413.22683	0.99402
2411.17302	0.99412
2409.11921	0.99443
2407.06540	0.99478
2405.01159	0.99502
2402.95778	0.99489
2400.90397	0.99445
2398.85016	0.99400
2396.79635	0.99387
2394.74254	0.99416
2392.68873	0.99444
2390.63492	0.99445
2388.58111	0.99436
2386.52730	0.99445
2384.47349	0.99470
2382.41968	0.99458
2380.36587	0.99404
2378.31206	0.99367
2376.25825	0.99364
2374.20444	0.99368
2372.15063	0.99372
2370.09682	0.99403
2368.04301	0.99467
2365.98920	0.99524
2363.93539	0.99531
2361.88158	0.99450
2359.82777	0.99372
2357.77396	0.99374
2355.72015	0.99362
2353.66634	0.99324
2351.61253	0.99322
2349.55872	0.99352
2347.50491	0.99390
2345.45110	0.99417
2343.39729	0.99400
2341.34348	0.99359
2339.28967	0.99351
2337.23586	0.99369
2335.18205	0.99375
2333.12824	0.99388
2331.07443	0.99427
2329.02062	0.99419
2326.96681	0.99317
2324.91300	0.99204
2322.85919	0.99177
2320.80538	0.99228
2318.75157	0.99272
2316.69776	0.99294
2314.64395	0.99313
2312.59014	0.99327
2310.53633	0.99336
2308.48252	0.99343
2306.42871	0.99327
2304.37490	0.99275
2302.32109	0.99241
2300.26728	0.99265
2298.21347	0.99301
2296.15966	0.99305
2294.10585	0.99296
2292.05204	0.99325
2289.99823	0.99354
2287.94442	0.99312
2285.89061	0.99254
2283.83680	0.99221
2281.78299	0.99192
2279.72918	0.99218
2277.67537	0.99320
2275.62156	0.99391
2273.56775	0.99385
2271.51394	0.99376
2269.46013	0.99399
2267.40632	0.99424
2265.35251	0.99398
2263.29870	0.99343
2261.24489	0.99324
2259.19108	0.99346
2257.13727	0.99389
2255.08346	0.99420
2253.02965	0.99412
2250.97584	0.99399
2248.92203	0.99406
2246.86822	0.99401
2244.81441	0.99380
2242.76060	0.99349
2240.70679	0.99333
2238.65298	0.99362
2236.59917	0.99365
2234.54536	0.99262
2232.49155	0.99166
2230.43774	0.99185
2228.38393	0.99226
2226.33012	0.99237
2224.27631	0.99250
2222.22250	0.99284
2220.16869	0.99336
2218.11488	0.99386
2216.06107	0.99448
2214.00726	0.99483
2211.95344	0.99439
2209.89963	0.99425
2207.84582	0.99509
2205.79201	0.99561
2203.73820	0.99489
2201.68439	0.99360
2199.63058	0.99321
2197.57677	0.99379
2195.52296	0.99432
2193.46915	0.99493
2191.41534	0.99526
2189.36153	0.99478
2187.30772	0.99353
2185.25391	0.99196
2183.20010	0.99206
2181.14629	0.99342
2179.09248	0.99400
2177.03867	0.99385
2174.98486	0.99328
2172.93105	0.99310
2170.87724	0.99332
2168.82343	0.99341
2166.76962	0.99403
2164.71581	0.99448
2162.66200	0.99340
2160.60819	0.99170
2158.55438	0.99213
2156.50057	0.99512
2154.44676	0.99741
2152.39295	0.99761
2150.33914	0.99703
2148.28533	0.99619
2146.23152	0.99501
2144.17771	0.99427
2142.12390	0.99403
2140.07009	0.99396
2138.01628	0.99456
2135.96247	0.99538
2133.90866	0.99554
2131.85485	0.99537
2129.80104	0.99500
2127.74723	0.99427
2125.69342	0.99373
2123.63961	0.99394
2121.58580	0.99438
2119.53199	0.99440
2117.47818	0.99393
2115.42437	0.99323
2113.37056	0.99327
2111.31675	0.99437
2109.26294	0.99504
2107.20913	0.99449
2105.15532	0.99389
2103.10151	0.99410
2101.04770	0.99436
2098.99389	0.99414
2096.94008	0.99385
2094.88627	0.99349
2092.83246	0.99284
2090.77865	0.99224
2088.72484	0.99207
2086.67103	0.99233
2084.61722	0.99292
2082.56341	0.99364
2080.50960	0.99397
2078.45579	0.99372
2076.40198	0.99341
2074.34817	0.99348
2072.29436	0.99391
2070.24055	0.99427
2068.18674	0.99395
2066.13293	0.99353
2064.07912	0.99372
2062.02531	0.99391
2059.97150	0.99375
2057.91769	0.99310
2055.86388	0.99251
2053.81007	0.99257
2051.75626	0.99235
2049.70245	0.99211
2047.64864	0.99290
2045.59483	0.99372
2043.54102	0.99380
2041.48721	0.99389
2039.43340	0.99410
2037.37959	0.99418
2035.32578	0.99494
2033.27197	0.99647
2031.21816	0.99712
2029.16435	0.99708
2027.11054	0.99705
2025.05673	0.99581
2023.00292	0.99423
2020.94911	0.99453
2018.89530	0.99540
2016.84149	0.99464
2014.78768	0.99340
2012.73387	0.99331
2010.68006	0.99337
2008.62625	0.99414
2006.57244	0.99649
2004.51863	0.99720
2002.46482	0.99609
2000.41101	0.99622
1998.35720	0.99695
1996.30339	0.99674
1994.24958	0.99656
1992.19577	0.99718
1990.14196	0.99711
1988.08815	0.99546
1986.03434	0.99357
1983.98053	0.99246
1981.92672	0.99251
1979.87291	0.99465
1977.81910	0.99729
1975.76529	0.99700
1973.71148	0.99494
1971.65767	0.99438
1969.60386	0.99479
1967.55005	0.99441
1965.49624	0.99431
1963.44243	0.99506
1961.38862	0.99624
1959.33481	0.99729
1957.28100	0.99631
1955.22719	0.99446
1953.17338	0.99449
1951.11957	0.99594
1949.06576	0.99666
1947.01195	0.99657
1944.95814	0.99699
1942.90433	0.99743
1940.85052	0.99674
1938.79671	0.99578
1936.74290	0.99558
1934.68909	0.99600
1932.63528	0.99602
1930.58147	0.99559
1928.52766	0.99534
1926.47385	0.99513
1924.42004	0.99531
1922.36623	0.99615
1920.31242	0.99672
1918.25861	0.99677
1916.20479	0.99652
1914.15098	0.99612
1912.09717	0.99571
1910.04336	0.99516
1907.98955	0.99442
1905.93574	0.99414
1903.88193	0.99458
1901.82812	0.99522
1899.77431	0.99572
1897.72050	0.99572
1895.66669	0.99520
1893.61288	0.99492
1891.55907	0.99515
1889.50526	0.99589
1887.45145	0.99675
1885.39764	0.99719
1883.34383	0.99709
1881.29002	0.99663
1879.23621	0.99613
1877.18240	0.99570
1875.12859	0.99531
1873.07478	0.99503
1871.02097	0.99514
1868.96716	0.99561
1866.91335	0.99580
1864.85954	0.99553
1862.80573	0.99521
1860.75192	0.99508
1858.69811	0.99519
1856.64430	0.99543
1854.59049	0.99551
1852.53668	0.99562
1850.48287	0.99570
1848.42906	0.99532
1846.37525	0.99479
1844.32144	0.99458
1842.26763	0.99463
1840.21382	0.99465
1838.16001	0.99473
1836.10620	0.99482
1834.05239	0.99470
1831.99858	0.99466
1829.94477	0.99477
1827.89096	0.99461
1825.83715	0.99443
1823.78334	0.99449
1821.72953	0.99461
1819.67572	0.99483
1817.62191	0.99519
1815.56810	0.99527
1813.51429	0.99499
1811.46048	0.99479
1809.40667	0.99463
1807.35286	0.99423
1805.29905	0.99394
1803.24524	0.99396
1801.19143	0.99394
1799.13762	0.99379
1797.08381	0.99376
1795.03000	0.99369
1792.97619	0.99327
1790.92238	0.99307
1788.86857	0.99332
1786.81476	0.99338
1784.76095	0.99331
1782.70714	0.99330
1780.65333	0.99325
1778.59952	0.99330
1776.54571	0.99336
1774.49190	0.99305
1772.43809	0.99251
1770.38428	0.99222
1768.33047	0.99217
1766.27666	0.99216
1764.22285	0.99198
1762.16904	0.99139
1760.11523	0.99055
1758.06142	0.98973
1756.00761	0.98883
1753.95380	0.98782
1751.89999	0.98653
1749.84618	0.98494
1747.79237	0.98377
1745.73856	0.98320
1743.68475	0.98257
1741.63094	0.98196
1739.57713	0.98203
1737.52332	0.98250
1735.46951	0.98277
1733.41570	0.98275
1731.36189	0.98289
1729.30808	0.98335
1727.25427	0.98364
1725.20046	0.98352
1723.14665	0.98316
1721.09284	0.98250
1719.03903	0.98155
1716.98522	0.98095
1714.93141	0.98091
1712.87760	0.98077
1710.82379	0.98052
1708.76998	0.98026
1706.71617	0.98007
1704.66236	0.98006
1702.60855	0.97986
1700.55474	0.97943
1698.50093	0.97929
1696.44712	0.97905
1694.39331	0.97831
1692.33950	0.97740
1690.28569	0.97634
1688.23188	0.97508
1686.17807	0.97379
1684.12426	0.97236
1682.07045	0.97112
1680.01664	0.97001
1677.96283	0.96877
1675.90902	0.96739
1673.85521	0.96590
1671.80140	0.96455
1669.74759	0.96341
1667.69378	0.96248
1665.63997	0.96171
1663.58616	0.96081
1661.53235	0.95991
1659.47854	0.95919
1657.42473	0.95838
1655.37092	0.95738
1653.31711	0.95649
1651.26330	0.95604
1649.20949	0.95563
1647.15568	0.95537
1645.10187	0.95535
1643.04806	0.95519
1640.99425	0.95500
1638.94044	0.95480
1636.88663	0.95434
1634.83282	0.95394
1632.77901	0.95395
1630.72520	0.95401
1628.67139	0.95406
1626.61758	0.95408
1624.56377	0.95409
1622.50996	0.95430
1620.45614	0.95459
1618.40233	0.95467
1616.34852	0.95479
1614.29471	0.95505
1612.24090	0.95511
1610.18709	0.95493
1608.13328	0.95467
1606.07947	0.95442
1604.02566	0.95425
1601.97185	0.95411
1599.91804	0.95385
1597.86423	0.95347
1595.81042	0.95308
1593.75661	0.95269
1591.70280	0.95245
1589.64899	0.95243
1587.59518	0.95259
1585.54137	0.95297
1583.48756	0.95353
1581.43375	0.95397
1579.37994	0.95439
1577.32613	0.95525
1575.27232	0.95670
1573.21851	0.95800
1571.16470	0.95918
1569.11089	0.96086
1567.05708	0.96269
1565.00327	0.96417
1562.94946	0.96537
1560.89565	0.96646
1558.84184	0.96794
1556.78803	0.96912
1554.73422	0.96971
1552.68041	0.97025
1550.62660	0.97093
1548.57279	0.97170
1546.51898	0.97220
1544.46517	0.97244
1542.41136	0.97267
1540.35755	0.97340
1538.30374	0.97462
1536.24993	0.97528
1534.19612	0.97584
1532.14231	0.97677
1530.08850	0.97756
1528.03469	0.97805
1525.98088	0.97839
1523.92707	0.97848
1521.87326	0.97853
1519.81945	0.97882
1517.76564	0.97930
1515.71183	0.98009
1513.65802	0.98082
1511.60421	0.98116
1509.55040	0.98102
1507.49659	0.98054
1505.44278	0.98095
1503.38897	0.98176
1501.33516	0.98196
1499.28135	0.98145
1497.22754	0.98069
1495.17373	0.98040
1493.11992	0.98032
1491.06611	0.97996
1489.01230	0.97922
1486.95849	0.97845
1484.90468	0.97776
1482.85087	0.97681
1480.79706	0.97556
1478.74325	0.97416
1476.68944	0.97216
1474.63563	0.96910
1472.58182	0.96467
1470.52801	0.95935
1468.47420	0.95397
1466.42039	0.94817
1464.36658	0.94238
1462.31277	0.93811
1460.25896	0.93527
1458.20515	0.93355
1456.15134	0.93328
1454.09753	0.93349
1452.04372	0.93413
1449.98991	0.93621
1447.93610	0.94089
1445.88229	0.94741
1443.82848	0.95318
1441.77467	0.95726
1439.72086	0.95947
1437.66705	0.96020
1435.61324	0.96088
1433.55943	0.96280
1431.50562	0.96545
1429.45181	0.96777
1427.39800	0.96904
1425.34419	0.96958
1423.29038	0.96972
1421.23657	0.96962
1419.18276	0.96950
1417.12895	0.96967
1415.07514	0.96995
1413.02133	0.97025
1410.96752	0.97076
1408.91371	0.97145
1406.85990	0.97204
1404.80609	0.97231
1402.75228	0.97251
1400.69847	0.97267
1398.64466	0.97253
1396.59085	0.97243
1394.53704	0.97263
1392.48323	0.97238
1390.42942	0.97145
1388.37561	0.96996
1386.32180	0.96720
1384.26799	0.96211
1382.21418	0.95344
1380.16037	0.94042
1378.10656	0.92592
1376.05275	0.91749
1373.99894	0.92173
1371.94513	0.93497
1369.89132	0.94788
1367.83751	0.95666
1365.78370	0.96083
1363.72989	0.96175
1361.67608	0.96111
1359.62227	0.96057
1357.56846	0.96144
1355.51465	0.96405
1353.46084	0.96750
1351.40703	0.97042
1349.35322	0.97231
1347.29941	0.97353
1345.24560	0.97463
1343.19179	0.97567
1341.13798	0.97635
1339.08417	0.97675
1337.03036	0.97713
1334.97655	0.97725
1332.92274	0.97702
1330.86893	0.97658
1328.81512	0.97627
1326.76130	0.97632
1324.70749	0.97657
1322.65368	0.97677
1320.59987	0.97680
1318.54606	0.97679
1316.49225	0.97680
1314.43844	0.97678
1312.38463	0.97686
1310.33082	0.97689
1308.27701	0.97653
1306.22320	0.97583
1304.16939	0.97538
1302.11558	0.97579
1300.06177	0.97655
1298.00796	0.97690
1295.95415	0.97707
1293.90034	0.97737
1291.84653	0.97765
1289.79272	0.97795
1287.73891	0.97833
1285.68510	0.97849
1283.63129	0.97832
1281.57748	0.97815
1279.52367	0.97819
1277.46986	0.97823
1275.41605	0.97802
1273.36224	0.97769
1271.30843	0.97751
1269.25462	0.97741
1267.20081	0.97712
1265.14700	0.97666
1263.09319	0.97618
1261.03938	0.97561
1258.98557	0.97513
1256.93176	0.97488
1254.87795	0.97493
1252.82414	0.97553
1250.77033	0.97648
1248.71652	0.97732
1246.66271	0.97778
1244.60890	0.97795
1242.55509	0.97816
1240.50128	0.97845
1238.44747	0.97863
1236.39366	0.97884
1234.33985	0.97917
1232.28604	0.97929
1230.23223	0.97918
1228.17842	0.97920
1226.12461	0.97939
1224.07080	0.97943
1222.01699	0.97916
1219.96318	0.97882
1217.90937	0.97881
1215.85556	0.97915
1213.80175	0.97955
1211.74794	0.97978
1209.69413	0.97979
1207.64032	0.97970
1205.58651	0.97967
1203.53270	0.97978
1201.47889	0.97991
1199.42508	0.97983
1197.37127	0.97962
1195.31746	0.97954
1193.26365	0.97956
1191.20984	0.97945
1189.15603	0.97917
1187.10222	0.97893
1185.04841	0.97865
1182.99460	0.97816
1180.94079	0.97761
1178.88698	0.97699
1176.83317	0.97591
1174.77936	0.97414
1172.72555	0.97157
1170.67174	0.96851
1168.61793	0.96599
1166.56412	0.96529
1164.51031	0.96642
1162.45650	0.96794
1160.40269	0.96886
1158.34888	0.96944
1156.29507	0.97000
1154.24126	0.97025
1152.18745	0.97026
1150.13364	0.97059
1148.07983	0.97141
1146.02602	0.97213
1143.97221	0.97245
1141.91840	0.97253
1139.86459	0.97258
1137.81078	0.97248
1135.75697	0.97196
1133.70316	0.97115
1131.64935	0.97014
1129.59554	0.96882
1127.54173	0.96759
1125.48792	0.96666
1123.43411	0.96595
1121.38030	0.96563
1119.32649	0.96555
1117.27268	0.96575
1115.21887	0.96656
1113.16506	0.96756
1111.11125	0.96812
1109.05744	0.96813
1107.00363	0.96776
1104.94982	0.96732
1102.89601	0.96734
1100.84220	0.96773
1098.78839	0.96791
1096.73458	0.96774
1094.68077	0.96746
1092.62696	0.96723
1090.57315	0.96727
1088.51934	0.96775
1086.46553	0.96828
1084.41172	0.96845
1082.35791	0.96856
1080.30410	0.96903
1078.25029	0.96966
1076.19648	0.97023
1074.14267	0.97065
1072.08886	0.97101
1070.03505	0.97133
1067.98124	0.97151
1065.92743	0.97162
1063.87362	0.97169
1061.81981	0.97170
1059.76600	0.97163
1057.71219	0.97144
1055.65838	0.97102
1053.60457	0.97021
1051.55076	0.96922
1049.49695	0.96827
1047.44314	0.96720
1045.38933	0.96635
1043.33552	0.96637
1041.28171	0.96695
1039.22790	0.96746
1037.17409	0.96796
1035.12028	0.96867
1033.06647	0.96923
1031.01265	0.96958
1028.95884	0.97018
1026.90503	0.97073
1024.85122	0.97069
1022.79741	0.97026
1020.74360	0.96995
1018.68979	0.97012
1016.63598	0.97083
1014.58217	0.97190
1012.52836	0.97283
1010.47455	0.97332
1008.42074	0.97365
1006.36693	0.97387
1004.31312	0.97325
1002.25931	0.97107
1000.20550	0.96775
998.15169	0.96543
996.09788	0.96636
994.04407	0.96996
991.99026	0.97357
989.93645	0.97590
987.88264	0.97711
985.82883	0.97761
983.77502	0.97780
981.72121	0.97730
979.66740	0.97543
977.61359	0.97222
975.55978	0.96825
973.50597	0.96551
971.45216	0.96647
969.39835	0.97066
967.34454	0.97504
965.29073	0.97785
963.23692	0.97947
961.18311	0.98030
959.12930	0.98050
957.07549	0.98067
955.02168	0.98112
952.96787	0.98139
950.91406	0.98144
948.86025	0.98160
946.80644	0.98171
944.75263	0.98161
942.69882	0.98139
940.64501	0.98127
938.59120	0.98161
936.53739	0.98215
934.48358	0.98239
932.42977	0.98234
930.37596	0.98216
928.32215	0.98201
926.26834	0.98217
924.21453	0.98254
922.16072	0.98270
920.10691	0.98271
918.05310	0.98285
915.99929	0.98293
913.94548	0.98295
911.89167	0.98306
909.83786	0.98305
907.78405	0.98257
905.73024	0.98132
903.67643	0.97941
901.62262	0.97758
899.56881	0.97675
897.51500	0.97736
895.46119	0.97887
893.40738	0.98027
891.35357	0.98102
889.29976	0.98125
887.24595	0.98128
885.19214	0.98145
883.13833	0.98169
881.08452	0.98153
879.03071	0.98099
876.97690	0.98043
874.92309	0.98003
872.86928	0.97987
870.81547	0.97973
868.76166	0.97938
866.70785	0.97874
864.65404	0.97783
862.60023	0.97711
860.54642	0.97701
858.49261	0.97704
856.43880	0.97707
854.38499	0.97727
852.33118	0.97706
850.27737	0.97636
848.22356	0.97532
846.16975	0.97285
844.11594	0.96824
842.06213	0.96392
840.00832	0.96390
837.95451	0.96802
835.90070	0.97179
833.84689	0.97334
831.79308	0.97418
829.73927	0.97472
827.68546	0.97474
825.63165	0.97484
823.57784	0.97501
821.52403	0.97481
819.47022	0.97442
817.41641	0.97382
815.36260	0.97251
813.30879	0.97046
811.25498	0.96837
809.20117	0.96702
807.14736	0.96714
805.09355	0.96843
803.03974	0.96949
800.98593	0.97001
798.93212	0.97050
796.87831	0.97077
794.82450	0.97072
792.77069	0.97065
790.71688	0.97055
788.66307	0.97047
786.60926	0.97066
784.55545	0.97091
782.50164	0.97080
780.44783	0.97053
778.39402	0.97048
776.34021	0.97049
774.28640	0.97042
772.23259	0.97013
770.17878	0.96937
768.12497	0.96873
766.07116	0.96892
764.01735	0.96947
761.96354	0.96983
759.90973	0.97030
757.85592	0.97057
755.80211	0.97002
753.74830	0.96932
751.69449	0.96911
749.64068	0.96879
747.58687	0.96833
745.53306	0.96815
743.47925	0.96804
741.42544	0.96791
739.37163	0.96777
737.31781	0.96746
735.26400	0.96701
733.21019	0.96640
731.15638	0.96573
729.10257	0.96517
727.04876	0.96496
724.99495	0.96491
722.94114	0.96423
720.88733	0.96314
718.83352	0.96290
716.77971	0.96362
714.72590	0.96447
712.67209	0.96493
710.61828	0.96465
708.56447	0.96403
706.51066	0.96399
704.45685	0.96425
702.40304	0.96393
700.34923	0.96327
698.29542	0.96263
696.24161	0.96219
694.18780	0.96220
692.13399	0.96209
690.08018	0.96158
688.02637	0.96149
685.97256	0.96195
683.91875	0.96212
681.86494	0.96195
679.81113	0.96189
677.75732	0.96164
675.70351	0.96097
673.64970	0.96021
671.59589	0.95985
669.54208	0.95971
667.48827	0.95941
665.43446	0.95941
663.38065	0.95951
661.32684	0.95908
659.27303	0.95824
657.21922	0.95813
655.16541	0.95888
653.11160	0.95960
651.05779	0.95987
649.00398	0.95995
646.95017	0.95980
644.89636	0.95936
642.84255	0.95902
640.78874	0.95872
638.73493	0.95813
636.68112	0.95755
634.62731	0.95736
632.57350	0.95719
630.51969	0.95705
628.46588	0.95714
626.41207	0.95683
624.35826	0.95614
622.30445	0.95621
620.25064	0.95705
618.19683	0.95765
616.14302	0.95768
614.08921	0.95710
612.03540	0.95600
609.98159	0.95500
607.92778	0.95498
605.87397	0.95554
603.82016	0.95553
601.76635	0.95505
599.71254	0.95479
597.65873	0.95503
595.60492	0.95579
593.55111	0.95584
591.49730	0.95432
589.44349	0.95293
587.38968	0.95287
585.33587	0.95287
583.28206	0.95268
581.22825	0.95353
579.17444	0.95423
577.12063	0.95389
575.06682	0.95440
573.01301	0.95503
570.95920	0.95394
568.90539	0.95306
566.85158	0.95371
564.79777	0.95445
562.74396	0.95449
560.69015	0.95382
558.63634	0.95328
556.58253	0.95318
554.52872	0.95256
552.47491	0.95196
550.42110	0.95247
548.36729	0.95306
546.31348	0.95266
544.25967	0.95166
542.20586	0.95088
540.15205	0.95104
538.09824	0.95147
536.04443	0.95157
533.99062	0.95240
531.93681	0.95399
529.88300	0.95470
527.82919	0.95383
525.77538	0.95258
523.72157	0.95277
521.66776	0.95389
519.61395	0.95369
517.56014	0.95250
515.50633	0.95230
513.45252	0.95221
511.39871	0.95160
509.34490	0.95236
507.29109	0.95456
505.23728	0.95656
503.18347	0.95690
501.12966	0.95536
499.07585	0.95431
497.02204	0.95432
494.96823	0.95401
492.91442	0.95307
490.86061	0.95246
488.80680	0.95383
486.75299	0.95673
484.69918	0.95774
482.64537	0.95577
480.59156	0.95315
478.53775	0.95110
476.48394	0.95008
474.43013	0.94958
472.37632	0.94979
470.32251	0.95141
468.26870	0.95313
466.21489	0.95466
464.16108	0.95583
462.10727	0.95565
460.05346	0.95344
457.99965	0.94932
455.94584	0.94662
453.89203	0.94695
451.83822	0.94848
449.78441	0.95040
447.73060	0.95250
445.67679	0.95454
443.62298	0.95451
441.56916	0.95341
439.51535	0.95407
437.46154	0.95342
435.40773	0.95042
433.35392	0.94862
431.30011	0.94901
429.24630	0.95054
427.19249	0.95218
425.13868	0.95383
423.08487	0.95622
421.03106	0.95778
418.97725	0.95669
416.92344	0.95544
414.86963	0.95450
412.81582	0.95417
410.76201	0.95555
408.70820	0.95682
406.65439	0.95781
404.60058	0.95845
402.54677	0.95706
400.49296	0.95608
398.43915	0.96030
