3996.71440	0.97047
3994.66059	0.97045
3992.60678	0.97056
3990.55297	0.97069
3988.49916	0.97064
3986.44535	0.97022
3984.39154	0.96978
3982.33773	0.96965
3980.28391	0.96983
3978.23010	0.97030
3976.17629	0.97072
3974.12248	0.97066
3972.06867	0.97024
3970.01486	0.97007
3967.96105	0.97025
3965.90724	0.97036
3963.85343	0.97041
3961.79962	0.97045
3959.74581	0.97044
3957.69200	0.97036
3955.63819	0.97023
3953.58438	0.97015
3951.53057	0.97000
3949.47676	0.96989
3947.42295	0.96994
3945.36914	0.96991
3943.31533	0.96974
3941.26152	0.96966
3939.20771	0.96961
3937.15390	0.96950
3935.10009	0.96965
3933.04628	0.97026
3930.99247	0.97079
3928.93866	0.97062
3926.88485	0.97020
3924.83104	0.97018
3922.77723	0.97035
3920.72342	0.97033
3918.66961	0.97016
3916.61580	0.96991
3914.56199	0.96987
3912.50818	0.97006
3910.45437	0.97006
3908.40056	0.96970
3906.34675	0.96920
3904.29294	0.96910
3902.23913	0.96947
3900.18532	0.96978
3898.13151	0.96980
3896.07770	0.96983
3894.02389	0.97010
3891.97008	0.97048
3889.91627	0.97065
3887.86246	0.97067
3885.80865	0.97059
3883.75484	0.97040
3881.70103	0.97024
3879.64722	0.97002
3877.59341	0.96983
3875.53960	0.96968
3873.48579	0.96964
3871.43198	0.96993
3869.37817	0.97022
3867.32436	0.97026
3865.27055	0.97016
3863.21674	0.96999
3861.16293	0.97012
3859.10912	0.97044
3857.05531	0.97044
3855.00150	0.97015
3852.94769	0.97006
3850.89388	0.97023
3848.84007	0.97030
3846.78626	0.97033
3844.73245	0.97046
3842.67864	0.97051
3840.62483	0.97028
3838.57102	0.97009
3836.51721	0.97030
3834.46340	0.97046
3832.40959	0.97027
3830.35578	0.97009
3828.30197	0.97031
3826.24816	0.97070
3824.19435	0.97097
3822.14054	0.97105
3820.08673	0.97098
3818.03292	0.97092
3815.97911	0.97067
3813.92530	0.97019
3811.87149	0.97017
3809.81768	0.97049
3807.76387	0.97061
3805.71006	0.97063
3803.65625	0.97077
3801.60244	0.97073
3799.54863	0.97087
3797.49482	0.97143
3795.44101	0.97155
3793.38720	0.97114
3791.33339	0.97087
3789.27958	0.97080
3787.22577	0.97077
3785.17196	0.97083
3783.11815	0.97099
3781.06434	0.97106
3779.01053	0.97110
3776.95672	0.97111
3774.90291	0.97085
3772.84910	0.97032
3770.79529	0.96996
3768.74148	0.97027
3766.68767	0.97051
3764.63386	0.97039
3762.58005	0.97058
3760.52624	0.97096
3758.47243	0.97100
3756.41862	0.97095
3754.36481	0.97108
3752.31100	0.97105
3750.25719	0.97083
3748.20338	0.97119
3746.14957	0.97182
3744.09576	0.97183
3742.04195	0.97147
3739.98814	0.97140
3737.93433	0.97130
3735.88052	0.97116
3733.82671	0.97140
3731.77290	0.97152
3729.71909	0.97142
3727.66528	0.97140
3725.61147	0.97108
3723.55766	0.97066
3721.50385	0.97089
3719.45004	0.97112
3717.39623	0.97069
3715.34242	0.97019
3713.28861	0.96983
3711.23480	0.96905
3709.18099	0.96811
3707.12718	0.96757
3705.07337	0.96713
3703.01956	0.96658
3700.96575	0.96597
3698.91194	0.96566
3696.85813	0.96554
3694.80432	0.96540
3692.75051	0.96567
3690.69670	0.96622
3688.64289	0.96608
3686.58907	0.96578
3684.53526	0.96626
3682.48145	0.96686
3680.42764	0.96692
3678.37383	0.96668
3676.32002	0.96640
3674.26621	0.96614
3672.21240	0.96599
3670.15859	0.96568
3668.10478	0.96537
3666.05097	0.96532
3663.99716	0.96513
3661.94335	0.96464
3659.88954	0.96417
3657.83573	0.96378
3655.78192	0.96333
3653.72811	0.96301
3651.67430	0.96302
3649.62049	0.96335
3647.56668	0.96313
3645.51287	0.96235
3643.45906	0.96184
3641.40525	0.96154
3639.35144	0.96114
3637.29763	0.96077
3635.24382	0.96059
3633.19001	0.96053
3631.13620	0.96042
3629.08239	0.96016
3627.02858	0.95964
3624.97477	0.95926
3622.92096	0.95918
3620.86715	0.95907
3618.81334	0.95902
3616.75953	0.95956
3614.70572	0.96017
3612.65191	0.96029
3610.59810	0.96015
3608.54429	0.95982
3606.49048	0.95926
3604.43667	0.95896
3602.38286	0.95918
3600.32905	0.95984
3598.27524	0.96051
3596.22143	0.96078
3594.16762	0.96061
3592.11381	0.96036
3590.06000	0.96028
3588.00619	0.96023
3585.95238	0.96038
3583.89857	0.96088
3581.84476	0.96131
3579.79095	0.96106
3577.73714	0.96058
3575.68333	0.96073
3573.62952	0.96088
3571.57571	0.96043
3569.52190	0.96003
3567.46809	0.96005
3565.41428	0.95986
3563.36047	0.95943
3561.30666	0.95941
3559.25285	0.95990
3557.19904	0.96046
3555.14523	0.96069
3553.09142	0.96060
3551.03761	0.96041
3548.98380	0.96023
3546.92999	0.96003
3544.87618	0.95987
3542.82237	0.95968
3540.76856	0.95946
3538.71475	0.95950
3536.66094	0.95977
3534.60713	0.95970
3532.55332	0.95948
3530.49951	0.95970
3528.44570	0.95995
3526.39189	0.95970
3524.33808	0.95944
3522.28427	0.95956
3520.23046	0.95979
3518.17665	0.95980
3516.12284	0.95945
3514.06903	0.95896
3512.01522	0.95867
3509.96141	0.95884
3507.90760	0.95917
3505.85379	0.95917
3503.79998	0.95897
3501.74617	0.95885
3499.69236	0.95878
3497.63855	0.95865
3495.58474	0.95837
3493.53093	0.95794
3491.47712	0.95770
3489.42331	0.95792
3487.36950	0.95818
3485.31569	0.95813
3483.26188	0.95795
3481.20807	0.95791
3479.15426	0.95792
3477.10045	0.95781
3475.04664	0.95764
3472.99283	0.95759
3470.93902	0.95764
3468.88521	0.95767
3466.83140	0.95764
3464.77759	0.95748
3462.72378	0.95724
3460.66997	0.95717
3458.61616	0.95735
3456.56235	0.95735
3454.50854	0.95718
3452.45473	0.95722
3450.40092	0.95728
3448.34711	0.95701
3446.29330	0.95667
3444.23949	0.95666
3442.18568	0.95670
3440.13187	0.95665
3438.07806	0.95664
3436.02425	0.95668
3433.97044	0.95693
3431.91663	0.95712
3429.86282	0.95667
3427.80901	0.95614
3425.75520	0.95637
3423.70139	0.95672
3421.64758	0.95666
3419.59377	0.95660
3417.53996	0.95670
3415.48615	0.95688
3413.43234	0.95710
3411.37853	0.95699
3409.32472	0.95657
3407.27091	0.95653
3405.21710	0.95701
3403.16329	0.95709
3401.10948	0.95658
3399.05567	0.95625
3397.00186	0.95633
3394.94805	0.95647
3392.89424	0.95644
3390.84042	0.95622
3388.78661	0.95613
3386.73280	0.95633
3384.67899	0.95656
3382.62518	0.95652
3380.57137	0.95633
3378.51756	0.95640
3376.46375	0.95660
3374.40994	0.95648
3372.35613	0.95620
3370.30232	0.95616
3368.24851	0.95641
3366.19470	0.95658
3364.14089	0.95643
3362.08708	0.95625
3360.03327	0.95620
3357.97946	0.95617
3355.92565	0.95628
3353.87184	0.95646
3351.81803	0.95648
3349.76422	0.95651
3347.71041	0.95664
3345.65660	0.95670
3343.60279	0.95693
3341.54898	0.95720
3339.49517	0.95713
3337.44136	0.95697
3335.38755	0.95701
3333.33374	0.95713
3331.27993	0.95717
3329.22612	0.95724
3327.17231	0.95754
3325.11850	0.95781
3323.06469	0.95781
3321.01088	0.95779
3318.95707	0.95773
3316.90326	0.95761
3314.84945	0.95753
3312.79564	0.95754
3310.74183	0.95766
3308.68802	0.95758
3306.63421	0.95734
3304.58040	0.95735
3302.52659	0.95758
3300.47278	0.95776
3298.41897	0.95779
3296.36516	0.95761
3294.31135	0.95733
3292.25754	0.95722
3290.20373	0.95730
3288.14992	0.95754
3286.09611	0.95781
3284.04230	0.95793
3281.98849	0.95810
3279.93468	0.95824
3277.88087	0.95816
3275.82706	0.95819
3273.77325	0.95841
3271.71944	0.95860
3269.66563	0.95864
3267.61182	0.95860
3265.55801	0.95859
3263.50420	0.95864
3261.45039	0.95887
3259.39658	0.95917
3257.34277	0.95922
3255.28896	0.95907
3253.23515	0.95905
3251.18134	0.95913
3249.12753	0.95905
3247.07372	0.95897
3245.01991	0.95920
3242.96610	0.95965
3240.91229	0.95990
3238.85848	0.95981
3236.80467	0.95956
3234.75086	0.95948
3232.69705	0.95975
3230.64324	0.96009
3228.58943	0.96013
3226.53562	0.96013
3224.48181	0.96037
3222.42800	0.96073
3220.37419	0.96106
3218.32038	0.96121
3216.26657	0.96119
3214.21276	0.96118
3212.15895	0.96120
3210.10514	0.96131
3208.05133	0.96147
3205.99752	0.96176
3203.94371	0.96220
3201.88990	0.96230
3199.83609	0.96204
3197.78228	0.96202
3195.72847	0.96234
3193.67466	0.96253
3191.62085	0.96237
3189.56704	0.96208
3187.51323	0.96188
3185.45942	0.96212
3183.40561	0.96290
3181.35180	0.96357
3179.29799	0.96366
3177.24418	0.96346
3175.19037	0.96337
3173.13656	0.96334
3171.08275	0.96343
3169.02894	0.96369
3166.97513	0.96388
3164.92132	0.96396
3162.86751	0.96414
3160.81370	0.96446
3158.75989	0.96471
3156.70608	0.96462
3154.65227	0.96430
3152.59846	0.96421
3150.54465	0.96453
3148.49084	0.96490
3146.43703	0.96497
3144.38322	0.96491
3142.32941	0.96491
3140.27560	0.96496
3138.22179	0.96512
3136.16798	0.96530
3134.11417	0.96534
3132.06036	0.96535
3130.00655	0.96548
3127.95274	0.96570
3125.89893	0.96594
3123.84512	0.96616
3121.79131	0.96633
3119.73750	0.96627
3117.68369	0.96603
3115.62988	0.96578
3113.57607	0.96543
3111.52226	0.96519
3109.46845	0.96542
3107.41464	0.96580
3105.36083	0.96583
3103.30702	0.96572
3101.25321	0.96579
3099.19940	0.96584
3097.14559	0.96575
3095.09177	0.96571
3093.03796	0.96555
3090.98415	0.96529
3088.93034	0.96537
3086.87653	0.96554
3084.82272	0.96533
3082.76891	0.96509
3080.71510	0.96503
3078.66129	0.96499
3076.60748	0.96495
3074.55367	0.96501
3072.49986	0.96519
3070.44605	0.96535
3068.39224	0.96545
3066.33843	0.96568
3064.28462	0.96607
3062.23081	0.96625
3060.17700	0.96610
3058.12319	0.96593
3056.06938	0.96583
3054.01557	0.96563
3051.96176	0.96544
3049.90795	0.96549
3047.85414	0.96564
3045.80033	0.96567
3043.74652	0.96558
3041.69271	0.96548
3039.63890	0.96549
3037.58509	0.96568
3035.53128	0.96589
3033.47747	0.96599
3031.42366	0.96611
3029.36985	0.96618
3027.31604	0.96613
3025.26223	0.96612
3023.20842	0.96617
3021.15461	0.96625
3019.10080	0.96631
3017.04699	0.96630
3014.99318	0.96622
3012.93937	0.96626
3010.88556	0.96637
3008.83175	0.96641
3006.77794	0.96630
3004.72413	0.96605
3002.67032	0.96599
3000.61651	0.96631
2998.56270	0.96649
2996.50889	0.96636
2994.45508	0.96635
2992.40127	0.96644
2990.34746	0.96628
2988.29365	0.96585
2986.23984	0.96544
2984.18603	0.96500
2982.13222	0.96431
2980.07841	0.96359
2978.02460	0.96315
2975.97079	0.96287
2973.91698	0.96220
2971.86317	0.96095
2969.80936	0.95959
2967.75555	0.95834
2965.70174	0.95681
2963.64793	0.95470
2961.59412	0.95236
2959.54031	0.95031
2957.48650	0.94855
2955.43269	0.94685
2953.37888	0.94498
2951.32507	0.94289
2949.27126	0.94028
2947.21745	0.93647
2945.16364	0.93085
2943.10983	0.92292
2941.05602	0.91279
2939.00221	0.90091
2936.94840	0.88704
2934.89459	0.87052
2932.84078	0.85084
2930.78697	0.82785
2928.73316	0.80113
2926.67935	0.76943
2924.62554	0.73153
2922.57173	0.68718
2920.51792	0.63813
2918.46411	0.58992
2916.41030	0.55271
2914.35649	0.53810
2912.30268	0.54993
2910.24887	0.57962
2908.19506	0.61424
2906.14125	0.64583
2904.08744	0.67164
2902.03363	0.69171
2899.97982	0.70776
2897.92601	0.72146
2895.87220	0.73387
2893.81839	0.74600
2891.76458	0.75842
2889.71077	0.77116
2887.65696	0.78424
2885.60315	0.79766
2883.54934	0.81132
2881.49553	0.82516
2879.44172	0.83914
2877.38791	0.85278
2875.33410	0.86508
2873.28029	0.87504
2871.22648	0.88223
2869.17267	0.88656
2867.11886	0.88766
2865.06505	0.88498
2863.01124	0.87771
2860.95743	0.86418
2858.90362	0.84212
2856.84981	0.80838
2854.79600	0.75928
2852.74219	0.69513
2850.68838	0.62738
2848.63457	0.57934
2846.58076	0.57082
2844.52695	0.60023
2842.47314	0.64934
2840.41933	0.70083
2838.36552	0.74570
2836.31171	0.78153
2834.25790	0.80920
2832.20409	0.83058
2830.15028	0.84740
2828.09647	0.86088
2826.04266	0.87192
2823.98885	0.88090
2821.93504	0.88816
2819.88123	0.89432
2817.82742	0.89954
2815.77361	0.90391
2813.71980	0.90773
2811.66599	0.91123
2809.61218	0.91446
2807.55837	0.91727
2805.50456	0.91971
2803.45075	0.92200
2801.39693	0.92415
2799.34312	0.92602
2797.28931	0.92765
2795.23550	0.92924
2793.18169	0.93088
2791.12788	0.93246
2789.07407	0.93392
2787.02026	0.93544
2784.96645	0.93695
2782.91264	0.93820
2780.85883	0.93915
2778.80502	0.93990
2776.75121	0.94068
2774.69740	0.94159
2772.64359	0.94254
2770.58978	0.94334
2768.53597	0.94387
2766.48216	0.94440
2764.42835	0.94508
2762.37454	0.94562
2760.32073	0.94604
2758.26692	0.94650
2756.21311	0.94687
2754.15930	0.94720
2752.10549	0.94755
2750.05168	0.94793
2747.99787	0.94833
2745.94406	0.94873
2743.89025	0.94918
2741.83644	0.94952
2739.78263	0.94957
2737.72882	0.94947
2735.67501	0.94942
2733.62120	0.94974
2731.56739	0.95043
2729.51358	0.95093
2727.45977	0.95090
2725.40596	0.95065
2723.35215	0.95077
2721.29834	0.95128
2719.24453	0.95181
2717.19072	0.95209
2715.13691	0.95225
2713.08310	0.95259
2711.02929	0.95289
2708.97548	0.95285
2706.92167	0.95281
2704.86786	0.95303
2702.81405	0.95342
2700.76024	0.95376
2698.70643	0.95409
2696.65262	0.95426
2694.59881	0.95410
2692.54500	0.95413
2690.49119	0.95439
2688.43738	0.95446
2686.38357	0.95439
2684.32976	0.95428
2682.27595	0.95410
2680.22214	0.95409
2678.16833	0.95430
2676.11452	0.95458
2674.06071	0.95467
2672.00690	0.95437
2669.95309	0.95397
2667.89928	0.95374
2665.84547	0.95362
2663.79166	0.95351
2661.73785	0.95335
2659.68404	0.95327
2657.63023	0.95346
2655.57642	0.95380
2653.52261	0.95405
2651.46880	0.95405
2649.41499	0.95389
2647.36118	0.95377
2645.30737	0.95374
2643.25356	0.95367
2641.19975	0.95366
2639.14594	0.95400
2637.09213	0.95438
2635.03832	0.95435
2632.98451	0.95415
2630.93070	0.95426
2628.87689	0.95467
2626.82308	0.95512
2624.76927	0.95567
2622.71546	0.95610
2620.66165	0.95622
2618.60784	0.95640
2616.55403	0.95687
2614.50022	0.95735
2612.44641	0.95756
2610.39260	0.95764
2608.33879	0.95775
2606.28498	0.95808
2604.23117	0.95875
2602.17736	0.95918
2600.12355	0.95930
2598.06974	0.95972
2596.01593	0.96027
2593.96212	0.96026
2591.90831	0.95982
2589.85450	0.95972
2587.80069	0.96003
2585.74688	0.96025
2583.69307	0.96037
2581.63926	0.96057
2579.58545	0.96064
2577.53164	0.96047
2575.47783	0.96045
2573.42402	0.96075
2571.37021	0.96107
2569.31640	0.96120
2567.26259	0.96112
2565.20878	0.96118
2563.15497	0.96165
2561.10116	0.96221
2559.04735	0.96227
2556.99354	0.96185
2554.93973	0.96167
2552.88592	0.96195
2550.83211	0.96219
2548.77830	0.96223
2546.72449	0.96226
2544.67068	0.96255
2542.61687	0.96292
2540.56306	0.96298
2538.50925	0.96281
2536.45544	0.96263
2534.40163	0.96258
2532.34782	0.96273
2530.29401	0.96292
2528.24020	0.96281
2526.18639	0.96242
2524.13258	0.96223
2522.07877	0.96257
2520.02496	0.96325
2517.97115	0.96370
2515.91734	0.96370
2513.86353	0.96349
2511.80972	0.96339
2509.75591	0.96339
2507.70210	0.96337
2505.64828	0.96337
2503.59447	0.96351
2501.54066	0.96362
2499.48685	0.96355
2497.43304	0.96366
2495.37923	0.96399
2493.32542	0.96422
2491.27161	0.96439
2489.21780	0.96459
2487.16399	0.96461
2485.11018	0.96436
2483.05637	0.96419
2481.00256	0.96419
2478.94875	0.96430
2476.89494	0.96435
2474.84113	0.96423
2472.78732	0.96422
2470.73351	0.96443
2468.67970	0.96454
2466.62589	0.96451
2464.57208	0.96450
2462.51827	0.96444
2460.46446	0.96443
2458.41065	0.96449
2456.35684	0.96444
2454.30303	0.96463
2452.24922	0.96508
2450.19541	0.96521
2448.14160	0.96501
2446.08779	0.96484
2444.03398	0.96484
2441.98017	0.96509
2439.92636	0.96532
2437.87255	0.96490
2435.81874	0.96413
2433.76493	0.96415
2431.71112	0.96482
2429.65731	0.96529
2427.60350	0.96533
2425.54969	0.96507
2423.49588	0.96478
2421.44207	0.96473
2419.38826	0.96470
2417.33445	0.96438
2415.28064	0.96413
2413.22683	0.96443
2411.17302	0.96486
2409.11921	0.96490
2407.06540	0.96493
2405.01159	0.96522
2402.95778	0.96543
2400.90397	0.96552
2398.85016	0.96558
2396.79635	0.96534
2394.74254	0.96494
2392.68873	0.96490
2390.63492	0.96500
2388.58111	0.96500
2386.52730	0.96514
2384.47349	0.96548
2382.41968	0.96568
2380.36587	0.96560
2378.31206	0.96554
2376.25825	0.96576
2374.20444	0.96594
2372.15063	0.96580
2370.09682	0.96521
2368.04301	0.96457
2365.98920	0.96494
2363.93539	0.96585
2361.88158	0.96630
2359.82777	0.96652
2357.77396	0.96606
2355.72015	0.96500
2353.66634	0.96437
2351.61253	0.96397
2349.55872	0.96344
2347.50491	0.96297
2345.45110	0.96291
2343.39729	0.96311
2341.34348	0.96302
2339.28967	0.96284
2337.23586	0.96272
2335.18205	0.96240
2333.12824	0.96209
2331.07443	0.96232
2329.02062	0.96284
2326.96681	0.96241
2324.91300	0.96114
2322.85919	0.96082
2320.80538	0.96182
2318.75157	0.96263
2316.69776	0.96282
2314.64395	0.96302
2312.59014	0.96315
2310.53633	0.96304
2308.48252	0.96315
2306.42871	0.96344
2304.37490	0.96372
2302.32109	0.96384
2300.26728	0.96376
2298.21347	0.96370
2296.15966	0.96364
2294.10585	0.96350
2292.05204	0.96329
2289.99823	0.96314
2287.94442	0.96319
2285.89061	0.96338
2283.83680	0.96372
2281.78299	0.96364
2279.72918	0.96310
2277.67537	0.96326
2275.62156	0.96419
2273.56775	0.96501
2271.51394	0.96541
2269.46013	0.96543
2267.40632	0.96538
2265.35251	0.96563
2263.29870	0.96579
2261.24489	0.96540
2259.19108	0.96502
2257.13727	0.96555
2255.08346	0.96664
2253.02965	0.96677
2250.97584	0.96609
2248.92203	0.96575
2246.86822	0.96546
2244.81441	0.96519
2242.76060	0.96530
2240.70679	0.96523
2238.65298	0.96438
2236.59917	0.96333
2234.54536	0.96361
2232.49155	0.96482
2230.43774	0.96562
2228.38393	0.96599
2226.33012	0.96645
2224.27631	0.96723
2222.22250	0.96803
2220.16869	0.96840
2218.11488	0.96769
2216.06107	0.96633
2214.00726	0.96541
2211.95344	0.96501
2209.89963	0.96583
2207.84582	0.96743
2205.79201	0.96776
2203.73820	0.96730
2201.68439	0.96755
2199.63058	0.96785
2197.57677	0.96770
2195.52296	0.96791
2193.46915	0.96835
2191.41534	0.96798
2189.36153	0.96780
2187.30772	0.96868
2185.25391	0.96866
2183.20010	0.96709
2181.14629	0.96590
2179.09248	0.96641
2177.03867	0.96800
2174.98486	0.96863
2172.93105	0.96828
2170.87724	0.96887
2168.82343	0.96960
2166.76962	0.96902
2164.71581	0.96785
2162.66200	0.96679
2160.60819	0.96725
2158.55438	0.97062
2156.50057	0.97285
2154.44676	0.97110
2152.39295	0.96960
2150.33914	0.97073
2148.28533	0.97120
2146.23152	0.96981
2144.17771	0.96879
2142.12390	0.96842
2140.07009	0.96845
2138.01628	0.96938
2135.96247	0.97026
2133.90866	0.97011
2131.85485	0.96930
2129.80104	0.96833
2127.74723	0.96756
2125.69342	0.96734
2123.63961	0.96748
2121.58580	0.96754
2119.53199	0.96727
2117.47818	0.96712
2115.42437	0.96765
2113.37056	0.96830
2111.31675	0.96845
2109.26294	0.96807
2107.20913	0.96721
2105.15532	0.96685
2103.10151	0.96779
2101.04770	0.96886
2098.99389	0.96878
2096.94008	0.96794
2094.88627	0.96745
2092.83246	0.96751
2090.77865	0.96728
2088.72484	0.96681
2086.67103	0.96666
2084.61722	0.96625
2082.56341	0.96580
2080.50960	0.96615
2078.45579	0.96677
2076.40198	0.96735
2074.34817	0.96776
2072.29436	0.96738
2070.24055	0.96667
2068.18674	0.96673
2066.13293	0.96795
2064.07912	0.96912
2062.02531	0.96879
2059.97150	0.96760
2057.91769	0.96708
2055.86388	0.96722
2053.81007	0.96708
2051.75626	0.96654
2049.70245	0.96693
2047.64864	0.96914
2045.59483	0.97065
2043.54102	0.96954
2041.48721	0.96767
2039.43340	0.96650
2037.37959	0.96620
2035.32578	0.96689
2033.27197	0.96770
2031.21816	0.96762
2029.16435	0.96662
2027.11054	0.96637
2025.05673	0.96801
2023.00292	0.96991
2020.94911	0.97038
2018.89530	0.96945
2016.84149	0.96822
2014.78768	0.96818
2012.73387	0.96927
2010.68006	0.96974
2008.62625	0.96875
2006.57244	0.96747
2004.51863	0.96770
2002.46482	0.96914
2000.41101	0.96960
1998.35720	0.96935
1996.30339	0.97001
1994.24958	0.97077
1992.19577	0.97045
1990.14196	0.96993
1988.08815	0.97018
1986.03434	0.97006
1983.98053	0.96909
1981.92672	0.96861
1979.87291	0.96917
1977.81910	0.97040
1975.76529	0.97124
1973.71148	0.96977
1971.65767	0.96786
1969.60386	0.96842
1967.55005	0.96943
1965.49624	0.96926
1963.44243	0.96917
1961.38862	0.96928
1959.33481	0.97000
1957.28100	0.97139
1955.22719	0.97129
1953.17338	0.96912
1951.11957	0.96724
1949.06576	0.96737
1947.01195	0.96894
1944.95814	0.97012
1942.90433	0.96999
1940.85052	0.96955
1938.79671	0.96934
1936.74290	0.96904
1934.68909	0.96872
1932.63528	0.96789
1930.58147	0.96650
1928.52766	0.96589
1926.47385	0.96610
1924.42004	0.96650
1922.36623	0.96717
1920.31242	0.96755
1918.25861	0.96735
1916.20479	0.96706
1914.15098	0.96710
1912.09717	0.96699
1910.04336	0.96629
1907.98955	0.96590
1905.93574	0.96600
1903.88193	0.96611
1901.82812	0.96645
1899.77431	0.96661
1897.72050	0.96634
1895.66669	0.96623
1893.61288	0.96621
1891.55907	0.96598
1889.50526	0.96627
1887.45145	0.96713
1885.39764	0.96724
1883.34383	0.96678
1881.29002	0.96663
1879.23621	0.96671
1877.18240	0.96687
1875.12859	0.96724
1873.07478	0.96766
1871.02097	0.96767
1868.96716	0.96722
1866.91335	0.96666
1864.85954	0.96604
1862.80573	0.96539
1860.75192	0.96523
1858.69811	0.96595
1856.64430	0.96697
1854.59049	0.96752
1852.53668	0.96772
1850.48287	0.96778
1848.42906	0.96770
1846.37525	0.96761
1844.32144	0.96748
1842.26763	0.96716
1840.21382	0.96684
1838.16001	0.96651
1836.10620	0.96632
1834.05239	0.96653
1831.99858	0.96684
1829.94477	0.96673
1827.89096	0.96646
1825.83715	0.96640
1823.78334	0.96625
1821.72953	0.96607
1819.67572	0.96612
1817.62191	0.96617
1815.56810	0.96604
1813.51429	0.96589
1811.46048	0.96559
1809.40667	0.96516
1807.35286	0.96483
1805.29905	0.96473
1803.24524	0.96483
1801.19143	0.96486
1799.13762	0.96464
1797.08381	0.96426
1795.03000	0.96396
1792.97619	0.96381
1790.92238	0.96361
1788.86857	0.96344
1786.81476	0.96330
1784.76095	0.96311
1782.70714	0.96306
1780.65333	0.96317
1778.59952	0.96334
1776.54571	0.96341
1774.49190	0.96319
1772.43809	0.96265
1770.38428	0.96202
1768.33047	0.96157
1766.27666	0.96155
1764.22285	0.96184
1762.16904	0.96198
1760.11523	0.96182
1758.06142	0.96154
1756.00761	0.96122
1753.95380	0.96092
1751.89999	0.96054
1749.84618	0.95991
1747.79237	0.95921
1745.73856	0.95848
1743.68475	0.95758
1741.63094	0.95665
1739.57713	0.95603
1737.52332	0.95589
1735.46951	0.95590
1733.41570	0.95551
1731.36189	0.95477
1729.30808	0.95411
1727.25427	0.95344
1725.20046	0.95246
1723.14665	0.95124
1721.09284	0.95037
1719.03903	0.94968
1716.98522	0.94849
1714.93141	0.94732
1712.87760	0.94707
1710.82379	0.94764
1708.76998	0.94853
1706.71617	0.94936
1704.66236	0.95002
1702.60855	0.95058
1700.55474	0.95099
1698.50093	0.95101
1696.44712	0.95109
1694.39331	0.95120
1692.33950	0.95117
1690.28569	0.95122
1688.23188	0.95112
1686.17807	0.95053
1684.12426	0.94964
1682.07045	0.94907
1680.01664	0.94874
1677.96283	0.94839
1675.90902	0.94782
1673.85521	0.94721
1671.80140	0.94688
1669.74759	0.94656
1667.69378	0.94626
1665.63997	0.94608
1663.58616	0.94574
1661.53235	0.94507
1659.47854	0.94442
1657.42473	0.94401
1655.37092	0.94354
1653.31711	0.94265
1651.26330	0.94222
1649.20949	0.94230
1647.15568	0.94217
1645.10187	0.94197
1643.04806	0.94189
1640.99425	0.94187
1638.94044	0.94203
1636.88663	0.94238
1634.83282	0.94286
1632.77901	0.94330
1630.72520	0.94357
1628.67139	0.94379
1626.61758	0.94416
1624.56377	0.94482
1622.50996	0.94570
1620.45614	0.94648
1618.40233	0.94712
1616.34852	0.94784
1614.29471	0.94849
1612.24090	0.94887
1610.18709	0.94916
1608.13328	0.94946
1606.07947	0.94984
1604.02566	0.95031
1601.97185	0.95065
1599.91804	0.95069
1597.86423	0.95053
1595.81042	0.95041
1593.75661	0.95045
1591.70280	0.95062
1589.64899	0.95091
1587.59518	0.95114
1585.54137	0.95113
1583.48756	0.95097
1581.43375	0.95083
1579.37994	0.95070
1577.32613	0.95056
1575.27232	0.95043
1573.21851	0.95020
1571.16470	0.94993
1569.11089	0.94972
1567.05708	0.94955
1565.00327	0.94935
1562.94946	0.94919
1560.89565	0.94895
1558.84184	0.94812
1556.78803	0.94742
1554.73422	0.94725
1552.68041	0.94687
1550.62660	0.94638
1548.57279	0.94597
1546.51898	0.94552
1544.46517	0.94503
1542.41136	0.94455
1540.35755	0.94362
1538.30374	0.94264
1536.24993	0.94217
1534.19612	0.94149
1532.14231	0.94050
1530.08850	0.93968
1528.03469	0.93893
1525.98088	0.93791
1523.92707	0.93683
1521.87326	0.93627
1519.81945	0.93667
1517.76564	0.93753
1515.71183	0.93848
1513.65802	0.93925
1511.60421	0.93961
1509.55040	0.93970
1507.49659	0.93989
1505.44278	0.94016
1503.38897	0.94020
1501.33516	0.94018
1499.28135	0.94008
1497.22754	0.93988
1495.17373	0.93969
1493.11992	0.93959
1491.06611	0.93925
1489.01230	0.93855
1486.95849	0.93780
1484.90468	0.93679
1482.85087	0.93476
1480.79706	0.93048
1478.74325	0.91968
1476.68944	0.88985
1474.63563	0.83256
1472.58182	0.77991
1470.52801	0.77822
1468.47420	0.79929
1466.42039	0.80797
1464.36658	0.79578
1462.31277	0.78874
1460.25896	0.80854
1458.20515	0.84699
1456.15134	0.88057
1454.09753	0.89515
1452.04372	0.90327
1449.98991	0.90994
1447.93610	0.91513
1445.88229	0.91868
1443.82848	0.92103
1441.77467	0.92311
1439.72086	0.92512
1437.66705	0.92706
1435.61324	0.92890
1433.55943	0.93055
1431.50562	0.93236
1429.45181	0.93447
1427.39800	0.93647
1425.34419	0.93803
1423.29038	0.93910
1421.23657	0.93962
1419.18276	0.93997
1417.12895	0.94041
1415.07514	0.94074
1413.02133	0.94095
1410.96752	0.94135
1408.91371	0.94206
1406.85990	0.94265
1404.80609	0.94310
1402.75228	0.94372
1400.69847	0.94447
1398.64466	0.94507
1396.59085	0.94560
1394.53704	0.94604
1392.48323	0.94630
1390.42942	0.94654
1388.37561	0.94672
1386.32180	0.94676
1384.26799	0.94661
1382.21418	0.94621
1380.16037	0.94556
1378.10656	0.94485
1376.05275	0.94415
1373.99894	0.94326
1371.94513	0.94228
1369.89132	0.94165
1367.83751	0.94156
1365.78370	0.94212
1363.72989	0.94318
1361.67608	0.94415
1359.62227	0.94463
1357.56846	0.94492
1355.51465	0.94506
1353.46084	0.94498
1351.40703	0.94497
1349.35322	0.94542
1347.29941	0.94619
1345.24560	0.94675
1343.19179	0.94698
1341.13798	0.94717
1339.08417	0.94766
1337.03036	0.94827
1334.97655	0.94863
1332.92274	0.94882
1330.86893	0.94897
1328.81512	0.94908
1326.76130	0.94902
1324.70749	0.94874
1322.65368	0.94844
1320.59987	0.94826
1318.54606	0.94806
1316.49225	0.94773
1314.43844	0.94720
1312.38463	0.94649
1310.33082	0.94596
1308.27701	0.94578
1306.22320	0.94572
1304.16939	0.94561
1302.11558	0.94544
1300.06177	0.94514
1298.00796	0.94472
1295.95415	0.94427
1293.90034	0.94397
1291.84653	0.94395
1289.79272	0.94398
1287.73891	0.94373
1285.68510	0.94317
1283.63129	0.94238
1281.57748	0.94132
1279.52367	0.94003
1277.46986	0.93900
1275.41605	0.93875
1273.36224	0.93912
1271.30843	0.93966
1269.25462	0.93996
1267.20081	0.93973
1265.14700	0.93919
1263.09319	0.93873
1261.03938	0.93828
1258.98557	0.93757
1256.93176	0.93665
1254.87795	0.93563
1252.82414	0.93438
1250.77033	0.93278
1248.71652	0.93116
1246.66271	0.92987
1244.60890	0.92904
1242.55509	0.92882
1240.50128	0.92907
1238.44747	0.92941
1236.39366	0.92974
1234.33985	0.93017
1232.28604	0.93049
1230.23223	0.93054
1228.17842	0.93040
1226.12461	0.92990
1224.07080	0.92895
1222.01699	0.92764
1219.96318	0.92590
1217.90937	0.92387
1215.85556	0.92235
1213.80175	0.92195
1211.74794	0.92245
1209.69413	0.92345
1207.64032	0.92467
1205.58651	0.92599
1203.53270	0.92752
1201.47889	0.92925
1199.42508	0.93088
1197.37127	0.93215
1195.31746	0.93301
1193.26365	0.93351
1191.20984	0.93387
1189.15603	0.93419
1187.10222	0.93434
1185.04841	0.93416
1182.99460	0.93377
1180.94079	0.93338
1178.88698	0.93304
1176.83317	0.93283
1174.77936	0.93269
1172.72555	0.93235
1170.67174	0.93178
1168.61793	0.93112
1166.56412	0.93036
1164.51031	0.92972
1162.45650	0.92946
1160.40269	0.92941
1158.34888	0.92927
1156.29507	0.92898
1154.24126	0.92853
1152.18745	0.92793
1150.13364	0.92721
1148.07983	0.92634
1146.02602	0.92536
1143.97221	0.92425
1141.91840	0.92296
1139.86459	0.92153
1137.81078	0.91997
1135.75697	0.91824
1133.70316	0.91611
1131.64935	0.91356
1129.59554	0.91083
1127.54173	0.90801
1125.48792	0.90525
1123.43411	0.90263
1121.38030	0.89980
1119.32649	0.89666
1117.27268	0.89344
1115.21887	0.88997
1113.16506	0.88601
1111.11125	0.88171
1109.05744	0.87734
1107.00363	0.87321
1104.94982	0.86960
1102.89601	0.86668
1100.84220	0.86447
1098.78839	0.86276
1096.73458	0.86146
1094.68077	0.86053
1092.62696	0.85952
1090.57315	0.85812
1088.51934	0.85653
1086.46553	0.85485
1084.41172	0.85294
1082.35791	0.85108
1080.30410	0.84953
1078.25029	0.84814
1076.19648	0.84687
1074.14267	0.84573
1072.08886	0.84456
1070.03505	0.84323
1067.98124	0.84177
1065.92743	0.84020
1063.87362	0.83857
1061.81981	0.83682
1059.76600	0.83488
1057.71219	0.83276
1055.65838	0.83020
1053.60457	0.82694
1051.55076	0.82330
1049.49695	0.81959
1047.44314	0.81565
1045.38933	0.81160
1043.33552	0.80817
1041.28171	0.80542
1039.22790	0.80294
1037.17409	0.80071
1035.12028	0.79892
1033.06647	0.79791
1031.01265	0.79768
1028.95884	0.79791
1026.90503	0.79854
1024.85122	0.79953
1022.79741	0.80058
1020.74360	0.80145
1018.68979	0.80220
1016.63598	0.80279
1014.58217	0.80314
1012.52836	0.80382
1010.47455	0.80521
1008.42074	0.80717
1006.36693	0.80980
1004.31312	0.81299
1002.25931	0.81651
1000.20550	0.82034
998.15169	0.82433
996.09788	0.82881
994.04407	0.83388
991.99026	0.83866
989.93645	0.84308
987.88264	0.84802
985.82883	0.85340
983.77502	0.85841
981.72121	0.86301
979.66740	0.86769
977.61359	0.87236
975.55978	0.87639
973.50597	0.87958
971.45216	0.88214
969.39835	0.88424
967.34454	0.88602
965.29073	0.88783
963.23692	0.89017
961.18311	0.89299
959.12930	0.89590
957.07549	0.89858
955.02168	0.90091
952.96787	0.90286
950.91406	0.90450
948.86025	0.90614
946.80644	0.90781
944.75263	0.90901
942.69882	0.90963
940.64501	0.91011
938.59120	0.91078
936.53739	0.91159
934.48358	0.91215
932.42977	0.91225
930.37596	0.91219
928.32215	0.91212
926.26834	0.91198
924.21453	0.91172
922.16072	0.91109
920.10691	0.91005
918.05310	0.90900
915.99929	0.90820
913.94548	0.90739
911.89167	0.90659
909.83786	0.90649
907.78405	0.90793
905.73024	0.91098
903.67643	0.91449
901.62262	0.91749
899.56881	0.91995
897.51500	0.92210
895.46119	0.92373
893.40738	0.92455
891.35357	0.92506
889.29976	0.92583
887.24595	0.92673
885.19214	0.92727
883.13833	0.92738
881.08452	0.92732
879.03071	0.92733
876.97690	0.92782
874.92309	0.92869
872.86928	0.92948
870.81547	0.92975
868.76166	0.92959
866.70785	0.92951
864.65404	0.92924
862.60023	0.92829
860.54642	0.92671
858.49261	0.92488
856.43880	0.92359
854.38499	0.92380
852.33118	0.92582
850.27737	0.92841
848.22356	0.92996
846.16975	0.93026
844.11594	0.92999
842.06213	0.92961
840.00832	0.92936
837.95451	0.92922
835.90070	0.92877
833.84689	0.92807
831.79308	0.92758
829.73927	0.92788
827.68546	0.92896
825.63165	0.92996
823.57784	0.93010
821.52403	0.92962
819.47022	0.92931
817.41641	0.92937
815.36260	0.92969
813.30879	0.93015
811.25498	0.93064
809.20117	0.93080
807.14736	0.93044
805.09355	0.92963
803.03974	0.92852
800.98593	0.92778
798.93212	0.92765
796.87831	0.92770
794.82450	0.92756
792.77069	0.92765
790.71688	0.92817
788.66307	0.92843
786.60926	0.92838
784.55545	0.92847
782.50164	0.92846
780.44783	0.92852
778.39402	0.92885
776.34021	0.92901
774.28640	0.92892
772.23259	0.92903
770.17878	0.92914
768.12497	0.92885
766.07116	0.92842
764.01735	0.92786
761.96354	0.92709
759.90973	0.92655
757.85592	0.92628
755.80211	0.92611
753.74830	0.92592
751.69449	0.92570
749.64068	0.92556
747.58687	0.92544
745.53306	0.92505
743.47925	0.92441
741.42544	0.92357
739.37163	0.92172
737.31781	0.91677
735.26400	0.90184
733.21019	0.86736
731.15638	0.82700
729.10257	0.81533
727.04876	0.83118
724.99495	0.83830
722.94114	0.81397
720.88733	0.76143
718.83352	0.71810
716.77971	0.72348
714.72590	0.76819
712.67209	0.81730
710.61828	0.85060
708.56447	0.86896
706.51066	0.87884
704.45685	0.88413
702.40304	0.88714
700.34923	0.88919
698.29542	0.89091
696.24161	0.89226
694.18780	0.89316
692.13399	0.89416
690.08018	0.89525
688.02637	0.89560
685.97256	0.89548
683.91875	0.89620
681.86494	0.89763
679.81113	0.89908
677.75732	0.90070
675.70351	0.90140
673.64970	0.90058
671.59589	0.90009
669.54208	0.90135
667.48827	0.90349
665.43446	0.90354
663.38065	0.90277
661.32684	0.90261
659.27303	0.90279
657.21922	0.90276
655.16541	0.90295
653.11160	0.90378
651.05779	0.90433
649.00398	0.90403
646.95017	0.90336
644.89636	0.90250
642.84255	0.90181
640.78874	0.90141
638.73493	0.90106
636.68112	0.90041
634.62731	0.89964
632.57350	0.89917
630.51969	0.89827
628.46588	0.89636
626.41207	0.89430
624.35826	0.89347
622.30445	0.89396
620.25064	0.89490
618.19683	0.89568
616.14302	0.89572
614.08921	0.89519
612.03540	0.89517
609.98159	0.89510
607.92778	0.89398
605.87397	0.89318
603.82016	0.89301
601.76635	0.89214
599.71254	0.89124
597.65873	0.89151
595.60492	0.89188
593.55111	0.89049
591.49730	0.88727
589.44349	0.88368
587.38968	0.88059
585.33587	0.87843
583.28206	0.87761
581.22825	0.87708
579.17444	0.87600
577.12063	0.87509
575.06682	0.87462
573.01301	0.87385
570.95920	0.87214
568.90539	0.86941
566.85158	0.86714
564.79777	0.86638
562.74396	0.86533
560.69015	0.86346
558.63634	0.86256
556.58253	0.86223
554.52872	0.86117
552.47491	0.85997
550.42110	0.85842
548.36729	0.85642
546.31348	0.85494
544.25967	0.85368
542.20586	0.85227
540.15205	0.85037
538.09824	0.84788
536.04443	0.84542
533.99062	0.84366
531.93681	0.84249
529.88300	0.84132
527.82919	0.84041
525.77538	0.84083
523.72157	0.84240
521.66776	0.84371
519.61395	0.84510
517.56014	0.84701
515.50633	0.84917
513.45252	0.85098
511.39871	0.85127
509.34490	0.85096
507.29109	0.85141
505.23728	0.85297
503.18347	0.85507
501.12966	0.85588
499.07585	0.85587
497.02204	0.85613
494.96823	0.85559
492.91442	0.85458
490.86061	0.85437
488.80680	0.85379
486.75299	0.85119
484.69918	0.84652
482.64537	0.84036
480.59156	0.83303
478.53775	0.82489
476.48394	0.81740
474.43013	0.81004
472.37632	0.80125
470.32251	0.79396
468.26870	0.79117
466.21489	0.79171
464.16108	0.79366
462.10727	0.79789
460.05346	0.80420
457.99965	0.80923
455.94584	0.81106
453.89203	0.81246
451.83822	0.81685
449.78441	0.82163
447.73060	0.82367
445.67679	0.82525
443.62298	0.82741
441.56916	0.82846
439.51535	0.82748
437.46154	0.82541
435.40773	0.82452
433.35392	0.82536
431.30011	0.82681
429.24630	0.82652
427.19249	0.82351
425.13868	0.82234
423.08487	0.82581
421.03106	0.83044
418.97725	0.83318
416.92344	0.83590
414.86963	0.84154
412.81582	0.84926
410.76201	0.85670
408.70820	0.86117
406.65439	0.86222
404.60058	0.86383
402.54677	0.86931
400.49296	0.87613
398.43915	0.87978
