3996.70104	0.98176
3994.64724	0.98240
3992.59344	0.98300
3990.53964	0.98286
3988.48583	0.98227
3986.43203	0.98199
3984.37823	0.98215
3982.32442	0.98264
3980.27062	0.98325
3978.21682	0.98339
3976.16301	0.98285
3974.10921	0.98236
3972.05541	0.98217
3970.00160	0.98162
3967.94780	0.98118
3965.89400	0.98139
3963.84019	0.98172
3961.78639	0.98200
3959.73259	0.98248
3957.67878	0.98293
3955.62498	0.98314
3953.57118	0.98327
3951.51737	0.98321
3949.46357	0.98283
3947.40977	0.98258
3945.35596	0.98286
3943.30216	0.98313
3941.24836	0.98290
3939.19455	0.98257
3937.14075	0.98248
3935.08695	0.98261
3933.03315	0.98247
3930.97934	0.98159
3928.92554	0.98109
3926.87174	0.98174
3924.81793	0.98253
3922.76413	0.98266
3920.71033	0.98284
3918.65652	0.98328
3916.60272	0.98317
3914.54892	0.98277
3912.49511	0.98272
3910.44131	0.98283
3908.38751	0.98285
3906.33370	0.98276
3904.27990	0.98249
3902.22610	0.98173
3900.17229	0.98117
3898.11849	0.98145
3896.06469	0.98189
3894.01088	0.98232
3891.95708	0.98256
3889.90328	0.98208
3887.84947	0.98186
3885.79567	0.98240
3883.74187	0.98299
3881.68807	0.98326
3879.63426	0.98317
3877.58046	0.98314
3875.52666	0.98344
3873.47285	0.98377
3871.41905	0.98381
3869.36525	0.98329
3867.31144	0.98300
3865.25764	0.98373
3863.20384	0.98430
3861.15003	0.98329
3859.09623	0.98227
3857.04243	0.98243
3854.98862	0.98284
3852.93482	0.98193
3850.88102	0.98129
3848.82721	0.98191
3846.77341	0.98259
3844.71961	0.98290
3842.66580	0.98311
3840.61200	0.98308
3838.55820	0.98255
3836.50439	0.98197
3834.45059	0.98196
3832.39679	0.98243
3830.34298	0.98278
3828.28918	0.98282
3826.23538	0.98257
3824.18158	0.98257
3822.12777	0.98342
3820.07397	0.98366
3818.02017	0.98257
3815.96636	0.98118
3813.91256	0.98075
3811.85876	0.98145
3809.80495	0.98194
3807.75115	0.98205
3805.69735	0.98254
3803.64354	0.98289
3801.58974	0.98277
3799.53594	0.98301
3797.48213	0.98280
3795.42833	0.98188
3793.37453	0.98178
3791.32072	0.98203
3789.26692	0.98180
3787.21312	0.98187
3785.15931	0.98264
3783.10551	0.98327
3781.05171	0.98297
3778.99790	0.98191
3776.94410	0.98146
3774.89030	0.98202
3772.83650	0.98261
3770.78269	0.98275
3768.72889	0.98331
3766.67509	0.98412
3764.62128	0.98378
3762.56748	0.98290
3760.51368	0.98252
3758.45987	0.98267
3756.40607	0.98258
3754.35227	0.98197
3752.29846	0.98212
3750.24466	0.98332
3748.19086	0.98342
3746.13705	0.98260
3744.08325	0.98190
3742.02945	0.98207
3739.97564	0.98288
3737.92184	0.98383
3735.86804	0.98409
3733.81423	0.98329
3731.76043	0.98243
3729.70663	0.98209
3727.65282	0.98206
3725.59902	0.98212
3723.54522	0.98263
3721.49141	0.98333
3719.43761	0.98331
3717.38381	0.98300
3715.33001	0.98290
3713.27620	0.98235
3711.22240	0.98139
3709.16860	0.98116
3707.11479	0.98112
3705.06099	0.98077
3703.00719	0.98024
3700.95338	0.97974
3698.89958	0.97977
3696.84578	0.98001
3694.79197	0.98024
3692.73817	0.98069
3690.68437	0.98080
3688.63056	0.98003
3686.57676	0.97989
3684.52296	0.98047
3682.46915	0.98098
3680.41535	0.98135
3678.36155	0.98192
3676.30774	0.98276
3674.25394	0.98280
3672.20014	0.98200
3670.14633	0.98107
3668.09253	0.98035
3666.03873	0.98018
3663.98492	0.98018
3661.93112	0.98009
3659.87732	0.97989
3657.82352	0.97986
3655.76971	0.98011
3653.71591	0.98020
3651.66211	0.98060
3649.60830	0.98113
3647.55450	0.97980
3645.50070	0.97854
3643.44689	0.97848
3641.39309	0.97837
3639.33929	0.97778
3637.28548	0.97717
3635.23168	0.97712
3633.17788	0.97777
3631.12407	0.97810
3629.07027	0.97708
3627.01647	0.97596
3624.96266	0.97576
3622.90886	0.97562
3620.85506	0.97559
3618.80125	0.97580
3616.74745	0.97552
3614.69365	0.97444
3612.63984	0.97332
3610.58604	0.97315
3608.53224	0.97344
3606.47844	0.97323
3604.42463	0.97266
3602.37083	0.97250
3600.31703	0.97288
3598.26322	0.97297
3596.20942	0.97206
3594.15562	0.97063
3592.10181	0.97007
3590.04801	0.97036
3587.99421	0.97024
3585.94040	0.96915
3583.88660	0.96819
3581.83280	0.96801
3579.77899	0.96824
3577.72519	0.96792
3575.67139	0.96674
3573.61758	0.96552
3571.56378	0.96479
3569.50998	0.96444
3567.45617	0.96369
3565.40237	0.96236
3563.34857	0.96162
3561.29476	0.96118
3559.24096	0.96064
3557.18716	0.96033
3555.13335	0.95973
3553.07955	0.95825
3551.02575	0.95696
3548.97195	0.95677
3546.91814	0.95649
3544.86434	0.95525
3542.81054	0.95404
3540.75673	0.95346
3538.70293	0.95304
3536.64913	0.95226
3534.59532	0.95133
3532.54152	0.95103
3530.48772	0.95142
3528.43391	0.95182
3526.38011	0.95176
3524.32631	0.95139
3522.27250	0.95119
3520.21870	0.95115
3518.16490	0.95117
3516.11109	0.95145
3514.05729	0.95177
3512.00349	0.95183
3509.94968	0.95147
3507.89588	0.95095
3505.84208	0.95111
3503.78827	0.95192
3501.73447	0.95263
3499.68067	0.95297
3497.62687	0.95302
3495.57306	0.95298
3493.51926	0.95311
3491.46546	0.95330
3489.41165	0.95323
3487.35785	0.95297
3485.30405	0.95300
3483.25024	0.95328
3481.19644	0.95344
3479.14264	0.95385
3477.08883	0.95464
3475.03503	0.95528
3472.98123	0.95546
3470.92742	0.95507
3468.87362	0.95455
3466.81982	0.95484
3464.76601	0.95578
3462.71221	0.95647
3460.65841	0.95669
3458.60460	0.95657
3456.55080	0.95612
3454.49700	0.95595
3452.44319	0.95654
3450.38939	0.95692
3448.33559	0.95629
3446.28178	0.95535
3444.22798	0.95489
3442.17418	0.95480
3440.12038	0.95472
3438.06657	0.95423
3436.01277	0.95306
3433.95897	0.95200
3431.90516	0.95181
3429.85136	0.95205
3427.79756	0.95205
3425.74375	0.95155
3423.68995	0.95082
3421.63615	0.94997
3419.58234	0.94864
3417.52854	0.94719
3415.47474	0.94622
3413.42093	0.94544
3411.36713	0.94452
3409.31333	0.94358
3407.25952	0.94312
3405.20572	0.94324
3403.15192	0.94338
3401.09811	0.94326
3399.04431	0.94305
3396.99051	0.94265
3394.93670	0.94226
3392.88290	0.94242
3390.82910	0.94306
3388.77529	0.94369
3386.72149	0.94391
3384.66769	0.94416
3382.61389	0.94487
3380.56008	0.94562
3378.50628	0.94625
3376.45248	0.94672
3374.39867	0.94722
3372.34487	0.94823
3370.29107	0.94933
3368.23726	0.95024
3366.18346	0.95144
3364.12966	0.95230
3362.07585	0.95225
3360.02205	0.95214
3357.96825	0.95239
3355.91444	0.95263
3353.86064	0.95311
3351.80684	0.95389
3349.75303	0.95446
3347.69923	0.95502
3345.64543	0.95553
3343.59162	0.95548
3341.53782	0.95518
3339.48402	0.95512
3337.43021	0.95549
3335.37641	0.95632
3333.32261	0.95694
3331.26881	0.95717
3329.21500	0.95738
3327.16120	0.95754
3325.10740	0.95778
3323.05359	0.95794
3320.99979	0.95759
3318.94599	0.95708
3316.89218	0.95715
3314.83838	0.95783
3312.78458	0.95843
3310.73077	0.95879
3308.67697	0.95910
3306.62317	0.95943
3304.56936	0.95969
3302.51556	0.96000
3300.46176	0.96042
3298.40795	0.96072
3296.35415	0.96111
3294.30035	0.96168
3292.24654	0.96200
3290.19274	0.96177
3288.13894	0.96148
3286.08513	0.96145
3284.03133	0.96137
3281.97753	0.96139
3279.92372	0.96181
3277.86992	0.96247
3275.81612	0.96285
3273.76232	0.96282
3271.70851	0.96283
3269.65471	0.96320
3267.60091	0.96384
3265.54710	0.96430
3263.49330	0.96422
3261.43950	0.96396
3259.38569	0.96428
3257.33189	0.96485
3255.27809	0.96464
3253.22428	0.96424
3251.17048	0.96446
3249.11668	0.96462
3247.06287	0.96448
3245.00907	0.96454
3242.95527	0.96465
3240.90146	0.96445
3238.84766	0.96412
3236.79386	0.96431
3234.74005	0.96509
3232.68625	0.96582
3230.63245	0.96629
3228.57864	0.96655
3226.52484	0.96672
3224.47104	0.96704
3222.41724	0.96720
3220.36343	0.96695
3218.30963	0.96682
3216.25583	0.96725
3214.20202	0.96776
3212.14822	0.96797
3210.09442	0.96845
3208.04061	0.96901
3205.98681	0.96916
3203.93301	0.96924
3201.87920	0.96927
3199.82540	0.96918
3197.77160	0.96907
3195.71779	0.96892
3193.66399	0.96885
3191.61019	0.96909
3189.55638	0.96953
3187.50258	0.96969
3185.44878	0.96978
3183.39497	0.97009
3181.34117	0.97040
3179.28737	0.97081
3177.23356	0.97140
3175.17976	0.97174
3173.12596	0.97141
3171.07215	0.97088
3169.01835	0.97081
3166.96455	0.97112
3164.91075	0.97150
3162.85694	0.97187
3160.80314	0.97227
3158.74934	0.97273
3156.69553	0.97307
3154.64173	0.97306
3152.58793	0.97298
3150.53412	0.97311
3148.48032	0.97319
3146.42652	0.97314
3144.37271	0.97327
3142.31891	0.97375
3140.26511	0.97416
3138.21130	0.97416
3136.15750	0.97393
3134.10370	0.97385
3132.04989	0.97414
3129.99609	0.97446
3127.94229	0.97471
3125.88848	0.97476
3123.83468	0.97461
3121.78088	0.97477
3119.72707	0.97510
3117.67327	0.97508
3115.61947	0.97490
3113.56566	0.97498
3111.51186	0.97537
3109.45806	0.97575
3107.40426	0.97588
3105.35045	0.97593
3103.29665	0.97617
3101.24285	0.97657
3099.18904	0.97653
3097.13524	0.97578
3095.08144	0.97508
3093.02763	0.97502
3090.97383	0.97520
3088.92003	0.97546
3086.86622	0.97613
3084.81242	0.97677
3082.75862	0.97683
3080.70481	0.97652
3078.65101	0.97633
3076.59721	0.97653
3074.54340	0.97668
3072.48960	0.97646
3070.43580	0.97625
3068.38199	0.97625
3066.32819	0.97661
3064.27439	0.97720
3062.22058	0.97728
3060.16678	0.97702
3058.11298	0.97715
3056.05918	0.97737
3054.00537	0.97743
3051.95157	0.97773
3049.89777	0.97774
3047.84396	0.97744
3045.79016	0.97758
3043.73636	0.97793
3041.68255	0.97808
3039.62875	0.97794
3037.57495	0.97754
3035.52114	0.97747
3033.46734	0.97767
3031.41354	0.97751
3029.35973	0.97722
3027.30593	0.97718
3025.25213	0.97713
3023.19832	0.97702
3021.14452	0.97723
3019.09072	0.97787
3017.03691	0.97846
3014.98311	0.97856
3012.92931	0.97833
3010.87550	0.97816
3008.82170	0.97816
3006.76790	0.97811
3004.71409	0.97803
3002.66029	0.97841
3000.60649	0.97904
2998.55269	0.97907
2996.49888	0.97865
2994.44508	0.97857
2992.39128	0.97874
2990.33747	0.97871
2988.28367	0.97848
2986.22987	0.97834
2984.17606	0.97826
2982.12226	0.97803
2980.06846	0.97785
2978.01465	0.97781
2975.96085	0.97791
2973.90705	0.97826
2971.85324	0.97824
2969.79944	0.97772
2967.74564	0.97760
2965.69183	0.97785
2963.63803	0.97819
2961.58423	0.97851
2959.53042	0.97849
2957.47662	0.97834
2955.42282	0.97834
2953.36901	0.97838
2951.31521	0.97821
2949.26141	0.97799
2947.20761	0.97810
2945.15380	0.97829
2943.10000	0.97833
2941.04620	0.97869
2938.99239	0.97910
2936.93859	0.97889
2934.88479	0.97848
2932.83098	0.97830
2930.77718	0.97826
2928.72338	0.97818
2926.66957	0.97785
2924.61577	0.97731
2922.56197	0.97672
2920.50816	0.97642
2918.45436	0.97667
2916.40056	0.97711
2914.34675	0.97744
2912.29295	0.97787
2910.23915	0.97858
2908.18534	0.97914
2906.13154	0.97909
2904.07774	0.97874
2902.02393	0.97865
2899.97013	0.97904
2897.91633	0.97947
2895.86252	0.97955
2893.80872	0.97964
2891.75492	0.97990
2889.70112	0.97974
2887.64731	0.97924
2885.59351	0.97904
2883.53971	0.97916
2881.48590	0.97934
2879.43210	0.97935
2877.37830	0.97919
2875.32449	0.97923
2873.27069	0.97933
2871.21689	0.97918
2869.16308	0.97904
2867.10928	0.97903
2865.05548	0.97901
2863.00167	0.97908
2860.94787	0.97930
2858.89407	0.97956
2856.84026	0.97969
2854.78646	0.97925
2852.73266	0.97863
2850.67885	0.97849
2848.62505	0.97871
2846.57125	0.97909
2844.51744	0.97952
2842.46364	0.97977
2840.40984	0.97978
2838.35603	0.97971
2836.30223	0.97980
2834.24843	0.98019
2832.19463	0.98061
2830.14082	0.98062
2828.08702	0.98044
2826.03322	0.98038
2823.97941	0.98033
2821.92561	0.98025
2819.87181	0.98014
2817.81800	0.98004
2815.76420	0.98006
2813.71040	0.98004
2811.65659	0.97996
2809.60279	0.98005
2807.54899	0.98037
2805.49518	0.98064
2803.44138	0.98068
2801.38758	0.98067
2799.33377	0.98083
2797.27997	0.98091
2795.22617	0.98080
2793.17236	0.98078
2791.11856	0.98096
2789.06476	0.98113
2787.01095	0.98125
2784.95715	0.98131
2782.90335	0.98105
2780.84955	0.98071
2778.79574	0.98068
2776.74194	0.98074
2774.68814	0.98071
2772.63433	0.98071
2770.58053	0.98080
2768.52673	0.98104
2766.47292	0.98134
2764.41912	0.98144
2762.36532	0.98131
2760.31151	0.98107
2758.25771	0.98071
2756.20391	0.98038
2754.15010	0.98014
2752.09630	0.98001
2750.04250	0.98026
2747.98869	0.98081
2745.93489	0.98112
2743.88109	0.98103
2741.82728	0.98092
2739.77348	0.98087
2737.71968	0.98071
2735.66587	0.98061
2733.61207	0.98087
2731.55827	0.98125
2729.50446	0.98126
2727.45066	0.98112
2725.39686	0.98116
2723.34306	0.98102
2721.28925	0.98070
2719.23545	0.98069
2717.18165	0.98064
2715.12784	0.98036
2713.07404	0.98046
2711.02024	0.98084
2708.96643	0.98104
2706.91263	0.98113
2704.85883	0.98110
2702.80502	0.98099
2700.75122	0.98107
2698.69742	0.98111
2696.64361	0.98098
2694.58981	0.98100
2692.53601	0.98122
2690.48220	0.98135
2688.42840	0.98122
2686.37460	0.98109
2684.32079	0.98112
2682.26699	0.98129
2680.21319	0.98144
2678.15938	0.98139
2676.10558	0.98125
2674.05178	0.98132
2671.99797	0.98145
2669.94417	0.98126
2667.89037	0.98100
2665.83657	0.98093
2663.78276	0.98081
2661.72896	0.98058
2659.67516	0.98052
2657.62135	0.98076
2655.56755	0.98091
2653.51375	0.98064
2651.45994	0.98016
2649.40614	0.97978
2647.35234	0.97976
2645.29853	0.98017
2643.24473	0.98048
2641.19093	0.98038
2639.13712	0.98017
2637.08332	0.98012
2635.02952	0.98037
2632.97571	0.98069
2630.92191	0.98059
2628.86811	0.98037
2626.81430	0.98049
2624.76050	0.98075
2622.70670	0.98088
2620.65289	0.98074
2618.59909	0.98063
2616.54529	0.98092
2614.49149	0.98125
2612.43768	0.98119
2610.38388	0.98084
2608.33008	0.98045
2606.27627	0.98036
2604.22247	0.98067
2602.16867	0.98101
2600.11486	0.98108
2598.06106	0.98094
2596.00726	0.98105
2593.95345	0.98132
2591.89965	0.98137
2589.84585	0.98140
2587.79204	0.98146
2585.73824	0.98145
2583.68444	0.98145
2581.63063	0.98135
2579.57683	0.98141
2577.52303	0.98186
2575.46922	0.98205
2573.41542	0.98183
2571.36162	0.98179
2569.30781	0.98203
2567.25401	0.98238
2565.20021	0.98252
2563.14640	0.98198
2561.09260	0.98137
2559.03880	0.98161
2556.98500	0.98201
2554.93119	0.98177
2552.87739	0.98135
2550.82359	0.98124
2548.76978	0.98129
2546.71598	0.98132
2544.66218	0.98138
2542.60837	0.98130
2540.55457	0.98094
2538.50077	0.98055
2536.44696	0.98052
2534.39316	0.98122
2532.33936	0.98159
2530.28555	0.98092
2528.23175	0.98035
2526.17795	0.98044
2524.12414	0.98087
2522.07034	0.98150
2520.01654	0.98194
2517.96273	0.98170
2515.90893	0.98110
2513.85513	0.98083
2511.80132	0.98098
2509.74752	0.98134
2507.69372	0.98170
2505.63992	0.98159
2503.58611	0.98101
2501.53231	0.98072
2499.47851	0.98082
2497.42470	0.98081
2495.37090	0.98070
2493.31710	0.98090
2491.26329	0.98136
2489.20949	0.98159
2487.15569	0.98172
2485.10188	0.98184
2483.04808	0.98133
2480.99428	0.98085
2478.94047	0.98118
2476.88667	0.98175
2474.83287	0.98237
2472.77906	0.98298
2470.72526	0.98292
2468.67146	0.98236
2466.61765	0.98220
2464.56385	0.98261
2462.51005	0.98284
2460.45624	0.98253
2458.40244	0.98209
2456.34864	0.98188
2454.29483	0.98184
2452.24103	0.98151
2450.18723	0.98114
2448.13343	0.98116
2446.07962	0.98142
2444.02582	0.98162
2441.97202	0.98171
2439.91821	0.98198
2437.86441	0.98211
2435.81061	0.98232
2433.75680	0.98282
2431.70300	0.98258
2429.64920	0.98209
2427.59539	0.98256
2425.54159	0.98326
2423.48779	0.98354
2421.43398	0.98357
2419.38018	0.98316
2417.32638	0.98253
2415.27257	0.98228
2413.21877	0.98237
2411.16497	0.98228
2409.11116	0.98209
2407.05736	0.98234
2405.00356	0.98285
2402.94975	0.98302
2400.89595	0.98278
2398.84215	0.98247
2396.78834	0.98249
2394.73454	0.98295
2392.68074	0.98340
2390.62694	0.98337
2388.57313	0.98285
2386.51933	0.98232
2384.46553	0.98209
2382.41172	0.98189
2380.35792	0.98155
2378.30412	0.98129
2376.25031	0.98116
2374.19651	0.98135
2372.14271	0.98224
2370.08890	0.98323
2368.03510	0.98313
2365.98130	0.98188
2363.92749	0.98083
2361.87369	0.98006
2359.81989	0.97886
2357.76608	0.97857
2355.71228	0.97997
2353.65848	0.98120
2351.60467	0.98087
2349.55087	0.97995
2347.49707	0.97968
2345.44326	0.98016
2343.38946	0.98046
2341.33566	0.98059
2339.28186	0.98124
2337.22805	0.98153
2335.17425	0.98075
2333.12045	0.97987
2331.06664	0.98001
2329.01284	0.98071
2326.95904	0.98068
2324.90523	0.97956
2322.85143	0.97866
2320.79763	0.97951
2318.74382	0.98096
2316.69002	0.98125
2314.63622	0.98098
2312.58241	0.98113
2310.52861	0.98107
2308.47481	0.98030
2306.42100	0.97961
2304.36720	0.97964
2302.31340	0.97989
2300.25959	0.97936
2298.20579	0.97831
2296.15199	0.97809
2294.09818	0.97871
2292.04438	0.97939
2289.99058	0.98003
2287.93677	0.98042
2285.88297	0.98065
2283.82917	0.98080
2281.77537	0.98120
2279.72156	0.98165
2277.66776	0.98063
2275.61396	0.97882
2273.56015	0.97897
2271.50635	0.98096
2269.45255	0.98175
2267.39874	0.98061
2265.34494	0.97945
2263.29114	0.97945
2261.23733	0.97985
2259.18353	0.97956
2257.12973	0.97976
2255.07592	0.98086
2253.02212	0.98092
2250.96832	0.97953
2248.91451	0.97863
2246.86071	0.97952
2244.80691	0.98129
2242.75310	0.98204
2240.69930	0.98177
2238.64550	0.98190
2236.59169	0.98162
2234.53789	0.98027
2232.48409	0.97958
2230.43029	0.98028
2228.37648	0.98167
2226.32268	0.98251
2224.26888	0.98222
2222.21507	0.98218
2220.16127	0.98291
2218.10747	0.98372
2216.05366	0.98431
2213.99986	0.98440
2211.94606	0.98424
2209.89225	0.98390
2207.83845	0.98336
2205.78465	0.98288
2203.73084	0.98230
2201.67704	0.98119
2199.62324	0.97968
2197.56943	0.97870
2195.51563	0.97812
2193.46183	0.97741
2191.40802	0.97734
2189.35422	0.97822
2187.30042	0.98015
2185.24661	0.98326
2183.19281	0.98558
2181.13901	0.98470
2179.08520	0.98201
2177.03140	0.98050
2174.97760	0.98071
2172.92380	0.98146
2170.86999	0.98097
2168.81619	0.97991
2166.76239	0.98115
2164.70858	0.98297
2162.65478	0.98209
2160.60098	0.98166
2158.54717	0.98593
2156.49337	0.99055
2154.43957	0.98949
2152.38576	0.98569
2150.33196	0.98512
2148.27816	0.98653
2146.22435	0.98478
2144.17055	0.98238
2142.11675	0.98356
2140.06294	0.98514
2138.00914	0.98429
2135.95534	0.98326
2133.90153	0.98334
2131.84773	0.98335
2129.79393	0.98340
2127.74012	0.98348
2125.68632	0.98340
2123.63252	0.98419
2121.57871	0.98541
2119.52491	0.98566
2117.47111	0.98456
2115.41731	0.98282
2113.36350	0.98128
2111.30970	0.98064
2109.25590	0.98189
2107.20209	0.98358
2105.14829	0.98390
2103.09449	0.98351
2101.04068	0.98289
2098.98688	0.98251
2096.93308	0.98254
2094.87927	0.98224
2092.82547	0.98205
2090.77167	0.98244
2088.71786	0.98266
2086.66406	0.98223
2084.61026	0.98153
2082.55645	0.98070
2080.50265	0.98021
2078.44885	0.98119
2076.39504	0.98267
2074.34124	0.98270
2072.28744	0.98128
2070.23363	0.97908
2068.17983	0.97815
2066.12603	0.98002
2064.07223	0.98254
2062.01842	0.98398
2059.96462	0.98420
2057.91082	0.98329
2055.85701	0.98273
2053.80321	0.98336
2051.74941	0.98373
2049.69560	0.98282
2047.64180	0.98166
2045.58800	0.98261
2043.53419	0.98538
2041.48039	0.98673
2039.42659	0.98580
2037.37278	0.98354
2035.31898	0.98118
2033.26518	0.98077
2031.21137	0.98265
2029.15757	0.98564
2027.10377	0.98909
2025.04996	0.99099
2022.99616	0.98887
2020.94236	0.98465
2018.88855	0.98272
2016.83475	0.98372
2014.78095	0.98540
2012.72714	0.98655
2010.67334	0.98727
2008.61954	0.98843
2006.56574	0.98984
2004.51193	0.99065
2002.45813	0.99045
2000.40433	0.98873
1998.35052	0.98561
1996.29672	0.98359
1994.24292	0.98457
1992.18911	0.98487
1990.13531	0.98279
1988.08151	0.98199
1986.02770	0.98261
1983.97390	0.98333
1981.92010	0.98338
1979.86629	0.98163
1977.81249	0.98074
1975.75869	0.98328
1973.70488	0.98597
1971.65108	0.98641
1969.59728	0.98586
1967.54347	0.98488
1965.48967	0.98285
1963.43587	0.98105
1961.38206	0.98122
1959.32826	0.98304
1957.27446	0.98491
1955.22066	0.98558
1953.16685	0.98545
1951.11305	0.98518
1949.05925	0.98464
1947.00544	0.98442
1944.95164	0.98611
1942.89784	0.98838
1940.84403	0.98765
1938.79023	0.98542
1936.73643	0.98406
1934.68262	0.98340
1932.62882	0.98349
1930.57502	0.98398
1928.52121	0.98448
1926.46741	0.98549
1924.41361	0.98646
1922.35980	0.98618
1920.30600	0.98510
1918.25220	0.98446
1916.19839	0.98469
1914.14459	0.98498
1912.09079	0.98465
1910.03698	0.98404
1907.98318	0.98384
1905.92938	0.98439
1903.87557	0.98502
1901.82177	0.98492
1899.76797	0.98442
1897.71417	0.98402
1895.66036	0.98366
1893.60656	0.98326
1891.55276	0.98265
1889.49895	0.98227
1887.44515	0.98287
1885.39135	0.98366
1883.33754	0.98375
1881.28374	0.98336
1879.22994	0.98300
1877.17613	0.98277
1875.12233	0.98278
1873.06853	0.98314
1871.01472	0.98372
1868.96092	0.98437
1866.90712	0.98449
1864.85331	0.98417
1862.79951	0.98402
1860.74571	0.98385
1858.69190	0.98352
1856.63810	0.98361
1854.58430	0.98431
1852.53049	0.98483
1850.47669	0.98482
1848.42289	0.98447
1846.36908	0.98429
1844.31528	0.98526
1842.26148	0.98602
1840.20768	0.98521
1838.15387	0.98411
1836.10007	0.98357
1834.04627	0.98354
1831.99246	0.98361
1829.93866	0.98368
1827.88486	0.98426
1825.83105	0.98485
1823.77725	0.98451
1821.72345	0.98393
1819.66964	0.98396
1817.61584	0.98421
1815.56204	0.98392
1813.50823	0.98316
1811.45443	0.98275
1809.40063	0.98288
1807.34682	0.98293
1805.29302	0.98274
1803.23922	0.98255
1801.18541	0.98255
1799.13161	0.98248
1797.07781	0.98227
1795.02400	0.98236
1792.97020	0.98242
1790.91640	0.98144
1788.86260	0.98025
1786.80879	0.97995
1784.75499	0.98027
1782.70119	0.98060
1780.64738	0.98077
1778.59358	0.98088
1776.53978	0.98123
1774.48597	0.98201
1772.43217	0.98270
1770.37837	0.98256
1768.32456	0.98238
1766.27076	0.98266
1764.21696	0.98294
1762.16315	0.98300
1760.10935	0.98293
1758.05555	0.98279
1756.00174	0.98258
1753.94794	0.98250
1751.89414	0.98245
1749.84033	0.98179
1747.78653	0.98081
1745.73273	0.98046
1743.67892	0.98048
1741.62512	0.98017
1739.57132	0.97992
1737.51751	0.98037
1735.46371	0.98105
1733.40991	0.98111
1731.35611	0.98069
1729.30230	0.98028
1727.24850	0.98002
1725.19470	0.97987
1723.14089	0.97958
1721.08709	0.97962
1719.03329	0.98033
1716.97948	0.98067
1714.92568	0.98004
1712.87188	0.97971
1710.81807	0.97950
1708.76427	0.97925
1706.71047	0.97910
1704.65666	0.97883
1702.60286	0.97839
1700.54906	0.97752
1698.49525	0.97632
1696.44145	0.97528
1694.38765	0.97420
1692.33384	0.97310
1690.28004	0.97157
1688.22624	0.96975
1686.17243	0.96813
1684.11863	0.96640
1682.06483	0.96620
1680.01103	0.96732
1677.95722	0.96849
1675.90342	0.96987
1673.84962	0.97104
1671.79581	0.97172
1669.74201	0.97257
1667.68821	0.97318
1665.63440	0.97336
1663.58060	0.97355
1661.52680	0.97383
1659.47299	0.97393
1657.41919	0.97370
1655.36539	0.97355
1653.31158	0.97376
1651.25778	0.97351
1649.20398	0.97293
1647.15017	0.97205
1645.09637	0.97142
1643.04257	0.97157
1640.98876	0.97153
1638.93496	0.97088
1636.88116	0.97009
1634.82735	0.96925
1632.77355	0.96792
1630.71975	0.96622
1628.66594	0.96354
1626.61214	0.95992
1624.55834	0.95620
1622.50454	0.95254
1620.45073	0.95030
1618.39693	0.95006
1616.34313	0.95194
1614.28932	0.95494
1612.23552	0.95780
1610.18172	0.96052
1608.12791	0.96276
1606.07411	0.96456
1604.02031	0.96625
1601.96650	0.96768
1599.91270	0.96860
1597.85890	0.96912
1595.80509	0.96962
1593.75129	0.97014
1591.69749	0.97017
1589.64368	0.96984
1587.58988	0.96961
1585.53608	0.96954
1583.48227	0.96961
1581.42847	0.96943
1579.37467	0.96863
1577.32086	0.96731
1575.26706	0.96588
1573.21326	0.96522
1571.15945	0.96471
1569.10565	0.96365
1567.05185	0.96255
1564.99805	0.96160
1562.94424	0.96084
1560.89044	0.96044
1558.83664	0.95953
1556.78283	0.95814
1554.72903	0.95731
1552.67523	0.95617
1550.62142	0.95453
1548.56762	0.95260
1546.51382	0.95094
1544.46001	0.94984
1542.40621	0.94922
1540.35241	0.94731
1538.29860	0.94424
1536.24480	0.94285
1534.19100	0.94165
1532.13719	0.93955
1530.08339	0.93770
1528.02959	0.93618
1525.97578	0.93445
1523.92198	0.93268
1521.86818	0.93033
1519.81437	0.92791
1517.76057	0.92611
1515.70677	0.92426
1513.65297	0.92273
1511.59916	0.92137
1509.54536	0.91991
1507.49156	0.91744
1505.43775	0.91422
1503.38395	0.91287
1501.33015	0.91199
1499.27634	0.91063
1497.22254	0.90820
1495.16874	0.90524
1493.11493	0.90365
1491.06113	0.90249
1489.00733	0.89975
1486.95352	0.89673
1484.89972	0.89491
1482.84592	0.89325
1480.79211	0.89135
1478.73831	0.88982
1476.68451	0.88846
1474.63070	0.88678
1472.57690	0.88476
1470.52310	0.88358
1468.46929	0.88383
1466.41549	0.88481
1464.36169	0.88610
1462.30788	0.88769
1460.25408	0.88936
1458.20028	0.89005
1456.14648	0.88919
1454.09267	0.88924
1452.03887	0.89011
1449.98507	0.89108
1447.93126	0.89248
1445.87746	0.89486
1443.82366	0.89811
1441.76985	0.90190
1439.71605	0.90547
1437.66225	0.90870
1435.60844	0.91222
1433.55464	0.91551
1431.50084	0.91835
1429.44703	0.92073
1427.39323	0.92247
1425.33943	0.92412
1423.28562	0.92605
1421.23182	0.92785
1419.17802	0.92943
1417.12421	0.93117
1415.07041	0.93283
1413.01661	0.93439
1410.96280	0.93605
1408.90900	0.93770
1406.85520	0.93898
1404.80139	0.93995
1402.74759	0.94098
1400.69379	0.94219
1398.63999	0.94338
1396.58618	0.94442
1394.53238	0.94537
1392.47858	0.94606
1390.42477	0.94669
1388.37097	0.94760
1386.31717	0.94867
1384.26336	0.94967
1382.20956	0.95051
1380.15576	0.95120
1378.10195	0.95199
1376.04815	0.95289
1373.99435	0.95366
1371.94054	0.95422
1369.88674	0.95473
1367.83294	0.95542
1365.77913	0.95606
1363.72533	0.95636
1361.67153	0.95658
1359.61772	0.95716
1357.56392	0.95798
1355.51012	0.95872
1353.45631	0.95909
1351.40251	0.95924
1349.34871	0.95962
1347.29491	0.96017
1345.24110	0.96066
1343.18730	0.96119
1341.13350	0.96191
1339.07969	0.96269
1337.02589	0.96319
1334.97209	0.96338
1332.91828	0.96361
1330.86448	0.96412
1328.81068	0.96475
1326.75687	0.96488
1324.70307	0.96462
1322.64927	0.96472
1320.59546	0.96530
1318.54166	0.96601
1316.48786	0.96638
1314.43405	0.96642
1312.38025	0.96659
1310.32645	0.96695
1308.27264	0.96713
1306.21884	0.96705
1304.16504	0.96708
1302.11123	0.96730
1300.05743	0.96759
1298.00363	0.96793
1295.94982	0.96804
1293.89602	0.96793
1291.84222	0.96807
1289.78842	0.96842
1287.73461	0.96860
1285.68081	0.96864
1283.62701	0.96873
1281.57320	0.96867
1279.51940	0.96840
1277.46560	0.96816
1275.41179	0.96820
1273.35799	0.96863
1271.30419	0.96920
1269.25038	0.96959
1267.19658	0.96959
1265.14278	0.96933
1263.08897	0.96921
1261.03517	0.96919
1258.98137	0.96900
1256.92756	0.96868
1254.87376	0.96848
1252.81996	0.96854
1250.76615	0.96868
1248.71235	0.96883
1246.65855	0.96907
1244.60474	0.96906
1242.55094	0.96875
1240.49714	0.96850
1238.44334	0.96828
1236.38953	0.96785
1234.33573	0.96747
1232.28193	0.96737
1230.22812	0.96727
1228.17432	0.96710
1226.12052	0.96710
1224.06671	0.96715
1222.01291	0.96699
1219.95911	0.96667
1217.90530	0.96627
1215.85150	0.96569
1213.79770	0.96504
1211.74389	0.96469
1209.69009	0.96448
1207.63629	0.96399
1205.58248	0.96314
1203.52868	0.96221
1201.47488	0.96130
1199.42107	0.96022
1197.36727	0.95897
1195.31347	0.95768
1193.25966	0.95607
1191.20586	0.95390
1189.15206	0.95169
1187.09825	0.94980
1185.04445	0.94790
1182.99065	0.94565
1180.93685	0.94316
1178.88304	0.94068
1176.82924	0.93826
1174.77544	0.93565
1172.72163	0.93250
1170.66783	0.92906
1168.61403	0.92592
1166.56022	0.92327
1164.50642	0.92088
1162.45262	0.91820
1160.39881	0.91498
1158.34501	0.91178
1156.29121	0.90876
1154.23740	0.90548
1152.18360	0.90201
1150.12980	0.89846
1148.07599	0.89458
1146.02219	0.89060
1143.96839	0.88698
1141.91458	0.88378
1139.86078	0.88080
1137.80698	0.87794
1135.75317	0.87528
1133.69937	0.87303
1131.64557	0.87106
1129.59176	0.86913
1127.53796	0.86755
1125.48416	0.86647
1123.43036	0.86527
1121.37655	0.86345
1119.32275	0.86115
1117.26895	0.85914
1115.21514	0.85769
1113.16134	0.85645
1111.10754	0.85567
1109.05373	0.85555
1106.99993	0.85595
1104.94613	0.85661
1102.89232	0.85712
1100.83852	0.85782
1098.78472	0.85914
1096.73091	0.86075
1094.67711	0.86243
1092.62331	0.86423
1090.56950	0.86590
1088.51570	0.86696
1086.46190	0.86649
1084.40809	0.86428
1082.35429	0.86376
1080.30049	0.86733
1078.24668	0.87192
1076.19288	0.87492
1074.13908	0.87669
1072.08528	0.87782
1070.03147	0.87880
1067.97767	0.87998
1065.92387	0.88114
1063.87006	0.88185
1061.81626	0.88192
1059.76246	0.88163
1057.70865	0.88149
1055.65485	0.88156
1053.60105	0.88160
1051.54724	0.88139
1049.49344	0.88095
1047.43964	0.88049
1045.38583	0.88007
1043.33203	0.87966
1041.27823	0.87939
1039.22442	0.87927
1037.17062	0.87921
1035.11682	0.87929
1033.06301	0.87960
1031.00921	0.88020
1028.95541	0.88102
1026.90160	0.88182
1024.84780	0.88273
1022.79400	0.88377
1020.74019	0.88461
1018.68639	0.88528
1016.63259	0.88599
1014.57879	0.88650
1012.52498	0.88660
1010.47118	0.88653
1008.41738	0.88661
1006.36357	0.88681
1004.30977	0.88722
1002.25597	0.88829
1000.20216	0.88999
998.14836	0.89204
996.09456	0.89402
994.04075	0.89569
991.98695	0.89722
989.93315	0.89886
987.87934	0.90094
985.82554	0.90324
983.77174	0.90523
981.71793	0.90708
979.66413	0.90902
977.61033	0.91087
975.55652	0.91254
973.50272	0.91436
971.44892	0.91662
969.39511	0.91870
967.34131	0.92017
965.28751	0.92142
963.23371	0.92254
961.17990	0.92345
959.12610	0.92463
957.07230	0.92598
955.01849	0.92685
952.96469	0.92738
950.91089	0.92830
948.85708	0.92973
946.80328	0.93083
944.74948	0.93130
942.69567	0.93180
940.64187	0.93232
938.58807	0.93254
936.53426	0.93293
934.48046	0.93359
932.42666	0.93408
930.37285	0.93484
928.31905	0.93606
926.26525	0.93677
924.21144	0.93657
922.15764	0.93622
920.10384	0.93643
918.05003	0.93681
915.99623	0.93686
913.94243	0.93680
911.88862	0.93689
909.83482	0.93745
907.78102	0.93853
905.72722	0.93984
903.67341	0.94101
901.61961	0.94174
899.56581	0.94250
897.51200	0.94371
895.45820	0.94481
893.40440	0.94509
891.35059	0.94480
889.29679	0.94481
887.24299	0.94566
885.18918	0.94666
883.13538	0.94687
881.08158	0.94654
879.02777	0.94617
876.97397	0.94531
874.92017	0.94342
872.86636	0.93986
870.81256	0.93329
868.75876	0.92341
866.70495	0.91149
864.65115	0.89871
862.59735	0.88691
860.54354	0.87850
858.48974	0.87397
856.43594	0.87343
854.38213	0.87833
852.32833	0.88755
850.27453	0.89718
848.22073	0.90513
846.16692	0.91070
844.11312	0.91373
842.05932	0.91599
840.00551	0.91945
837.95171	0.92425
835.89791	0.92891
833.84410	0.93231
831.79030	0.93527
829.73650	0.93805
827.68269	0.94006
825.62889	0.94184
823.57509	0.94400
821.52128	0.94600
819.46748	0.94700
817.41368	0.94708
815.35987	0.94735
813.30607	0.94818
811.25227	0.94925
809.19846	0.95045
807.14466	0.95102
805.09086	0.95039
803.03705	0.94991
800.98325	0.95074
798.92945	0.95153
796.87565	0.95135
794.82184	0.95110
792.76804	0.95118
790.71424	0.95137
788.66043	0.95149
786.60663	0.95163
784.55283	0.95218
782.49902	0.95289
780.44522	0.95295
778.39142	0.95233
776.33761	0.95190
774.28381	0.95228
772.23001	0.95301
770.17620	0.95333
768.12240	0.95341
766.06860	0.95337
764.01479	0.95271
761.96099	0.95195
759.90719	0.95146
757.85338	0.95074
755.79958	0.95037
753.74578	0.95058
751.69197	0.95107
749.63817	0.95204
747.58437	0.95283
745.53056	0.95281
743.47676	0.95288
741.42296	0.95354
739.36916	0.95395
737.31535	0.95393
735.26155	0.95402
733.20775	0.95439
731.15394	0.95474
729.10014	0.95444
727.04634	0.95354
724.99253	0.95341
722.93873	0.95391
720.88493	0.95319
718.83112	0.95061
716.77732	0.94531
714.72352	0.93690
712.66971	0.93218
710.61591	0.93712
708.56211	0.94483
706.50830	0.94797
704.45450	0.94663
702.40070	0.94210
700.34689	0.93831
698.29309	0.93950
696.23929	0.94335
694.18548	0.94550
692.13168	0.94529
690.07788	0.94466
688.02408	0.94449
685.97027	0.94322
683.91647	0.94089
681.86267	0.93828
679.80886	0.93500
677.75506	0.93041
675.70126	0.92413
673.64745	0.91705
671.59365	0.91095
669.53985	0.90649
667.48604	0.90429
665.43224	0.90635
663.37844	0.91115
661.32463	0.91670
659.27083	0.92172
657.21703	0.92635
655.16322	0.93062
653.10942	0.93408
651.05562	0.93626
649.00181	0.93642
646.94801	0.93542
644.89421	0.93507
642.84040	0.93518
640.78660	0.93458
638.73280	0.93311
636.67899	0.93172
634.62519	0.93177
632.57139	0.93229
630.51759	0.93155
628.46378	0.93084
626.40998	0.93073
624.35618	0.92961
622.30237	0.92794
620.24857	0.92694
618.19477	0.92584
616.14096	0.92338
614.08716	0.92020
612.03336	0.91708
609.97955	0.91240
607.92575	0.90573
605.87195	0.89894
603.81814	0.89235
601.76434	0.88667
599.71054	0.88438
597.65673	0.88592
595.60293	0.88931
593.54913	0.89258
591.49532	0.89482
589.44152	0.89632
587.38772	0.89768
585.33391	0.89823
583.28011	0.89759
581.22631	0.89741
579.17250	0.89923
577.11870	0.90194
575.06490	0.90307
573.01110	0.90309
570.95729	0.90348
568.90349	0.90365
566.84969	0.90380
564.79588	0.90424
562.74208	0.90394
560.68828	0.90326
558.63447	0.90407
556.58067	0.90573
554.52687	0.90623
552.47306	0.90515
550.41926	0.90294
548.36546	0.90108
546.31165	0.90149
544.25785	0.90320
542.20405	0.90349
540.15024	0.90409
538.09644	0.90671
536.04264	0.90773
533.98883	0.90629
531.93503	0.90582
529.88123	0.90653
527.82742	0.90642
525.77362	0.90590
523.71982	0.90597
521.66602	0.90550
519.61221	0.90465
517.55841	0.90539
515.50461	0.90691
513.45080	0.90721
511.39700	0.90700
509.34320	0.90724
507.28939	0.90782
505.23559	0.90721
503.18179	0.90506
501.12798	0.90376
499.07418	0.90371
497.02038	0.90472
494.96657	0.90665
492.91277	0.90649
490.85897	0.90503
488.80516	0.90455
486.75136	0.90369
484.69756	0.90231
482.64375	0.90050
480.58995	0.89866
478.53615	0.89665
476.48234	0.89314
474.42854	0.88882
472.37474	0.88334
470.32093	0.87838
468.26713	0.87854
466.21333	0.88172
464.15953	0.88321
462.10572	0.88287
460.05192	0.88232
457.99812	0.88385
455.94431	0.88776
453.89051	0.89037
451.83671	0.89154
449.78290	0.89375
447.72910	0.89537
445.67530	0.89480
443.62149	0.89503
441.56769	0.89535
439.51389	0.89287
437.46008	0.88968
435.40628	0.88865
433.35248	0.88984
431.29867	0.89017
429.24487	0.88754
427.19107	0.88490
425.13726	0.88624
423.08346	0.88889
421.02966	0.89012
418.97585	0.89299
416.92205	0.88994
414.86825	0.88542
412.81445	0.89185
410.76064	0.90245
408.70684	0.90436
406.65304	0.90062
404.59923	0.89921
402.54543	0.90117
400.49163	0.90130
398.43782	0.89581
