3996.70104	0.97786
3994.64724	0.97838
3992.59344	0.97824
3990.53964	0.97742
3988.48583	0.97647
3986.43203	0.97599
3984.37823	0.97598
3982.32442	0.97591
3980.27062	0.97577
3978.21682	0.97600
3976.16301	0.97643
3974.10921	0.97650
3972.05541	0.97627
3970.00160	0.97632
3967.94780	0.97659
3965.89400	0.97669
3963.84019	0.97667
3961.78639	0.97660
3959.73259	0.97658
3957.67878	0.97662
3955.62498	0.97674
3953.57118	0.97683
3951.51737	0.97670
3949.46357	0.97651
3947.40977	0.97663
3945.35596	0.97692
3943.30216	0.97671
3941.24836	0.97625
3939.19455	0.97643
3937.14075	0.97672
3935.08695	0.97656
3933.03315	0.97637
3930.97934	0.97647
3928.92554	0.97669
3926.87174	0.97668
3924.81793	0.97653
3922.76413	0.97650
3920.71033	0.97654
3918.65652	0.97682
3916.60272	0.97708
3914.54892	0.97650
3912.49511	0.97583
3910.44131	0.97597
3908.38751	0.97649
3906.33370	0.97662
3904.27990	0.97618
3902.22610	0.97633
3900.17229	0.97722
3898.11849	0.97722
3896.06469	0.97659
3894.01088	0.97643
3891.95708	0.97688
3889.90328	0.97712
3887.84947	0.97684
3885.79567	0.97682
3883.74187	0.97689
3881.68807	0.97680
3879.63426	0.97722
3877.58046	0.97762
3875.52666	0.97744
3873.47285	0.97711
3871.41905	0.97713
3869.36525	0.97702
3867.31144	0.97685
3865.25764	0.97707
3863.20384	0.97672
3861.15003	0.97596
3859.09623	0.97588
3857.04243	0.97650
3854.98862	0.97711
3852.93482	0.97669
3850.88102	0.97644
3848.82721	0.97685
3846.77341	0.97694
3844.71961	0.97654
3842.66580	0.97637
3840.61200	0.97680
3838.55820	0.97726
3836.50439	0.97734
3834.45059	0.97730
3832.39679	0.97754
3830.34298	0.97789
3828.28918	0.97793
3826.23538	0.97758
3824.18158	0.97704
3822.12777	0.97667
3820.07397	0.97672
3818.02017	0.97678
3815.96636	0.97676
3813.91256	0.97676
3811.85876	0.97695
3809.80495	0.97746
3807.75115	0.97805
3805.69735	0.97808
3803.64354	0.97720
3801.58974	0.97595
3799.53594	0.97583
3797.48213	0.97695
3795.42833	0.97783
3793.37453	0.97805
3791.32072	0.97815
3789.26692	0.97812
3787.21312	0.97794
3785.15931	0.97787
3783.10551	0.97788
3781.05171	0.97808
3778.99790	0.97874
3776.94410	0.97885
3774.89030	0.97833
3772.83650	0.97779
3770.78269	0.97703
3768.72889	0.97671
3766.67509	0.97732
3764.62128	0.97793
3762.56748	0.97780
3760.51368	0.97724
3758.45987	0.97727
3756.40607	0.97756
3754.35227	0.97686
3752.29846	0.97564
3750.24466	0.97520
3748.19086	0.97579
3746.13705	0.97653
3744.08325	0.97728
3742.02945	0.97796
3739.97564	0.97804
3737.92184	0.97814
3735.86804	0.97870
3733.81423	0.97884
3731.76043	0.97870
3729.70663	0.97865
3727.65282	0.97830
3725.59902	0.97784
3723.54522	0.97772
3721.49141	0.97732
3719.43761	0.97654
3717.38381	0.97604
3715.33001	0.97559
3713.27620	0.97454
3711.22240	0.97298
3709.16860	0.97206
3707.11479	0.97158
3705.06099	0.97098
3703.00719	0.96985
3700.95338	0.96771
3698.89958	0.96590
3696.84578	0.96538
3694.79197	0.96557
3692.73817	0.96600
3690.68437	0.96657
3688.63056	0.96709
3686.57676	0.96734
3684.52296	0.96773
3682.46915	0.96834
3680.41535	0.96868
3678.36155	0.96859
3676.30774	0.96882
3674.25394	0.96953
3672.20014	0.96963
3670.14633	0.96921
3668.09253	0.96831
3666.03873	0.96729
3663.98492	0.96651
3661.93112	0.96587
3659.87732	0.96521
3657.82352	0.96481
3655.76971	0.96499
3653.71591	0.96495
3651.66211	0.96418
3649.60830	0.96319
3647.55450	0.96295
3645.50070	0.96281
3643.44689	0.96251
3641.39309	0.96273
3639.33929	0.96303
3637.28548	0.96264
3635.23168	0.96216
3633.17788	0.96172
3631.12407	0.96083
3629.07027	0.95962
3627.01647	0.95847
3624.96266	0.95744
3622.90886	0.95681
3620.85506	0.95698
3618.80125	0.95756
3616.74745	0.95791
3614.69365	0.95812
3612.63984	0.95802
3610.58604	0.95797
3608.53224	0.95891
3606.47844	0.95971
3604.42463	0.95941
3602.37083	0.95909
3600.31703	0.95906
3598.26322	0.95900
3596.20942	0.95875
3594.15562	0.95836
3592.10181	0.95839
3590.04801	0.95873
3587.99421	0.95841
3585.94040	0.95785
3583.88660	0.95827
3581.83280	0.95908
3579.77899	0.95955
3577.72519	0.95957
3575.67139	0.95956
3573.61758	0.95950
3571.56378	0.95899
3569.50998	0.95835
3567.45617	0.95828
3565.40237	0.95851
3563.34857	0.95827
3561.29476	0.95772
3559.24096	0.95734
3557.18716	0.95768
3555.13335	0.95847
3553.07955	0.95864
3551.02575	0.95814
3548.97195	0.95784
3546.91814	0.95788
3544.86434	0.95829
3542.81054	0.95870
3540.75673	0.95869
3538.70293	0.95856
3536.64913	0.95842
3534.59532	0.95829
3532.54152	0.95811
3530.48772	0.95764
3528.43391	0.95715
3526.38011	0.95705
3524.32631	0.95697
3522.27250	0.95676
3520.21870	0.95684
3518.16490	0.95708
3516.11109	0.95737
3514.05729	0.95757
3512.00349	0.95740
3509.94968	0.95711
3507.89588	0.95709
3505.84208	0.95726
3503.78827	0.95731
3501.73447	0.95717
3499.68067	0.95701
3497.62687	0.95706
3495.57306	0.95741
3493.51926	0.95749
3491.46546	0.95723
3489.41165	0.95708
3487.35785	0.95663
3485.30405	0.95561
3483.25024	0.95483
3481.19644	0.95474
3479.14264	0.95521
3477.08883	0.95603
3475.03503	0.95626
3472.98123	0.95576
3470.92742	0.95557
3468.87362	0.95578
3466.81982	0.95589
3464.76601	0.95594
3462.71221	0.95593
3460.65841	0.95558
3458.60460	0.95487
3456.55080	0.95438
3454.49700	0.95422
3452.44319	0.95398
3450.38939	0.95374
3448.33559	0.95358
3446.28178	0.95335
3444.22798	0.95324
3442.17418	0.95356
3440.12038	0.95405
3438.06657	0.95432
3436.01277	0.95379
3433.95897	0.95272
3431.90516	0.95214
3429.85136	0.95225
3427.79756	0.95238
3425.74375	0.95205
3423.68995	0.95180
3421.63615	0.95182
3419.58234	0.95194
3417.52854	0.95225
3415.47474	0.95221
3413.42093	0.95157
3411.36713	0.95116
3409.31333	0.95118
3407.25952	0.95100
3405.20572	0.95058
3403.15192	0.95041
3401.09811	0.95077
3399.04431	0.95117
3396.99051	0.95107
3394.93670	0.95064
3392.88290	0.95019
3390.82910	0.95021
3388.77529	0.95087
3386.72149	0.95143
3384.66769	0.95143
3382.61389	0.95099
3380.56008	0.95022
3378.50628	0.94961
3376.45248	0.94982
3374.39867	0.95037
3372.34487	0.95039
3370.29107	0.95018
3368.23726	0.95021
3366.18346	0.95048
3364.12966	0.95100
3362.07585	0.95135
3360.02205	0.95130
3357.96825	0.95103
3355.91444	0.95083
3353.86064	0.95085
3351.80684	0.95124
3349.75303	0.95175
3347.69923	0.95175
3345.64543	0.95167
3343.59162	0.95208
3341.53782	0.95250
3339.48402	0.95245
3337.43021	0.95209
3335.37641	0.95181
3333.32261	0.95176
3331.26881	0.95173
3329.21500	0.95156
3327.16120	0.95157
3325.10740	0.95210
3323.05359	0.95291
3320.99979	0.95327
3318.94599	0.95296
3316.89218	0.95241
3314.83838	0.95196
3312.78458	0.95195
3310.73077	0.95237
3308.67697	0.95262
3306.62317	0.95262
3304.56936	0.95265
3302.51556	0.95262
3300.46176	0.95289
3298.40795	0.95343
3296.35415	0.95364
3294.30035	0.95366
3292.24654	0.95360
3290.19274	0.95331
3288.13894	0.95319
3286.08513	0.95324
3284.03133	0.95296
3281.97753	0.95291
3279.92372	0.95360
3277.86992	0.95423
3275.81612	0.95423
3273.76232	0.95378
3271.70851	0.95348
3269.65471	0.95380
3267.60091	0.95440
3265.54710	0.95485
3263.49330	0.95503
3261.43950	0.95482
3259.38569	0.95464
3257.33189	0.95491
3255.27809	0.95536
3253.22428	0.95560
3251.17048	0.95556
3249.11668	0.95524
3247.06287	0.95488
3245.00907	0.95523
3242.95527	0.95595
3240.90146	0.95587
3238.84766	0.95550
3236.79386	0.95544
3234.74005	0.95521
3232.68625	0.95497
3230.63245	0.95521
3228.57864	0.95592
3226.52484	0.95675
3224.47104	0.95735
3222.41724	0.95764
3220.36343	0.95791
3218.30963	0.95818
3216.25583	0.95812
3214.20202	0.95777
3212.14822	0.95721
3210.09442	0.95676
3208.04061	0.95687
3205.98681	0.95719
3203.93301	0.95722
3201.87920	0.95727
3199.82540	0.95763
3197.77160	0.95764
3195.71779	0.95729
3193.66399	0.95743
3191.61019	0.95833
3189.55638	0.95921
3187.50258	0.95935
3185.44878	0.95926
3183.39497	0.95945
3181.34117	0.95978
3179.28737	0.95991
3177.23356	0.95939
3175.17976	0.95874
3173.12596	0.95920
3171.07215	0.96025
3169.01835	0.96058
3166.96455	0.96030
3164.91075	0.95999
3162.85694	0.96012
3160.80314	0.96074
3158.74934	0.96119
3156.69553	0.96134
3154.64173	0.96132
3152.58793	0.96103
3150.53412	0.96103
3148.48032	0.96140
3146.42652	0.96155
3144.37271	0.96173
3142.31891	0.96200
3140.26511	0.96204
3138.21130	0.96212
3136.15750	0.96237
3134.10370	0.96248
3132.04989	0.96249
3129.99609	0.96257
3127.94229	0.96262
3125.88848	0.96259
3123.83468	0.96277
3121.78088	0.96331
3119.72707	0.96362
3117.67327	0.96351
3115.61947	0.96352
3113.56566	0.96383
3111.51186	0.96406
3109.45806	0.96390
3107.40426	0.96350
3105.35045	0.96330
3103.29665	0.96342
3101.24285	0.96351
3099.18904	0.96362
3097.13524	0.96412
3095.08144	0.96446
3093.02763	0.96413
3090.97383	0.96366
3088.92003	0.96335
3086.86622	0.96286
3084.81242	0.96230
3082.75862	0.96216
3080.70481	0.96239
3078.65101	0.96261
3076.59721	0.96284
3074.54340	0.96314
3072.48960	0.96344
3070.43580	0.96373
3068.38199	0.96357
3066.32819	0.96286
3064.27439	0.96229
3062.22058	0.96207
3060.16678	0.96210
3058.11298	0.96240
3056.05918	0.96254
3054.00537	0.96267
3051.95157	0.96335
3049.89777	0.96418
3047.84396	0.96433
3045.79016	0.96394
3043.73636	0.96399
3041.68255	0.96468
3039.62875	0.96526
3037.57495	0.96496
3035.52114	0.96380
3033.46734	0.96271
3031.41354	0.96169
3029.35973	0.96024
3027.30593	0.95906
3025.25213	0.95887
3023.19832	0.95942
3021.14452	0.96042
3019.09072	0.96202
3017.03691	0.96377
3014.98311	0.96475
3012.92931	0.96514
3010.87550	0.96534
3008.82170	0.96535
3006.76790	0.96520
3004.71409	0.96507
3002.66029	0.96527
3000.60649	0.96564
2998.55269	0.96578
2996.49888	0.96602
2994.44508	0.96677
2992.39128	0.96736
2990.33747	0.96724
2988.28367	0.96730
2986.22987	0.96781
2984.17606	0.96814
2982.12226	0.96823
2980.06846	0.96830
2978.01465	0.96859
2975.96085	0.96897
2973.90705	0.96890
2971.85324	0.96863
2969.79944	0.96880
2967.74564	0.96919
2965.69183	0.96906
2963.63803	0.96833
2961.58423	0.96776
2959.53042	0.96755
2957.47662	0.96718
2955.42282	0.96698
2953.36901	0.96725
2951.31521	0.96742
2949.26141	0.96707
2947.20761	0.96652
2945.15380	0.96598
2943.10000	0.96541
2941.04620	0.96485
2938.99239	0.96411
2936.93859	0.96326
2934.88479	0.96266
2932.83098	0.96219
2930.77718	0.96159
2928.72338	0.96076
2926.66957	0.95967
2924.61577	0.95880
2922.56197	0.95847
2920.50816	0.95830
2918.45436	0.95837
2916.40056	0.95867
2914.34675	0.95900
2912.29295	0.95947
2910.23915	0.96013
2908.18534	0.96066
2906.13154	0.96079
2904.07774	0.96095
2902.02393	0.96162
2899.97013	0.96257
2897.91633	0.96354
2895.86252	0.96447
2893.80872	0.96519
2891.75492	0.96559
2889.70112	0.96567
2887.64731	0.96571
2885.59351	0.96602
2883.53971	0.96642
2881.48590	0.96657
2879.43210	0.96660
2877.37830	0.96687
2875.32449	0.96730
2873.27069	0.96770
2871.21689	0.96778
2869.16308	0.96755
2867.10928	0.96745
2865.05548	0.96746
2863.00167	0.96736
2860.94787	0.96733
2858.89407	0.96734
2856.84026	0.96697
2854.78646	0.96630
2852.73266	0.96598
2850.67885	0.96604
2848.62505	0.96602
2846.57125	0.96605
2844.51744	0.96645
2842.46364	0.96700
2840.40984	0.96752
2838.35603	0.96831
2836.30223	0.96920
2834.24843	0.96974
2832.19463	0.96990
2830.14082	0.96993
2828.08702	0.97016
2826.03322	0.97046
2823.97941	0.97058
2821.92561	0.97052
2819.87181	0.97043
2817.81800	0.97051
2815.76420	0.97063
2813.71040	0.97061
2811.65659	0.97084
2809.60279	0.97113
2807.54899	0.97091
2805.49518	0.97047
2803.44138	0.97036
2801.38758	0.97057
2799.33377	0.97096
2797.27997	0.97130
2795.22617	0.97141
2793.17236	0.97143
2791.11856	0.97158
2789.06476	0.97162
2787.01095	0.97144
2784.95715	0.97158
2782.90335	0.97199
2780.84955	0.97222
2778.79574	0.97217
2776.74194	0.97180
2774.68814	0.97137
2772.63433	0.97144
2770.58053	0.97191
2768.52673	0.97212
2766.47292	0.97214
2764.41912	0.97239
2762.36532	0.97259
2760.31151	0.97250
2758.25771	0.97244
2756.20391	0.97242
2754.15010	0.97223
2752.09630	0.97195
2750.04250	0.97156
2747.98869	0.97145
2745.93489	0.97184
2743.88109	0.97208
2741.82728	0.97210
2739.77348	0.97238
2737.71968	0.97261
2735.66587	0.97252
2733.61207	0.97237
2731.55827	0.97242
2729.50446	0.97288
2727.45066	0.97338
2725.39686	0.97335
2723.34306	0.97296
2721.28925	0.97271
2719.23545	0.97247
2717.18165	0.97221
2715.12784	0.97232
2713.07404	0.97265
2711.02024	0.97287
2708.96643	0.97311
2706.91263	0.97328
2704.85883	0.97306
2702.80502	0.97274
2700.75122	0.97283
2698.69742	0.97324
2696.64361	0.97342
2694.58981	0.97330
2692.53601	0.97323
2690.48220	0.97325
2688.42840	0.97313
2686.37460	0.97283
2684.32079	0.97260
2682.26699	0.97248
2680.21319	0.97246
2678.15938	0.97281
2676.10558	0.97332
2674.05178	0.97345
2671.99797	0.97331
2669.94417	0.97339
2667.89037	0.97353
2665.83657	0.97329
2663.78276	0.97282
2661.72896	0.97270
2659.67516	0.97291
2657.62135	0.97291
2655.56755	0.97267
2653.51375	0.97259
2651.45994	0.97274
2649.40614	0.97304
2647.35234	0.97340
2645.29853	0.97338
2643.24473	0.97292
2641.19093	0.97273
2639.13712	0.97307
2637.08332	0.97345
2635.02952	0.97342
2632.97571	0.97303
2630.92191	0.97293
2628.86811	0.97321
2626.81430	0.97351
2624.76050	0.97379
2622.70670	0.97388
2620.65289	0.97374
2618.59909	0.97359
2616.54529	0.97341
2614.49149	0.97338
2612.43768	0.97373
2610.38388	0.97426
2608.33008	0.97442
2606.27627	0.97387
2604.22247	0.97344
2602.16867	0.97371
2600.11486	0.97395
2598.06106	0.97431
2596.00726	0.97498
2593.95345	0.97526
2591.89965	0.97487
2589.84585	0.97434
2587.79204	0.97430
2585.73824	0.97456
2583.68444	0.97462
2581.63063	0.97457
2579.57683	0.97449
2577.52303	0.97417
2575.46922	0.97422
2573.41542	0.97472
2571.36162	0.97508
2569.30781	0.97505
2567.25401	0.97471
2565.20021	0.97460
2563.14640	0.97471
2561.09260	0.97474
2559.03880	0.97482
2556.98500	0.97477
2554.93119	0.97450
2552.87739	0.97438
2550.82359	0.97470
2548.76978	0.97494
2546.71598	0.97475
2544.66218	0.97476
2542.60837	0.97515
2540.55457	0.97566
2538.50077	0.97602
2536.44696	0.97584
2534.39316	0.97548
2532.33936	0.97532
2530.28555	0.97523
2528.23175	0.97520
2526.17795	0.97542
2524.12414	0.97599
2522.07034	0.97643
2520.01654	0.97627
2517.96273	0.97586
2515.90893	0.97548
2513.85513	0.97520
2511.80132	0.97556
2509.74752	0.97646
2507.69372	0.97684
2505.63992	0.97630
2503.58611	0.97548
2501.53231	0.97487
2499.47851	0.97464
2497.42470	0.97461
2495.37090	0.97436
2493.31710	0.97431
2491.26329	0.97461
2489.20949	0.97473
2487.15569	0.97475
2485.10188	0.97502
2483.04808	0.97547
2480.99428	0.97590
2478.94047	0.97629
2476.88667	0.97637
2474.83287	0.97549
2472.77906	0.97414
2470.72526	0.97408
2468.67146	0.97509
2466.61765	0.97555
2464.56385	0.97553
2462.51005	0.97541
2460.45624	0.97532
2458.40244	0.97533
2456.34864	0.97515
2454.29483	0.97510
2452.24103	0.97520
2450.18723	0.97517
2448.13343	0.97548
2446.07962	0.97602
2444.02582	0.97638
2441.97202	0.97675
2439.91821	0.97672
2437.86441	0.97625
2435.81061	0.97575
2433.75680	0.97510
2431.70300	0.97470
2429.64920	0.97483
2427.59539	0.97508
2425.54159	0.97507
2423.48779	0.97487
2421.43398	0.97526
2419.38018	0.97638
2417.32638	0.97705
2415.27257	0.97677
2413.21877	0.97666
2411.16497	0.97729
2409.11116	0.97789
2407.05736	0.97774
2405.00356	0.97705
2402.94975	0.97631
2400.89595	0.97586
2398.84215	0.97583
2396.78834	0.97594
2394.73454	0.97611
2392.68074	0.97631
2390.62694	0.97617
2388.57313	0.97584
2386.51933	0.97554
2384.46553	0.97553
2382.41172	0.97640
2380.35792	0.97778
2378.30412	0.97848
2376.25031	0.97795
2374.19651	0.97698
2372.14271	0.97630
2370.08890	0.97560
2368.03510	0.97488
2365.98130	0.97439
2363.92749	0.97445
2361.87369	0.97578
2359.81989	0.97802
2357.76608	0.97931
2355.71228	0.97806
2353.65848	0.97585
2351.60467	0.97515
2349.55087	0.97561
2347.49707	0.97579
2345.44326	0.97512
2343.38946	0.97439
2341.33566	0.97481
2339.28186	0.97565
2337.22805	0.97559
2335.17425	0.97536
2333.12045	0.97531
2331.06664	0.97461
2329.01284	0.97369
2326.95904	0.97298
2324.90523	0.97258
2322.85143	0.97285
2320.79763	0.97349
2318.74382	0.97392
2316.69002	0.97417
2314.63622	0.97426
2312.58241	0.97432
2310.52861	0.97496
2308.47481	0.97578
2306.42100	0.97593
2304.36720	0.97592
2302.31340	0.97592
2300.25959	0.97546
2298.20579	0.97487
2296.15199	0.97432
2294.09818	0.97378
2292.04438	0.97357
2289.99058	0.97383
2287.93677	0.97401
2285.88297	0.97390
2283.82917	0.97424
2281.77537	0.97503
2279.72156	0.97552
2277.66776	0.97552
2275.61396	0.97558
2273.56015	0.97606
2271.50635	0.97618
2269.45255	0.97586
2267.39874	0.97534
2265.34494	0.97493
2263.29114	0.97555
2261.23733	0.97656
2259.18353	0.97709
2257.12973	0.97732
2255.07592	0.97727
2253.02212	0.97682
2250.96832	0.97622
2248.91451	0.97600
2246.86071	0.97635
2244.80691	0.97688
2242.75310	0.97706
2240.69930	0.97615
2238.64550	0.97470
2236.59169	0.97475
2234.53789	0.97587
2232.48409	0.97649
2230.43029	0.97631
2228.37648	0.97588
2226.32268	0.97650
2224.26888	0.97757
2222.21507	0.97762
2220.16127	0.97682
2218.10747	0.97611
2216.05366	0.97602
2213.99986	0.97651
2211.94606	0.97706
2209.89225	0.97726
2207.83845	0.97766
2205.78465	0.97834
2203.73084	0.97929
2201.67704	0.98120
2199.62324	0.98264
2197.56943	0.98160
2195.51563	0.97930
2193.46183	0.97757
2191.40802	0.97702
2189.35422	0.97808
2187.30042	0.97960
2185.24661	0.97991
2183.19281	0.98045
2181.13901	0.98191
2179.08520	0.98174
2177.03140	0.98013
2174.97760	0.97938
2172.92380	0.98022
2170.86999	0.98148
2168.81619	0.98177
2166.76239	0.98102
2164.70858	0.97931
2162.65478	0.97735
2160.60098	0.97749
2158.54717	0.98159
2156.49337	0.98585
2154.43957	0.98564
2152.38576	0.98328
2150.33196	0.98278
2148.27816	0.98413
2146.22435	0.98463
2144.17055	0.98364
2142.11675	0.98318
2140.06294	0.98384
2138.00914	0.98318
2135.95534	0.98107
2133.90153	0.98047
2131.84773	0.98139
2129.79393	0.98165
2127.74012	0.98067
2125.68632	0.97957
2123.63252	0.97863
2121.57871	0.97785
2119.52491	0.97784
2117.47111	0.97801
2115.41731	0.97801
2113.36350	0.97769
2111.30970	0.97731
2109.25590	0.97791
2107.20209	0.97839
2105.14829	0.97788
2103.09449	0.97800
2101.04068	0.97869
2098.98688	0.97843
2096.93308	0.97773
2094.87927	0.97783
2092.82547	0.97851
2090.77167	0.97858
2088.71786	0.97836
2086.66406	0.97858
2084.61026	0.97836
2082.55645	0.97739
2080.50265	0.97696
2078.44885	0.97764
2076.39504	0.97810
2074.34124	0.97723
2072.28744	0.97670
2070.23363	0.97802
2068.17983	0.97882
2066.12603	0.97789
2064.07223	0.97778
2062.01842	0.97851
2059.96462	0.97791
2057.91082	0.97656
2055.85701	0.97672
2053.80321	0.97779
2051.74941	0.97668
2049.69560	0.97460
2047.64180	0.97478
2045.58800	0.97641
2043.53419	0.97831
2041.48039	0.97900
2039.42659	0.97798
2037.37278	0.97719
2035.31898	0.97755
2033.26518	0.97928
2031.21137	0.98016
2029.15757	0.97823
2027.10377	0.97685
2025.04996	0.97796
2022.99616	0.97958
2020.94236	0.98003
2018.88855	0.97778
2016.83475	0.97618
2014.78095	0.97803
2012.72714	0.98001
2010.67334	0.98191
2008.61954	0.98420
2006.56574	0.98442
2004.51193	0.98143
2002.45813	0.97808
2000.40433	0.97719
1998.35052	0.97817
1996.29672	0.97976
1994.24292	0.98110
1992.18911	0.98211
1990.13531	0.98331
1988.08151	0.98345
1986.02770	0.98187
1983.97390	0.97972
1981.92010	0.97834
1979.86629	0.97814
1977.81249	0.97727
1975.75869	0.97643
1973.70488	0.97719
1971.65108	0.97730
1969.59728	0.97692
1967.54347	0.97883
1965.48967	0.98236
1963.43587	0.98285
1961.38206	0.97894
1959.32826	0.97594
1957.27446	0.97747
1955.22066	0.98034
1953.16685	0.98154
1951.11305	0.98071
1949.05925	0.97906
1947.00544	0.97802
1944.95164	0.97705
1942.89784	0.97614
1940.84403	0.97635
1938.79023	0.97714
1936.73643	0.97772
1934.68262	0.97809
1932.62882	0.97801
1930.57502	0.97786
1928.52121	0.97867
1926.46741	0.98027
1924.41361	0.98160
1922.35980	0.98196
1920.30600	0.98114
1918.25220	0.97994
1916.19839	0.97905
1914.14459	0.97857
1912.09079	0.97869
1910.03698	0.97875
1907.98318	0.97805
1905.92938	0.97745
1903.87557	0.97775
1901.82177	0.97853
1899.76797	0.97900
1897.71417	0.97884
1895.66036	0.97813
1893.60656	0.97725
1891.55276	0.97671
1889.49895	0.97656
1887.44515	0.97663
1885.39135	0.97716
1883.33754	0.97775
1881.28374	0.97788
1879.22994	0.97807
1877.17613	0.97817
1875.12233	0.97764
1873.06853	0.97733
1871.01472	0.97806
1868.96092	0.97871
1866.90712	0.97791
1864.85331	0.97708
1862.79951	0.97731
1860.74571	0.97802
1858.69190	0.97851
1856.63810	0.97856
1854.58430	0.97847
1852.53049	0.97847
1850.47669	0.97825
1848.42289	0.97756
1846.36908	0.97683
1844.31528	0.97674
1842.26148	0.97745
1840.20768	0.97841
1838.15387	0.97867
1836.10007	0.97804
1834.04627	0.97786
1831.99246	0.97891
1829.93866	0.97995
1827.88486	0.97931
1825.83105	0.97804
1823.77725	0.97762
1821.72345	0.97817
1819.66964	0.97923
1817.61584	0.97959
1815.56204	0.97867
1813.50823	0.97757
1811.45443	0.97693
1809.40063	0.97678
1807.34682	0.97712
1805.29302	0.97739
1803.23922	0.97731
1801.18541	0.97707
1799.13161	0.97667
1797.07781	0.97626
1795.02400	0.97631
1792.97020	0.97717
1790.91640	0.97823
1788.86260	0.97855
1786.80879	0.97837
1784.75499	0.97803
1782.70119	0.97764
1780.64738	0.97750
1778.59358	0.97779
1776.53978	0.97798
1774.48597	0.97754
1772.43217	0.97671
1770.37837	0.97658
1768.32456	0.97694
1766.27076	0.97703
1764.21696	0.97709
1762.16315	0.97748
1760.10935	0.97771
1758.05555	0.97743
1756.00174	0.97719
1753.94794	0.97737
1751.89414	0.97779
1749.84033	0.97778
1747.78653	0.97710
1745.73273	0.97633
1743.67892	0.97583
1741.62512	0.97588
1739.57132	0.97634
1737.51751	0.97674
1735.46371	0.97682
1733.40991	0.97631
1731.35611	0.97578
1729.30230	0.97568
1727.24850	0.97546
1725.19470	0.97518
1723.14089	0.97497
1721.08709	0.97446
1719.03329	0.97429
1716.97948	0.97530
1714.92568	0.97549
1712.87188	0.97487
1710.81807	0.97471
1708.76427	0.97471
1706.71047	0.97472
1704.65666	0.97496
1702.60286	0.97501
1700.54906	0.97426
1698.49525	0.97310
1696.44145	0.97212
1694.38765	0.97113
1692.33384	0.97045
1690.28004	0.96991
1688.22624	0.96920
1686.17243	0.96845
1684.11863	0.96800
1682.06483	0.96767
1680.01103	0.96728
1677.95722	0.96677
1675.90342	0.96592
1673.84962	0.96518
1671.79581	0.96490
1669.74201	0.96433
1667.68821	0.96336
1665.63440	0.96265
1663.58060	0.96228
1661.52680	0.96210
1659.47299	0.96170
1657.41919	0.96113
1655.36539	0.96069
1653.31158	0.96013
1651.25778	0.95954
1649.20398	0.95964
1647.15017	0.95998
1645.09637	0.95991
1643.04257	0.95963
1640.98876	0.95928
1638.93496	0.95882
1636.88116	0.95868
1634.82735	0.95898
1632.77355	0.95913
1630.71975	0.95921
1628.66594	0.95944
1626.61214	0.95993
1624.55834	0.96043
1622.50454	0.96077
1620.45073	0.96107
1618.39693	0.96145
1616.34313	0.96210
1614.28932	0.96270
1612.23552	0.96294
1610.18172	0.96295
1608.12791	0.96254
1606.07411	0.96155
1604.02031	0.96002
1601.96650	0.95860
1599.91270	0.95858
1597.85890	0.96015
1595.80509	0.96226
1593.75129	0.96397
1591.69749	0.96524
1589.64368	0.96613
1587.58988	0.96634
1585.53608	0.96600
1583.48227	0.96579
1581.42847	0.96624
1579.37467	0.96719
1577.32086	0.96838
1575.26706	0.96963
1573.21326	0.97021
1571.15945	0.97031
1569.10565	0.97027
1567.05185	0.97031
1564.99805	0.97041
1562.94424	0.97054
1560.89044	0.97110
1558.83664	0.97196
1556.78283	0.97131
1554.72903	0.97075
1552.67523	0.97093
1550.62142	0.97121
1548.56762	0.97111
1546.51382	0.97066
1544.46001	0.97025
1542.40621	0.97044
1540.35241	0.97117
1538.29860	0.97174
1536.24480	0.97218
1534.19100	0.97284
1532.13719	0.97324
1530.08339	0.97304
1528.02959	0.97285
1525.97578	0.97283
1523.92198	0.97295
1521.86818	0.97307
1519.81437	0.97328
1517.76057	0.97382
1515.70677	0.97431
1513.65297	0.97440
1511.59916	0.97437
1509.54536	0.97446
1507.49156	0.97468
1505.43775	0.97482
1503.38395	0.97457
1501.33015	0.97392
1499.27634	0.97212
1497.22254	0.96665
1495.16874	0.95812
1493.11493	0.95285
1491.06113	0.95387
1489.00733	0.96067
1486.95352	0.96692
1484.89972	0.96989
1482.84592	0.97133
1480.79211	0.97245
1478.73831	0.97342
1476.68451	0.97410
1474.63070	0.97435
1472.57690	0.97398
1470.52310	0.97353
1468.46929	0.97336
1466.41549	0.97329
1464.36169	0.97322
1462.30788	0.97291
1460.25408	0.97230
1458.20028	0.96995
1456.14648	0.96218
1454.09267	0.95424
1452.03887	0.95074
1449.98507	0.95161
1447.93126	0.95504
1445.87746	0.95827
1443.82366	0.96062
1441.76985	0.96268
1439.71605	0.96460
1437.66225	0.96640
1435.60844	0.96796
1433.55464	0.96914
1431.50084	0.97013
1429.44703	0.97066
1427.39323	0.97072
1425.33943	0.97078
1423.28562	0.97097
1421.23182	0.97126
1419.17802	0.97160
1417.12421	0.97192
1415.07041	0.97226
1413.01661	0.97239
1410.96280	0.97235
1408.90900	0.97242
1406.85520	0.97252
1404.80139	0.97265
1402.74759	0.97289
1400.69379	0.97319
1398.63999	0.97354
1396.58618	0.97368
1394.53238	0.97346
1392.47858	0.97305
1390.42477	0.97260
1388.37097	0.97223
1386.31717	0.97209
1384.26336	0.97208
1382.20956	0.97194
1380.15576	0.97151
1378.10195	0.97115
1376.04815	0.97133
1373.99435	0.97148
1371.94054	0.97120
1369.88674	0.97116
1367.83294	0.97153
1365.77913	0.97184
1363.72533	0.97176
1361.67153	0.97147
1359.61772	0.97140
1357.56392	0.97153
1355.51012	0.97182
1353.45631	0.97222
1351.40251	0.97255
1349.34871	0.97288
1347.29491	0.97296
1345.24110	0.97283
1343.18730	0.97299
1341.13350	0.97333
1339.07969	0.97325
1337.02589	0.97287
1334.97209	0.97281
1332.91828	0.97298
1330.86448	0.97307
1328.81068	0.97313
1326.75687	0.97311
1324.70307	0.97306
1322.64927	0.97320
1320.59546	0.97335
1318.54166	0.97327
1316.48786	0.97311
1314.43405	0.97306
1312.38025	0.97318
1310.32645	0.97340
1308.27264	0.97353
1306.21884	0.97365
1304.16504	0.97372
1302.11123	0.97363
1300.05743	0.97382
1298.00363	0.97427
1295.94982	0.97447
1293.89602	0.97446
1291.84222	0.97438
1289.78842	0.97428
1287.73461	0.97415
1285.68081	0.97375
1283.62701	0.97338
1281.57320	0.97324
1279.51940	0.97306
1277.46560	0.97287
1275.41179	0.97257
1273.35799	0.97217
1271.30419	0.97214
1269.25038	0.97242
1267.19658	0.97248
1265.14278	0.97229
1263.08897	0.97210
1261.03517	0.97204
1258.98137	0.97200
1256.92756	0.97185
1254.87376	0.97174
1252.81996	0.97127
1250.76615	0.97036
1248.71235	0.96985
1246.65855	0.96979
1244.60474	0.96967
1242.55094	0.96934
1240.49714	0.96884
1238.44334	0.96827
1236.38953	0.96764
1234.33573	0.96716
1232.28193	0.96700
1230.22812	0.96681
1228.17432	0.96620
1226.12052	0.96529
1224.06671	0.96447
1222.01291	0.96389
1219.95911	0.96327
1217.90530	0.96235
1215.85150	0.96121
1213.79770	0.95988
1211.74389	0.95818
1209.69009	0.95630
1207.63629	0.95460
1205.58248	0.95303
1203.52868	0.95132
1201.47488	0.94922
1199.42107	0.94680
1197.36727	0.94459
1195.31347	0.94288
1193.25966	0.94109
1191.20586	0.93859
1189.15206	0.93555
1187.09825	0.93256
1185.04445	0.92987
1182.99065	0.92728
1180.93685	0.92474
1178.88304	0.92213
1176.82924	0.91930
1174.77544	0.91626
1172.72163	0.91337
1170.66783	0.91073
1168.61403	0.90790
1166.56022	0.90488
1164.50642	0.90178
1162.45262	0.89844
1160.39881	0.89523
1158.34501	0.89266
1156.29121	0.89029
1154.23740	0.88780
1152.18360	0.88588
1150.12980	0.88468
1148.07599	0.88341
1146.02219	0.88160
1143.96839	0.87956
1141.91458	0.87759
1139.86078	0.87582
1137.80698	0.87437
1135.75317	0.87286
1133.69937	0.87075
1131.64557	0.86824
1129.59176	0.86542
1127.53796	0.86189
1125.48416	0.85774
1123.43036	0.85336
1121.37655	0.84908
1119.32275	0.84495
1117.26895	0.84075
1115.21514	0.83671
1113.16134	0.83305
1111.10754	0.82964
1109.05373	0.82639
1106.99993	0.82320
1104.94613	0.82020
1102.89232	0.81772
1100.83852	0.81560
1098.78472	0.81354
1096.73091	0.81167
1094.67711	0.81017
1092.62331	0.80871
1090.56950	0.80713
1088.51570	0.80576
1086.46190	0.80472
1084.40809	0.80405
1082.35429	0.80366
1080.30049	0.80288
1078.24668	0.80111
1076.19288	0.79861
1074.13908	0.79602
1072.08528	0.79309
1070.03147	0.78970
1067.97767	0.78614
1065.92387	0.78204
1063.87006	0.77723
1061.81626	0.77196
1059.76246	0.76633
1057.70865	0.76032
1055.65485	0.75376
1053.60105	0.74651
1051.54724	0.73861
1049.49344	0.72998
1047.43964	0.72072
1045.38583	0.71156
1043.33203	0.70270
1041.27823	0.69370
1039.22442	0.68475
1037.17062	0.67620
1035.11682	0.66804
1033.06301	0.66084
1031.00921	0.65495
1028.95541	0.65049
1026.90160	0.64784
1024.84780	0.64653
1022.79400	0.64534
1020.74019	0.64388
1018.68639	0.64217
1016.63259	0.64010
1014.57879	0.63779
1012.52498	0.63499
1010.47118	0.63111
1008.41738	0.62649
1006.36357	0.62254
1004.30977	0.62006
1002.25597	0.61922
1000.20216	0.61981
998.14836	0.62141
996.09456	0.62376
994.04075	0.62693
991.98695	0.63064
989.93315	0.63416
987.87934	0.63799
985.82554	0.64294
983.77174	0.64854
981.71793	0.65417
979.66413	0.65992
977.61033	0.66602
975.55652	0.67224
973.50272	0.67845
971.44892	0.68483
969.39511	0.69105
967.34131	0.69660
965.28751	0.70194
963.23371	0.70767
961.17990	0.71352
959.12610	0.71905
957.07230	0.72418
955.01849	0.72895
952.96469	0.73348
950.91089	0.73774
948.85708	0.74127
946.80328	0.74414
944.74948	0.74680
942.69567	0.74923
940.64187	0.75135
938.58807	0.75350
936.53426	0.75609
934.48046	0.75874
932.42666	0.76106
930.37285	0.76350
928.31905	0.76582
926.26525	0.76740
924.21144	0.76826
922.15764	0.76842
920.10384	0.76772
918.05003	0.76597
915.99623	0.76376
913.94243	0.76232
911.88862	0.76222
909.83482	0.76375
907.78102	0.76731
905.72722	0.77307
903.67341	0.78039
901.61961	0.78805
899.56581	0.79572
897.51200	0.80374
895.45820	0.81118
893.40440	0.81716
891.35059	0.82227
889.29679	0.82697
887.24299	0.83120
885.18918	0.83503
883.13538	0.83839
881.08158	0.84130
879.02777	0.84412
876.97397	0.84736
874.92017	0.85097
872.86636	0.85461
870.81256	0.85841
868.75876	0.86191
866.70495	0.86461
864.65115	0.86751
862.59735	0.87101
860.54354	0.87465
858.48974	0.87824
856.43594	0.88139
854.38213	0.88408
852.32833	0.88651
850.27453	0.88890
848.22073	0.89092
846.16692	0.89174
844.11312	0.89207
842.05932	0.89353
840.00551	0.89575
837.95171	0.89702
835.89791	0.89744
833.84410	0.89831
831.79030	0.89939
829.73650	0.89982
827.68269	0.90004
825.62889	0.90007
823.57509	0.89971
821.52128	0.89997
819.46748	0.90063
817.41368	0.90100
815.35987	0.90143
813.30607	0.90144
811.25227	0.90078
809.19846	0.89943
807.14466	0.89646
805.09086	0.89268
803.03705	0.88945
800.98325	0.88628
798.92945	0.88274
796.87565	0.87902
794.82184	0.87545
792.76804	0.87260
790.71424	0.87019
788.66043	0.86802
786.60663	0.86716
784.55283	0.86781
782.49902	0.86856
780.44522	0.86834
778.39142	0.86753
776.33761	0.86656
774.28381	0.86519
772.23001	0.86272
770.17620	0.85791
768.12240	0.85073
766.06860	0.84301
764.01479	0.83592
761.96099	0.82950
759.90719	0.82397
757.85338	0.81988
755.79958	0.81768
753.74578	0.81713
751.69197	0.81758
749.63817	0.81855
747.58437	0.82003
745.53056	0.82216
743.47676	0.82574
741.42296	0.83125
739.36916	0.83715
737.31535	0.84270
735.26155	0.84835
733.20775	0.85351
731.15394	0.85717
729.10014	0.85886
727.04634	0.85883
724.99253	0.85846
722.93873	0.85927
720.88493	0.86127
718.83112	0.86338
716.77732	0.86529
714.72352	0.86695
712.66971	0.86722
710.61591	0.86510
708.56211	0.85898
706.50830	0.84643
704.45450	0.82660
702.40070	0.79988
700.34689	0.76819
698.29309	0.73818
696.23929	0.72303
694.18548	0.73337
692.13168	0.76228
690.07788	0.79135
688.02408	0.81105
685.97027	0.82277
683.91647	0.82964
681.86267	0.83441
679.80886	0.83838
677.75506	0.84115
675.70126	0.84281
673.64745	0.84410
671.59365	0.84541
669.53985	0.84631
667.48604	0.84594
665.43224	0.84563
663.37844	0.84648
661.32463	0.84731
659.27083	0.84586
657.21703	0.84200
655.16322	0.83783
653.10942	0.83348
651.05562	0.82846
649.00181	0.82420
646.94801	0.82141
644.89421	0.82024
642.84040	0.82178
640.78660	0.82604
638.73280	0.83059
636.67899	0.83317
634.62519	0.83493
632.57139	0.83696
630.51759	0.83799
628.46378	0.83732
626.40998	0.83528
624.35618	0.83235
622.30237	0.82961
620.24857	0.82701
618.19477	0.82328
616.14096	0.81937
614.08716	0.81543
612.03336	0.81043
609.97955	0.80549
607.92575	0.80131
605.87195	0.79758
603.81814	0.79339
601.76434	0.78870
599.71054	0.78479
597.65673	0.78129
595.60293	0.77750
593.54913	0.77395
591.49532	0.76972
589.44152	0.76438
587.38772	0.75959
585.33391	0.75603
583.28011	0.75352
581.22631	0.75174
579.17250	0.74936
577.11870	0.74582
575.06490	0.74277
573.01110	0.74174
570.95729	0.74172
568.90349	0.74025
566.84969	0.73739
564.79588	0.73501
562.74208	0.73240
560.68828	0.72877
558.63447	0.72529
556.58067	0.72212
554.52687	0.71818
552.47306	0.71324
550.41926	0.70818
548.36546	0.70165
546.31165	0.69065
544.25785	0.67708
542.20405	0.66530
540.15024	0.65518
538.09644	0.64513
536.04264	0.63670
533.98883	0.63132
531.93503	0.62865
529.88123	0.62951
527.82742	0.63350
525.77362	0.63715
523.71982	0.63927
521.66602	0.64276
519.61221	0.64832
517.55841	0.65449
515.50461	0.66161
513.45080	0.66938
511.39700	0.67551
509.34320	0.68050
507.28939	0.68635
505.23559	0.69190
503.18179	0.69650
501.12798	0.70015
499.07418	0.70117
497.02038	0.70036
494.96657	0.70013
492.91277	0.70138
490.85897	0.70206
488.80516	0.69961
486.75136	0.69426
484.69756	0.68591
482.64375	0.67489
480.58995	0.66384
478.53615	0.65126
476.48234	0.63477
474.42854	0.61677
472.37474	0.59932
470.32093	0.58541
468.26713	0.57619
466.21333	0.56996
464.15953	0.56811
462.10572	0.57069
460.05192	0.57482
457.99812	0.58051
455.94431	0.58711
453.89051	0.59128
451.83671	0.59412
449.78290	0.59791
447.72910	0.60200
445.67530	0.60421
443.62149	0.60400
441.56769	0.60174
439.51389	0.59857
437.46008	0.59512
435.40628	0.58892
433.35248	0.57995
431.29867	0.57243
429.24487	0.56720
427.19107	0.56238
425.13726	0.55793
423.08346	0.55573
421.02966	0.55892
418.97585	0.56715
416.92205	0.57031
414.86825	0.57044
412.81445	0.57320
410.76064	0.57588
408.70684	0.57989
406.65304	0.58807
404.59923	0.59311
402.54543	0.59233
400.49163	0.59351
398.43782	0.59808
