3996.70104	0.94415
3994.64724	0.94360
3992.59344	0.94333
3990.53964	0.94390
3988.48583	0.94435
3986.43203	0.94402
3984.37823	0.94384
3982.32442	0.94394
3980.27062	0.94381
3978.21682	0.94386
3976.16301	0.94424
3974.10921	0.94436
3972.05541	0.94434
3970.00160	0.94453
3967.94780	0.94443
3965.89400	0.94394
3963.84019	0.94371
3961.78639	0.94375
3959.73259	0.94358
3957.67878	0.94349
3955.62498	0.94401
3953.57118	0.94457
3951.51737	0.94460
3949.46357	0.94441
3947.40977	0.94434
3945.35596	0.94439
3943.30216	0.94433
3941.24836	0.94419
3939.19455	0.94428
3937.14075	0.94467
3935.08695	0.94521
3933.03315	0.94544
3930.97934	0.94526
3928.92554	0.94512
3926.87174	0.94530
3924.81793	0.94542
3922.76413	0.94486
3920.71033	0.94414
3918.65652	0.94383
3916.60272	0.94399
3914.54892	0.94496
3912.49511	0.94590
3910.44131	0.94578
3908.38751	0.94517
3906.33370	0.94483
3904.27990	0.94480
3902.22610	0.94476
3900.17229	0.94453
3898.11849	0.94449
3896.06469	0.94464
3894.01088	0.94457
3891.95708	0.94433
3889.90328	0.94425
3887.84947	0.94429
3885.79567	0.94434
3883.74187	0.94458
3881.68807	0.94517
3879.63426	0.94555
3877.58046	0.94586
3875.52666	0.94652
3873.47285	0.94654
3871.41905	0.94604
3869.36525	0.94622
3867.31144	0.94664
3865.25764	0.94648
3863.20384	0.94545
3861.15003	0.94459
3859.09623	0.94462
3857.04243	0.94523
3854.98862	0.94627
3852.93482	0.94700
3850.88102	0.94704
3848.82721	0.94693
3846.77341	0.94629
3844.71961	0.94543
3842.66580	0.94499
3840.61200	0.94457
3838.55820	0.94417
3836.50439	0.94449
3834.45059	0.94528
3832.39679	0.94603
3830.34298	0.94647
3828.28918	0.94660
3826.23538	0.94644
3824.18158	0.94619
3822.12777	0.94599
3820.07397	0.94564
3818.02017	0.94553
3815.96636	0.94621
3813.91256	0.94695
3811.85876	0.94668
3809.80495	0.94585
3807.75115	0.94539
3805.69735	0.94550
3803.64354	0.94560
3801.58974	0.94582
3799.53594	0.94608
3797.48213	0.94616
3795.42833	0.94650
3793.37453	0.94659
3791.32072	0.94629
3789.26692	0.94632
3787.21312	0.94668
3785.15931	0.94692
3783.10551	0.94711
3781.05171	0.94732
3778.99790	0.94740
3776.94410	0.94736
3774.89030	0.94740
3772.83650	0.94749
3770.78269	0.94719
3768.72889	0.94654
3766.67509	0.94636
3764.62128	0.94690
3762.56748	0.94718
3760.51368	0.94651
3758.45987	0.94578
3756.40607	0.94609
3754.35227	0.94690
3752.29846	0.94730
3750.24466	0.94742
3748.19086	0.94829
3746.13705	0.94921
3744.08325	0.94892
3742.02945	0.94792
3739.97564	0.94743
3737.92184	0.94742
3735.86804	0.94767
3733.81423	0.94796
3731.76043	0.94846
3729.70663	0.94897
3727.65282	0.94928
3725.59902	0.94903
3723.54522	0.94805
3721.49141	0.94746
3719.43761	0.94757
3717.38381	0.94724
3715.33001	0.94609
3713.27620	0.94483
3711.22240	0.94349
3709.16860	0.94176
3707.11479	0.94033
3705.06099	0.93916
3703.00719	0.93744
3700.95338	0.93496
3698.89958	0.93302
3696.84578	0.93259
3694.79197	0.93341
3692.73817	0.93425
3690.68437	0.93421
3688.63056	0.93420
3686.57676	0.93513
3684.52296	0.93610
3682.46915	0.93645
3680.41535	0.93581
3678.36155	0.93472
3676.30774	0.93440
3674.25394	0.93469
3672.20014	0.93397
3670.14633	0.93269
3668.09253	0.93235
3666.03873	0.93254
3663.98492	0.93214
3661.93112	0.93107
3659.87732	0.92992
3657.82352	0.92879
3655.76971	0.92749
3653.71591	0.92684
3651.66211	0.92679
3649.60830	0.92641
3647.55450	0.92518
3645.50070	0.92390
3643.44689	0.92350
3641.39309	0.92388
3639.33929	0.92387
3637.28548	0.92316
3635.23168	0.92235
3633.17788	0.92139
3631.12407	0.92028
3629.07027	0.91884
3627.01647	0.91752
3624.96266	0.91684
3622.90886	0.91611
3620.85506	0.91534
3618.80125	0.91551
3616.74745	0.91621
3614.69365	0.91629
3612.63984	0.91653
3610.58604	0.91730
3608.53224	0.91796
3606.47844	0.91823
3604.42463	0.91803
3602.37083	0.91769
3600.31703	0.91772
3598.26322	0.91791
3596.20942	0.91771
3594.15562	0.91765
3592.10181	0.91837
3590.04801	0.91900
3587.99421	0.91899
3585.94040	0.91885
3583.88660	0.91875
3581.83280	0.91857
3579.77899	0.91815
3577.72519	0.91784
3575.67139	0.91799
3573.61758	0.91781
3571.56378	0.91716
3569.50998	0.91662
3567.45617	0.91627
3565.40237	0.91627
3563.34857	0.91650
3561.29476	0.91654
3559.24096	0.91618
3557.18716	0.91547
3555.13335	0.91511
3553.07955	0.91521
3551.02575	0.91523
3548.97195	0.91513
3546.91814	0.91504
3544.86434	0.91487
3542.81054	0.91423
3540.75673	0.91364
3538.70293	0.91347
3536.64913	0.91332
3534.59532	0.91333
3532.54152	0.91366
3530.48772	0.91380
3528.43391	0.91368
3526.38011	0.91370
3524.32631	0.91348
3522.27250	0.91274
3520.21870	0.91221
3518.16490	0.91224
3516.11109	0.91276
3514.05729	0.91344
3512.00349	0.91355
3509.94968	0.91277
3507.89588	0.91164
3505.84208	0.91120
3503.78827	0.91182
3501.73447	0.91259
3499.68067	0.91279
3497.62687	0.91277
3495.57306	0.91240
3493.51926	0.91166
3491.46546	0.91143
3489.41165	0.91165
3487.35785	0.91154
3485.30405	0.91119
3483.25024	0.91105
3481.19644	0.91086
3479.14264	0.91046
3477.08883	0.91016
3475.03503	0.91007
3472.98123	0.91037
3470.92742	0.91038
3468.87362	0.90953
3466.81982	0.90863
3464.76601	0.90825
3462.71221	0.90826
3460.65841	0.90859
3458.60460	0.90867
3456.55080	0.90802
3454.49700	0.90708
3452.44319	0.90629
3450.38939	0.90597
3448.33559	0.90602
3446.28178	0.90588
3444.22798	0.90592
3442.17418	0.90618
3440.12038	0.90579
3438.06657	0.90514
3436.01277	0.90469
3433.95897	0.90447
3431.90516	0.90481
3429.85136	0.90524
3427.79756	0.90507
3425.74375	0.90448
3423.68995	0.90397
3421.63615	0.90395
3419.58234	0.90409
3417.52854	0.90390
3415.47474	0.90372
3413.42093	0.90335
3411.36713	0.90266
3409.31333	0.90226
3407.25952	0.90194
3405.20572	0.90147
3403.15192	0.90159
3401.09811	0.90226
3399.04431	0.90264
3396.99051	0.90270
3394.93670	0.90262
3392.88290	0.90250
3390.82910	0.90275
3388.77529	0.90321
3386.72149	0.90314
3384.66769	0.90293
3382.61389	0.90297
3380.56008	0.90265
3378.50628	0.90222
3376.45248	0.90203
3374.39867	0.90187
3372.34487	0.90196
3370.29107	0.90239
3368.23726	0.90277
3366.18346	0.90307
3364.12966	0.90318
3362.07585	0.90306
3360.02205	0.90313
3357.96825	0.90330
3355.91444	0.90344
3353.86064	0.90377
3351.80684	0.90414
3349.75303	0.90450
3347.69923	0.90483
3345.64543	0.90479
3343.59162	0.90446
3341.53782	0.90414
3339.48402	0.90401
3337.43021	0.90416
3335.37641	0.90446
3333.32261	0.90502
3331.26881	0.90570
3329.21500	0.90594
3327.16120	0.90597
3325.10740	0.90619
3323.05359	0.90633
3320.99979	0.90636
3318.94599	0.90636
3316.89218	0.90622
3314.83838	0.90603
3312.78458	0.90609
3310.73077	0.90653
3308.67697	0.90732
3306.62317	0.90803
3304.56936	0.90819
3302.51556	0.90830
3300.46176	0.90887
3298.40795	0.90928
3296.35415	0.90893
3294.30035	0.90832
3292.24654	0.90793
3290.19274	0.90805
3288.13894	0.90872
3286.08513	0.90922
3284.03133	0.90911
3281.97753	0.90919
3279.92372	0.90965
3277.86992	0.90983
3275.81612	0.90975
3273.76232	0.90953
3271.70851	0.90946
3269.65471	0.90990
3267.60091	0.91038
3265.54710	0.91053
3263.49330	0.91040
3261.43950	0.91026
3259.38569	0.91079
3257.33189	0.91181
3255.27809	0.91199
3253.22428	0.91126
3251.17048	0.91092
3249.11668	0.91129
3247.06287	0.91179
3245.00907	0.91255
3242.95527	0.91345
3240.90146	0.91348
3238.84766	0.91295
3236.79386	0.91322
3234.74005	0.91430
3232.68625	0.91504
3230.63245	0.91498
3228.57864	0.91469
3226.52484	0.91478
3224.47104	0.91477
3222.41724	0.91431
3220.36343	0.91430
3218.30963	0.91460
3216.25583	0.91473
3214.20202	0.91496
3212.14822	0.91529
3210.09442	0.91567
3208.04061	0.91601
3205.98681	0.91643
3203.93301	0.91706
3201.87920	0.91747
3199.82540	0.91757
3197.77160	0.91776
3195.71779	0.91826
3193.66399	0.91878
3191.61019	0.91905
3189.55638	0.91924
3187.50258	0.91944
3185.44878	0.91942
3183.39497	0.91947
3181.34117	0.91997
3179.28737	0.92040
3177.23356	0.92005
3175.17976	0.91980
3173.12596	0.92035
3171.07215	0.92096
3169.01835	0.92129
3166.96455	0.92135
3164.91075	0.92142
3162.85694	0.92189
3160.80314	0.92264
3158.74934	0.92316
3156.69553	0.92335
3154.64173	0.92352
3152.58793	0.92339
3150.53412	0.92300
3148.48032	0.92306
3146.42652	0.92344
3144.37271	0.92364
3142.31891	0.92402
3140.26511	0.92493
3138.21130	0.92577
3136.15750	0.92608
3134.10370	0.92609
3132.04989	0.92593
3129.99609	0.92570
3127.94229	0.92601
3125.88848	0.92688
3123.83468	0.92742
3121.78088	0.92766
3119.72707	0.92798
3117.67327	0.92797
3115.61947	0.92745
3113.56566	0.92685
3111.51186	0.92664
3109.45806	0.92685
3107.40426	0.92688
3105.35045	0.92649
3103.29665	0.92633
3101.24285	0.92661
3099.18904	0.92715
3097.13524	0.92780
3095.08144	0.92812
3093.02763	0.92784
3090.97383	0.92729
3088.92003	0.92618
3086.86622	0.92423
3084.81242	0.92250
3082.75862	0.92171
3080.70481	0.92163
3078.65101	0.92210
3076.59721	0.92305
3074.54340	0.92407
3072.48960	0.92477
3070.43580	0.92498
3068.38199	0.92446
3066.32819	0.92319
3064.27439	0.92142
3062.22058	0.91979
3060.16678	0.91878
3058.11298	0.91895
3056.05918	0.92030
3054.00537	0.92184
3051.95157	0.92333
3049.89777	0.92493
3047.84396	0.92622
3045.79016	0.92692
3043.73636	0.92721
3041.68255	0.92736
3039.62875	0.92721
3037.57495	0.92621
3035.52114	0.92404
3033.46734	0.92063
3031.41354	0.91631
3029.35973	0.91167
3027.30593	0.90749
3025.25213	0.90511
3023.19832	0.90584
3021.14452	0.90940
3019.09072	0.91418
3017.03691	0.91887
3014.98311	0.92273
3012.92931	0.92549
3010.87550	0.92723
3008.82170	0.92788
3006.76790	0.92801
3004.71409	0.92813
3002.66029	0.92805
3000.60649	0.92809
2998.55269	0.92872
2996.49888	0.92996
2994.44508	0.93118
2992.39128	0.93178
2990.33747	0.93232
2988.28367	0.93321
2986.22987	0.93405
2984.17606	0.93441
2982.12226	0.93451
2980.06846	0.93506
2978.01465	0.93552
2975.96085	0.93504
2973.90705	0.93431
2971.85324	0.93412
2969.79944	0.93414
2967.74564	0.93396
2965.69183	0.93334
2963.63803	0.93270
2961.58423	0.93239
2959.53042	0.93230
2957.47662	0.93229
2955.42282	0.93202
2953.36901	0.93149
2951.31521	0.93083
2949.26141	0.92985
2947.20761	0.92873
2945.15380	0.92770
2943.10000	0.92652
2941.04620	0.92481
2938.99239	0.92265
2936.93859	0.92020
2934.88479	0.91725
2932.83098	0.91392
2930.77718	0.91087
2928.72338	0.90823
2926.66957	0.90566
2924.61577	0.90346
2922.56197	0.90212
2920.50816	0.90143
2918.45436	0.90124
2916.40056	0.90173
2914.34675	0.90279
2912.29295	0.90436
2910.23915	0.90638
2908.18534	0.90865
2906.13154	0.91097
2904.07774	0.91305
2902.02393	0.91498
2899.97013	0.91684
2897.91633	0.91863
2895.86252	0.92063
2893.80872	0.92250
2891.75492	0.92364
2889.70112	0.92457
2887.64731	0.92584
2885.59351	0.92658
2883.53971	0.92647
2881.48590	0.92650
2879.43210	0.92705
2877.37830	0.92816
2875.32449	0.92949
2873.27069	0.93016
2871.21689	0.93015
2869.16308	0.93024
2867.10928	0.93048
2865.05548	0.93034
2863.00167	0.92984
2860.94787	0.92924
2858.89407	0.92855
2856.84026	0.92771
2854.78646	0.92666
2852.73266	0.92544
2850.67885	0.92420
2848.62505	0.92342
2846.57125	0.92366
2844.51744	0.92482
2842.46364	0.92630
2840.40984	0.92781
2838.35603	0.92963
2836.30223	0.93175
2834.24843	0.93334
2832.19463	0.93438
2830.14082	0.93530
2828.08702	0.93594
2826.03322	0.93615
2823.97941	0.93620
2821.92561	0.93664
2819.87181	0.93736
2817.81800	0.93778
2815.76420	0.93787
2813.71040	0.93791
2811.65659	0.93816
2809.60279	0.93840
2807.54899	0.93842
2805.49518	0.93852
2803.44138	0.93869
2801.38758	0.93886
2799.33377	0.93893
2797.27997	0.93879
2795.22617	0.93880
2793.17236	0.93911
2791.11856	0.93947
2789.06476	0.93962
2787.01095	0.93955
2784.95715	0.93957
2782.90335	0.93977
2780.84955	0.94010
2778.79574	0.94026
2776.74194	0.94013
2774.68814	0.94013
2772.63433	0.94017
2770.58053	0.94014
2768.52673	0.94032
2766.47292	0.94048
2764.41912	0.94053
2762.36532	0.94069
2760.31151	0.94100
2758.25771	0.94135
2756.20391	0.94151
2754.15010	0.94136
2752.09630	0.94119
2750.04250	0.94123
2747.98869	0.94134
2745.93489	0.94152
2743.88109	0.94180
2741.82728	0.94203
2739.77348	0.94205
2737.71968	0.94182
2735.66587	0.94155
2733.61207	0.94144
2731.55827	0.94136
2729.50446	0.94133
2727.45066	0.94151
2725.39686	0.94198
2723.34306	0.94260
2721.28925	0.94297
2719.23545	0.94294
2717.18165	0.94276
2715.12784	0.94280
2713.07404	0.94288
2711.02024	0.94264
2708.96643	0.94251
2706.91263	0.94283
2704.85883	0.94310
2702.80502	0.94299
2700.75122	0.94286
2698.69742	0.94282
2696.64361	0.94288
2694.58981	0.94303
2692.53601	0.94315
2690.48220	0.94340
2688.42840	0.94360
2686.37460	0.94351
2684.32079	0.94349
2682.26699	0.94349
2680.21319	0.94329
2678.15938	0.94329
2676.10558	0.94366
2674.05178	0.94392
2671.99797	0.94391
2669.94417	0.94379
2667.89037	0.94369
2665.83657	0.94363
2663.78276	0.94356
2661.72896	0.94356
2659.67516	0.94348
2657.62135	0.94302
2655.56755	0.94279
2653.51375	0.94308
2651.45994	0.94329
2649.40614	0.94331
2647.35234	0.94317
2645.29853	0.94306
2643.24473	0.94337
2641.19093	0.94363
2639.13712	0.94377
2637.08332	0.94421
2635.02952	0.94452
2632.97571	0.94448
2630.92191	0.94438
2628.86811	0.94429
2626.81430	0.94431
2624.76050	0.94442
2622.70670	0.94458
2620.65289	0.94487
2618.59909	0.94530
2616.54529	0.94562
2614.49149	0.94575
2612.43768	0.94573
2610.38388	0.94552
2608.33008	0.94520
2606.27627	0.94512
2604.22247	0.94554
2602.16867	0.94595
2600.11486	0.94596
2598.06106	0.94580
2596.00726	0.94579
2593.95345	0.94604
2591.89965	0.94626
2589.84585	0.94609
2587.79204	0.94588
2585.73824	0.94606
2583.68444	0.94630
2581.63063	0.94611
2579.57683	0.94569
2577.52303	0.94546
2575.46922	0.94555
2573.41542	0.94601
2571.36162	0.94680
2569.30781	0.94762
2567.25401	0.94793
2565.20021	0.94748
2563.14640	0.94705
2561.09260	0.94700
2559.03880	0.94714
2556.98500	0.94730
2554.93119	0.94712
2552.87739	0.94708
2550.82359	0.94750
2548.76978	0.94787
2546.71598	0.94807
2544.66218	0.94795
2542.60837	0.94750
2540.55457	0.94737
2538.50077	0.94759
2536.44696	0.94762
2534.39316	0.94784
2532.33936	0.94834
2530.28555	0.94854
2528.23175	0.94813
2526.17795	0.94698
2524.12414	0.94594
2522.07034	0.94618
2520.01654	0.94717
2517.96273	0.94724
2515.90893	0.94677
2513.85513	0.94687
2511.80132	0.94712
2509.74752	0.94731
2507.69372	0.94751
2505.63992	0.94757
2503.58611	0.94773
2501.53231	0.94790
2499.47851	0.94771
2497.42470	0.94756
2495.37090	0.94800
2493.31710	0.94859
2491.26329	0.94876
2489.20949	0.94862
2487.15569	0.94832
2485.10188	0.94791
2483.04808	0.94785
2480.99428	0.94817
2478.94047	0.94834
2476.88667	0.94814
2474.83287	0.94798
2472.77906	0.94829
2470.72526	0.94880
2468.67146	0.94909
2466.61765	0.94896
2464.56385	0.94886
2462.51005	0.94919
2460.45624	0.94926
2458.40244	0.94863
2456.34864	0.94802
2454.29483	0.94807
2452.24103	0.94830
2450.18723	0.94842
2448.13343	0.94860
2446.07962	0.94865
2444.02582	0.94841
2441.97202	0.94799
2439.91821	0.94773
2437.86441	0.94765
2435.81061	0.94757
2433.75680	0.94803
2431.70300	0.94890
2429.64920	0.94956
2427.59539	0.95020
2425.54159	0.95073
2423.48779	0.95085
2421.43398	0.95033
2419.38018	0.94932
2417.32638	0.94877
2415.27257	0.94907
2413.21877	0.94963
2411.16497	0.94966
2409.11116	0.94937
2407.05736	0.94941
2405.00356	0.94950
2402.94975	0.94918
2400.89595	0.94873
2398.84215	0.94857
2396.78834	0.94889
2394.73454	0.94950
2392.68074	0.94986
2390.62694	0.94983
2388.57313	0.94956
2386.51933	0.94929
2384.46553	0.94943
2382.41172	0.94975
2380.35792	0.94961
2378.30412	0.94909
2376.25031	0.94857
2374.19651	0.94840
2372.14271	0.94912
2370.08890	0.95030
2368.03510	0.95027
2365.98130	0.94888
2363.92749	0.94855
2361.87369	0.94953
2359.81989	0.94885
2357.76608	0.94669
2355.71228	0.94638
2353.65848	0.94784
2351.60467	0.94887
2349.55087	0.94933
2347.49707	0.94975
2345.44326	0.95020
2343.38946	0.94996
2341.33566	0.94856
2339.28186	0.94744
2337.22805	0.94751
2335.17425	0.94783
2333.12045	0.94828
2331.06664	0.94918
2329.01284	0.94952
2326.95904	0.94910
2324.90523	0.94850
2322.85143	0.94793
2320.79763	0.94760
2318.74382	0.94739
2316.69002	0.94754
2314.63622	0.94807
2312.58241	0.94833
2310.52861	0.94826
2308.47481	0.94806
2306.42100	0.94790
2304.36720	0.94838
2302.31340	0.94929
2300.25959	0.94976
2298.20579	0.94966
2296.15199	0.94935
2294.09818	0.94878
2292.04438	0.94822
2289.99058	0.94862
2287.93677	0.94933
2285.88297	0.94948
2283.82917	0.94973
2281.77537	0.94994
2279.72156	0.94984
2277.66776	0.94975
2275.61396	0.94988
2273.56015	0.95040
2271.50635	0.95078
2269.45255	0.95066
2267.39874	0.95061
2265.34494	0.95103
2263.29114	0.95165
2261.23733	0.95164
2259.18353	0.95110
2257.12973	0.95048
2255.07592	0.95015
2253.02212	0.95025
2250.96832	0.94999
2248.91451	0.95013
2246.86071	0.95104
2244.80691	0.95144
2242.75310	0.95159
2240.69930	0.95262
2238.64550	0.95350
2236.59169	0.95293
2234.53789	0.95214
2232.48409	0.95204
2230.43029	0.95218
2228.37648	0.95236
2226.32268	0.95260
2224.26888	0.95199
2222.21507	0.95112
2220.16127	0.95235
2218.10747	0.95423
2216.05366	0.95412
2213.99986	0.95277
2211.94606	0.95214
2209.89225	0.95270
2207.83845	0.95335
2205.78465	0.95281
2203.73084	0.95194
2201.67704	0.95213
2199.62324	0.95266
2197.56943	0.95261
2195.51563	0.95251
2193.46183	0.95305
2191.40802	0.95358
2189.35422	0.95303
2187.30042	0.95162
2185.24661	0.95143
2183.19281	0.95232
2181.13901	0.95269
2179.08520	0.95411
2177.03140	0.95563
2174.97760	0.95496
2172.92380	0.95439
2170.86999	0.95467
2168.81619	0.95404
2166.76239	0.95340
2164.70858	0.95491
2162.65478	0.95696
2160.60098	0.95721
2158.54717	0.95824
2156.49337	0.95980
2154.43957	0.95954
2152.38576	0.95911
2150.33196	0.95888
2148.27816	0.95773
2146.22435	0.95597
2144.17055	0.95465
2142.11675	0.95504
2140.06294	0.95659
2138.00914	0.95705
2135.95534	0.95669
2133.90153	0.95664
2131.84773	0.95650
2129.79393	0.95608
2127.74012	0.95512
2125.68632	0.95379
2123.63252	0.95329
2121.57871	0.95384
2119.52491	0.95428
2117.47111	0.95424
2115.41731	0.95387
2113.36350	0.95337
2111.30970	0.95307
2109.25590	0.95269
2107.20209	0.95234
2105.14829	0.95259
2103.09449	0.95302
2101.04068	0.95343
2098.98688	0.95404
2096.93308	0.95460
2094.87927	0.95551
2092.82547	0.95599
2090.77167	0.95503
2088.71786	0.95411
2086.66406	0.95422
2084.61026	0.95525
2082.55645	0.95623
2080.50265	0.95594
2078.44885	0.95562
2076.39504	0.95626
2074.34124	0.95669
2072.28744	0.95643
2070.23363	0.95586
2068.17983	0.95475
2066.12603	0.95285
2064.07223	0.95215
2062.01842	0.95444
2059.96462	0.95672
2057.91082	0.95686
2055.85701	0.95676
2053.80321	0.95640
2051.74941	0.95503
2049.69560	0.95472
2047.64180	0.95627
2045.58800	0.95813
2043.53419	0.95963
2041.48039	0.95982
2039.42659	0.95856
2037.37278	0.95734
2035.31898	0.95628
2033.26518	0.95566
2031.21137	0.95547
2029.15757	0.95485
2027.10377	0.95506
2025.04996	0.95685
2022.99616	0.95839
2020.94236	0.95920
2018.88855	0.96068
2016.83475	0.96248
2014.78095	0.96248
2012.72714	0.96030
2010.67334	0.95783
2008.61954	0.95727
2006.56574	0.95869
2004.51193	0.96022
2002.45813	0.96169
2000.40433	0.96206
1998.35052	0.96018
1996.29672	0.95780
1994.24292	0.95633
1992.18911	0.95609
1990.13531	0.95624
1988.08151	0.95489
1986.02770	0.95349
1983.97390	0.95410
1981.92010	0.95480
1979.86629	0.95574
1977.81249	0.95837
1975.75869	0.95954
1973.70488	0.95799
1971.65108	0.95660
1969.59728	0.95552
1967.54347	0.95436
1965.48967	0.95501
1963.43587	0.95712
1961.38206	0.95884
1959.32826	0.95938
1957.27446	0.95899
1955.22066	0.95769
1953.16685	0.95552
1951.11305	0.95353
1949.05925	0.95241
1947.00544	0.95205
1944.95164	0.95164
1942.89784	0.95094
1940.84403	0.95072
1938.79023	0.95189
1936.73643	0.95388
1934.68262	0.95480
1932.62882	0.95450
1930.57502	0.95459
1928.52121	0.95566
1926.46741	0.95641
1924.41361	0.95666
1922.35980	0.95672
1920.30600	0.95612
1918.25220	0.95564
1916.19839	0.95578
1914.14459	0.95586
1912.09079	0.95515
1910.03698	0.95398
1907.98318	0.95357
1905.92938	0.95418
1903.87557	0.95497
1901.82177	0.95537
1899.76797	0.95548
1897.71417	0.95513
1895.66036	0.95447
1893.60656	0.95434
1891.55276	0.95476
1889.49895	0.95465
1887.44515	0.95416
1885.39135	0.95398
1883.33754	0.95355
1881.28374	0.95314
1879.22994	0.95305
1877.17613	0.95277
1875.12233	0.95252
1873.06853	0.95288
1871.01472	0.95370
1868.96092	0.95419
1866.90712	0.95354
1864.85331	0.95234
1862.79951	0.95187
1860.74571	0.95272
1858.69190	0.95417
1856.63810	0.95528
1854.58430	0.95599
1852.53049	0.95634
1850.47669	0.95622
1848.42289	0.95577
1846.36908	0.95522
1844.31528	0.95480
1842.26148	0.95468
1840.20768	0.95481
1838.15387	0.95523
1836.10007	0.95584
1834.04627	0.95638
1831.99246	0.95657
1829.93866	0.95609
1827.88486	0.95523
1825.83105	0.95457
1823.77725	0.95433
1821.72345	0.95429
1819.66964	0.95401
1817.61584	0.95382
1815.56204	0.95402
1813.50823	0.95424
1811.45443	0.95402
1809.40063	0.95339
1807.34682	0.95287
1805.29302	0.95248
1803.23922	0.95185
1801.18541	0.95112
1799.13161	0.95103
1797.07781	0.95167
1795.02400	0.95254
1792.97020	0.95333
1790.91640	0.95369
1788.86260	0.95369
1786.80879	0.95379
1784.75499	0.95387
1782.70119	0.95367
1780.64738	0.95349
1778.59358	0.95363
1776.53978	0.95368
1774.48597	0.95358
1772.43217	0.95372
1770.37837	0.95380
1768.32456	0.95380
1766.27076	0.95390
1764.21696	0.95386
1762.16315	0.95377
1760.10935	0.95369
1758.05555	0.95380
1756.00174	0.95388
1753.94794	0.95356
1751.89414	0.95319
1749.84033	0.95285
1747.78653	0.95248
1745.73273	0.95229
1743.67892	0.95224
1741.62512	0.95214
1739.57132	0.95169
1737.51751	0.95136
1735.46371	0.95162
1733.40991	0.95147
1731.35611	0.95049
1729.30230	0.94987
1727.24850	0.94964
1725.19470	0.94938
1723.14089	0.94930
1721.08709	0.94987
1719.03329	0.95060
1716.97948	0.95045
1714.92568	0.94975
1712.87188	0.94941
1710.81807	0.94940
1708.76427	0.94942
1706.71047	0.94912
1704.65666	0.94837
1702.60286	0.94735
1700.54906	0.94630
1698.49525	0.94591
1696.44145	0.94588
1694.38765	0.94516
1692.33384	0.94427
1690.28004	0.94343
1688.22624	0.94259
1686.17243	0.94192
1684.11863	0.94054
1682.06483	0.93888
1680.01103	0.93791
1677.95722	0.93695
1675.90342	0.93584
1673.84962	0.93498
1671.79581	0.93442
1669.74201	0.93330
1667.68821	0.93189
1665.63440	0.93112
1663.58060	0.93042
1661.52680	0.92934
1659.47299	0.92855
1657.41919	0.92816
1655.36539	0.92764
1653.31158	0.92713
1651.25778	0.92711
1649.20398	0.92706
1647.15017	0.92702
1645.09637	0.92723
1643.04257	0.92743
1640.98876	0.92730
1638.93496	0.92702
1636.88116	0.92706
1634.82735	0.92758
1632.77355	0.92788
1630.71975	0.92787
1628.66594	0.92793
1626.61214	0.92808
1624.55834	0.92818
1622.50454	0.92847
1620.45073	0.92900
1618.39693	0.92973
1616.34313	0.93052
1614.28932	0.93095
1612.23552	0.93090
1610.18172	0.92989
1608.12791	0.92704
1606.07411	0.92220
1604.02031	0.91633
1601.96650	0.91186
1599.91270	0.91177
1597.85890	0.91583
1595.80509	0.92109
1593.75129	0.92537
1591.69749	0.92838
1589.64368	0.93023
1587.58988	0.93069
1585.53608	0.93007
1583.48227	0.92953
1581.42847	0.93053
1579.37467	0.93291
1577.32086	0.93523
1575.26706	0.93649
1573.21326	0.93693
1571.15945	0.93736
1569.10565	0.93776
1567.05185	0.93796
1564.99805	0.93814
1562.94424	0.93825
1560.89044	0.93846
1558.83664	0.93920
1556.78283	0.93922
1554.72903	0.93851
1552.67523	0.93808
1550.62142	0.93806
1548.56762	0.93790
1546.51382	0.93734
1544.46001	0.93666
1542.40621	0.93647
1540.35241	0.93673
1538.29860	0.93652
1536.24480	0.93619
1534.19100	0.93614
1532.13719	0.93645
1530.08339	0.93664
1528.02959	0.93655
1525.97578	0.93624
1523.92198	0.93570
1521.86818	0.93497
1519.81437	0.93448
1517.76057	0.93427
1515.70677	0.93417
1513.65297	0.93410
1511.59916	0.93386
1509.54536	0.93372
1507.49156	0.93336
1505.43775	0.93173
1503.38395	0.93003
1501.33015	0.92777
1499.27634	0.92195
1497.22254	0.90585
1495.16874	0.88101
1493.11493	0.86499
1491.06113	0.86718
1489.00733	0.88490
1486.95352	0.90054
1484.89972	0.90815
1482.84592	0.91235
1480.79211	0.91508
1478.73831	0.91670
1476.68451	0.91773
1474.63070	0.91850
1472.57690	0.91899
1470.52310	0.91930
1468.46929	0.91947
1466.41549	0.91961
1464.36169	0.91983
1462.30788	0.91966
1460.25408	0.91816
1458.20028	0.91055
1456.14648	0.88902
1454.09267	0.86797
1452.03887	0.85863
1449.98507	0.86137
1447.93126	0.87167
1445.87746	0.88194
1443.82366	0.88981
1441.76985	0.89630
1439.71605	0.90133
1437.66225	0.90574
1435.60844	0.91038
1433.55464	0.91378
1431.50084	0.91606
1429.44703	0.91790
1427.39323	0.91954
1425.33943	0.92124
1423.28562	0.92291
1421.23182	0.92441
1419.17802	0.92565
1417.12421	0.92631
1415.07041	0.92698
1413.01661	0.92802
1410.96280	0.92951
1408.90900	0.93147
1406.85520	0.93310
1404.80139	0.93399
1402.74759	0.93461
1400.69379	0.93537
1398.63999	0.93638
1396.58618	0.93733
1394.53238	0.93759
1392.47858	0.93738
1390.42477	0.93743
1388.37097	0.93754
1386.31717	0.93684
1384.26336	0.93582
1382.20956	0.93535
1380.15576	0.93491
1378.10195	0.93409
1376.04815	0.93332
1373.99435	0.93296
1371.94054	0.93301
1369.88674	0.93342
1367.83294	0.93390
1365.77913	0.93432
1363.72533	0.93502
1361.67153	0.93597
1359.61772	0.93656
1357.56392	0.93689
1355.51012	0.93742
1353.45631	0.93795
1351.40251	0.93821
1349.34871	0.93837
1347.29491	0.93871
1345.24110	0.93918
1343.18730	0.93957
1341.13350	0.93983
1339.07969	0.94009
1337.02589	0.94015
1334.97209	0.94000
1332.91828	0.93970
1330.86448	0.93914
1328.81068	0.93869
1326.75687	0.93876
1324.70307	0.93908
1322.64927	0.93926
1320.59546	0.93940
1318.54166	0.93951
1316.48786	0.93951
1314.43405	0.93954
1312.38025	0.93976
1310.32645	0.94009
1308.27264	0.94034
1306.21884	0.94052
1304.16504	0.94063
1302.11123	0.94065
1300.05743	0.94091
1298.00363	0.94135
1295.94982	0.94137
1293.89602	0.94110
1291.84222	0.94112
1289.78842	0.94137
1287.73461	0.94148
1285.68081	0.94120
1283.62701	0.94074
1281.57320	0.94022
1279.51940	0.93956
1277.46560	0.93890
1275.41179	0.93853
1273.35799	0.93847
1271.30419	0.93844
1269.25038	0.93836
1267.19658	0.93850
1265.14278	0.93892
1263.08897	0.93932
1261.03517	0.93940
1258.98137	0.93914
1256.92756	0.93869
1254.87376	0.93804
1252.81996	0.93740
1250.76615	0.93703
1248.71235	0.93664
1246.65855	0.93599
1244.60474	0.93539
1242.55094	0.93502
1240.49714	0.93488
1238.44334	0.93509
1236.38953	0.93523
1234.33573	0.93464
1232.28193	0.93355
1230.22812	0.93263
1228.17432	0.93191
1226.12052	0.93104
1224.06671	0.93002
1222.01291	0.92874
1219.95911	0.92709
1217.90530	0.92549
1215.85150	0.92391
1213.79770	0.92192
1211.74389	0.91950
1209.69009	0.91682
1207.63629	0.91403
1205.58248	0.91129
1203.52868	0.90841
1201.47488	0.90518
1199.42107	0.90178
1197.36727	0.89839
1195.31347	0.89500
1193.25966	0.89144
1191.20586	0.88775
1189.15206	0.88409
1187.09825	0.88031
1185.04445	0.87597
1182.99065	0.87105
1180.93685	0.86660
1178.88304	0.86336
1176.82924	0.86064
1174.77544	0.85773
1172.72163	0.85459
1170.66783	0.85137
1168.61403	0.84803
1166.56022	0.84455
1164.50642	0.84148
1162.45262	0.83920
1160.39881	0.83723
1158.34501	0.83486
1156.29121	0.83183
1154.23740	0.82885
1152.18360	0.82693
1150.12980	0.82592
1148.07599	0.82487
1146.02219	0.82338
1143.96839	0.82138
1141.91458	0.81910
1139.86078	0.81707
1137.80698	0.81501
1135.75317	0.81256
1133.69937	0.80998
1131.64557	0.80691
1129.59176	0.80299
1127.53796	0.79869
1125.48416	0.79422
1123.43036	0.78897
1121.37655	0.78276
1119.32275	0.77625
1117.26895	0.76941
1115.21514	0.76192
1113.16134	0.75473
1111.10754	0.74859
1109.05373	0.74329
1106.99993	0.73831
1104.94613	0.73349
1102.89232	0.72897
1100.83852	0.72467
1098.78472	0.72067
1096.73091	0.71699
1094.67711	0.71360
1092.62331	0.71068
1090.56950	0.70794
1088.51570	0.70503
1086.46190	0.70234
1084.40809	0.70007
1082.35429	0.69794
1080.30049	0.69543
1078.24668	0.69254
1076.19288	0.68950
1074.13908	0.68614
1072.08528	0.68207
1070.03147	0.67737
1067.97767	0.67257
1065.92387	0.66808
1063.87006	0.66395
1061.81626	0.65997
1059.76246	0.65536
1057.70865	0.64973
1055.65485	0.64349
1053.60105	0.63659
1051.54724	0.62875
1049.49344	0.62028
1047.43964	0.61116
1045.38583	0.60109
1043.33203	0.59020
1041.27823	0.57871
1039.22442	0.56691
1037.17062	0.55504
1035.11682	0.54317
1033.06301	0.53153
1031.00921	0.52081
1028.95541	0.51163
1026.90160	0.50448
1024.84780	0.49993
1022.79400	0.49726
1020.74019	0.49482
1018.68639	0.49206
1016.63259	0.48914
1014.57879	0.48607
1012.52498	0.48237
1010.47118	0.47790
1008.41738	0.47346
1006.36357	0.47009
1004.30977	0.46806
1002.25597	0.46703
1000.20216	0.46737
998.14836	0.46948
996.09456	0.47292
994.04075	0.47686
991.98695	0.48087
989.93315	0.48537
987.87934	0.49070
985.82554	0.49674
983.77174	0.50374
981.71793	0.51189
979.66413	0.52095
977.61033	0.53103
975.55652	0.54261
973.50272	0.55552
971.44892	0.56868
969.39511	0.58123
967.34131	0.59320
965.28751	0.60472
963.23371	0.61599
961.17990	0.62708
959.12610	0.63772
957.07230	0.64758
955.01849	0.65640
952.96469	0.66422
950.91089	0.67115
948.85708	0.67713
946.80328	0.68233
944.74948	0.68715
942.69567	0.69166
940.64187	0.69617
938.58807	0.70108
936.53426	0.70620
934.48046	0.71121
932.42666	0.71607
930.37285	0.72079
928.31905	0.72490
926.26525	0.72794
924.21144	0.72983
922.15764	0.73072
920.10384	0.73084
918.05003	0.73012
915.99623	0.72842
913.94243	0.72625
911.88862	0.72458
909.83482	0.72459
907.78102	0.72728
905.72722	0.73317
903.67341	0.74223
901.61961	0.75363
899.56581	0.76565
897.51200	0.77678
895.45820	0.78623
893.40440	0.79405
891.35059	0.80059
889.29679	0.80570
887.24299	0.81013
885.18918	0.81437
883.13538	0.81700
881.08158	0.81778
879.02777	0.81856
876.97397	0.82054
874.92017	0.82395
872.86636	0.82878
870.81256	0.83403
868.75876	0.83841
866.70495	0.84152
864.65115	0.84358
862.59735	0.84512
860.54354	0.84719
858.48974	0.85053
856.43594	0.85449
854.38213	0.85835
852.32833	0.86174
850.27453	0.86354
848.22073	0.86320
846.16692	0.86201
844.11312	0.86076
842.05932	0.85934
840.00551	0.85822
837.95171	0.85737
835.89791	0.85613
833.84410	0.85462
831.79030	0.85390
829.73650	0.85419
827.68269	0.85437
825.62889	0.85452
823.57509	0.85537
821.52128	0.85694
819.46748	0.85902
817.41368	0.86008
815.35987	0.85971
813.30607	0.85920
811.25227	0.85774
809.19846	0.85396
807.14466	0.84774
805.09086	0.83958
803.03705	0.83081
800.98325	0.82387
798.92945	0.82073
796.87565	0.82132
794.82184	0.82364
792.76804	0.82533
790.71424	0.82589
788.66043	0.82566
786.60663	0.82449
784.55283	0.82220
782.49902	0.81835
780.44522	0.81347
778.39142	0.80902
776.33761	0.80572
774.28381	0.80288
772.23001	0.79875
770.17620	0.79209
768.12240	0.78270
766.06860	0.77105
764.01479	0.75871
761.96099	0.74686
759.90719	0.73597
757.85338	0.72726
755.79958	0.72203
753.74578	0.72013
751.69197	0.72013
749.63817	0.72147
747.58437	0.72476
745.53056	0.73140
743.47676	0.74285
741.42296	0.75764
739.36916	0.77235
737.31535	0.78531
735.26155	0.79686
733.20775	0.80700
731.15394	0.81505
729.10014	0.82061
727.04634	0.82399
724.99253	0.82652
722.93873	0.82930
720.88493	0.83228
718.83112	0.83496
716.77732	0.83667
714.72352	0.83635
712.66971	0.83280
710.61591	0.82437
708.56211	0.80680
706.50830	0.77449
704.45450	0.72558
702.40070	0.66324
700.34689	0.59364
698.29309	0.52810
696.23929	0.49003
694.18548	0.50342
692.13168	0.56074
690.07788	0.62609
688.02408	0.67362
685.97027	0.70285
683.91647	0.72188
681.86267	0.73425
679.80886	0.74168
677.75506	0.74672
675.70126	0.75113
673.64745	0.75485
671.59365	0.75721
669.53985	0.75972
667.48604	0.76370
665.43224	0.76590
663.37844	0.76622
661.32463	0.76625
659.27083	0.76659
657.21703	0.76681
655.16322	0.76515
653.10942	0.76165
651.05562	0.75880
649.00181	0.75820
646.94801	0.75925
644.89421	0.76122
642.84040	0.76448
640.78660	0.76832
638.73280	0.77105
636.67899	0.77196
634.62519	0.77192
632.57139	0.77258
630.51759	0.77404
628.46378	0.77450
626.40998	0.77345
624.35618	0.77192
622.30237	0.76983
620.24857	0.76698
618.19477	0.76420
616.14096	0.76183
614.08716	0.75926
612.03336	0.75624
609.97955	0.75351
607.92575	0.75109
605.87195	0.74845
603.81814	0.74484
601.76434	0.73961
599.71054	0.73471
597.65673	0.73149
595.60293	0.72842
593.54913	0.72458
591.49532	0.72118
589.44152	0.71992
587.38772	0.71986
585.33391	0.71913
583.28011	0.71694
581.22631	0.71347
579.17250	0.70999
577.11870	0.70628
575.06490	0.70195
573.01110	0.69814
570.95729	0.69421
568.90349	0.68902
566.84969	0.68210
564.79588	0.67372
562.74208	0.66556
560.68828	0.65734
558.63447	0.64852
556.58067	0.64040
554.52687	0.63259
552.47306	0.62370
550.41926	0.61434
548.36546	0.60514
546.31165	0.59435
544.25785	0.58001
542.20405	0.56352
540.15024	0.54794
538.09644	0.53538
536.04264	0.52705
533.98883	0.52233
531.93503	0.52001
529.88123	0.52009
527.82742	0.52258
525.77362	0.52647
523.71982	0.53076
521.66602	0.53638
519.61221	0.54343
517.55841	0.55062
515.50461	0.55752
513.45080	0.56328
511.39700	0.56818
509.34320	0.57470
507.28939	0.58279
505.23559	0.58857
503.18179	0.59172
501.12798	0.59481
499.07418	0.59609
497.02038	0.59401
494.96657	0.59040
492.91277	0.58692
490.85897	0.58269
488.80516	0.57491
486.75136	0.56238
484.69756	0.54595
482.64375	0.52780
480.58995	0.50901
478.53615	0.48838
476.48234	0.46796
474.42854	0.45111
472.37474	0.43792
470.32093	0.42870
468.26713	0.42277
466.21333	0.41851
464.15953	0.41676
462.10572	0.41883
460.05192	0.42392
457.99812	0.43131
455.94431	0.44121
453.89051	0.45159
451.83671	0.46011
449.78290	0.46686
447.72910	0.47465
445.67530	0.48179
443.62149	0.48352
441.56769	0.48228
439.51389	0.48200
437.46008	0.48185
435.40628	0.47979
433.35248	0.47395
431.29867	0.46542
429.24487	0.46092
427.19107	0.46329
425.13726	0.46795
423.08346	0.47142
421.02966	0.47081
418.97585	0.47008
416.92205	0.47699
414.86825	0.48627
412.81445	0.49458
410.76064	0.49893
408.70684	0.50035
406.65304	0.50705
404.59923	0.51865
402.54543	0.52403
400.49163	0.51887
398.43782	0.51164
