3996.71440	0.98557
3994.66059	0.98584
3992.60678	0.98570
3990.55297	0.98525
3988.49916	0.98505
3986.44535	0.98522
3984.39154	0.98543
3982.33773	0.98556
3980.28391	0.98570
3978.23010	0.98571
3976.17629	0.98568
3974.12248	0.98597
3972.06867	0.98616
3970.01486	0.98588
3967.96105	0.98563
3965.90724	0.98562
3963.85343	0.98557
3961.79962	0.98549
3959.74581	0.98548
3957.69200	0.98541
3955.63819	0.98531
3953.58438	0.98524
3951.53057	0.98513
3949.47676	0.98516
3947.42295	0.98550
3945.36914	0.98584
3943.31533	0.98589
3941.26152	0.98592
3939.20771	0.98607
3937.15390	0.98606
3935.10009	0.98585
3933.04628	0.98560
3930.99247	0.98564
3928.93866	0.98581
3926.88485	0.98562
3924.83104	0.98553
3922.77723	0.98589
3920.72342	0.98603
3918.66961	0.98579
3916.61580	0.98563
3914.56199	0.98554
3912.50818	0.98537
3910.45437	0.98519
3908.40056	0.98505
3906.34675	0.98496
3904.29294	0.98516
3902.23913	0.98576
3900.18532	0.98623
3898.13151	0.98624
3896.07770	0.98613
3894.02389	0.98618
3891.97008	0.98616
3889.91627	0.98574
3887.86246	0.98525
3885.80865	0.98527
3883.75484	0.98562
3881.70103	0.98563
3879.64722	0.98539
3877.59341	0.98545
3875.53960	0.98575
3873.48579	0.98588
3871.43198	0.98568
3869.37817	0.98542
3867.32436	0.98519
3865.27055	0.98512
3863.21674	0.98534
3861.16293	0.98563
3859.10912	0.98576
3857.05531	0.98559
3855.00150	0.98517
3852.94769	0.98494
3850.89388	0.98527
3848.84007	0.98561
3846.78626	0.98566
3844.73245	0.98572
3842.67864	0.98617
3840.62483	0.98630
3838.57102	0.98554
3836.51721	0.98516
3834.46340	0.98547
3832.40959	0.98550
3830.35578	0.98522
3828.30197	0.98530
3826.24816	0.98589
3824.19435	0.98613
3822.14054	0.98577
3820.08673	0.98556
3818.03292	0.98559
3815.97911	0.98552
3813.92530	0.98540
3811.87149	0.98531
3809.81768	0.98522
3807.76387	0.98513
3805.71006	0.98503
3803.65625	0.98480
3801.60244	0.98448
3799.54863	0.98446
3797.49482	0.98472
3795.44101	0.98482
3793.38720	0.98465
3791.33339	0.98458
3789.27958	0.98471
3787.22577	0.98489
3785.17196	0.98506
3783.11815	0.98490
3781.06434	0.98465
3779.01053	0.98454
3776.95672	0.98422
3774.90291	0.98392
3772.84910	0.98385
3770.79529	0.98389
3768.74148	0.98397
3766.68767	0.98386
3764.63386	0.98365
3762.58005	0.98372
3760.52624	0.98412
3758.47243	0.98437
3756.41862	0.98416
3754.36481	0.98388
3752.31100	0.98364
3750.25719	0.98358
3748.20338	0.98352
3746.14957	0.98322
3744.09576	0.98324
3742.04195	0.98355
3739.98814	0.98352
3737.93433	0.98325
3735.88052	0.98287
3733.82671	0.98305
3731.77290	0.98357
3729.71909	0.98344
3727.66528	0.98290
3725.61147	0.98246
3723.55766	0.98210
3721.50385	0.98189
3719.45004	0.98200
3717.39623	0.98199
3715.34242	0.98164
3713.28861	0.98099
3711.23480	0.98021
3709.18099	0.97998
3707.12718	0.97982
3705.07337	0.97901
3703.01956	0.97814
3700.96575	0.97805
3698.91194	0.97834
3696.85813	0.97803
3694.80432	0.97720
3692.75051	0.97656
3690.69670	0.97601
3688.64289	0.97539
3686.58907	0.97530
3684.53526	0.97510
3682.48145	0.97430
3680.42764	0.97345
3678.37383	0.97291
3676.32002	0.97218
3674.26621	0.97094
3672.21240	0.96993
3670.15859	0.96916
3668.10478	0.96842
3666.05097	0.96733
3663.99716	0.96567
3661.94335	0.96402
3659.88954	0.96265
3657.83573	0.96121
3655.78192	0.96002
3653.72811	0.95929
3651.67430	0.95824
3649.62049	0.95649
3647.56668	0.95418
3645.51287	0.95210
3643.45906	0.95056
3641.40525	0.94926
3639.35144	0.94808
3637.29763	0.94696
3635.24382	0.94555
3633.19001	0.94365
3631.13620	0.94139
3629.08239	0.93885
3627.02858	0.93716
3624.97477	0.93651
3622.92096	0.93581
3620.86715	0.93467
3618.81334	0.93311
3616.75953	0.93156
3614.70572	0.93023
3612.65191	0.92883
3610.59810	0.92747
3608.54429	0.92622
3606.49048	0.92490
3604.43667	0.92355
3602.38286	0.92202
3600.32905	0.92042
3598.27524	0.91919
3596.22143	0.91799
3594.16762	0.91661
3592.11381	0.91545
3590.06000	0.91446
3588.00619	0.91316
3585.95238	0.91161
3583.89857	0.91005
3581.84476	0.90850
3579.79095	0.90706
3577.73714	0.90597
3575.68333	0.90519
3573.62952	0.90433
3571.57571	0.90309
3569.52190	0.90172
3567.46809	0.90057
3565.41428	0.89944
3563.36047	0.89817
3561.30666	0.89698
3559.25285	0.89578
3557.19904	0.89460
3555.14523	0.89358
3553.09142	0.89255
3551.03761	0.89141
3548.98380	0.89024
3546.92999	0.88904
3544.87618	0.88784
3542.82237	0.88671
3540.76856	0.88556
3538.71475	0.88459
3536.66094	0.88403
3534.60713	0.88330
3532.55332	0.88220
3530.49951	0.88126
3528.44570	0.88032
3526.39189	0.87891
3524.33808	0.87753
3522.28427	0.87655
3520.23046	0.87569
3518.17665	0.87483
3516.12284	0.87399
3514.06903	0.87312
3512.01522	0.87205
3509.96141	0.87088
3507.90760	0.86989
3505.85379	0.86903
3503.79998	0.86815
3501.74617	0.86743
3499.69236	0.86682
3497.63855	0.86599
3495.58474	0.86515
3493.53093	0.86438
3491.47712	0.86360
3489.42331	0.86295
3487.36950	0.86231
3485.31569	0.86153
3483.26188	0.86072
3481.20807	0.85986
3479.15426	0.85919
3477.10045	0.85862
3475.04664	0.85761
3472.99283	0.85647
3470.93902	0.85592
3468.88521	0.85565
3466.83140	0.85504
3464.77759	0.85424
3462.72378	0.85351
3460.66997	0.85273
3458.61616	0.85211
3456.56235	0.85178
3454.50854	0.85127
3452.45473	0.85060
3450.40092	0.85022
3448.34711	0.85012
3446.29330	0.84982
3444.23949	0.84925
3442.18568	0.84880
3440.13187	0.84837
3438.07806	0.84767
3436.02425	0.84707
3433.97044	0.84681
3431.91663	0.84663
3429.86282	0.84641
3427.80901	0.84616
3425.75520	0.84577
3423.70139	0.84536
3421.64758	0.84513
3419.59377	0.84489
3417.53996	0.84446
3415.48615	0.84409
3413.43234	0.84395
3411.37853	0.84381
3409.32472	0.84339
3407.27091	0.84273
3405.21710	0.84216
3403.16329	0.84206
3401.10948	0.84248
3399.05567	0.84282
3397.00186	0.84271
3394.94805	0.84246
3392.89424	0.84239
3390.84042	0.84244
3388.78661	0.84240
3386.73280	0.84228
3384.67899	0.84221
3382.62518	0.84203
3380.57137	0.84170
3378.51756	0.84163
3376.46375	0.84189
3374.40994	0.84221
3372.35613	0.84254
3370.30232	0.84269
3368.24851	0.84260
3366.19470	0.84253
3364.14089	0.84266
3362.08708	0.84302
3360.03327	0.84333
3357.97946	0.84337
3355.92565	0.84338
3353.87184	0.84369
3351.81803	0.84400
3349.76422	0.84399
3347.71041	0.84405
3345.65660	0.84452
3343.60279	0.84505
3341.54898	0.84526
3339.49517	0.84519
3337.44136	0.84526
3335.38755	0.84566
3333.33374	0.84607
3331.27993	0.84635
3329.22612	0.84653
3327.17231	0.84656
3325.11850	0.84665
3323.06469	0.84685
3321.01088	0.84702
3318.95707	0.84736
3316.90326	0.84779
3314.84945	0.84796
3312.79564	0.84808
3310.74183	0.84837
3308.68802	0.84852
3306.63421	0.84839
3304.58040	0.84833
3302.52659	0.84850
3300.47278	0.84875
3298.41897	0.84894
3296.36516	0.84903
3294.31135	0.84920
3292.25754	0.84968
3290.20373	0.85031
3288.14992	0.85072
3286.09611	0.85074
3284.04230	0.85049
3281.98849	0.85035
3279.93468	0.85055
3277.88087	0.85117
3275.82706	0.85197
3273.77325	0.85248
3271.71944	0.85256
3269.66563	0.85256
3267.61182	0.85276
3265.55801	0.85306
3263.50420	0.85335
3261.45039	0.85378
3259.39658	0.85431
3257.34277	0.85484
3255.28896	0.85536
3253.23515	0.85573
3251.18134	0.85604
3249.12753	0.85648
3247.07372	0.85705
3245.01991	0.85735
3242.96610	0.85714
3240.91229	0.85700
3238.85848	0.85749
3236.80467	0.85831
3234.75086	0.85906
3232.69705	0.85956
3230.64324	0.85964
3228.58943	0.85966
3226.53562	0.85996
3224.48181	0.86041
3222.42800	0.86087
3220.37419	0.86120
3218.32038	0.86134
3216.26657	0.86147
3214.21276	0.86185
3212.15895	0.86237
3210.10514	0.86283
3208.05133	0.86325
3205.99752	0.86362
3203.94371	0.86404
3201.88990	0.86451
3199.83609	0.86494
3197.78228	0.86530
3195.72847	0.86568
3193.67466	0.86604
3191.62085	0.86634
3189.56704	0.86683
3187.51323	0.86759
3185.45942	0.86833
3183.40561	0.86876
3181.35180	0.86913
3179.29799	0.86976
3177.24418	0.87048
3175.19037	0.87106
3173.13656	0.87151
3171.08275	0.87192
3169.02894	0.87211
3166.97513	0.87211
3164.92132	0.87245
3162.86751	0.87313
3160.81370	0.87363
3158.75989	0.87395
3156.70608	0.87432
3154.65227	0.87474
3152.59846	0.87522
3150.54465	0.87568
3148.49084	0.87605
3146.43703	0.87642
3144.38322	0.87670
3142.32941	0.87688
3140.27560	0.87735
3138.22179	0.87815
3136.16798	0.87890
3134.11417	0.87948
3132.06036	0.87980
3130.00655	0.87987
3127.95274	0.88003
3125.89893	0.88042
3123.84512	0.88105
3121.79131	0.88146
3119.73750	0.88147
3117.68369	0.88175
3115.62988	0.88255
3113.57607	0.88326
3111.52226	0.88368
3109.46845	0.88404
3107.41464	0.88425
3105.36083	0.88445
3103.30702	0.88486
3101.25321	0.88522
3099.19940	0.88532
3097.14559	0.88532
3095.09177	0.88546
3093.03796	0.88586
3090.98415	0.88644
3088.93034	0.88701
3086.87653	0.88747
3084.82272	0.88770
3082.76891	0.88772
3080.71510	0.88782
3078.66129	0.88804
3076.60748	0.88809
3074.55367	0.88805
3072.49986	0.88835
3070.44605	0.88894
3068.39224	0.88945
3066.33843	0.88987
3064.28462	0.89036
3062.23081	0.89094
3060.17700	0.89130
3058.12319	0.89121
3056.06938	0.89106
3054.01557	0.89117
3051.96176	0.89144
3049.90795	0.89178
3047.85414	0.89220
3045.80033	0.89259
3043.74652	0.89293
3041.69271	0.89339
3039.63890	0.89373
3037.58509	0.89389
3035.53128	0.89421
3033.47747	0.89458
3031.42366	0.89470
3029.36985	0.89470
3027.31604	0.89487
3025.26223	0.89518
3023.20842	0.89533
3021.15461	0.89528
3019.10080	0.89526
3017.04699	0.89530
3014.99318	0.89545
3012.93937	0.89578
3010.88556	0.89597
3008.83175	0.89596
3006.77794	0.89581
3004.72413	0.89532
3002.67032	0.89478
3000.61651	0.89442
2998.56270	0.89390
2996.50889	0.89319
2994.45508	0.89246
2992.40127	0.89152
2990.34746	0.89013
2988.29365	0.88826
2986.23984	0.88594
2984.18603	0.88300
2982.13222	0.87925
2980.07841	0.87446
2978.02460	0.86816
2975.97079	0.85971
2973.91698	0.84845
2971.86317	0.83386
2969.80936	0.81563
2967.75555	0.79393
2965.70174	0.76964
2963.64793	0.74534
2961.59412	0.72671
2959.54031	0.71818
2957.48650	0.71605
2955.43269	0.71113
2953.37888	0.69865
2951.32507	0.68433
2949.27126	0.67996
2947.21745	0.69203
2945.16364	0.71648
2943.10983	0.74376
2941.05602	0.76560
2939.00221	0.77791
2936.94840	0.78055
2934.89459	0.77493
2932.84078	0.76223
2930.78697	0.74357
2928.73316	0.72103
2926.67935	0.69775
2924.62554	0.67602
2922.57173	0.65598
2920.51792	0.63796
2918.46411	0.62639
2916.41030	0.62784
2914.35649	0.64298
2912.30268	0.66430
2910.24887	0.68325
2908.19506	0.69727
2906.14125	0.70901
2904.08744	0.72123
2902.03363	0.73449
2899.97982	0.74809
2897.92601	0.76079
2895.87220	0.77132
2893.81839	0.77893
2891.76458	0.78339
2889.71077	0.78501
2887.65696	0.78468
2885.60315	0.78326
2883.54934	0.78070
2881.49553	0.77680
2879.44172	0.77290
2877.38791	0.77123
2875.33410	0.77212
2873.28029	0.77306
2871.22648	0.77150
2869.17267	0.76751
2867.11886	0.76470
2865.06505	0.76891
2863.01124	0.78273
2860.95743	0.80188
2858.90362	0.81922
2856.84981	0.83060
2854.79600	0.83613
2852.74219	0.83752
2850.68838	0.83570
2848.63457	0.83052
2846.58076	0.82115
2844.52695	0.80709
2842.47314	0.79020
2840.41933	0.77529
2838.36552	0.76858
2836.31171	0.77410
2834.25790	0.79033
2832.20409	0.81088
2830.15028	0.82950
2828.09647	0.84357
2826.04266	0.85350
2823.98885	0.86050
2821.93504	0.86559
2819.88123	0.86940
2817.82742	0.87242
2815.77361	0.87497
2813.71980	0.87700
2811.66599	0.87857
2809.61218	0.88005
2807.55837	0.88164
2805.50456	0.88339
2803.45075	0.88523
2801.39693	0.88707
2799.34312	0.88867
2797.28931	0.88980
2795.23550	0.89058
2793.18169	0.89144
2791.12788	0.89255
2789.07407	0.89376
2787.02026	0.89491
2784.96645	0.89607
2782.91264	0.89716
2780.85883	0.89794
2778.80502	0.89863
2776.75121	0.89947
2774.69740	0.90018
2772.64359	0.90071
2770.58978	0.90115
2768.53597	0.90156
2766.48216	0.90200
2764.42835	0.90242
2762.37454	0.90274
2760.32073	0.90311
2758.26692	0.90366
2756.21311	0.90430
2754.15930	0.90476
2752.10549	0.90505
2750.05168	0.90526
2747.99787	0.90540
2745.94406	0.90557
2743.89025	0.90572
2741.83644	0.90573
2739.78263	0.90549
2737.72882	0.90518
2735.67501	0.90498
2733.62120	0.90490
2731.56739	0.90492
2729.51358	0.90482
2727.45977	0.90444
2725.40596	0.90396
2723.35215	0.90366
2721.29834	0.90380
2719.24453	0.90431
2717.19072	0.90502
2715.13691	0.90578
2713.08310	0.90645
2711.02929	0.90703
2708.97548	0.90749
2706.92167	0.90792
2704.86786	0.90841
2702.81405	0.90891
2700.76024	0.90943
2698.70643	0.90991
2696.65262	0.91022
2694.59881	0.91041
2692.54500	0.91044
2690.49119	0.91041
2688.43738	0.91052
2686.38357	0.91063
2684.32976	0.91068
2682.27595	0.91072
2680.22214	0.91066
2678.16833	0.91060
2676.11452	0.91064
2674.06071	0.91076
2672.00690	0.91085
2669.95309	0.91087
2667.89928	0.91090
2665.84547	0.91101
2663.79166	0.91106
2661.73785	0.91109
2659.68404	0.91125
2657.63023	0.91144
2655.57642	0.91148
2653.52261	0.91149
2651.46880	0.91165
2649.41499	0.91187
2647.36118	0.91205
2645.30737	0.91219
2643.25356	0.91233
2641.19975	0.91251
2639.14594	0.91270
2637.09213	0.91292
2635.03832	0.91331
2632.98451	0.91365
2630.93070	0.91366
2628.87689	0.91344
2626.82308	0.91317
2624.76927	0.91306
2622.71546	0.91328
2620.66165	0.91354
2618.60784	0.91341
2616.55403	0.91324
2614.50022	0.91349
2612.44641	0.91380
2610.39260	0.91392
2608.33879	0.91415
2606.28498	0.91438
2604.23117	0.91428
2602.17736	0.91433
2600.12355	0.91485
2598.06974	0.91530
2596.01593	0.91549
2593.96212	0.91559
2591.90831	0.91559
2589.85450	0.91550
2587.80069	0.91541
2585.74688	0.91548
2583.69307	0.91553
2581.63926	0.91528
2579.58545	0.91496
2577.53164	0.91517
2575.47783	0.91587
2573.42402	0.91623
2571.37021	0.91609
2569.31640	0.91598
2567.26259	0.91604
2565.20878	0.91610
2563.15497	0.91637
2561.10116	0.91677
2559.04735	0.91693
2556.99354	0.91710
2554.93973	0.91729
2552.88592	0.91722
2550.83211	0.91708
2548.77830	0.91698
2546.72449	0.91706
2544.67068	0.91734
2542.61687	0.91773
2540.56306	0.91804
2538.50925	0.91785
2536.45544	0.91734
2534.40163	0.91699
2532.34782	0.91699
2530.29401	0.91724
2528.24020	0.91762
2526.18639	0.91789
2524.13258	0.91775
2522.07877	0.91754
2520.02496	0.91773
2517.97115	0.91812
2515.91734	0.91830
2513.86353	0.91812
2511.80972	0.91786
2509.75591	0.91795
2507.70210	0.91823
2505.64828	0.91835
2503.59447	0.91839
2501.54066	0.91856
2499.48685	0.91892
2497.43304	0.91922
2495.37923	0.91924
2493.32542	0.91908
2491.27161	0.91888
2489.21780	0.91886
2487.16399	0.91894
2485.11018	0.91880
2483.05637	0.91881
2481.00256	0.91910
2478.94875	0.91942
2476.89494	0.91983
2474.84113	0.92019
2472.78732	0.92037
2470.73351	0.92052
2468.67970	0.92046
2466.62589	0.92010
2464.57208	0.91978
2462.51827	0.91941
2460.46446	0.91896
2458.41065	0.91900
2456.35684	0.91945
2454.30303	0.91980
2452.24922	0.91997
2450.19541	0.92009
2448.14160	0.92019
2446.08779	0.92012
2444.03398	0.92009
2441.98017	0.92034
2439.92636	0.92044
2437.87255	0.92033
2435.81874	0.92044
2433.76493	0.92053
2431.71112	0.92039
2429.65731	0.92030
2427.60350	0.92015
2425.54969	0.91995
2423.49588	0.92034
2421.44207	0.92120
2419.38826	0.92179
2417.33445	0.92185
2415.28064	0.92160
2413.22683	0.92151
2411.17302	0.92156
2409.11921	0.92147
2407.06540	0.92135
2405.01159	0.92130
2402.95778	0.92130
2400.90397	0.92125
2398.85016	0.92103
2396.79635	0.92080
2394.74254	0.92088
2392.68873	0.92109
2390.63492	0.92117
2388.58111	0.92144
2386.52730	0.92186
2384.47349	0.92194
2382.41968	0.92183
2380.36587	0.92194
2378.31206	0.92206
2376.25825	0.92190
2374.20444	0.92163
2372.15063	0.92149
2370.09682	0.92163
2368.04301	0.92180
2365.98920	0.92156
2363.93539	0.92145
2361.88158	0.92156
2359.82777	0.92138
2357.77396	0.92154
2355.72015	0.92214
2353.66634	0.92251
2351.61253	0.92230
2349.55872	0.92174
2347.50491	0.92131
2345.45110	0.92152
2343.39729	0.92239
2341.34348	0.92283
2339.28967	0.92224
2337.23586	0.92146
2335.18205	0.92123
2333.12824	0.92126
2331.07443	0.92116
2329.02062	0.92100
2326.96681	0.92093
2324.91300	0.92068
2322.85919	0.92014
2320.80538	0.92014
2318.75157	0.92064
2316.69776	0.92099
2314.64395	0.92154
2312.59014	0.92200
2310.53633	0.92185
2308.48252	0.92170
2306.42871	0.92190
2304.37490	0.92202
2302.32109	0.92174
2300.26728	0.92128
2298.21347	0.92113
2296.15966	0.92148
2294.10585	0.92191
2292.05204	0.92199
2289.99823	0.92187
2287.94442	0.92180
2285.89061	0.92186
2283.83680	0.92206
2281.78299	0.92221
2279.72918	0.92217
2277.67537	0.92237
2275.62156	0.92290
2273.56775	0.92317
2271.51394	0.92305
2269.46013	0.92275
2267.40632	0.92241
2265.35251	0.92232
2263.29870	0.92241
2261.24489	0.92259
2259.19108	0.92273
2257.13727	0.92259
2255.08346	0.92258
2253.02965	0.92305
2250.97584	0.92391
2248.92203	0.92441
2246.86822	0.92407
2244.81441	0.92358
2242.76060	0.92357
2240.70679	0.92417
2238.65298	0.92446
2236.59917	0.92392
2234.54536	0.92316
2232.49155	0.92284
2230.43774	0.92314
2228.38393	0.92368
2226.33012	0.92404
2224.27631	0.92348
2222.22250	0.92202
2220.16869	0.92139
2218.11488	0.92205
2216.06107	0.92246
2214.00726	0.92283
2211.95344	0.92404
2209.89963	0.92499
2207.84582	0.92521
2205.79201	0.92512
2203.73820	0.92512
2201.68439	0.92530
2199.63058	0.92454
2197.57677	0.92331
2195.52296	0.92320
2193.46915	0.92332
2191.41534	0.92260
2189.36153	0.92203
2187.30772	0.92278
2185.25391	0.92403
2183.20010	0.92434
2181.14629	0.92427
2179.09248	0.92474
2177.03867	0.92512
2174.98486	0.92410
2172.93105	0.92254
2170.87724	0.92263
2168.82343	0.92353
2166.76962	0.92324
2164.71581	0.92266
2162.66200	0.92279
2160.60819	0.92428
2158.55438	0.92829
2156.50057	0.93065
2154.44676	0.92821
2152.39295	0.92489
2150.33914	0.92422
2148.28533	0.92529
2146.23152	0.92558
2144.17771	0.92498
2142.12390	0.92497
2140.07009	0.92590
2138.01628	0.92654
2135.96247	0.92636
2133.90866	0.92569
2131.85485	0.92463
2129.80104	0.92379
2127.74723	0.92355
2125.69342	0.92328
2123.63961	0.92262
2121.58580	0.92215
2119.53199	0.92207
2117.47818	0.92195
2115.42437	0.92198
2113.37056	0.92242
2111.31675	0.92284
2109.26294	0.92308
2107.20913	0.92343
2105.15532	0.92370
2103.10151	0.92329
2101.04770	0.92259
2098.99389	0.92258
2096.94008	0.92286
2094.88627	0.92282
2092.83246	0.92299
2090.77865	0.92314
2088.72484	0.92259
2086.67103	0.92207
2084.61722	0.92197
2082.56341	0.92195
2080.50960	0.92207
2078.45579	0.92249
2076.40198	0.92288
2074.34817	0.92254
2072.29436	0.92206
2070.24055	0.92195
2068.18674	0.92223
2066.13293	0.92326
2064.07912	0.92451
2062.02531	0.92494
2059.97150	0.92364
2057.91769	0.92146
2055.86388	0.92087
2053.81007	0.92145
2051.75626	0.92100
2049.70245	0.92027
2047.64864	0.92092
2045.59483	0.92222
2043.54102	0.92272
2041.48721	0.92264
2039.43340	0.92290
2037.37959	0.92297
2035.32578	0.92222
2033.27197	0.92142
2031.21816	0.92154
2029.16435	0.92228
2027.11054	0.92318
2025.05673	0.92390
2023.00292	0.92410
2020.94911	0.92440
2018.89530	0.92465
2016.84149	0.92449
2014.78768	0.92443
2012.73387	0.92472
2010.68006	0.92469
2008.62625	0.92498
2006.57244	0.92639
2004.51863	0.92663
2002.46482	0.92500
2000.41101	0.92338
1998.35720	0.92245
1996.30339	0.92183
1994.24958	0.92098
1992.19577	0.92062
1990.14196	0.92179
1988.08815	0.92273
1986.03434	0.92216
1983.98053	0.92096
1981.92672	0.91969
1979.87291	0.91929
1977.81910	0.92039
1975.76529	0.92149
1973.71148	0.92168
1971.65767	0.92187
1969.60386	0.92152
1967.55005	0.92047
1965.49624	0.91992
1963.44243	0.91922
1961.38862	0.91849
1959.33481	0.91902
1957.28100	0.91945
1955.22719	0.91873
1953.17338	0.91875
1951.11957	0.91957
1949.06576	0.91907
1947.01195	0.91730
1944.95814	0.91633
1942.90433	0.91674
1940.85052	0.91709
1938.79671	0.91684
1936.74290	0.91657
1934.68909	0.91605
1932.63528	0.91543
1930.58147	0.91550
1928.52766	0.91567
1926.47385	0.91523
1924.42004	0.91438
1922.36623	0.91327
1920.31242	0.91276
1918.25861	0.91318
1916.20479	0.91337
1914.15098	0.91277
1912.09717	0.91199
1910.04336	0.91146
1907.98955	0.91105
1905.93574	0.91036
1903.88193	0.90960
1901.82812	0.90918
1899.77431	0.90915
1897.72050	0.90901
1895.66669	0.90853
1893.61288	0.90844
1891.55907	0.90864
1889.50526	0.90855
1887.45145	0.90837
1885.39764	0.90811
1883.34383	0.90729
1881.29002	0.90616
1879.23621	0.90546
1877.18240	0.90490
1875.12859	0.90413
1873.07478	0.90352
1871.02097	0.90318
1868.96716	0.90326
1866.91335	0.90356
1864.85954	0.90311
1862.80573	0.90222
1860.75192	0.90157
1858.69811	0.90094
1856.64430	0.90018
1854.59049	0.89969
1852.53668	0.89922
1850.48287	0.89846
1848.42906	0.89789
1846.37525	0.89748
1844.32144	0.89691
1842.26763	0.89627
1840.21382	0.89577
1838.16001	0.89538
1836.10620	0.89498
1834.05239	0.89454
1831.99858	0.89405
1829.94477	0.89358
1827.89096	0.89329
1825.83715	0.89283
1823.78334	0.89198
1821.72953	0.89134
1819.67572	0.89121
1817.62191	0.89106
1815.56810	0.89030
1813.51429	0.88916
1811.46048	0.88819
1809.40667	0.88753
1807.35286	0.88694
1805.29905	0.88618
1803.24524	0.88535
1801.19143	0.88461
1799.13762	0.88381
1797.08381	0.88276
1795.03000	0.88158
1792.97619	0.88029
1790.92238	0.87912
1788.86857	0.87826
1786.81476	0.87731
1784.76095	0.87594
1782.70714	0.87434
1780.65333	0.87269
1778.59952	0.87104
1776.54571	0.86954
1774.49190	0.86818
1772.43809	0.86671
1770.38428	0.86519
1768.33047	0.86386
1766.27666	0.86263
1764.22285	0.86148
1762.16904	0.86001
1760.11523	0.85821
1758.06142	0.85659
1756.00761	0.85505
1753.95380	0.85349
1751.89999	0.85161
1749.84618	0.84953
1747.79237	0.84778
1745.73856	0.84601
1743.68475	0.84383
1741.63094	0.84152
1739.57713	0.83952
1737.52332	0.83829
1735.46951	0.83726
1733.41570	0.83535
1731.36189	0.83336
1729.30808	0.83175
1727.25427	0.83015
1725.20046	0.82850
1723.14665	0.82664
1721.09284	0.82479
1719.03903	0.82309
1716.98522	0.82117
1714.93141	0.81934
1712.87760	0.81798
1710.82379	0.81700
1708.76998	0.81650
1706.71617	0.81653
1704.66236	0.81703
1702.60855	0.81779
1700.55474	0.81886
1698.50093	0.82005
1696.44712	0.82132
1694.39331	0.82246
1692.33950	0.82297
1690.28569	0.82326
1688.23188	0.82349
1686.17807	0.82362
1684.12426	0.82371
1682.07045	0.82352
1680.01664	0.82305
1677.96283	0.82249
1675.90902	0.82171
1673.85521	0.82087
1671.80140	0.82016
1669.74759	0.81922
1667.69378	0.81821
1665.63997	0.81732
1663.58616	0.81595
1661.53235	0.81407
1659.47854	0.81244
1657.42473	0.81106
1655.37092	0.80965
1653.31711	0.80803
1651.26330	0.80711
1649.20949	0.80695
1647.15568	0.80712
1645.10187	0.80747
1643.04806	0.80755
1640.99425	0.80748
1638.94044	0.80765
1636.88663	0.80847
1634.83282	0.81020
1632.77901	0.81166
1630.72520	0.81280
1628.67139	0.81446
1626.61758	0.81645
1624.56377	0.81867
1622.50996	0.82164
1620.45614	0.82445
1618.40233	0.82713
1616.34852	0.83082
1614.29471	0.83424
1612.24090	0.83694
1610.18709	0.84013
1608.13328	0.84372
1606.07947	0.84698
1604.02566	0.84998
1601.97185	0.85290
1599.91804	0.85551
1597.86423	0.85795
1595.81042	0.86056
1593.75661	0.86316
1591.70280	0.86517
1589.64899	0.86671
1587.59518	0.86825
1585.54137	0.86988
1583.48756	0.87142
1581.43375	0.87280
1579.37994	0.87391
1577.32613	0.87488
1575.27232	0.87582
1573.21851	0.87629
1571.16470	0.87655
1569.11089	0.87700
1567.05708	0.87731
1565.00327	0.87725
1562.94946	0.87699
1560.89565	0.87647
1558.84184	0.87568
1556.78803	0.87540
1554.73422	0.87535
1552.68041	0.87508
1550.62660	0.87474
1548.57279	0.87464
1546.51898	0.87480
1544.46517	0.87507
1542.41136	0.87544
1540.35755	0.87600
1538.30374	0.87673
1536.24993	0.87714
1534.19612	0.87748
1532.14231	0.87810
1530.08850	0.87876
1528.03469	0.87928
1525.98088	0.87980
1523.92707	0.88042
1521.87326	0.88096
1519.81945	0.88101
1517.76564	0.88114
1515.71183	0.88194
1513.65802	0.88281
1511.60421	0.88338
1509.55040	0.88379
1507.49659	0.88445
1505.44278	0.88531
1503.38897	0.88554
1501.33516	0.88557
1499.28135	0.88584
1497.22754	0.88616
1495.17373	0.88618
1493.11992	0.88617
1491.06611	0.88610
1489.01230	0.88552
1486.95849	0.88440
1484.90468	0.88323
1482.85087	0.88187
1480.79706	0.87984
1478.74325	0.87689
1476.68944	0.87262
1474.63563	0.86597
1472.58182	0.85458
1470.52801	0.83985
1468.47420	0.82523
1466.42039	0.80827
1464.36658	0.78901
1462.31277	0.77473
1460.25896	0.76662
1458.20515	0.76035
1456.15134	0.75473
1454.09753	0.75162
1452.04372	0.75087
1449.98991	0.75441
1447.93610	0.76621
1445.88229	0.78454
1443.82848	0.80203
1441.77467	0.81486
1439.72086	0.82177
1437.66705	0.82410
1435.61324	0.82610
1433.55943	0.83200
1431.50562	0.84052
1429.45181	0.84833
1427.39800	0.85281
1425.34419	0.85496
1423.29038	0.85628
1421.23657	0.85711
1419.18276	0.85754
1417.12895	0.85768
1415.07514	0.85786
1413.02133	0.85813
1410.96752	0.85828
1408.91371	0.85819
1406.85990	0.85820
1404.80609	0.85842
1402.75228	0.85865
1400.69847	0.85863
1398.64466	0.85844
1396.59085	0.85813
1394.53704	0.85719
1392.48323	0.85535
1390.42942	0.85272
1388.37561	0.84808
1386.32180	0.83958
1384.26799	0.82619
1382.21418	0.80424
1380.16037	0.76764
1378.10656	0.71993
1376.05275	0.68638
1373.99894	0.69432
1371.94513	0.73294
1369.89132	0.77010
1367.83751	0.79422
1365.78370	0.80541
1363.72989	0.80759
1361.67608	0.80431
1359.62227	0.80031
1357.56846	0.80042
1355.51465	0.80566
1353.46084	0.81301
1351.40703	0.81927
1349.35322	0.82375
1347.29941	0.82672
1345.24560	0.82850
1343.19179	0.82959
1341.13798	0.83026
1339.08417	0.83048
1337.03036	0.83031
1334.97655	0.82980
1332.92274	0.82892
1330.86893	0.82774
1328.81512	0.82680
1326.76130	0.82660
1324.70749	0.82697
1322.65368	0.82760
1320.59987	0.82815
1318.54606	0.82823
1316.49225	0.82783
1314.43844	0.82727
1312.38463	0.82657
1310.33082	0.82531
1308.27701	0.82292
1306.22320	0.81952
1304.16939	0.81689
1302.11558	0.81649
1300.06177	0.81715
1298.00796	0.81717
1295.95415	0.81658
1293.90034	0.81616
1291.84653	0.81618
1289.79272	0.81636
1287.73891	0.81633
1285.68510	0.81585
1283.63129	0.81501
1281.57748	0.81397
1279.52367	0.81269
1277.46986	0.81127
1275.41605	0.80983
1273.36224	0.80822
1271.30843	0.80624
1269.25462	0.80389
1267.20081	0.80121
1265.14700	0.79828
1263.09319	0.79516
1261.03938	0.79138
1258.98557	0.78646
1256.93176	0.78090
1254.87795	0.77612
1252.82414	0.77284
1250.77033	0.77007
1248.71652	0.76681
1246.66271	0.76299
1244.60890	0.75863
1242.55509	0.75382
1240.50128	0.74890
1238.44747	0.74398
1236.39366	0.73912
1234.33985	0.73439
1232.28604	0.72959
1230.23223	0.72472
1228.17842	0.72006
1226.12461	0.71549
1224.07080	0.71092
1222.01699	0.70653
1219.96318	0.70242
1217.90937	0.69870
1215.85556	0.69549
1213.80175	0.69273
1211.74794	0.69030
1209.69413	0.68807
1207.64032	0.68585
1205.58651	0.68360
1203.53270	0.68134
1201.47889	0.67921
1199.42508	0.67724
1197.37127	0.67528
1195.31746	0.67341
1193.26365	0.67166
1191.20984	0.66992
1189.15603	0.66822
1187.10222	0.66658
1185.04841	0.66510
1182.99460	0.66369
1180.94079	0.66220
1178.88698	0.66062
1176.83317	0.65863
1174.77936	0.65547
1172.72555	0.65014
1170.67174	0.64247
1168.61793	0.63473
1166.56412	0.63086
1164.51031	0.63252
1162.45650	0.63770
1160.40269	0.64376
1158.34888	0.64916
1156.29507	0.65360
1154.24126	0.65753
1152.18745	0.66153
1150.13364	0.66604
1148.07983	0.67111
1146.02602	0.67637
1143.97221	0.68131
1141.91840	0.68576
1139.86459	0.68984
1137.81078	0.69360
1135.75697	0.69707
1133.70316	0.70012
1131.64935	0.70284
1129.59554	0.70554
1127.54173	0.70820
1125.48792	0.71059
1123.43411	0.71285
1121.38030	0.71517
1119.32649	0.71733
1117.27268	0.71918
1115.21887	0.72089
1113.16506	0.72264
1111.11125	0.72414
1109.05744	0.72503
1107.00363	0.72552
1104.94982	0.72596
1102.89601	0.72654
1100.84220	0.72798
1098.78839	0.73043
1096.73458	0.73290
1094.68077	0.73486
1092.62696	0.73635
1090.57315	0.73741
1088.51934	0.73814
1086.46553	0.73869
1084.41172	0.73906
1082.35791	0.73913
1080.30410	0.73887
1078.25029	0.73814
1076.19648	0.73659
1074.14267	0.73427
1072.08886	0.73121
1070.03505	0.72714
1067.98124	0.72186
1065.92743	0.71516
1063.87362	0.70714
1061.81981	0.69851
1059.76600	0.68987
1057.71219	0.68133
1055.65838	0.67307
1053.60457	0.66554
1051.55076	0.65908
1049.49695	0.65410
1047.44314	0.65059
1045.38933	0.64810
1043.33552	0.64697
1041.28171	0.64756
1039.22790	0.64946
1037.17409	0.65224
1035.12028	0.65571
1033.06647	0.65994
1031.01265	0.66483
1028.95884	0.67008
1026.90503	0.67543
1024.85122	0.68069
1022.79741	0.68599
1020.74360	0.69132
1018.68979	0.69636
1016.63598	0.70120
1014.58217	0.70605
1012.52836	0.71071
1010.47455	0.71494
1008.42074	0.71866
1006.36693	0.72147
1004.31312	0.72191
1002.25931	0.71758
1000.20550	0.70790
998.15169	0.69929
996.09788	0.70095
994.04407	0.71281
991.99026	0.72657
989.93645	0.73710
987.88264	0.74449
985.82883	0.74954
983.77502	0.75251
981.72121	0.75335
979.66740	0.75127
977.61359	0.74505
975.55978	0.73463
973.50597	0.72466
971.45216	0.72375
969.39835	0.73404
967.34454	0.74802
965.29073	0.75882
963.23692	0.76548
961.18311	0.76968
959.12930	0.77278
957.07549	0.77522
955.02168	0.77697
952.96787	0.77818
950.91406	0.77926
948.86025	0.78014
946.80644	0.78043
944.75263	0.78034
942.69882	0.78016
940.64501	0.78005
938.59120	0.78051
936.53739	0.78150
934.48358	0.78221
932.42977	0.78217
930.37596	0.78161
928.32215	0.78087
926.26834	0.78011
924.21453	0.77911
922.16072	0.77775
920.10691	0.77600
918.05310	0.77377
915.99929	0.77137
913.94548	0.76906
911.89167	0.76663
909.83786	0.76381
907.78405	0.76041
905.73024	0.75608
903.67643	0.75041
901.62262	0.74357
899.56881	0.73745
897.51500	0.73438
895.46119	0.73430
893.40738	0.73499
891.35357	0.73469
889.29976	0.73372
887.24595	0.73291
885.19214	0.73228
883.13833	0.73169
881.08452	0.73126
879.03071	0.73125
876.97690	0.73189
874.92309	0.73312
872.86928	0.73458
870.81547	0.73626
868.76166	0.73822
866.70785	0.74054
864.65404	0.74330
862.60023	0.74621
860.54642	0.74910
858.49261	0.75206
856.43880	0.75478
854.38499	0.75703
852.33118	0.75888
850.27737	0.76015
848.22356	0.76009
846.16975	0.75668
844.11594	0.74608
842.06213	0.73105
840.00832	0.72632
837.95451	0.73781
835.90070	0.75295
833.84689	0.76205
831.79308	0.76631
829.73927	0.76874
827.68546	0.77053
825.63165	0.77207
823.57784	0.77367
821.52403	0.77495
819.47022	0.77546
817.41641	0.77528
815.36260	0.77353
813.30879	0.76930
811.25498	0.76421
809.20117	0.76101
807.14736	0.76135
805.09355	0.76469
803.03974	0.76844
800.98593	0.77093
798.93212	0.77229
796.87831	0.77303
794.82450	0.77375
792.77069	0.77464
790.71688	0.77528
788.66307	0.77572
786.60926	0.77595
784.55545	0.77583
782.50164	0.77555
780.44783	0.77514
778.39402	0.77464
776.34021	0.77422
774.28640	0.77368
772.23259	0.77317
770.17878	0.77305
768.12497	0.77296
766.07116	0.77249
764.01735	0.77196
761.96354	0.77159
759.90973	0.77103
757.85592	0.77018
755.80211	0.76947
753.74830	0.76895
751.69449	0.76837
749.64068	0.76796
747.58687	0.76770
745.53306	0.76717
743.47925	0.76643
741.42544	0.76563
739.37163	0.76470
737.31781	0.76367
735.26400	0.76261
733.21019	0.76157
731.15638	0.76052
729.10257	0.75985
727.04876	0.75959
724.99495	0.75912
722.94114	0.75848
720.88733	0.75771
718.83352	0.75675
716.77971	0.75593
714.72590	0.75521
712.67209	0.75440
710.61828	0.75343
708.56447	0.75232
706.51066	0.75118
704.45685	0.74998
702.40304	0.74896
700.34923	0.74833
698.29542	0.74752
696.24161	0.74606
694.18780	0.74450
692.13399	0.74354
690.08018	0.74292
688.02637	0.74229
685.97256	0.74185
683.91875	0.74155
681.86494	0.74071
679.81113	0.73927
677.75732	0.73782
675.70351	0.73642
673.64970	0.73476
671.59589	0.73320
669.54208	0.73143
667.48827	0.72855
665.43446	0.72722
663.38065	0.72740
661.32684	0.72737
659.27303	0.72683
657.21922	0.72575
655.16541	0.72392
653.11160	0.72202
651.05779	0.72074
649.00398	0.71960
646.95017	0.71808
644.89636	0.71625
642.84255	0.71423
640.78874	0.71258
638.73493	0.71087
636.68112	0.70823
634.62731	0.70586
632.57350	0.70436
630.51969	0.70207
628.46588	0.69875
626.41207	0.69605
624.35826	0.69443
622.30445	0.69292
620.25064	0.69074
618.19683	0.68739
616.14302	0.68293
614.08921	0.67783
612.03540	0.67214
609.98159	0.66665
607.92778	0.66197
605.87397	0.65720
603.82016	0.65182
601.76635	0.64546
599.71254	0.63842
597.65873	0.63217
595.60492	0.62650
593.55111	0.62075
591.49730	0.61569
589.44349	0.61142
587.38968	0.60730
585.33587	0.60406
583.28206	0.60248
581.22825	0.60265
579.17444	0.60488
577.12063	0.60915
575.06682	0.61474
573.01301	0.62008
570.95920	0.62467
568.90539	0.62890
566.85158	0.63300
564.79777	0.63707
562.74396	0.64090
560.69015	0.64400
558.63634	0.64620
556.58253	0.64824
554.52872	0.65030
552.47491	0.65174
550.42110	0.65308
548.36729	0.65481
546.31348	0.65639
544.25967	0.65742
542.20586	0.65834
540.15205	0.65981
538.09824	0.66056
536.04443	0.65927
533.99062	0.65732
531.93681	0.65705
529.88300	0.65806
527.82919	0.65831
525.77538	0.65829
523.72157	0.65925
521.66776	0.66046
519.61395	0.66139
517.56014	0.66207
515.50633	0.66235
513.45252	0.66287
511.39871	0.66375
509.34490	0.66433
507.29109	0.66482
505.23728	0.66564
503.18347	0.66638
501.12966	0.66640
499.07585	0.66578
497.02204	0.66568
494.96823	0.66672
492.91442	0.66760
490.86061	0.66650
488.80680	0.66401
486.75299	0.66198
484.69918	0.66077
482.64537	0.66055
480.59156	0.66095
478.53775	0.66042
476.48394	0.65931
474.43013	0.65928
472.37632	0.65921
470.32251	0.65737
468.26870	0.65475
466.21489	0.65205
464.16108	0.64907
462.10727	0.64575
460.05346	0.64294
457.99965	0.64112
455.94584	0.64093
453.89203	0.64174
451.83822	0.64137
449.78441	0.64069
447.73060	0.64090
445.67679	0.64114
443.62298	0.64194
441.56916	0.64321
439.51535	0.64371
437.46154	0.64310
435.40773	0.64107
433.35392	0.64012
431.30011	0.64209
429.24630	0.64456
427.19249	0.64688
425.13868	0.64929
423.08487	0.64954
421.03106	0.64817
418.97725	0.64886
416.92344	0.65220
414.86963	0.65461
412.81582	0.65453
410.76201	0.65363
408.70820	0.65320
406.65439	0.65313
404.60058	0.65385
402.54677	0.65472
400.49296	0.65528
398.43915	0.65423
