3996.70104	0.95577
3994.64724	0.95535
3992.59344	0.95474
3990.53964	0.95448
3988.48583	0.95458
3986.43203	0.95460
3984.37823	0.95430
3982.32442	0.95429
3980.27062	0.95493
3978.21682	0.95551
3976.16301	0.95524
3974.10921	0.95450
3972.05541	0.95442
3970.00160	0.95508
3967.94780	0.95553
3965.89400	0.95521
3963.84019	0.95465
3961.78639	0.95439
3959.73259	0.95444
3957.67878	0.95460
3955.62498	0.95441
3953.57118	0.95396
3951.51737	0.95389
3949.46357	0.95397
3947.40977	0.95369
3945.35596	0.95393
3943.30216	0.95498
3941.24836	0.95539
3939.19455	0.95484
3937.14075	0.95464
3935.08695	0.95507
3933.03315	0.95591
3930.97934	0.95633
3928.92554	0.95552
3926.87174	0.95467
3924.81793	0.95452
3922.76413	0.95497
3920.71033	0.95573
3918.65652	0.95611
3916.60272	0.95602
3914.54892	0.95606
3912.49511	0.95596
3910.44131	0.95572
3908.38751	0.95593
3906.33370	0.95622
3904.27990	0.95603
3902.22610	0.95577
3900.17229	0.95595
3898.11849	0.95620
3896.06469	0.95591
3894.01088	0.95566
3891.95708	0.95638
3889.90328	0.95712
3887.84947	0.95663
3885.79567	0.95569
3883.74187	0.95530
3881.68807	0.95524
3879.63426	0.95508
3877.58046	0.95557
3875.52666	0.95647
3873.47285	0.95669
3871.41905	0.95615
3869.36525	0.95592
3867.31144	0.95650
3865.25764	0.95696
3863.20384	0.95653
3861.15003	0.95610
3859.09623	0.95642
3857.04243	0.95701
3854.98862	0.95731
3852.93482	0.95601
3850.88102	0.95453
3848.82721	0.95483
3846.77341	0.95589
3844.71961	0.95672
3842.66580	0.95683
3840.61200	0.95647
3838.55820	0.95617
3836.50439	0.95584
3834.45059	0.95521
3832.39679	0.95484
3830.34298	0.95523
3828.28918	0.95597
3826.23538	0.95654
3824.18158	0.95642
3822.12777	0.95573
3820.07397	0.95553
3818.02017	0.95551
3815.96636	0.95523
3813.91256	0.95578
3811.85876	0.95671
3809.80495	0.95681
3807.75115	0.95590
3805.69735	0.95505
3803.64354	0.95493
3801.58974	0.95488
3799.53594	0.95492
3797.48213	0.95529
3795.42833	0.95577
3793.37453	0.95610
3791.32072	0.95603
3789.26692	0.95567
3787.21312	0.95551
3785.15931	0.95574
3783.10551	0.95601
3781.05171	0.95613
3778.99790	0.95638
3776.94410	0.95670
3774.89030	0.95668
3772.83650	0.95644
3770.78269	0.95641
3768.72889	0.95649
3766.67509	0.95616
3764.62128	0.95579
3762.56748	0.95585
3760.51368	0.95641
3758.45987	0.95703
3756.40607	0.95717
3754.35227	0.95735
3752.29846	0.95819
3750.24466	0.95892
3748.19086	0.95829
3746.13705	0.95732
3744.08325	0.95669
3742.02945	0.95688
3739.97564	0.95767
3737.92184	0.95870
3735.86804	0.95884
3733.81423	0.95720
3731.76043	0.95613
3729.70663	0.95624
3727.65282	0.95634
3725.59902	0.95643
3723.54522	0.95695
3721.49141	0.95732
3719.43761	0.95740
3717.38381	0.95719
3715.33001	0.95675
3713.27620	0.95654
3711.22240	0.95572
3709.16860	0.95410
3707.11479	0.95324
3705.06099	0.95224
3703.00719	0.95057
3700.95338	0.94938
3698.89958	0.94921
3696.84578	0.94932
3694.79197	0.94949
3692.73817	0.94983
3690.68437	0.94972
3688.63056	0.94923
3686.57676	0.94995
3684.52296	0.95077
3682.46915	0.95055
3680.41535	0.95007
3678.36155	0.95009
3676.30774	0.94986
3674.25394	0.94904
3672.20014	0.94907
3670.14633	0.94934
3668.09253	0.94841
3666.03873	0.94723
3663.98492	0.94637
3661.93112	0.94577
3659.87732	0.94559
3657.82352	0.94560
3655.76971	0.94557
3653.71591	0.94549
3651.66211	0.94517
3649.60830	0.94477
3647.55450	0.94416
3645.50070	0.94334
3643.44689	0.94282
3641.39309	0.94238
3639.33929	0.94170
3637.28548	0.94097
3635.23168	0.94041
3633.17788	0.93994
3631.12407	0.93922
3629.07027	0.93810
3627.01647	0.93709
3624.96266	0.93659
3622.90886	0.93654
3620.85506	0.93677
3618.80125	0.93656
3616.74745	0.93637
3614.69365	0.93705
3612.63984	0.93737
3610.58604	0.93666
3608.53224	0.93658
3606.47844	0.93757
3604.42463	0.93823
3602.37083	0.93876
3600.31703	0.93951
3598.26322	0.93978
3596.20942	0.93942
3594.15562	0.93898
3592.10181	0.93904
3590.04801	0.93910
3587.99421	0.93826
3585.94040	0.93752
3583.88660	0.93773
3581.83280	0.93795
3579.77899	0.93790
3577.72519	0.93767
3575.67139	0.93735
3573.61758	0.93717
3571.56378	0.93732
3569.50998	0.93769
3567.45617	0.93804
3565.40237	0.93791
3563.34857	0.93760
3561.29476	0.93751
3559.24096	0.93718
3557.18716	0.93662
3555.13335	0.93642
3553.07955	0.93637
3551.02575	0.93602
3548.97195	0.93614
3546.91814	0.93687
3544.86434	0.93674
3542.81054	0.93592
3540.75673	0.93574
3538.70293	0.93587
3536.64913	0.93582
3534.59532	0.93559
3532.54152	0.93510
3530.48772	0.93476
3528.43391	0.93541
3526.38011	0.93643
3524.32631	0.93653
3522.27250	0.93598
3520.21870	0.93539
3518.16490	0.93480
3516.11109	0.93452
3514.05729	0.93461
3512.00349	0.93465
3509.94968	0.93439
3507.89588	0.93411
3505.84208	0.93438
3503.78827	0.93472
3501.73447	0.93439
3499.68067	0.93396
3497.62687	0.93408
3495.57306	0.93444
3493.51926	0.93456
3491.46546	0.93425
3489.41165	0.93372
3487.35785	0.93357
3485.30405	0.93394
3483.25024	0.93435
3481.19644	0.93463
3479.14264	0.93448
3477.08883	0.93377
3475.03503	0.93314
3472.98123	0.93291
3470.92742	0.93284
3468.87362	0.93285
3466.81982	0.93284
3464.76601	0.93264
3462.71221	0.93219
3460.65841	0.93157
3458.60460	0.93106
3456.55080	0.93111
3454.49700	0.93160
3452.44319	0.93167
3450.38939	0.93126
3448.33559	0.93110
3446.28178	0.93114
3444.22798	0.93098
3442.17418	0.93085
3440.12038	0.93102
3438.06657	0.93086
3436.01277	0.93030
3433.95897	0.92998
3431.90516	0.92980
3429.85136	0.92995
3427.79756	0.93071
3425.74375	0.93105
3423.68995	0.93047
3421.63615	0.92986
3419.58234	0.92964
3417.52854	0.92959
3415.47474	0.92968
3413.42093	0.92985
3411.36713	0.92990
3409.31333	0.92959
3407.25952	0.92896
3405.20572	0.92845
3403.15192	0.92838
3401.09811	0.92862
3399.04431	0.92905
3396.99051	0.92931
3394.93670	0.92936
3392.88290	0.92968
3390.82910	0.93011
3388.77529	0.93034
3386.72149	0.93046
3384.66769	0.93043
3382.61389	0.93015
3380.56008	0.92967
3378.50628	0.92933
3376.45248	0.92929
3374.39867	0.92952
3372.34487	0.92998
3370.29107	0.93030
3368.23726	0.93024
3366.18346	0.92987
3364.12966	0.92943
3362.07585	0.92938
3360.02205	0.92986
3357.96825	0.93043
3355.91444	0.93066
3353.86064	0.93072
3351.80684	0.93053
3349.75303	0.93003
3347.69923	0.92995
3345.64543	0.93048
3343.59162	0.93088
3341.53782	0.93098
3339.48402	0.93109
3337.43021	0.93120
3335.37641	0.93123
3333.32261	0.93138
3331.26881	0.93160
3329.21500	0.93153
3327.16120	0.93150
3325.10740	0.93193
3323.05359	0.93251
3320.99979	0.93297
3318.94599	0.93295
3316.89218	0.93245
3314.83838	0.93189
3312.78458	0.93150
3310.73077	0.93153
3308.67697	0.93181
3306.62317	0.93177
3304.56936	0.93145
3302.51556	0.93179
3300.46176	0.93262
3298.40795	0.93304
3296.35415	0.93312
3294.30035	0.93331
3292.24654	0.93361
3290.19274	0.93383
3288.13894	0.93397
3286.08513	0.93391
3284.03133	0.93363
3281.97753	0.93348
3279.92372	0.93358
3277.86992	0.93374
3275.81612	0.93390
3273.76232	0.93416
3271.70851	0.93442
3269.65471	0.93450
3267.60091	0.93456
3265.54710	0.93494
3263.49330	0.93531
3261.43950	0.93527
3259.38569	0.93509
3257.33189	0.93503
3255.27809	0.93502
3253.22428	0.93495
3251.17048	0.93495
3249.11668	0.93511
3247.06287	0.93549
3245.00907	0.93569
3242.95527	0.93551
3240.90146	0.93530
3238.84766	0.93534
3236.79386	0.93564
3234.74005	0.93606
3232.68625	0.93647
3230.63245	0.93661
3228.57864	0.93623
3226.52484	0.93584
3224.47104	0.93605
3222.41724	0.93672
3220.36343	0.93721
3218.30963	0.93716
3216.25583	0.93704
3214.20202	0.93716
3212.14822	0.93738
3210.09442	0.93754
3208.04061	0.93763
3205.98681	0.93746
3203.93301	0.93756
3201.87920	0.93831
3199.82540	0.93877
3197.77160	0.93870
3195.71779	0.93877
3193.66399	0.93907
3191.61019	0.93945
3189.55638	0.93963
3187.50258	0.93940
3185.44878	0.93902
3183.39497	0.93865
3181.34117	0.93837
3179.28737	0.93878
3177.23356	0.93981
3175.17976	0.94023
3173.12596	0.93976
3171.07215	0.93954
3169.01835	0.93997
3166.96455	0.94073
3164.91075	0.94141
3162.85694	0.94143
3160.80314	0.94080
3158.74934	0.94024
3156.69553	0.94029
3154.64173	0.94076
3152.58793	0.94110
3150.53412	0.94135
3148.48032	0.94168
3146.42652	0.94184
3144.37271	0.94186
3142.31891	0.94199
3140.26511	0.94233
3138.21130	0.94263
3136.15750	0.94261
3134.10370	0.94236
3132.04989	0.94205
3129.99609	0.94216
3127.94229	0.94281
3125.88848	0.94351
3123.83468	0.94385
3121.78088	0.94372
3119.72707	0.94364
3117.67327	0.94386
3115.61947	0.94386
3113.56566	0.94363
3111.51186	0.94334
3109.45806	0.94293
3107.40426	0.94290
3105.35045	0.94310
3103.29665	0.94288
3101.24285	0.94259
3099.18904	0.94279
3097.13524	0.94325
3095.08144	0.94348
3093.02763	0.94345
3090.97383	0.94306
3088.92003	0.94217
3086.86622	0.94125
3084.81242	0.94066
3082.75862	0.94001
3080.70481	0.93943
3078.65101	0.93946
3076.59721	0.94009
3074.54340	0.94092
3072.48960	0.94129
3070.43580	0.94093
3068.38199	0.94005
3066.32819	0.93885
3064.27439	0.93761
3062.22058	0.93647
3060.16678	0.93554
3058.11298	0.93548
3056.05918	0.93636
3054.00537	0.93753
3051.95157	0.93895
3049.89777	0.94017
3047.84396	0.94062
3045.79016	0.94091
3043.73636	0.94141
3041.68255	0.94164
3039.62875	0.94136
3037.57495	0.94085
3035.52114	0.94011
3033.46734	0.93844
3031.41354	0.93545
3029.35973	0.93156
3027.30593	0.92795
3025.25213	0.92608
3023.19832	0.92672
3021.14452	0.92922
3019.09072	0.93243
3017.03691	0.93533
3014.98311	0.93736
3012.92931	0.93879
3010.87550	0.94005
3008.82170	0.94102
3006.76790	0.94125
3004.71409	0.94115
3002.66029	0.94130
3000.60649	0.94152
2998.55269	0.94191
2996.49888	0.94256
2994.44508	0.94321
2992.39128	0.94361
2990.33747	0.94386
2988.28367	0.94422
2986.22987	0.94474
2984.17606	0.94503
2982.12226	0.94478
2980.06846	0.94464
2978.01465	0.94516
2975.96085	0.94606
2973.90705	0.94653
2971.85324	0.94605
2969.79944	0.94541
2967.74564	0.94523
2965.69183	0.94522
2963.63803	0.94520
2961.58423	0.94495
2959.53042	0.94428
2957.47662	0.94354
2955.42282	0.94324
2953.36901	0.94326
2951.31521	0.94315
2949.26141	0.94259
2947.20761	0.94157
2945.15380	0.94057
2943.10000	0.93967
2941.04620	0.93835
2938.99239	0.93666
2936.93859	0.93482
2934.88479	0.93259
2932.83098	0.93028
2930.77718	0.92810
2928.72338	0.92568
2926.66957	0.92347
2924.61577	0.92197
2922.56197	0.92082
2920.50816	0.91989
2918.45436	0.91970
2916.40056	0.92036
2914.34675	0.92140
2912.29295	0.92254
2910.23915	0.92365
2908.18534	0.92463
2906.13154	0.92569
2904.07774	0.92703
2902.02393	0.92861
2899.97013	0.93035
2897.91633	0.93200
2895.86252	0.93320
2893.80872	0.93396
2891.75492	0.93491
2889.70112	0.93626
2887.64731	0.93719
2885.59351	0.93752
2883.53971	0.93791
2881.48590	0.93832
2879.43210	0.93842
2877.37830	0.93858
2875.32449	0.93926
2873.27069	0.94017
2871.21689	0.94064
2869.16308	0.94073
2867.10928	0.94103
2865.05548	0.94137
2863.00167	0.94110
2860.94787	0.94025
2858.89407	0.93918
2856.84026	0.93803
2854.78646	0.93686
2852.73266	0.93572
2850.67885	0.93506
2848.62505	0.93534
2846.57125	0.93609
2844.51744	0.93680
2842.46364	0.93765
2840.40984	0.93873
2838.35603	0.93983
2836.30223	0.94078
2834.24843	0.94145
2832.19463	0.94203
2830.14082	0.94290
2828.08702	0.94381
2826.03322	0.94435
2823.97941	0.94470
2821.92561	0.94519
2819.87181	0.94567
2817.81800	0.94579
2815.76420	0.94558
2813.71040	0.94548
2811.65659	0.94567
2809.60279	0.94589
2807.54899	0.94599
2805.49518	0.94605
2803.44138	0.94616
2801.38758	0.94643
2799.33377	0.94660
2797.27997	0.94639
2795.22617	0.94624
2793.17236	0.94648
2791.11856	0.94679
2789.06476	0.94705
2787.01095	0.94732
2784.95715	0.94758
2782.90335	0.94770
2780.84955	0.94760
2778.79574	0.94736
2776.74194	0.94701
2774.68814	0.94691
2772.63433	0.94724
2770.58053	0.94755
2768.52673	0.94769
2766.47292	0.94783
2764.41912	0.94795
2762.36532	0.94801
2760.31151	0.94813
2758.25771	0.94837
2756.20391	0.94859
2754.15010	0.94862
2752.09630	0.94870
2750.04250	0.94890
2747.98869	0.94878
2745.93489	0.94845
2743.88109	0.94829
2741.82728	0.94831
2739.77348	0.94845
2737.71968	0.94851
2735.66587	0.94844
2733.61207	0.94839
2731.55827	0.94819
2729.50446	0.94804
2727.45066	0.94842
2725.39686	0.94891
2723.34306	0.94900
2721.28925	0.94883
2719.23545	0.94854
2717.18165	0.94822
2715.12784	0.94810
2713.07404	0.94833
2711.02024	0.94874
2708.96643	0.94898
2706.91263	0.94897
2704.85883	0.94887
2702.80502	0.94883
2700.75122	0.94869
2698.69742	0.94855
2696.64361	0.94879
2694.58981	0.94910
2692.53601	0.94908
2690.48220	0.94888
2688.42840	0.94892
2686.37460	0.94913
2684.32079	0.94919
2682.26699	0.94914
2680.21319	0.94912
2678.15938	0.94917
2676.10558	0.94931
2674.05178	0.94946
2671.99797	0.94963
2669.94417	0.94975
2667.89037	0.94964
2665.83657	0.94947
2663.78276	0.94936
2661.72896	0.94922
2659.67516	0.94900
2657.62135	0.94879
2655.56755	0.94879
2653.51375	0.94885
2651.45994	0.94888
2649.40614	0.94914
2647.35234	0.94947
2645.29853	0.94966
2643.24473	0.94966
2641.19093	0.94946
2639.13712	0.94943
2637.08332	0.94959
2635.02952	0.94949
2632.97571	0.94929
2630.92191	0.94918
2628.86811	0.94916
2626.81430	0.94940
2624.76050	0.94964
2622.70670	0.94964
2620.65289	0.94990
2618.59909	0.95051
2616.54529	0.95095
2614.49149	0.95122
2612.43768	0.95151
2610.38388	0.95141
2608.33008	0.95087
2606.27627	0.95057
2604.22247	0.95058
2602.16867	0.95062
2600.11486	0.95068
2598.06106	0.95095
2596.00726	0.95130
2593.95345	0.95122
2591.89965	0.95079
2589.84585	0.95046
2587.79204	0.95012
2585.73824	0.94988
2583.68444	0.95015
2581.63063	0.95059
2579.57683	0.95066
2577.52303	0.95068
2575.46922	0.95076
2573.41542	0.95057
2571.36162	0.95046
2569.30781	0.95071
2567.25401	0.95124
2565.20021	0.95158
2563.14640	0.95128
2561.09260	0.95070
2559.03880	0.95038
2556.98500	0.95075
2554.93119	0.95134
2552.87739	0.95125
2550.82359	0.95065
2548.76978	0.95072
2546.71598	0.95151
2544.66218	0.95192
2542.60837	0.95188
2540.55457	0.95180
2538.50077	0.95154
2536.44696	0.95120
2534.39316	0.95113
2532.33936	0.95114
2530.28555	0.95109
2528.23175	0.95127
2526.17795	0.95168
2524.12414	0.95222
2522.07034	0.95233
2520.01654	0.95176
2517.96273	0.95138
2515.90893	0.95122
2513.85513	0.95105
2511.80132	0.95130
2509.74752	0.95179
2507.69372	0.95237
2505.63992	0.95300
2503.58611	0.95323
2501.53231	0.95319
2499.47851	0.95321
2497.42470	0.95286
2495.37090	0.95218
2493.31710	0.95142
2491.26329	0.95104
2489.20949	0.95177
2487.15569	0.95259
2485.10188	0.95284
2483.04808	0.95268
2480.99428	0.95198
2478.94047	0.95167
2476.88667	0.95211
2474.83287	0.95218
2472.77906	0.95207
2470.72526	0.95267
2468.67146	0.95344
2466.61765	0.95351
2464.56385	0.95283
2462.51005	0.95228
2460.45624	0.95238
2458.40244	0.95252
2456.34864	0.95240
2454.29483	0.95220
2452.24103	0.95219
2450.18723	0.95252
2448.13343	0.95258
2446.07962	0.95237
2444.02582	0.95244
2441.97202	0.95246
2439.91821	0.95234
2437.86441	0.95221
2435.81061	0.95197
2433.75680	0.95161
2431.70300	0.95131
2429.64920	0.95151
2427.59539	0.95217
2425.54159	0.95252
2423.48779	0.95250
2421.43398	0.95278
2419.38018	0.95321
2417.32638	0.95323
2415.27257	0.95258
2413.21877	0.95208
2411.16497	0.95265
2409.11116	0.95353
2407.05736	0.95393
2405.00356	0.95389
2402.94975	0.95338
2400.89595	0.95294
2398.84215	0.95318
2396.78834	0.95347
2394.73454	0.95325
2392.68074	0.95268
2390.62694	0.95227
2388.57313	0.95240
2386.51933	0.95300
2384.46553	0.95354
2382.41172	0.95368
2380.35792	0.95355
2378.30412	0.95324
2376.25031	0.95269
2374.19651	0.95234
2372.14271	0.95275
2370.08890	0.95309
2368.03510	0.95234
2365.98130	0.95166
2363.92749	0.95217
2361.87369	0.95300
2359.81989	0.95260
2357.76608	0.95116
2355.71228	0.95093
2353.65848	0.95203
2351.60467	0.95266
2349.55087	0.95276
2347.49707	0.95289
2345.44326	0.95265
2343.38946	0.95189
2341.33566	0.95207
2339.28186	0.95321
2337.22805	0.95331
2335.17425	0.95260
2333.12045	0.95227
2331.06664	0.95187
2329.01284	0.95142
2326.95904	0.95154
2324.90523	0.95230
2322.85143	0.95351
2320.79763	0.95397
2318.74382	0.95308
2316.69002	0.95209
2314.63622	0.95143
2312.58241	0.95093
2310.52861	0.95081
2308.47481	0.95109
2306.42100	0.95167
2304.36720	0.95207
2302.31340	0.95200
2300.25959	0.95181
2298.20579	0.95199
2296.15199	0.95268
2294.09818	0.95309
2292.04438	0.95260
2289.99058	0.95200
2287.93677	0.95183
2285.88297	0.95168
2283.82917	0.95165
2281.77537	0.95169
2279.72156	0.95145
2277.66776	0.95194
2275.61396	0.95369
2273.56015	0.95499
2271.50635	0.95457
2269.45255	0.95334
2267.39874	0.95260
2265.34494	0.95269
2263.29114	0.95279
2261.23733	0.95216
2259.18353	0.95181
2257.12973	0.95263
2255.07592	0.95337
2253.02212	0.95295
2250.96832	0.95200
2248.91451	0.95151
2246.86071	0.95137
2244.80691	0.95094
2242.75310	0.95088
2240.69930	0.95202
2238.64550	0.95280
2236.59169	0.95227
2234.53789	0.95274
2232.48409	0.95450
2230.43029	0.95528
2228.37648	0.95475
2226.32268	0.95417
2224.26888	0.95445
2222.21507	0.95524
2220.16127	0.95523
2218.10747	0.95384
2216.05366	0.95174
2213.99986	0.95111
2211.94606	0.95331
2209.89225	0.95637
2207.83845	0.95817
2205.78465	0.95826
2203.73084	0.95779
2201.67704	0.95803
2199.62324	0.95828
2197.56943	0.95789
2195.51563	0.95646
2193.46183	0.95458
2191.40802	0.95358
2189.35422	0.95319
2187.30042	0.95354
2185.24661	0.95480
2183.19281	0.95635
2181.13901	0.95771
2179.08520	0.95813
2177.03140	0.95817
2174.97760	0.95770
2172.92380	0.95612
2170.86999	0.95609
2168.81619	0.95806
2166.76239	0.95854
2164.70858	0.95739
2162.65478	0.95707
2160.60098	0.95823
2158.54717	0.96063
2156.49337	0.96274
2154.43957	0.96287
2152.38576	0.96125
2150.33196	0.95861
2148.27816	0.95654
2146.22435	0.95677
2144.17055	0.95774
2142.11675	0.95744
2140.06294	0.95583
2138.00914	0.95506
2135.95534	0.95679
2133.90153	0.95791
2131.84773	0.95742
2129.79393	0.95786
2127.74012	0.95899
2125.68632	0.95897
2123.63252	0.95782
2121.57871	0.95681
2119.52491	0.95548
2117.47111	0.95378
2115.41731	0.95343
2113.36350	0.95438
2111.30970	0.95529
2109.25590	0.95581
2107.20209	0.95607
2105.14829	0.95621
2103.09449	0.95631
2101.04068	0.95642
2098.98688	0.95635
2096.93308	0.95603
2094.87927	0.95616
2092.82547	0.95664
2090.77167	0.95646
2088.71786	0.95567
2086.66406	0.95493
2084.61026	0.95441
2082.55645	0.95452
2080.50265	0.95494
2078.44885	0.95525
2076.39504	0.95586
2074.34124	0.95625
2072.28744	0.95629
2070.23363	0.95666
2068.17983	0.95774
2066.12603	0.95898
2064.07223	0.95901
2062.01842	0.95850
2059.96462	0.95846
2057.91082	0.95787
2055.85701	0.95647
2053.80321	0.95594
2051.74941	0.95666
2049.69560	0.95670
2047.64180	0.95548
2045.58800	0.95521
2043.53419	0.95666
2041.48039	0.95862
2039.42659	0.95956
2037.37278	0.95866
2035.31898	0.95740
2033.26518	0.95738
2031.21137	0.95904
2029.15757	0.96028
2027.10377	0.95924
2025.04996	0.95814
2022.99616	0.95848
2020.94236	0.95931
2018.88855	0.96032
2016.83475	0.96024
2014.78095	0.95936
2012.72714	0.96067
2010.67334	0.96285
2008.61954	0.96291
2006.56574	0.96143
2004.51193	0.95991
2002.45813	0.95892
2000.40433	0.95850
1998.35052	0.95766
1996.29672	0.95610
1994.24292	0.95639
1992.18911	0.95972
1990.13531	0.96202
1988.08151	0.96020
1986.02770	0.95632
1983.97390	0.95402
1981.92010	0.95545
1979.86629	0.95863
1977.81249	0.96025
1975.75869	0.96055
1973.70488	0.95957
1971.65108	0.95766
1969.59728	0.95728
1967.54347	0.95866
1965.48967	0.95983
1963.43587	0.95977
1961.38206	0.95942
1959.32826	0.95950
1957.27446	0.95905
1955.22066	0.95732
1953.16685	0.95625
1951.11305	0.95703
1949.05925	0.95789
1947.00544	0.95815
1944.95164	0.95799
1942.89784	0.95698
1940.84403	0.95546
1938.79023	0.95453
1936.73643	0.95477
1934.68262	0.95499
1932.62882	0.95488
1930.57502	0.95596
1928.52121	0.95701
1926.46741	0.95690
1924.41361	0.95745
1922.35980	0.95816
1920.30600	0.95804
1918.25220	0.95785
1916.19839	0.95752
1914.14459	0.95736
1912.09079	0.95759
1910.03698	0.95760
1907.98318	0.95719
1905.92938	0.95632
1903.87557	0.95510
1901.82177	0.95484
1899.76797	0.95569
1897.71417	0.95602
1895.66036	0.95552
1893.60656	0.95550
1891.55276	0.95608
1889.49895	0.95631
1887.44515	0.95655
1885.39135	0.95687
1883.33754	0.95637
1881.28374	0.95516
1879.22994	0.95431
1877.17613	0.95438
1875.12233	0.95473
1873.06853	0.95467
1871.01472	0.95406
1868.96092	0.95304
1866.90712	0.95221
1864.85331	0.95235
1862.79951	0.95326
1860.74571	0.95370
1858.69190	0.95335
1856.63810	0.95344
1854.58430	0.95463
1852.53049	0.95594
1850.47669	0.95599
1848.42289	0.95518
1846.36908	0.95495
1844.31528	0.95526
1842.26148	0.95526
1840.20768	0.95517
1838.15387	0.95524
1836.10007	0.95541
1834.04627	0.95561
1831.99246	0.95579
1829.93866	0.95623
1827.88486	0.95651
1825.83105	0.95623
1823.77725	0.95567
1821.72345	0.95494
1819.66964	0.95460
1817.61584	0.95479
1815.56204	0.95475
1813.50823	0.95435
1811.45443	0.95399
1809.40063	0.95362
1807.34682	0.95311
1805.29302	0.95272
1803.23922	0.95250
1801.18541	0.95260
1799.13161	0.95305
1797.07781	0.95321
1795.02400	0.95330
1792.97020	0.95354
1790.91640	0.95362
1788.86260	0.95382
1786.80879	0.95427
1784.75499	0.95490
1782.70119	0.95536
1780.64738	0.95530
1778.59358	0.95499
1776.53978	0.95483
1774.48597	0.95473
1772.43217	0.95471
1770.37837	0.95505
1768.32456	0.95539
1766.27076	0.95530
1764.21696	0.95500
1762.16315	0.95485
1760.10935	0.95458
1758.05555	0.95405
1756.00174	0.95359
1753.94794	0.95339
1751.89414	0.95309
1749.84033	0.95232
1747.78653	0.95181
1745.73273	0.95188
1743.67892	0.95183
1741.62512	0.95160
1739.57132	0.95155
1737.51751	0.95178
1735.46371	0.95249
1733.40991	0.95297
1731.35611	0.95241
1729.30230	0.95193
1727.24850	0.95153
1725.19470	0.95094
1723.14089	0.95071
1721.08709	0.95130
1719.03329	0.95184
1716.97948	0.95113
1714.92568	0.95036
1712.87188	0.95039
1710.81807	0.95050
1708.76427	0.95080
1706.71047	0.95149
1704.65666	0.95216
1702.60286	0.95240
1700.54906	0.95220
1698.49525	0.95140
1696.44145	0.95007
1694.38765	0.94908
1692.33384	0.94884
1690.28004	0.94867
1688.22624	0.94840
1686.17243	0.94812
1684.11863	0.94722
1682.06483	0.94600
1680.01103	0.94555
1677.95722	0.94527
1675.90342	0.94457
1673.84962	0.94366
1671.79581	0.94309
1669.74201	0.94270
1667.68821	0.94242
1665.63440	0.94221
1663.58060	0.94178
1661.52680	0.94116
1659.47299	0.94088
1657.41919	0.94105
1655.36539	0.94141
1653.31158	0.94113
1651.25778	0.94006
1649.20398	0.93957
1647.15017	0.93928
1645.09637	0.93935
1643.04257	0.93981
1640.98876	0.94028
1638.93496	0.94079
1636.88116	0.94120
1634.82735	0.94114
1632.77355	0.94120
1630.71975	0.94140
1628.66594	0.94134
1626.61214	0.94105
1624.55834	0.94086
1622.50454	0.94124
1620.45073	0.94209
1618.39693	0.94288
1616.34313	0.94333
1614.28932	0.94324
1612.23552	0.94284
1610.18172	0.94202
1608.12791	0.94017
1606.07411	0.93686
1604.02031	0.93243
1601.96650	0.92837
1599.91270	0.92742
1597.85890	0.93011
1595.80509	0.93419
1593.75129	0.93748
1591.69749	0.93949
1589.64368	0.94065
1587.58988	0.94108
1585.53608	0.94061
1583.48227	0.93996
1581.42847	0.94046
1579.37467	0.94219
1577.32086	0.94415
1575.26706	0.94518
1573.21326	0.94518
1571.15945	0.94511
1569.10565	0.94543
1567.05185	0.94586
1564.99805	0.94618
1562.94424	0.94670
1560.89044	0.94744
1558.83664	0.94778
1556.78283	0.94672
1554.72903	0.94610
1552.67523	0.94608
1550.62142	0.94602
1548.56762	0.94570
1546.51382	0.94532
1544.46001	0.94488
1542.40621	0.94451
1540.35241	0.94415
1538.29860	0.94384
1536.24480	0.94393
1534.19100	0.94417
1532.13719	0.94415
1530.08339	0.94393
1528.02959	0.94377
1525.97578	0.94361
1523.92198	0.94360
1521.86818	0.94342
1519.81437	0.94291
1517.76057	0.94267
1515.70677	0.94269
1513.65297	0.94269
1511.59916	0.94259
1509.54536	0.94223
1507.49156	0.94087
1505.43775	0.93980
1503.38395	0.93993
1501.33015	0.93932
1499.27634	0.93563
1497.22254	0.92326
1495.16874	0.90324
1493.11493	0.88962
1491.06113	0.88930
1489.00733	0.90211
1486.95352	0.91455
1484.89972	0.92056
1482.84592	0.92368
1480.79211	0.92576
1478.73831	0.92748
1476.68451	0.92906
1474.63070	0.93027
1472.57690	0.93069
1470.52310	0.93081
1468.46929	0.93117
1466.41549	0.93151
1464.36169	0.93166
1462.30788	0.93185
1460.25408	0.93150
1458.20028	0.92663
1456.14648	0.90973
1454.09267	0.89310
1452.03887	0.88509
1449.98507	0.88592
1447.93126	0.89336
1445.87746	0.90126
1443.82366	0.90694
1441.76985	0.91155
1439.71605	0.91549
1437.66225	0.91914
1435.60844	0.92258
1433.55464	0.92501
1431.50084	0.92705
1429.44703	0.92898
1427.39323	0.93060
1425.33943	0.93206
1423.28562	0.93336
1421.23182	0.93439
1419.17802	0.93540
1417.12421	0.93624
1415.07041	0.93689
1413.01661	0.93776
1410.96280	0.93878
1408.90900	0.93965
1406.85520	0.94053
1404.80139	0.94155
1402.74759	0.94238
1400.69379	0.94303
1398.63999	0.94372
1396.58618	0.94433
1394.53238	0.94437
1392.47858	0.94396
1390.42477	0.94379
1388.37097	0.94373
1386.31717	0.94323
1384.26336	0.94260
1382.20956	0.94226
1380.15576	0.94193
1378.10195	0.94150
1376.04815	0.94112
1373.99435	0.94076
1371.94054	0.94051
1369.88674	0.94033
1367.83294	0.94017
1365.77913	0.94032
1363.72533	0.94092
1361.67153	0.94175
1359.61772	0.94230
1357.56392	0.94254
1355.51012	0.94271
1353.45631	0.94295
1351.40251	0.94335
1349.34871	0.94383
1347.29491	0.94426
1345.24110	0.94443
1343.18730	0.94441
1341.13350	0.94463
1339.07969	0.94502
1337.02589	0.94505
1334.97209	0.94482
1332.91828	0.94458
1330.86448	0.94431
1328.81068	0.94418
1326.75687	0.94433
1324.70307	0.94443
1322.64927	0.94433
1320.59546	0.94444
1318.54166	0.94489
1316.48786	0.94519
1314.43405	0.94506
1312.38025	0.94468
1310.32645	0.94439
1308.27264	0.94452
1306.21884	0.94508
1304.16504	0.94578
1302.11123	0.94615
1300.05743	0.94600
1298.00363	0.94588
1295.94982	0.94605
1293.89602	0.94614
1291.84222	0.94614
1289.78842	0.94609
1287.73461	0.94592
1285.68081	0.94572
1283.62701	0.94553
1281.57320	0.94535
1279.51940	0.94522
1277.46560	0.94502
1275.41179	0.94479
1273.35799	0.94471
1271.30419	0.94454
1269.25038	0.94416
1267.19658	0.94405
1265.14278	0.94422
1263.08897	0.94442
1261.03517	0.94468
1258.98137	0.94480
1256.92756	0.94467
1254.87376	0.94443
1252.81996	0.94428
1250.76615	0.94417
1248.71235	0.94392
1246.65855	0.94354
1244.60474	0.94310
1242.55094	0.94278
1240.49714	0.94277
1238.44334	0.94281
1236.38953	0.94268
1234.33573	0.94225
1232.28193	0.94163
1230.22812	0.94116
1228.17432	0.94076
1226.12052	0.94018
1224.06671	0.93949
1222.01291	0.93889
1219.95911	0.93840
1217.90530	0.93753
1215.85150	0.93600
1213.79770	0.93409
1211.74389	0.93223
1209.69009	0.93056
1207.63629	0.92882
1205.58248	0.92674
1203.52868	0.92439
1201.47488	0.92192
1199.42107	0.91949
1197.36727	0.91701
1195.31347	0.91447
1193.25966	0.91197
1191.20586	0.90961
1189.15206	0.90722
1187.09825	0.90437
1185.04445	0.90103
1182.99065	0.89756
1180.93685	0.89447
1178.88304	0.89217
1176.82924	0.89040
1174.77544	0.88861
1172.72163	0.88655
1170.66783	0.88401
1168.61403	0.88125
1166.56022	0.87866
1164.50642	0.87617
1162.45262	0.87420
1160.39881	0.87278
1158.34501	0.87115
1156.29121	0.86905
1154.23740	0.86687
1152.18360	0.86527
1150.12980	0.86438
1148.07599	0.86370
1146.02219	0.86264
1143.96839	0.86112
1141.91458	0.85966
1139.86078	0.85824
1137.80698	0.85643
1135.75317	0.85424
1133.69937	0.85185
1131.64557	0.84939
1129.59176	0.84673
1127.53796	0.84382
1125.48416	0.84033
1123.43036	0.83601
1121.37655	0.83130
1119.32275	0.82619
1117.26895	0.82035
1115.21514	0.81441
1113.16134	0.80920
1111.10754	0.80460
1109.05373	0.80040
1106.99993	0.79652
1104.94613	0.79280
1102.89232	0.78937
1100.83852	0.78643
1098.78472	0.78382
1096.73091	0.78102
1094.67711	0.77808
1092.62331	0.77567
1090.56950	0.77399
1088.51570	0.77251
1086.46190	0.77051
1084.40809	0.76800
1082.35429	0.76569
1080.30049	0.76374
1078.24668	0.76159
1076.19288	0.75866
1074.13908	0.75518
1072.08528	0.75173
1070.03147	0.74816
1067.97767	0.74394
1065.92387	0.73942
1063.87006	0.73530
1061.81626	0.73137
1059.76246	0.72713
1057.70865	0.72263
1055.65485	0.71791
1053.60105	0.71253
1051.54724	0.70621
1049.49344	0.69910
1047.43964	0.69139
1045.38583	0.68299
1043.33203	0.67406
1041.27823	0.66492
1039.22442	0.65560
1037.17062	0.64595
1035.11682	0.63595
1033.06301	0.62609
1031.00921	0.61685
1028.95541	0.60875
1026.90160	0.60263
1024.84780	0.59898
1022.79400	0.59725
1020.74019	0.59599
1018.68639	0.59418
1016.63259	0.59181
1014.57879	0.58916
1012.52498	0.58627
1010.47118	0.58328
1008.41738	0.58045
1006.36357	0.57778
1004.30977	0.57561
1002.25597	0.57499
1000.20216	0.57611
998.14836	0.57826
996.09456	0.58112
994.04075	0.58473
991.98695	0.58875
989.93315	0.59295
987.87934	0.59792
985.82554	0.60373
983.77174	0.61004
981.71793	0.61684
979.66413	0.62443
977.61033	0.63339
975.55652	0.64342
973.50272	0.65372
971.44892	0.66405
969.39511	0.67418
967.34131	0.68395
965.28751	0.69361
963.23371	0.70319
961.17990	0.71235
959.12610	0.72067
957.07230	0.72821
955.01849	0.73520
952.96469	0.74140
950.91089	0.74681
948.85708	0.75169
946.80328	0.75608
944.74948	0.75967
942.69567	0.76291
940.64187	0.76662
938.58807	0.77038
936.53426	0.77382
934.48046	0.77747
932.42666	0.78139
930.37285	0.78495
928.31905	0.78776
926.26525	0.78969
924.21144	0.79090
922.15764	0.79167
920.10384	0.79197
918.05003	0.79153
915.99623	0.78993
913.94243	0.78760
911.88862	0.78594
909.83482	0.78579
907.78102	0.78730
905.72722	0.79096
903.67341	0.79738
901.61961	0.80581
899.56581	0.81443
897.51200	0.82221
895.45820	0.82899
893.40440	0.83473
891.35059	0.83970
889.29679	0.84414
887.24299	0.84761
885.18918	0.84986
883.13538	0.85153
881.08158	0.85282
879.02777	0.85383
876.97397	0.85547
874.92017	0.85832
872.86636	0.86248
870.81256	0.86673
868.75876	0.86941
866.70495	0.87090
864.65115	0.87203
862.59735	0.87321
860.54354	0.87522
858.48974	0.87819
856.43594	0.88132
854.38213	0.88413
852.32833	0.88596
850.27453	0.88635
848.22073	0.88614
846.16692	0.88541
844.11312	0.88386
842.05932	0.88278
840.00551	0.88267
837.95171	0.88263
835.89791	0.88243
833.84410	0.88259
831.79030	0.88291
829.73650	0.88314
827.68269	0.88384
825.62889	0.88477
823.57509	0.88522
821.52128	0.88520
819.46748	0.88534
817.41368	0.88613
815.35987	0.88667
813.30607	0.88609
811.25227	0.88449
809.19846	0.88180
807.14466	0.87756
805.09086	0.87218
803.03705	0.86644
800.98325	0.86162
798.92945	0.85932
796.87565	0.85944
794.82184	0.86075
792.76804	0.86204
790.71424	0.86255
788.66043	0.86228
786.60663	0.86165
784.55283	0.86049
782.49902	0.85785
780.44522	0.85435
778.39142	0.85149
776.33761	0.84919
774.28381	0.84620
772.23001	0.84134
770.17620	0.83414
768.12240	0.82549
766.06860	0.81602
764.01479	0.80558
761.96099	0.79530
759.90719	0.78633
757.85338	0.77875
755.79958	0.77355
753.74578	0.77185
751.69197	0.77269
749.63817	0.77396
747.58437	0.77562
745.53056	0.78032
743.47676	0.78967
741.42296	0.80183
739.36916	0.81452
737.31535	0.82665
735.26155	0.83712
733.20775	0.84548
731.15394	0.85165
729.10014	0.85599
727.04634	0.85971
724.99253	0.86329
722.93873	0.86644
720.88493	0.86922
718.83112	0.87171
716.77732	0.87311
714.72352	0.87274
712.66971	0.87013
710.61591	0.86274
708.56211	0.84644
706.50830	0.81825
704.45450	0.77580
702.40070	0.71949
700.34689	0.65504
698.29309	0.59349
696.23929	0.55681
694.18548	0.56811
692.13168	0.62086
690.07788	0.68207
688.02408	0.72777
685.97027	0.75527
683.91647	0.77160
681.86267	0.78295
679.80886	0.79106
677.75506	0.79615
675.70126	0.79962
673.64745	0.80261
671.59365	0.80516
669.53985	0.80708
667.48604	0.80844
665.43224	0.81001
663.37844	0.81201
661.32463	0.81358
659.27083	0.81389
657.21703	0.81348
655.16322	0.81261
653.10942	0.81128
651.05562	0.80991
649.00181	0.80875
646.94801	0.80826
644.89421	0.80878
642.84040	0.81044
640.78660	0.81292
638.73280	0.81546
636.67899	0.81728
634.62519	0.81847
632.57139	0.81939
630.51759	0.81972
628.46378	0.81927
626.40998	0.81906
624.35618	0.81955
622.30237	0.81915
620.24857	0.81654
618.19477	0.81232
616.14096	0.80859
614.08716	0.80666
612.03336	0.80500
609.97955	0.80259
607.92575	0.80088
605.87195	0.79964
603.81814	0.79710
601.76434	0.79339
599.71054	0.78890
597.65673	0.78417
595.60293	0.78039
593.54913	0.77761
591.49532	0.77530
589.44152	0.77369
587.38772	0.77314
585.33391	0.77276
583.28011	0.77152
581.22631	0.77002
579.17250	0.76792
577.11870	0.76398
575.06490	0.75917
573.01110	0.75503
570.95729	0.75139
568.90349	0.74687
566.84969	0.74045
564.79588	0.73293
562.74208	0.72499
560.68828	0.71639
558.63447	0.70770
556.58067	0.70000
554.52687	0.69411
552.47306	0.68873
550.41926	0.68057
548.36546	0.66873
546.31165	0.65541
544.25785	0.64188
542.20405	0.62852
540.15024	0.61687
538.09644	0.60684
536.04264	0.59807
533.98883	0.59252
531.93503	0.59185
529.88123	0.59548
527.82742	0.60040
525.77362	0.60447
523.71982	0.60704
521.66602	0.60936
519.61221	0.61343
517.55841	0.61926
515.50461	0.62606
513.45080	0.63389
511.39700	0.64168
509.34320	0.64708
507.28939	0.65046
505.23559	0.65398
503.18179	0.65784
501.12798	0.66031
499.07418	0.66042
497.02038	0.65887
494.96657	0.65615
492.91277	0.65223
490.85897	0.64615
488.80516	0.63782
486.75136	0.62756
484.69756	0.61447
482.64375	0.59781
480.58995	0.57921
478.53615	0.56123
476.48234	0.54507
474.42854	0.53006
472.37474	0.51498
470.32093	0.50223
468.26713	0.49346
466.21333	0.48929
464.15953	0.49089
462.10572	0.49609
460.05192	0.50304
457.99812	0.51148
455.94431	0.51891
453.89051	0.52549
451.83671	0.53413
449.78290	0.54157
447.72910	0.54508
445.67530	0.54722
443.62149	0.54802
441.56769	0.54629
439.51389	0.54328
437.46008	0.54165
435.40628	0.54363
433.35248	0.54443
431.29867	0.53924
429.24487	0.53279
427.19107	0.52963
425.13726	0.53088
423.08346	0.53591
421.02966	0.53869
418.97585	0.54023
416.92205	0.54637
414.86825	0.55258
412.81445	0.55923
410.76064	0.56663
408.70684	0.57348
406.65304	0.58084
404.59923	0.58530
402.54543	0.58270
400.49163	0.57676
398.43782	0.57442
