3996.70104	0.99084
3994.64724	0.99048
3992.59344	0.99078
3990.53964	0.99118
3988.48583	0.99126
3986.43203	0.99099
3984.37823	0.99065
3982.32442	0.99056
3980.27062	0.99099
3978.21682	0.99153
3976.16301	0.99182
3974.10921	0.99182
3972.05541	0.99163
3970.00160	0.99162
3967.94780	0.99152
3965.89400	0.99131
3963.84019	0.99131
3961.78639	0.99131
3959.73259	0.99143
3957.67878	0.99171
3955.62498	0.99170
3953.57118	0.99152
3951.51737	0.99163
3949.46357	0.99179
3947.40977	0.99164
3945.35596	0.99140
3943.30216	0.99150
3941.24836	0.99200
3939.19455	0.99237
3937.14075	0.99232
3935.08695	0.99200
3933.03315	0.99151
3930.97934	0.99088
3928.92554	0.99044
3926.87174	0.99063
3924.81793	0.99164
3922.76413	0.99278
3920.71033	0.99269
3918.65652	0.99200
3916.60272	0.99192
3914.54892	0.99175
3912.49511	0.99120
3910.44131	0.99093
3908.38751	0.99099
3906.33370	0.99124
3904.27990	0.99161
3902.22610	0.99195
3900.17229	0.99221
3898.11849	0.99191
3896.06469	0.99131
3894.01088	0.99125
3891.95708	0.99140
3889.90328	0.99118
3887.84947	0.99098
3885.79567	0.99115
3883.74187	0.99154
3881.68807	0.99146
3879.63426	0.99120
3877.58046	0.99142
3875.52666	0.99139
3873.47285	0.99123
3871.41905	0.99154
3869.36525	0.99197
3867.31144	0.99226
3865.25764	0.99205
3863.20384	0.99164
3861.15003	0.99177
3859.09623	0.99218
3857.04243	0.99253
3854.98862	0.99230
3852.93482	0.99138
3850.88102	0.99134
3848.82721	0.99159
3846.77341	0.99143
3844.71961	0.99116
3842.66580	0.99116
3840.61200	0.99150
3838.55820	0.99220
3836.50439	0.99276
3834.45059	0.99254
3832.39679	0.99230
3830.34298	0.99253
3828.28918	0.99248
3826.23538	0.99208
3824.18158	0.99198
3822.12777	0.99165
3820.07397	0.99063
3818.02017	0.99044
3815.96636	0.99105
3813.91256	0.99144
3811.85876	0.99176
3809.80495	0.99238
3807.75115	0.99311
3805.69735	0.99345
3803.64354	0.99335
3801.58974	0.99340
3799.53594	0.99339
3797.48213	0.99247
3795.42833	0.99156
3793.37453	0.99182
3791.32072	0.99244
3789.26692	0.99258
3787.21312	0.99239
3785.15931	0.99215
3783.10551	0.99184
3781.05171	0.99176
3778.99790	0.99163
3776.94410	0.99112
3774.89030	0.99077
3772.83650	0.99095
3770.78269	0.99186
3768.72889	0.99271
3766.67509	0.99258
3764.62128	0.99213
3762.56748	0.99180
3760.51368	0.99147
3758.45987	0.99136
3756.40607	0.99157
3754.35227	0.99143
3752.29846	0.99125
3750.24466	0.99201
3748.19086	0.99271
3746.13705	0.99324
3744.08325	0.99369
3742.02945	0.99309
3739.97564	0.99244
3737.92184	0.99214
3735.86804	0.99221
3733.81423	0.99288
3731.76043	0.99254
3729.70663	0.99161
3727.65282	0.99169
3725.59902	0.99255
3723.54522	0.99291
3721.49141	0.99215
3719.43761	0.99124
3717.38381	0.99104
3715.33001	0.99123
3713.27620	0.99134
3711.22240	0.99097
3709.16860	0.99026
3707.11479	0.98981
3705.06099	0.98931
3703.00719	0.98855
3700.95338	0.98816
3698.89958	0.98804
3696.84578	0.98779
3694.79197	0.98826
3692.73817	0.98937
3690.68437	0.98973
3688.63056	0.98879
3686.57676	0.98769
3684.52296	0.98758
3682.46915	0.98825
3680.41535	0.98887
3678.36155	0.98864
3676.30774	0.98687
3674.25394	0.98521
3672.20014	0.98559
3670.14633	0.98587
3668.09253	0.98554
3666.03873	0.98581
3663.98492	0.98621
3661.93112	0.98616
3659.87732	0.98565
3657.82352	0.98466
3655.76971	0.98353
3653.71591	0.98321
3651.66211	0.98350
3649.60830	0.98322
3647.55450	0.98212
3645.50070	0.98143
3643.44689	0.98081
3641.39309	0.97996
3639.33929	0.97923
3637.28548	0.97856
3635.23168	0.97778
3633.17788	0.97763
3631.12407	0.97790
3629.07027	0.97665
3627.01647	0.97412
3624.96266	0.97280
3622.90886	0.97288
3620.85506	0.97369
3618.80125	0.97365
3616.74745	0.97304
3614.69365	0.97330
3612.63984	0.97410
3610.58604	0.97476
3608.53224	0.97480
3606.47844	0.97373
3604.42463	0.97286
3602.37083	0.97345
3600.31703	0.97412
3598.26322	0.97338
3596.20942	0.97241
3594.15562	0.97182
3592.10181	0.97115
3590.04801	0.97065
3587.99421	0.97031
3585.94040	0.97020
3583.88660	0.97009
3581.83280	0.96948
3579.77899	0.96887
3577.72519	0.96850
3575.67139	0.96793
3573.61758	0.96746
3571.56378	0.96747
3569.50998	0.96780
3567.45617	0.96767
3565.40237	0.96650
3563.34857	0.96559
3561.29476	0.96513
3559.24096	0.96464
3557.18716	0.96431
3555.13335	0.96402
3553.07955	0.96357
3551.02575	0.96311
3548.97195	0.96269
3546.91814	0.96224
3544.86434	0.96189
3542.81054	0.96181
3540.75673	0.96160
3538.70293	0.96096
3536.64913	0.96036
3534.59532	0.96000
3532.54152	0.95951
3530.48772	0.95888
3528.43391	0.95846
3526.38011	0.95813
3524.32631	0.95758
3522.27250	0.95776
3520.21870	0.95875
3518.16490	0.95881
3516.11109	0.95774
3514.05729	0.95665
3512.00349	0.95621
3509.94968	0.95637
3507.89588	0.95615
3505.84208	0.95540
3503.78827	0.95484
3501.73447	0.95456
3499.68067	0.95433
3497.62687	0.95407
3495.57306	0.95409
3493.51926	0.95427
3491.46546	0.95429
3489.41165	0.95402
3487.35785	0.95337
3485.30405	0.95278
3483.25024	0.95223
3481.19644	0.95115
3479.14264	0.95018
3477.08883	0.95002
3475.03503	0.95005
3472.98123	0.94954
3470.92742	0.94851
3468.87362	0.94762
3466.81982	0.94760
3464.76601	0.94799
3462.71221	0.94768
3460.65841	0.94699
3458.60460	0.94642
3456.55080	0.94569
3454.49700	0.94516
3452.44319	0.94515
3450.38939	0.94510
3448.33559	0.94462
3446.28178	0.94403
3444.22798	0.94377
3442.17418	0.94367
3440.12038	0.94331
3438.06657	0.94262
3436.01277	0.94169
3433.95897	0.94101
3431.90516	0.94096
3429.85136	0.94093
3427.79756	0.94042
3425.74375	0.93986
3423.68995	0.93960
3421.63615	0.93926
3419.58234	0.93848
3417.52854	0.93759
3415.47474	0.93711
3413.42093	0.93715
3411.36713	0.93737
3409.31333	0.93715
3407.25952	0.93669
3405.20572	0.93648
3403.15192	0.93623
3401.09811	0.93572
3399.04431	0.93555
3396.99051	0.93589
3394.93670	0.93587
3392.88290	0.93559
3390.82910	0.93545
3388.77529	0.93522
3386.72149	0.93534
3384.66769	0.93562
3382.61389	0.93520
3380.56008	0.93431
3378.50628	0.93369
3376.45248	0.93371
3374.39867	0.93372
3372.34487	0.93323
3370.29107	0.93315
3368.23726	0.93350
3366.18346	0.93359
3364.12966	0.93345
3362.07585	0.93323
3360.02205	0.93302
3357.96825	0.93289
3355.91444	0.93277
3353.86064	0.93257
3351.80684	0.93226
3349.75303	0.93201
3347.69923	0.93206
3345.64543	0.93221
3343.59162	0.93239
3341.53782	0.93248
3339.48402	0.93220
3337.43021	0.93223
3335.37641	0.93274
3333.32261	0.93299
3331.26881	0.93296
3329.21500	0.93274
3327.16120	0.93256
3325.10740	0.93297
3323.05359	0.93350
3320.99979	0.93340
3318.94599	0.93300
3316.89218	0.93312
3314.83838	0.93385
3312.78458	0.93414
3310.73077	0.93373
3308.67697	0.93358
3306.62317	0.93381
3304.56936	0.93406
3302.51556	0.93433
3300.46176	0.93452
3298.40795	0.93463
3296.35415	0.93472
3294.30035	0.93495
3292.24654	0.93518
3290.19274	0.93502
3288.13894	0.93486
3286.08513	0.93524
3284.03133	0.93558
3281.97753	0.93529
3279.92372	0.93481
3277.86992	0.93488
3275.81612	0.93549
3273.76232	0.93586
3271.70851	0.93577
3269.65471	0.93605
3267.60091	0.93662
3265.54710	0.93685
3263.49330	0.93689
3261.43950	0.93706
3259.38569	0.93748
3257.33189	0.93775
3255.27809	0.93768
3253.22428	0.93798
3251.17048	0.93868
3249.11668	0.93909
3247.06287	0.93908
3245.00907	0.93873
3242.95527	0.93863
3240.90146	0.93948
3238.84766	0.94025
3236.79386	0.94024
3234.74005	0.94024
3232.68625	0.94036
3230.63245	0.94055
3228.57864	0.94111
3226.52484	0.94162
3224.47104	0.94195
3222.41724	0.94245
3220.36343	0.94264
3218.30963	0.94241
3216.25583	0.94271
3214.20202	0.94346
3212.14822	0.94388
3210.09442	0.94395
3208.04061	0.94422
3205.98681	0.94490
3203.93301	0.94526
3201.87920	0.94506
3199.82540	0.94482
3197.77160	0.94489
3195.71779	0.94563
3193.66399	0.94694
3191.61019	0.94804
3189.55638	0.94860
3187.50258	0.94888
3185.44878	0.94881
3183.39497	0.94851
3181.34117	0.94844
3179.28737	0.94855
3177.23356	0.94868
3175.17976	0.94902
3173.12596	0.94952
3171.07215	0.95013
3169.01835	0.95090
3166.96455	0.95131
3164.91075	0.95126
3162.85694	0.95152
3160.80314	0.95212
3158.74934	0.95245
3156.69553	0.95255
3154.64173	0.95260
3152.58793	0.95276
3150.53412	0.95322
3148.48032	0.95368
3146.42652	0.95392
3144.37271	0.95405
3142.31891	0.95422
3140.26511	0.95451
3138.21130	0.95492
3136.15750	0.95542
3134.10370	0.95585
3132.04989	0.95624
3129.99609	0.95675
3127.94229	0.95725
3125.88848	0.95763
3123.83468	0.95795
3121.78088	0.95815
3119.72707	0.95828
3117.67327	0.95841
3115.61947	0.95863
3113.56566	0.95909
3111.51186	0.95985
3109.45806	0.96063
3107.40426	0.96111
3105.35045	0.96112
3103.29665	0.96112
3101.24285	0.96195
3099.18904	0.96291
3097.13524	0.96304
3095.08144	0.96316
3093.02763	0.96365
3090.97383	0.96386
3088.92003	0.96361
3086.86622	0.96339
3084.81242	0.96358
3082.75862	0.96409
3080.70481	0.96450
3078.65101	0.96446
3076.59721	0.96409
3074.54340	0.96395
3072.48960	0.96422
3070.43580	0.96466
3068.38199	0.96522
3066.32819	0.96542
3064.27439	0.96511
3062.22058	0.96526
3060.16678	0.96587
3058.11298	0.96619
3056.05918	0.96637
3054.00537	0.96672
3051.95157	0.96711
3049.89777	0.96749
3047.84396	0.96811
3045.79016	0.96871
3043.73636	0.96884
3041.68255	0.96877
3039.62875	0.96883
3037.57495	0.96888
3035.52114	0.96895
3033.46734	0.96932
3031.41354	0.96968
3029.35973	0.96971
3027.30593	0.96975
3025.25213	0.96990
3023.19832	0.97004
3021.14452	0.97028
3019.09072	0.97051
3017.03691	0.97067
3014.98311	0.97065
3012.92931	0.97039
3010.87550	0.97025
3008.82170	0.97037
3006.76790	0.97096
3004.71409	0.97196
3002.66029	0.97239
3000.60649	0.97214
2998.55269	0.97212
2996.49888	0.97223
2994.44508	0.97216
2992.39128	0.97227
2990.33747	0.97267
2988.28367	0.97310
2986.22987	0.97317
2984.17606	0.97271
2982.12226	0.97223
2980.06846	0.97204
2978.01465	0.97194
2975.96085	0.97182
2973.90705	0.97175
2971.85324	0.97164
2969.79944	0.97149
2967.74564	0.97140
2965.69183	0.97129
2963.63803	0.97140
2961.58423	0.97169
2959.53042	0.97181
2957.47662	0.97175
2955.42282	0.97151
2953.36901	0.97115
2951.31521	0.97095
2949.26141	0.97094
2947.20761	0.97058
2945.15380	0.96990
2943.10000	0.96967
2941.04620	0.96962
2938.99239	0.96909
2936.93859	0.96887
2934.88479	0.96937
2932.83098	0.96949
2930.77718	0.96897
2928.72338	0.96831
2926.66957	0.96786
2924.61577	0.96778
2922.56197	0.96769
2920.50816	0.96758
2918.45436	0.96769
2916.40056	0.96773
2914.34675	0.96783
2912.29295	0.96838
2910.23915	0.96900
2908.18534	0.96916
2906.13154	0.96931
2904.07774	0.96980
2902.02393	0.97002
2899.97013	0.97008
2897.91633	0.97037
2895.86252	0.97069
2893.80872	0.97099
2891.75492	0.97120
2889.70112	0.97132
2887.64731	0.97151
2885.59351	0.97159
2883.53971	0.97152
2881.48590	0.97143
2879.43210	0.97126
2877.37830	0.97144
2875.32449	0.97192
2873.27069	0.97224
2871.21689	0.97243
2869.16308	0.97257
2867.10928	0.97271
2865.05548	0.97282
2863.00167	0.97303
2860.94787	0.97340
2858.89407	0.97370
2856.84026	0.97395
2854.78646	0.97400
2852.73266	0.97389
2850.67885	0.97432
2848.62505	0.97521
2846.57125	0.97562
2844.51744	0.97560
2842.46364	0.97568
2840.40984	0.97585
2838.35603	0.97617
2836.30223	0.97676
2834.24843	0.97721
2832.19463	0.97745
2830.14082	0.97770
2828.08702	0.97795
2826.03322	0.97833
2823.97941	0.97869
2821.92561	0.97873
2819.87181	0.97878
2817.81800	0.97914
2815.76420	0.97931
2813.71040	0.97907
2811.65659	0.97894
2809.60279	0.97919
2807.54899	0.97972
2805.49518	0.98020
2803.44138	0.98020
2801.38758	0.98004
2799.33377	0.98035
2797.27997	0.98060
2795.22617	0.98030
2793.17236	0.98026
2791.11856	0.98077
2789.06476	0.98108
2787.01095	0.98091
2784.95715	0.98058
2782.90335	0.98062
2780.84955	0.98119
2778.79574	0.98152
2776.74194	0.98139
2774.68814	0.98128
2772.63433	0.98110
2770.58053	0.98104
2768.52673	0.98151
2766.47292	0.98193
2764.41912	0.98189
2762.36532	0.98174
2760.31151	0.98175
2758.25771	0.98210
2756.20391	0.98262
2754.15010	0.98284
2752.09630	0.98280
2750.04250	0.98266
2747.98869	0.98241
2745.93489	0.98227
2743.88109	0.98234
2741.82728	0.98265
2739.77348	0.98325
2737.71968	0.98360
2735.66587	0.98340
2733.61207	0.98310
2731.55827	0.98296
2729.50446	0.98303
2727.45066	0.98322
2725.39686	0.98333
2723.34306	0.98321
2721.28925	0.98296
2719.23545	0.98289
2717.18165	0.98319
2715.12784	0.98357
2713.07404	0.98359
2711.02024	0.98343
2708.96643	0.98344
2706.91263	0.98370
2704.85883	0.98392
2702.80502	0.98392
2700.75122	0.98395
2698.69742	0.98398
2696.64361	0.98367
2694.58981	0.98329
2692.53601	0.98328
2690.48220	0.98361
2688.42840	0.98397
2686.37460	0.98411
2684.32079	0.98423
2682.26699	0.98456
2680.21319	0.98486
2678.15938	0.98518
2676.10558	0.98536
2674.05178	0.98514
2671.99797	0.98508
2669.94417	0.98537
2667.89037	0.98550
2665.83657	0.98518
2663.78276	0.98476
2661.72896	0.98470
2659.67516	0.98463
2657.62135	0.98422
2655.56755	0.98411
2653.51375	0.98459
2651.45994	0.98493
2649.40614	0.98486
2647.35234	0.98488
2645.29853	0.98492
2643.24473	0.98470
2641.19093	0.98474
2639.13712	0.98500
2637.08332	0.98492
2635.02952	0.98480
2632.97571	0.98517
2630.92191	0.98561
2628.86811	0.98550
2626.81430	0.98545
2624.76050	0.98584
2622.70670	0.98586
2620.65289	0.98526
2618.59909	0.98482
2616.54529	0.98504
2614.49149	0.98544
2612.43768	0.98567
2610.38388	0.98603
2608.33008	0.98670
2606.27627	0.98723
2604.22247	0.98729
2602.16867	0.98711
2600.11486	0.98687
2598.06106	0.98674
2596.00726	0.98674
2593.95345	0.98679
2591.89965	0.98681
2589.84585	0.98665
2587.79204	0.98631
2585.73824	0.98620
2583.68444	0.98663
2581.63063	0.98721
2579.57683	0.98756
2577.52303	0.98735
2575.46922	0.98665
2573.41542	0.98638
2571.36162	0.98667
2569.30781	0.98674
2567.25401	0.98663
2565.20021	0.98670
2563.14640	0.98677
2561.09260	0.98696
2559.03880	0.98769
2556.98500	0.98834
2554.93119	0.98819
2552.87739	0.98818
2550.82359	0.98865
2548.76978	0.98856
2546.71598	0.98776
2544.66218	0.98725
2542.60837	0.98756
2540.55457	0.98797
2538.50077	0.98794
2536.44696	0.98769
2534.39316	0.98745
2532.33936	0.98722
2530.28555	0.98710
2528.23175	0.98730
2526.17795	0.98776
2524.12414	0.98788
2522.07034	0.98726
2520.01654	0.98666
2517.96273	0.98708
2515.90893	0.98788
2513.85513	0.98786
2511.80132	0.98744
2509.74752	0.98768
2507.69372	0.98819
2505.63992	0.98792
2503.58611	0.98758
2501.53231	0.98821
2499.47851	0.98878
2497.42470	0.98868
2495.37090	0.98865
2493.31710	0.98888
2491.26329	0.98937
2489.20949	0.98972
2487.15569	0.98910
2485.10188	0.98819
2483.04808	0.98821
2480.99428	0.98874
2478.94047	0.98904
2476.88667	0.98914
2474.83287	0.98903
2472.77906	0.98874
2470.72526	0.98859
2468.67146	0.98859
2466.61765	0.98837
2464.56385	0.98805
2462.51005	0.98805
2460.45624	0.98823
2458.40244	0.98869
2456.34864	0.98940
2454.29483	0.98978
2452.24103	0.98995
2450.18723	0.99023
2448.13343	0.99029
2446.07962	0.98968
2444.02582	0.98891
2441.97202	0.98873
2439.91821	0.98882
2437.86441	0.98880
2435.81061	0.98889
2433.75680	0.98909
2431.70300	0.98932
2429.64920	0.98922
2427.59539	0.98888
2425.54159	0.98905
2423.48779	0.98958
2421.43398	0.98988
2419.38018	0.99006
2417.32638	0.99026
2415.27257	0.99004
2413.21877	0.98956
2411.16497	0.98930
2409.11116	0.98929
2407.05736	0.98941
2405.00356	0.98956
2402.94975	0.98990
2400.89595	0.99039
2398.84215	0.99078
2396.78834	0.99097
2394.73454	0.99068
2392.68074	0.99025
2390.62694	0.99030
2388.57313	0.99053
2386.51933	0.99053
2384.46553	0.99048
2382.41172	0.99067
2380.35792	0.99082
2378.30412	0.99036
2376.25031	0.98988
2374.19651	0.98982
2372.14271	0.98950
2370.08890	0.98917
2368.03510	0.98952
2365.98130	0.98984
2363.92749	0.98917
2361.87369	0.98786
2359.81989	0.98673
2357.76608	0.98635
2355.71228	0.98746
2353.65848	0.98903
2351.60467	0.98945
2349.55087	0.98885
2347.49707	0.98787
2345.44326	0.98738
2343.38946	0.98782
2341.33566	0.98842
2339.28186	0.98869
2337.22805	0.98869
2335.17425	0.98882
2333.12045	0.98836
2331.06664	0.98721
2329.01284	0.98683
2326.95904	0.98697
2324.90523	0.98660
2322.85143	0.98632
2320.79763	0.98686
2318.74382	0.98714
2316.69002	0.98662
2314.63622	0.98672
2312.58241	0.98783
2310.52861	0.98884
2308.47481	0.98864
2306.42100	0.98765
2304.36720	0.98736
2302.31340	0.98792
2300.25959	0.98848
2298.20579	0.98825
2296.15199	0.98759
2294.09818	0.98763
2292.04438	0.98826
2289.99058	0.98883
2287.93677	0.98921
2285.88297	0.98948
2283.82917	0.98944
2281.77537	0.98881
2279.72156	0.98796
2277.66776	0.98748
2275.61396	0.98803
2273.56015	0.98891
2271.50635	0.98848
2269.45255	0.98720
2267.39874	0.98678
2265.34494	0.98821
2263.29114	0.99004
2261.23733	0.99007
2259.18353	0.98937
2257.12973	0.98909
2255.07592	0.98890
2253.02212	0.98929
2250.96832	0.98998
2248.91451	0.98977
2246.86071	0.98929
2244.80691	0.98971
2242.75310	0.98990
2240.69930	0.98875
2238.64550	0.98803
2236.59169	0.98780
2234.53789	0.98694
2232.48409	0.98742
2230.43029	0.98917
2228.37648	0.99031
2226.32268	0.99055
2224.26888	0.98953
2222.21507	0.98842
2220.16127	0.98832
2218.10747	0.98815
2216.05366	0.98777
2213.99986	0.98785
2211.94606	0.98744
2209.89225	0.98667
2207.83845	0.98733
2205.78465	0.98861
2203.73084	0.98837
2201.67704	0.98856
2199.62324	0.98957
2197.56943	0.98837
2195.51563	0.98699
2193.46183	0.98747
2191.40802	0.98809
2189.35422	0.98807
2187.30042	0.98839
2185.24661	0.98938
2183.19281	0.98911
2181.13901	0.98752
2179.08520	0.98652
2177.03140	0.98671
2174.97760	0.98831
2172.92380	0.98965
2170.86999	0.98907
2168.81619	0.98938
2166.76239	0.99153
2164.70858	0.99156
2162.65478	0.98707
2160.60098	0.98396
2158.54717	0.98864
2156.49337	0.99358
2154.43957	0.99258
2152.38576	0.99013
2150.33196	0.99063
2148.27816	0.99291
2146.22435	0.99349
2144.17055	0.99347
2142.11675	0.99358
2140.06294	0.99207
2138.00914	0.99112
2135.95534	0.99266
2133.90153	0.99390
2131.84773	0.99335
2129.79393	0.99245
2127.74012	0.99278
2125.68632	0.99350
2123.63252	0.99248
2121.57871	0.99115
2119.52491	0.99160
2117.47111	0.99240
2115.41731	0.99221
2113.36350	0.99142
2111.30970	0.99029
2109.25590	0.99008
2107.20209	0.99100
2105.14829	0.99118
2103.09449	0.99052
2101.04068	0.98975
2098.98688	0.98862
2096.93308	0.98799
2094.87927	0.98818
2092.82547	0.98810
2090.77167	0.98822
2088.71786	0.98916
2086.66406	0.98973
2084.61026	0.98932
2082.55645	0.98870
2080.50265	0.98833
2078.44885	0.98833
2076.39504	0.98868
2074.34124	0.98959
2072.28744	0.99040
2070.23363	0.98966
2068.17983	0.98868
2066.12603	0.98964
2064.07223	0.99145
2062.01842	0.99167
2059.96462	0.99085
2057.91082	0.99037
2055.85701	0.98989
2053.80321	0.98935
2051.74941	0.98858
2049.69560	0.98764
2047.64180	0.98821
2045.58800	0.99037
2043.53419	0.99182
2041.48039	0.99142
2039.42659	0.98999
2037.37278	0.98845
2035.31898	0.98845
2033.26518	0.99060
2031.21137	0.99186
2029.15757	0.99063
2027.10377	0.98918
2025.04996	0.98900
2022.99616	0.98956
2020.94236	0.98964
2018.88855	0.98782
2016.83475	0.98519
2014.78095	0.98459
2012.72714	0.98622
2010.67334	0.98870
2008.61954	0.99055
2006.56574	0.99181
2004.51193	0.99278
2002.45813	0.99179
2000.40433	0.99050
1998.35052	0.99185
1996.29672	0.99359
1994.24292	0.99254
1992.18911	0.98961
1990.13531	0.98829
1988.08151	0.98971
1986.02770	0.99213
1983.97390	0.99279
1981.92010	0.98937
1979.86629	0.98512
1977.81249	0.98503
1975.75869	0.98862
1973.70488	0.99196
1971.65108	0.99360
1969.59728	0.99503
1967.54347	0.99527
1965.48967	0.99348
1963.43587	0.99219
1961.38206	0.99268
1959.32826	0.99351
1957.27446	0.99281
1955.22066	0.99121
1953.16685	0.99108
1951.11305	0.99199
1949.05925	0.99135
1947.00544	0.99033
1944.95164	0.99149
1942.89784	0.99257
1940.84403	0.99144
1938.79023	0.99055
1936.73643	0.99079
1934.68262	0.99099
1932.62882	0.99105
1930.57502	0.99120
1928.52121	0.99116
1926.46741	0.99082
1924.41361	0.99073
1922.35980	0.99088
1920.30600	0.99011
1918.25220	0.98862
1916.19839	0.98870
1914.14459	0.99025
1912.09079	0.99152
1910.03698	0.99188
1907.98318	0.99182
1905.92938	0.99254
1903.87557	0.99302
1901.82177	0.99208
1899.76797	0.99121
1897.71417	0.99113
1895.66036	0.99114
1893.60656	0.99113
1891.55276	0.99075
1889.49895	0.99006
1887.44515	0.99027
1885.39135	0.99083
1883.33754	0.99023
1881.28374	0.98949
1879.22994	0.99024
1877.17613	0.99150
1875.12233	0.99179
1873.06853	0.99147
1871.01472	0.99107
1868.96092	0.99075
1866.90712	0.99036
1864.85331	0.98973
1862.79951	0.98955
1860.74571	0.99027
1858.69190	0.99127
1856.63810	0.99133
1854.58430	0.99048
1852.53049	0.98960
1850.47669	0.98931
1848.42289	0.99018
1846.36908	0.99137
1844.31528	0.99156
1842.26148	0.99116
1840.20768	0.99078
1838.15387	0.99024
1836.10007	0.98981
1834.04627	0.98984
1831.99246	0.99018
1829.93866	0.99072
1827.88486	0.99113
1825.83105	0.99095
1823.77725	0.99039
1821.72345	0.99036
1819.66964	0.99089
1817.61584	0.99111
1815.56204	0.99088
1813.50823	0.99065
1811.45443	0.99045
1809.40063	0.99027
1807.34682	0.99022
1805.29302	0.99007
1803.23922	0.98989
1801.18541	0.98980
1799.13161	0.98939
1797.07781	0.98892
1795.02400	0.98885
1792.97020	0.98897
1790.91640	0.98932
1788.86260	0.98960
1786.80879	0.98946
1784.75499	0.98945
1782.70119	0.98989
1780.64738	0.99003
1778.59358	0.98955
1776.53978	0.98894
1774.48597	0.98877
1772.43217	0.98925
1770.37837	0.98963
1768.32456	0.98959
1766.27076	0.98955
1764.21696	0.98935
1762.16315	0.98870
1760.10935	0.98825
1758.05555	0.98856
1756.00174	0.98878
1753.94794	0.98857
1751.89414	0.98808
1749.84033	0.98713
1747.78653	0.98658
1745.73273	0.98661
1743.67892	0.98617
1741.62512	0.98509
1739.57132	0.98428
1737.51751	0.98430
1735.46371	0.98449
1733.40991	0.98412
1731.35611	0.98378
1729.30230	0.98345
1727.24850	0.98277
1725.19470	0.98238
1723.14089	0.98258
1721.08709	0.98264
1719.03329	0.98208
1716.97948	0.98142
1714.92568	0.98128
1712.87188	0.98118
1710.81807	0.98096
1708.76427	0.98099
1706.71047	0.98137
1704.65666	0.98163
1702.60286	0.98163
1700.54906	0.98115
1698.49525	0.98004
1696.44145	0.97935
1694.38765	0.97900
1692.33384	0.97832
1690.28004	0.97731
1688.22624	0.97668
1686.17243	0.97651
1684.11863	0.97568
1682.06483	0.97432
1680.01103	0.97346
1677.95722	0.97292
1675.90342	0.97217
1673.84962	0.97132
1671.79581	0.97084
1669.74201	0.96987
1667.68821	0.96847
1665.63440	0.96776
1663.58060	0.96726
1661.52680	0.96649
1659.47299	0.96552
1657.41919	0.96465
1655.36539	0.96439
1653.31158	0.96412
1651.25778	0.96278
1649.20398	0.96182
1647.15017	0.96066
1645.09637	0.95937
1643.04257	0.95891
1640.98876	0.95873
1638.93496	0.95859
1636.88116	0.95846
1634.82735	0.95772
1632.77355	0.95713
1630.71975	0.95710
1628.66594	0.95696
1626.61214	0.95669
1624.55834	0.95671
1622.50454	0.95674
1620.45073	0.95683
1618.39693	0.95694
1616.34313	0.95631
1614.28932	0.95552
1612.23552	0.95559
1610.18172	0.95603
1608.12791	0.95629
1606.07411	0.95623
1604.02031	0.95595
1601.96650	0.95580
1599.91270	0.95613
1597.85890	0.95675
1595.80509	0.95728
1593.75129	0.95795
1591.69749	0.95893
1589.64368	0.95997
1587.58988	0.96085
1585.53608	0.96154
1583.48227	0.96224
1581.42847	0.96314
1579.37467	0.96405
1577.32086	0.96495
1575.26706	0.96576
1573.21326	0.96636
1571.15945	0.96695
1569.10565	0.96772
1567.05185	0.96865
1564.99805	0.96947
1562.94424	0.97011
1560.89044	0.97058
1558.83664	0.97062
1556.78283	0.97026
1554.72903	0.97022
1552.67523	0.97064
1550.62142	0.97115
1548.56762	0.97127
1546.51382	0.97138
1544.46001	0.97174
1542.40621	0.97211
1540.35241	0.97163
1538.29860	0.97051
1536.24480	0.97060
1534.19100	0.97127
1532.13719	0.97122
1530.08339	0.97059
1528.02959	0.97027
1525.97578	0.97000
1523.92198	0.96921
1521.86818	0.96764
1519.81437	0.96600
1517.76057	0.96511
1515.70677	0.96462
1513.65297	0.96427
1511.59916	0.96405
1509.54536	0.96408
1507.49156	0.96398
1505.43775	0.96334
1503.38395	0.96301
1501.33015	0.96279
1499.27634	0.96238
1497.22254	0.96159
1495.16874	0.96076
1493.11493	0.96049
1491.06113	0.96042
1489.00733	0.95983
1486.95352	0.95877
1484.89972	0.95802
1482.84592	0.95774
1480.79211	0.95749
1478.73831	0.95704
1476.68451	0.95623
1474.63070	0.95515
1472.57690	0.95430
1470.52310	0.95393
1468.46929	0.95389
1466.41549	0.95378
1464.36169	0.95327
1462.30788	0.95285
1460.25408	0.95272
1458.20028	0.95216
1456.14648	0.95102
1454.09267	0.95037
1452.03887	0.95008
1449.98507	0.94994
1447.93126	0.94984
1445.87746	0.94962
1443.82366	0.94934
1441.76985	0.94907
1439.71605	0.94883
1437.66225	0.94810
1435.60844	0.94654
1433.55464	0.94550
1431.50084	0.94506
1429.44703	0.94466
1427.39323	0.94447
1425.33943	0.94463
1423.28562	0.94508
1421.23182	0.94567
1419.17802	0.94603
1417.12421	0.94622
1415.07041	0.94657
1413.01661	0.94715
1410.96280	0.94806
1408.90900	0.94905
1406.85520	0.94977
1404.80139	0.95022
1402.74759	0.95076
1400.69379	0.95140
1398.63999	0.95169
1396.58618	0.95178
1394.53238	0.95202
1392.47858	0.95214
1390.42477	0.95219
1388.37097	0.95218
1386.31717	0.95177
1384.26336	0.95104
1382.20956	0.95050
1380.15576	0.95031
1378.10195	0.95008
1376.04815	0.94946
1373.99435	0.94878
1371.94054	0.94824
1369.88674	0.94774
1367.83294	0.94742
1365.77913	0.94742
1363.72533	0.94747
1361.67153	0.94721
1359.61772	0.94669
1357.56392	0.94625
1355.51012	0.94597
1353.45631	0.94564
1351.40251	0.94548
1349.34871	0.94572
1347.29491	0.94594
1345.24110	0.94585
1343.18730	0.94571
1341.13350	0.94565
1339.07969	0.94569
1337.02589	0.94598
1334.97209	0.94633
1332.91828	0.94667
1330.86448	0.94714
1328.81068	0.94774
1326.75687	0.94832
1324.70307	0.94872
1322.64927	0.94909
1320.59546	0.94957
1318.54166	0.95019
1316.48786	0.95100
1314.43405	0.95189
1312.38025	0.95288
1310.32645	0.95407
1308.27264	0.95533
1306.21884	0.95654
1304.16504	0.95774
1302.11123	0.95879
1300.05743	0.95963
1298.00363	0.96045
1295.94982	0.96127
1293.89602	0.96191
1291.84222	0.96227
1289.78842	0.96252
1287.73461	0.96288
1285.68081	0.96319
1283.62701	0.96319
1281.57320	0.96289
1279.51940	0.96266
1277.46560	0.96282
1275.41179	0.96299
1273.35799	0.96266
1271.30419	0.96218
1269.25038	0.96208
1267.19658	0.96217
1265.14278	0.96224
1263.08897	0.96239
1261.03517	0.96232
1258.98137	0.96188
1256.92756	0.96147
1254.87376	0.96141
1252.81996	0.96151
1250.76615	0.96138
1248.71235	0.96105
1246.65855	0.96079
1244.60474	0.96074
1242.55094	0.96078
1240.49714	0.96085
1238.44334	0.96102
1236.38953	0.96104
1234.33573	0.96081
1232.28193	0.96074
1230.22812	0.96096
1228.17432	0.96117
1226.12052	0.96110
1224.06671	0.96059
1222.01291	0.95985
1219.95911	0.95926
1217.90530	0.95869
1215.85150	0.95793
1213.79770	0.95701
1211.74389	0.95580
1209.69009	0.95437
1207.63629	0.95312
1205.58248	0.95185
1203.52868	0.95030
1201.47488	0.94867
1199.42107	0.94719
1197.36727	0.94591
1195.31347	0.94478
1193.25966	0.94353
1191.20586	0.94179
1189.15206	0.93965
1187.09825	0.93753
1185.04445	0.93557
1182.99065	0.93365
1180.93685	0.93163
1178.88304	0.92953
1176.82924	0.92721
1174.77544	0.92423
1172.72163	0.92085
1170.66783	0.91781
1168.61403	0.91502
1166.56022	0.91217
1164.50642	0.90938
1162.45262	0.90718
1160.39881	0.90600
1158.34501	0.90526
1156.29121	0.90432
1154.23740	0.90356
1152.18360	0.90316
1150.12980	0.90274
1148.07599	0.90234
1146.02219	0.90166
1143.96839	0.90052
1141.91458	0.89962
1139.86078	0.89907
1137.80698	0.89837
1135.75317	0.89725
1133.69937	0.89568
1131.64557	0.89403
1129.59176	0.89240
1127.53796	0.89054
1125.48416	0.88840
1123.43036	0.88605
1121.37655	0.88372
1119.32275	0.88163
1117.26895	0.87952
1115.21514	0.87711
1113.16134	0.87457
1111.10754	0.87191
1109.05373	0.86916
1106.99993	0.86676
1104.94613	0.86481
1102.89232	0.86297
1100.83852	0.86115
1098.78472	0.85945
1096.73091	0.85804
1094.67711	0.85700
1092.62331	0.85612
1090.56950	0.85530
1088.51570	0.85433
1086.46190	0.85324
1084.40809	0.85231
1082.35429	0.85127
1080.30049	0.85031
1078.24668	0.84944
1076.19288	0.84827
1074.13908	0.84687
1072.08528	0.84526
1070.03147	0.84325
1067.97767	0.84116
1065.92387	0.83938
1063.87006	0.83742
1061.81626	0.83479
1059.76246	0.83194
1057.70865	0.82956
1055.65485	0.82759
1053.60105	0.82540
1051.54724	0.82314
1049.49344	0.82088
1047.43964	0.81792
1045.38583	0.81447
1043.33203	0.81123
1041.27823	0.80781
1039.22442	0.80411
1037.17062	0.80084
1035.11682	0.79796
1033.06301	0.79504
1031.00921	0.79230
1028.95541	0.79010
1026.90160	0.78844
1024.84780	0.78714
1022.79400	0.78601
1020.74019	0.78490
1018.68639	0.78371
1016.63259	0.78224
1014.57879	0.78063
1012.52498	0.77915
1010.47118	0.77746
1008.41738	0.77564
1006.36357	0.77449
1004.30977	0.77384
1002.25597	0.77304
1000.20216	0.77218
998.14836	0.77149
996.09456	0.77117
994.04075	0.77122
991.98695	0.77131
989.93315	0.77142
987.87934	0.77162
985.82554	0.77169
983.77174	0.77210
981.71793	0.77339
979.66413	0.77484
977.61033	0.77615
975.55652	0.77798
973.50272	0.78043
971.44892	0.78315
969.39511	0.78588
967.34131	0.78872
965.28751	0.79192
963.23371	0.79508
961.17990	0.79767
959.12610	0.80026
957.07230	0.80326
955.01849	0.80603
952.96469	0.80845
950.91089	0.81089
948.85708	0.81347
946.80328	0.81649
944.74948	0.81974
942.69567	0.82265
940.64187	0.82522
938.58807	0.82776
936.53426	0.83012
934.48046	0.83229
932.42666	0.83451
930.37285	0.83672
928.31905	0.83877
926.26525	0.84096
924.21144	0.84343
922.15764	0.84533
920.10384	0.84637
918.05003	0.84726
915.99623	0.84819
913.94243	0.84915
911.88862	0.85021
909.83482	0.85102
907.78102	0.85191
905.72722	0.85373
903.67341	0.85629
901.61961	0.85878
899.56581	0.86081
897.51200	0.86264
895.45820	0.86501
893.40440	0.86767
891.35059	0.87011
889.29679	0.87256
887.24299	0.87456
885.18918	0.87593
883.13538	0.87724
881.08158	0.87796
879.02777	0.87778
876.97397	0.87804
874.92017	0.87960
872.86636	0.88213
870.81256	0.88472
868.75876	0.88648
866.70495	0.88722
864.65115	0.88724
862.59735	0.88709
860.54354	0.88743
858.48974	0.88900
856.43594	0.89168
854.38213	0.89462
852.32833	0.89733
850.27453	0.89955
848.22073	0.90050
846.16692	0.90032
844.11312	0.90050
842.05932	0.90086
840.00551	0.90010
837.95171	0.89883
835.89791	0.89819
833.84410	0.89789
831.79030	0.89793
829.73650	0.89839
827.68269	0.89855
825.62889	0.89819
823.57509	0.89794
821.52128	0.89815
819.46748	0.89827
817.41368	0.89820
815.35987	0.89804
813.30607	0.89723
811.25227	0.89551
809.19846	0.89287
807.14466	0.88925
805.09086	0.88458
803.03705	0.87926
800.98325	0.87483
798.92945	0.87229
796.87565	0.87149
794.82184	0.87213
792.76804	0.87382
790.71424	0.87546
788.66043	0.87583
786.60663	0.87504
784.55283	0.87335
782.49902	0.87122
780.44522	0.86958
778.39142	0.86898
776.33761	0.86973
774.28381	0.87127
772.23001	0.87265
770.17620	0.87361
768.12240	0.87418
766.06860	0.87382
764.01479	0.87267
761.96099	0.87203
759.90719	0.87233
757.85338	0.87268
755.79958	0.87236
753.74578	0.87187
751.69197	0.87192
749.63817	0.87207
747.58437	0.87171
745.53056	0.87106
743.47676	0.87073
741.42296	0.87163
739.36916	0.87364
737.31535	0.87479
735.26155	0.87438
733.20775	0.87360
731.15394	0.87343
729.10014	0.87354
727.04634	0.87324
724.99253	0.87304
722.93873	0.87339
720.88493	0.87408
718.83112	0.87496
716.77732	0.87556
714.72352	0.87545
712.66971	0.87511
710.61591	0.87548
708.56211	0.87583
706.50830	0.87511
704.45450	0.87463
702.40070	0.87485
700.34689	0.87380
698.29309	0.87083
696.23929	0.86789
694.18548	0.86716
692.13168	0.86883
690.07788	0.87097
688.02408	0.87173
685.97027	0.87111
683.91647	0.87034
681.86267	0.87042
679.80886	0.87069
677.75506	0.86999
675.70126	0.86904
673.64745	0.86873
671.59365	0.86875
669.53985	0.86912
667.48604	0.86957
665.43224	0.86878
663.37844	0.86742
661.32463	0.86666
659.27083	0.86673
657.21703	0.86646
655.16322	0.86515
653.10942	0.86333
651.05562	0.86119
649.00181	0.85887
646.94801	0.85752
644.89421	0.85727
642.84040	0.85743
640.78660	0.85796
638.73280	0.85884
636.67899	0.85960
634.62519	0.86046
632.57139	0.86089
630.51759	0.85953
628.46378	0.85805
626.40998	0.85813
624.35618	0.85800
622.30237	0.85673
620.24857	0.85575
618.19477	0.85511
616.14096	0.85311
614.08716	0.84962
612.03336	0.84655
609.97955	0.84506
607.92575	0.84415
605.87195	0.84302
603.81814	0.84162
601.76434	0.83955
599.71054	0.83720
597.65673	0.83555
595.60293	0.83387
593.54913	0.83124
591.49532	0.82906
589.44152	0.82857
587.38772	0.82852
585.33391	0.82780
583.28011	0.82702
581.22631	0.82623
579.17250	0.82517
577.11870	0.82480
575.06490	0.82530
573.01110	0.82555
570.95729	0.82521
568.90349	0.82441
566.84969	0.82318
564.79588	0.82173
562.74208	0.82007
560.68828	0.81823
558.63447	0.81572
556.58067	0.81200
554.52687	0.80807
552.47306	0.80541
550.41926	0.80330
548.36546	0.80132
546.31165	0.79989
544.25785	0.79835
542.20405	0.79670
540.15024	0.79488
538.09644	0.79252
536.04264	0.78914
533.98883	0.78557
531.93503	0.78465
529.88123	0.78539
527.82742	0.78395
525.77362	0.78202
523.71982	0.78272
521.66602	0.78382
519.61221	0.78406
517.55841	0.78473
515.50461	0.78594
513.45080	0.78688
511.39700	0.78785
509.34320	0.78879
507.28939	0.78989
505.23559	0.79195
503.18179	0.79355
501.12798	0.79380
499.07418	0.79433
497.02038	0.79661
494.96657	0.79851
492.91277	0.79742
490.85897	0.79487
488.80516	0.79083
486.75136	0.78454
484.69756	0.78023
482.64375	0.77912
480.58995	0.77664
478.53615	0.77263
476.48234	0.76856
474.42854	0.76357
472.37474	0.75958
470.32093	0.75876
468.26713	0.75724
466.21333	0.75362
464.15953	0.75150
462.10572	0.75118
460.05192	0.75034
457.99812	0.74805
455.94431	0.74634
453.89051	0.74852
451.83671	0.75312
449.78290	0.75644
447.72910	0.75844
445.67530	0.76036
443.62149	0.76162
441.56769	0.76002
439.51389	0.75574
437.46008	0.75167
435.40628	0.74946
433.35248	0.74827
431.29867	0.74470
429.24487	0.73835
427.19107	0.73389
425.13726	0.73350
423.08346	0.73404
421.02966	0.73317
418.97585	0.73127
416.92205	0.73078
414.86825	0.72931
412.81445	0.72581
410.76064	0.72544
408.70684	0.72913
406.65304	0.73230
404.59923	0.73551
402.54543	0.73949
400.49163	0.73568
398.43782	0.72247
