3996.70104	0.99834
3994.64724	0.99846
3992.59344	0.99786
3990.53964	0.99718
3988.48583	0.99723
3986.43203	0.99798
3984.37823	0.99853
3982.32442	0.99854
3980.27062	0.99854
3978.21682	0.99827
3976.16301	0.99755
3974.10921	0.99726
3972.05541	0.99749
3970.00160	0.99769
3967.94780	0.99802
3965.89400	0.99846
3963.84019	0.99850
3961.78639	0.99837
3959.73259	0.99863
3957.67878	0.99887
3955.62498	0.99870
3953.57118	0.99857
3951.51737	0.99856
3949.46357	0.99833
3947.40977	0.99803
3945.35596	0.99795
3943.30216	0.99799
3941.24836	0.99809
3939.19455	0.99834
3937.14075	0.99849
3935.08695	0.99839
3933.03315	0.99832
3930.97934	0.99860
3928.92554	0.99902
3926.87174	0.99888
3924.81793	0.99802
3922.76413	0.99744
3920.71033	0.99761
3918.65652	0.99789
3916.60272	0.99783
3914.54892	0.99764
3912.49511	0.99782
3910.44131	0.99813
3908.38751	0.99824
3906.33370	0.99858
3904.27990	0.99909
3902.22610	0.99890
3900.17229	0.99856
3898.11849	0.99836
3896.06469	0.99791
3894.01088	0.99757
3891.95708	0.99807
3889.90328	0.99908
3887.84947	0.99916
3885.79567	0.99842
3883.74187	0.99784
3881.68807	0.99788
3879.63426	0.99822
3877.58046	0.99829
3875.52666	0.99804
3873.47285	0.99791
3871.41905	0.99821
3869.36525	0.99826
3867.31144	0.99815
3865.25764	0.99852
3863.20384	0.99889
3861.15003	0.99873
3859.09623	0.99830
3857.04243	0.99782
3854.98862	0.99760
3852.93482	0.99774
3850.88102	0.99743
3848.82721	0.99750
3846.77341	0.99780
3844.71961	0.99764
3842.66580	0.99750
3840.61200	0.99773
3838.55820	0.99810
3836.50439	0.99859
3834.45059	0.99880
3832.39679	0.99832
3830.34298	0.99760
3828.28918	0.99727
3826.23538	0.99732
3824.18158	0.99774
3822.12777	0.99805
3820.07397	0.99789
3818.02017	0.99792
3815.96636	0.99789
3813.91256	0.99773
3811.85876	0.99799
3809.80495	0.99821
3807.75115	0.99793
3805.69735	0.99797
3803.64354	0.99873
3801.58974	0.99934
3799.53594	0.99932
3797.48213	0.99921
3795.42833	0.99897
3793.37453	0.99856
3791.32072	0.99838
3789.26692	0.99809
3787.21312	0.99739
3785.15931	0.99705
3783.10551	0.99753
3781.05171	0.99827
3778.99790	0.99871
3776.94410	0.99857
3774.89030	0.99807
3772.83650	0.99754
3770.78269	0.99705
3768.72889	0.99674
3766.67509	0.99660
3764.62128	0.99680
3762.56748	0.99743
3760.51368	0.99801
3758.45987	0.99827
3756.40607	0.99816
3754.35227	0.99795
3752.29846	0.99795
3750.24466	0.99845
3748.19086	0.99934
3746.13705	0.99959
3744.08325	0.99875
3742.02945	0.99783
3739.97564	0.99736
3737.92184	0.99745
3735.86804	0.99774
3733.81423	0.99699
3731.76043	0.99633
3729.70663	0.99659
3727.65282	0.99740
3725.59902	0.99844
3723.54522	0.99882
3721.49141	0.99820
3719.43761	0.99717
3717.38381	0.99618
3715.33001	0.99543
3713.27620	0.99486
3711.22240	0.99414
3709.16860	0.99268
3707.11479	0.99131
3705.06099	0.99088
3703.00719	0.99038
3700.95338	0.98891
3698.89958	0.98799
3696.84578	0.98827
3694.79197	0.98833
3692.73817	0.98816
3690.68437	0.98949
3688.63056	0.99186
3686.57676	0.99273
3684.52296	0.99273
3682.46915	0.99278
3680.41535	0.99269
3678.36155	0.99230
3676.30774	0.99193
3674.25394	0.99160
3672.20014	0.99124
3670.14633	0.99144
3668.09253	0.99241
3666.03873	0.99318
3663.98492	0.99303
3661.93112	0.99184
3659.87732	0.99033
3657.82352	0.98953
3655.76971	0.98986
3653.71591	0.99045
3651.66211	0.99039
3649.60830	0.98934
3647.55450	0.98872
3645.50070	0.98889
3643.44689	0.98867
3641.39309	0.98826
3639.33929	0.98816
3637.28548	0.98859
3635.23168	0.98885
3633.17788	0.98842
3631.12407	0.98826
3629.07027	0.98887
3627.01647	0.98877
3624.96266	0.98798
3622.90886	0.98739
3620.85506	0.98694
3618.80125	0.98700
3616.74745	0.98762
3614.69365	0.98789
3612.63984	0.98789
3610.58604	0.98844
3608.53224	0.98937
3606.47844	0.98989
3604.42463	0.99014
3602.37083	0.99046
3600.31703	0.99044
3598.26322	0.99001
3596.20942	0.99005
3594.15562	0.99062
3592.10181	0.99060
3590.04801	0.98978
3587.99421	0.98888
3585.94040	0.98852
3583.88660	0.98846
3581.83280	0.98832
3579.77899	0.98798
3577.72519	0.98762
3575.67139	0.98746
3573.61758	0.98777
3571.56378	0.98807
3569.50998	0.98764
3567.45617	0.98717
3565.40237	0.98721
3563.34857	0.98741
3561.29476	0.98763
3559.24096	0.98739
3557.18716	0.98676
3555.13335	0.98626
3553.07955	0.98628
3551.02575	0.98659
3548.97195	0.98661
3546.91814	0.98653
3544.86434	0.98639
3542.81054	0.98632
3540.75673	0.98653
3538.70293	0.98629
3536.64913	0.98560
3534.59532	0.98524
3532.54152	0.98545
3530.48772	0.98573
3528.43391	0.98520
3526.38011	0.98441
3524.32631	0.98453
3522.27250	0.98517
3520.21870	0.98559
3518.16490	0.98568
3516.11109	0.98535
3514.05729	0.98508
3512.00349	0.98556
3509.94968	0.98586
3507.89588	0.98503
3505.84208	0.98423
3503.78827	0.98461
3501.73447	0.98556
3499.68067	0.98590
3497.62687	0.98582
3495.57306	0.98561
3493.51926	0.98527
3491.46546	0.98527
3489.41165	0.98540
3487.35785	0.98505
3485.30405	0.98464
3483.25024	0.98429
3481.19644	0.98395
3479.14264	0.98422
3477.08883	0.98472
3475.03503	0.98447
3472.98123	0.98394
3470.92742	0.98396
3468.87362	0.98434
3466.81982	0.98471
3464.76601	0.98463
3462.71221	0.98420
3460.65841	0.98406
3458.60460	0.98411
3456.55080	0.98400
3454.49700	0.98370
3452.44319	0.98362
3450.38939	0.98413
3448.33559	0.98456
3446.28178	0.98428
3444.22798	0.98378
3442.17418	0.98314
3440.12038	0.98248
3438.06657	0.98260
3436.01277	0.98310
3433.95897	0.98320
3431.90516	0.98317
3429.85136	0.98307
3427.79756	0.98282
3425.74375	0.98278
3423.68995	0.98272
3421.63615	0.98220
3419.58234	0.98171
3417.52854	0.98188
3415.47474	0.98214
3413.42093	0.98173
3411.36713	0.98130
3409.31333	0.98119
3407.25952	0.98099
3405.20572	0.98089
3403.15192	0.98118
3401.09811	0.98157
3399.04431	0.98139
3396.99051	0.98091
3394.93670	0.98089
3392.88290	0.98064
3390.82910	0.97996
3388.77529	0.97980
3386.72149	0.98012
3384.66769	0.98037
3382.61389	0.98051
3380.56008	0.98067
3378.50628	0.98079
3376.45248	0.98095
3374.39867	0.98142
3372.34487	0.98180
3370.29107	0.98161
3368.23726	0.98117
3366.18346	0.98091
3364.12966	0.98091
3362.07585	0.98098
3360.02205	0.98112
3357.96825	0.98139
3355.91444	0.98144
3353.86064	0.98129
3351.80684	0.98129
3349.75303	0.98153
3347.69923	0.98180
3345.64543	0.98192
3343.59162	0.98203
3341.53782	0.98207
3339.48402	0.98213
3337.43021	0.98250
3335.37641	0.98257
3333.32261	0.98211
3331.26881	0.98182
3329.21500	0.98155
3327.16120	0.98113
3325.10740	0.98096
3323.05359	0.98091
3320.99979	0.98105
3318.94599	0.98141
3316.89218	0.98165
3314.83838	0.98165
3312.78458	0.98179
3310.73077	0.98210
3308.67697	0.98199
3306.62317	0.98157
3304.56936	0.98164
3302.51556	0.98224
3300.46176	0.98266
3298.40795	0.98267
3296.35415	0.98261
3294.30035	0.98253
3292.24654	0.98247
3290.19274	0.98274
3288.13894	0.98284
3286.08513	0.98249
3284.03133	0.98220
3281.97753	0.98213
3279.92372	0.98235
3277.86992	0.98281
3275.81612	0.98297
3273.76232	0.98244
3271.70851	0.98168
3269.65471	0.98137
3267.60091	0.98149
3265.54710	0.98185
3263.49330	0.98238
3261.43950	0.98285
3259.38569	0.98302
3257.33189	0.98287
3255.27809	0.98266
3253.22428	0.98273
3251.17048	0.98335
3249.11668	0.98403
3247.06287	0.98418
3245.00907	0.98414
3242.95527	0.98398
3240.90146	0.98333
3238.84766	0.98283
3236.79386	0.98309
3234.74005	0.98332
3232.68625	0.98295
3230.63245	0.98283
3228.57864	0.98332
3226.52484	0.98372
3224.47104	0.98403
3222.41724	0.98446
3220.36343	0.98443
3218.30963	0.98390
3216.25583	0.98349
3214.20202	0.98344
3212.14822	0.98366
3210.09442	0.98378
3208.04061	0.98382
3205.98681	0.98434
3203.93301	0.98519
3201.87920	0.98562
3199.82540	0.98549
3197.77160	0.98519
3195.71779	0.98491
3193.66399	0.98499
3191.61019	0.98569
3189.55638	0.98623
3187.50258	0.98600
3185.44878	0.98565
3183.39497	0.98564
3181.34117	0.98573
3179.28737	0.98583
3177.23356	0.98590
3175.17976	0.98594
3173.12596	0.98613
3171.07215	0.98635
3169.01835	0.98633
3166.96455	0.98638
3164.91075	0.98684
3162.85694	0.98735
3160.80314	0.98753
3158.74934	0.98752
3156.69553	0.98757
3154.64173	0.98732
3152.58793	0.98675
3150.53412	0.98678
3148.48032	0.98750
3146.42652	0.98809
3144.37271	0.98833
3142.31891	0.98828
3140.26511	0.98791
3138.21130	0.98746
3136.15750	0.98741
3134.10370	0.98801
3132.04989	0.98868
3129.99609	0.98858
3127.94229	0.98812
3125.88848	0.98792
3123.83468	0.98780
3121.78088	0.98796
3119.72707	0.98857
3117.67327	0.98908
3115.61947	0.98931
3113.56566	0.98920
3111.51186	0.98869
3109.45806	0.98826
3107.40426	0.98834
3105.35045	0.98887
3103.29665	0.98937
3101.24285	0.98973
3099.18904	0.98998
3097.13524	0.98983
3095.08144	0.98950
3093.02763	0.98939
3090.97383	0.98921
3088.92003	0.98867
3086.86622	0.98860
3084.81242	0.98936
3082.75862	0.98973
3080.70481	0.98943
3078.65101	0.98930
3076.59721	0.98964
3074.54340	0.99032
3072.48960	0.99060
3070.43580	0.99028
3068.38199	0.99031
3066.32819	0.99074
3064.27439	0.99096
3062.22058	0.99083
3060.16678	0.99066
3058.11298	0.99066
3056.05918	0.99059
3054.00537	0.99063
3051.95157	0.99077
3049.89777	0.99073
3047.84396	0.99069
3045.79016	0.99056
3043.73636	0.99060
3041.68255	0.99115
3039.62875	0.99156
3037.57495	0.99154
3035.52114	0.99127
3033.46734	0.99075
3031.41354	0.99065
3029.35973	0.99116
3027.30593	0.99151
3025.25213	0.99130
3023.19832	0.99088
3021.14452	0.99054
3019.09072	0.99036
3017.03691	0.99062
3014.98311	0.99092
3012.92931	0.99052
3010.87550	0.98993
3008.82170	0.98987
3006.76790	0.99015
3004.71409	0.99027
3002.66029	0.98994
3000.60649	0.98961
2998.55269	0.98960
2996.49888	0.98955
2994.44508	0.98923
2992.39128	0.98890
2990.33747	0.98864
2988.28367	0.98808
2986.22987	0.98704
2984.17606	0.98566
2982.12226	0.98436
2980.06846	0.98322
2978.01465	0.98182
2975.96085	0.97970
2973.90705	0.97674
2971.85324	0.97301
2969.79944	0.96853
2967.74564	0.96362
2965.69183	0.95878
2963.63803	0.95393
2961.58423	0.94962
2959.53042	0.94705
2957.47662	0.94578
2955.42282	0.94450
2953.36901	0.94252
2951.31521	0.94040
2949.26141	0.94011
2947.20761	0.94275
2945.15380	0.94754
2943.10000	0.95282
2941.04620	0.95677
2938.99239	0.95850
2936.93859	0.95821
2934.88479	0.95608
2932.83098	0.95227
2930.77718	0.94743
2928.72338	0.94231
2926.66957	0.93747
2924.61577	0.93332
2922.56197	0.92984
2920.50816	0.92691
2918.45436	0.92489
2916.40056	0.92449
2914.34675	0.92592
2912.29295	0.92861
2910.23915	0.93186
2908.18534	0.93496
2906.13154	0.93783
2904.07774	0.94101
2902.02393	0.94440
2899.97013	0.94758
2897.91633	0.95046
2895.86252	0.95335
2893.80872	0.95618
2891.75492	0.95799
2889.70112	0.95865
2887.64731	0.95914
2885.59351	0.95966
2883.53971	0.95948
2881.48590	0.95845
2879.43210	0.95738
2877.37830	0.95710
2875.32449	0.95746
2873.27069	0.95755
2871.21689	0.95715
2869.16308	0.95651
2867.10928	0.95613
2865.05548	0.95724
2863.00167	0.96039
2860.94787	0.96457
2858.89407	0.96841
2856.84026	0.97090
2854.78646	0.97189
2852.73266	0.97183
2850.67885	0.97107
2848.62505	0.96978
2846.57125	0.96801
2844.51744	0.96558
2842.46364	0.96246
2840.40984	0.95940
2838.35603	0.95775
2836.30223	0.95888
2834.24843	0.96306
2832.19463	0.96883
2830.14082	0.97440
2828.08702	0.97878
2826.03322	0.98154
2823.97941	0.98308
2821.92561	0.98425
2819.87181	0.98521
2817.81800	0.98594
2815.76420	0.98643
2813.71040	0.98670
2811.65659	0.98717
2809.60279	0.98788
2807.54899	0.98848
2805.49518	0.98877
2803.44138	0.98917
2801.38758	0.98976
2799.33377	0.98994
2797.27997	0.98987
2795.22617	0.99008
2793.17236	0.99047
2791.11856	0.99072
2789.06476	0.99089
2787.01095	0.99112
2784.95715	0.99122
2782.90335	0.99117
2780.84955	0.99135
2778.79574	0.99176
2776.74194	0.99185
2774.68814	0.99173
2772.63433	0.99207
2770.58053	0.99264
2768.52673	0.99281
2766.47292	0.99269
2764.41912	0.99281
2762.36532	0.99323
2760.31151	0.99367
2758.25771	0.99395
2756.20391	0.99396
2754.15010	0.99382
2752.09630	0.99376
2750.04250	0.99367
2747.98869	0.99342
2745.93489	0.99312
2743.88109	0.99296
2741.82728	0.99294
2739.77348	0.99306
2737.71968	0.99328
2735.66587	0.99343
2733.61207	0.99332
2731.55827	0.99296
2729.50446	0.99276
2727.45066	0.99263
2725.39686	0.99235
2723.34306	0.99242
2721.28925	0.99281
2719.23545	0.99296
2717.18165	0.99281
2715.12784	0.99272
2713.07404	0.99303
2711.02024	0.99364
2708.96643	0.99399
2706.91263	0.99373
2704.85883	0.99335
2702.80502	0.99320
2700.75122	0.99308
2698.69742	0.99321
2696.64361	0.99365
2694.58981	0.99381
2692.53601	0.99373
2690.48220	0.99384
2688.42840	0.99410
2686.37460	0.99435
2684.32079	0.99439
2682.26699	0.99403
2680.21319	0.99382
2678.15938	0.99400
2676.10558	0.99407
2674.05178	0.99405
2671.99797	0.99407
2669.94417	0.99388
2667.89037	0.99363
2665.83657	0.99363
2663.78276	0.99389
2661.72896	0.99416
2659.67516	0.99419
2657.62135	0.99424
2655.56755	0.99432
2653.51375	0.99412
2651.45994	0.99391
2649.40614	0.99395
2647.35234	0.99413
2645.29853	0.99418
2643.24473	0.99394
2641.19093	0.99385
2639.13712	0.99430
2637.08332	0.99452
2635.02952	0.99434
2632.97571	0.99422
2630.92191	0.99408
2628.86811	0.99418
2626.81430	0.99449
2624.76050	0.99461
2622.70670	0.99454
2620.65289	0.99417
2618.59909	0.99366
2616.54529	0.99353
2614.49149	0.99365
2612.43768	0.99371
2610.38388	0.99388
2608.33008	0.99423
2606.27627	0.99444
2604.22247	0.99423
2602.16867	0.99369
2600.11486	0.99328
2598.06106	0.99350
2596.00726	0.99415
2593.95345	0.99453
2591.89965	0.99439
2589.84585	0.99434
2587.79204	0.99474
2585.73824	0.99531
2583.68444	0.99579
2581.63063	0.99567
2579.57683	0.99483
2577.52303	0.99399
2575.46922	0.99374
2573.41542	0.99416
2571.36162	0.99469
2569.30781	0.99497
2567.25401	0.99542
2565.20021	0.99609
2563.14640	0.99646
2561.09260	0.99639
2559.03880	0.99637
2556.98500	0.99649
2554.93119	0.99634
2552.87739	0.99620
2550.82359	0.99615
2548.76978	0.99566
2546.71598	0.99528
2544.66218	0.99549
2542.60837	0.99548
2540.55457	0.99510
2538.50077	0.99483
2536.44696	0.99489
2534.39316	0.99519
2532.33936	0.99531
2530.28555	0.99551
2528.23175	0.99587
2526.17795	0.99580
2524.12414	0.99564
2522.07034	0.99603
2520.01654	0.99658
2517.96273	0.99673
2515.90893	0.99645
2513.85513	0.99579
2511.80132	0.99510
2509.74752	0.99492
2507.69372	0.99515
2505.63992	0.99534
2503.58611	0.99568
2501.53231	0.99608
2499.47851	0.99603
2497.42470	0.99578
2495.37090	0.99577
2493.31710	0.99602
2491.26329	0.99612
2489.20949	0.99567
2487.15569	0.99520
2485.10188	0.99564
2483.04808	0.99636
2480.99428	0.99641
2478.94047	0.99653
2476.88667	0.99684
2474.83287	0.99658
2472.77906	0.99636
2470.72526	0.99654
2468.67146	0.99646
2466.61765	0.99580
2464.56385	0.99524
2462.51005	0.99524
2460.45624	0.99549
2458.40244	0.99597
2456.34864	0.99651
2454.29483	0.99670
2452.24103	0.99669
2450.18723	0.99696
2448.13343	0.99742
2446.07962	0.99732
2444.02582	0.99633
2441.97202	0.99548
2439.91821	0.99561
2437.86441	0.99615
2435.81061	0.99645
2433.75680	0.99635
2431.70300	0.99589
2429.64920	0.99543
2427.59539	0.99540
2425.54159	0.99586
2423.48779	0.99631
2421.43398	0.99654
2419.38018	0.99672
2417.32638	0.99670
2415.27257	0.99672
2413.21877	0.99710
2411.16497	0.99697
2409.11116	0.99631
2407.05736	0.99623
2405.00356	0.99648
2402.94975	0.99651
2400.89595	0.99637
2398.84215	0.99643
2396.78834	0.99696
2394.73454	0.99749
2392.68074	0.99739
2390.62694	0.99677
2388.57313	0.99628
2386.51933	0.99618
2384.46553	0.99619
2382.41172	0.99638
2380.35792	0.99689
2378.30412	0.99688
2376.25031	0.99629
2374.19651	0.99617
2372.14271	0.99600
2370.08890	0.99541
2368.03510	0.99577
2365.98130	0.99648
2363.92749	0.99641
2361.87369	0.99654
2359.81989	0.99646
2357.76608	0.99574
2355.71228	0.99554
2353.65848	0.99591
2351.60467	0.99656
2349.55087	0.99705
2347.49707	0.99700
2345.44326	0.99657
2343.38946	0.99614
2341.33566	0.99591
2339.28186	0.99600
2337.22805	0.99622
2335.17425	0.99587
2333.12045	0.99502
2331.06664	0.99506
2329.01284	0.99572
2326.95904	0.99516
2324.90523	0.99417
2322.85143	0.99440
2320.79763	0.99537
2318.74382	0.99582
2316.69002	0.99530
2314.63622	0.99448
2312.58241	0.99469
2310.52861	0.99571
2308.47481	0.99617
2306.42100	0.99607
2304.36720	0.99601
2302.31340	0.99616
2300.25959	0.99635
2298.20579	0.99626
2296.15199	0.99586
2294.09818	0.99514
2292.04438	0.99445
2289.99058	0.99407
2287.93677	0.99358
2285.88297	0.99360
2283.82917	0.99487
2281.77537	0.99614
2279.72156	0.99599
2277.66776	0.99499
2275.61396	0.99471
2273.56015	0.99492
2271.50635	0.99458
2269.45255	0.99405
2267.39874	0.99435
2265.34494	0.99587
2263.29114	0.99692
2261.23733	0.99618
2259.18353	0.99547
2257.12973	0.99555
2255.07592	0.99540
2253.02212	0.99539
2250.96832	0.99592
2248.91451	0.99609
2246.86071	0.99528
2244.80691	0.99410
2242.75310	0.99425
2240.69930	0.99621
2238.64550	0.99775
2236.59169	0.99754
2234.53789	0.99657
2232.48409	0.99620
2230.43029	0.99642
2228.37648	0.99654
2226.32268	0.99699
2224.26888	0.99763
2222.21507	0.99735
2220.16127	0.99631
2218.10747	0.99592
2216.05366	0.99621
2213.99986	0.99655
2211.94606	0.99639
2209.89225	0.99561
2207.83845	0.99534
2205.78465	0.99586
2203.73084	0.99653
2201.67704	0.99712
2199.62324	0.99770
2197.56943	0.99758
2195.51563	0.99641
2193.46183	0.99490
2191.40802	0.99329
2189.35422	0.99297
2187.30042	0.99522
2185.24661	0.99708
2183.19281	0.99591
2181.13901	0.99504
2179.08520	0.99672
2177.03140	0.99924
2174.97760	1.00008
2172.92380	0.99861
2170.86999	0.99754
2168.81619	0.99681
2166.76239	0.99415
2164.70858	0.99213
2162.65478	0.99420
2160.60098	0.99796
2158.54717	0.99952
2156.49337	1.00029
2154.43957	1.00168
2152.38576	1.00089
2150.33196	0.99857
2148.27816	0.99789
2146.22435	0.99848
2144.17055	0.99859
2142.11675	0.99837
2140.06294	0.99845
2138.00914	0.99856
2135.95534	0.99802
2133.90153	0.99679
2131.84773	0.99641
2129.79393	0.99739
2127.74012	0.99865
2125.68632	0.99943
2123.63252	0.99908
2121.57871	0.99774
2119.52491	0.99676
2117.47111	0.99614
2115.41731	0.99532
2113.36350	0.99535
2111.30970	0.99660
2109.25590	0.99802
2107.20209	0.99871
2105.14829	0.99883
2103.09449	0.99922
2101.04068	0.99930
2098.98688	0.99846
2096.93308	0.99778
2094.87927	0.99721
2092.82547	0.99611
2090.77167	0.99541
2088.71786	0.99546
2086.66406	0.99556
2084.61026	0.99559
2082.55645	0.99619
2080.50265	0.99746
2078.44885	0.99875
2076.39504	0.99895
2074.34124	0.99819
2072.28744	0.99768
2070.23363	0.99790
2068.17983	0.99882
2066.12603	0.99876
2064.07223	0.99754
2062.01842	0.99708
2059.96462	0.99702
2057.91082	0.99745
2055.85701	0.99857
2053.80321	0.99801
2051.74941	0.99536
2049.69560	0.99320
2047.64180	0.99302
2045.58800	0.99470
2043.53419	0.99685
2041.48039	0.99736
2039.42659	0.99554
2037.37278	0.99408
2035.31898	0.99520
2033.26518	0.99519
2031.21137	0.99299
2029.15757	0.99413
2027.10377	0.99788
2025.04996	0.99855
2022.99616	0.99715
2020.94236	0.99665
2018.88855	0.99599
2016.83475	0.99446
2014.78095	0.99439
2012.72714	0.99747
2010.67334	1.00039
2008.61954	1.00091
2006.56574	1.00120
2004.51193	1.00198
2002.45813	1.00200
2000.40433	1.00069
1998.35052	0.99899
1996.29672	0.99775
1994.24292	0.99802
1992.18911	1.00008
1990.13531	1.00133
1988.08151	0.99992
1986.02770	0.99719
1983.97390	0.99542
1981.92010	0.99452
1979.86629	0.99357
1977.81249	0.99307
1975.75869	0.99369
1973.70488	0.99483
1971.65108	0.99557
1969.59728	0.99661
1967.54347	0.99707
1965.48967	0.99646
1963.43587	0.99765
1961.38206	0.99970
1959.32826	0.99926
1957.27446	0.99713
1955.22066	0.99590
1953.16685	0.99624
1951.11305	0.99746
1949.05925	0.99868
1947.00544	0.99893
1944.95164	0.99824
1942.89784	0.99763
1940.84403	0.99748
1938.79023	0.99759
1936.73643	0.99844
1934.68262	0.99941
1932.62882	0.99896
1930.57502	0.99732
1928.52121	0.99657
1926.46741	0.99796
1924.41361	0.99935
1922.35980	0.99936
1920.30600	0.99935
1918.25220	0.99918
1916.19839	0.99859
1914.14459	0.99800
1912.09079	0.99713
1910.03698	0.99718
1907.98318	0.99833
1905.92938	0.99825
1903.87557	0.99719
1901.82177	0.99682
1899.76797	0.99692
1897.71417	0.99667
1895.66036	0.99659
1893.60656	0.99675
1891.55276	0.99624
1889.49895	0.99593
1887.44515	0.99652
1885.39135	0.99734
1883.33754	0.99797
1881.28374	0.99793
1879.22994	0.99752
1877.17613	0.99764
1875.12233	0.99804
1873.06853	0.99822
1871.01472	0.99832
1868.96092	0.99783
1866.90712	0.99645
1864.85331	0.99579
1862.79951	0.99632
1860.74571	0.99703
1858.69190	0.99729
1856.63810	0.99736
1854.58430	0.99768
1852.53049	0.99808
1850.47669	0.99802
1848.42289	0.99769
1846.36908	0.99752
1844.31528	0.99760
1842.26148	0.99737
1840.20768	0.99658
1838.15387	0.99610
1836.10007	0.99636
1834.04627	0.99674
1831.99246	0.99682
1829.93866	0.99648
1827.88486	0.99606
1825.83105	0.99627
1823.77725	0.99674
1821.72345	0.99661
1819.66964	0.99620
1817.61584	0.99636
1815.56204	0.99692
1813.50823	0.99695
1811.45443	0.99669
1809.40063	0.99669
1807.34682	0.99696
1805.29302	0.99720
1803.23922	0.99677
1801.18541	0.99612
1799.13161	0.99608
1797.07781	0.99628
1795.02400	0.99628
1792.97020	0.99603
1790.91640	0.99598
1788.86260	0.99627
1786.80879	0.99628
1784.75499	0.99588
1782.70119	0.99583
1780.64738	0.99625
1778.59358	0.99643
1776.53978	0.99642
1774.48597	0.99620
1772.43217	0.99531
1770.37837	0.99438
1768.32456	0.99429
1766.27076	0.99482
1764.21696	0.99548
1762.16315	0.99587
1760.10935	0.99577
1758.05555	0.99543
1756.00174	0.99494
1753.94794	0.99459
1751.89414	0.99470
1749.84033	0.99441
1747.78653	0.99332
1745.73273	0.99288
1743.67892	0.99302
1741.62512	0.99279
1739.57132	0.99214
1737.51751	0.99187
1735.46371	0.99188
1733.40991	0.99163
1731.35611	0.99161
1729.30230	0.99177
1727.24850	0.99172
1725.19470	0.99169
1723.14089	0.99187
1721.08709	0.99203
1719.03329	0.99198
1716.97948	0.99197
1714.92568	0.99213
1712.87188	0.99218
1710.81807	0.99187
1708.76427	0.99137
1706.71047	0.99093
1704.65666	0.99039
1702.60286	0.98979
1700.54906	0.98944
1698.49525	0.98945
1696.44145	0.98944
1694.38765	0.98899
1692.33384	0.98836
1690.28004	0.98756
1688.22624	0.98678
1686.17243	0.98656
1684.11863	0.98628
1682.06483	0.98553
1680.01103	0.98504
1677.95722	0.98462
1675.90342	0.98421
1673.84962	0.98388
1671.79581	0.98351
1669.74201	0.98310
1667.68821	0.98288
1665.63440	0.98275
1663.58060	0.98235
1661.52680	0.98147
1659.47299	0.98076
1657.41919	0.98067
1655.36539	0.98063
1653.31158	0.97975
1651.25778	0.97909
1649.20398	0.97926
1647.15017	0.97931
1645.09637	0.97928
1643.04257	0.97937
1640.98876	0.97926
1638.93496	0.97906
1636.88116	0.97913
1634.82735	0.97912
1632.77355	0.97884
1630.71975	0.97868
1628.66594	0.97868
1626.61214	0.97870
1624.55834	0.97841
1622.50454	0.97788
1620.45073	0.97776
1618.39693	0.97800
1616.34313	0.97833
1614.28932	0.97896
1612.23552	0.97983
1610.18172	0.98048
1608.12791	0.98061
1606.07411	0.98035
1604.02031	0.98008
1601.96650	0.98022
1599.91270	0.98075
1597.85890	0.98137
1595.80509	0.98198
1593.75129	0.98244
1591.69749	0.98256
1589.64368	0.98264
1587.58988	0.98302
1585.53608	0.98342
1583.48227	0.98360
1581.42847	0.98384
1579.37467	0.98415
1577.32086	0.98443
1575.26706	0.98461
1573.21326	0.98481
1571.15945	0.98512
1569.10565	0.98534
1567.05185	0.98547
1564.99805	0.98553
1562.94424	0.98539
1560.89044	0.98512
1558.83664	0.98478
1556.78283	0.98494
1554.72903	0.98514
1552.67523	0.98501
1550.62142	0.98505
1548.56762	0.98547
1546.51382	0.98572
1544.46001	0.98597
1542.40621	0.98686
1540.35241	0.98796
1538.29860	0.98779
1536.24480	0.98726
1534.19100	0.98692
1532.13719	0.98667
1530.08339	0.98664
1528.02959	0.98693
1525.97578	0.98731
1523.92198	0.98742
1521.86818	0.98752
1519.81437	0.98780
1517.76057	0.98806
1515.70677	0.98810
1513.65297	0.98806
1511.59916	0.98821
1509.54536	0.98840
1507.49156	0.98872
1505.43775	0.98912
1503.38395	0.98900
1501.33015	0.98887
1499.27634	0.98888
1497.22254	0.98856
1495.16874	0.98816
1493.11493	0.98814
1491.06113	0.98808
1489.00733	0.98763
1486.95352	0.98712
1484.89972	0.98684
1482.84592	0.98631
1480.79211	0.98521
1478.73831	0.98400
1476.68451	0.98275
1474.63070	0.98042
1472.57690	0.97565
1470.52310	0.96997
1468.46929	0.96525
1466.41549	0.96008
1464.36169	0.95371
1462.30788	0.94870
1460.25408	0.94579
1458.20028	0.94336
1456.14648	0.94163
1454.09267	0.94181
1452.03887	0.94289
1449.98507	0.94513
1447.93126	0.94980
1445.87746	0.95606
1443.82366	0.96171
1441.76985	0.96594
1439.71605	0.96816
1437.66225	0.96912
1435.60844	0.97052
1433.55464	0.97288
1431.50084	0.97567
1429.44703	0.97825
1427.39323	0.98001
1425.33943	0.98123
1423.28562	0.98195
1421.23182	0.98226
1419.17802	0.98254
1417.12421	0.98273
1415.07041	0.98279
1413.01661	0.98273
1410.96280	0.98253
1408.90900	0.98254
1406.85520	0.98296
1404.80139	0.98349
1402.74759	0.98390
1400.69379	0.98400
1398.63999	0.98383
1396.58618	0.98356
1394.53238	0.98337
1392.47858	0.98303
1390.42477	0.98226
1388.37097	0.98081
1386.31717	0.97755
1384.26336	0.97146
1382.20956	0.96198
1380.15576	0.94861
1378.10195	0.93344
1376.04815	0.92366
1373.99435	0.92755
1371.94054	0.94198
1369.88674	0.95606
1367.83294	0.96553
1365.77913	0.97010
1363.72533	0.97164
1361.67153	0.97153
1359.61772	0.97097
1357.56392	0.97172
1355.51012	0.97428
1353.45631	0.97749
1351.40251	0.97999
1349.34871	0.98164
1347.29491	0.98278
1345.24110	0.98347
1343.18730	0.98386
1341.13350	0.98411
1339.07969	0.98415
1337.02589	0.98412
1334.97209	0.98419
1332.91828	0.98432
1330.86448	0.98424
1328.81068	0.98393
1326.75687	0.98385
1324.70307	0.98419
1322.64927	0.98465
1320.59546	0.98483
1318.54166	0.98470
1316.48786	0.98473
1314.43405	0.98524
1312.38025	0.98576
1310.32645	0.98563
1308.27264	0.98494
1306.21884	0.98407
1304.16504	0.98346
1302.11123	0.98361
1300.05743	0.98418
1298.00363	0.98450
1295.94982	0.98473
1293.89602	0.98519
1291.84222	0.98564
1289.78842	0.98585
1287.73461	0.98599
1285.68081	0.98597
1283.62701	0.98566
1281.57320	0.98552
1279.51940	0.98553
1277.46560	0.98541
1275.41179	0.98525
1273.35799	0.98494
1271.30419	0.98433
1269.25038	0.98393
1267.19658	0.98408
1265.14278	0.98426
1263.08897	0.98399
1261.03517	0.98362
1258.98137	0.98322
1256.92756	0.98259
1254.87376	0.98233
1252.81996	0.98275
1250.76615	0.98348
1248.71235	0.98405
1246.65855	0.98412
1244.60474	0.98388
1242.55094	0.98363
1240.49714	0.98341
1238.44334	0.98321
1236.38953	0.98313
1234.33573	0.98319
1232.28193	0.98313
1230.22812	0.98303
1228.17432	0.98309
1226.12052	0.98309
1224.06671	0.98290
1222.01291	0.98255
1219.95911	0.98221
1217.90530	0.98203
1215.85150	0.98208
1213.79770	0.98236
1211.74389	0.98269
1209.69009	0.98269
1207.63629	0.98221
1205.58248	0.98166
1203.52868	0.98135
1201.47488	0.98121
1199.42107	0.98102
1197.36727	0.98058
1195.31347	0.98013
1193.25966	0.97974
1191.20586	0.97919
1189.15206	0.97852
1187.09825	0.97767
1185.04445	0.97662
1182.99065	0.97565
1180.93685	0.97468
1178.88304	0.97346
1176.82924	0.97195
1174.77544	0.96959
1172.72163	0.96610
1170.66783	0.96206
1168.61403	0.95849
1166.56022	0.95667
1164.50642	0.95672
1162.45262	0.95745
1160.39881	0.95807
1158.34501	0.95840
1156.29121	0.95842
1154.23740	0.95823
1152.18360	0.95793
1150.12980	0.95774
1148.07599	0.95773
1146.02219	0.95788
1143.96839	0.95795
1141.91458	0.95773
1139.86078	0.95745
1137.80698	0.95704
1135.75317	0.95633
1133.69937	0.95528
1131.64557	0.95384
1129.59176	0.95214
1127.53796	0.95039
1125.48416	0.94878
1123.43036	0.94709
1121.37655	0.94475
1119.32275	0.94192
1117.26895	0.93927
1115.21514	0.93713
1113.16134	0.93541
1111.10754	0.93370
1109.05373	0.93170
1106.99993	0.92945
1104.94613	0.92749
1102.89232	0.92660
1100.83852	0.92659
1098.78472	0.92657
1096.73091	0.92623
1094.67711	0.92568
1092.62331	0.92519
1090.56950	0.92494
1088.51570	0.92475
1086.46190	0.92467
1084.40809	0.92477
1082.35429	0.92496
1080.30049	0.92483
1078.24668	0.92402
1076.19288	0.92308
1074.13908	0.92224
1072.08528	0.92126
1070.03147	0.92026
1067.97767	0.91915
1065.92387	0.91763
1063.87006	0.91576
1061.81626	0.91374
1059.76246	0.91160
1057.70865	0.90924
1055.65485	0.90642
1053.60105	0.90294
1051.54724	0.89882
1049.49344	0.89454
1047.43964	0.89099
1045.38583	0.88829
1043.33203	0.88596
1041.27823	0.88396
1039.22442	0.88218
1037.17062	0.88044
1035.11682	0.87904
1033.06301	0.87794
1031.00921	0.87666
1028.95541	0.87567
1026.90160	0.87535
1024.84780	0.87494
1022.79400	0.87406
1020.74019	0.87323
1018.68639	0.87288
1016.63259	0.87282
1014.57879	0.87327
1012.52498	0.87447
1010.47118	0.87582
1008.41738	0.87725
1006.36357	0.87908
1004.30977	0.88086
1002.25597	0.88154
1000.20216	0.88071
998.14836	0.88061
996.09456	0.88424
994.04075	0.89090
991.98695	0.89778
989.93315	0.90369
987.87934	0.90849
985.82554	0.91208
983.77174	0.91483
981.71793	0.91696
979.66413	0.91812
977.61033	0.91773
975.55652	0.91553
973.50272	0.91338
971.44892	0.91490
969.39511	0.92090
967.34131	0.92815
965.28751	0.93388
963.23371	0.93796
961.17990	0.94089
959.12610	0.94318
957.07230	0.94494
955.01849	0.94613
952.96469	0.94682
950.91089	0.94723
948.85708	0.94802
946.80328	0.94914
944.74948	0.94989
942.69567	0.95007
940.64187	0.95001
938.58807	0.95032
936.53426	0.95111
934.48046	0.95185
932.42666	0.95206
930.37285	0.95177
928.31905	0.95148
926.26525	0.95162
924.21144	0.95177
922.15764	0.95136
920.10384	0.95042
918.05003	0.94943
915.99623	0.94871
913.94243	0.94841
911.88862	0.94876
909.83482	0.94960
907.78102	0.95060
905.72722	0.95152
903.67341	0.95149
901.61961	0.95063
899.56581	0.95104
897.51200	0.95356
895.45820	0.95646
893.40440	0.95865
891.35059	0.96055
889.29679	0.96178
887.24299	0.96215
885.18918	0.96250
883.13538	0.96341
881.08158	0.96439
879.02777	0.96437
876.97397	0.96384
874.92017	0.96417
872.86636	0.96504
870.81256	0.96545
868.75876	0.96548
866.70495	0.96538
864.65115	0.96538
862.59735	0.96596
860.54354	0.96709
858.48974	0.96812
856.43594	0.96860
854.38213	0.96886
852.32833	0.96899
850.27453	0.96885
848.22073	0.96824
846.16692	0.96609
844.11312	0.96102
842.05932	0.95449
840.00551	0.95208
837.95171	0.95582
835.89791	0.96125
833.84410	0.96520
831.79030	0.96736
829.73650	0.96752
827.68269	0.96683
825.62889	0.96708
823.57509	0.96792
821.52128	0.96810
819.46748	0.96790
817.41368	0.96759
815.35987	0.96658
813.30607	0.96440
811.25227	0.96151
809.19846	0.95989
807.14466	0.96083
805.09086	0.96307
803.03705	0.96464
800.98325	0.96490
798.92945	0.96426
796.87565	0.96358
794.82184	0.96368
792.76804	0.96406
790.71424	0.96431
788.66043	0.96504
786.60663	0.96584
784.55283	0.96573
782.49902	0.96530
780.44522	0.96541
778.39142	0.96627
776.33761	0.96699
774.28381	0.96645
772.23001	0.96525
770.17620	0.96426
768.12240	0.96371
766.06860	0.96336
764.01479	0.96309
761.96099	0.96294
759.90719	0.96280
757.85338	0.96249
755.79958	0.96193
753.74578	0.96184
751.69197	0.96226
749.63817	0.96241
747.58437	0.96232
745.53056	0.96243
743.47676	0.96268
741.42296	0.96305
739.36916	0.96370
737.31535	0.96430
735.26155	0.96491
733.20775	0.96571
731.15394	0.96579
729.10014	0.96508
727.04634	0.96491
724.99253	0.96560
722.93873	0.96648
720.88493	0.96671
718.83112	0.96574
716.77732	0.96419
714.72352	0.96292
712.66971	0.96189
710.61591	0.96046
708.56211	0.95871
706.50830	0.95746
704.45450	0.95641
702.40070	0.95477
700.34689	0.95265
698.29309	0.95058
696.23929	0.95000
694.18548	0.95108
692.13168	0.95120
690.07788	0.94986
688.02408	0.94935
685.97027	0.95021
683.91647	0.95113
681.86267	0.95074
679.80886	0.94948
677.75506	0.94957
675.70126	0.95020
673.64745	0.94938
671.59365	0.94820
669.53985	0.94755
667.48604	0.94833
665.43224	0.95061
663.37844	0.95219
661.32463	0.95292
659.27083	0.95357
657.21703	0.95382
655.16322	0.95323
653.10942	0.95248
651.05562	0.95225
649.00181	0.95188
646.94801	0.95098
644.89421	0.95049
642.84040	0.95053
640.78660	0.95069
638.73280	0.95106
636.67899	0.95201
634.62519	0.95324
632.57139	0.95407
630.51759	0.95389
628.46378	0.95285
626.40998	0.95213
624.35618	0.95237
622.30237	0.95226
620.24857	0.95066
618.19477	0.94904
616.14096	0.94855
614.08716	0.94817
612.03336	0.94757
609.97955	0.94706
607.92575	0.94635
605.87195	0.94509
603.81814	0.94327
601.76434	0.94195
599.71054	0.94246
597.65673	0.94372
595.60293	0.94392
593.54913	0.94321
591.49532	0.94232
589.44152	0.94107
587.38772	0.93953
585.33391	0.93822
583.28011	0.93694
581.22631	0.93669
579.17250	0.93778
577.11870	0.93739
575.06490	0.93488
573.01110	0.93313
570.95729	0.93325
568.90349	0.93313
566.84969	0.93125
564.79588	0.92858
562.74208	0.92671
560.68828	0.92612
558.63447	0.92518
556.58067	0.92257
554.52687	0.91998
552.47306	0.91897
550.41926	0.91773
548.36546	0.91469
546.31165	0.91178
544.25785	0.91023
542.20405	0.90846
540.15024	0.90599
538.09644	0.90326
536.04264	0.90042
533.98883	0.89849
531.93503	0.89844
529.88123	0.89990
527.82742	0.90217
525.77362	0.90464
523.71982	0.90617
521.66602	0.90699
519.61221	0.90831
517.55841	0.90967
515.50461	0.91009
513.45080	0.91099
511.39700	0.91302
509.34320	0.91446
507.28939	0.91444
505.23559	0.91373
503.18179	0.91425
501.12798	0.91568
499.07418	0.91598
497.02038	0.91611
494.96657	0.91712
492.91277	0.91868
490.85897	0.91877
488.80516	0.91596
486.75136	0.91113
484.69756	0.90467
482.64375	0.89880
480.58995	0.89512
478.53615	0.89136
476.48234	0.88661
474.42854	0.88156
472.37474	0.87520
470.32093	0.86914
468.26713	0.86493
466.21333	0.86120
464.15953	0.86041
462.10572	0.86178
460.05192	0.86076
457.99812	0.86188
455.94431	0.87035
453.89051	0.87764
451.83671	0.87649
449.78290	0.87176
447.72910	0.87369
445.67530	0.88133
443.62149	0.88588
441.56769	0.88654
439.51389	0.88601
437.46008	0.88430
435.40628	0.88252
433.35248	0.88194
431.29867	0.88159
429.24487	0.87915
427.19107	0.87560
425.13726	0.87800
423.08346	0.88878
421.02966	0.89778
418.97585	0.90054
416.92205	0.90196
414.86825	0.90423
412.81445	0.90846
410.76064	0.91115
408.70684	0.91029
406.65304	0.90991
404.59923	0.91003
402.54543	0.91114
400.49163	0.91848
398.43782	0.92806
