3996.71440	0.99606
3994.66059	0.99567
3992.60678	0.99525
3990.55297	0.99504
3988.49916	0.99513
3986.44535	0.99562
3984.39154	0.99593
3982.33773	0.99555
3980.28391	0.99505
3978.23010	0.99512
3976.17629	0.99560
3974.12248	0.99605
3972.06867	0.99608
3970.01486	0.99589
3967.96105	0.99592
3965.90724	0.99602
3963.85343	0.99590
3961.79962	0.99576
3959.74581	0.99600
3957.69200	0.99620
3955.63819	0.99595
3953.58438	0.99548
3951.53057	0.99523
3949.47676	0.99552
3947.42295	0.99603
3945.36914	0.99593
3943.31533	0.99549
3941.26152	0.99546
3939.20771	0.99564
3937.15390	0.99589
3935.10009	0.99604
3933.04628	0.99585
3930.99247	0.99573
3928.93866	0.99582
3926.88485	0.99594
3924.83104	0.99619
3922.77723	0.99651
3920.72342	0.99643
3918.66961	0.99604
3916.61580	0.99568
3914.56199	0.99553
3912.50818	0.99564
3910.45437	0.99581
3908.40056	0.99556
3906.34675	0.99449
3904.29294	0.99323
3902.23913	0.99321
3900.18532	0.99422
3898.13151	0.99513
3896.07770	0.99541
3894.02389	0.99509
3891.97008	0.99513
3889.91627	0.99596
3887.86246	0.99610
3885.80865	0.99527
3883.75484	0.99452
3881.70103	0.99398
3879.64722	0.99389
3877.59341	0.99423
3875.53960	0.99392
3873.48579	0.99314
3871.43198	0.99286
3869.37817	0.99377
3867.32436	0.99476
3865.27055	0.99473
3863.21674	0.99508
3861.16293	0.99604
3859.10912	0.99622
3857.05531	0.99527
3855.00150	0.99339
3852.94769	0.99280
3850.89388	0.99465
3848.84007	0.99618
3846.78626	0.99658
3844.73245	0.99593
3842.67864	0.99524
3840.62483	0.99525
3838.57102	0.99541
3836.51721	0.99538
3834.46340	0.99536
3832.40959	0.99551
3830.35578	0.99582
3828.30197	0.99595
3826.24816	0.99586
3824.19435	0.99566
3822.14054	0.99524
3820.08673	0.99496
3818.03292	0.99515
3815.97911	0.99569
3813.92530	0.99640
3811.87149	0.99684
3809.81768	0.99695
3807.76387	0.99661
3805.71006	0.99625
3803.65625	0.99613
3801.60244	0.99625
3799.54863	0.99664
3797.49482	0.99659
3795.44101	0.99634
3793.38720	0.99623
3791.33339	0.99612
3789.27958	0.99618
3787.22577	0.99656
3785.17196	0.99693
3783.11815	0.99717
3781.06434	0.99723
3779.01053	0.99689
3776.95672	0.99652
3774.90291	0.99655
3772.84910	0.99649
3770.79529	0.99565
3768.74148	0.99492
3766.68767	0.99539
3764.63386	0.99629
3762.58005	0.99669
3760.52624	0.99660
3758.47243	0.99654
3756.41862	0.99681
3754.36481	0.99675
3752.31100	0.99559
3750.25719	0.99467
3748.20338	0.99510
3746.14957	0.99567
3744.09576	0.99664
3742.04195	0.99742
3739.98814	0.99711
3737.93433	0.99601
3735.88052	0.99497
3733.82671	0.99510
3731.77290	0.99547
3729.71909	0.99565
3727.66528	0.99601
3725.61147	0.99635
3723.55766	0.99644
3721.50385	0.99613
3719.45004	0.99559
3717.39623	0.99524
3715.34242	0.99485
3713.28861	0.99376
3711.23480	0.99270
3709.18099	0.99349
3707.12718	0.99489
3705.07337	0.99478
3703.01956	0.99327
3700.96575	0.99250
3698.91194	0.99314
3696.85813	0.99392
3694.80432	0.99398
3692.75051	0.99310
3690.69670	0.99247
3688.64289	0.99295
3686.58907	0.99345
3684.53526	0.99371
3682.48145	0.99381
3680.42764	0.99347
3678.37383	0.99249
3676.32002	0.99115
3674.26621	0.99117
3672.21240	0.99203
3670.15859	0.99292
3668.10478	0.99443
3666.05097	0.99514
3663.99716	0.99492
3661.94335	0.99442
3659.88954	0.99380
3657.83573	0.99341
3655.78192	0.99312
3653.72811	0.99253
3651.67430	0.99158
3649.62049	0.99019
3647.56668	0.99013
3645.51287	0.99175
3643.45906	0.99260
3641.40525	0.99244
3639.35144	0.99247
3637.29763	0.99245
3635.24382	0.99162
3633.19001	0.99070
3631.13620	0.99016
3629.08239	0.98998
3627.02858	0.99081
3624.97477	0.99151
3622.92096	0.99133
3620.86715	0.99099
3618.81334	0.99103
3616.75953	0.99104
3614.70572	0.99068
3612.65191	0.99041
3610.59810	0.99050
3608.54429	0.99084
3606.49048	0.99097
3604.43667	0.99031
3602.38286	0.98970
3600.32905	0.98988
3598.27524	0.99037
3596.22143	0.99062
3594.16762	0.99064
3592.11381	0.99069
3590.06000	0.99062
3588.00619	0.99066
3585.95238	0.99142
3583.89857	0.99199
3581.84476	0.99186
3579.79095	0.99159
3577.73714	0.99151
3575.68333	0.99155
3573.62952	0.99169
3571.57571	0.99185
3569.52190	0.99174
3567.46809	0.99129
3565.41428	0.99112
3563.36047	0.99148
3561.30666	0.99178
3559.25285	0.99199
3557.19904	0.99225
3555.14523	0.99204
3553.09142	0.99159
3551.03761	0.99162
3548.98380	0.99156
3546.92999	0.99110
3544.87618	0.99083
3542.82237	0.99066
3540.76856	0.99058
3538.71475	0.99089
3536.66094	0.99118
3534.60713	0.99135
3532.55332	0.99142
3530.49951	0.99109
3528.44570	0.99067
3526.39189	0.99034
3524.33808	0.99008
3522.28427	0.99033
3520.23046	0.99091
3518.17665	0.99101
3516.12284	0.99068
3514.06903	0.99075
3512.01522	0.99087
3509.96141	0.99017
3507.90760	0.98944
3505.85379	0.98951
3503.79998	0.98989
3501.74617	0.99001
3499.69236	0.98986
3497.63855	0.98989
3495.58474	0.98986
3493.53093	0.98944
3491.47712	0.98922
3489.42331	0.98941
3487.36950	0.98973
3485.31569	0.98994
3483.26188	0.98954
3481.20807	0.98879
3479.15426	0.98900
3477.10045	0.98957
3475.04664	0.98915
3472.99283	0.98842
3470.93902	0.98799
3468.88521	0.98767
3466.83140	0.98775
3464.77759	0.98819
3462.72378	0.98825
3460.66997	0.98818
3458.61616	0.98847
3456.56235	0.98876
3454.50854	0.98898
3452.45473	0.98908
3450.40092	0.98883
3448.34711	0.98840
3446.29330	0.98837
3444.23949	0.98856
3442.18568	0.98842
3440.13187	0.98823
3438.07806	0.98817
3436.02425	0.98801
3433.97044	0.98780
3431.91663	0.98789
3429.86282	0.98818
3427.80901	0.98816
3425.75520	0.98795
3423.70139	0.98793
3421.64758	0.98788
3419.59377	0.98795
3417.53996	0.98834
3415.48615	0.98842
3413.43234	0.98831
3411.37853	0.98899
3409.32472	0.98993
3407.27091	0.98986
3405.21710	0.98914
3403.16329	0.98856
3401.10948	0.98820
3399.05567	0.98812
3397.00186	0.98829
3394.94805	0.98856
3392.89424	0.98887
3390.84042	0.98912
3388.78661	0.98916
3386.73280	0.98881
3384.67899	0.98813
3382.62518	0.98754
3380.57137	0.98736
3378.51756	0.98763
3376.46375	0.98820
3374.40994	0.98818
3372.35613	0.98751
3370.30232	0.98733
3368.24851	0.98745
3366.19470	0.98735
3364.14089	0.98747
3362.08708	0.98763
3360.03327	0.98749
3357.97946	0.98749
3355.92565	0.98779
3353.87184	0.98824
3351.81803	0.98850
3349.76422	0.98823
3347.71041	0.98764
3345.65660	0.98755
3343.60279	0.98818
3341.54898	0.98851
3339.49517	0.98809
3337.44136	0.98768
3335.38755	0.98792
3333.33374	0.98843
3331.27993	0.98843
3329.22612	0.98796
3327.17231	0.98757
3325.11850	0.98762
3323.06469	0.98790
3321.01088	0.98807
3318.95707	0.98835
3316.90326	0.98866
3314.84945	0.98865
3312.79564	0.98855
3310.74183	0.98831
3308.68802	0.98787
3306.63421	0.98770
3304.58040	0.98779
3302.52659	0.98791
3300.47278	0.98770
3298.41897	0.98697
3296.36516	0.98630
3294.31135	0.98626
3292.25754	0.98670
3290.20373	0.98725
3288.14992	0.98755
3286.09611	0.98727
3284.04230	0.98690
3281.98849	0.98710
3279.93468	0.98754
3277.88087	0.98783
3275.82706	0.98800
3273.77325	0.98790
3271.71944	0.98776
3269.66563	0.98788
3267.61182	0.98781
3265.55801	0.98751
3263.50420	0.98761
3261.45039	0.98786
3259.39658	0.98780
3257.34277	0.98760
3255.28896	0.98771
3253.23515	0.98824
3251.18134	0.98866
3249.12753	0.98890
3247.07372	0.98910
3245.01991	0.98908
3242.96610	0.98896
3240.91229	0.98877
3238.85848	0.98831
3236.80467	0.98794
3234.75086	0.98812
3232.69705	0.98837
3230.64324	0.98818
3228.58943	0.98791
3226.53562	0.98814
3224.48181	0.98875
3222.42800	0.98885
3220.37419	0.98830
3218.32038	0.98795
3216.26657	0.98786
3214.21276	0.98760
3212.15895	0.98730
3210.10514	0.98735
3208.05133	0.98778
3205.99752	0.98830
3203.94371	0.98839
3201.88990	0.98783
3199.83609	0.98726
3197.78228	0.98704
3195.72847	0.98715
3193.67466	0.98765
3191.62085	0.98842
3189.56704	0.98877
3187.51323	0.98840
3185.45942	0.98783
3183.40561	0.98754
3181.35180	0.98764
3179.29799	0.98782
3177.24418	0.98797
3175.19037	0.98812
3173.13656	0.98802
3171.08275	0.98821
3169.02894	0.98869
3166.97513	0.98865
3164.92132	0.98836
3162.86751	0.98836
3160.81370	0.98814
3158.75989	0.98750
3156.70608	0.98703
3154.65227	0.98731
3152.59846	0.98803
3150.54465	0.98815
3148.49084	0.98782
3146.43703	0.98806
3144.38322	0.98850
3142.32941	0.98859
3140.27560	0.98846
3138.22179	0.98783
3136.16798	0.98682
3134.11417	0.98640
3132.06036	0.98681
3130.00655	0.98740
3127.95274	0.98759
3125.89893	0.98746
3123.84512	0.98717
3121.79131	0.98671
3119.73750	0.98643
3117.68369	0.98665
3115.62988	0.98699
3113.57607	0.98703
3111.52226	0.98669
3109.46845	0.98629
3107.41464	0.98606
3105.36083	0.98565
3103.30702	0.98518
3101.25321	0.98512
3099.19940	0.98510
3097.14559	0.98497
3095.09177	0.98499
3093.03796	0.98490
3090.98415	0.98446
3088.93034	0.98402
3086.87653	0.98377
3084.82272	0.98353
3082.76891	0.98319
3080.71510	0.98301
3078.66129	0.98320
3076.60748	0.98341
3074.55367	0.98322
3072.49986	0.98282
3070.44605	0.98270
3068.39224	0.98300
3066.33843	0.98340
3064.28462	0.98351
3062.23081	0.98327
3060.17700	0.98283
3058.12319	0.98245
3056.06938	0.98226
3054.01557	0.98199
3051.96176	0.98145
3049.90795	0.98108
3047.85414	0.98095
3045.80033	0.98079
3043.74652	0.98083
3041.69271	0.98075
3039.63890	0.98015
3037.58509	0.97958
3035.53128	0.97929
3033.47747	0.97907
3031.42366	0.97912
3029.36985	0.97936
3027.31604	0.97927
3025.26223	0.97884
3023.20842	0.97843
3021.15461	0.97792
3019.10080	0.97746
3017.04699	0.97739
3014.99318	0.97739
3012.93937	0.97732
3010.88556	0.97715
3008.83175	0.97681
3006.77794	0.97657
3004.72413	0.97631
3002.67032	0.97570
3000.61651	0.97508
2998.56270	0.97465
2996.50889	0.97434
2994.45508	0.97391
2992.40127	0.97294
2990.34746	0.97176
2988.29365	0.97085
2986.23984	0.96984
2984.18603	0.96822
2982.13222	0.96616
2980.07841	0.96394
2978.02460	0.96168
2975.97079	0.95942
2973.91698	0.95679
2971.86317	0.95327
2969.80936	0.94883
2967.75555	0.94393
2965.70174	0.93885
2963.64793	0.93385
2961.59412	0.92892
2959.54031	0.92369
2957.48650	0.91835
2955.43269	0.91337
2953.37888	0.90880
2951.32507	0.90384
2949.27126	0.89725
2947.21745	0.88835
2945.16364	0.87665
2943.10983	0.86137
2941.05602	0.84201
2939.00221	0.81889
2936.94840	0.79257
2934.89459	0.76304
2932.84078	0.72955
2930.78697	0.69095
2928.73316	0.64643
2926.67935	0.59488
2924.62554	0.53478
2922.57173	0.46616
2920.51792	0.39297
2918.46411	0.32443
2916.41030	0.27469
2914.35649	0.25704
2912.30268	0.27422
2910.24887	0.31627
2908.19506	0.36861
2906.14125	0.41996
2904.08744	0.46428
2902.03363	0.50035
2899.97982	0.53018
2897.92601	0.55631
2895.87220	0.58034
2893.81839	0.60343
2891.76458	0.62655
2889.71077	0.65040
2887.65696	0.67493
2885.60315	0.69934
2883.54934	0.72305
2881.49553	0.74600
2879.44172	0.76810
2877.38791	0.78838
2875.33410	0.80521
2873.28029	0.81737
2871.22648	0.82455
2869.17267	0.82683
2867.11886	0.82389
2865.06505	0.81495
2863.01124	0.79823
2860.95743	0.77090
2858.90362	0.73000
2856.84981	0.67131
2854.79600	0.58914
2852.74219	0.48362
2850.68838	0.37388
2848.63457	0.30051
2846.58076	0.29820
2844.52695	0.36327
2842.47314	0.46194
2840.41933	0.56191
2838.36552	0.64687
2836.31171	0.71328
2834.25790	0.76334
2832.20409	0.80051
2830.15028	0.82857
2828.09647	0.85043
2826.04266	0.86769
2823.98885	0.88159
2821.93504	0.89319
2819.88123	0.90290
2817.82742	0.91073
2815.77361	0.91708
2813.71980	0.92241
2811.66599	0.92701
2809.61218	0.93115
2807.55837	0.93483
2805.50456	0.93821
2803.45075	0.94129
2801.39693	0.94387
2799.34312	0.94633
2797.28931	0.94909
2795.23550	0.95175
2793.18169	0.95395
2791.12788	0.95604
2789.07407	0.95815
2787.02026	0.96003
2784.96645	0.96181
2782.91264	0.96364
2780.85883	0.96525
2778.80502	0.96647
2776.75121	0.96762
2774.69740	0.96882
2772.64359	0.96983
2770.58978	0.97058
2768.53597	0.97114
2766.48216	0.97163
2764.42835	0.97234
2762.37454	0.97309
2760.32073	0.97356
2758.26692	0.97398
2756.21311	0.97453
2754.15930	0.97481
2752.10549	0.97487
2750.05168	0.97531
2747.99787	0.97580
2745.94406	0.97558
2743.89025	0.97503
2741.83644	0.97497
2739.78263	0.97559
2737.72882	0.97652
2735.67501	0.97706
2733.62120	0.97693
2731.56739	0.97681
2729.51358	0.97690
2727.45977	0.97698
2725.40596	0.97724
2723.35215	0.97782
2721.29834	0.97822
2719.24453	0.97831
2717.19072	0.97861
2715.13691	0.97917
2713.08310	0.97959
2711.02929	0.97969
2708.97548	0.97960
2706.92167	0.97961
2704.86786	0.97989
2702.81405	0.98035
2700.76024	0.98088
2698.70643	0.98125
2696.65262	0.98128
2694.59881	0.98120
2692.54500	0.98121
2690.49119	0.98115
2688.43738	0.98088
2686.38357	0.98067
2684.32976	0.98072
2682.27595	0.98066
2680.22214	0.98026
2678.16833	0.97990
2676.11452	0.97991
2674.06071	0.97991
2672.00690	0.97961
2669.95309	0.97908
2667.89928	0.97852
2665.84547	0.97830
2663.79166	0.97820
2661.73785	0.97782
2659.68404	0.97773
2657.63023	0.97812
2655.57642	0.97832
2653.52261	0.97841
2651.46880	0.97869
2649.41499	0.97886
2647.36118	0.97878
2645.30737	0.97867
2643.25356	0.97852
2641.19975	0.97836
2639.14594	0.97847
2637.09213	0.97859
2635.03832	0.97834
2632.98451	0.97800
2630.93070	0.97805
2628.87689	0.97863
2626.82308	0.97955
2624.76927	0.98050
2622.71546	0.98107
2620.66165	0.98140
2618.60784	0.98201
2616.55403	0.98293
2614.50022	0.98377
2612.44641	0.98441
2610.39260	0.98457
2608.33879	0.98427
2606.28498	0.98418
2604.23117	0.98455
2602.17736	0.98513
2600.12355	0.98562
2598.06974	0.98593
2596.01593	0.98621
2593.96212	0.98667
2591.90831	0.98714
2589.85450	0.98744
2587.80069	0.98771
2585.74688	0.98766
2583.69307	0.98737
2581.63926	0.98754
2579.58545	0.98796
2577.53164	0.98786
2575.47783	0.98767
2573.42402	0.98801
2571.37021	0.98880
2569.31640	0.98992
2567.26259	0.99038
2565.20878	0.98963
2563.15497	0.98911
2561.10116	0.98930
2559.04735	0.98924
2556.99354	0.98890
2554.93973	0.98878
2552.88592	0.98915
2550.83211	0.98963
2548.77830	0.98957
2546.72449	0.98938
2544.67068	0.98953
2542.61687	0.98996
2540.56306	0.99086
2538.50925	0.99161
2536.45544	0.99147
2534.40163	0.99120
2532.34782	0.99134
2530.29401	0.99153
2528.24020	0.99162
2526.18639	0.99168
2524.13258	0.99167
2522.07877	0.99163
2520.02496	0.99203
2517.97115	0.99242
2515.91734	0.99225
2513.86353	0.99226
2511.80972	0.99272
2509.75591	0.99312
2507.70210	0.99343
2505.64828	0.99342
2503.59447	0.99306
2501.54066	0.99298
2499.48685	0.99305
2497.43304	0.99324
2495.37923	0.99368
2493.32542	0.99397
2491.27161	0.99423
2489.21780	0.99449
2487.16399	0.99473
2485.11018	0.99474
2483.05637	0.99430
2481.00256	0.99413
2478.94875	0.99435
2476.89494	0.99437
2474.84113	0.99454
2472.78732	0.99490
2470.73351	0.99506
2468.67970	0.99522
2466.62589	0.99540
2464.57208	0.99543
2462.51827	0.99525
2460.46446	0.99508
2458.41065	0.99509
2456.35684	0.99500
2454.30303	0.99497
2452.24922	0.99540
2450.19541	0.99590
2448.14160	0.99582
2446.08779	0.99556
2444.03398	0.99587
2441.98017	0.99634
2439.92636	0.99644
2437.87255	0.99635
2435.81874	0.99615
2433.76493	0.99603
2431.71112	0.99602
2429.65731	0.99571
2427.60350	0.99552
2425.54969	0.99559
2423.49588	0.99534
2421.44207	0.99525
2419.38826	0.99584
2417.33445	0.99632
2415.28064	0.99627
2413.22683	0.99616
2411.17302	0.99595
2409.11921	0.99534
2407.06540	0.99486
2405.01159	0.99514
2402.95778	0.99569
2400.90397	0.99589
2398.85016	0.99594
2396.79635	0.99572
2394.74254	0.99549
2392.68873	0.99556
2390.63492	0.99524
2388.58111	0.99499
2386.52730	0.99556
2384.47349	0.99611
2382.41968	0.99599
2380.36587	0.99542
2378.31206	0.99498
2376.25825	0.99568
2374.20444	0.99757
2372.15063	0.99866
2370.09682	0.99757
2368.04301	0.99599
2365.98920	0.99563
2363.93539	0.99619
2361.88158	0.99734
2359.82777	0.99843
2357.77396	0.99783
2355.72015	0.99535
2353.66634	0.99298
2351.61253	0.99252
2349.55872	0.99338
2347.50491	0.99419
2345.45110	0.99416
2343.39729	0.99328
2341.34348	0.99302
2339.28967	0.99317
2337.23586	0.99216
2335.18205	0.99119
2333.12824	0.99177
2331.07443	0.99320
2329.02062	0.99400
2326.96681	0.99361
2324.91300	0.99259
2322.85919	0.99205
2320.80538	0.99251
2318.75157	0.99303
2316.69776	0.99305
2314.64395	0.99288
2312.59014	0.99333
2310.53633	0.99452
2308.48252	0.99505
2306.42871	0.99512
2304.37490	0.99549
2302.32109	0.99521
2300.26728	0.99448
2298.21347	0.99408
2296.15966	0.99339
2294.10585	0.99284
2292.05204	0.99384
2289.99823	0.99529
2287.94442	0.99523
2285.89061	0.99487
2283.83680	0.99544
2281.78299	0.99537
2279.72918	0.99463
2277.67537	0.99480
2275.62156	0.99545
2273.56775	0.99552
2271.51394	0.99530
2269.46013	0.99505
2267.40632	0.99502
2265.35251	0.99605
2263.29870	0.99775
2261.24489	0.99824
2259.19108	0.99746
2257.13727	0.99718
2255.08346	0.99786
2253.02965	0.99836
2250.97584	0.99810
2248.92203	0.99796
2246.86822	0.99811
2244.81441	0.99789
2242.76060	0.99801
2240.70679	0.99888
2238.65298	0.99914
2236.59917	0.99791
2234.54536	0.99705
2232.49155	0.99824
2230.43774	0.99991
2228.38393	1.00017
2226.33012	0.99868
2224.27631	0.99755
2222.22250	0.99805
2220.16869	0.99800
2218.11488	0.99749
2216.06107	0.99794
2214.00726	0.99870
2211.95344	0.99929
2209.89963	0.99906
2207.84582	0.99854
2205.79201	0.99941
2203.73820	0.99976
2201.68439	0.99865
2199.63058	0.99779
2197.57677	0.99650
2195.52296	0.99514
2193.46915	0.99501
2191.41534	0.99505
2189.36153	0.99406
2187.30772	0.99420
2185.25391	0.99794
2183.20010	1.00171
2181.14629	1.00135
2179.09248	1.00030
2177.03867	1.00136
2174.98486	1.00175
2172.93105	1.00112
2170.87724	1.00066
2168.82343	1.00037
2166.76962	1.00099
2164.71581	1.00202
2162.66200	1.00191
2160.60819	1.00284
2158.55438	1.00650
2156.50057	1.00752
2154.44676	1.00378
2152.39295	1.00029
2150.33914	0.99966
2148.28533	0.99869
2146.23152	0.99662
2144.17771	0.99671
2142.12390	0.99921
2140.07009	1.00181
2138.01628	1.00230
2135.96247	1.00132
2133.90866	1.00130
2131.85485	1.00245
2129.80104	1.00319
2127.74723	1.00256
2125.69342	1.00118
2123.63961	1.00008
2121.58580	0.99952
2119.53199	0.99957
2117.47818	0.99954
2115.42437	0.99866
2113.37056	0.99858
2111.31675	0.99995
2109.26294	1.00111
2107.20913	1.00140
2105.15532	1.00113
2103.10151	1.00088
2101.04770	1.00071
2098.99389	1.00053
2096.94008	1.00011
2094.88627	0.99922
2092.83246	0.99891
2090.77865	0.99920
2088.72484	0.99890
2086.67103	0.99847
2084.61722	0.99843
2082.56341	0.99871
2080.50960	0.99957
2078.45579	1.00074
2076.40198	1.00139
2074.34817	1.00075
2072.29436	0.99951
2070.24055	0.99911
2068.18674	0.99988
2066.13293	1.00038
2064.07912	0.99913
2062.02531	0.99785
2059.97150	0.99771
2057.91769	0.99648
2055.86388	0.99494
2053.81007	0.99550
2051.75626	0.99645
2049.70245	0.99715
2047.64864	0.99855
2045.59483	0.99887
2043.54102	0.99840
2041.48721	0.99893
2039.43340	0.99882
2037.37959	0.99723
2035.32578	0.99601
2033.27197	0.99621
2031.21816	0.99693
2029.16435	0.99703
2027.11054	0.99652
2025.05673	0.99558
2023.00292	0.99518
2020.94911	0.99595
2018.89530	0.99755
2016.84149	0.99895
2014.78768	0.99943
2012.73387	0.99856
2010.68006	0.99604
2008.62625	0.99484
2006.57244	0.99668
2004.51863	1.00017
2002.46482	1.00370
2000.41101	1.00513
1998.35720	1.00321
1996.30339	1.00061
1994.24958	1.00036
1992.19577	1.00117
1990.14196	1.00215
1988.08815	1.00251
1986.03434	1.00070
1983.98053	0.99793
1981.92672	0.99626
1979.87291	0.99647
1977.81910	0.99751
1975.76529	0.99851
1973.71148	0.99872
1971.65767	0.99769
1969.60386	0.99786
1967.55005	1.00065
1965.49624	1.00300
1963.44243	1.00186
1961.38862	0.99996
1959.33481	1.00083
1957.28100	1.00120
1955.22719	0.99808
1953.17338	0.99495
1951.11957	0.99485
1949.06576	0.99709
1947.01195	0.99919
1944.95814	0.99923
1942.90433	0.99796
1940.85052	0.99741
1938.79671	0.99861
1936.74290	1.00081
1934.68909	1.00171
1932.63528	0.99985
1930.58147	0.99708
1928.52766	0.99574
1926.47385	0.99606
1924.42004	0.99722
1922.36623	0.99786
1920.31242	0.99739
1918.25861	0.99698
1916.20479	0.99762
1914.15098	0.99857
1912.09717	0.99852
1910.04336	0.99725
1907.98955	0.99556
1905.93574	0.99430
1903.88193	0.99444
1901.82812	0.99537
1899.77431	0.99542
1897.72050	0.99472
1895.66669	0.99499
1893.61288	0.99629
1891.55907	0.99646
1889.50526	0.99588
1887.45145	0.99653
1885.39764	0.99737
1883.34383	0.99694
1881.29002	0.99620
1879.23621	0.99614
1877.18240	0.99631
1875.12859	0.99669
1873.07478	0.99699
1871.02097	0.99640
1868.96716	0.99592
1866.91335	0.99663
1864.85954	0.99740
1862.80573	0.99769
1860.75192	0.99764
1858.69811	0.99697
1856.64430	0.99602
1854.59049	0.99595
1852.53668	0.99631
1850.48287	0.99566
1848.42906	0.99449
1846.37525	0.99410
1844.32144	0.99470
1842.26763	0.99551
1840.21382	0.99590
1838.16001	0.99606
1836.10620	0.99611
1834.05239	0.99575
1831.99858	0.99497
1829.94477	0.99452
1827.89096	0.99500
1825.83715	0.99553
1823.78334	0.99546
1821.72953	0.99497
1819.67572	0.99443
1817.62191	0.99422
1815.56810	0.99415
1813.51429	0.99378
1811.46048	0.99313
1809.40667	0.99240
1807.35286	0.99171
1805.29905	0.99135
1803.24524	0.99103
1801.19143	0.99025
1799.13762	0.98955
1797.08381	0.98892
1795.03000	0.98777
1792.97619	0.98634
1790.92238	0.98574
1788.86857	0.98561
1786.81476	0.98473
1784.76095	0.98350
1782.70714	0.98247
1780.65333	0.98154
1778.59952	0.98104
1776.54571	0.98056
1774.49190	0.97920
1772.43809	0.97728
1770.38428	0.97656
1768.33047	0.97703
1766.27666	0.97705
1764.22285	0.97612
1762.16904	0.97479
1760.11523	0.97375
1758.06142	0.97235
1756.00761	0.97034
1753.95380	0.96807
1751.89999	0.96467
1749.84618	0.96009
1747.79237	0.95623
1745.73856	0.95293
1743.68475	0.94926
1741.63094	0.94541
1739.57713	0.94203
1737.52332	0.94020
1735.46951	0.93908
1733.41570	0.93765
1731.36189	0.93610
1729.30808	0.93338
1727.25427	0.92806
1725.20046	0.91948
1723.14665	0.90849
1721.09284	0.89807
1719.03903	0.88820
1716.98522	0.87754
1714.93141	0.87023
1712.87760	0.86807
1710.82379	0.87033
1708.76998	0.87610
1706.71617	0.88476
1704.66236	0.89515
1702.60855	0.90393
1700.55474	0.91274
1698.50093	0.92220
1696.44712	0.93159
1694.39331	0.94185
1692.33950	0.94905
1690.28569	0.95390
1688.23188	0.95778
1686.17807	0.96027
1684.12426	0.96267
1682.07045	0.96583
1680.01664	0.96812
1677.96283	0.96952
1675.90902	0.97049
1673.85521	0.97156
1671.80140	0.97259
1669.74759	0.97345
1667.69378	0.97445
1665.63997	0.97501
1663.58616	0.97522
1661.53235	0.97597
1659.47854	0.97688
1657.42473	0.97687
1655.37092	0.97592
1653.31711	0.97506
1651.26330	0.97576
1649.20949	0.97610
1647.15568	0.97624
1645.10187	0.97721
1643.04806	0.97795
1640.99425	0.97818
1638.94044	0.97794
1636.88663	0.97725
1634.83282	0.97726
1632.77901	0.97821
1630.72520	0.97878
1628.67139	0.97871
1626.61758	0.97841
1624.56377	0.97817
1622.50996	0.97864
1620.45614	0.97953
1618.40233	0.97958
1616.34852	0.97937
1614.29471	0.97989
1612.24090	0.98023
1610.18709	0.98014
1608.13328	0.98004
1606.07947	0.98002
1604.02566	0.98008
1601.97185	0.98033
1599.91804	0.98054
1597.86423	0.98056
1595.81042	0.98061
1593.75661	0.98072
1591.70280	0.98088
1589.64899	0.98103
1587.59518	0.98112
1585.54137	0.98106
1583.48756	0.98103
1581.43375	0.98132
1579.37994	0.98145
1577.32613	0.98124
1575.27232	0.98153
1573.21851	0.98201
1571.16470	0.98181
1569.11089	0.98182
1567.05708	0.98273
1565.00327	0.98319
1562.94946	0.98254
1560.89565	0.98100
1558.84184	0.97970
1556.78803	0.98064
1554.73422	0.98168
1552.68041	0.98204
1550.62660	0.98205
1548.57279	0.98221
1546.51898	0.98192
1544.46517	0.98053
1542.41136	0.97925
1540.35755	0.97969
1538.30374	0.98170
1536.24993	0.98276
1534.19612	0.98299
1532.14231	0.98351
1530.08850	0.98398
1528.03469	0.98405
1525.98088	0.98387
1523.92707	0.98300
1521.87326	0.98182
1519.81945	0.98167
1517.76564	0.98201
1515.71183	0.98249
1513.65802	0.98294
1511.60421	0.98265
1509.55040	0.98140
1507.49659	0.98021
1505.44278	0.98137
1503.38897	0.98244
1501.33516	0.98207
1499.28135	0.98094
1497.22754	0.97989
1495.17373	0.97918
1493.11992	0.97806
1491.06611	0.97589
1489.01230	0.97364
1486.95849	0.97203
1484.90468	0.96950
1482.85087	0.96447
1480.79706	0.95509
1478.74325	0.93516
1476.68944	0.88553
1474.63563	0.79276
1472.58182	0.70607
1470.52801	0.69871
1468.47420	0.72763
1466.42039	0.73817
1464.36658	0.72580
1462.31277	0.73005
1460.25896	0.76831
1458.20515	0.82193
1456.15134	0.86506
1454.09753	0.88630
1452.04372	0.89937
1449.98991	0.90965
1447.93610	0.91719
1445.88229	0.92231
1443.82848	0.92542
1441.77467	0.92746
1439.72086	0.92902
1437.66705	0.93073
1435.61324	0.93348
1433.55943	0.93660
1431.50562	0.93976
1429.45181	0.94333
1427.39800	0.94634
1425.34419	0.94807
1423.29038	0.94896
1421.23657	0.94867
1419.18276	0.94709
1417.12895	0.94579
1415.07514	0.94514
1413.02133	0.94442
1410.96752	0.94429
1408.91371	0.94528
1406.85990	0.94735
1404.80609	0.95047
1402.75228	0.95360
1400.69847	0.95577
1398.64466	0.95737
1396.59085	0.95900
1394.53704	0.96089
1392.48323	0.96242
1390.42942	0.96272
1388.37561	0.96205
1386.32180	0.96093
1384.26799	0.95903
1382.21418	0.95555
1380.16037	0.95089
1378.10656	0.94696
1376.05275	0.94500
1373.99894	0.94474
1371.94513	0.94523
1369.89132	0.94581
1367.83751	0.94664
1365.78370	0.94782
1363.72989	0.94903
1361.67608	0.95040
1359.62227	0.95180
1357.56846	0.95266
1355.51465	0.95311
1353.46084	0.95365
1351.40703	0.95448
1349.35322	0.95547
1347.29941	0.95658
1345.24560	0.95769
1343.19179	0.95852
1341.13798	0.95906
1339.08417	0.95998
1337.03036	0.96129
1334.97655	0.96226
1332.92274	0.96280
1330.86893	0.96289
1328.81512	0.96256
1326.76130	0.96206
1324.70749	0.96152
1322.65368	0.96061
1320.59987	0.95933
1318.54606	0.95813
1316.49225	0.95704
1314.43844	0.95587
1312.38463	0.95475
1310.33082	0.95389
1308.27701	0.95308
1306.22320	0.95200
1304.16939	0.95083
1302.11558	0.94984
1300.06177	0.94904
1298.00796	0.94860
1295.95415	0.94828
1293.90034	0.94793
1291.84653	0.94781
1289.79272	0.94782
1287.73891	0.94788
1285.68510	0.94803
1283.63129	0.94821
1281.57748	0.94839
1279.52367	0.94858
1277.46986	0.94890
1275.41605	0.94923
1273.36224	0.94934
1271.30843	0.94940
1269.25462	0.94947
1267.20081	0.94936
1265.14700	0.94916
1263.09319	0.94905
1261.03938	0.94893
1258.98557	0.94886
1256.93176	0.94895
1254.87795	0.94881
1252.82414	0.94843
1250.77033	0.94800
1248.71652	0.94752
1246.66271	0.94700
1244.60890	0.94665
1242.55509	0.94652
1240.50128	0.94633
1238.44747	0.94601
1236.39366	0.94564
1234.33985	0.94538
1232.28604	0.94546
1230.23223	0.94564
1228.17842	0.94557
1226.12461	0.94527
1224.07080	0.94472
1222.01699	0.94402
1219.96318	0.94365
1217.90937	0.94352
1215.85556	0.94316
1213.80175	0.94264
1211.74794	0.94214
1209.69413	0.94178
1207.64032	0.94154
1205.58651	0.94114
1203.53270	0.94057
1201.47889	0.94003
1199.42508	0.93959
1197.37127	0.93919
1195.31746	0.93876
1193.26365	0.93822
1191.20984	0.93759
1189.15603	0.93712
1187.10222	0.93659
1185.04841	0.93563
1182.99460	0.93450
1180.94079	0.93351
1178.88698	0.93236
1176.83317	0.93115
1174.77936	0.93063
1172.72555	0.93058
1170.67174	0.93036
1168.61793	0.93002
1166.56412	0.92971
1164.51031	0.92977
1162.45650	0.93028
1160.40269	0.93093
1158.34888	0.93176
1156.29507	0.93275
1154.24126	0.93375
1152.18745	0.93469
1150.13364	0.93535
1148.07983	0.93581
1146.02602	0.93621
1143.97221	0.93638
1141.91840	0.93653
1139.86459	0.93681
1137.81078	0.93669
1135.75697	0.93590
1133.70316	0.93494
1131.64935	0.93416
1129.59554	0.93337
1127.54173	0.93252
1125.48792	0.93182
1123.43411	0.93094
1121.38030	0.92985
1119.32649	0.92898
1117.27268	0.92809
1115.21887	0.92683
1113.16506	0.92550
1111.11125	0.92462
1109.05744	0.92393
1107.00363	0.92286
1104.94982	0.92152
1102.89601	0.92062
1100.84220	0.92027
1098.78839	0.91971
1096.73458	0.91888
1094.68077	0.91821
1092.62696	0.91748
1090.57315	0.91686
1088.51934	0.91661
1086.46553	0.91630
1084.41172	0.91598
1082.35791	0.91591
1080.30410	0.91562
1078.25029	0.91521
1076.19648	0.91507
1074.14267	0.91484
1072.08886	0.91444
1070.03505	0.91412
1067.98124	0.91350
1065.92743	0.91241
1063.87362	0.91126
1061.81981	0.91028
1059.76600	0.90918
1057.71219	0.90796
1055.65838	0.90723
1053.60457	0.90652
1051.55076	0.90482
1049.49695	0.90269
1047.44314	0.90132
1045.38933	0.90101
1043.33552	0.90119
1041.28171	0.90109
1039.22790	0.90065
1037.17409	0.89988
1035.12028	0.89908
1033.06647	0.89889
1031.01265	0.89920
1028.95884	0.89974
1026.90503	0.90033
1024.85122	0.90069
1022.79741	0.90118
1020.74360	0.90209
1018.68979	0.90296
1016.63598	0.90349
1014.58217	0.90408
1012.52836	0.90511
1010.47455	0.90610
1008.42074	0.90683
1006.36693	0.90794
1004.31312	0.90968
1002.25931	0.91174
1000.20550	0.91401
998.15169	0.91617
996.09788	0.91786
994.04407	0.91948
991.99026	0.92126
989.93645	0.92298
987.88264	0.92470
985.82883	0.92646
983.77502	0.92830
981.72121	0.93020
979.66740	0.93206
977.61359	0.93361
975.55978	0.93472
973.50597	0.93579
971.45216	0.93688
969.39835	0.93762
967.34454	0.93818
965.29073	0.93896
963.23692	0.93994
961.18311	0.94078
959.12930	0.94143
957.07549	0.94203
955.02168	0.94243
952.96787	0.94265
950.91406	0.94292
948.86025	0.94327
946.80644	0.94338
944.75263	0.94312
942.69882	0.94307
940.64501	0.94363
938.59120	0.94431
936.53739	0.94460
934.48358	0.94452
932.42977	0.94445
930.37596	0.94479
928.32215	0.94578
926.26834	0.94706
924.21453	0.94780
922.16072	0.94786
920.10691	0.94788
918.05310	0.94801
915.99929	0.94789
913.94548	0.94753
911.89167	0.94737
909.83786	0.94782
907.78405	0.94897
905.73024	0.95050
903.67643	0.95195
901.62262	0.95336
899.56881	0.95465
897.51500	0.95552
895.46119	0.95637
893.40738	0.95738
891.35357	0.95826
889.29976	0.95922
887.24595	0.96023
885.19214	0.96076
883.13833	0.96113
881.08452	0.96141
879.03071	0.96149
876.97690	0.96208
874.92309	0.96296
872.86928	0.96350
870.81547	0.96434
868.76166	0.96583
866.70785	0.96717
864.65404	0.96775
862.60023	0.96749
860.54642	0.96690
858.49261	0.96669
856.43880	0.96661
854.38499	0.96679
852.33118	0.96781
850.27737	0.96886
848.22356	0.96898
846.16975	0.96836
844.11594	0.96799
842.06213	0.96815
840.00832	0.96837
837.95451	0.96854
835.90070	0.96878
833.84689	0.96899
831.79308	0.96914
829.73927	0.96896
827.68546	0.96823
825.63165	0.96733
823.57784	0.96673
821.52403	0.96672
819.47022	0.96689
817.41641	0.96662
815.36260	0.96640
813.30879	0.96652
811.25498	0.96681
809.20117	0.96714
807.14736	0.96667
805.09355	0.96493
803.03974	0.96318
800.98593	0.96236
798.93212	0.96233
796.87831	0.96319
794.82450	0.96392
792.77069	0.96365
790.71688	0.96333
788.66307	0.96320
786.60926	0.96273
784.55545	0.96267
782.50164	0.96319
780.44783	0.96301
778.39402	0.96247
776.34021	0.96271
774.28640	0.96344
772.23259	0.96378
770.17878	0.96344
768.12497	0.96321
766.07116	0.96362
764.01735	0.96398
761.96354	0.96400
759.90973	0.96359
757.85592	0.96249
755.80211	0.96123
753.74830	0.96039
751.69449	0.95958
749.64068	0.95853
747.58687	0.95745
745.53306	0.95552
743.47925	0.95269
741.42544	0.95001
739.37163	0.94617
737.31781	0.93707
735.26400	0.91375
733.21019	0.86416
731.15638	0.80449
729.10257	0.78067
727.04876	0.79623
724.99495	0.80413
722.94114	0.77155
720.88733	0.70587
718.83352	0.65635
716.77971	0.67011
714.72590	0.73877
712.67209	0.81801
710.61828	0.87362
708.56447	0.90336
706.51066	0.91949
704.45685	0.92970
702.40304	0.93588
700.34923	0.93977
698.29542	0.94299
696.24161	0.94516
694.18780	0.94644
692.13399	0.94783
690.08018	0.94889
688.02637	0.94920
685.97256	0.94954
683.91875	0.94979
681.86494	0.95031
679.81113	0.95103
677.75732	0.95072
675.70351	0.95035
673.64970	0.95081
671.59589	0.95096
669.54208	0.95088
667.48827	0.95263
665.43446	0.95441
663.38065	0.95491
661.32684	0.95555
659.27303	0.95609
657.21922	0.95639
655.16541	0.95735
653.11160	0.95773
651.05779	0.95692
649.00398	0.95618
646.95017	0.95575
644.89636	0.95538
642.84255	0.95548
640.78874	0.95603
638.73493	0.95606
636.68112	0.95553
634.62731	0.95535
632.57350	0.95526
630.51969	0.95523
628.46588	0.95557
626.41207	0.95542
624.35826	0.95425
622.30445	0.95312
620.25064	0.95308
618.19683	0.95385
616.14302	0.95450
614.08921	0.95429
612.03540	0.95404
609.98159	0.95420
607.92778	0.95358
605.87397	0.95242
603.82016	0.95148
601.76635	0.95125
599.71254	0.95189
597.65873	0.95239
595.60492	0.95189
593.55111	0.95048
591.49730	0.94946
589.44349	0.94957
587.38968	0.94963
585.33587	0.94915
583.28206	0.94803
581.22825	0.94565
579.17444	0.94426
577.12063	0.94540
575.06682	0.94626
573.01301	0.94524
570.95920	0.94439
568.90539	0.94541
566.85158	0.94713
564.79777	0.94747
562.74396	0.94715
560.69015	0.94743
558.63634	0.94666
556.58253	0.94500
554.52872	0.94451
552.47491	0.94394
550.42110	0.94210
548.36729	0.94058
546.31348	0.94027
544.25967	0.94062
542.20586	0.94061
540.15205	0.94008
538.09824	0.94006
536.04443	0.93985
533.99062	0.93869
531.93681	0.93810
529.88300	0.93931
527.82919	0.94133
525.77538	0.94185
523.72157	0.94102
521.66776	0.94107
519.61395	0.94275
517.56014	0.94442
515.50633	0.94443
513.45252	0.94333
511.39871	0.94174
509.34490	0.94002
507.29109	0.93819
505.23728	0.93728
503.18347	0.93854
501.12966	0.94094
499.07585	0.94295
497.02204	0.94314
494.96823	0.94106
492.91442	0.93852
490.86061	0.93711
488.80680	0.93647
486.75299	0.93471
484.69918	0.93105
482.64537	0.92713
480.59156	0.92463
478.53775	0.92326
476.48394	0.92129
474.43013	0.91863
472.37632	0.91691
470.32251	0.91580
468.26870	0.91433
466.21489	0.91437
464.16108	0.91662
462.10727	0.91783
460.05346	0.91668
457.99965	0.91655
455.94584	0.91884
453.89203	0.92189
451.83822	0.92512
449.78441	0.92621
447.73060	0.92350
445.67679	0.92063
443.62298	0.92172
441.56916	0.92577
439.51535	0.92841
437.46154	0.92627
435.40773	0.92294
433.35392	0.92483
431.30011	0.92987
429.24630	0.93277
427.19249	0.93447
425.13868	0.93679
423.08487	0.93659
421.03106	0.93539
418.97725	0.93453
416.92344	0.93178
414.86963	0.93308
412.81582	0.93654
410.76201	0.93738
408.70820	0.93837
406.65439	0.94065
404.60058	0.94495
402.54677	0.95294
400.49296	0.95891
398.43915	0.95831
