3996.70104	0.97494
3994.64724	0.97491
3992.59344	0.97477
3990.53964	0.97411
3988.48583	0.97359
3986.43203	0.97373
3984.37823	0.97389
3982.32442	0.97376
3980.27062	0.97351
3978.21682	0.97329
3976.16301	0.97300
3974.10921	0.97272
3972.05541	0.97296
3970.00160	0.97351
3967.94780	0.97403
3965.89400	0.97444
3963.84019	0.97433
3961.78639	0.97348
3959.73259	0.97307
3957.67878	0.97357
3955.62498	0.97371
3953.57118	0.97322
3951.51737	0.97275
3949.46357	0.97276
3947.40977	0.97319
3945.35596	0.97363
3943.30216	0.97394
3941.24836	0.97383
3939.19455	0.97357
3937.14075	0.97318
3935.08695	0.97314
3933.03315	0.97397
3930.97934	0.97443
3928.92554	0.97423
3926.87174	0.97424
3924.81793	0.97465
3922.76413	0.97501
3920.71033	0.97481
3918.65652	0.97452
3916.60272	0.97438
3914.54892	0.97391
3912.49511	0.97365
3910.44131	0.97412
3908.38751	0.97466
3906.33370	0.97486
3904.27990	0.97543
3902.22610	0.97614
3900.17229	0.97561
3898.11849	0.97462
3896.06469	0.97452
3894.01088	0.97446
3891.95708	0.97365
3889.90328	0.97292
3887.84947	0.97282
3885.79567	0.97323
3883.74187	0.97380
3881.68807	0.97399
3879.63426	0.97385
3877.58046	0.97395
3875.52666	0.97454
3873.47285	0.97504
3871.41905	0.97481
3869.36525	0.97440
3867.31144	0.97486
3865.25764	0.97581
3863.20384	0.97584
3861.15003	0.97504
3859.09623	0.97476
3857.04243	0.97515
3854.98862	0.97549
3852.93482	0.97514
3850.88102	0.97464
3848.82721	0.97454
3846.77341	0.97483
3844.71961	0.97523
3842.66580	0.97547
3840.61200	0.97517
3838.55820	0.97462
3836.50439	0.97488
3834.45059	0.97553
3832.39679	0.97592
3830.34298	0.97571
3828.28918	0.97520
3826.23538	0.97481
3824.18158	0.97451
3822.12777	0.97516
3820.07397	0.97650
3818.02017	0.97667
3815.96636	0.97607
3813.91256	0.97533
3811.85876	0.97476
3809.80495	0.97470
3807.75115	0.97481
3805.69735	0.97454
3803.64354	0.97449
3801.58974	0.97453
3799.53594	0.97423
3797.48213	0.97416
3795.42833	0.97420
3793.37453	0.97428
3791.32072	0.97444
3789.26692	0.97457
3787.21312	0.97458
3785.15931	0.97438
3783.10551	0.97443
3781.05171	0.97495
3778.99790	0.97533
3776.94410	0.97515
3774.89030	0.97493
3772.83650	0.97510
3770.78269	0.97556
3768.72889	0.97585
3766.67509	0.97568
3764.62128	0.97534
3762.56748	0.97518
3760.51368	0.97544
3758.45987	0.97595
3756.40607	0.97614
3754.35227	0.97555
3752.29846	0.97423
3750.24466	0.97373
3748.19086	0.97426
3746.13705	0.97479
3744.08325	0.97588
3742.02945	0.97666
3739.97564	0.97650
3737.92184	0.97630
3735.86804	0.97630
3733.81423	0.97575
3731.76043	0.97507
3729.70663	0.97467
3727.65282	0.97453
3725.59902	0.97474
3723.54522	0.97460
3721.49141	0.97381
3719.43761	0.97287
3717.38381	0.97251
3715.33001	0.97273
3713.27620	0.97218
3711.22240	0.97026
3709.16860	0.96839
3707.11479	0.96701
3705.06099	0.96542
3703.00719	0.96347
3700.95338	0.96114
3698.89958	0.95893
3696.84578	0.95804
3694.79197	0.95833
3692.73817	0.95888
3690.68437	0.95984
3688.63056	0.96155
3686.57676	0.96297
3684.52296	0.96322
3682.46915	0.96298
3680.41535	0.96302
3678.36155	0.96329
3676.30774	0.96301
3674.25394	0.96194
3672.20014	0.96143
3670.14633	0.96087
3668.09253	0.95987
3666.03873	0.95912
3663.98492	0.95847
3661.93112	0.95797
3659.87732	0.95740
3657.82352	0.95674
3655.76971	0.95617
3653.71591	0.95549
3651.66211	0.95482
3649.60830	0.95442
3647.55450	0.95378
3645.50070	0.95212
3643.44689	0.95051
3641.39309	0.94986
3639.33929	0.94977
3637.28548	0.94924
3635.23168	0.94807
3633.17788	0.94727
3631.12407	0.94688
3629.07027	0.94487
3627.01647	0.94158
3624.96266	0.94032
3622.90886	0.94035
3620.85506	0.93985
3618.80125	0.93969
3616.74745	0.94103
3614.69365	0.94186
3612.63984	0.94177
3610.58604	0.94208
3608.53224	0.94278
3606.47844	0.94274
3604.42463	0.94249
3602.37083	0.94298
3600.31703	0.94372
3598.26322	0.94391
3596.20942	0.94356
3594.15562	0.94356
3592.10181	0.94399
3590.04801	0.94384
3587.99421	0.94284
3585.94040	0.94165
3583.88660	0.94112
3581.83280	0.94114
3579.77899	0.94098
3577.72519	0.94049
3575.67139	0.94009
3573.61758	0.93959
3571.56378	0.93882
3569.50998	0.93816
3567.45617	0.93757
3565.40237	0.93717
3563.34857	0.93691
3561.29476	0.93678
3559.24096	0.93656
3557.18716	0.93585
3555.13335	0.93540
3553.07955	0.93558
3551.02575	0.93570
3548.97195	0.93571
3546.91814	0.93583
3544.86434	0.93572
3542.81054	0.93504
3540.75673	0.93447
3538.70293	0.93469
3536.64913	0.93506
3534.59532	0.93465
3532.54152	0.93422
3530.48772	0.93430
3528.43391	0.93443
3526.38011	0.93450
3524.32631	0.93421
3522.27250	0.93375
3520.21870	0.93373
3518.16490	0.93378
3516.11109	0.93362
3514.05729	0.93353
3512.00349	0.93376
3509.94968	0.93413
3507.89588	0.93415
3505.84208	0.93378
3503.78827	0.93326
3501.73447	0.93284
3499.68067	0.93252
3497.62687	0.93240
3495.57306	0.93248
3493.51926	0.93245
3491.46546	0.93222
3489.41165	0.93153
3487.35785	0.93082
3485.30405	0.93109
3483.25024	0.93185
3481.19644	0.93187
3479.14264	0.93141
3477.08883	0.93124
3475.03503	0.93090
3472.98123	0.92999
3470.92742	0.92911
3468.87362	0.92901
3466.81982	0.92937
3464.76601	0.92938
3462.71221	0.92902
3460.65841	0.92856
3458.60460	0.92812
3456.55080	0.92774
3454.49700	0.92732
3452.44319	0.92681
3450.38939	0.92653
3448.33559	0.92661
3446.28178	0.92614
3444.22798	0.92531
3442.17418	0.92524
3440.12038	0.92534
3438.06657	0.92501
3436.01277	0.92477
3433.95897	0.92477
3431.90516	0.92479
3429.85136	0.92487
3427.79756	0.92489
3425.74375	0.92456
3423.68995	0.92390
3421.63615	0.92334
3419.58234	0.92318
3417.52854	0.92295
3415.47474	0.92270
3413.42093	0.92283
3411.36713	0.92278
3409.31333	0.92238
3407.25952	0.92206
3405.20572	0.92183
3403.15192	0.92161
3401.09811	0.92158
3399.04431	0.92154
3396.99051	0.92120
3394.93670	0.92123
3392.88290	0.92170
3390.82910	0.92189
3388.77529	0.92163
3386.72149	0.92128
3384.66769	0.92145
3382.61389	0.92195
3380.56008	0.92196
3378.50628	0.92169
3376.45248	0.92186
3374.39867	0.92261
3372.34487	0.92350
3370.29107	0.92378
3368.23726	0.92340
3366.18346	0.92299
3364.12966	0.92265
3362.07585	0.92247
3360.02205	0.92258
3357.96825	0.92282
3355.91444	0.92312
3353.86064	0.92321
3351.80684	0.92335
3349.75303	0.92386
3347.69923	0.92439
3345.64543	0.92466
3343.59162	0.92451
3341.53782	0.92452
3339.48402	0.92506
3337.43021	0.92558
3335.37641	0.92564
3333.32261	0.92544
3331.26881	0.92549
3329.21500	0.92596
3327.16120	0.92666
3325.10740	0.92709
3323.05359	0.92712
3320.99979	0.92707
3318.94599	0.92686
3316.89218	0.92655
3314.83838	0.92640
3312.78458	0.92650
3310.73077	0.92688
3308.67697	0.92752
3306.62317	0.92809
3304.56936	0.92832
3302.51556	0.92837
3300.46176	0.92812
3298.40795	0.92784
3296.35415	0.92844
3294.30035	0.92960
3292.24654	0.93007
3290.19274	0.92980
3288.13894	0.92984
3286.08513	0.93025
3284.03133	0.93046
3281.97753	0.93034
3279.92372	0.92993
3277.86992	0.92970
3275.81612	0.93002
3273.76232	0.93048
3271.70851	0.93080
3269.65471	0.93125
3267.60091	0.93189
3265.54710	0.93220
3263.49330	0.93225
3261.43950	0.93244
3259.38569	0.93276
3257.33189	0.93311
3255.27809	0.93350
3253.22428	0.93388
3251.17048	0.93428
3249.11668	0.93469
3247.06287	0.93484
3245.00907	0.93480
3242.95527	0.93470
3240.90146	0.93459
3238.84766	0.93474
3236.79386	0.93487
3234.74005	0.93499
3232.68625	0.93538
3230.63245	0.93582
3228.57864	0.93640
3226.52484	0.93717
3224.47104	0.93778
3222.41724	0.93781
3220.36343	0.93752
3218.30963	0.93767
3216.25583	0.93818
3214.20202	0.93842
3212.14822	0.93826
3210.09442	0.93836
3208.04061	0.93891
3205.98681	0.93919
3203.93301	0.93934
3201.87920	0.94006
3199.82540	0.94113
3197.77160	0.94184
3195.71779	0.94216
3193.66399	0.94232
3191.61019	0.94236
3189.55638	0.94259
3187.50258	0.94333
3185.44878	0.94426
3183.39497	0.94472
3181.34117	0.94487
3179.28737	0.94484
3177.23356	0.94440
3175.17976	0.94393
3173.12596	0.94392
3171.07215	0.94458
3169.01835	0.94570
3166.96455	0.94667
3164.91075	0.94716
3162.85694	0.94731
3160.80314	0.94737
3158.74934	0.94722
3156.69553	0.94680
3154.64173	0.94656
3152.58793	0.94705
3150.53412	0.94796
3148.48032	0.94850
3146.42652	0.94856
3144.37271	0.94880
3142.31891	0.94961
3140.26511	0.95034
3138.21130	0.95044
3136.15750	0.95013
3134.10370	0.95001
3132.04989	0.95051
3129.99609	0.95101
3127.94229	0.95123
3125.88848	0.95162
3123.83468	0.95194
3121.78088	0.95195
3119.72707	0.95197
3117.67327	0.95219
3115.61947	0.95247
3113.56566	0.95251
3111.51186	0.95233
3109.45806	0.95254
3107.40426	0.95288
3105.35045	0.95265
3103.29665	0.95287
3101.24285	0.95370
3099.18904	0.95394
3097.13524	0.95380
3095.08144	0.95405
3093.02763	0.95436
3090.97383	0.95425
3088.92003	0.95423
3086.86622	0.95464
3084.81242	0.95497
3082.75862	0.95489
3080.70481	0.95478
3078.65101	0.95507
3076.59721	0.95533
3074.54340	0.95551
3072.48960	0.95584
3070.43580	0.95594
3068.38199	0.95564
3066.32819	0.95541
3064.27439	0.95575
3062.22058	0.95619
3060.16678	0.95632
3058.11298	0.95679
3056.05918	0.95790
3054.00537	0.95886
3051.95157	0.95888
3049.89777	0.95830
3047.84396	0.95793
3045.79016	0.95771
3043.73636	0.95733
3041.68255	0.95721
3039.62875	0.95773
3037.57495	0.95847
3035.52114	0.95895
3033.46734	0.95894
3031.41354	0.95871
3029.35973	0.95877
3027.30593	0.95917
3025.25213	0.95953
3023.19832	0.95941
3021.14452	0.95907
3019.09072	0.95896
3017.03691	0.95887
3014.98311	0.95880
3012.92931	0.95915
3010.87550	0.95967
3008.82170	0.95966
3006.76790	0.95934
3004.71409	0.95933
3002.66029	0.95945
3000.60649	0.95956
2998.55269	0.95962
2996.49888	0.95915
2994.44508	0.95848
2992.39128	0.95828
2990.33747	0.95832
2988.28367	0.95838
2986.22987	0.95829
2984.17606	0.95737
2982.12226	0.95602
2980.06846	0.95511
2978.01465	0.95434
2975.96085	0.95318
2973.90705	0.95170
2971.85324	0.95010
2969.79944	0.94805
2967.74564	0.94554
2965.69183	0.94310
2963.63803	0.94097
2961.58423	0.93935
2959.53042	0.93806
2957.47662	0.93655
2955.42282	0.93467
2953.36901	0.93300
2951.31521	0.93169
2949.26141	0.92954
2947.20761	0.92565
2945.15380	0.92039
2943.10000	0.91440
2941.04620	0.90702
2938.99239	0.89736
2936.93859	0.88600
2934.88479	0.87343
2932.83098	0.85940
2930.77718	0.84374
2928.72338	0.82562
2926.66957	0.80373
2924.61577	0.77783
2922.56197	0.74855
2920.50816	0.71765
2918.45436	0.68910
2916.40056	0.66919
2914.34675	0.66461
2912.29295	0.67650
2910.23915	0.69861
2908.18534	0.72352
2906.13154	0.74657
2904.07774	0.76588
2902.02393	0.78122
2899.97013	0.79305
2897.91633	0.80294
2895.86252	0.81261
2893.80872	0.82244
2891.75492	0.83189
2889.70112	0.84102
2887.64731	0.85019
2885.59351	0.85923
2883.53971	0.86789
2881.48590	0.87602
2879.43210	0.88347
2877.37830	0.89023
2875.32449	0.89627
2873.27069	0.90085
2871.21689	0.90369
2869.16308	0.90493
2867.10928	0.90392
2865.05548	0.90038
2863.00167	0.89406
2860.94787	0.88373
2858.89407	0.86771
2856.84026	0.84401
2854.78646	0.81046
2852.73266	0.76702
2850.67885	0.72209
2848.62505	0.69386
2846.57125	0.69650
2844.51744	0.72626
2842.46364	0.76727
2840.40984	0.80626
2838.35603	0.83780
2836.30223	0.86180
2834.24843	0.87986
2832.19463	0.89339
2830.14082	0.90372
2828.08702	0.91186
2826.03322	0.91839
2823.97941	0.92355
2821.92561	0.92745
2819.87181	0.93060
2817.81800	0.93349
2815.76420	0.93606
2813.71040	0.93825
2811.65659	0.94044
2809.60279	0.94261
2807.54899	0.94426
2805.49518	0.94521
2803.44138	0.94599
2801.38758	0.94714
2799.33377	0.94851
2797.27997	0.94974
2795.22617	0.95057
2793.17236	0.95112
2791.11856	0.95171
2789.06476	0.95250
2787.01095	0.95362
2784.95715	0.95459
2782.90335	0.95509
2780.84955	0.95536
2778.79574	0.95582
2776.74194	0.95659
2774.68814	0.95733
2772.63433	0.95799
2770.58053	0.95846
2768.52673	0.95877
2766.47292	0.95916
2764.41912	0.95947
2762.36532	0.95963
2760.31151	0.95981
2758.25771	0.96015
2756.20391	0.96059
2754.15010	0.96089
2752.09630	0.96098
2750.04250	0.96100
2747.98869	0.96113
2745.93489	0.96143
2743.88109	0.96189
2741.82728	0.96231
2739.77348	0.96244
2737.71968	0.96237
2735.66587	0.96234
2733.61207	0.96229
2731.55827	0.96210
2729.50446	0.96209
2727.45066	0.96245
2725.39686	0.96270
2723.34306	0.96290
2721.28925	0.96327
2719.23545	0.96348
2717.18165	0.96362
2715.12784	0.96394
2713.07404	0.96426
2711.02024	0.96435
2708.96643	0.96422
2706.91263	0.96417
2704.85883	0.96429
2702.80502	0.96421
2700.75122	0.96398
2698.69742	0.96408
2696.64361	0.96438
2694.58981	0.96454
2692.53601	0.96469
2690.48220	0.96497
2688.42840	0.96502
2686.37460	0.96471
2684.32079	0.96455
2682.26699	0.96449
2680.21319	0.96447
2678.15938	0.96474
2676.10558	0.96499
2674.05178	0.96491
2671.99797	0.96475
2669.94417	0.96471
2667.89037	0.96472
2665.83657	0.96476
2663.78276	0.96462
2661.72896	0.96444
2659.67516	0.96451
2657.62135	0.96450
2655.56755	0.96425
2653.51375	0.96432
2651.45994	0.96493
2649.40614	0.96545
2647.35234	0.96558
2645.29853	0.96539
2643.24473	0.96495
2641.19093	0.96471
2639.13712	0.96495
2637.08332	0.96518
2635.02952	0.96497
2632.97571	0.96472
2630.92191	0.96509
2628.86811	0.96580
2626.81430	0.96644
2624.76050	0.96705
2622.70670	0.96747
2620.65289	0.96755
2618.59909	0.96747
2616.54529	0.96737
2614.49149	0.96722
2612.43768	0.96743
2610.38388	0.96787
2608.33008	0.96792
2606.27627	0.96787
2604.22247	0.96794
2602.16867	0.96830
2600.11486	0.96893
2598.06106	0.96954
2596.00726	0.96998
2593.95345	0.96985
2591.89965	0.96929
2589.84585	0.96919
2587.79204	0.96964
2585.73824	0.96963
2583.68444	0.96945
2581.63063	0.96989
2579.57683	0.97020
2577.52303	0.96997
2575.46922	0.96974
2573.41542	0.97003
2571.36162	0.97062
2569.30781	0.97086
2567.25401	0.97051
2565.20021	0.96979
2563.14640	0.96962
2561.09260	0.97025
2559.03880	0.97123
2556.98500	0.97221
2554.93119	0.97266
2552.87739	0.97226
2550.82359	0.97143
2548.76978	0.97071
2546.71598	0.97014
2544.66218	0.97018
2542.60837	0.97089
2540.55457	0.97162
2538.50077	0.97215
2536.44696	0.97194
2534.39316	0.97147
2532.33936	0.97174
2530.28555	0.97194
2528.23175	0.97136
2526.17795	0.97093
2524.12414	0.97153
2522.07034	0.97235
2520.01654	0.97218
2517.96273	0.97162
2515.90893	0.97166
2513.85513	0.97172
2511.80132	0.97161
2509.74752	0.97200
2507.69372	0.97231
2505.63992	0.97259
2503.58611	0.97301
2501.53231	0.97315
2499.47851	0.97338
2497.42470	0.97327
2495.37090	0.97264
2493.31710	0.97241
2491.26329	0.97273
2489.20949	0.97318
2487.15569	0.97355
2485.10188	0.97382
2483.04808	0.97367
2480.99428	0.97316
2478.94047	0.97291
2476.88667	0.97281
2474.83287	0.97260
2472.77906	0.97271
2470.72526	0.97328
2468.67146	0.97359
2466.61765	0.97310
2464.56385	0.97270
2462.51005	0.97310
2460.45624	0.97323
2458.40244	0.97280
2456.34864	0.97251
2454.29483	0.97250
2452.24103	0.97273
2450.18723	0.97278
2448.13343	0.97278
2446.07962	0.97329
2444.02582	0.97391
2441.97202	0.97394
2439.91821	0.97345
2437.86441	0.97333
2435.81061	0.97374
2433.75680	0.97421
2431.70300	0.97440
2429.64920	0.97437
2427.59539	0.97454
2425.54159	0.97445
2423.48779	0.97382
2421.43398	0.97338
2419.38018	0.97340
2417.32638	0.97345
2415.27257	0.97309
2413.21877	0.97319
2411.16497	0.97391
2409.11116	0.97430
2407.05736	0.97455
2405.00356	0.97458
2402.94975	0.97422
2400.89595	0.97399
2398.84215	0.97407
2396.78834	0.97409
2394.73454	0.97401
2392.68074	0.97412
2390.62694	0.97428
2388.57313	0.97462
2386.51933	0.97504
2384.46553	0.97498
2382.41172	0.97438
2380.35792	0.97396
2378.30412	0.97432
2376.25031	0.97482
2374.19651	0.97493
2372.14271	0.97480
2370.08890	0.97426
2368.03510	0.97267
2365.98130	0.97107
2363.92749	0.97171
2361.87369	0.97341
2359.81989	0.97420
2357.76608	0.97383
2355.71228	0.97292
2353.65848	0.97275
2351.60467	0.97272
2349.55087	0.97235
2347.49707	0.97219
2345.44326	0.97228
2343.38946	0.97245
2341.33566	0.97305
2339.28186	0.97335
2337.22805	0.97258
2335.17425	0.97189
2333.12045	0.97165
2331.06664	0.97172
2329.01284	0.97209
2326.95904	0.97207
2324.90523	0.97134
2322.85143	0.97028
2320.79763	0.97012
2318.74382	0.97120
2316.69002	0.97249
2314.63622	0.97282
2312.58241	0.97230
2310.52861	0.97202
2308.47481	0.97223
2306.42100	0.97282
2304.36720	0.97342
2302.31340	0.97381
2300.25959	0.97404
2298.20579	0.97398
2296.15199	0.97400
2294.09818	0.97410
2292.04438	0.97437
2289.99058	0.97501
2287.93677	0.97483
2285.88297	0.97346
2283.82917	0.97242
2281.77537	0.97238
2279.72156	0.97277
2277.66776	0.97341
2275.61396	0.97410
2273.56015	0.97418
2271.50635	0.97408
2269.45255	0.97445
2267.39874	0.97541
2265.34494	0.97656
2263.29114	0.97665
2261.23733	0.97547
2259.18353	0.97455
2257.12973	0.97489
2255.07592	0.97562
2253.02212	0.97594
2250.96832	0.97526
2248.91451	0.97379
2246.86071	0.97325
2244.80691	0.97412
2242.75310	0.97528
2240.69930	0.97531
2238.64550	0.97471
2236.59169	0.97506
2234.53789	0.97615
2232.48409	0.97677
2230.43029	0.97586
2228.37648	0.97383
2226.32268	0.97273
2224.26888	0.97369
2222.21507	0.97530
2220.16127	0.97594
2218.10747	0.97609
2216.05366	0.97636
2213.99986	0.97715
2211.94606	0.97840
2209.89225	0.97888
2207.83845	0.97852
2205.78465	0.97789
2203.73084	0.97713
2201.67704	0.97647
2199.62324	0.97636
2197.56943	0.97668
2195.51563	0.97631
2193.46183	0.97548
2191.40802	0.97513
2189.35422	0.97465
2187.30042	0.97324
2185.24661	0.97291
2183.19281	0.97471
2181.13901	0.97550
2179.08520	0.97489
2177.03140	0.97469
2174.97760	0.97530
2172.92380	0.97593
2170.86999	0.97589
2168.81619	0.97600
2166.76239	0.97713
2164.70858	0.97830
2162.65478	0.97630
2160.60098	0.97347
2158.54717	0.97532
2156.49337	0.97862
2154.43957	0.98005
2152.38576	0.98056
2150.33196	0.98077
2148.27816	0.98117
2146.22435	0.98080
2144.17055	0.97937
2142.11675	0.97883
2140.06294	0.97919
2138.00914	0.97848
2135.95534	0.97768
2133.90153	0.97863
2131.84773	0.98034
2129.79393	0.98064
2127.74012	0.97969
2125.68632	0.97954
2123.63252	0.97999
2121.57871	0.97967
2119.52491	0.97890
2117.47111	0.97879
2115.41731	0.97863
2113.36350	0.97742
2111.30970	0.97635
2109.25590	0.97485
2107.20209	0.97316
2105.14829	0.97379
2103.09449	0.97560
2101.04068	0.97651
2098.98688	0.97631
2096.93308	0.97584
2094.87927	0.97664
2092.82547	0.97799
2090.77167	0.97825
2088.71786	0.97799
2086.66406	0.97774
2084.61026	0.97726
2082.55645	0.97708
2080.50265	0.97706
2078.44885	0.97769
2076.39504	0.97942
2074.34124	0.98044
2072.28744	0.97946
2070.23363	0.97797
2068.17983	0.97838
2066.12603	0.97944
2064.07223	0.97981
2062.01842	0.98062
2059.96462	0.98069
2057.91082	0.97951
2055.85701	0.97842
2053.80321	0.97760
2051.74941	0.97661
2049.69560	0.97595
2047.64180	0.97510
2045.58800	0.97336
2043.53419	0.97376
2041.48039	0.97570
2039.42659	0.97605
2037.37278	0.97542
2035.31898	0.97563
2033.26518	0.97865
2031.21137	0.98096
2029.15757	0.97980
2027.10377	0.97857
2025.04996	0.97835
2022.99616	0.97860
2020.94236	0.97913
2018.88855	0.97960
2016.83475	0.97872
2014.78095	0.97702
2012.72714	0.97635
2010.67334	0.97639
2008.61954	0.97696
2006.56574	0.97883
2004.51193	0.98156
2002.45813	0.98107
2000.40433	0.97802
1998.35052	0.97703
1996.29672	0.97765
1994.24292	0.97871
1992.18911	0.97954
1990.13531	0.97919
1988.08151	0.97781
1986.02770	0.97635
1983.97390	0.97646
1981.92010	0.97755
1979.86629	0.97847
1977.81249	0.97987
1975.75869	0.98056
1973.70488	0.97880
1971.65108	0.97710
1969.59728	0.97810
1967.54347	0.98017
1965.48967	0.98063
1963.43587	0.98016
1961.38206	0.98126
1959.32826	0.98263
1957.27446	0.98186
1955.22066	0.98026
1953.16685	0.97871
1951.11305	0.97680
1949.05925	0.97521
1947.00544	0.97481
1944.95164	0.97539
1942.89784	0.97643
1940.84403	0.97723
1938.79023	0.97723
1936.73643	0.97668
1934.68262	0.97607
1932.62882	0.97612
1930.57502	0.97679
1928.52121	0.97721
1926.46741	0.97767
1924.41361	0.97813
1922.35980	0.97796
1920.30600	0.97747
1918.25220	0.97713
1916.19839	0.97734
1914.14459	0.97758
1912.09079	0.97695
1910.03698	0.97589
1907.98318	0.97598
1905.92938	0.97650
1903.87557	0.97620
1901.82177	0.97598
1899.76797	0.97608
1897.71417	0.97615
1895.66036	0.97566
1893.60656	0.97521
1891.55276	0.97568
1889.49895	0.97632
1887.44515	0.97688
1885.39135	0.97724
1883.33754	0.97690
1881.28374	0.97590
1879.22994	0.97517
1877.17613	0.97520
1875.12233	0.97568
1873.06853	0.97643
1871.01472	0.97691
1868.96092	0.97737
1866.90712	0.97764
1864.85331	0.97658
1862.79951	0.97532
1860.74571	0.97503
1858.69190	0.97550
1856.63810	0.97608
1854.58430	0.97632
1852.53049	0.97608
1850.47669	0.97572
1848.42289	0.97577
1846.36908	0.97596
1844.31528	0.97619
1842.26148	0.97636
1840.20768	0.97610
1838.15387	0.97573
1836.10007	0.97538
1834.04627	0.97528
1831.99246	0.97543
1829.93866	0.97538
1827.88486	0.97531
1825.83105	0.97553
1823.77725	0.97545
1821.72345	0.97485
1819.66964	0.97449
1817.61584	0.97468
1815.56204	0.97509
1813.50823	0.97519
1811.45443	0.97493
1809.40063	0.97474
1807.34682	0.97435
1805.29302	0.97385
1803.23922	0.97371
1801.18541	0.97356
1799.13161	0.97322
1797.07781	0.97274
1795.02400	0.97209
1792.97020	0.97162
1790.91640	0.97143
1788.86260	0.97099
1786.80879	0.97039
1784.75499	0.96991
1782.70119	0.96960
1780.64738	0.96955
1778.59358	0.96936
1776.53978	0.96899
1774.48597	0.96880
1772.43217	0.96855
1770.37837	0.96831
1768.32456	0.96827
1766.27076	0.96815
1764.21696	0.96787
1762.16315	0.96744
1760.10935	0.96695
1758.05555	0.96637
1756.00174	0.96578
1753.94794	0.96534
1751.89414	0.96506
1749.84033	0.96451
1747.78653	0.96318
1745.73273	0.96127
1743.67892	0.95910
1741.62512	0.95702
1739.57132	0.95506
1737.51751	0.95372
1735.46371	0.95278
1733.40991	0.95169
1731.35611	0.95083
1729.30230	0.94920
1727.24850	0.94646
1725.19470	0.94280
1723.14089	0.93807
1721.08709	0.93348
1719.03329	0.92973
1716.97948	0.92695
1714.92568	0.92566
1712.87188	0.92582
1710.81807	0.92720
1708.76427	0.92929
1706.71047	0.93188
1704.65666	0.93458
1702.60286	0.93684
1700.54906	0.93865
1698.49525	0.93935
1696.44145	0.94018
1694.38765	0.94172
1692.33384	0.94273
1690.28004	0.94308
1688.22624	0.94324
1686.17243	0.94363
1684.11863	0.94381
1682.06483	0.94313
1680.01103	0.94243
1677.95722	0.94178
1675.90342	0.94071
1673.84962	0.93977
1671.79581	0.93926
1669.74201	0.93858
1667.68821	0.93783
1665.63440	0.93743
1663.58060	0.93692
1661.52680	0.93573
1659.47299	0.93468
1657.41919	0.93435
1655.36539	0.93446
1653.31158	0.93433
1651.25778	0.93355
1649.20398	0.93316
1647.15017	0.93290
1645.09637	0.93236
1643.04257	0.93159
1640.98876	0.93097
1638.93496	0.93065
1636.88116	0.93011
1634.82735	0.92941
1632.77355	0.92916
1630.71975	0.92885
1628.66594	0.92852
1626.61214	0.92839
1624.55834	0.92853
1622.50454	0.92897
1620.45073	0.92950
1618.39693	0.93010
1616.34313	0.93122
1614.28932	0.93254
1612.23552	0.93332
1610.18172	0.93380
1608.12791	0.93433
1606.07411	0.93479
1604.02031	0.93498
1601.96650	0.93495
1599.91270	0.93481
1597.85890	0.93473
1595.80509	0.93468
1593.75129	0.93457
1591.69749	0.93444
1589.64368	0.93393
1587.58988	0.93294
1585.53608	0.93170
1583.48227	0.93044
1581.42847	0.92939
1579.37467	0.92852
1577.32086	0.92773
1575.26706	0.92714
1573.21326	0.92709
1571.15945	0.92764
1569.10565	0.92856
1567.05185	0.92925
1564.99805	0.92950
1562.94424	0.92966
1560.89044	0.93024
1558.83664	0.93099
1556.78283	0.93096
1554.72903	0.93082
1552.67523	0.93095
1550.62142	0.93115
1548.56762	0.93130
1546.51382	0.93142
1544.46001	0.93142
1542.40621	0.93151
1540.35241	0.93262
1538.29860	0.93506
1536.24480	0.93701
1534.19100	0.93912
1532.13719	0.94175
1530.08339	0.94319
1528.02959	0.94378
1525.97578	0.94430
1523.92198	0.94470
1521.86818	0.94514
1519.81437	0.94578
1517.76057	0.94604
1515.70677	0.94549
1513.65297	0.94481
1511.59916	0.94469
1509.54536	0.94518
1507.49156	0.94592
1505.43775	0.94545
1503.38395	0.94470
1501.33015	0.94449
1499.27634	0.94421
1497.22254	0.94310
1495.16874	0.94138
1493.11493	0.94035
1491.06113	0.93974
1489.00733	0.93882
1486.95352	0.93722
1484.89972	0.93515
1482.84592	0.93278
1480.79211	0.92922
1478.73831	0.92196
1476.68451	0.90435
1474.63070	0.87057
1472.57690	0.83556
1470.52310	0.82816
1468.46929	0.83611
1466.41549	0.83941
1464.36169	0.83510
1462.30788	0.83529
1460.25408	0.84581
1458.20028	0.86181
1456.14648	0.87594
1454.09267	0.88351
1452.03887	0.88856
1449.98507	0.89303
1447.93126	0.89664
1445.87746	0.89902
1443.82366	0.90055
1441.76985	0.90172
1439.71605	0.90252
1437.66225	0.90334
1435.60844	0.90485
1433.55464	0.90646
1431.50084	0.90780
1429.44703	0.90899
1427.39323	0.90997
1425.33943	0.91072
1423.28562	0.91109
1421.23182	0.91128
1419.17802	0.91147
1417.12421	0.91152
1415.07041	0.91165
1413.01661	0.91206
1410.96280	0.91313
1408.90900	0.91493
1406.85520	0.91733
1404.80139	0.92041
1402.74759	0.92352
1400.69379	0.92618
1398.63999	0.92853
1396.58618	0.93055
1394.53238	0.93229
1392.47858	0.93373
1390.42477	0.93475
1388.37097	0.93535
1386.31717	0.93551
1384.26336	0.93491
1382.20956	0.93340
1380.15576	0.93135
1378.10195	0.92990
1376.04815	0.92990
1373.99435	0.93083
1371.94054	0.93163
1369.88674	0.93215
1367.83294	0.93302
1365.77913	0.93426
1363.72533	0.93545
1361.67153	0.93633
1359.61772	0.93681
1357.56392	0.93727
1355.51012	0.93779
1353.45631	0.93817
1351.40251	0.93875
1349.34871	0.93966
1347.29491	0.94061
1345.24110	0.94133
1343.18730	0.94182
1341.13350	0.94216
1339.07969	0.94249
1337.02589	0.94275
1334.97209	0.94290
1332.91828	0.94314
1330.86448	0.94327
1328.81068	0.94314
1326.75687	0.94294
1324.70307	0.94258
1322.64927	0.94185
1320.59546	0.94083
1318.54166	0.93987
1316.48786	0.93916
1314.43405	0.93912
1312.38025	0.93977
1310.32645	0.94017
1308.27264	0.94007
1306.21884	0.93986
1304.16504	0.93970
1302.11123	0.93948
1300.05743	0.93936
1298.00363	0.93932
1295.94982	0.93922
1293.89602	0.93919
1291.84222	0.93905
1289.78842	0.93867
1287.73461	0.93815
1285.68081	0.93788
1283.62701	0.93801
1281.57320	0.93802
1279.51940	0.93787
1277.46560	0.93761
1275.41179	0.93701
1273.35799	0.93632
1271.30419	0.93602
1269.25038	0.93589
1267.19658	0.93536
1265.14278	0.93479
1263.08897	0.93462
1261.03517	0.93454
1258.98137	0.93447
1256.92756	0.93435
1254.87376	0.93389
1252.81996	0.93339
1250.76615	0.93300
1248.71235	0.93239
1246.65855	0.93187
1244.60474	0.93155
1242.55094	0.93086
1240.49714	0.93003
1238.44334	0.92939
1236.38953	0.92892
1234.33573	0.92858
1232.28193	0.92821
1230.22812	0.92768
1228.17432	0.92696
1226.12052	0.92595
1224.06671	0.92465
1222.01291	0.92352
1219.95911	0.92256
1217.90530	0.92113
1215.85150	0.91923
1213.79770	0.91729
1211.74389	0.91543
1209.69009	0.91339
1207.63629	0.91102
1205.58248	0.90826
1203.52868	0.90532
1201.47488	0.90259
1199.42107	0.89980
1197.36727	0.89698
1195.31347	0.89428
1193.25966	0.89130
1191.20586	0.88783
1189.15206	0.88395
1187.09825	0.88004
1185.04445	0.87650
1182.99065	0.87334
1180.93685	0.86997
1178.88304	0.86616
1176.82924	0.86251
1174.77544	0.85906
1172.72163	0.85531
1170.66783	0.85132
1168.61403	0.84772
1166.56022	0.84466
1164.50642	0.84209
1162.45262	0.84011
1160.39881	0.83871
1158.34501	0.83756
1156.29121	0.83596
1154.23740	0.83404
1152.18360	0.83234
1150.12980	0.83055
1148.07599	0.82855
1146.02219	0.82667
1143.96839	0.82499
1141.91458	0.82312
1139.86078	0.82131
1137.80698	0.81976
1135.75317	0.81755
1133.69937	0.81443
1131.64557	0.81085
1129.59176	0.80728
1127.53796	0.80383
1125.48416	0.79990
1123.43036	0.79529
1121.37655	0.79026
1119.32275	0.78482
1117.26895	0.77882
1115.21514	0.77261
1113.16134	0.76691
1111.10754	0.76190
1109.05373	0.75735
1106.99993	0.75292
1104.94613	0.74864
1102.89232	0.74460
1100.83852	0.74110
1098.78472	0.73832
1096.73091	0.73562
1094.67711	0.73270
1092.62331	0.72971
1090.56950	0.72695
1088.51570	0.72480
1086.46190	0.72295
1084.40809	0.72073
1082.35429	0.71818
1080.30049	0.71590
1078.24668	0.71380
1076.19288	0.71133
1074.13908	0.70852
1072.08528	0.70586
1070.03147	0.70336
1067.97767	0.70017
1065.92387	0.69609
1063.87006	0.69174
1061.81626	0.68747
1059.76246	0.68324
1057.70865	0.67870
1055.65485	0.67357
1053.60105	0.66791
1051.54724	0.66174
1049.49344	0.65471
1047.43964	0.64690
1045.38583	0.63852
1043.33203	0.62983
1041.27823	0.62099
1039.22442	0.61184
1037.17062	0.60302
1035.11682	0.59494
1033.06301	0.58769
1031.00921	0.58167
1028.95541	0.57690
1026.90160	0.57291
1024.84780	0.56932
1022.79400	0.56602
1020.74019	0.56297
1018.68639	0.56003
1016.63259	0.55688
1014.57879	0.55358
1012.52498	0.55050
1010.47118	0.54790
1008.41738	0.54571
1006.36357	0.54365
1004.30977	0.54191
1002.25597	0.54142
1000.20216	0.54243
998.14836	0.54449
996.09456	0.54704
994.04075	0.54967
991.98695	0.55261
989.93315	0.55575
987.87934	0.55941
985.82554	0.56437
983.77174	0.57038
981.71793	0.57704
979.66413	0.58435
977.61033	0.59241
975.55652	0.60130
973.50272	0.61058
971.44892	0.61988
969.39511	0.62943
967.34131	0.63897
965.28751	0.64792
963.23371	0.65625
961.17990	0.66413
959.12610	0.67145
957.07230	0.67798
955.01849	0.68406
952.96469	0.69002
950.91089	0.69528
948.85708	0.69970
946.80328	0.70383
944.74948	0.70748
942.69567	0.71032
940.64187	0.71314
938.58807	0.71652
936.53426	0.72012
934.48046	0.72396
932.42666	0.72805
930.37285	0.73202
928.31905	0.73553
926.26525	0.73860
924.21144	0.74118
922.15764	0.74276
920.10384	0.74353
918.05003	0.74398
915.99623	0.74433
913.94243	0.74509
911.88862	0.74728
909.83482	0.75132
907.78102	0.75654
905.72722	0.76269
903.67341	0.76952
901.61961	0.77645
899.56581	0.78315
897.51200	0.78948
895.45820	0.79546
893.40440	0.80069
891.35059	0.80501
889.29679	0.80856
887.24299	0.81141
885.18918	0.81409
883.13538	0.81648
881.08158	0.81742
879.02777	0.81704
876.97397	0.81776
874.92017	0.82096
872.86636	0.82580
870.81256	0.83116
868.75876	0.83587
866.70495	0.83922
864.65115	0.84156
862.59735	0.84412
860.54354	0.84749
858.48974	0.85110
856.43594	0.85466
854.38213	0.85798
852.32833	0.86088
850.27453	0.86295
848.22073	0.86402
846.16692	0.86455
844.11312	0.86491
842.05932	0.86482
840.00551	0.86415
837.95171	0.86329
835.89791	0.86183
833.84410	0.85969
831.79030	0.85779
829.73650	0.85652
827.68269	0.85615
825.62889	0.85662
823.57509	0.85747
821.52128	0.85864
819.46748	0.85985
817.41368	0.86073
815.35987	0.86111
813.30607	0.86099
811.25227	0.86009
809.19846	0.85715
807.14466	0.85172
805.09086	0.84520
803.03705	0.83945
800.98325	0.83512
798.92945	0.83251
796.87565	0.83176
794.82184	0.83238
792.76804	0.83358
790.71424	0.83433
788.66043	0.83416
786.60663	0.83290
784.55283	0.83016
782.49902	0.82694
780.44522	0.82536
778.39142	0.82578
776.33761	0.82744
774.28381	0.82963
772.23001	0.83082
770.17620	0.83074
768.12240	0.82993
766.06860	0.82814
764.01479	0.82548
761.96099	0.82231
759.90719	0.81964
757.85338	0.81826
755.79958	0.81807
753.74578	0.81885
751.69197	0.82002
749.63817	0.82073
747.58437	0.82049
745.53056	0.82026
743.47676	0.82139
741.42296	0.82357
739.36916	0.82536
737.31535	0.82492
735.26155	0.81868
733.20775	0.80175
731.15394	0.77985
729.10014	0.76983
727.04634	0.77336
724.99253	0.77433
722.93873	0.76124
720.88493	0.73560
718.83112	0.71388
716.77732	0.71500
714.72352	0.73812
712.66971	0.76679
710.61591	0.78761
708.56211	0.79852
706.50830	0.80345
704.45450	0.80534
702.40070	0.80598
700.34689	0.80629
698.29309	0.80574
696.23929	0.80449
694.18548	0.80349
692.13168	0.80368
690.07788	0.80449
688.02408	0.80460
685.97027	0.80425
683.91647	0.80433
681.86267	0.80501
679.80886	0.80538
677.75506	0.80520
675.70126	0.80520
673.64745	0.80525
671.59365	0.80455
669.53985	0.80287
667.48604	0.80180
665.43224	0.80170
663.37844	0.80143
661.32463	0.80131
659.27083	0.80040
657.21703	0.79812
655.16322	0.79547
653.10942	0.79258
651.05562	0.78909
649.00181	0.78631
646.94801	0.78533
644.89421	0.78494
642.84040	0.78496
640.78660	0.78594
638.73280	0.78721
636.67899	0.78817
634.62519	0.78964
632.57139	0.79147
630.51759	0.79242
628.46378	0.79346
626.40998	0.79431
624.35618	0.79404
622.30237	0.79371
620.24857	0.79212
618.19477	0.78829
616.14096	0.78502
614.08716	0.78335
612.03336	0.78039
609.97955	0.77621
607.92575	0.77353
605.87195	0.77147
603.81814	0.76832
601.76434	0.76453
599.71054	0.76111
597.65673	0.75867
595.60293	0.75675
593.54913	0.75466
591.49532	0.75196
589.44152	0.74943
587.38772	0.74764
585.33391	0.74690
583.28011	0.74650
581.22631	0.74447
579.17250	0.74146
577.11870	0.73995
575.06490	0.74024
573.01110	0.73827
570.95729	0.73279
568.90349	0.72723
566.84969	0.72284
564.79588	0.71975
562.74208	0.71703
560.68828	0.71391
558.63447	0.71006
556.58067	0.70389
554.52687	0.69647
552.47306	0.69002
550.41926	0.68543
548.36546	0.68222
546.31165	0.67793
544.25785	0.67059
542.20405	0.66176
540.15024	0.65334
538.09644	0.64527
536.04264	0.63900
533.98883	0.63525
531.93503	0.63397
529.88123	0.63562
527.82742	0.63777
525.77362	0.63798
523.71982	0.63859
521.66602	0.64215
519.61221	0.64611
517.55841	0.65053
515.50461	0.65711
513.45080	0.66240
511.39700	0.66561
509.34320	0.66845
507.28939	0.67200
505.23559	0.67588
503.18179	0.67760
501.12798	0.67638
499.07418	0.67427
497.02038	0.67330
494.96657	0.67347
492.91277	0.67281
490.85897	0.66785
488.80516	0.65804
486.75136	0.64674
484.69756	0.63638
482.64375	0.62614
480.58995	0.61301
478.53615	0.59805
476.48234	0.58478
474.42854	0.57342
472.37474	0.56313
470.32093	0.55546
468.26713	0.55095
466.21333	0.54742
464.15953	0.54576
462.10572	0.54828
460.05192	0.55475
457.99812	0.56444
455.94431	0.57347
453.89051	0.58051
451.83671	0.58636
449.78290	0.58976
447.72910	0.59291
445.67530	0.59673
443.62149	0.59951
441.56769	0.60033
439.51389	0.59947
437.46008	0.59666
435.40628	0.59254
433.35248	0.58827
431.29867	0.58314
429.24487	0.58004
427.19107	0.57906
425.13726	0.57922
423.08346	0.58405
421.02966	0.59049
418.97585	0.59617
416.92205	0.60267
414.86825	0.60641
412.81445	0.60666
410.76064	0.60858
408.70684	0.61551
406.65304	0.62238
404.59923	0.62630
402.54543	0.62983
400.49163	0.63550
398.43782	0.63870
