3996.70104	0.95696
3994.64724	0.95698
3992.59344	0.95719
3990.53964	0.95726
3988.48583	0.95739
3986.43203	0.95758
3984.37823	0.95740
3982.32442	0.95663
3980.27062	0.95599
3978.21682	0.95617
3976.16301	0.95656
3974.10921	0.95667
3972.05541	0.95662
3970.00160	0.95646
3967.94780	0.95670
3965.89400	0.95733
3963.84019	0.95770
3961.78639	0.95795
3959.73259	0.95775
3957.67878	0.95681
3955.62498	0.95625
3953.57118	0.95641
3951.51737	0.95675
3949.46357	0.95709
3947.40977	0.95725
3945.35596	0.95714
3943.30216	0.95720
3941.24836	0.95751
3939.19455	0.95755
3937.14075	0.95747
3935.08695	0.95756
3933.03315	0.95775
3930.97934	0.95784
3928.92554	0.95783
3926.87174	0.95804
3924.81793	0.95832
3922.76413	0.95834
3920.71033	0.95827
3918.65652	0.95814
3916.60272	0.95795
3914.54892	0.95760
3912.49511	0.95723
3910.44131	0.95697
3908.38751	0.95702
3906.33370	0.95757
3904.27990	0.95794
3902.22610	0.95758
3900.17229	0.95759
3898.11849	0.95794
3896.06469	0.95807
3894.01088	0.95828
3891.95708	0.95840
3889.90328	0.95814
3887.84947	0.95795
3885.79567	0.95804
3883.74187	0.95842
3881.68807	0.95875
3879.63426	0.95851
3877.58046	0.95815
3875.52666	0.95836
3873.47285	0.95862
3871.41905	0.95778
3869.36525	0.95672
3867.31144	0.95677
3865.25764	0.95732
3863.20384	0.95806
3861.15003	0.95863
3859.09623	0.95854
3857.04243	0.95831
3854.98862	0.95848
3852.93482	0.95901
3850.88102	0.95942
3848.82721	0.95931
3846.77341	0.95903
3844.71961	0.95905
3842.66580	0.95903
3840.61200	0.95890
3838.55820	0.95933
3836.50439	0.95975
3834.45059	0.95961
3832.39679	0.95929
3830.34298	0.95924
3828.28918	0.95934
3826.23538	0.95906
3824.18158	0.95857
3822.12777	0.95813
3820.07397	0.95782
3818.02017	0.95787
3815.96636	0.95807
3813.91256	0.95822
3811.85876	0.95814
3809.80495	0.95793
3807.75115	0.95796
3805.69735	0.95846
3803.64354	0.95897
3801.58974	0.95885
3799.53594	0.95803
3797.48213	0.95758
3795.42833	0.95818
3793.37453	0.95933
3791.32072	0.95987
3789.26692	0.95951
3787.21312	0.95936
3785.15931	0.96018
3783.10551	0.96082
3781.05171	0.96052
3778.99790	0.95979
3776.94410	0.95946
3774.89030	0.95968
3772.83650	0.95973
3770.78269	0.95925
3768.72889	0.95884
3766.67509	0.95903
3764.62128	0.95937
3762.56748	0.95943
3760.51368	0.95964
3758.45987	0.95993
3756.40607	0.96000
3754.35227	0.96077
3752.29846	0.96181
3750.24466	0.96099
3748.19086	0.95959
3746.13705	0.95929
3744.08325	0.95946
3742.02945	0.95986
3739.97564	0.95997
3737.92184	0.95937
3735.86804	0.95892
3733.81423	0.95970
3731.76043	0.96053
3729.70663	0.96068
3727.65282	0.96082
3725.59902	0.96138
3723.54522	0.96156
3721.49141	0.96127
3719.43761	0.96103
3717.38381	0.96051
3715.33001	0.96009
3713.27620	0.96023
3711.22240	0.96014
3709.16860	0.95921
3707.11479	0.95828
3705.06099	0.95740
3703.00719	0.95607
3700.95338	0.95462
3698.89958	0.95427
3696.84578	0.95474
3694.79197	0.95536
3692.73817	0.95582
3690.68437	0.95583
3688.63056	0.95563
3686.57676	0.95577
3684.52296	0.95589
3682.46915	0.95558
3680.41535	0.95498
3678.36155	0.95468
3676.30774	0.95536
3674.25394	0.95669
3672.20014	0.95665
3670.14633	0.95487
3668.09253	0.95292
3666.03873	0.95245
3663.98492	0.95291
3661.93112	0.95333
3659.87732	0.95325
3657.82352	0.95304
3655.76971	0.95259
3653.71591	0.95206
3651.66211	0.95200
3649.60830	0.95165
3647.55450	0.95048
3645.50070	0.94980
3643.44689	0.94927
3641.39309	0.94860
3639.33929	0.94808
3637.28548	0.94776
3635.23168	0.94764
3633.17788	0.94683
3631.12407	0.94520
3629.07027	0.94447
3627.01647	0.94467
3624.96266	0.94397
3622.90886	0.94314
3620.85506	0.94307
3618.80125	0.94292
3616.74745	0.94199
3614.69365	0.94133
3612.63984	0.94106
3610.58604	0.94141
3608.53224	0.94192
3606.47844	0.94140
3604.42463	0.94076
3602.37083	0.94098
3600.31703	0.94156
3598.26322	0.94149
3596.20942	0.94095
3594.15562	0.94074
3592.10181	0.94075
3590.04801	0.94055
3587.99421	0.94015
3585.94040	0.93976
3583.88660	0.93932
3581.83280	0.93874
3579.77899	0.93795
3577.72519	0.93707
3575.67139	0.93665
3573.61758	0.93670
3571.56378	0.93660
3569.50998	0.93660
3567.45617	0.93642
3565.40237	0.93505
3563.34857	0.93399
3561.29476	0.93381
3559.24096	0.93357
3557.18716	0.93294
3555.13335	0.93237
3553.07955	0.93192
3551.02575	0.93161
3548.97195	0.93142
3546.91814	0.93118
3544.86434	0.93086
3542.81054	0.93018
3540.75673	0.92911
3538.70293	0.92813
3536.64913	0.92773
3534.59532	0.92751
3532.54152	0.92683
3530.48772	0.92625
3528.43391	0.92649
3526.38011	0.92689
3524.32631	0.92669
3522.27250	0.92645
3520.21870	0.92617
3518.16490	0.92550
3516.11109	0.92527
3514.05729	0.92563
3512.00349	0.92537
3509.94968	0.92463
3507.89588	0.92416
3505.84208	0.92383
3503.78827	0.92335
3501.73447	0.92274
3499.68067	0.92221
3497.62687	0.92178
3495.57306	0.92143
3493.51926	0.92105
3491.46546	0.92046
3489.41165	0.92016
3487.35785	0.92063
3485.30405	0.92113
3483.25024	0.92086
3481.19644	0.92008
3479.14264	0.91970
3477.08883	0.91961
3475.03503	0.91918
3472.98123	0.91875
3470.92742	0.91855
3468.87362	0.91823
3466.81982	0.91762
3464.76601	0.91710
3462.71221	0.91701
3460.65841	0.91716
3458.60460	0.91691
3456.55080	0.91629
3454.49700	0.91567
3452.44319	0.91528
3450.38939	0.91525
3448.33559	0.91508
3446.28178	0.91458
3444.22798	0.91435
3442.17418	0.91446
3440.12038	0.91447
3438.06657	0.91398
3436.01277	0.91315
3433.95897	0.91270
3431.90516	0.91280
3429.85136	0.91253
3427.79756	0.91143
3425.74375	0.91040
3423.68995	0.91009
3421.63615	0.91012
3419.58234	0.90991
3417.52854	0.90954
3415.47474	0.90938
3413.42093	0.90930
3411.36713	0.90882
3409.31333	0.90798
3407.25952	0.90744
3405.20572	0.90759
3403.15192	0.90775
3401.09811	0.90746
3399.04431	0.90708
3396.99051	0.90693
3394.93670	0.90698
3392.88290	0.90688
3390.82910	0.90662
3388.77529	0.90640
3386.72149	0.90611
3384.66769	0.90583
3382.61389	0.90605
3380.56008	0.90633
3378.50628	0.90593
3376.45248	0.90557
3374.39867	0.90591
3372.34487	0.90645
3370.29107	0.90656
3368.23726	0.90629
3366.18346	0.90611
3364.12966	0.90641
3362.07585	0.90668
3360.02205	0.90646
3357.96825	0.90653
3355.91444	0.90712
3353.86064	0.90743
3351.80684	0.90715
3349.75303	0.90665
3347.69923	0.90615
3345.64543	0.90574
3343.59162	0.90579
3341.53782	0.90602
3339.48402	0.90590
3337.43021	0.90574
3335.37641	0.90594
3333.32261	0.90647
3331.26881	0.90707
3329.21500	0.90734
3327.16120	0.90736
3325.10740	0.90742
3323.05359	0.90757
3320.99979	0.90787
3318.94599	0.90808
3316.89218	0.90784
3314.83838	0.90759
3312.78458	0.90792
3310.73077	0.90820
3308.67697	0.90808
3306.62317	0.90812
3304.56936	0.90837
3302.51556	0.90815
3300.46176	0.90755
3298.40795	0.90746
3296.35415	0.90796
3294.30035	0.90839
3292.24654	0.90844
3290.19274	0.90826
3288.13894	0.90818
3286.08513	0.90834
3284.03133	0.90870
3281.97753	0.90929
3279.92372	0.90997
3277.86992	0.91042
3275.81612	0.91057
3273.76232	0.91018
3271.70851	0.90956
3269.65471	0.90990
3267.60091	0.91076
3265.54710	0.91083
3263.49330	0.91043
3261.43950	0.91019
3259.38569	0.91011
3257.33189	0.91009
3255.27809	0.91028
3253.22428	0.91060
3251.17048	0.91089
3249.11668	0.91102
3247.06287	0.91105
3245.00907	0.91114
3242.95527	0.91106
3240.90146	0.91104
3238.84766	0.91165
3236.79386	0.91233
3234.74005	0.91260
3232.68625	0.91274
3230.63245	0.91280
3228.57864	0.91279
3226.52484	0.91290
3224.47104	0.91312
3222.41724	0.91310
3220.36343	0.91310
3218.30963	0.91368
3216.25583	0.91447
3214.20202	0.91500
3212.14822	0.91515
3210.09442	0.91515
3208.04061	0.91543
3205.98681	0.91584
3203.93301	0.91624
3201.87920	0.91655
3199.82540	0.91629
3197.77160	0.91574
3195.71779	0.91627
3193.66399	0.91769
3191.61019	0.91860
3189.55638	0.91871
3187.50258	0.91865
3185.44878	0.91852
3183.39497	0.91825
3181.34117	0.91833
3179.28737	0.91902
3177.23356	0.91981
3175.17976	0.92000
3173.12596	0.91963
3171.07215	0.91939
3169.01835	0.92002
3166.96455	0.92106
3164.91075	0.92156
3162.85694	0.92135
3160.80314	0.92086
3158.74934	0.92091
3156.69553	0.92158
3154.64173	0.92236
3152.58793	0.92273
3150.53412	0.92276
3148.48032	0.92322
3146.42652	0.92404
3144.37271	0.92436
3142.31891	0.92438
3140.26511	0.92475
3138.21130	0.92525
3136.15750	0.92542
3134.10370	0.92546
3132.04989	0.92584
3129.99609	0.92616
3127.94229	0.92627
3125.88848	0.92662
3123.83468	0.92704
3121.78088	0.92703
3119.72707	0.92679
3117.67327	0.92697
3115.61947	0.92755
3113.56566	0.92805
3111.51186	0.92833
3109.45806	0.92848
3107.40426	0.92872
3105.35045	0.92922
3103.29665	0.92992
3101.24285	0.93033
3099.18904	0.93014
3097.13524	0.93007
3095.08144	0.93021
3093.02763	0.93005
3090.97383	0.93001
3088.92003	0.93043
3086.86622	0.93089
3084.81242	0.93121
3082.75862	0.93146
3080.70481	0.93138
3078.65101	0.93108
3076.59721	0.93123
3074.54340	0.93147
3072.48960	0.93148
3070.43580	0.93195
3068.38199	0.93288
3066.32819	0.93354
3064.27439	0.93359
3062.22058	0.93332
3060.16678	0.93335
3058.11298	0.93369
3056.05918	0.93373
3054.00537	0.93370
3051.95157	0.93419
3049.89777	0.93468
3047.84396	0.93473
3045.79016	0.93478
3043.73636	0.93502
3041.68255	0.93522
3039.62875	0.93538
3037.57495	0.93581
3035.52114	0.93647
3033.46734	0.93672
3031.41354	0.93638
3029.35973	0.93599
3027.30593	0.93606
3025.25213	0.93653
3023.19832	0.93702
3021.14452	0.93723
3019.09072	0.93745
3017.03691	0.93798
3014.98311	0.93822
3012.92931	0.93807
3010.87550	0.93807
3008.82170	0.93827
3006.76790	0.93856
3004.71409	0.93890
3002.66029	0.93910
3000.60649	0.93882
2998.55269	0.93839
2996.49888	0.93830
2994.44508	0.93822
2992.39128	0.93809
2990.33747	0.93826
2988.28367	0.93850
2986.22987	0.93830
2984.17606	0.93779
2982.12226	0.93736
2980.06846	0.93705
2978.01465	0.93682
2975.96085	0.93665
2973.90705	0.93628
2971.85324	0.93544
2969.79944	0.93446
2967.74564	0.93353
2965.69183	0.93243
2963.63803	0.93117
2961.58423	0.93019
2959.53042	0.92973
2957.47662	0.92927
2955.42282	0.92827
2953.36901	0.92701
2951.31521	0.92575
2949.26141	0.92438
2947.20761	0.92316
2945.15380	0.92198
2943.10000	0.92040
2941.04620	0.91876
2938.99239	0.91700
2936.93859	0.91446
2934.88479	0.91159
2932.83098	0.90908
2930.77718	0.90648
2928.72338	0.90340
2926.66957	0.89986
2924.61577	0.89611
2922.56197	0.89223
2920.50816	0.88831
2918.45436	0.88510
2916.40056	0.88431
2914.34675	0.88722
2912.29295	0.89247
2910.23915	0.89759
2908.18534	0.90170
2906.13154	0.90513
2904.07774	0.90820
2902.02393	0.91075
2899.97013	0.91262
2897.91633	0.91409
2895.86252	0.91533
2893.80872	0.91657
2891.75492	0.91781
2889.70112	0.91901
2887.64731	0.92035
2885.59351	0.92160
2883.53971	0.92252
2881.48590	0.92343
2879.43210	0.92447
2877.37830	0.92536
2875.32449	0.92568
2873.27069	0.92554
2871.21689	0.92543
2869.16308	0.92508
2867.10928	0.92424
2865.05548	0.92312
2863.00167	0.92164
2860.94787	0.91968
2858.89407	0.91731
2856.84026	0.91429
2854.78646	0.91012
2852.73266	0.90501
2850.67885	0.90091
2848.62505	0.90068
2846.57125	0.90485
2844.51744	0.91102
2842.46364	0.91680
2840.40984	0.92097
2838.35603	0.92347
2836.30223	0.92541
2834.24843	0.92763
2832.19463	0.92974
2830.14082	0.93123
2828.08702	0.93219
2826.03322	0.93291
2823.97941	0.93339
2821.92561	0.93385
2819.87181	0.93472
2817.81800	0.93552
2815.76420	0.93580
2813.71040	0.93600
2811.65659	0.93658
2809.60279	0.93709
2807.54899	0.93712
2805.49518	0.93723
2803.44138	0.93773
2801.38758	0.93811
2799.33377	0.93825
2797.27997	0.93867
2795.22617	0.93944
2793.17236	0.93998
2791.11856	0.93992
2789.06476	0.93964
2787.01095	0.93976
2784.95715	0.94016
2782.90335	0.94051
2780.84955	0.94083
2778.79574	0.94097
2776.74194	0.94091
2774.68814	0.94084
2772.63433	0.94092
2770.58053	0.94118
2768.52673	0.94128
2766.47292	0.94116
2764.41912	0.94129
2762.36532	0.94158
2760.31151	0.94181
2758.25771	0.94213
2756.20391	0.94240
2754.15010	0.94250
2752.09630	0.94254
2750.04250	0.94246
2747.98869	0.94255
2745.93489	0.94295
2743.88109	0.94309
2741.82728	0.94280
2739.77348	0.94252
2737.71968	0.94251
2735.66587	0.94263
2733.61207	0.94267
2731.55827	0.94266
2729.50446	0.94264
2727.45066	0.94268
2725.39686	0.94284
2723.34306	0.94302
2721.28925	0.94325
2719.23545	0.94343
2717.18165	0.94328
2715.12784	0.94291
2713.07404	0.94266
2711.02024	0.94280
2708.96643	0.94328
2706.91263	0.94379
2704.85883	0.94424
2702.80502	0.94452
2700.75122	0.94467
2698.69742	0.94473
2696.64361	0.94453
2694.58981	0.94423
2692.53601	0.94409
2690.48220	0.94412
2688.42840	0.94417
2686.37460	0.94440
2684.32079	0.94481
2682.26699	0.94497
2680.21319	0.94486
2678.15938	0.94471
2676.10558	0.94465
2674.05178	0.94458
2671.99797	0.94443
2669.94417	0.94448
2667.89037	0.94462
2665.83657	0.94461
2663.78276	0.94464
2661.72896	0.94475
2659.67516	0.94492
2657.62135	0.94522
2655.56755	0.94538
2653.51375	0.94536
2651.45994	0.94533
2649.40614	0.94523
2647.35234	0.94527
2645.29853	0.94548
2643.24473	0.94557
2641.19093	0.94565
2639.13712	0.94600
2637.08332	0.94621
2635.02952	0.94612
2632.97571	0.94632
2630.92191	0.94668
2628.86811	0.94669
2626.81430	0.94666
2624.76050	0.94667
2622.70670	0.94647
2620.65289	0.94633
2618.59909	0.94652
2616.54529	0.94697
2614.49149	0.94734
2612.43768	0.94742
2610.38388	0.94719
2608.33008	0.94658
2606.27627	0.94633
2604.22247	0.94666
2602.16867	0.94707
2600.11486	0.94760
2598.06106	0.94800
2596.00726	0.94801
2593.95345	0.94767
2591.89965	0.94700
2589.84585	0.94682
2587.79204	0.94763
2585.73824	0.94827
2583.68444	0.94810
2581.63063	0.94795
2579.57683	0.94821
2577.52303	0.94847
2575.46922	0.94838
2573.41542	0.94828
2571.36162	0.94850
2569.30781	0.94860
2567.25401	0.94853
2565.20021	0.94871
2563.14640	0.94896
2561.09260	0.94924
2559.03880	0.94974
2556.98500	0.94984
2554.93119	0.94944
2552.87739	0.94933
2550.82359	0.94934
2548.76978	0.94907
2546.71598	0.94910
2544.66218	0.94944
2542.60837	0.94953
2540.55457	0.94946
2538.50077	0.94948
2536.44696	0.94951
2534.39316	0.94926
2532.33936	0.94907
2530.28555	0.94964
2528.23175	0.95032
2526.17795	0.95049
2524.12414	0.95052
2522.07034	0.95037
2520.01654	0.94990
2517.96273	0.94933
2515.90893	0.94922
2513.85513	0.94976
2511.80132	0.94991
2509.74752	0.94937
2507.69372	0.94916
2505.63992	0.94936
2503.58611	0.94939
2501.53231	0.94922
2499.47851	0.94917
2497.42470	0.94948
2495.37090	0.94995
2493.31710	0.95043
2491.26329	0.95069
2489.20949	0.95058
2487.15569	0.95062
2485.10188	0.95060
2483.04808	0.95010
2480.99428	0.94989
2478.94047	0.95026
2476.88667	0.95015
2474.83287	0.94950
2472.77906	0.94931
2470.72526	0.94996
2468.67146	0.95098
2466.61765	0.95129
2464.56385	0.95080
2462.51005	0.95052
2460.45624	0.95041
2458.40244	0.94992
2456.34864	0.94952
2454.29483	0.94955
2452.24103	0.94955
2450.18723	0.94972
2448.13343	0.95003
2446.07962	0.94983
2444.02582	0.94962
2441.97202	0.94968
2439.91821	0.94955
2437.86441	0.94969
2435.81061	0.95016
2433.75680	0.95034
2431.70300	0.95041
2429.64920	0.95059
2427.59539	0.95054
2425.54159	0.95026
2423.48779	0.95017
2421.43398	0.95039
2419.38018	0.95053
2417.32638	0.95012
2415.27257	0.94978
2413.21877	0.95012
2411.16497	0.95031
2409.11116	0.94998
2407.05736	0.94989
2405.00356	0.95031
2402.94975	0.95084
2400.89595	0.95130
2398.84215	0.95145
2396.78834	0.95112
2394.73454	0.95099
2392.68074	0.95129
2390.62694	0.95144
2388.57313	0.95147
2386.51933	0.95134
2384.46553	0.95107
2382.41172	0.95121
2380.35792	0.95161
2378.30412	0.95149
2376.25031	0.95069
2374.19651	0.95020
2372.14271	0.95027
2370.08890	0.95010
2368.03510	0.94980
2365.98130	0.94991
2363.92749	0.95017
2361.87369	0.95060
2359.81989	0.95133
2357.76608	0.95168
2355.71228	0.95089
2353.65848	0.94955
2351.60467	0.94935
2349.55087	0.94955
2347.49707	0.94921
2345.44326	0.94946
2343.38946	0.95080
2341.33566	0.95168
2339.28186	0.95131
2337.22805	0.95044
2335.17425	0.94977
2333.12045	0.94970
2331.06664	0.95013
2329.01284	0.94971
2326.95904	0.94855
2324.90523	0.94814
2322.85143	0.94858
2320.79763	0.94922
2318.74382	0.94974
2316.69002	0.94976
2314.63622	0.94988
2312.58241	0.95075
2310.52861	0.95152
2308.47481	0.95151
2306.42100	0.95123
2304.36720	0.95100
2302.31340	0.95052
2300.25959	0.95023
2298.20579	0.95069
2296.15199	0.95112
2294.09818	0.95107
2292.04438	0.95084
2289.99058	0.95061
2287.93677	0.95070
2285.88297	0.95126
2283.82917	0.95173
2281.77537	0.95176
2279.72156	0.95158
2277.66776	0.95162
2275.61396	0.95198
2273.56015	0.95183
2271.50635	0.95113
2269.45255	0.95102
2267.39874	0.95169
2265.34494	0.95237
2263.29114	0.95276
2261.23733	0.95278
2259.18353	0.95178
2257.12973	0.95037
2255.07592	0.95020
2253.02212	0.95105
2250.96832	0.95164
2248.91451	0.95181
2246.86071	0.95149
2244.80691	0.95110
2242.75310	0.95168
2240.69930	0.95227
2238.64550	0.95185
2236.59169	0.95144
2234.53789	0.95139
2232.48409	0.95128
2230.43029	0.95229
2228.37648	0.95437
2226.32268	0.95543
2224.26888	0.95546
2222.21507	0.95515
2220.16127	0.95442
2218.10747	0.95358
2216.05366	0.95332
2213.99986	0.95365
2211.94606	0.95367
2209.89225	0.95296
2207.83845	0.95197
2205.78465	0.95151
2203.73084	0.95211
2201.67704	0.95325
2199.62324	0.95403
2197.56943	0.95500
2195.51563	0.95569
2193.46183	0.95456
2191.40802	0.95350
2189.35422	0.95338
2187.30042	0.95283
2185.24661	0.95325
2183.19281	0.95441
2181.13901	0.95382
2179.08520	0.95230
2177.03140	0.95154
2174.97760	0.95243
2172.92380	0.95472
2170.86999	0.95616
2168.81619	0.95609
2166.76239	0.95595
2164.70858	0.95623
2162.65478	0.95511
2160.60098	0.95339
2158.54717	0.95459
2156.49337	0.95649
2154.43957	0.95688
2152.38576	0.95661
2150.33196	0.95531
2148.27816	0.95421
2146.22435	0.95443
2144.17055	0.95474
2142.11675	0.95531
2140.06294	0.95595
2138.00914	0.95532
2135.95534	0.95475
2133.90153	0.95532
2131.84773	0.95552
2129.79393	0.95494
2127.74012	0.95501
2125.68632	0.95570
2123.63252	0.95601
2121.57871	0.95572
2119.52491	0.95473
2117.47111	0.95408
2115.41731	0.95436
2113.36350	0.95431
2111.30970	0.95338
2109.25590	0.95260
2107.20209	0.95258
2105.14829	0.95285
2103.09449	0.95300
2101.04068	0.95281
2098.98688	0.95235
2096.93308	0.95259
2094.87927	0.95340
2092.82547	0.95355
2090.77167	0.95378
2088.71786	0.95484
2086.66406	0.95546
2084.61026	0.95560
2082.55645	0.95543
2080.50265	0.95400
2078.44885	0.95263
2076.39504	0.95296
2074.34124	0.95422
2072.28744	0.95552
2070.23363	0.95623
2068.17983	0.95621
2066.12603	0.95598
2064.07223	0.95609
2062.01842	0.95566
2059.96462	0.95361
2057.91082	0.95218
2055.85701	0.95353
2053.80321	0.95601
2051.74941	0.95631
2049.69560	0.95483
2047.64180	0.95384
2045.58800	0.95270
2043.53419	0.95255
2041.48039	0.95431
2039.42659	0.95573
2037.37278	0.95655
2035.31898	0.95725
2033.26518	0.95795
2031.21137	0.95918
2029.15757	0.95936
2027.10377	0.95925
2025.04996	0.96132
2022.99616	0.96382
2020.94236	0.96448
2018.88855	0.96256
2016.83475	0.95972
2014.78095	0.95891
2012.72714	0.95890
2010.67334	0.95845
2008.61954	0.95960
2006.56574	0.96101
2004.51193	0.96040
2002.45813	0.95936
2000.40433	0.95839
1998.35052	0.95754
1996.29672	0.95759
1994.24292	0.95847
1992.18911	0.95891
1990.13531	0.95762
1988.08151	0.95724
1986.02770	0.95916
1983.97390	0.96048
1981.92010	0.96026
1979.86629	0.95956
1977.81249	0.95918
1975.75869	0.95960
1973.70488	0.95990
1971.65108	0.96028
1969.59728	0.96180
1967.54347	0.96223
1965.48967	0.95997
1963.43587	0.95857
1961.38206	0.95941
1959.32826	0.95887
1957.27446	0.95734
1955.22066	0.95788
1953.16685	0.95865
1951.11305	0.95862
1949.05925	0.95886
1947.00544	0.95883
1944.95164	0.95878
1942.89784	0.95850
1940.84403	0.95737
1938.79023	0.95731
1936.73643	0.95856
1934.68262	0.95919
1932.62882	0.95864
1930.57502	0.95804
1928.52121	0.95819
1926.46741	0.95866
1924.41361	0.95941
1922.35980	0.96005
1920.30600	0.95969
1918.25220	0.95909
1916.19839	0.95880
1914.14459	0.95835
1912.09079	0.95793
1910.03698	0.95815
1907.98318	0.95861
1905.92938	0.95874
1903.87557	0.95874
1901.82177	0.95844
1899.76797	0.95761
1897.71417	0.95760
1895.66036	0.95873
1893.60656	0.95896
1891.55276	0.95789
1889.49895	0.95711
1887.44515	0.95759
1885.39135	0.95852
1883.33754	0.95897
1881.28374	0.95903
1879.22994	0.95872
1877.17613	0.95809
1875.12233	0.95792
1873.06853	0.95821
1871.01472	0.95837
1868.96092	0.95879
1866.90712	0.95907
1864.85331	0.95862
1862.79951	0.95844
1860.74571	0.95891
1858.69190	0.95938
1856.63810	0.95946
1854.58430	0.95907
1852.53049	0.95844
1850.47669	0.95838
1848.42289	0.95898
1846.36908	0.95963
1844.31528	0.95990
1842.26148	0.95931
1840.20768	0.95841
1838.15387	0.95819
1836.10007	0.95871
1834.04627	0.95916
1831.99246	0.95922
1829.93866	0.95889
1827.88486	0.95867
1825.83105	0.95925
1823.77725	0.95990
1821.72345	0.95981
1819.66964	0.95938
1817.61584	0.95902
1815.56204	0.95860
1813.50823	0.95851
1811.45443	0.95911
1809.40063	0.95939
1807.34682	0.95906
1805.29302	0.95916
1803.23922	0.95968
1801.18541	0.95958
1799.13161	0.95893
1797.07781	0.95878
1795.02400	0.95868
1792.97020	0.95797
1790.91640	0.95764
1788.86260	0.95793
1786.80879	0.95797
1784.75499	0.95777
1782.70119	0.95756
1780.64738	0.95746
1778.59358	0.95739
1776.53978	0.95743
1774.48597	0.95752
1772.43217	0.95728
1770.37837	0.95676
1768.32456	0.95614
1766.27076	0.95554
1764.21696	0.95523
1762.16315	0.95481
1760.10935	0.95347
1758.05555	0.95163
1756.00174	0.94961
1753.94794	0.94744
1751.89414	0.94477
1749.84033	0.94092
1747.78653	0.93656
1745.73273	0.93256
1743.67892	0.92865
1741.62512	0.92455
1739.57132	0.92035
1737.51751	0.91723
1735.46371	0.91516
1733.40991	0.91318
1731.35611	0.91231
1729.30230	0.91252
1727.24850	0.91324
1725.19470	0.91417
1723.14089	0.91491
1721.08709	0.91542
1719.03329	0.91636
1716.97948	0.91768
1714.92568	0.91780
1712.87188	0.91753
1710.81807	0.91807
1708.76427	0.91933
1706.71047	0.92094
1704.65666	0.92227
1702.60286	0.92285
1700.54906	0.92341
1698.49525	0.92415
1696.44145	0.92451
1694.38765	0.92468
1692.33384	0.92459
1690.28004	0.92420
1688.22624	0.92367
1686.17243	0.92323
1684.11863	0.92229
1682.06483	0.92086
1680.01103	0.91998
1677.95722	0.91900
1675.90342	0.91748
1673.84962	0.91629
1671.79581	0.91571
1669.74201	0.91454
1667.68821	0.91294
1665.63440	0.91187
1663.58060	0.91070
1661.52680	0.90910
1659.47299	0.90790
1657.41919	0.90710
1655.36539	0.90627
1653.31158	0.90522
1651.25778	0.90437
1649.20398	0.90372
1647.15017	0.90272
1645.09637	0.90201
1643.04257	0.90198
1640.98876	0.90187
1638.93496	0.90144
1636.88116	0.90067
1634.82735	0.89963
1632.77355	0.89931
1630.71975	0.89961
1628.66594	0.89990
1626.61214	0.89991
1624.55834	0.90004
1622.50454	0.90031
1620.45073	0.90054
1618.39693	0.90119
1616.34313	0.90242
1614.28932	0.90338
1612.23552	0.90416
1610.18172	0.90505
1608.12791	0.90575
1606.07411	0.90645
1604.02031	0.90735
1601.96650	0.90799
1599.91270	0.90830
1597.85890	0.90881
1595.80509	0.90955
1593.75129	0.91032
1591.69749	0.91065
1589.64368	0.91055
1587.58988	0.91070
1585.53608	0.91121
1583.48227	0.91189
1581.42847	0.91283
1579.37467	0.91395
1577.32086	0.91494
1575.26706	0.91536
1573.21326	0.91541
1571.15945	0.91558
1569.10565	0.91601
1567.05185	0.91656
1564.99805	0.91712
1562.94424	0.91775
1560.89044	0.91837
1558.83664	0.91839
1556.78283	0.91787
1554.72903	0.91789
1552.67523	0.91798
1550.62142	0.91823
1548.56762	0.91879
1546.51382	0.91951
1544.46001	0.92035
1542.40621	0.92118
1540.35241	0.92188
1538.29860	0.92277
1536.24480	0.92373
1534.19100	0.92475
1532.13719	0.92561
1530.08339	0.92631
1528.02959	0.92720
1525.97578	0.92812
1523.92198	0.92862
1521.86818	0.92823
1519.81437	0.92715
1517.76057	0.92614
1515.70677	0.92525
1513.65297	0.92474
1511.59916	0.92456
1509.54536	0.92458
1507.49156	0.92467
1505.43775	0.92532
1503.38395	0.92639
1501.33015	0.92745
1499.27634	0.92846
1497.22254	0.92956
1495.16874	0.93077
1493.11493	0.93196
1491.06113	0.93325
1489.00733	0.93394
1486.95352	0.93349
1484.89972	0.93309
1482.84592	0.93287
1480.79211	0.93254
1478.73831	0.93201
1476.68451	0.93060
1474.63070	0.92734
1472.57690	0.92187
1470.52310	0.91652
1468.46929	0.91304
1466.41549	0.91069
1464.36169	0.90940
1462.30788	0.90925
1460.25408	0.90970
1458.20028	0.91002
1456.14648	0.90963
1454.09267	0.90962
1452.03887	0.91028
1449.98507	0.91108
1447.93126	0.91167
1445.87746	0.91211
1443.82366	0.91250
1441.76985	0.91276
1439.71605	0.91297
1437.66225	0.91308
1435.60844	0.91279
1433.55464	0.91250
1431.50084	0.91248
1429.44703	0.91242
1427.39323	0.91212
1425.33943	0.91179
1423.28562	0.91146
1421.23182	0.91100
1419.17802	0.91052
1417.12421	0.91036
1415.07041	0.91057
1413.01661	0.91100
1410.96280	0.91172
1408.90900	0.91258
1406.85520	0.91340
1404.80139	0.91430
1402.74759	0.91517
1400.69379	0.91591
1398.63999	0.91656
1396.58618	0.91671
1394.53238	0.91623
1392.47858	0.91593
1390.42477	0.91633
1388.37097	0.91694
1386.31717	0.91702
1384.26336	0.91698
1382.20956	0.91720
1380.15576	0.91714
1378.10195	0.91708
1376.04815	0.91765
1373.99435	0.91815
1371.94054	0.91792
1369.88674	0.91766
1367.83294	0.91778
1365.77913	0.91802
1363.72533	0.91829
1361.67153	0.91892
1359.61772	0.92003
1357.56392	0.92097
1355.51012	0.92135
1353.45631	0.92142
1351.40251	0.92162
1349.34871	0.92213
1347.29491	0.92279
1345.24110	0.92318
1343.18730	0.92321
1341.13350	0.92316
1339.07969	0.92335
1337.02589	0.92369
1334.97209	0.92378
1332.91828	0.92347
1330.86448	0.92307
1328.81068	0.92293
1326.75687	0.92283
1324.70307	0.92246
1322.64927	0.92214
1320.59546	0.92180
1318.54166	0.92103
1316.48786	0.92043
1314.43405	0.92053
1312.38025	0.92094
1310.32645	0.92123
1308.27264	0.92131
1306.21884	0.92145
1304.16504	0.92171
1302.11123	0.92175
1300.05743	0.92144
1298.00363	0.92107
1295.94982	0.92073
1293.89602	0.92013
1291.84222	0.91944
1289.78842	0.91881
1287.73461	0.91796
1285.68081	0.91697
1283.62701	0.91595
1281.57320	0.91489
1279.51940	0.91368
1277.46560	0.91207
1275.41179	0.91066
1273.35799	0.90995
1271.30419	0.90916
1269.25038	0.90789
1267.19658	0.90665
1265.14278	0.90582
1263.08897	0.90534
1261.03517	0.90512
1258.98137	0.90513
1256.92756	0.90524
1254.87376	0.90526
1252.81996	0.90521
1250.76615	0.90515
1248.71235	0.90505
1246.65855	0.90471
1244.60474	0.90387
1242.55094	0.90311
1240.49714	0.90289
1238.44334	0.90294
1236.38953	0.90304
1234.33573	0.90308
1232.28193	0.90312
1230.22812	0.90292
1228.17432	0.90230
1226.12052	0.90182
1224.06671	0.90155
1222.01291	0.90105
1219.95911	0.90033
1217.90530	0.89955
1215.85150	0.89871
1213.79770	0.89780
1211.74389	0.89684
1209.69009	0.89566
1207.63629	0.89419
1205.58248	0.89244
1203.52868	0.89062
1201.47488	0.88883
1199.42107	0.88693
1197.36727	0.88501
1195.31347	0.88285
1193.25966	0.88006
1191.20586	0.87685
1189.15206	0.87347
1187.09825	0.87011
1185.04445	0.86693
1182.99065	0.86370
1180.93685	0.85998
1178.88304	0.85586
1176.82924	0.85192
1174.77544	0.84821
1172.72163	0.84439
1170.66783	0.84050
1168.61403	0.83684
1166.56022	0.83349
1164.50642	0.83032
1162.45262	0.82749
1160.39881	0.82541
1158.34501	0.82406
1156.29121	0.82300
1154.23740	0.82151
1152.18360	0.81946
1150.12980	0.81724
1148.07599	0.81522
1146.02219	0.81391
1143.96839	0.81302
1141.91458	0.81177
1139.86078	0.81047
1137.80698	0.80967
1135.75317	0.80896
1133.69937	0.80787
1131.64557	0.80647
1129.59176	0.80487
1127.53796	0.80317
1125.48416	0.80104
1123.43036	0.79830
1121.37655	0.79521
1119.32275	0.79182
1117.26895	0.78811
1115.21514	0.78411
1113.16134	0.77997
1111.10754	0.77607
1109.05373	0.77275
1106.99993	0.77004
1104.94613	0.76754
1102.89232	0.76499
1100.83852	0.76244
1098.78472	0.75996
1096.73091	0.75790
1094.67711	0.75648
1092.62331	0.75536
1090.56950	0.75417
1088.51570	0.75314
1086.46190	0.75252
1084.40809	0.75223
1082.35429	0.75201
1080.30049	0.75166
1078.24668	0.75109
1076.19288	0.75013
1074.13908	0.74892
1072.08528	0.74755
1070.03147	0.74605
1067.97767	0.74440
1065.92387	0.74221
1063.87006	0.73935
1061.81626	0.73587
1059.76246	0.73228
1057.70865	0.72930
1055.65485	0.72636
1053.60105	0.72265
1051.54724	0.71821
1049.49344	0.71314
1047.43964	0.70754
1045.38583	0.70142
1043.33203	0.69478
1041.27823	0.68783
1039.22442	0.68068
1037.17062	0.67350
1035.11682	0.66667
1033.06301	0.66075
1031.00921	0.65602
1028.95541	0.65219
1026.90160	0.64898
1024.84780	0.64650
1022.79400	0.64456
1020.74019	0.64286
1018.68639	0.64129
1016.63259	0.63943
1014.57879	0.63699
1012.52498	0.63441
1010.47118	0.63213
1008.41738	0.63014
1006.36357	0.62828
1004.30977	0.62684
1002.25597	0.62637
1000.20216	0.62709
998.14836	0.62873
996.09456	0.63094
994.04075	0.63347
991.98695	0.63614
989.93315	0.63885
987.87934	0.64197
985.82554	0.64596
983.77174	0.65075
981.71793	0.65642
979.66413	0.66303
977.61033	0.67013
975.55652	0.67769
973.50272	0.68598
971.44892	0.69468
969.39511	0.70320
967.34131	0.71124
965.28751	0.71885
963.23371	0.72622
961.17990	0.73315
959.12610	0.73940
957.07230	0.74514
955.01849	0.75079
952.96469	0.75653
950.91089	0.76174
948.85708	0.76616
946.80328	0.77026
944.74948	0.77424
942.69567	0.77745
940.64187	0.77989
938.58807	0.78297
936.53426	0.78687
934.48046	0.79040
932.42666	0.79348
930.37285	0.79655
928.31905	0.79908
926.26525	0.80089
924.21144	0.80246
922.15764	0.80352
920.10384	0.80391
918.05003	0.80430
915.99623	0.80466
913.94243	0.80478
911.88862	0.80518
909.83482	0.80662
907.78102	0.80969
905.72722	0.81380
903.67341	0.81788
901.61961	0.82203
899.56581	0.82644
897.51200	0.83065
895.45820	0.83446
893.40440	0.83768
891.35059	0.84008
889.29679	0.84213
887.24299	0.84428
885.18918	0.84597
883.13538	0.84706
881.08158	0.84797
879.02777	0.84843
876.97397	0.84860
874.92017	0.84957
872.86636	0.85181
870.81256	0.85472
868.75876	0.85739
866.70495	0.85937
864.65115	0.86107
862.59735	0.86282
860.54354	0.86449
858.48974	0.86568
856.43594	0.86674
854.38213	0.86810
852.32833	0.86905
850.27453	0.86937
848.22073	0.86959
846.16692	0.86980
844.11312	0.86997
842.05932	0.87000
840.00551	0.86967
837.95171	0.86884
835.89791	0.86779
833.84410	0.86689
831.79030	0.86618
829.73650	0.86536
827.68269	0.86419
825.62889	0.86370
823.57509	0.86435
821.52128	0.86515
819.46748	0.86542
817.41368	0.86494
815.35987	0.86406
813.30607	0.86362
811.25227	0.86331
809.19846	0.86136
807.14466	0.85723
805.09086	0.85230
803.03705	0.84762
800.98325	0.84370
798.92945	0.84126
796.87565	0.84080
794.82184	0.84166
792.76804	0.84236
790.71424	0.84210
788.66043	0.84116
786.60663	0.83995
784.55283	0.83819
782.49902	0.83583
780.44522	0.83426
778.39142	0.83441
776.33761	0.83555
774.28381	0.83682
772.23001	0.83800
770.17620	0.83850
768.12240	0.83779
766.06860	0.83622
764.01479	0.83450
761.96099	0.83296
759.90719	0.83178
757.85338	0.83139
755.79958	0.83145
753.74578	0.83111
751.69197	0.83069
749.63817	0.83074
747.58437	0.83045
745.53056	0.82959
743.47676	0.82963
741.42296	0.83079
739.36916	0.83161
737.31535	0.83166
735.26155	0.83184
733.20775	0.83237
731.15394	0.83218
729.10014	0.83044
727.04634	0.82753
724.99253	0.82476
722.93873	0.82280
720.88493	0.82127
718.83112	0.82138
716.77732	0.82371
714.72352	0.82593
712.66971	0.82702
710.61591	0.82795
708.56211	0.82848
706.50830	0.82780
704.45450	0.82620
702.40070	0.82428
700.34689	0.82187
698.29309	0.81888
696.23929	0.81623
694.18548	0.81499
692.13168	0.81550
690.07788	0.81633
688.02408	0.81606
685.97027	0.81546
683.91647	0.81524
681.86267	0.81480
679.80886	0.81322
677.75506	0.81053
675.70126	0.80826
673.64745	0.80685
671.59365	0.80490
669.53985	0.80135
667.48604	0.79804
665.43224	0.79826
663.37844	0.79979
661.32463	0.80035
659.27083	0.79838
657.21703	0.79503
655.16322	0.79317
653.10942	0.79239
651.05562	0.79120
649.00181	0.79023
646.94801	0.78971
644.89421	0.78994
642.84040	0.79114
640.78660	0.79230
638.73280	0.79314
636.67899	0.79347
634.62519	0.79279
632.57139	0.79179
630.51759	0.79190
628.46378	0.79270
626.40998	0.79175
624.35618	0.78934
622.30237	0.78821
620.24857	0.78742
618.19477	0.78521
616.14096	0.78254
614.08716	0.77946
612.03336	0.77633
609.97955	0.77363
607.92575	0.76974
605.87195	0.76456
603.81814	0.75905
601.76434	0.75354
599.71054	0.74911
597.65673	0.74686
595.60293	0.74647
593.54913	0.74679
591.49532	0.74718
589.44152	0.74740
587.38772	0.74722
585.33391	0.74673
583.28011	0.74597
581.22631	0.74495
579.17250	0.74381
577.11870	0.74263
575.06490	0.74121
573.01110	0.73986
570.95729	0.73850
568.90349	0.73646
566.84969	0.73505
564.79588	0.73328
562.74208	0.72854
560.68828	0.72297
558.63447	0.71832
556.58067	0.71409
554.52687	0.71106
552.47306	0.70860
550.41926	0.70507
548.36546	0.70026
546.31165	0.69455
544.25785	0.68919
542.20405	0.68454
540.15024	0.67733
538.09644	0.66734
536.04264	0.65919
533.98883	0.65343
531.93503	0.64876
529.88123	0.64640
527.82742	0.64581
525.77362	0.64560
523.71982	0.64613
521.66602	0.64824
519.61221	0.65184
517.55841	0.65524
515.50461	0.65777
513.45080	0.66029
511.39700	0.66311
509.34320	0.66527
507.28939	0.66653
505.23559	0.66935
503.18179	0.67396
501.12798	0.67598
499.07418	0.67423
497.02038	0.67246
494.96657	0.67084
492.91277	0.66821
490.85897	0.66449
488.80516	0.65608
486.75136	0.64311
484.69756	0.63121
482.64375	0.62093
480.58995	0.60938
478.53615	0.59708
476.48234	0.58600
474.42854	0.57495
472.37474	0.56117
470.32093	0.54901
468.26713	0.54223
466.21333	0.53876
464.15953	0.53621
462.10572	0.53409
460.05192	0.53643
457.99812	0.54617
455.94431	0.55555
453.89051	0.55857
451.83671	0.56049
449.78290	0.56393
447.72910	0.56930
445.67530	0.57589
443.62149	0.57986
441.56769	0.57910
439.51389	0.57226
437.46008	0.56271
435.40628	0.55939
433.35248	0.56292
431.29867	0.56537
429.24487	0.56573
427.19107	0.56549
425.13726	0.56327
423.08346	0.56034
421.02966	0.56197
418.97585	0.56496
416.92205	0.56252
414.86825	0.56627
412.81445	0.57549
410.76064	0.58275
408.70684	0.59006
406.65304	0.59779
404.59923	0.60156
402.54543	0.60032
400.49163	0.59306
398.43782	0.58373
