3996.70104	0.96167
3994.64724	0.96231
3992.59344	0.96261
3990.53964	0.96270
3988.48583	0.96309
3986.43203	0.96290
3984.37823	0.96214
3982.32442	0.96191
3980.27062	0.96232
3978.21682	0.96279
3976.16301	0.96278
3974.10921	0.96252
3972.05541	0.96266
3970.00160	0.96291
3967.94780	0.96289
3965.89400	0.96285
3963.84019	0.96243
3961.78639	0.96156
3959.73259	0.96139
3957.67878	0.96197
3955.62498	0.96238
3953.57118	0.96253
3951.51737	0.96271
3949.46357	0.96284
3947.40977	0.96277
3945.35596	0.96249
3943.30216	0.96212
3941.24836	0.96199
3939.19455	0.96207
3937.14075	0.96186
3935.08695	0.96152
3933.03315	0.96172
3930.97934	0.96239
3928.92554	0.96301
3926.87174	0.96345
3924.81793	0.96347
3922.76413	0.96294
3920.71033	0.96252
3918.65652	0.96255
3916.60272	0.96242
3914.54892	0.96211
3912.49511	0.96225
3910.44131	0.96300
3908.38751	0.96390
3906.33370	0.96434
3904.27990	0.96389
3902.22610	0.96299
3900.17229	0.96260
3898.11849	0.96275
3896.06469	0.96289
3894.01088	0.96301
3891.95708	0.96329
3889.90328	0.96322
3887.84947	0.96274
3885.79567	0.96246
3883.74187	0.96283
3881.68807	0.96341
3879.63426	0.96334
3877.58046	0.96306
3875.52666	0.96325
3873.47285	0.96384
3871.41905	0.96409
3869.36525	0.96344
3867.31144	0.96303
3865.25764	0.96308
3863.20384	0.96283
3861.15003	0.96255
3859.09623	0.96252
3857.04243	0.96298
3854.98862	0.96406
3852.93482	0.96504
3850.88102	0.96515
3848.82721	0.96470
3846.77341	0.96399
3844.71961	0.96315
3842.66580	0.96203
3840.61200	0.96147
3838.55820	0.96221
3836.50439	0.96317
3834.45059	0.96376
3832.39679	0.96393
3830.34298	0.96368
3828.28918	0.96347
3826.23538	0.96325
3824.18158	0.96289
3822.12777	0.96262
3820.07397	0.96315
3818.02017	0.96412
3815.96636	0.96413
3813.91256	0.96373
3811.85876	0.96394
3809.80495	0.96395
3807.75115	0.96336
3805.69735	0.96302
3803.64354	0.96282
3801.58974	0.96204
3799.53594	0.96173
3797.48213	0.96244
3795.42833	0.96335
3793.37453	0.96406
3791.32072	0.96445
3789.26692	0.96455
3787.21312	0.96412
3785.15931	0.96355
3783.10551	0.96368
3781.05171	0.96394
3778.99790	0.96408
3776.94410	0.96448
3774.89030	0.96451
3772.83650	0.96369
3770.78269	0.96263
3768.72889	0.96202
3766.67509	0.96204
3764.62128	0.96275
3762.56748	0.96363
3760.51368	0.96415
3758.45987	0.96400
3756.40607	0.96332
3754.35227	0.96328
3752.29846	0.96446
3750.24466	0.96556
3748.19086	0.96532
3746.13705	0.96481
3744.08325	0.96483
3742.02945	0.96556
3739.97564	0.96607
3737.92184	0.96634
3735.86804	0.96671
3733.81423	0.96617
3731.76043	0.96486
3729.70663	0.96387
3727.65282	0.96361
3725.59902	0.96430
3723.54522	0.96480
3721.49141	0.96397
3719.43761	0.96253
3717.38381	0.96180
3715.33001	0.96222
3713.27620	0.96249
3711.22240	0.96101
3709.16860	0.95892
3707.11479	0.95756
3705.06099	0.95642
3703.00719	0.95495
3700.95338	0.95327
3698.89958	0.95230
3696.84578	0.95252
3694.79197	0.95335
3692.73817	0.95377
3690.68437	0.95362
3688.63056	0.95343
3686.57676	0.95368
3684.52296	0.95409
3682.46915	0.95441
3680.41535	0.95453
3678.36155	0.95420
3676.30774	0.95400
3674.25394	0.95425
3672.20014	0.95365
3670.14633	0.95243
3668.09253	0.95189
3666.03873	0.95132
3663.98492	0.94982
3661.93112	0.94841
3659.87732	0.94797
3657.82352	0.94791
3655.76971	0.94767
3653.71591	0.94750
3651.66211	0.94726
3649.60830	0.94687
3647.55450	0.94647
3645.50070	0.94555
3643.44689	0.94470
3641.39309	0.94421
3639.33929	0.94354
3637.28548	0.94281
3635.23168	0.94234
3633.17788	0.94194
3631.12407	0.94149
3629.07027	0.94049
3627.01647	0.93903
3624.96266	0.93821
3622.90886	0.93822
3620.85506	0.93860
3618.80125	0.93841
3616.74745	0.93819
3614.69365	0.93815
3612.63984	0.93732
3610.58604	0.93677
3608.53224	0.93767
3606.47844	0.93887
3604.42463	0.93970
3602.37083	0.94029
3600.31703	0.94013
3598.26322	0.93910
3596.20942	0.93818
3594.15562	0.93835
3592.10181	0.93925
3590.04801	0.94026
3587.99421	0.94096
3585.94040	0.94029
3583.88660	0.93951
3581.83280	0.93969
3579.77899	0.93975
3577.72519	0.93903
3575.67139	0.93827
3573.61758	0.93806
3571.56378	0.93808
3569.50998	0.93783
3567.45617	0.93707
3565.40237	0.93664
3563.34857	0.93725
3561.29476	0.93790
3559.24096	0.93748
3557.18716	0.93635
3555.13335	0.93554
3553.07955	0.93521
3551.02575	0.93485
3548.97195	0.93443
3546.91814	0.93442
3544.86434	0.93481
3542.81054	0.93525
3540.75673	0.93558
3538.70293	0.93544
3536.64913	0.93511
3534.59532	0.93531
3532.54152	0.93559
3530.48772	0.93528
3528.43391	0.93479
3526.38011	0.93465
3524.32631	0.93492
3522.27250	0.93532
3520.21870	0.93527
3518.16490	0.93483
3516.11109	0.93452
3514.05729	0.93458
3512.00349	0.93457
3509.94968	0.93433
3507.89588	0.93444
3505.84208	0.93458
3503.78827	0.93413
3501.73447	0.93357
3499.68067	0.93382
3497.62687	0.93419
3495.57306	0.93353
3493.51926	0.93279
3491.46546	0.93311
3489.41165	0.93371
3487.35785	0.93363
3485.30405	0.93321
3483.25024	0.93291
3481.19644	0.93279
3479.14264	0.93288
3477.08883	0.93291
3475.03503	0.93236
3472.98123	0.93135
3470.92742	0.93091
3468.87362	0.93103
3466.81982	0.93083
3464.76601	0.93023
3462.71221	0.92978
3460.65841	0.92972
3458.60460	0.92967
3456.55080	0.92972
3454.49700	0.93002
3452.44319	0.92984
3450.38939	0.92916
3448.33559	0.92855
3446.28178	0.92825
3444.22798	0.92831
3442.17418	0.92847
3440.12038	0.92879
3438.06657	0.92917
3436.01277	0.92900
3433.95897	0.92822
3431.90516	0.92744
3429.85136	0.92732
3427.79756	0.92783
3425.74375	0.92803
3423.68995	0.92755
3421.63615	0.92695
3419.58234	0.92636
3417.52854	0.92622
3415.47474	0.92683
3413.42093	0.92735
3411.36713	0.92721
3409.31333	0.92647
3407.25952	0.92545
3405.20572	0.92493
3403.15192	0.92516
3401.09811	0.92558
3399.04431	0.92554
3396.99051	0.92543
3394.93670	0.92598
3392.88290	0.92633
3390.82910	0.92565
3388.77529	0.92499
3386.72149	0.92530
3384.66769	0.92589
3382.61389	0.92590
3380.56008	0.92549
3378.50628	0.92503
3376.45248	0.92472
3374.39867	0.92482
3372.34487	0.92546
3370.29107	0.92606
3368.23726	0.92590
3366.18346	0.92532
3364.12966	0.92497
3362.07585	0.92497
3360.02205	0.92521
3357.96825	0.92531
3355.91444	0.92533
3353.86064	0.92556
3351.80684	0.92585
3349.75303	0.92618
3347.69923	0.92642
3345.64543	0.92633
3343.59162	0.92622
3341.53782	0.92648
3339.48402	0.92672
3337.43021	0.92629
3335.37641	0.92569
3333.32261	0.92587
3331.26881	0.92667
3329.21500	0.92714
3327.16120	0.92713
3325.10740	0.92712
3323.05359	0.92695
3320.99979	0.92644
3318.94599	0.92597
3316.89218	0.92597
3314.83838	0.92646
3312.78458	0.92714
3310.73077	0.92726
3308.67697	0.92686
3306.62317	0.92682
3304.56936	0.92707
3302.51556	0.92738
3300.46176	0.92788
3298.40795	0.92819
3296.35415	0.92803
3294.30035	0.92760
3292.24654	0.92749
3290.19274	0.92798
3288.13894	0.92854
3286.08513	0.92877
3284.03133	0.92883
3281.97753	0.92865
3279.92372	0.92842
3277.86992	0.92870
3275.81612	0.92903
3273.76232	0.92875
3271.70851	0.92856
3269.65471	0.92899
3267.60091	0.92947
3265.54710	0.92964
3263.49330	0.92970
3261.43950	0.92984
3259.38569	0.92998
3257.33189	0.93007
3255.27809	0.93022
3253.22428	0.93062
3251.17048	0.93135
3249.11668	0.93189
3247.06287	0.93164
3245.00907	0.93103
3242.95527	0.93105
3240.90146	0.93151
3238.84766	0.93172
3236.79386	0.93182
3234.74005	0.93182
3232.68625	0.93172
3230.63245	0.93208
3228.57864	0.93275
3226.52484	0.93329
3224.47104	0.93353
3222.41724	0.93346
3220.36343	0.93376
3218.30963	0.93444
3216.25583	0.93441
3214.20202	0.93390
3212.14822	0.93408
3210.09442	0.93497
3208.04061	0.93580
3205.98681	0.93608
3203.93301	0.93620
3201.87920	0.93626
3199.82540	0.93585
3197.77160	0.93548
3195.71779	0.93574
3193.66399	0.93672
3191.61019	0.93796
3189.55638	0.93846
3187.50258	0.93797
3185.44878	0.93746
3183.39497	0.93767
3181.34117	0.93816
3179.28737	0.93821
3177.23356	0.93801
3175.17976	0.93825
3173.12596	0.93869
3171.07215	0.93893
3169.01835	0.93940
3166.96455	0.93998
3164.91075	0.94046
3162.85694	0.94080
3160.80314	0.94068
3158.74934	0.94057
3156.69553	0.94108
3154.64173	0.94141
3152.58793	0.94116
3150.53412	0.94123
3148.48032	0.94180
3146.42652	0.94226
3144.37271	0.94257
3142.31891	0.94270
3140.26511	0.94244
3138.21130	0.94216
3136.15750	0.94238
3134.10370	0.94292
3132.04989	0.94326
3129.99609	0.94343
3127.94229	0.94357
3125.88848	0.94377
3123.83468	0.94434
3121.78088	0.94496
3119.72707	0.94511
3117.67327	0.94484
3115.61947	0.94450
3113.56566	0.94433
3111.51186	0.94396
3109.45806	0.94357
3107.40426	0.94369
3105.35045	0.94402
3103.29665	0.94409
3101.24285	0.94388
3099.18904	0.94372
3097.13524	0.94404
3095.08144	0.94434
3093.02763	0.94387
3090.97383	0.94289
3088.92003	0.94157
3086.86622	0.93971
3084.81242	0.93784
3082.75862	0.93693
3080.70481	0.93740
3078.65101	0.93875
3076.59721	0.94001
3074.54340	0.94077
3072.48960	0.94093
3070.43580	0.94040
3068.38199	0.93932
3066.32819	0.93780
3064.27439	0.93616
3062.22058	0.93489
3060.16678	0.93443
3058.11298	0.93460
3056.05918	0.93532
3054.00537	0.93706
3051.95157	0.93934
3049.89777	0.94109
3047.84396	0.94207
3045.79016	0.94279
3043.73636	0.94322
3041.68255	0.94293
3039.62875	0.94228
3037.57495	0.94156
3035.52114	0.93987
3033.46734	0.93637
3031.41354	0.93178
3029.35973	0.92720
3027.30593	0.92336
3025.25213	0.92119
3023.19832	0.92180
3021.14452	0.92524
3019.09072	0.92989
3017.03691	0.93415
3014.98311	0.93766
3012.92931	0.94024
3010.87550	0.94200
3008.82170	0.94306
3006.76790	0.94307
3004.71409	0.94256
3002.66029	0.94232
3000.60649	0.94262
2998.55269	0.94337
2996.49888	0.94413
2994.44508	0.94496
2992.39128	0.94602
2990.33747	0.94690
2988.28367	0.94741
2986.22987	0.94777
2984.17606	0.94809
2982.12226	0.94802
2980.06846	0.94754
2978.01465	0.94707
2975.96085	0.94672
2973.90705	0.94648
2971.85324	0.94650
2969.79944	0.94654
2967.74564	0.94625
2965.69183	0.94592
2963.63803	0.94571
2961.58423	0.94531
2959.53042	0.94485
2957.47662	0.94455
2955.42282	0.94417
2953.36901	0.94361
2951.31521	0.94295
2949.26141	0.94168
2947.20761	0.93972
2945.15380	0.93791
2943.10000	0.93637
2941.04620	0.93456
2938.99239	0.93210
2936.93859	0.92911
2934.88479	0.92622
2932.83098	0.92350
2930.77718	0.92038
2928.72338	0.91705
2926.66957	0.91423
2924.61577	0.91187
2922.56197	0.90987
2920.50816	0.90889
2918.45436	0.90911
2916.40056	0.91010
2914.34675	0.91172
2912.29295	0.91359
2910.23915	0.91536
2908.18534	0.91714
2906.13154	0.91921
2904.07774	0.92172
2902.02393	0.92425
2899.97013	0.92659
2897.91633	0.92879
2895.86252	0.93061
2893.80872	0.93182
2891.75492	0.93270
2889.70112	0.93383
2887.64731	0.93512
2885.59351	0.93594
2883.53971	0.93635
2881.48590	0.93680
2879.43210	0.93771
2877.37830	0.93890
2875.32449	0.93976
2873.27069	0.94025
2871.21689	0.94052
2869.16308	0.94045
2867.10928	0.93993
2865.05548	0.93946
2863.00167	0.93931
2860.94787	0.93875
2858.89407	0.93762
2856.84026	0.93638
2854.78646	0.93492
2852.73266	0.93346
2850.67885	0.93261
2848.62505	0.93276
2846.57125	0.93389
2844.51744	0.93562
2842.46364	0.93746
2840.40984	0.93926
2838.35603	0.94152
2836.30223	0.94409
2834.24843	0.94594
2832.19463	0.94675
2830.14082	0.94716
2828.08702	0.94782
2826.03322	0.94856
2823.97941	0.94892
2821.92561	0.94912
2819.87181	0.94971
2817.81800	0.95046
2815.76420	0.95097
2813.71040	0.95107
2811.65659	0.95070
2809.60279	0.95050
2807.54899	0.95084
2805.49518	0.95137
2803.44138	0.95173
2801.38758	0.95179
2799.33377	0.95188
2797.27997	0.95214
2795.22617	0.95232
2793.17236	0.95256
2791.11856	0.95275
2789.06476	0.95270
2787.01095	0.95280
2784.95715	0.95309
2782.90335	0.95344
2780.84955	0.95376
2778.79574	0.95390
2776.74194	0.95375
2774.68814	0.95346
2772.63433	0.95350
2770.58053	0.95399
2768.52673	0.95431
2766.47292	0.95415
2764.41912	0.95413
2762.36532	0.95447
2760.31151	0.95484
2758.25771	0.95488
2756.20391	0.95458
2754.15010	0.95447
2752.09630	0.95470
2750.04250	0.95496
2747.98869	0.95501
2745.93489	0.95490
2743.88109	0.95483
2741.82728	0.95486
2739.77348	0.95486
2737.71968	0.95477
2735.66587	0.95472
2733.61207	0.95489
2731.55827	0.95520
2729.50446	0.95534
2727.45066	0.95532
2725.39686	0.95532
2723.34306	0.95531
2721.28925	0.95546
2719.23545	0.95586
2717.18165	0.95604
2715.12784	0.95571
2713.07404	0.95541
2711.02024	0.95551
2708.96643	0.95572
2706.91263	0.95617
2704.85883	0.95671
2702.80502	0.95679
2700.75122	0.95655
2698.69742	0.95630
2696.64361	0.95602
2694.58981	0.95574
2692.53601	0.95551
2690.48220	0.95550
2688.42840	0.95595
2686.37460	0.95655
2684.32079	0.95681
2682.26699	0.95670
2680.21319	0.95647
2678.15938	0.95637
2676.10558	0.95619
2674.05178	0.95556
2671.99797	0.95512
2669.94417	0.95555
2667.89037	0.95630
2665.83657	0.95661
2663.78276	0.95650
2661.72896	0.95668
2659.67516	0.95685
2657.62135	0.95637
2655.56755	0.95581
2653.51375	0.95569
2651.45994	0.95590
2649.40614	0.95621
2647.35234	0.95656
2645.29853	0.95688
2643.24473	0.95690
2641.19093	0.95666
2639.13712	0.95650
2637.08332	0.95643
2635.02952	0.95632
2632.97571	0.95624
2630.92191	0.95615
2628.86811	0.95611
2626.81430	0.95634
2624.76050	0.95695
2622.70670	0.95767
2620.65289	0.95809
2618.59909	0.95806
2616.54529	0.95800
2614.49149	0.95821
2612.43768	0.95835
2610.38388	0.95836
2608.33008	0.95842
2606.27627	0.95839
2604.22247	0.95834
2602.16867	0.95853
2600.11486	0.95866
2598.06106	0.95799
2596.00726	0.95706
2593.95345	0.95714
2591.89965	0.95774
2589.84585	0.95765
2587.79204	0.95725
2585.73824	0.95756
2583.68444	0.95846
2581.63063	0.95902
2579.57683	0.95899
2577.52303	0.95893
2575.46922	0.95893
2573.41542	0.95875
2571.36162	0.95876
2569.30781	0.95933
2567.25401	0.95975
2565.20021	0.95941
2563.14640	0.95873
2561.09260	0.95854
2559.03880	0.95916
2556.98500	0.95996
2554.93119	0.96052
2552.87739	0.96096
2550.82359	0.96080
2548.76978	0.95995
2546.71598	0.95947
2544.66218	0.95989
2542.60837	0.96020
2540.55457	0.95946
2538.50077	0.95872
2536.44696	0.95898
2534.39316	0.95939
2532.33936	0.95926
2530.28555	0.95908
2528.23175	0.95950
2526.17795	0.96017
2524.12414	0.95995
2522.07034	0.95880
2520.01654	0.95821
2517.96273	0.95877
2515.90893	0.95921
2513.85513	0.95918
2511.80132	0.95945
2509.74752	0.95958
2507.69372	0.95914
2505.63992	0.95844
2503.58611	0.95809
2501.53231	0.95860
2499.47851	0.95954
2497.42470	0.95983
2495.37090	0.95897
2493.31710	0.95816
2491.26329	0.95831
2489.20949	0.95864
2487.15569	0.95882
2485.10188	0.95926
2483.04808	0.95988
2480.99428	0.96051
2478.94047	0.96078
2476.88667	0.96036
2474.83287	0.96008
2472.77906	0.96025
2470.72526	0.95996
2468.67146	0.95940
2466.61765	0.95964
2464.56385	0.96003
2462.51005	0.96018
2460.45624	0.96062
2458.40244	0.96049
2456.34864	0.95982
2454.29483	0.95969
2452.24103	0.96007
2450.18723	0.96036
2448.13343	0.96035
2446.07962	0.96039
2444.02582	0.96035
2441.97202	0.96021
2439.91821	0.96048
2437.86441	0.96098
2435.81061	0.96105
2433.75680	0.96097
2431.70300	0.96152
2429.64920	0.96214
2427.59539	0.96175
2425.54159	0.96095
2423.48779	0.96077
2421.43398	0.96101
2419.38018	0.96118
2417.32638	0.96125
2415.27257	0.96108
2413.21877	0.96055
2411.16497	0.96044
2409.11116	0.96104
2407.05736	0.96171
2405.00356	0.96223
2402.94975	0.96237
2400.89595	0.96197
2398.84215	0.96162
2396.78834	0.96136
2394.73454	0.96086
2392.68074	0.96066
2390.62694	0.96095
2388.57313	0.96093
2386.51933	0.96073
2384.46553	0.96107
2382.41172	0.96141
2380.35792	0.96129
2378.30412	0.96109
2376.25031	0.96085
2374.19651	0.96053
2372.14271	0.96033
2370.08890	0.95991
2368.03510	0.95933
2365.98130	0.95972
2363.92749	0.96118
2361.87369	0.96213
2359.81989	0.96213
2357.76608	0.96285
2355.71228	0.96397
2353.65848	0.96342
2351.60467	0.96163
2349.55087	0.96062
2347.49707	0.96084
2345.44326	0.96080
2343.38946	0.96000
2341.33566	0.96037
2339.28186	0.96118
2337.22805	0.96054
2335.17425	0.95954
2333.12045	0.95920
2331.06664	0.95920
2329.01284	0.95956
2326.95904	0.95950
2324.90523	0.95844
2322.85143	0.95758
2320.79763	0.95813
2318.74382	0.95925
2316.69002	0.95968
2314.63622	0.95923
2312.58241	0.95860
2310.52861	0.95867
2308.47481	0.95928
2306.42100	0.95952
2304.36720	0.95944
2302.31340	0.95989
2300.25959	0.96062
2298.20579	0.96091
2296.15199	0.96068
2294.09818	0.95970
2292.04438	0.95889
2289.99058	0.95938
2287.93677	0.96000
2285.88297	0.95942
2283.82917	0.95893
2281.77537	0.95985
2279.72156	0.96114
2277.66776	0.96145
2275.61396	0.96099
2273.56015	0.96113
2271.50635	0.96199
2269.45255	0.96246
2267.39874	0.96253
2265.34494	0.96234
2263.29114	0.96176
2261.23733	0.96135
2259.18353	0.96135
2257.12973	0.96110
2255.07592	0.96053
2253.02212	0.96028
2250.96832	0.96042
2248.91451	0.96138
2246.86071	0.96288
2244.80691	0.96293
2242.75310	0.96119
2240.69930	0.96069
2238.64550	0.96298
2236.59169	0.96483
2234.53789	0.96344
2232.48409	0.96132
2230.43029	0.96155
2228.37648	0.96284
2226.32268	0.96309
2224.26888	0.96279
2222.21507	0.96312
2220.16127	0.96396
2218.10747	0.96422
2216.05366	0.96361
2213.99986	0.96376
2211.94606	0.96477
2209.89225	0.96444
2207.83845	0.96271
2205.78465	0.96168
2203.73084	0.96288
2201.67704	0.96499
2199.62324	0.96468
2197.56943	0.96232
2195.51563	0.96097
2193.46183	0.96132
2191.40802	0.96231
2189.35422	0.96279
2187.30042	0.96245
2185.24661	0.96223
2183.19281	0.96229
2181.13901	0.96140
2179.08520	0.96019
2177.03140	0.96064
2174.97760	0.96246
2172.92380	0.96366
2170.86999	0.96304
2168.81619	0.96081
2166.76239	0.95766
2164.70858	0.95583
2162.65478	0.95663
2160.60098	0.95974
2158.54717	0.96561
2156.49337	0.97016
2154.43957	0.96985
2152.38576	0.96773
2150.33196	0.96701
2148.27816	0.96692
2146.22435	0.96681
2144.17055	0.96767
2142.11675	0.96823
2140.06294	0.96737
2138.00914	0.96602
2135.95534	0.96547
2133.90153	0.96659
2131.84773	0.96808
2129.79393	0.96766
2127.74012	0.96603
2125.68632	0.96516
2123.63252	0.96516
2121.57871	0.96490
2119.52491	0.96384
2117.47111	0.96301
2115.41731	0.96307
2113.36350	0.96309
2111.30970	0.96263
2109.25590	0.96256
2107.20209	0.96345
2105.14829	0.96452
2103.09449	0.96430
2101.04068	0.96272
2098.98688	0.96131
2096.93308	0.96163
2094.87927	0.96313
2092.82547	0.96376
2090.77167	0.96419
2088.71786	0.96467
2086.66406	0.96293
2084.61026	0.96061
2082.55645	0.96119
2080.50265	0.96351
2078.44885	0.96450
2076.39504	0.96388
2074.34124	0.96322
2072.28744	0.96256
2070.23363	0.96199
2068.17983	0.96301
2066.12603	0.96400
2064.07223	0.96343
2062.01842	0.96307
2059.96462	0.96250
2057.91082	0.96159
2055.85701	0.96211
2053.80321	0.96306
2051.74941	0.96309
2049.69560	0.96370
2047.64180	0.96517
2045.58800	0.96568
2043.53419	0.96588
2041.48039	0.96578
2039.42659	0.96422
2037.37278	0.96297
2035.31898	0.96358
2033.26518	0.96391
2031.21137	0.96248
2029.15757	0.96250
2027.10377	0.96505
2025.04996	0.96595
2022.99616	0.96568
2020.94236	0.96815
2018.88855	0.97003
2016.83475	0.96777
2014.78095	0.96560
2012.72714	0.96648
2010.67334	0.96808
2008.61954	0.96797
2006.56574	0.96698
2004.51193	0.96686
2002.45813	0.96737
2000.40433	0.96804
1998.35052	0.96838
1996.29672	0.96783
1994.24292	0.96722
1992.18911	0.96747
1990.13531	0.96884
1988.08151	0.97036
1986.02770	0.97013
1983.97390	0.96806
1981.92010	0.96515
1979.86629	0.96281
1977.81249	0.96240
1975.75869	0.96264
1973.70488	0.96246
1971.65108	0.96419
1969.59728	0.96803
1967.54347	0.97035
1965.48967	0.96918
1963.43587	0.96586
1961.38206	0.96295
1959.32826	0.96190
1957.27446	0.96196
1955.22066	0.96160
1953.16685	0.96116
1951.11305	0.96135
1949.05925	0.96130
1947.00544	0.96074
1944.95164	0.95964
1942.89784	0.95899
1940.84403	0.95982
1938.79023	0.96017
1936.73643	0.96046
1934.68262	0.96195
1932.62882	0.96298
1930.57502	0.96292
1928.52121	0.96213
1926.46741	0.96148
1924.41361	0.96219
1922.35980	0.96364
1920.30600	0.96467
1918.25220	0.96467
1916.19839	0.96396
1914.14459	0.96378
1912.09079	0.96392
1910.03698	0.96375
1907.98318	0.96344
1905.92938	0.96324
1903.87557	0.96347
1901.82177	0.96358
1899.76797	0.96314
1897.71417	0.96306
1895.66036	0.96294
1893.60656	0.96200
1891.55276	0.96146
1889.49895	0.96177
1887.44515	0.96172
1885.39135	0.96094
1883.33754	0.96067
1881.28374	0.96116
1879.22994	0.96108
1877.17613	0.96076
1875.12233	0.96125
1873.06853	0.96225
1871.01472	0.96302
1868.96092	0.96232
1866.90712	0.96056
1864.85331	0.95952
1862.79951	0.95932
1860.74571	0.95966
1858.69190	0.96038
1856.63810	0.96138
1854.58430	0.96233
1852.53049	0.96276
1850.47669	0.96263
1848.42289	0.96236
1846.36908	0.96253
1844.31528	0.96335
1842.26148	0.96399
1840.20768	0.96382
1838.15387	0.96327
1836.10007	0.96296
1834.04627	0.96307
1831.99246	0.96297
1829.93866	0.96246
1827.88486	0.96224
1825.83105	0.96241
1823.77725	0.96250
1821.72345	0.96247
1819.66964	0.96262
1817.61584	0.96262
1815.56204	0.96184
1813.50823	0.96079
1811.45443	0.96015
1809.40063	0.95974
1807.34682	0.95942
1805.29302	0.95902
1803.23922	0.95848
1801.18541	0.95850
1799.13161	0.95940
1797.07781	0.96024
1795.02400	0.96049
1792.97020	0.96062
1790.91640	0.96086
1788.86260	0.96057
1786.80879	0.95995
1784.75499	0.95984
1782.70119	0.96029
1780.64738	0.96067
1778.59358	0.96092
1776.53978	0.96118
1774.48597	0.96144
1772.43217	0.96159
1770.37837	0.96128
1768.32456	0.96076
1766.27076	0.96055
1764.21696	0.96057
1762.16315	0.96047
1760.10935	0.96028
1758.05555	0.96022
1756.00174	0.96007
1753.94794	0.95978
1751.89414	0.95934
1749.84033	0.95846
1747.78653	0.95733
1745.73273	0.95648
1743.67892	0.95616
1741.62512	0.95617
1739.57132	0.95585
1737.51751	0.95536
1735.46371	0.95549
1733.40991	0.95593
1731.35611	0.95577
1729.30230	0.95542
1727.24850	0.95530
1725.19470	0.95523
1723.14089	0.95502
1721.08709	0.95500
1719.03329	0.95532
1716.97948	0.95569
1714.92568	0.95577
1712.87188	0.95569
1710.81807	0.95545
1708.76427	0.95511
1706.71047	0.95468
1704.65666	0.95407
1702.60286	0.95346
1700.54906	0.95303
1698.49525	0.95254
1696.44145	0.95182
1694.38765	0.95121
1692.33384	0.95060
1690.28004	0.94962
1688.22624	0.94864
1686.17243	0.94808
1684.11863	0.94698
1682.06483	0.94508
1680.01103	0.94378
1677.95722	0.94303
1675.90342	0.94205
1673.84962	0.94083
1671.79581	0.94021
1669.74201	0.93968
1667.68821	0.93894
1665.63440	0.93838
1663.58060	0.93774
1661.52680	0.93713
1659.47299	0.93667
1657.41919	0.93598
1655.36539	0.93511
1653.31158	0.93454
1651.25778	0.93486
1649.20398	0.93517
1647.15017	0.93507
1645.09637	0.93491
1643.04257	0.93499
1640.98876	0.93504
1638.93496	0.93498
1636.88116	0.93467
1634.82735	0.93397
1632.77355	0.93345
1630.71975	0.93331
1628.66594	0.93341
1626.61214	0.93368
1624.55834	0.93381
1622.50454	0.93361
1620.45073	0.93334
1618.39693	0.93316
1616.34313	0.93293
1614.28932	0.93280
1612.23552	0.93229
1610.18172	0.93030
1608.12791	0.92615
1606.07411	0.92002
1604.02031	0.91269
1601.96650	0.90645
1599.91270	0.90469
1597.85890	0.90768
1595.80509	0.91257
1593.75129	0.91684
1591.69749	0.91957
1589.64368	0.92061
1587.58988	0.91984
1585.53608	0.91756
1583.48227	0.91530
1581.42847	0.91487
1579.37467	0.91640
1577.32086	0.91896
1575.26706	0.92119
1573.21326	0.92169
1571.15945	0.92142
1569.10565	0.92136
1567.05185	0.92130
1564.99805	0.92099
1562.94424	0.92105
1560.89044	0.92127
1558.83664	0.92011
1556.78283	0.91907
1554.72903	0.91946
1552.67523	0.91999
1550.62142	0.92075
1548.56762	0.92197
1546.51382	0.92338
1544.46001	0.92496
1542.40621	0.92625
1540.35241	0.92726
1538.29860	0.92919
1536.24480	0.93098
1534.19100	0.93240
1532.13719	0.93366
1530.08339	0.93442
1528.02959	0.93478
1525.97578	0.93504
1523.92198	0.93517
1521.86818	0.93442
1519.81437	0.93326
1517.76057	0.93262
1515.70677	0.93177
1513.65297	0.93081
1511.59916	0.92999
1509.54536	0.92897
1507.49156	0.92709
1505.43775	0.92532
1503.38395	0.92453
1501.33015	0.92252
1499.27634	0.91636
1497.22254	0.89979
1495.16874	0.87454
1493.11493	0.85766
1491.06113	0.85810
1489.00733	0.87473
1486.95352	0.89172
1484.89972	0.90181
1482.84592	0.90836
1480.79211	0.91285
1478.73831	0.91567
1476.68451	0.91757
1474.63070	0.91912
1472.57690	0.92047
1470.52310	0.92148
1468.46929	0.92227
1466.41549	0.92282
1464.36169	0.92271
1462.30788	0.92202
1460.25408	0.92049
1458.20028	0.91262
1456.14648	0.88941
1454.09267	0.86672
1452.03887	0.85582
1449.98507	0.85675
1447.93126	0.86571
1445.87746	0.87546
1443.82366	0.88332
1441.76985	0.89005
1439.71605	0.89577
1437.66225	0.90082
1435.60844	0.90536
1433.55464	0.90880
1431.50084	0.91146
1429.44703	0.91388
1427.39323	0.91613
1425.33943	0.91798
1423.28562	0.91941
1421.23182	0.92032
1419.17802	0.92054
1417.12421	0.92050
1415.07041	0.92081
1413.01661	0.92149
1410.96280	0.92256
1408.90900	0.92388
1406.85520	0.92531
1404.80139	0.92652
1402.74759	0.92716
1400.69379	0.92758
1398.63999	0.92812
1396.58618	0.92879
1394.53238	0.92918
1392.47858	0.92917
1390.42477	0.92904
1388.37097	0.92836
1386.31717	0.92684
1384.26336	0.92533
1382.20956	0.92417
1380.15576	0.92286
1378.10195	0.92150
1376.04815	0.92051
1373.99435	0.91969
1371.94054	0.91897
1369.88674	0.91888
1367.83294	0.91954
1365.77913	0.92035
1363.72533	0.92089
1361.67153	0.92163
1359.61772	0.92271
1357.56392	0.92361
1355.51012	0.92413
1353.45631	0.92419
1351.40251	0.92370
1349.34871	0.92288
1347.29491	0.92215
1345.24110	0.92182
1343.18730	0.92165
1341.13350	0.92117
1339.07969	0.92043
1337.02589	0.91976
1334.97209	0.91921
1332.91828	0.91863
1330.86448	0.91820
1328.81068	0.91812
1326.75687	0.91824
1324.70307	0.91863
1322.64927	0.91927
1320.59546	0.92009
1318.54166	0.92105
1316.48786	0.92167
1314.43405	0.92219
1312.38025	0.92316
1310.32645	0.92436
1308.27264	0.92522
1306.21884	0.92571
1304.16504	0.92624
1302.11123	0.92724
1300.05743	0.92855
1298.00363	0.92944
1295.94982	0.92978
1293.89602	0.92999
1291.84222	0.93016
1289.78842	0.93027
1287.73461	0.93058
1285.68081	0.93115
1283.62701	0.93157
1281.57320	0.93149
1279.51940	0.93108
1277.46560	0.93096
1275.41179	0.93132
1273.35799	0.93173
1271.30419	0.93220
1269.25038	0.93315
1267.19658	0.93425
1265.14278	0.93489
1263.08897	0.93534
1261.03517	0.93573
1258.98137	0.93575
1256.92756	0.93567
1254.87376	0.93596
1252.81996	0.93623
1250.76615	0.93586
1248.71235	0.93509
1246.65855	0.93441
1244.60474	0.93410
1242.55094	0.93393
1240.49714	0.93362
1238.44334	0.93334
1236.38953	0.93304
1234.33573	0.93262
1232.28193	0.93222
1230.22812	0.93176
1228.17432	0.93100
1226.12052	0.92988
1224.06671	0.92858
1222.01291	0.92709
1219.95911	0.92543
1217.90530	0.92393
1215.85150	0.92275
1213.79770	0.92176
1211.74389	0.92072
1209.69009	0.91955
1207.63629	0.91808
1205.58248	0.91622
1203.52868	0.91422
1201.47488	0.91204
1199.42107	0.90954
1197.36727	0.90679
1195.31347	0.90387
1193.25966	0.90087
1191.20586	0.89760
1189.15206	0.89401
1187.09825	0.89031
1185.04445	0.88669
1182.99065	0.88340
1180.93685	0.88092
1178.88304	0.87937
1176.82924	0.87818
1174.77544	0.87685
1172.72163	0.87506
1170.66783	0.87195
1168.61403	0.86731
1166.56022	0.86192
1164.50642	0.85631
1162.45262	0.85111
1160.39881	0.84660
1158.34501	0.84220
1156.29121	0.83809
1154.23740	0.83560
1152.18360	0.83557
1150.12980	0.83737
1148.07599	0.83938
1146.02219	0.84078
1143.96839	0.84214
1141.91458	0.84343
1139.86078	0.84383
1137.80698	0.84338
1135.75317	0.84236
1133.69937	0.84064
1131.64557	0.83835
1129.59176	0.83566
1127.53796	0.83276
1125.48416	0.82944
1123.43036	0.82500
1121.37655	0.81987
1119.32275	0.81499
1117.26895	0.81012
1115.21514	0.80476
1113.16134	0.79931
1111.10754	0.79438
1109.05373	0.79034
1106.99993	0.78721
1104.94613	0.78426
1102.89232	0.78106
1100.83852	0.77770
1098.78472	0.77436
1096.73091	0.77096
1094.67711	0.76748
1092.62331	0.76410
1090.56950	0.76116
1088.51570	0.75905
1086.46190	0.75738
1084.40809	0.75559
1082.35429	0.75363
1080.30049	0.75125
1078.24668	0.74853
1076.19288	0.74565
1074.13908	0.74217
1072.08528	0.73799
1070.03147	0.73364
1067.97767	0.72961
1065.92387	0.72622
1063.87006	0.72315
1061.81626	0.72012
1059.76246	0.71712
1057.70865	0.71392
1055.65485	0.71026
1053.60105	0.70596
1051.54724	0.70093
1049.49344	0.69497
1047.43964	0.68816
1045.38583	0.68098
1043.33203	0.67359
1041.27823	0.66608
1039.22442	0.65851
1037.17062	0.65069
1035.11682	0.64195
1033.06301	0.63204
1031.00921	0.62238
1028.95541	0.61462
1026.90160	0.60966
1024.84780	0.60777
1022.79400	0.60769
1020.74019	0.60761
1018.68639	0.60694
1016.63259	0.60576
1014.57879	0.60430
1012.52498	0.60268
1010.47118	0.60078
1008.41738	0.59911
1006.36357	0.59829
1004.30977	0.59818
1002.25597	0.59899
1000.20216	0.60090
998.14836	0.60357
996.09456	0.60683
994.04075	0.61064
991.98695	0.61484
989.93315	0.61935
987.87934	0.62401
985.82554	0.62913
983.77174	0.63523
981.71793	0.64222
979.66413	0.64989
977.61033	0.65820
975.55652	0.66719
973.50272	0.67687
971.44892	0.68671
969.39511	0.69581
967.34131	0.70420
965.28751	0.71252
963.23371	0.72075
961.17990	0.72890
959.12610	0.73693
957.07230	0.74435
955.01849	0.75089
952.96469	0.75655
950.91089	0.76115
948.85708	0.76464
946.80328	0.76763
944.74948	0.77075
942.69567	0.77389
940.64187	0.77684
938.58807	0.77974
936.53426	0.78254
934.48046	0.78539
932.42666	0.78853
930.37285	0.79177
928.31905	0.79490
926.26525	0.79741
924.21144	0.79861
922.15764	0.79879
920.10384	0.79841
918.05003	0.79714
915.99623	0.79506
913.94243	0.79261
911.88862	0.79019
909.83482	0.78902
907.78102	0.79021
905.72722	0.79359
903.67341	0.79929
901.61961	0.80777
899.56581	0.81779
897.51200	0.82718
895.45820	0.83454
893.40440	0.84004
891.35059	0.84475
889.29679	0.84913
887.24299	0.85286
885.18918	0.85540
883.13538	0.85660
881.08158	0.85739
879.02777	0.85882
876.97397	0.86081
874.92017	0.86297
872.86636	0.86568
870.81256	0.86890
868.75876	0.87150
866.70495	0.87320
864.65115	0.87455
862.59735	0.87594
860.54354	0.87773
858.48974	0.87967
856.43594	0.88163
854.38213	0.88389
852.32833	0.88558
850.27453	0.88554
848.22073	0.88397
846.16692	0.88203
844.11312	0.88026
842.05932	0.87828
840.00551	0.87661
837.95171	0.87591
835.89791	0.87570
833.84410	0.87563
831.79030	0.87555
829.73650	0.87528
827.68269	0.87532
825.62889	0.87621
823.57509	0.87758
821.52128	0.87859
819.46748	0.87789
817.41368	0.87467
815.35987	0.87089
813.30607	0.86920
811.25227	0.86984
809.19846	0.87105
807.14466	0.87083
805.09086	0.86890
803.03705	0.86633
800.98325	0.86428
798.92945	0.86371
796.87565	0.86452
794.82184	0.86604
792.76804	0.86765
790.71424	0.86809
788.66043	0.86699
786.60663	0.86555
784.55283	0.86408
782.49902	0.86176
780.44522	0.85851
778.39142	0.85490
776.33761	0.85086
774.28381	0.84530
772.23001	0.83726
770.17620	0.82738
768.12240	0.81682
766.06860	0.80582
764.01479	0.79445
761.96099	0.78274
759.90719	0.77126
757.85338	0.76230
755.79958	0.75729
753.74578	0.75519
751.69197	0.75495
749.63817	0.75552
747.58437	0.75732
745.53056	0.76360
743.47676	0.77542
741.42296	0.79051
739.36916	0.80596
737.31535	0.81989
735.26155	0.83207
733.20775	0.84285
731.15394	0.85222
729.10014	0.85911
727.04634	0.86306
724.99253	0.86570
722.93873	0.86842
720.88493	0.87104
718.83112	0.87269
716.77732	0.87309
714.72352	0.87210
712.66971	0.86784
710.61591	0.85723
708.56211	0.83712
706.50830	0.80513
704.45450	0.76010
702.40070	0.70369
700.34689	0.64064
698.29309	0.57889
696.23929	0.53700
694.18548	0.53995
692.13168	0.58758
690.07788	0.64835
688.02408	0.69624
685.97027	0.72823
683.91647	0.74937
681.86267	0.76413
679.80886	0.77497
677.75506	0.78232
675.70126	0.78730
673.64745	0.79097
671.59365	0.79345
669.53985	0.79508
667.48604	0.79557
665.43224	0.79581
663.37844	0.79700
661.32463	0.79955
659.27083	0.80279
657.21703	0.80506
655.16322	0.80675
653.10942	0.80881
651.05562	0.81048
649.00181	0.81164
646.94801	0.81360
644.89421	0.81668
642.84040	0.81933
640.78660	0.82063
638.73280	0.82167
636.67899	0.82316
634.62519	0.82385
632.57139	0.82331
630.51759	0.82247
628.46378	0.82200
626.40998	0.82200
624.35618	0.82131
622.30237	0.81967
620.24857	0.81832
618.19477	0.81756
616.14096	0.81727
614.08716	0.81710
612.03336	0.81567
609.97955	0.81343
607.92575	0.81203
605.87195	0.81019
603.81814	0.80702
601.76434	0.80412
599.71054	0.80163
597.65673	0.79902
595.60293	0.79661
593.54913	0.79453
591.49532	0.79321
589.44152	0.79219
587.38772	0.79016
585.33391	0.78720
583.28011	0.78432
581.22631	0.78208
579.17250	0.78036
577.11870	0.77836
575.06490	0.77477
573.01110	0.76918
570.95729	0.76222
568.90349	0.75552
566.84969	0.74975
564.79588	0.74248
562.74208	0.73270
560.68828	0.72256
558.63447	0.71432
556.58067	0.70776
554.52687	0.70179
552.47306	0.69549
550.41926	0.68750
548.36546	0.67718
546.31165	0.66554
544.25785	0.65428
542.20405	0.64380
540.15024	0.63469
538.09644	0.62756
536.04264	0.62284
533.98883	0.62255
531.93503	0.62719
529.88123	0.63348
527.82742	0.63837
525.77362	0.64352
523.71982	0.65049
521.66602	0.65691
519.61221	0.66152
517.55841	0.66700
515.50461	0.67494
513.45080	0.68298
511.39700	0.69021
509.34320	0.69621
507.28939	0.69993
505.23559	0.70226
503.18179	0.70500
501.12798	0.70786
499.07418	0.70899
497.02038	0.70803
494.96657	0.70609
492.91277	0.70438
490.85897	0.70188
488.80516	0.69541
486.75136	0.68465
484.69756	0.67223
482.64375	0.65857
480.58995	0.64534
478.53615	0.63537
476.48234	0.62643
474.42854	0.61550
472.37474	0.60404
470.32093	0.59720
468.26713	0.59688
466.21333	0.59921
464.15953	0.60042
462.10572	0.60212
460.05192	0.60843
457.99812	0.61909
455.94431	0.62740
453.89051	0.63163
451.83671	0.63655
449.78290	0.64236
447.72910	0.64588
445.67530	0.64669
443.62149	0.64900
441.56769	0.65371
439.51389	0.65467
437.46008	0.65114
435.40628	0.64832
433.35248	0.64861
431.29867	0.65020
429.24487	0.65007
427.19107	0.64668
425.13726	0.64432
423.08346	0.64778
421.02966	0.65321
418.97585	0.65674
416.92205	0.66171
414.86825	0.66905
412.81445	0.67321
410.76064	0.67433
408.70684	0.67911
406.65304	0.68714
404.59923	0.69495
402.54543	0.69844
400.49163	0.69756
398.43782	0.69711
