3996.71440	0.99170
3994.66059	0.99174
3992.60678	0.99195
3990.55297	0.99225
3988.49916	0.99225
3986.44535	0.99190
3984.39154	0.99156
3982.33773	0.99145
3980.28392	0.99163
3978.23011	0.99195
3976.17630	0.99216
3974.12249	0.99236
3972.06868	0.99241
3970.01487	0.99204
3967.96106	0.99149
3965.90725	0.99131
3963.85344	0.99149
3961.79963	0.99181
3959.74582	0.99218
3957.69201	0.99220
3955.63820	0.99188
3953.58439	0.99165
3951.53058	0.99170
3949.47677	0.99174
3947.42296	0.99184
3945.36915	0.99195
3943.31534	0.99179
3941.26153	0.99165
3939.20772	0.99184
3937.15391	0.99204
3935.10010	0.99197
3933.04629	0.99174
3930.99248	0.99143
3928.93867	0.99124
3926.88486	0.99127
3924.83105	0.99131
3922.77724	0.99145
3920.72343	0.99170
3918.66962	0.99181
3916.61581	0.99163
3914.56200	0.99143
3912.50819	0.99124
3910.45438	0.99108
3908.40057	0.99129
3906.34676	0.99152
3904.29295	0.99154
3902.23914	0.99156
3900.18533	0.99154
3898.13152	0.99161
3896.07771	0.99193
3894.02390	0.99218
3891.97009	0.99220
3889.91628	0.99222
3887.86247	0.99243
3885.80866	0.99277
3883.75485	0.99309
3881.70104	0.99286
3879.64723	0.99229
3877.59342	0.99179
3875.53961	0.99147
3873.48580	0.99136
3871.43199	0.99149
3869.37818	0.99174
3867.32437	0.99204
3865.27056	0.99229
3863.21675	0.99232
3861.16294	0.99213
3859.10913	0.99209
3857.05531	0.99204
3855.00150	0.99179
3852.94769	0.99154
3850.89388	0.99161
3848.84007	0.99197
3846.78626	0.99216
3844.73245	0.99193
3842.67864	0.99193
3840.62483	0.99202
3838.57102	0.99163
3836.51721	0.99127
3834.46340	0.99147
3832.40959	0.99190
3830.35578	0.99218
3828.30197	0.99206
3826.24816	0.99177
3824.19435	0.99165
3822.14054	0.99195
3820.08673	0.99252
3818.03292	0.99264
3815.97911	0.99220
3813.92530	0.99184
3811.87149	0.99177
3809.81768	0.99179
3807.76387	0.99177
3805.71006	0.99156
3803.65625	0.99140
3801.60244	0.99165
3799.54863	0.99179
3797.49482	0.99143
3795.44101	0.99117
3793.38720	0.99152
3791.33339	0.99206
3789.27958	0.99232
3787.22577	0.99222
3785.17196	0.99211
3783.11815	0.99206
3781.06434	0.99193
3779.01053	0.99165
3776.95672	0.99138
3774.90291	0.99124
3772.84910	0.99136
3770.79529	0.99172
3768.74148	0.99206
3766.68767	0.99209
3764.63386	0.99188
3762.58005	0.99165
3760.52624	0.99163
3758.47243	0.99186
3756.41862	0.99204
3754.36481	0.99213
3752.31100	0.99211
3750.25719	0.99202
3748.20338	0.99252
3746.14957	0.99275
3744.09576	0.99174
3742.04195	0.99113
3739.98814	0.99147
3737.93433	0.99168
3735.88052	0.99147
3733.82671	0.99136
3731.77290	0.99136
3729.71909	0.99147
3727.66528	0.99159
3725.61147	0.99140
3723.55766	0.99129
3721.50385	0.99133
3719.45004	0.99122
3717.39623	0.99104
3715.34242	0.99070
3713.28861	0.99019
3711.23480	0.98987
3709.18099	0.98981
3707.12718	0.98978
3705.07337	0.98958
3703.01956	0.98905
3700.96575	0.98828
3698.91194	0.98748
3696.85813	0.98703
3694.80432	0.98692
3692.75051	0.98685
3690.69670	0.98685
3688.64289	0.98707
3686.58908	0.98735
3684.53527	0.98730
3682.48146	0.98673
3680.42765	0.98558
3678.37384	0.98392
3676.32003	0.98256
3674.26622	0.98277
3672.21241	0.98347
3670.15860	0.98376
3668.10479	0.98388
3666.05098	0.98390
3663.99717	0.98363
3661.94336	0.98326
3659.88955	0.98326
3657.83574	0.98322
3655.78193	0.98263
3653.72812	0.98200
3651.67431	0.98159
3649.62050	0.98107
3647.56669	0.98023
3645.51288	0.97944
3643.45907	0.97886
3641.40526	0.97834
3639.35145	0.97784
3637.29764	0.97746
3635.24383	0.97697
3633.19002	0.97614
3631.13621	0.97546
3629.08240	0.97526
3627.02859	0.97485
3624.97478	0.97409
3622.92097	0.97320
3620.86716	0.97232
3618.81335	0.97194
3616.75954	0.97183
3614.70573	0.97125
3612.65192	0.97044
3610.59811	0.96982
3608.54430	0.96928
3606.49049	0.96877
3604.43668	0.96821
3602.38287	0.96748
3600.32906	0.96679
3598.27525	0.96630
3596.22144	0.96590
3594.16763	0.96527
3592.11382	0.96436
3590.06001	0.96319
3588.00620	0.96212
3585.95239	0.96155
3583.89858	0.96088
3581.84477	0.96009
3579.79095	0.95953
3577.73714	0.95900
3575.68333	0.95832
3573.62952	0.95746
3571.57571	0.95653
3569.52190	0.95581
3567.46809	0.95510
3565.41428	0.95429
3563.36047	0.95396
3561.30666	0.95400
3559.25285	0.95365
3557.19904	0.95262
3555.14523	0.95146
3553.09142	0.95071
3551.03761	0.95036
3548.98380	0.94990
3546.92999	0.94927
3544.87618	0.94866
3542.82237	0.94822
3540.76856	0.94783
3538.71475	0.94709
3536.66094	0.94598
3534.60713	0.94506
3532.55332	0.94447
3530.49951	0.94400
3528.44570	0.94347
3526.39189	0.94284
3524.33808	0.94215
3522.28427	0.94135
3520.23046	0.94055
3518.17665	0.94000
3516.12284	0.93959
3514.06903	0.93894
3512.01522	0.93806
3509.96141	0.93720
3507.90760	0.93627
3505.85379	0.93519
3503.79998	0.93420
3501.74617	0.93356
3499.69236	0.93315
3497.63855	0.93272
3495.58474	0.93192
3493.53093	0.93096
3491.47712	0.93027
3489.42331	0.92965
3487.36950	0.92895
3485.31569	0.92839
3483.26188	0.92785
3481.20807	0.92702
3479.15426	0.92602
3477.10045	0.92523
3475.04664	0.92461
3472.99283	0.92400
3470.93902	0.92344
3468.88521	0.92302
3466.83140	0.92261
3464.77759	0.92221
3462.72378	0.92172
3460.66997	0.92104
3458.61616	0.92034
3456.56235	0.91984
3454.50854	0.91939
3452.45473	0.91867
3450.40092	0.91789
3448.34711	0.91751
3446.29330	0.91730
3444.23949	0.91677
3442.18568	0.91601
3440.13187	0.91527
3438.07806	0.91472
3436.02425	0.91430
3433.97044	0.91394
3431.91663	0.91376
3429.86282	0.91352
3427.80901	0.91304
3425.75520	0.91251
3423.70139	0.91228
3421.64758	0.91214
3419.59377	0.91178
3417.53996	0.91138
3415.48615	0.91098
3413.43234	0.91067
3411.37853	0.91031
3409.32472	0.90970
3407.27091	0.90941
3405.21710	0.90945
3403.16329	0.90912
3401.10948	0.90839
3399.05567	0.90788
3397.00186	0.90790
3394.94805	0.90818
3392.89424	0.90822
3390.84043	0.90793
3388.78662	0.90749
3386.73281	0.90715
3384.67900	0.90696
3382.62519	0.90682
3380.57138	0.90673
3378.51757	0.90673
3376.46376	0.90661
3374.40995	0.90617
3372.35614	0.90565
3370.30233	0.90542
3368.24852	0.90546
3366.19471	0.90565
3364.14090	0.90565
3362.08709	0.90538
3360.03328	0.90525
3357.97947	0.90538
3355.92566	0.90550
3353.87185	0.90540
3351.81804	0.90513
3349.76423	0.90492
3347.71042	0.90461
3345.65661	0.90427
3343.60280	0.90419
3341.54899	0.90442
3339.49518	0.90482
3337.44137	0.90488
3335.38756	0.90459
3333.33375	0.90444
3331.27994	0.90434
3329.22613	0.90413
3327.17232	0.90407
3325.11851	0.90409
3323.06470	0.90429
3321.01089	0.90475
3318.95708	0.90490
3316.90327	0.90459
3314.84946	0.90429
3312.79565	0.90411
3310.74184	0.90409
3308.68803	0.90432
3306.63422	0.90444
3304.58040	0.90402
3302.52659	0.90348
3300.47278	0.90342
3298.41897	0.90365
3296.36516	0.90355
3294.31135	0.90334
3292.25754	0.90342
3290.20373	0.90361
3288.14992	0.90373
3286.09611	0.90382
3284.04230	0.90386
3281.98849	0.90386
3279.93468	0.90384
3277.88087	0.90377
3275.82706	0.90388
3273.77325	0.90409
3271.71944	0.90411
3269.66563	0.90436
3267.61182	0.90496
3265.55801	0.90559
3263.50420	0.90605
3261.45039	0.90640
3259.39658	0.90686
3257.34277	0.90738
3255.28896	0.90774
3253.23515	0.90809
3251.18134	0.90872
3249.12753	0.90943
3247.07372	0.91004
3245.01991	0.91052
3242.96610	0.91073
3240.91229	0.91086
3238.85848	0.91117
3236.80467	0.91153
3234.75086	0.91188
3232.69705	0.91241
3230.64324	0.91315
3228.58943	0.91384
3226.53562	0.91411
3224.48181	0.91401
3222.42800	0.91386
3220.37419	0.91418
3218.32038	0.91474
3216.26657	0.91523
3214.21276	0.91580
3212.15895	0.91626
3210.10514	0.91652
3208.05133	0.91690
3205.99752	0.91740
3203.94371	0.91780
3201.88990	0.91816
3199.83609	0.91848
3197.78228	0.91886
3195.72847	0.91933
3193.67466	0.91973
3191.62085	0.92026
3189.56704	0.92104
3187.51323	0.92168
3185.45942	0.92217
3183.40561	0.92278
3181.35180	0.92351
3179.29799	0.92406
3177.24418	0.92440
3175.19037	0.92474
3173.13656	0.92519
3171.08275	0.92570
3169.02894	0.92623
3166.97513	0.92683
3164.92132	0.92745
3162.86751	0.92803
3160.81370	0.92867
3158.75989	0.92935
3156.70608	0.92995
3154.65227	0.93042
3152.59846	0.93079
3150.54465	0.93113
3148.49084	0.93154
3146.43703	0.93188
3144.38322	0.93214
3142.32941	0.93263
3140.27560	0.93332
3138.22179	0.93392
3136.16798	0.93442
3134.11417	0.93485
3132.06036	0.93538
3130.00655	0.93601
3127.95274	0.93646
3125.89893	0.93674
3123.84512	0.93687
3121.79131	0.93700
3119.73750	0.93748
3117.68369	0.93791
3115.62988	0.93802
3113.57607	0.93819
3111.52226	0.93856
3109.46845	0.93892
3107.41464	0.93925
3105.36083	0.93966
3103.30702	0.94016
3101.25321	0.94055
3099.19940	0.94068
3097.14559	0.94076
3095.09178	0.94089
3093.03797	0.94091
3090.98416	0.94098
3088.93035	0.94120
3086.87654	0.94150
3084.82273	0.94182
3082.76892	0.94200
3080.71511	0.94191
3078.66130	0.94180
3076.60749	0.94195
3074.55368	0.94241
3072.49987	0.94293
3070.44606	0.94326
3068.39225	0.94326
3066.33844	0.94321
3064.28463	0.94347
3062.23082	0.94387
3060.17701	0.94397
3058.12320	0.94404
3056.06939	0.94443
3054.01558	0.94482
3051.96177	0.94482
3049.90796	0.94484
3047.85415	0.94524
3045.80034	0.94569
3043.74653	0.94608
3041.69272	0.94659
3039.63891	0.94715
3037.58510	0.94746
3035.53129	0.94761
3033.47748	0.94794
3031.42367	0.94848
3029.36986	0.94888
3027.31604	0.94914
3025.26223	0.94938
3023.20842	0.94936
3021.15461	0.94931
3019.10080	0.94971
3017.04699	0.95021
3014.99318	0.95030
3012.93937	0.95006
3010.88556	0.94995
3008.83175	0.95012
3006.77794	0.95032
3004.72413	0.95023
3002.67032	0.94988
3000.61651	0.94955
2998.56270	0.94938
2996.50889	0.94901
2994.45508	0.94835
2992.40127	0.94781
2990.34746	0.94711
2988.29365	0.94587
2986.23984	0.94445
2984.18603	0.94302
2982.13222	0.94117
2980.07841	0.93886
2978.02460	0.93610
2975.97079	0.93278
2973.91698	0.92869
2971.86317	0.92346
2969.80936	0.91706
2967.75555	0.90983
2965.70174	0.90182
2963.64793	0.89337
2961.59412	0.88554
2959.54031	0.87961
2957.48650	0.87561
2955.43269	0.87241
2953.37888	0.86904
2951.32507	0.86602
2949.27126	0.86557
2947.21745	0.86952
2945.16364	0.87732
2943.10983	0.88587
2941.05602	0.89185
2939.00221	0.89380
2936.94840	0.89193
2934.89459	0.88699
2932.84078	0.87967
2930.78697	0.87056
2928.73316	0.86068
2926.67935	0.85098
2924.62554	0.84194
2922.57173	0.83335
2920.51792	0.82560
2918.46411	0.82020
2916.41030	0.81924
2914.35649	0.82382
2912.30268	0.83234
2910.24887	0.84176
2908.19506	0.85026
2906.14125	0.85781
2904.08744	0.86487
2902.03363	0.87171
2899.97982	0.87838
2897.92601	0.88463
2895.87220	0.89014
2893.81839	0.89460
2891.76458	0.89792
2889.71077	0.90018
2887.65696	0.90147
2885.60315	0.90186
2883.54934	0.90130
2881.49553	0.89962
2879.44172	0.89724
2877.38791	0.89547
2875.33410	0.89506
2873.28029	0.89553
2871.22648	0.89578
2869.17267	0.89536
2867.11886	0.89536
2865.06505	0.89757
2863.01124	0.90259
2860.95743	0.90849
2858.90362	0.91239
2856.84981	0.91256
2854.79600	0.90905
2852.74219	0.90396
2850.68838	0.90072
2848.63457	0.90163
2846.58076	0.90540
2844.52695	0.90826
2842.47314	0.90797
2840.41933	0.90546
2838.36552	0.90359
2836.31171	0.90525
2834.25790	0.91165
2832.20409	0.92132
2830.15028	0.93130
2828.09647	0.93923
2826.04266	0.94469
2823.98885	0.94844
2821.93504	0.95115
2819.88123	0.95310
2817.82742	0.95449
2815.77361	0.95561
2813.71980	0.95664
2811.66599	0.95763
2809.61218	0.95861
2807.55837	0.95969
2805.50456	0.96075
2803.45075	0.96161
2801.39694	0.96252
2799.34313	0.96361
2797.28932	0.96454
2795.23551	0.96492
2793.18170	0.96503
2791.12789	0.96543
2789.07408	0.96603
2787.02027	0.96658
2784.96646	0.96707
2782.91265	0.96754
2780.85884	0.96790
2778.80503	0.96826
2776.75122	0.96868
2774.69741	0.96913
2772.64360	0.96946
2770.58979	0.96971
2768.53598	0.97000
2766.48217	0.97024
2764.42836	0.97033
2762.37455	0.97042
2760.32074	0.97064
2758.26693	0.97096
2756.21312	0.97118
2754.15931	0.97134
2752.10550	0.97152
2750.05168	0.97172
2747.99787	0.97185
2745.94406	0.97181
2743.89025	0.97165
2741.83644	0.97156
2739.78263	0.97158
2737.72882	0.97154
2735.67501	0.97145
2733.62120	0.97158
2731.56739	0.97178
2729.51358	0.97170
2727.45977	0.97134
2725.40596	0.97102
2723.35215	0.97105
2721.29834	0.97149
2719.24453	0.97187
2717.19072	0.97214
2715.13691	0.97259
2713.08310	0.97304
2711.02929	0.97342
2708.97548	0.97376
2706.92167	0.97405
2704.86786	0.97420
2702.81405	0.97432
2700.76024	0.97456
2698.70643	0.97488
2696.65262	0.97512
2694.59881	0.97535
2692.54500	0.97551
2690.49119	0.97544
2688.43738	0.97521
2686.38357	0.97524
2684.32976	0.97553
2682.27595	0.97575
2680.22214	0.97580
2678.16833	0.97575
2676.11452	0.97582
2674.06071	0.97607
2672.00690	0.97614
2669.95309	0.97596
2667.89928	0.97584
2665.84547	0.97582
2663.79166	0.97591
2661.73785	0.97618
2659.68404	0.97638
2657.63023	0.97647
2655.57642	0.97649
2653.52261	0.97656
2651.46880	0.97652
2649.41499	0.97654
2647.36118	0.97683
2645.30737	0.97706
2643.25356	0.97710
2641.19975	0.97708
2639.14594	0.97712
2637.09213	0.97730
2635.03832	0.97735
2632.98451	0.97739
2630.93070	0.97760
2628.87689	0.97778
2626.82308	0.97787
2624.76927	0.97798
2622.71546	0.97809
2620.66165	0.97823
2618.60784	0.97850
2616.55403	0.97870
2614.50022	0.97870
2612.44641	0.97886
2610.39260	0.97904
2608.33879	0.97902
2606.28498	0.97893
2604.23117	0.97895
2602.17736	0.97917
2600.12355	0.97938
2598.06974	0.97944
2596.01593	0.97956
2593.96212	0.97960
2591.90831	0.97969
2589.85450	0.98001
2587.80069	0.98012
2585.74688	0.98001
2583.69307	0.98035
2581.63926	0.98087
2579.58545	0.98082
2577.53164	0.98060
2575.47783	0.98075
2573.42402	0.98107
2571.37021	0.98130
2569.31640	0.98150
2567.26259	0.98150
2565.20878	0.98145
2563.15497	0.98161
2561.10116	0.98157
2559.04735	0.98123
2556.99354	0.98125
2554.93973	0.98157
2552.88592	0.98173
2550.83211	0.98188
2548.77830	0.98215
2546.72449	0.98236
2544.67068	0.98229
2542.61687	0.98209
2540.56306	0.98206
2538.50925	0.98211
2536.45544	0.98200
2534.40163	0.98204
2532.34782	0.98243
2530.29401	0.98286
2528.24020	0.98315
2526.18639	0.98320
2524.13258	0.98301
2522.07877	0.98306
2520.02496	0.98338
2517.97115	0.98349
2515.91734	0.98344
2513.86353	0.98351
2511.80972	0.98356
2509.75591	0.98367
2507.70210	0.98388
2505.64829	0.98401
2503.59448	0.98403
2501.54067	0.98390
2499.48686	0.98378
2497.43305	0.98410
2495.37924	0.98440
2493.32543	0.98412
2491.27162	0.98394
2489.21781	0.98399
2487.16400	0.98419
2485.11019	0.98474
2483.05638	0.98517
2481.00257	0.98521
2478.94876	0.98530
2476.89495	0.98521
2474.84114	0.98487
2472.78732	0.98485
2470.73351	0.98524
2468.67970	0.98544
2466.62589	0.98533
2464.57208	0.98537
2462.51827	0.98555
2460.46446	0.98548
2458.41065	0.98512
2456.35684	0.98501
2454.30303	0.98517
2452.24922	0.98519
2450.19541	0.98508
2448.14160	0.98494
2446.08779	0.98510
2444.03398	0.98537
2441.98017	0.98548
2439.92636	0.98571
2437.87255	0.98612
2435.81874	0.98637
2433.76493	0.98632
2431.71112	0.98623
2429.65731	0.98610
2427.60350	0.98601
2425.54969	0.98619
2423.49588	0.98639
2421.44207	0.98630
2419.38826	0.98614
2417.33445	0.98603
2415.28064	0.98617
2413.22683	0.98655
2411.17302	0.98676
2409.11921	0.98669
2407.06540	0.98664
2405.01159	0.98639
2402.95778	0.98596
2400.90397	0.98596
2398.85016	0.98635
2396.79635	0.98667
2394.74254	0.98687
2392.68873	0.98698
2390.63492	0.98703
2388.58111	0.98719
2386.52730	0.98737
2384.47349	0.98735
2382.41968	0.98721
2380.36587	0.98707
2378.31206	0.98689
2376.25825	0.98669
2374.20444	0.98623
2372.15063	0.98605
2370.09682	0.98671
2368.04301	0.98710
2365.98920	0.98678
2363.93539	0.98651
2361.88158	0.98594
2359.82777	0.98553
2357.77396	0.98610
2355.72015	0.98698
2353.66634	0.98737
2351.61253	0.98714
2349.55872	0.98671
2347.50491	0.98648
2345.45110	0.98662
2343.39729	0.98696
2341.34348	0.98739
2339.28967	0.98767
2337.23586	0.98771
2335.18205	0.98812
2333.12824	0.98871
2331.07443	0.98867
2329.02062	0.98778
2326.96681	0.98680
2324.91300	0.98648
2322.85919	0.98687
2320.80538	0.98721
2318.75157	0.98712
2316.69776	0.98698
2314.64395	0.98696
2312.59014	0.98707
2310.53633	0.98714
2308.48252	0.98701
2306.42871	0.98669
2304.37490	0.98648
2302.32109	0.98680
2300.26728	0.98712
2298.21347	0.98671
2296.15966	0.98585
2294.10585	0.98535
2292.05204	0.98548
2289.99823	0.98596
2287.94442	0.98619
2285.89061	0.98628
2283.83680	0.98669
2281.78299	0.98732
2279.72918	0.98755
2277.67537	0.98737
2275.62156	0.98728
2273.56775	0.98732
2271.51394	0.98732
2269.46013	0.98723
2267.40632	0.98728
2265.35251	0.98787
2263.29870	0.98871
2261.24489	0.98928
2259.19108	0.98951
2257.13727	0.98949
2255.08346	0.98892
2253.02965	0.98753
2250.97584	0.98637
2248.92203	0.98646
2246.86822	0.98714
2244.81441	0.98730
2242.76060	0.98712
2240.70679	0.98760
2238.65298	0.98867
2236.59917	0.98910
2234.54536	0.98858
2232.49155	0.98798
2230.43774	0.98803
2228.38393	0.98839
2226.33012	0.98821
2224.27631	0.98719
2222.22250	0.98598
2220.16869	0.98553
2218.11488	0.98553
2216.06107	0.98560
2214.00726	0.98621
2211.95345	0.98712
2209.89964	0.98762
2207.84583	0.98721
2205.79202	0.98619
2203.73821	0.98592
2201.68440	0.98660
2199.63059	0.98705
2197.57677	0.98723
2195.52296	0.98717
2193.46915	0.98726
2191.41534	0.98771
2189.36153	0.98755
2187.30772	0.98717
2185.25391	0.98701
2183.20010	0.98717
2181.14629	0.98810
2179.09248	0.98869
2177.03867	0.98760
2174.98486	0.98594
2172.93105	0.98548
2170.87724	0.98585
2168.82343	0.98632
2166.76962	0.98762
2164.71581	0.98930
2162.66200	0.98976
2160.60819	0.98987
2158.55438	0.99092
2156.50057	0.99254
2154.44676	0.99296
2152.39295	0.99202
2150.33914	0.99097
2148.28533	0.99010
2146.23152	0.99017
2144.17771	0.99067
2142.12390	0.98985
2140.07009	0.98812
2138.01628	0.98717
2135.96247	0.98778
2133.90866	0.98892
2131.85485	0.98901
2129.80104	0.98846
2127.74723	0.98812
2125.69342	0.98773
2123.63961	0.98721
2121.58580	0.98751
2119.53199	0.98821
2117.47818	0.98767
2115.42437	0.98680
2113.37056	0.98751
2111.31675	0.98846
2109.26294	0.98798
2107.20913	0.98692
2105.15532	0.98628
2103.10151	0.98632
2101.04770	0.98705
2098.99389	0.98773
2096.94008	0.98785
2094.88627	0.98764
2092.83246	0.98787
2090.77865	0.98828
2088.72484	0.98810
2086.67103	0.98732
2084.61722	0.98667
2082.56341	0.98660
2080.50960	0.98728
2078.45579	0.98867
2076.40198	0.98942
2074.34817	0.98858
2072.29436	0.98746
2070.24055	0.98753
2068.18674	0.98826
2066.13293	0.98871
2064.07912	0.98885
2062.02531	0.98894
2059.97150	0.98883
2057.91769	0.98817
2055.86388	0.98767
2053.81007	0.98798
2051.75626	0.98826
2049.70245	0.98769
2047.64864	0.98710
2045.59483	0.98771
2043.54102	0.98858
2041.48721	0.98899
2039.43340	0.98958
2037.37959	0.98967
2035.32578	0.98869
2033.27197	0.98835
2031.21816	0.98949
2029.16435	0.99054
2027.11054	0.99044
2025.05673	0.98981
2023.00292	0.98871
2020.94911	0.98848
2018.89530	0.99028
2016.84149	0.99140
2014.78768	0.99035
2012.73387	0.98899
2010.68006	0.98819
2008.62625	0.98762
2006.57244	0.98680
2004.51863	0.98685
2002.46482	0.98810
2000.41101	0.98826
1998.35720	0.98689
1996.30339	0.98583
1994.24958	0.98608
1992.19577	0.98705
1990.14196	0.98789
1988.08815	0.98796
1986.03434	0.98712
1983.98053	0.98721
1981.92672	0.98908
1979.87291	0.99010
1977.81910	0.98903
1975.76529	0.98796
1973.71148	0.98735
1971.65767	0.98717
1969.60386	0.98823
1967.55005	0.98949
1965.49624	0.99024
1963.44243	0.99035
1961.38862	0.98951
1959.33481	0.98930
1957.28100	0.99054
1955.22719	0.99117
1953.17338	0.99042
1951.11957	0.98930
1949.06576	0.98876
1947.01195	0.98889
1944.95814	0.98926
1942.90433	0.98969
1940.85052	0.99001
1938.79671	0.99003
1936.74290	0.98965
1934.68909	0.98962
1932.63528	0.99026
1930.58147	0.99049
1928.52766	0.98994
1926.47385	0.98896
1924.42004	0.98826
1922.36623	0.98826
1920.31241	0.98835
1918.25860	0.98805
1916.20479	0.98805
1914.15098	0.98860
1912.09717	0.98908
1910.04336	0.98903
1907.98955	0.98853
1905.93574	0.98796
1903.88193	0.98798
1901.82812	0.98862
1899.77431	0.98937
1897.72050	0.98985
1895.66669	0.98997
1893.61288	0.98935
1891.55907	0.98871
1889.50526	0.98905
1887.45145	0.98946
1885.39764	0.98905
1883.34383	0.98874
1881.29002	0.98892
1879.23621	0.98887
1877.18240	0.98848
1875.12859	0.98851
1873.07478	0.98876
1871.02097	0.98862
1868.96716	0.98864
1866.91335	0.98915
1864.85954	0.98946
1862.80573	0.98942
1860.75192	0.98935
1858.69811	0.98942
1856.64430	0.98951
1854.59049	0.98944
1852.53668	0.98921
1850.48287	0.98896
1848.42906	0.98883
1846.37525	0.98862
1844.32144	0.98839
1842.26763	0.98862
1840.21382	0.98894
1838.16001	0.98903
1836.10620	0.98889
1834.05239	0.98867
1831.99858	0.98835
1829.94477	0.98792
1827.89096	0.98780
1825.83715	0.98801
1823.78334	0.98808
1821.72953	0.98796
1819.67572	0.98805
1817.62191	0.98819
1815.56810	0.98808
1813.51429	0.98780
1811.46048	0.98771
1809.40667	0.98771
1807.35286	0.98744
1805.29905	0.98717
1803.24524	0.98714
1801.19143	0.98703
1799.13762	0.98664
1797.08381	0.98655
1795.03000	0.98676
1792.97619	0.98682
1790.92238	0.98664
1788.86857	0.98657
1786.81476	0.98664
1784.76095	0.98660
1782.70714	0.98623
1780.65333	0.98580
1778.59952	0.98548
1776.54571	0.98521
1774.49190	0.98494
1772.43809	0.98487
1770.38428	0.98465
1768.33047	0.98412
1766.27666	0.98369
1764.22285	0.98331
1762.16904	0.98274
1760.11523	0.98200
1758.06142	0.98112
1756.00761	0.98010
1753.95380	0.97913
1751.89999	0.97809
1749.84618	0.97667
1747.79237	0.97517
1745.73856	0.97376
1743.68475	0.97221
1741.63094	0.97058
1739.57713	0.96879
1737.52332	0.96685
1735.46951	0.96469
1733.41570	0.96155
1731.36189	0.95816
1729.30808	0.95495
1727.25427	0.95203
1725.20046	0.95010
1723.14665	0.94953
1721.09284	0.94997
1719.03903	0.95115
1716.98522	0.95354
1714.93141	0.95576
1712.87760	0.95667
1710.82379	0.95684
1708.76998	0.95669
1706.71617	0.95616
1704.66236	0.95508
1702.60855	0.95359
1700.55474	0.95135
1698.50093	0.94872
1696.44712	0.94619
1694.39331	0.94330
1692.33950	0.94042
1690.28569	0.93717
1688.23188	0.93358
1686.17807	0.93010
1684.12426	0.92587
1682.07045	0.92157
1680.01664	0.91821
1677.96283	0.91502
1675.90902	0.91170
1673.85521	0.90820
1671.80140	0.90490
1669.74759	0.90151
1667.69378	0.89797
1665.63997	0.89462
1663.58616	0.89129
1661.53235	0.88795
1659.47854	0.88473
1657.42473	0.88147
1655.37092	0.87823
1653.31711	0.87519
1651.26330	0.87317
1649.20949	0.87185
1647.15568	0.87130
1645.10187	0.87128
1643.04805	0.87090
1640.99424	0.87058
1638.94043	0.87032
1636.88662	0.87036
1634.83281	0.87106
1632.77900	0.87118
1630.72519	0.87078
1628.67138	0.87088
1626.61757	0.87167
1624.56376	0.87279
1622.50995	0.87452
1620.45614	0.87607
1618.40233	0.87718
1616.34852	0.87870
1614.29471	0.88004
1612.24090	0.88081
1610.18709	0.88158
1608.13328	0.88227
1606.07947	0.88271
1604.02566	0.88300
1601.97185	0.88306
1599.91804	0.88275
1597.86423	0.88215
1595.81042	0.88160
1593.75661	0.88141
1591.70280	0.88139
1589.64899	0.88147
1587.59518	0.88176
1585.54137	0.88215
1583.48756	0.88253
1581.43375	0.88280
1579.37994	0.88300
1577.32613	0.88387
1575.27232	0.88589
1573.21851	0.88720
1571.16470	0.88814
1569.11089	0.88998
1567.05708	0.89170
1565.00327	0.89263
1562.94946	0.89298
1560.89565	0.89300
1558.84184	0.89384
1556.78803	0.89471
1554.73422	0.89450
1552.68041	0.89419
1550.62660	0.89407
1548.57279	0.89421
1546.51898	0.89436
1544.46517	0.89458
1542.41136	0.89539
1540.35755	0.89770
1538.30374	0.90010
1536.24993	0.90099
1534.19612	0.90207
1532.14231	0.90394
1530.08850	0.90532
1528.03469	0.90625
1525.98088	0.90732
1523.92707	0.90849
1521.87326	0.90987
1519.81945	0.91100
1517.76564	0.91197
1515.71183	0.91344
1513.65802	0.91504
1511.60421	0.91664
1509.55040	0.91827
1507.49659	0.92079
1505.44278	0.92434
1503.38897	0.92615
1501.33516	0.92711
1499.28135	0.92811
1497.22754	0.92937
1495.17373	0.93061
1493.11992	0.93126
1491.06611	0.93139
1489.01230	0.93132
1486.95849	0.93096
1484.90468	0.93021
1482.85087	0.92899
1480.79706	0.92736
1478.74325	0.92506
1476.68944	0.92106
1474.63563	0.91477
1472.58182	0.90671
1470.52801	0.89894
1468.47420	0.89176
1466.42039	0.88363
1464.36658	0.87482
1462.31277	0.86828
1460.25896	0.86447
1458.20515	0.86268
1456.15134	0.86316
1454.09753	0.86427
1452.04372	0.86610
1449.98991	0.87040
1447.93610	0.87831
1445.88229	0.88771
1443.82848	0.89522
1441.77467	0.90026
1439.72086	0.90284
1437.66705	0.90377
1435.61324	0.90492
1433.55943	0.90715
1431.50562	0.91002
1429.45181	0.91239
1427.39800	0.91312
1425.34419	0.91273
1423.29038	0.91186
1421.23657	0.91065
1419.18276	0.90937
1417.12895	0.90855
1415.07514	0.90803
1413.02133	0.90765
1410.96752	0.90755
1408.91371	0.90788
1406.85990	0.90885
1404.80609	0.91054
1402.75228	0.91220
1400.69847	0.91338
1398.64466	0.91458
1396.59085	0.91571
1394.53704	0.91664
1392.48323	0.91730
1390.42942	0.91740
1388.37561	0.91666
1386.32180	0.91405
1384.26799	0.90797
1382.21418	0.89617
1380.16037	0.87716
1378.10656	0.85595
1376.05275	0.84516
1373.99894	0.85448
1371.94513	0.87567
1369.89132	0.89392
1367.83751	0.90554
1365.78369	0.91121
1363.72988	0.91287
1361.67607	0.91233
1359.62226	0.91140
1357.56845	0.91201
1355.51464	0.91502
1353.46083	0.91926
1351.40702	0.92293
1349.35321	0.92544
1347.29940	0.92724
1345.24559	0.92871
1343.19178	0.92989
1341.13797	0.93087
1339.08416	0.93184
1337.03035	0.93248
1334.97654	0.93261
1332.92273	0.93250
1330.86892	0.93229
1328.81511	0.93205
1326.76130	0.93186
1324.70749	0.93171
1322.65368	0.93152
1320.59987	0.93132
1318.54606	0.93115
1316.49225	0.93091
1314.43844	0.93070
1312.38463	0.93072
1310.33082	0.93074
1308.27701	0.93042
1306.22320	0.92987
1304.16939	0.92974
1302.11558	0.93023
1300.06177	0.93098
1298.00796	0.93156
1295.95415	0.93177
1293.90034	0.93182
1291.84653	0.93203
1289.79272	0.93220
1287.73891	0.93192
1285.68510	0.93104
1283.63129	0.92974
1281.57748	0.92818
1279.52367	0.92630
1277.46986	0.92406
1275.41605	0.92153
1273.36224	0.91869
1271.30843	0.91584
1269.25462	0.91357
1267.20081	0.91245
1265.14700	0.91291
1263.09319	0.91456
1261.03938	0.91652
1258.98557	0.91799
1256.93176	0.91865
1254.87795	0.91903
1252.82414	0.91954
1250.77033	0.91981
1248.71652	0.91977
1246.66271	0.92017
1244.60890	0.92134
1242.55509	0.92295
1240.50128	0.92474
1238.44747	0.92657
1236.39366	0.92800
1234.33985	0.92901
1232.28604	0.92989
1230.23223	0.93072
1228.17842	0.93126
1226.12461	0.93154
1224.07080	0.93167
1222.01699	0.93154
1219.96318	0.93141
1217.90937	0.93167
1215.85556	0.93212
1213.80175	0.93242
1211.74794	0.93259
1209.69413	0.93282
1207.64032	0.93310
1205.58651	0.93325
1203.53270	0.93332
1201.47889	0.93321
1199.42508	0.93310
1197.37127	0.93317
1195.31746	0.93321
1193.26365	0.93300
1191.20984	0.93274
1189.15603	0.93246
1187.10222	0.93199
1185.04841	0.93145
1182.99460	0.93087
1180.94079	0.93023
1178.88698	0.92918
1176.83317	0.92743
1174.77936	0.92504
1172.72555	0.92213
1170.67174	0.91901
1168.61793	0.91652
1166.56412	0.91542
1164.51031	0.91555
1162.45650	0.91605
1160.40269	0.91641
1158.34888	0.91668
1156.29507	0.91677
1154.24126	0.91645
1152.18745	0.91611
1150.13364	0.91611
1148.07983	0.91639
1146.02602	0.91675
1143.97221	0.91683
1141.91840	0.91652
1139.86459	0.91574
1137.81078	0.91418
1135.75697	0.91176
1133.70316	0.90880
1131.64935	0.90523
1129.59554	0.90116
1127.54173	0.89710
1125.48792	0.89308
1123.43411	0.88908
1121.38030	0.88536
1119.32649	0.88247
1117.27268	0.88074
1115.21887	0.88012
1113.16506	0.88026
1111.11125	0.88081
1109.05744	0.88121
1107.00363	0.88076
1104.94982	0.87933
1102.89601	0.87753
1100.84220	0.87658
1098.78839	0.87722
1096.73458	0.87900
1094.68077	0.88064
1092.62696	0.88133
1090.57315	0.88147
1088.51933	0.88168
1086.46552	0.88196
1084.41171	0.88210
1082.35790	0.88223
1080.30409	0.88257
1078.25028	0.88294
1076.19647	0.88347
1074.14266	0.88428
1072.08885	0.88489
1070.03504	0.88505
1067.98123	0.88493
1065.92742	0.88450
1063.87361	0.88369
1061.81980	0.88263
1059.76599	0.88145
1057.71218	0.87993
1055.65837	0.87751
1053.60456	0.87400
1051.55075	0.86974
1049.49694	0.86537
1047.44313	0.86141
1045.38932	0.85804
1043.33551	0.85562
1041.28170	0.85426
1039.22789	0.85343
1037.17408	0.85284
1035.12027	0.85273
1033.06646	0.85312
1031.01265	0.85363
1028.95884	0.85396
1026.90503	0.85375
1024.85122	0.85249
1022.79741	0.84983
1020.74360	0.84662
1018.68979	0.84530
1016.63598	0.84732
1014.58217	0.85182
1012.52836	0.85729
1010.47455	0.86270
1008.42074	0.86766
1006.36693	0.87181
1004.31312	0.87490
1002.25931	0.87652
1000.20550	0.87680
998.15169	0.87757
996.09788	0.88085
994.04407	0.88642
991.99026	0.89211
989.93645	0.89658
987.88264	0.90002
985.82883	0.90278
983.77502	0.90477
981.72121	0.90590
979.66740	0.90571
977.61359	0.90377
975.55978	0.90091
973.50597	0.89952
971.45216	0.90203
969.39835	0.90765
967.34454	0.91331
965.29073	0.91717
963.23692	0.91948
961.18311	0.92102
959.12930	0.92238
957.07549	0.92366
955.02168	0.92478
952.96787	0.92587
950.91406	0.92713
948.86025	0.92832
946.80644	0.92924
944.75263	0.92989
942.69882	0.93023
940.64501	0.93061
938.59120	0.93139
936.53739	0.93229
934.48358	0.93285
932.42977	0.93293
930.37596	0.93278
928.32215	0.93278
926.26834	0.93330
924.21453	0.93383
922.16072	0.93392
920.10691	0.93383
918.05310	0.93392
915.99929	0.93433
913.94548	0.93491
911.89167	0.93519
909.83786	0.93536
907.78405	0.93562
905.73024	0.93571
903.67643	0.93506
901.62262	0.93362
899.56881	0.93272
897.51500	0.93371
895.46119	0.93605
893.40738	0.93845
891.35357	0.94013
889.29976	0.94111
887.24595	0.94163
885.19214	0.94163
883.13833	0.94081
881.08452	0.93946
879.03071	0.93799
876.97690	0.93691
874.92309	0.93663
872.86928	0.93722
870.81547	0.93834
868.76166	0.93905
866.70785	0.93862
864.65404	0.93758
862.60023	0.93648
860.54642	0.93543
858.49261	0.93459
856.43880	0.93414
854.38499	0.93409
852.33118	0.93426
850.27737	0.93418
848.22356	0.93362
846.16975	0.93231
844.11594	0.92954
842.06213	0.92640
840.00832	0.92585
837.95451	0.92828
835.90070	0.93068
833.84689	0.93139
831.79308	0.93126
829.73927	0.93104
827.68546	0.93102
825.63165	0.93107
823.57784	0.93070
821.52403	0.93008
819.47022	0.92946
817.41641	0.92818
815.36260	0.92596
813.30878	0.92319
811.25497	0.92011
809.20116	0.91770
807.14735	0.91702
805.09354	0.91744
803.03973	0.91768
800.98592	0.91791
798.93211	0.91835
796.87830	0.91829
794.82449	0.91825
792.77068	0.91899
790.71687	0.91971
788.66306	0.91967
786.60925	0.91873
784.55544	0.91704
782.50163	0.91561
780.44782	0.91502
778.39401	0.91491
776.34020	0.91491
774.28639	0.91500
772.23258	0.91538
770.17877	0.91603
768.12496	0.91660
766.07115	0.91683
764.01734	0.91671
761.96353	0.91635
759.90972	0.91569
757.85591	0.91510
755.80210	0.91504
753.74829	0.91529
751.69448	0.91544
749.64067	0.91515
747.58686	0.91430
745.53305	0.91333
743.47924	0.91285
741.42543	0.91243
739.37162	0.91132
737.31781	0.90956
735.26400	0.90669
733.21019	0.90253
731.15638	0.89894
729.10257	0.89836
727.04876	0.90008
724.99495	0.90103
722.94114	0.89966
720.88733	0.89747
718.83352	0.89660
716.77971	0.89757
714.72590	0.89952
712.67209	0.90097
710.61828	0.90114
708.56447	0.90080
706.51066	0.90060
704.45685	0.89991
702.40304	0.89850
700.34923	0.89683
698.29542	0.89545
696.24161	0.89425
694.18780	0.89306
692.13399	0.89201
690.08018	0.89111
688.02637	0.89051
685.97256	0.88994
683.91875	0.88947
681.86494	0.88934
679.81113	0.88889
677.75732	0.88785
675.70351	0.88622
673.64970	0.88428
671.59589	0.88265
669.54208	0.88188
667.48827	0.88225
665.43446	0.88265
663.38065	0.88294
661.32684	0.88341
659.27303	0.88410
657.21922	0.88465
655.16541	0.88485
653.11160	0.88516
651.05779	0.88526
649.00398	0.88495
646.95017	0.88540
644.89636	0.88638
642.84255	0.88634
640.78874	0.88534
638.73493	0.88426
636.68112	0.88347
634.62731	0.88302
632.57350	0.88282
630.51969	0.88249
628.46588	0.88200
626.41207	0.88135
624.35826	0.88064
622.30445	0.88056
620.25064	0.88060
618.19683	0.87991
616.14302	0.87933
614.08921	0.87916
612.03540	0.87916
609.98159	0.87912
607.92778	0.87898
605.87397	0.87933
603.82016	0.87959
601.76635	0.87890
599.71254	0.87805
597.65873	0.87728
595.60492	0.87629
593.55111	0.87571
591.49730	0.87567
589.44349	0.87599
587.38968	0.87611
585.33587	0.87553
583.28206	0.87482
581.22825	0.87460
579.17444	0.87452
577.12063	0.87368
575.06682	0.87247
573.01301	0.87181
570.95920	0.87132
568.90539	0.87068
566.85158	0.87042
564.79777	0.87064
562.74396	0.87024
560.69015	0.86872
558.63634	0.86678
556.58253	0.86495
554.52872	0.86350
552.47491	0.86232
550.42110	0.86093
548.36729	0.85945
546.31348	0.85803
544.25967	0.85649
542.20586	0.85483
540.15205	0.85296
538.09824	0.85102
536.04442	0.84949
533.99061	0.84895
531.93680	0.84985
529.88299	0.85126
527.82918	0.85167
525.77537	0.85165
523.72156	0.85304
521.66775	0.85540
519.61394	0.85710
517.56013	0.85816
515.50632	0.85977
513.45251	0.86214
511.39870	0.86399
509.34489	0.86383
507.29108	0.86258
505.23727	0.86193
503.18346	0.86232
501.12965	0.86387
499.07584	0.86573
497.02203	0.86636
494.96822	0.86563
492.91441	0.86453
490.86060	0.86375
488.80679	0.86304
486.75298	0.86149
484.69917	0.85818
482.64536	0.85432
480.59155	0.85079
478.53774	0.84697
476.48393	0.84281
474.43012	0.83799
472.37631	0.83291
470.32250	0.82937
468.26869	0.82701
466.21488	0.82539
464.16107	0.82600
462.10726	0.82743
460.05345	0.82798
457.99964	0.82901
455.94583	0.82995
453.89202	0.82945
451.83821	0.83062
449.78440	0.83407
447.73059	0.83535
445.67678	0.83420
443.62297	0.83364
441.56916	0.83601
439.51535	0.84145
437.46154	0.84656
435.40773	0.84854
433.35392	0.84793
431.30011	0.84801
429.24630	0.84998
427.19249	0.85133
425.13868	0.85067
423.08487	0.85006
421.03106	0.85024
418.97725	0.84981
416.92344	0.85102
414.86963	0.85422
412.81582	0.85771
410.76201	0.86320
408.70820	0.87094
406.65439	0.87561
404.60058	0.87496
402.54677	0.87406
400.49296	0.87329
398.43915	0.86792
