3996.70104	0.97942
3994.64724	0.97938
3992.59344	0.97892
3990.53964	0.97867
3988.48583	0.97879
3986.43203	0.97829
3984.37823	0.97773
3982.32442	0.97796
3980.27062	0.97822
3978.21682	0.97846
3976.16301	0.97899
3974.10921	0.97875
3972.05541	0.97820
3970.00160	0.97856
3967.94780	0.97864
3965.89400	0.97810
3963.84019	0.97813
3961.78639	0.97832
3959.73259	0.97835
3957.67878	0.97862
3955.62498	0.97837
3953.57118	0.97795
3951.51737	0.97817
3949.46357	0.97795
3947.40977	0.97741
3945.35596	0.97745
3943.30216	0.97775
3941.24836	0.97818
3939.19455	0.97856
3937.14075	0.97862
3935.08695	0.97841
3933.03315	0.97818
3930.97934	0.97799
3928.92554	0.97792
3926.87174	0.97844
3924.81793	0.97894
3922.76413	0.97862
3920.71033	0.97835
3918.65652	0.97827
3916.60272	0.97789
3914.54892	0.97773
3912.49511	0.97757
3910.44131	0.97752
3908.38751	0.97820
3906.33370	0.97867
3904.27990	0.97850
3902.22610	0.97901
3900.17229	0.97917
3898.11849	0.97858
3896.06469	0.97876
3894.01088	0.97909
3891.95708	0.97880
3889.90328	0.97843
3887.84947	0.97802
3885.79567	0.97760
3883.74187	0.97778
3881.68807	0.97778
3879.63426	0.97761
3877.58046	0.97796
3875.52666	0.97772
3873.47285	0.97731
3871.41905	0.97804
3869.36525	0.97846
3867.31144	0.97801
3865.25764	0.97797
3863.20384	0.97781
3861.15003	0.97762
3859.09623	0.97816
3857.04243	0.97804
3854.98862	0.97672
3852.93482	0.97699
3850.88102	0.97858
3848.82721	0.97870
3846.77341	0.97834
3844.71961	0.97773
3842.66580	0.97699
3840.61200	0.97774
3838.55820	0.97945
3836.50439	0.97968
3834.45059	0.97884
3832.39679	0.97809
3830.34298	0.97828
3828.28918	0.97945
3826.23538	0.97999
3824.18158	0.97931
3822.12777	0.97889
3820.07397	0.97914
3818.02017	0.97880
3815.96636	0.97876
3813.91256	0.97936
3811.85876	0.97978
3809.80495	0.98008
3807.75115	0.97976
3805.69735	0.97887
3803.64354	0.97865
3801.58974	0.97842
3799.53594	0.97785
3797.48213	0.97860
3795.42833	0.97983
3793.37453	0.97997
3791.32072	0.97947
3789.26692	0.97879
3787.21312	0.97818
3785.15931	0.97786
3783.10551	0.97784
3781.05171	0.97798
3778.99790	0.97837
3776.94410	0.97856
3774.89030	0.97824
3772.83650	0.97846
3770.78269	0.97957
3768.72889	0.97999
3766.67509	0.97929
3764.62128	0.97861
3762.56748	0.97832
3760.51368	0.97845
3758.45987	0.97870
3756.40607	0.97889
3754.35227	0.97958
3752.29846	0.98047
3750.24466	0.98086
3748.19086	0.98149
3746.13705	0.98132
3744.08325	0.97915
3742.02945	0.97819
3739.97564	0.97859
3737.92184	0.97863
3735.86804	0.97892
3733.81423	0.97924
3731.76043	0.97889
3729.70663	0.97925
3727.65282	0.98008
3725.59902	0.98063
3723.54522	0.98101
3721.49141	0.98064
3719.43761	0.97973
3717.38381	0.97962
3715.33001	0.97968
3713.27620	0.97902
3711.22240	0.97867
3709.16860	0.97886
3707.11479	0.97878
3705.06099	0.97876
3703.00719	0.97825
3700.95338	0.97715
3698.89958	0.97686
3696.84578	0.97725
3694.79197	0.97749
3692.73817	0.97779
3690.68437	0.97788
3688.63056	0.97702
3686.57676	0.97617
3684.52296	0.97585
3682.46915	0.97577
3680.41535	0.97653
3678.36155	0.97790
3676.30774	0.97851
3674.25394	0.97854
3672.20014	0.97788
3670.14633	0.97685
3668.09253	0.97733
3666.03873	0.97774
3663.98492	0.97727
3661.93112	0.97741
3659.87732	0.97792
3657.82352	0.97780
3655.76971	0.97718
3653.71591	0.97630
3651.66211	0.97580
3649.60830	0.97618
3647.55450	0.97636
3645.50070	0.97580
3643.44689	0.97551
3641.39309	0.97563
3639.33929	0.97572
3637.28548	0.97586
3635.23168	0.97543
3633.17788	0.97407
3631.12407	0.97387
3629.07027	0.97506
3627.01647	0.97470
3624.96266	0.97420
3622.90886	0.97437
3620.85506	0.97411
3618.80125	0.97386
3616.74745	0.97383
3614.69365	0.97327
3612.63984	0.97290
3610.58604	0.97324
3608.53224	0.97360
3606.47844	0.97367
3604.42463	0.97336
3602.37083	0.97287
3600.31703	0.97306
3598.26322	0.97373
3596.20942	0.97408
3594.15562	0.97422
3592.10181	0.97381
3590.04801	0.97328
3587.99421	0.97381
3585.94040	0.97388
3583.88660	0.97303
3581.83280	0.97326
3579.77899	0.97421
3577.72519	0.97464
3575.67139	0.97464
3573.61758	0.97427
3571.56378	0.97401
3569.50998	0.97457
3567.45617	0.97497
3565.40237	0.97411
3563.34857	0.97343
3561.29476	0.97315
3559.24096	0.97245
3557.18716	0.97196
3555.13335	0.97236
3553.07955	0.97286
3551.02575	0.97266
3548.97195	0.97187
3546.91814	0.97096
3544.86434	0.97083
3542.81054	0.97125
3540.75673	0.97110
3538.70293	0.97061
3536.64913	0.97035
3534.59532	0.97026
3532.54152	0.97024
3530.48772	0.97044
3528.43391	0.97094
3526.38011	0.97159
3524.32631	0.97190
3522.27250	0.97176
3520.21870	0.97178
3518.16490	0.97196
3516.11109	0.97153
3514.05729	0.97084
3512.00349	0.97088
3509.94968	0.97126
3507.89588	0.97145
3505.84208	0.97167
3503.78827	0.97203
3501.73447	0.97260
3499.68067	0.97275
3497.62687	0.97189
3495.57306	0.97115
3493.51926	0.97130
3491.46546	0.97150
3489.41165	0.97181
3487.35785	0.97201
3485.30405	0.97151
3483.25024	0.97125
3481.19644	0.97150
3479.14264	0.97161
3477.08883	0.97186
3475.03503	0.97185
3472.98123	0.97100
3470.92742	0.97061
3468.87362	0.97066
3466.81982	0.96973
3464.76601	0.96939
3462.71221	0.97048
3460.65841	0.97110
3458.60460	0.97122
3456.55080	0.97118
3454.49700	0.97034
3452.44319	0.96992
3450.38939	0.97025
3448.33559	0.97032
3446.28178	0.97063
3444.22798	0.97095
3442.17418	0.97043
3440.12038	0.97047
3438.06657	0.97119
3436.01277	0.97106
3433.95897	0.97087
3431.90516	0.97094
3429.85136	0.97043
3427.79756	0.97027
3425.74375	0.97068
3423.68995	0.97046
3421.63615	0.96996
3419.58234	0.96968
3417.52854	0.96918
3415.47474	0.96897
3413.42093	0.96920
3411.36713	0.96923
3409.31333	0.96922
3407.25952	0.96929
3405.20572	0.96897
3403.15192	0.96848
3401.09811	0.96825
3399.04431	0.96815
3396.99051	0.96834
3394.93670	0.96892
3392.88290	0.96931
3390.82910	0.96939
3388.77529	0.96935
3386.72149	0.96933
3384.66769	0.97001
3382.61389	0.97083
3380.56008	0.97049
3378.50628	0.96994
3376.45248	0.97007
3374.39867	0.97002
3372.34487	0.97013
3370.29107	0.97067
3368.23726	0.97067
3366.18346	0.97056
3364.12966	0.97066
3362.07585	0.97021
3360.02205	0.96959
3357.96825	0.96931
3355.91444	0.96927
3353.86064	0.96975
3351.80684	0.97039
3349.75303	0.97028
3347.69923	0.97001
3345.64543	0.97017
3343.59162	0.96992
3341.53782	0.96976
3339.48402	0.97017
3337.43021	0.97021
3335.37641	0.97025
3333.32261	0.97062
3331.26881	0.97008
3329.21500	0.96925
3327.16120	0.96938
3325.10740	0.96956
3323.05359	0.96985
3320.99979	0.97062
3318.94599	0.97084
3316.89218	0.97075
3314.83838	0.97097
3312.78458	0.97106
3310.73077	0.97092
3308.67697	0.97065
3306.62317	0.97015
3304.56936	0.97007
3302.51556	0.97052
3300.46176	0.97051
3298.40795	0.97050
3296.35415	0.97130
3294.30035	0.97183
3292.24654	0.97142
3290.19274	0.97085
3288.13894	0.97056
3286.08513	0.97073
3284.03133	0.97124
3281.97753	0.97147
3279.92372	0.97170
3277.86992	0.97195
3275.81612	0.97175
3273.76232	0.97149
3271.70851	0.97158
3269.65471	0.97173
3267.60091	0.97181
3265.54710	0.97203
3263.49330	0.97214
3261.43950	0.97240
3259.38569	0.97302
3257.33189	0.97294
3255.27809	0.97231
3253.22428	0.97195
3251.17048	0.97178
3249.11668	0.97206
3247.06287	0.97259
3245.00907	0.97282
3242.95527	0.97290
3240.90146	0.97276
3238.84766	0.97219
3236.79386	0.97204
3234.74005	0.97234
3232.68625	0.97214
3230.63245	0.97204
3228.57864	0.97250
3226.52484	0.97255
3224.47104	0.97242
3222.41724	0.97308
3220.36343	0.97394
3218.30963	0.97431
3216.25583	0.97415
3214.20202	0.97352
3212.14822	0.97344
3210.09442	0.97392
3208.04061	0.97404
3205.98681	0.97452
3203.93301	0.97500
3201.87920	0.97453
3199.82540	0.97450
3197.77160	0.97535
3195.71779	0.97513
3193.66399	0.97396
3191.61019	0.97368
3189.55638	0.97406
3187.50258	0.97438
3185.44878	0.97478
3183.39497	0.97477
3181.34117	0.97455
3179.28737	0.97488
3177.23356	0.97495
3175.17976	0.97475
3173.12596	0.97518
3171.07215	0.97529
3169.01835	0.97471
3166.96455	0.97440
3164.91075	0.97433
3162.85694	0.97460
3160.80314	0.97548
3158.74934	0.97581
3156.69553	0.97550
3154.64173	0.97584
3152.58793	0.97643
3150.53412	0.97648
3148.48032	0.97633
3146.42652	0.97587
3144.37271	0.97547
3142.31891	0.97577
3140.26511	0.97590
3138.21130	0.97589
3136.15750	0.97656
3134.10370	0.97683
3132.04989	0.97628
3129.99609	0.97609
3127.94229	0.97642
3125.88848	0.97703
3123.83468	0.97740
3121.78088	0.97690
3119.72707	0.97633
3117.67327	0.97627
3115.61947	0.97609
3113.56566	0.97585
3111.51186	0.97608
3109.45806	0.97638
3107.40426	0.97648
3105.35045	0.97666
3103.29665	0.97644
3101.24285	0.97596
3099.18904	0.97607
3097.13524	0.97620
3095.08144	0.97581
3093.02763	0.97547
3090.97383	0.97522
3088.92003	0.97508
3086.86622	0.97517
3084.81242	0.97464
3082.75862	0.97406
3080.70481	0.97453
3078.65101	0.97477
3076.59721	0.97448
3074.54340	0.97477
3072.48960	0.97510
3070.43580	0.97502
3068.38199	0.97514
3066.32819	0.97534
3064.27439	0.97528
3062.22058	0.97525
3060.16678	0.97548
3058.11298	0.97600
3056.05918	0.97643
3054.00537	0.97611
3051.95157	0.97532
3049.89777	0.97480
3047.84396	0.97460
3045.79016	0.97478
3043.73636	0.97526
3041.68255	0.97500
3039.62875	0.97416
3037.57495	0.97404
3035.52114	0.97404
3033.46734	0.97369
3031.41354	0.97402
3029.35973	0.97455
3027.30593	0.97457
3025.25213	0.97443
3023.19832	0.97420
3021.14452	0.97388
3019.09072	0.97393
3017.03691	0.97412
3014.98311	0.97404
3012.92931	0.97384
3010.87550	0.97337
3008.82170	0.97288
3006.76790	0.97303
3004.71409	0.97324
3002.66029	0.97330
3000.60649	0.97388
2998.55269	0.97449
2996.49888	0.97454
2994.44508	0.97455
2992.39128	0.97439
2990.33747	0.97383
2988.28367	0.97329
2986.22987	0.97262
2984.17606	0.97188
2982.12226	0.97172
2980.06846	0.97154
2978.01465	0.97068
2975.96085	0.97009
2973.90705	0.96978
2971.85324	0.96904
2969.79944	0.96821
2967.74564	0.96721
2965.69183	0.96572
2963.63803	0.96435
2961.58423	0.96302
2959.53042	0.96131
2957.47662	0.95958
2955.42282	0.95760
2953.36901	0.95520
2951.31521	0.95252
2949.26141	0.94869
2947.20761	0.94335
2945.15380	0.93716
2943.10000	0.92937
2941.04620	0.91884
2938.99239	0.90612
2936.93859	0.89125
2934.88479	0.87349
2932.83098	0.85294
2930.77718	0.82877
2928.72338	0.80010
2926.66957	0.76655
2924.61577	0.72611
2922.56197	0.67815
2920.50816	0.62609
2918.45436	0.57582
2916.40056	0.53743
2914.34675	0.52287
2912.29295	0.53421
2910.23915	0.56178
2908.18534	0.59462
2906.13154	0.62525
2904.07774	0.65087
2902.02393	0.67229
2899.97013	0.68989
2897.91633	0.70452
2895.86252	0.71819
2893.80872	0.73149
2891.75492	0.74461
2889.70112	0.75852
2887.64731	0.77310
2885.59351	0.78798
2883.53971	0.80361
2881.48590	0.81960
2879.43210	0.83553
2877.37830	0.85177
2875.32449	0.86701
2873.27069	0.87935
2871.21689	0.88844
2869.16308	0.89378
2867.10928	0.89481
2865.05548	0.89157
2863.00167	0.88309
2860.94787	0.86770
2858.89407	0.84327
2856.84026	0.80607
2854.78646	0.75249
2852.73266	0.68359
2850.67885	0.61138
2848.62505	0.56060
2846.57125	0.55226
2844.51744	0.58352
2842.46364	0.63509
2840.40984	0.68984
2838.35603	0.73807
2836.30223	0.77668
2834.24843	0.80673
2832.19463	0.83000
2830.14082	0.84811
2828.08702	0.86297
2826.03322	0.87528
2823.97941	0.88533
2821.92561	0.89392
2819.87181	0.90100
2817.81800	0.90669
2815.76420	0.91178
2813.71040	0.91624
2811.65659	0.91999
2809.60279	0.92364
2807.54899	0.92696
2805.49518	0.92950
2803.44138	0.93190
2801.38758	0.93406
2799.33377	0.93595
2797.27997	0.93832
2795.22617	0.94070
2793.17236	0.94255
2791.11856	0.94446
2789.06476	0.94635
2787.01095	0.94772
2784.95715	0.94910
2782.90335	0.95057
2780.84955	0.95168
2778.79574	0.95301
2776.74194	0.95450
2774.68814	0.95522
2772.63433	0.95577
2770.58053	0.95668
2768.52673	0.95737
2766.47292	0.95799
2764.41912	0.95882
2762.36532	0.95956
2760.31151	0.96040
2758.25771	0.96094
2756.20391	0.96087
2754.15010	0.96125
2752.09630	0.96202
2750.04250	0.96223
2747.98869	0.96224
2745.93489	0.96229
2743.88109	0.96220
2741.82728	0.96237
2739.77348	0.96242
2737.71968	0.96235
2735.66587	0.96294
2733.61207	0.96350
2731.55827	0.96341
2729.50446	0.96347
2727.45066	0.96388
2725.39686	0.96446
2723.34306	0.96521
2721.28925	0.96557
2719.23545	0.96560
2717.18165	0.96612
2715.12784	0.96673
2713.07404	0.96671
2711.02024	0.96673
2708.96643	0.96708
2706.91263	0.96720
2704.85883	0.96729
2702.80502	0.96737
2700.75122	0.96703
2698.69742	0.96704
2696.64361	0.96772
2694.58981	0.96817
2692.53601	0.96836
2690.48220	0.96845
2688.42840	0.96835
2686.37460	0.96861
2684.32079	0.96897
2682.26699	0.96885
2680.21319	0.96874
2678.15938	0.96872
2676.10558	0.96828
2674.05178	0.96793
2671.99797	0.96785
2669.94417	0.96752
2667.89037	0.96724
2665.83657	0.96703
2663.78276	0.96654
2661.72896	0.96626
2659.67516	0.96607
2657.62135	0.96565
2655.56755	0.96589
2653.51375	0.96656
2651.45994	0.96675
2649.40614	0.96699
2647.35234	0.96728
2645.29853	0.96706
2643.24473	0.96714
2641.19093	0.96749
2639.13712	0.96716
2637.08332	0.96683
2635.02952	0.96696
2632.97571	0.96675
2630.92191	0.96658
2628.86811	0.96683
2626.81430	0.96703
2624.76050	0.96759
2622.70670	0.96842
2620.65289	0.96879
2618.59909	0.96935
2616.54529	0.97044
2614.49149	0.97096
2612.43768	0.97084
2610.38388	0.97066
2608.33008	0.97040
2606.27627	0.97064
2604.22247	0.97117
2602.16867	0.97096
2600.11486	0.97074
2598.06106	0.97136
2596.00726	0.97216
2593.95345	0.97259
2591.89965	0.97250
2589.84585	0.97205
2587.79204	0.97234
2585.73824	0.97347
2583.68444	0.97394
2581.63063	0.97397
2579.57683	0.97424
2577.52303	0.97398
2575.46922	0.97374
2573.41542	0.97400
2571.36162	0.97394
2569.30781	0.97403
2567.25401	0.97469
2565.20021	0.97506
2563.14640	0.97530
2561.09260	0.97573
2559.03880	0.97569
2556.98500	0.97548
2554.93119	0.97562
2552.87739	0.97554
2550.82359	0.97535
2548.76978	0.97537
2546.71598	0.97505
2544.66218	0.97512
2542.60837	0.97589
2540.55457	0.97562
2538.50077	0.97511
2536.44696	0.97608
2534.39316	0.97668
2532.33936	0.97630
2530.28555	0.97628
2528.23175	0.97612
2526.17795	0.97602
2524.12414	0.97672
2522.07034	0.97741
2520.01654	0.97780
2517.96273	0.97800
2515.90893	0.97774
2513.85513	0.97780
2511.80132	0.97784
2509.74752	0.97686
2507.69372	0.97664
2505.63992	0.97737
2503.58611	0.97735
2501.53231	0.97731
2499.47851	0.97746
2497.42470	0.97665
2495.37090	0.97648
2493.31710	0.97776
2491.26329	0.97797
2489.20949	0.97698
2487.15569	0.97654
2485.10188	0.97623
2483.04808	0.97627
2480.99428	0.97723
2478.94047	0.97781
2476.88667	0.97788
2474.83287	0.97780
2472.77906	0.97679
2470.72526	0.97597
2468.67146	0.97676
2466.61765	0.97784
2464.56385	0.97833
2462.51005	0.97828
2460.45624	0.97761
2458.40244	0.97755
2456.34864	0.97796
2454.29483	0.97718
2452.24103	0.97646
2450.18723	0.97709
2448.13343	0.97779
2446.07962	0.97818
2444.02582	0.97868
2441.97202	0.97877
2439.91821	0.97868
2437.86441	0.97895
2435.81061	0.97901
2433.75680	0.97891
2431.70300	0.97898
2429.64920	0.97883
2427.59539	0.97874
2425.54159	0.97869
2423.48779	0.97818
2421.43398	0.97810
2419.38018	0.97880
2417.32638	0.97899
2415.27257	0.97853
2413.21877	0.97845
2411.16497	0.97843
2409.11116	0.97828
2407.05736	0.97845
2405.00356	0.97851
2402.94975	0.97840
2400.89595	0.97854
2398.84215	0.97818
2396.78834	0.97747
2394.73454	0.97768
2392.68074	0.97805
2390.62694	0.97810
2388.57313	0.97869
2386.51933	0.97889
2384.46553	0.97837
2382.41172	0.97814
2380.35792	0.97809
2378.30412	0.97859
2376.25031	0.97961
2374.19651	0.97940
2372.14271	0.97860
2370.08890	0.97878
2368.03510	0.97822
2365.98130	0.97730
2363.92749	0.97825
2361.87369	0.97894
2359.81989	0.97827
2357.76608	0.97777
2355.71228	0.97666
2353.65848	0.97571
2351.60467	0.97608
2349.55087	0.97602
2347.49707	0.97553
2345.44326	0.97580
2343.38946	0.97569
2341.33566	0.97493
2339.28186	0.97489
2337.22805	0.97449
2335.17425	0.97428
2333.12045	0.97528
2331.06664	0.97569
2329.01284	0.97549
2326.95904	0.97545
2324.90523	0.97411
2322.85143	0.97259
2320.79763	0.97328
2318.74382	0.97459
2316.69002	0.97538
2314.63622	0.97645
2312.58241	0.97701
2310.52861	0.97670
2308.47481	0.97635
2306.42100	0.97572
2304.36720	0.97547
2302.31340	0.97647
2300.25959	0.97676
2298.20579	0.97590
2296.15199	0.97560
2294.09818	0.97557
2292.04438	0.97588
2289.99058	0.97655
2287.93677	0.97611
2285.88297	0.97564
2283.82917	0.97666
2281.77537	0.97736
2279.72156	0.97708
2277.66776	0.97746
2275.61396	0.97773
2273.56015	0.97779
2271.50635	0.97851
2269.45255	0.97839
2267.39874	0.97838
2265.34494	0.97969
2263.29114	0.97982
2261.23733	0.97885
2259.18353	0.97891
2257.12973	0.97822
2255.07592	0.97635
2253.02212	0.97652
2250.96832	0.97795
2248.91451	0.97867
2246.86071	0.97941
2244.80691	0.97932
2242.75310	0.97845
2240.69930	0.97864
2238.64550	0.97799
2236.59169	0.97691
2234.53789	0.97823
2232.48409	0.97903
2230.43029	0.97807
2228.37648	0.97812
2226.32268	0.97802
2224.26888	0.97812
2222.21507	0.98041
2220.16127	0.98089
2218.10747	0.97928
2216.05366	0.97988
2213.99986	0.98027
2211.94606	0.97874
2209.89225	0.97911
2207.83845	0.98031
2205.78465	0.97996
2203.73084	0.98026
2201.67704	0.97985
2199.62324	0.97866
2197.56943	0.98038
2195.51563	0.98269
2193.46183	0.98326
2191.40802	0.98362
2189.35422	0.98263
2187.30042	0.98035
2185.24661	0.98053
2183.19281	0.98167
2181.13901	0.98216
2179.08520	0.98415
2177.03140	0.98435
2174.97760	0.98339
2172.92380	0.98468
2170.86999	0.98275
2168.81619	0.97959
2166.76239	0.98235
2164.70858	0.98351
2162.65478	0.98023
2160.60098	0.98237
2158.54717	0.98565
2156.49337	0.98428
2154.43957	0.98483
2152.38576	0.98442
2150.33196	0.98172
2148.27816	0.98273
2146.22435	0.98321
2144.17055	0.98046
2142.11675	0.98048
2140.06294	0.98128
2138.00914	0.97939
2135.95534	0.97922
2133.90153	0.98108
2131.84773	0.98094
2129.79393	0.98030
2127.74012	0.97997
2125.68632	0.97893
2123.63252	0.97900
2121.57871	0.97949
2119.52491	0.97911
2117.47111	0.97963
2115.41731	0.97965
2113.36350	0.97822
2111.30970	0.97876
2109.25590	0.98007
2107.20209	0.97956
2105.14829	0.98016
2103.09449	0.98157
2101.04068	0.98112
2098.98688	0.98086
2096.93308	0.98102
2094.87927	0.98001
2092.82547	0.98006
2090.77167	0.98088
2088.71786	0.98048
2086.66406	0.98042
2084.61026	0.98097
2082.55645	0.98130
2080.50265	0.98176
2078.44885	0.98078
2076.39504	0.97927
2074.34124	0.98102
2072.28744	0.98324
2070.23363	0.98275
2068.17983	0.98315
2066.12603	0.98442
2064.07223	0.98320
2062.01842	0.98147
2059.96462	0.98074
2057.91082	0.97944
2055.85701	0.97976
2053.80321	0.98165
2051.74941	0.98080
2049.69560	0.97882
2047.64180	0.97807
2045.58800	0.97805
2043.53419	0.97993
2041.48039	0.98073
2039.42659	0.97954
2037.37278	0.98025
2035.31898	0.98015
2033.26518	0.97901
2031.21137	0.98263
2029.15757	0.98656
2027.10377	0.98443
2025.04996	0.98053
2022.99616	0.97997
2020.94236	0.98061
2018.88855	0.97914
2016.83475	0.97680
2014.78095	0.97602
2012.72714	0.97872
2010.67334	0.98224
2008.61954	0.98156
2006.56574	0.98079
2004.51193	0.98247
2002.45813	0.98165
2000.40433	0.98114
1998.35052	0.98292
1996.29672	0.98315
1994.24292	0.98364
1992.18911	0.98493
1990.13531	0.98376
1988.08151	0.98217
1986.02770	0.98123
1983.97390	0.98038
1981.92010	0.98184
1979.86629	0.98235
1977.81249	0.97987
1975.75869	0.98043
1973.70488	0.98128
1971.65108	0.97958
1969.59728	0.97986
1967.54347	0.98043
1965.48967	0.97980
1963.43587	0.98135
1961.38206	0.98295
1959.32826	0.98262
1957.27446	0.98428
1955.22066	0.98559
1953.16685	0.98351
1951.11305	0.98300
1949.05925	0.98425
1947.00544	0.98397
1944.95164	0.98397
1942.89784	0.98361
1940.84403	0.98104
1938.79023	0.97989
1936.73643	0.98116
1934.68262	0.98235
1932.62882	0.98307
1930.57502	0.98235
1928.52121	0.98035
1926.46741	0.98057
1924.41361	0.98223
1922.35980	0.98270
1920.30600	0.98343
1918.25220	0.98364
1916.19839	0.98153
1914.14459	0.98012
1912.09079	0.98024
1910.03698	0.98001
1907.98318	0.98022
1905.92938	0.98039
1903.87557	0.97941
1901.82177	0.97901
1899.76797	0.97921
1897.71417	0.97893
1895.66036	0.97980
1893.60656	0.98127
1891.55276	0.98089
1889.49895	0.98075
1887.44515	0.98146
1885.39135	0.98086
1883.33754	0.98057
1881.28374	0.98115
1879.22994	0.98083
1877.17613	0.98025
1875.12233	0.98020
1873.06853	0.97999
1871.01472	0.98006
1868.96092	0.98021
1866.90712	0.97948
1864.85331	0.97945
1862.79951	0.98035
1860.74571	0.98061
1858.69190	0.98051
1856.63810	0.98077
1854.58430	0.98090
1852.53049	0.98124
1850.47669	0.98178
1848.42289	0.98138
1846.36908	0.98071
1844.31528	0.98041
1842.26148	0.97986
1840.20768	0.98007
1838.15387	0.98082
1836.10007	0.98072
1834.04627	0.98065
1831.99246	0.98100
1829.93866	0.98035
1827.88486	0.97958
1825.83105	0.97968
1823.77725	0.97940
1821.72345	0.97915
1819.66964	0.97953
1817.61584	0.97977
1815.56204	0.97997
1813.50823	0.98009
1811.45443	0.97958
1809.40063	0.97926
1807.34682	0.97936
1805.29302	0.97913
1803.23922	0.97920
1801.18541	0.97961
1799.13161	0.97934
1797.07781	0.97941
1795.02400	0.97983
1792.97020	0.97905
1790.91640	0.97819
1788.86260	0.97836
1786.80879	0.97819
1784.75499	0.97803
1782.70119	0.97837
1780.64738	0.97803
1778.59358	0.97781
1776.53978	0.97849
1774.48597	0.97854
1772.43217	0.97809
1770.37837	0.97782
1768.32456	0.97704
1766.27076	0.97655
1764.21696	0.97652
1762.16315	0.97613
1760.10935	0.97604
1758.05555	0.97656
1756.00174	0.97631
1753.94794	0.97586
1751.89414	0.97623
1749.84033	0.97591
1747.78653	0.97477
1745.73273	0.97423
1743.67892	0.97381
1741.62512	0.97346
1739.57132	0.97326
1737.51751	0.97257
1735.46371	0.97198
1733.40991	0.97229
1731.35611	0.97243
1729.30230	0.97216
1727.24850	0.97149
1725.19470	0.96991
1723.14089	0.96812
1721.08709	0.96701
1719.03329	0.96585
1716.97948	0.96491
1714.92568	0.96523
1712.87188	0.96556
1710.81807	0.96616
1708.76427	0.96735
1706.71047	0.96785
1704.65666	0.96790
1702.60286	0.96877
1700.54906	0.96980
1698.49525	0.97018
1696.44145	0.97042
1694.38765	0.97041
1692.33384	0.97051
1690.28004	0.97074
1688.22624	0.97046
1686.17243	0.97034
1684.11863	0.97088
1682.06483	0.97028
1680.01103	0.96925
1677.95722	0.96894
1675.90342	0.96895
1673.84962	0.96899
1671.79581	0.96892
1669.74201	0.96817
1667.68821	0.96768
1665.63440	0.96809
1663.58060	0.96833
1661.52680	0.96825
1659.47299	0.96821
1657.41919	0.96785
1655.36539	0.96724
1653.31158	0.96698
1651.25778	0.96696
1649.20398	0.96710
1647.15017	0.96730
1645.09637	0.96651
1643.04257	0.96570
1640.98876	0.96590
1638.93496	0.96639
1636.88116	0.96657
1634.82735	0.96659
1632.77355	0.96623
1630.71975	0.96586
1628.66594	0.96577
1626.61214	0.96555
1624.55834	0.96550
1622.50454	0.96587
1620.45073	0.96563
1618.39693	0.96531
1616.34313	0.96604
1614.28932	0.96666
1612.23552	0.96689
1610.18172	0.96767
1608.12791	0.96821
1606.07411	0.96819
1604.02031	0.96850
1601.96650	0.96848
1599.91270	0.96811
1597.85890	0.96845
1595.80509	0.96881
1593.75129	0.96882
1591.69749	0.96909
1589.64368	0.96922
1587.58988	0.96944
1585.53608	0.97004
1583.48227	0.97027
1581.42847	0.97043
1579.37467	0.97094
1577.32086	0.97109
1575.26706	0.97123
1573.21326	0.97191
1571.15945	0.97196
1569.10565	0.97155
1567.05185	0.97175
1564.99805	0.97194
1562.94424	0.97176
1560.89044	0.97152
1558.83664	0.97109
1556.78283	0.97133
1554.72903	0.97225
1552.67523	0.97245
1550.62142	0.97222
1548.56762	0.97229
1546.51382	0.97192
1544.46001	0.97137
1542.40621	0.97192
1540.35241	0.97219
1538.29860	0.97152
1536.24480	0.97170
1534.19100	0.97192
1532.13719	0.97181
1530.08339	0.97195
1528.02959	0.97196
1525.97578	0.97162
1523.92198	0.97175
1521.86818	0.97184
1519.81437	0.97160
1517.76057	0.97181
1515.70677	0.97187
1513.65297	0.97181
1511.59916	0.97198
1509.54536	0.97165
1507.49156	0.97077
1505.43775	0.97080
1503.38395	0.97050
1501.33015	0.96989
1499.27634	0.96961
1497.22254	0.96895
1495.16874	0.96791
1493.11493	0.96760
1491.06113	0.96711
1489.00733	0.96578
1486.95352	0.96472
1484.89972	0.96321
1482.84592	0.95997
1480.79211	0.95381
1478.73831	0.93953
1476.68451	0.90289
1474.63070	0.83661
1472.57690	0.77924
1470.52310	0.78219
1468.46929	0.81051
1466.41549	0.82326
1464.36169	0.80849
1462.30788	0.79830
1460.25408	0.82157
1458.20028	0.86996
1456.14648	0.91273
1454.09267	0.92813
1452.03887	0.93447
1449.98507	0.93994
1447.93126	0.94406
1445.87746	0.94623
1443.82366	0.94755
1441.76985	0.94848
1439.71605	0.94944
1437.66225	0.95117
1435.60844	0.95253
1433.55464	0.95307
1431.50084	0.95453
1429.44703	0.95639
1427.39323	0.95781
1425.33943	0.95935
1423.28562	0.96044
1421.23182	0.96067
1419.17802	0.96131
1417.12421	0.96192
1415.07041	0.96185
1413.01661	0.96214
1410.96280	0.96247
1408.90900	0.96264
1406.85520	0.96347
1404.80139	0.96434
1402.74759	0.96460
1400.69379	0.96517
1398.63999	0.96583
1396.58618	0.96605
1394.53238	0.96637
1392.47858	0.96635
1390.42477	0.96598
1388.37097	0.96622
1386.31717	0.96651
1384.26336	0.96616
1382.20956	0.96576
1380.15576	0.96506
1378.10195	0.96420
1376.04815	0.96370
1373.99435	0.96288
1371.94054	0.96177
1369.88674	0.96118
1367.83294	0.96078
1365.77913	0.96079
1363.72533	0.96163
1361.67153	0.96243
1359.61772	0.96282
1357.56392	0.96347
1355.51012	0.96382
1353.45631	0.96370
1351.40251	0.96384
1349.34871	0.96390
1347.29491	0.96401
1345.24110	0.96477
1343.18730	0.96532
1341.13350	0.96541
1339.07969	0.96591
1337.02589	0.96621
1334.97209	0.96625
1332.91828	0.96683
1330.86448	0.96711
1328.81068	0.96688
1326.75687	0.96701
1324.70307	0.96688
1322.64927	0.96604
1320.59546	0.96557
1318.54166	0.96534
1316.48786	0.96465
1314.43405	0.96418
1312.38025	0.96376
1310.32645	0.96306
1308.27264	0.96284
1306.21884	0.96293
1304.16504	0.96279
1302.11123	0.96279
1300.05743	0.96252
1298.00363	0.96184
1295.94982	0.96185
1293.89602	0.96225
1291.84222	0.96205
1289.78842	0.96180
1287.73461	0.96177
1285.68081	0.96181
1283.62701	0.96228
1281.57320	0.96244
1279.51940	0.96202
1277.46560	0.96196
1275.41179	0.96189
1273.35799	0.96137
1271.30419	0.96133
1269.25038	0.96151
1267.19658	0.96119
1265.14278	0.96090
1263.08897	0.96068
1261.03517	0.96034
1258.98137	0.96029
1256.92756	0.95996
1254.87376	0.95902
1252.81996	0.95852
1250.76615	0.95867
1248.71235	0.95885
1246.65855	0.95897
1244.60474	0.95867
1242.55094	0.95790
1240.49714	0.95749
1238.44334	0.95719
1236.38953	0.95629
1234.33573	0.95568
1232.28193	0.95551
1230.22812	0.95482
1228.17432	0.95410
1226.12052	0.95354
1224.06671	0.95269
1222.01291	0.95208
1219.95911	0.95139
1217.90530	0.95015
1215.85150	0.94927
1213.79770	0.94847
1211.74389	0.94690
1209.69009	0.94524
1207.63629	0.94371
1205.58248	0.94208
1203.52868	0.94063
1201.47488	0.93872
1199.42107	0.93634
1197.36727	0.93468
1195.31347	0.93298
1193.25966	0.93026
1191.20586	0.92792
1189.15206	0.92612
1187.09825	0.92357
1185.04445	0.92058
1182.99065	0.91739
1180.93685	0.91370
1178.88304	0.91071
1176.82924	0.90837
1174.77544	0.90559
1172.72163	0.90339
1170.66783	0.90190
1168.61403	0.89971
1166.56022	0.89723
1164.50642	0.89529
1162.45262	0.89374
1160.39881	0.89302
1158.34501	0.89281
1156.29121	0.89192
1154.23740	0.89084
1152.18360	0.88976
1150.12980	0.88793
1148.07599	0.88646
1146.02219	0.88586
1143.96839	0.88479
1141.91458	0.88354
1139.86078	0.88276
1137.80698	0.88212
1135.75317	0.88194
1133.69937	0.88181
1131.64557	0.88075
1129.59176	0.87951
1127.53796	0.87879
1125.48416	0.87801
1123.43036	0.87729
1121.37655	0.87655
1119.32275	0.87529
1117.26895	0.87411
1115.21514	0.87294
1113.16134	0.87108
1111.10754	0.86948
1109.05373	0.86842
1106.99993	0.86711
1104.94613	0.86614
1102.89232	0.86532
1100.83852	0.86387
1098.78472	0.86288
1096.73091	0.86246
1094.67711	0.86191
1092.62331	0.86214
1090.56950	0.86291
1088.51570	0.86329
1086.46190	0.86432
1084.40809	0.86601
1082.35429	0.86729
1080.30049	0.86893
1078.24668	0.87105
1076.19288	0.87265
1074.13908	0.87442
1072.08528	0.87621
1070.03147	0.87675
1067.97767	0.87699
1065.92387	0.87723
1063.87006	0.87642
1061.81626	0.87544
1059.76246	0.87514
1057.70865	0.87456
1055.65485	0.87394
1053.60105	0.87382
1051.54724	0.87343
1049.49344	0.87310
1047.43964	0.87288
1045.38583	0.87180
1043.33203	0.87135
1041.27823	0.87223
1039.22442	0.87243
1037.17062	0.87236
1035.11682	0.87326
1033.06301	0.87412
1031.00921	0.87519
1028.95541	0.87673
1026.90160	0.87753
1024.84780	0.87837
1022.79400	0.87962
1020.74019	0.87969
1018.68639	0.87953
1016.63259	0.88062
1014.57879	0.88162
1012.52498	0.88205
1010.47118	0.88263
1008.41738	0.88330
1006.36357	0.88449
1004.30977	0.88567
1002.25597	0.88604
1000.20216	0.88740
998.14836	0.89012
996.09456	0.89201
994.04075	0.89379
991.98695	0.89681
989.93315	0.89954
987.87934	0.90196
985.82554	0.90467
983.77174	0.90675
981.71793	0.90899
979.66413	0.91213
977.61033	0.91487
975.55652	0.91738
973.50272	0.92042
971.44892	0.92275
969.39511	0.92461
967.34131	0.92686
965.28751	0.92853
963.23371	0.93032
961.17990	0.93263
959.12610	0.93406
957.07230	0.93543
955.01849	0.93731
952.96469	0.93866
950.91089	0.93985
948.85708	0.94111
946.80328	0.94179
944.74948	0.94295
942.69567	0.94475
940.64187	0.94544
938.58807	0.94581
936.53426	0.94716
934.48046	0.94814
932.42666	0.94880
930.37285	0.94993
928.31905	0.95072
926.26525	0.95154
924.21144	0.95241
922.15764	0.95237
920.10384	0.95285
918.05003	0.95408
915.99623	0.95378
913.94243	0.95257
911.88862	0.95197
909.83482	0.95156
907.78102	0.95244
905.72722	0.95499
903.67341	0.95691
901.61961	0.95819
899.56581	0.95950
897.51200	0.95983
895.45820	0.96018
893.40440	0.96169
891.35059	0.96249
889.29679	0.96223
887.24299	0.96221
885.18918	0.96186
883.13538	0.96170
881.08158	0.96236
879.02777	0.96202
876.97397	0.96161
874.92017	0.96284
872.86636	0.96368
870.81256	0.96351
868.75876	0.96381
866.70495	0.96422
864.65115	0.96480
862.59735	0.96566
860.54354	0.96556
858.48974	0.96563
856.43594	0.96699
854.38213	0.96728
852.32833	0.96672
850.27453	0.96698
848.22073	0.96651
846.16692	0.96563
844.11312	0.96582
842.05932	0.96578
840.00551	0.96611
837.95171	0.96763
835.89791	0.96763
833.84410	0.96683
831.79030	0.96705
829.73650	0.96599
827.68269	0.96482
825.62889	0.96614
823.57509	0.96690
821.52128	0.96610
819.46748	0.96595
817.41368	0.96503
815.35987	0.96376
813.30607	0.96412
811.25227	0.96316
809.19846	0.95997
807.14466	0.95696
805.09086	0.95318
803.03705	0.94946
800.98325	0.94804
798.92945	0.94691
796.87565	0.94581
794.82184	0.94653
792.76804	0.94777
790.71424	0.94896
788.66043	0.95035
786.60663	0.94976
784.55283	0.94777
782.49902	0.94673
780.44522	0.94597
778.39142	0.94612
776.33761	0.94807
774.28381	0.94971
772.23001	0.95084
770.17620	0.95263
768.12240	0.95334
766.06860	0.95270
764.01479	0.95266
761.96099	0.95260
759.90719	0.95258
757.85338	0.95356
755.79958	0.95376
753.74578	0.95359
751.69197	0.95445
749.63817	0.95382
747.58437	0.95178
745.53056	0.95100
743.47676	0.95044
741.42296	0.94930
739.36916	0.94756
737.31535	0.94028
735.26155	0.91834
733.20775	0.87470
731.15394	0.82916
729.10014	0.82049
727.04634	0.84318
724.99253	0.85343
722.93873	0.82591
720.88493	0.76761
718.83112	0.72000
716.77732	0.72467
714.72352	0.77575
712.66971	0.83625
710.61591	0.88033
708.56211	0.90657
706.50830	0.92063
704.45450	0.92869
702.40070	0.93562
700.34689	0.93932
698.29309	0.93966
696.23929	0.94107
694.18548	0.94294
692.13168	0.94418
690.07788	0.94718
688.02408	0.94943
685.97027	0.94928
683.91647	0.95019
681.86267	0.95069
679.80886	0.94966
677.75506	0.95043
675.70126	0.95136
673.64745	0.95075
671.59365	0.95107
669.53985	0.95106
667.48604	0.94962
665.43224	0.94949
663.37844	0.94852
661.32463	0.94733
659.27083	0.94797
657.21703	0.94676
655.16322	0.94351
653.10942	0.94274
651.05562	0.94228
649.00181	0.94048
646.94801	0.94046
644.89421	0.94033
642.84040	0.93979
640.78660	0.94252
638.73280	0.94525
636.67899	0.94504
634.62519	0.94545
632.57139	0.94637
630.51759	0.94649
628.46378	0.94771
626.40998	0.94786
624.35618	0.94571
622.30237	0.94473
620.24857	0.94356
618.19477	0.94087
616.14096	0.93973
614.08716	0.93836
612.03336	0.93547
609.97955	0.93357
607.92575	0.93096
605.87195	0.92754
603.81814	0.92620
601.76434	0.92408
599.71054	0.92083
597.65673	0.92157
595.60293	0.92357
593.54913	0.92349
591.49532	0.92389
589.44152	0.92344
587.38772	0.92221
585.33391	0.92406
583.28011	0.92575
581.22631	0.92511
579.17250	0.92806
577.11870	0.93268
575.06490	0.93337
573.01110	0.93438
570.95729	0.93735
568.90349	0.93858
566.84969	0.93907
564.79588	0.93910
562.74208	0.93811
560.68828	0.93861
558.63447	0.93885
556.58067	0.93758
554.52687	0.93847
552.47306	0.93942
550.41926	0.93830
548.36546	0.93829
546.31165	0.93587
544.25785	0.93042
542.20405	0.92961
540.15024	0.93047
538.09644	0.92864
536.04264	0.92955
533.98883	0.93098
531.93503	0.92955
529.88123	0.93084
527.82742	0.93204
525.77362	0.92926
523.71982	0.92857
521.66602	0.92832
519.61221	0.92574
517.55841	0.92635
515.50461	0.92739
513.45080	0.92615
511.39700	0.92842
509.34320	0.93011
507.28939	0.92709
505.23559	0.92828
503.18179	0.93244
501.12798	0.93140
499.07418	0.93078
497.02038	0.93211
494.96657	0.93094
492.91277	0.93117
490.85897	0.93119
488.80516	0.92692
486.75136	0.92566
484.69756	0.92507
482.64375	0.91662
480.58995	0.90922
478.53615	0.90667
476.48234	0.90388
474.42854	0.90442
472.37474	0.90432
470.32093	0.89742
468.26713	0.89354
466.21333	0.89401
464.15953	0.89388
462.10572	0.89690
460.05192	0.89982
457.99812	0.89940
455.94431	0.90647
453.89051	0.91404
451.83671	0.91093
449.78290	0.90824
447.72910	0.90725
445.67530	0.90323
443.62149	0.90641
441.56769	0.91222
439.51389	0.91231
437.46008	0.91600
435.40628	0.91732
433.35248	0.91060
431.29867	0.91192
429.24487	0.91611
427.19107	0.91199
425.13726	0.91369
423.08346	0.92030
421.02966	0.91946
418.97585	0.92432
416.92205	0.92931
414.86825	0.91868
412.81445	0.91250
410.76064	0.91627
408.70684	0.91828
406.65304	0.92625
404.59923	0.93639
402.54543	0.92915
400.49163	0.91696
398.43782	0.90952
