3996.70104	0.99062
3994.64724	0.99022
3992.59344	0.99016
3990.53964	0.99060
3988.48583	0.99079
3986.43203	0.99068
3984.37823	0.99067
3982.32442	0.99051
3980.27062	0.99033
3978.21682	0.99032
3976.16301	0.99030
3974.10921	0.99018
3972.05541	0.99014
3970.00160	0.99047
3967.94780	0.99105
3965.89400	0.99133
3963.84019	0.99109
3961.78639	0.99090
3959.73259	0.99104
3957.67878	0.99100
3955.62498	0.99072
3953.57118	0.99077
3951.51737	0.99118
3949.46357	0.99134
3947.40977	0.99100
3945.35596	0.99054
3943.30216	0.99018
3941.24836	0.99017
3939.19455	0.99074
3937.14075	0.99120
3935.08695	0.99112
3933.03315	0.99114
3930.97934	0.99157
3928.92554	0.99178
3926.87174	0.99147
3924.81793	0.99108
3922.76413	0.99108
3920.71033	0.99103
3918.65652	0.99073
3916.60272	0.99081
3914.54892	0.99133
3912.49511	0.99152
3910.44131	0.99136
3908.38751	0.99125
3906.33370	0.99082
3904.27990	0.99012
3902.22610	0.99007
3900.17229	0.99052
3898.11849	0.99072
3896.06469	0.99070
3894.01088	0.99053
3891.95708	0.99035
3889.90328	0.99062
3887.84947	0.99106
3885.79567	0.99118
3883.74187	0.99111
3881.68807	0.99099
3879.63426	0.99090
3877.58046	0.99106
3875.52666	0.99090
3873.47285	0.99024
3871.41905	0.98987
3869.36525	0.98977
3867.31144	0.99006
3865.25764	0.99099
3863.20384	0.99129
3861.15003	0.99061
3859.09623	0.99049
3857.04243	0.99077
3854.98862	0.99090
3852.93482	0.99144
3850.88102	0.99146
3848.82721	0.99076
3846.77341	0.99030
3844.71961	0.99024
3842.66580	0.99048
3840.61200	0.99074
3838.55820	0.99070
3836.50439	0.99050
3834.45059	0.99030
3832.39679	0.99028
3830.34298	0.99049
3828.28918	0.99093
3826.23538	0.99161
3824.18158	0.99187
3822.12777	0.99129
3820.07397	0.99075
3818.02017	0.99113
3815.96636	0.99158
3813.91256	0.99133
3811.85876	0.99124
3809.80495	0.99160
3807.75115	0.99153
3805.69735	0.99095
3803.64354	0.99054
3801.58974	0.99009
3799.53594	0.98978
3797.48213	0.99004
3795.42833	0.99057
3793.37453	0.99059
3791.32072	0.99022
3789.26692	0.99025
3787.21312	0.99049
3785.15931	0.99061
3783.10551	0.99086
3781.05171	0.99094
3778.99790	0.99058
3776.94410	0.99042
3774.89030	0.99067
3772.83650	0.99103
3770.78269	0.99091
3768.72889	0.98997
3766.67509	0.98967
3764.62128	0.99059
3762.56748	0.99127
3760.51368	0.99076
3758.45987	0.98996
3756.40607	0.99046
3754.35227	0.99118
3752.29846	0.99041
3750.24466	0.98948
3748.19086	0.99057
3746.13705	0.99171
3744.08325	0.99178
3742.02945	0.99162
3739.97564	0.99173
3737.92184	0.99147
3735.86804	0.99089
3733.81423	0.99113
3731.76043	0.99171
3729.70663	0.99217
3727.65282	0.99263
3725.59902	0.99232
3723.54522	0.99133
3721.49141	0.99092
3719.43761	0.99109
3717.38381	0.99114
3715.33001	0.99104
3713.27620	0.99080
3711.22240	0.99008
3709.16860	0.98956
3707.11479	0.99002
3705.06099	0.99065
3703.00719	0.99074
3700.95338	0.99044
3698.89958	0.99030
3696.84578	0.99026
3694.79197	0.99019
3692.73817	0.99023
3690.68437	0.99044
3688.63056	0.99080
3686.57676	0.99092
3684.52296	0.99109
3682.46915	0.99125
3680.41535	0.99091
3678.36155	0.99026
3676.30774	0.98931
3674.25394	0.98854
3672.20014	0.98893
3670.14633	0.98923
3668.09253	0.98846
3666.03873	0.98783
3663.98492	0.98809
3661.93112	0.98838
3659.87732	0.98803
3657.82352	0.98742
3655.76971	0.98643
3653.71591	0.98553
3651.66211	0.98562
3649.60830	0.98633
3647.55450	0.98632
3645.50070	0.98599
3643.44689	0.98608
3641.39309	0.98623
3639.33929	0.98596
3637.28548	0.98536
3635.23168	0.98511
3633.17788	0.98529
3631.12407	0.98548
3629.07027	0.98544
3627.01647	0.98491
3624.96266	0.98413
3622.90886	0.98350
3620.85506	0.98360
3618.80125	0.98408
3616.74745	0.98375
3614.69365	0.98350
3612.63984	0.98361
3610.58604	0.98293
3608.53224	0.98240
3606.47844	0.98280
3604.42463	0.98320
3602.37083	0.98334
3600.31703	0.98347
3598.26322	0.98368
3596.20942	0.98309
3594.15562	0.98169
3592.10181	0.98103
3590.04801	0.98165
3587.99421	0.98283
3585.94040	0.98297
3583.88660	0.98212
3581.83280	0.98164
3579.77899	0.98188
3577.72519	0.98201
3575.67139	0.98158
3573.61758	0.98107
3571.56378	0.98085
3569.50998	0.98105
3567.45617	0.98097
3565.40237	0.98044
3563.34857	0.98033
3561.29476	0.98040
3559.24096	0.98023
3557.18716	0.97976
3555.13335	0.97928
3553.07955	0.97924
3551.02575	0.97989
3548.97195	0.98033
3546.91814	0.97980
3544.86434	0.97911
3542.81054	0.97898
3540.75673	0.97897
3538.70293	0.97880
3536.64913	0.97871
3534.59532	0.97866
3532.54152	0.97835
3530.48772	0.97788
3528.43391	0.97751
3526.38011	0.97727
3524.32631	0.97706
3522.27250	0.97670
3520.21870	0.97624
3518.16490	0.97600
3516.11109	0.97594
3514.05729	0.97623
3512.00349	0.97648
3509.94968	0.97622
3507.89588	0.97599
3505.84208	0.97596
3503.78827	0.97560
3501.73447	0.97497
3499.68067	0.97471
3497.62687	0.97471
3495.57306	0.97459
3493.51926	0.97472
3491.46546	0.97497
3489.41165	0.97466
3487.35785	0.97421
3485.30405	0.97386
3483.25024	0.97355
3481.19644	0.97383
3479.14264	0.97426
3477.08883	0.97425
3475.03503	0.97401
3472.98123	0.97364
3470.92742	0.97338
3468.87362	0.97354
3466.81982	0.97340
3464.76601	0.97246
3462.71221	0.97168
3460.65841	0.97160
3458.60460	0.97185
3456.55080	0.97202
3454.49700	0.97191
3452.44319	0.97164
3450.38939	0.97139
3448.33559	0.97094
3446.28178	0.97050
3444.22798	0.97054
3442.17418	0.97067
3440.12038	0.97078
3438.06657	0.97125
3436.01277	0.97181
3433.95897	0.97185
3431.90516	0.97100
3429.85136	0.96960
3427.79756	0.96886
3425.74375	0.96899
3423.68995	0.96911
3421.63615	0.96895
3419.58234	0.96858
3417.52854	0.96813
3415.47474	0.96796
3413.42093	0.96824
3411.36713	0.96854
3409.31333	0.96842
3407.25952	0.96793
3405.20572	0.96750
3403.15192	0.96714
3401.09811	0.96663
3399.04431	0.96600
3396.99051	0.96552
3394.93670	0.96584
3392.88290	0.96692
3390.82910	0.96727
3388.77529	0.96644
3386.72149	0.96587
3384.66769	0.96597
3382.61389	0.96621
3380.56008	0.96630
3378.50628	0.96587
3376.45248	0.96530
3374.39867	0.96522
3372.34487	0.96512
3370.29107	0.96455
3368.23726	0.96400
3366.18346	0.96389
3364.12966	0.96405
3362.07585	0.96409
3360.02205	0.96386
3357.96825	0.96337
3355.91444	0.96303
3353.86064	0.96311
3351.80684	0.96346
3349.75303	0.96379
3347.69923	0.96355
3345.64543	0.96298
3343.59162	0.96276
3341.53782	0.96275
3339.48402	0.96223
3337.43021	0.96132
3335.37641	0.96092
3333.32261	0.96112
3331.26881	0.96123
3329.21500	0.96092
3327.16120	0.96015
3325.10740	0.95932
3323.05359	0.95883
3320.99979	0.95846
3318.94599	0.95803
3316.89218	0.95778
3314.83838	0.95768
3312.78458	0.95767
3310.73077	0.95762
3308.67697	0.95688
3306.62317	0.95598
3304.56936	0.95581
3302.51556	0.95569
3300.46176	0.95522
3298.40795	0.95473
3296.35415	0.95439
3294.30035	0.95429
3292.24654	0.95429
3290.19274	0.95395
3288.13894	0.95327
3286.08513	0.95268
3284.03133	0.95280
3281.97753	0.95363
3279.92372	0.95408
3277.86992	0.95369
3275.81612	0.95323
3273.76232	0.95296
3271.70851	0.95253
3269.65471	0.95221
3267.60091	0.95236
3265.54710	0.95259
3263.49330	0.95259
3261.43950	0.95233
3259.38569	0.95216
3257.33189	0.95248
3255.27809	0.95314
3253.22428	0.95363
3251.17048	0.95355
3249.11668	0.95305
3247.06287	0.95283
3245.00907	0.95335
3242.95527	0.95434
3240.90146	0.95519
3238.84766	0.95533
3236.79386	0.95507
3234.74005	0.95531
3232.68625	0.95575
3230.63245	0.95590
3228.57864	0.95624
3226.52484	0.95674
3224.47104	0.95691
3222.41724	0.95664
3220.36343	0.95654
3218.30963	0.95712
3216.25583	0.95772
3214.20202	0.95784
3212.14822	0.95787
3210.09442	0.95816
3208.04061	0.95868
3205.98681	0.95916
3203.93301	0.95933
3201.87920	0.95895
3199.82540	0.95835
3197.77160	0.95813
3195.71779	0.95832
3193.66399	0.95888
3191.61019	0.95970
3189.55638	0.96052
3187.50258	0.96109
3185.44878	0.96106
3183.39497	0.96079
3181.34117	0.96110
3179.28737	0.96177
3177.23356	0.96240
3175.17976	0.96288
3173.12596	0.96284
3171.07215	0.96266
3169.01835	0.96287
3166.96455	0.96333
3164.91075	0.96401
3162.85694	0.96433
3160.80314	0.96400
3158.74934	0.96401
3156.69553	0.96471
3154.64173	0.96539
3152.58793	0.96551
3150.53412	0.96545
3148.48032	0.96555
3146.42652	0.96565
3144.37271	0.96589
3142.31891	0.96619
3140.26511	0.96639
3138.21130	0.96669
3136.15750	0.96693
3134.10370	0.96695
3132.04989	0.96708
3129.99609	0.96717
3127.94229	0.96713
3125.88848	0.96741
3123.83468	0.96805
3121.78088	0.96862
3119.72707	0.96898
3117.67327	0.96933
3115.61947	0.96941
3113.56566	0.96914
3111.51186	0.96906
3109.45806	0.96922
3107.40426	0.96920
3105.35045	0.96879
3103.29665	0.96820
3101.24285	0.96786
3099.18904	0.96815
3097.13524	0.96869
3095.08144	0.96875
3093.02763	0.96845
3090.97383	0.96841
3088.92003	0.96844
3086.86622	0.96808
3084.81242	0.96771
3082.75862	0.96796
3080.70481	0.96879
3078.65101	0.96954
3076.59721	0.96967
3074.54340	0.96935
3072.48960	0.96886
3070.43580	0.96841
3068.38199	0.96834
3066.32819	0.96856
3064.27439	0.96882
3062.22058	0.96892
3060.16678	0.96887
3058.11298	0.96890
3056.05918	0.96892
3054.00537	0.96913
3051.95157	0.96959
3049.89777	0.97001
3047.84396	0.97045
3045.79016	0.97098
3043.73636	0.97131
3041.68255	0.97131
3039.62875	0.97105
3037.57495	0.97076
3035.52114	0.97098
3033.46734	0.97156
3031.41354	0.97195
3029.35973	0.97209
3027.30593	0.97211
3025.25213	0.97230
3023.19832	0.97261
3021.14452	0.97281
3019.09072	0.97301
3017.03691	0.97328
3014.98311	0.97346
3012.92931	0.97384
3010.87550	0.97451
3008.82170	0.97456
3006.76790	0.97389
3004.71409	0.97354
3002.66029	0.97360
3000.60649	0.97371
2998.55269	0.97401
2996.49888	0.97426
2994.44508	0.97415
2992.39128	0.97391
2990.33747	0.97400
2988.28367	0.97434
2986.22987	0.97425
2984.17606	0.97380
2982.12226	0.97329
2980.06846	0.97261
2978.01465	0.97206
2975.96085	0.97195
2973.90705	0.97186
2971.85324	0.97132
2969.79944	0.97064
2967.74564	0.97032
2965.69183	0.97021
2963.63803	0.97004
2961.58423	0.96993
2959.53042	0.96991
2957.47662	0.97007
2955.42282	0.97055
2953.36901	0.97100
2951.31521	0.97134
2949.26141	0.97165
2947.20761	0.97161
2945.15380	0.97122
2943.10000	0.97103
2941.04620	0.97135
2938.99239	0.97157
2936.93859	0.97135
2934.88479	0.97114
2932.83098	0.97098
2930.77718	0.97077
2928.72338	0.97087
2926.66957	0.97115
2924.61577	0.97136
2922.56197	0.97141
2920.50816	0.97112
2918.45436	0.97094
2916.40056	0.97150
2914.34675	0.97241
2912.29295	0.97294
2910.23915	0.97297
2908.18534	0.97295
2906.13154	0.97310
2904.07774	0.97317
2902.02393	0.97352
2899.97013	0.97430
2897.91633	0.97499
2895.86252	0.97540
2893.80872	0.97538
2891.75492	0.97506
2889.70112	0.97493
2887.64731	0.97494
2885.59351	0.97510
2883.53971	0.97550
2881.48590	0.97571
2879.43210	0.97565
2877.37830	0.97528
2875.32449	0.97485
2873.27069	0.97499
2871.21689	0.97532
2869.16308	0.97542
2867.10928	0.97566
2865.05548	0.97602
2863.00167	0.97624
2860.94787	0.97643
2858.89407	0.97671
2856.84026	0.97707
2854.78646	0.97743
2852.73266	0.97775
2850.67885	0.97805
2848.62505	0.97815
2846.57125	0.97786
2844.51744	0.97774
2842.46364	0.97819
2840.40984	0.97854
2838.35603	0.97871
2836.30223	0.97895
2834.24843	0.97907
2832.19463	0.97923
2830.14082	0.97960
2828.08702	0.97985
2826.03322	0.97979
2823.97941	0.97973
2821.92561	0.97973
2819.87181	0.97961
2817.81800	0.97957
2815.76420	0.97966
2813.71040	0.97978
2811.65659	0.98013
2809.60279	0.98055
2807.54899	0.98060
2805.49518	0.98032
2803.44138	0.98014
2801.38758	0.98036
2799.33377	0.98081
2797.27997	0.98103
2795.22617	0.98093
2793.17236	0.98077
2791.11856	0.98070
2789.06476	0.98055
2787.01095	0.98033
2784.95715	0.98030
2782.90335	0.98040
2780.84955	0.98063
2778.79574	0.98104
2776.74194	0.98137
2774.68814	0.98137
2772.63433	0.98113
2770.58053	0.98110
2768.52673	0.98134
2766.47292	0.98150
2764.41912	0.98151
2762.36532	0.98160
2760.31151	0.98185
2758.25771	0.98209
2756.20391	0.98216
2754.15010	0.98213
2752.09630	0.98211
2750.04250	0.98200
2747.98869	0.98190
2745.93489	0.98218
2743.88109	0.98270
2741.82728	0.98287
2739.77348	0.98271
2737.71968	0.98253
2735.66587	0.98236
2733.61207	0.98222
2731.55827	0.98205
2729.50446	0.98192
2727.45066	0.98202
2725.39686	0.98240
2723.34306	0.98272
2721.28925	0.98272
2719.23545	0.98259
2717.18165	0.98252
2715.12784	0.98284
2713.07404	0.98338
2711.02024	0.98352
2708.96643	0.98340
2706.91263	0.98346
2704.85883	0.98357
2702.80502	0.98353
2700.75122	0.98355
2698.69742	0.98375
2696.64361	0.98387
2694.58981	0.98381
2692.53601	0.98362
2690.48220	0.98346
2688.42840	0.98356
2686.37460	0.98374
2684.32079	0.98390
2682.26699	0.98407
2680.21319	0.98412
2678.15938	0.98414
2676.10558	0.98425
2674.05178	0.98435
2671.99797	0.98451
2669.94417	0.98467
2667.89037	0.98436
2665.83657	0.98357
2663.78276	0.98323
2661.72896	0.98364
2659.67516	0.98399
2657.62135	0.98390
2655.56755	0.98368
2653.51375	0.98359
2651.45994	0.98360
2649.40614	0.98350
2647.35234	0.98340
2645.29853	0.98332
2643.24473	0.98296
2641.19093	0.98270
2639.13712	0.98303
2637.08332	0.98358
2635.02952	0.98396
2632.97571	0.98410
2630.92191	0.98413
2628.86811	0.98437
2626.81430	0.98466
2624.76050	0.98471
2622.70670	0.98482
2620.65289	0.98487
2618.59909	0.98469
2616.54529	0.98474
2614.49149	0.98478
2612.43768	0.98440
2610.38388	0.98386
2608.33008	0.98358
2606.27627	0.98380
2604.22247	0.98426
2602.16867	0.98492
2600.11486	0.98547
2598.06106	0.98519
2596.00726	0.98470
2593.95345	0.98494
2591.89965	0.98517
2589.84585	0.98463
2587.79204	0.98435
2585.73824	0.98488
2583.68444	0.98515
2581.63063	0.98491
2579.57683	0.98465
2577.52303	0.98448
2575.46922	0.98481
2573.41542	0.98523
2571.36162	0.98516
2569.30781	0.98500
2567.25401	0.98487
2565.20021	0.98454
2563.14640	0.98435
2561.09260	0.98435
2559.03880	0.98446
2556.98500	0.98501
2554.93119	0.98570
2552.87739	0.98592
2550.82359	0.98594
2548.76978	0.98639
2546.71598	0.98689
2544.66218	0.98660
2542.60837	0.98607
2540.55457	0.98581
2538.50077	0.98516
2536.44696	0.98462
2534.39316	0.98532
2532.33936	0.98650
2530.28555	0.98677
2528.23175	0.98608
2526.17795	0.98545
2524.12414	0.98534
2522.07034	0.98538
2520.01654	0.98546
2517.96273	0.98557
2515.90893	0.98542
2513.85513	0.98550
2511.80132	0.98623
2509.74752	0.98665
2507.69372	0.98648
2505.63992	0.98664
2503.58611	0.98674
2501.53231	0.98639
2499.47851	0.98631
2497.42470	0.98652
2495.37090	0.98653
2493.31710	0.98645
2491.26329	0.98642
2489.20949	0.98648
2487.15569	0.98664
2485.10188	0.98685
2483.04808	0.98697
2480.99428	0.98693
2478.94047	0.98690
2476.88667	0.98662
2474.83287	0.98634
2472.77906	0.98665
2470.72526	0.98665
2468.67146	0.98606
2466.61765	0.98587
2464.56385	0.98619
2462.51005	0.98636
2460.45624	0.98608
2458.40244	0.98609
2456.34864	0.98674
2454.29483	0.98716
2452.24103	0.98714
2450.18723	0.98682
2448.13343	0.98610
2446.07962	0.98549
2444.02582	0.98530
2441.97202	0.98524
2439.91821	0.98541
2437.86441	0.98557
2435.81061	0.98542
2433.75680	0.98551
2431.70300	0.98617
2429.64920	0.98686
2427.59539	0.98703
2425.54159	0.98696
2423.48779	0.98683
2421.43398	0.98601
2419.38018	0.98485
2417.32638	0.98457
2415.27257	0.98535
2413.21877	0.98620
2411.16497	0.98640
2409.11116	0.98635
2407.05736	0.98678
2405.00356	0.98742
2402.94975	0.98752
2400.89595	0.98724
2398.84215	0.98729
2396.78834	0.98751
2394.73454	0.98715
2392.68074	0.98673
2390.62694	0.98701
2388.57313	0.98764
2386.51933	0.98798
2384.46553	0.98761
2382.41172	0.98702
2380.35792	0.98726
2378.30412	0.98803
2376.25031	0.98830
2374.19651	0.98787
2372.14271	0.98714
2370.08890	0.98687
2368.03510	0.98745
2365.98130	0.98848
2363.92749	0.98951
2361.87369	0.99001
2359.81989	0.98958
2357.76608	0.98858
2355.71228	0.98740
2353.65848	0.98624
2351.60467	0.98543
2349.55087	0.98570
2347.49707	0.98698
2345.44326	0.98738
2343.38946	0.98582
2341.33566	0.98482
2339.28186	0.98568
2337.22805	0.98664
2335.17425	0.98664
2333.12045	0.98628
2331.06664	0.98597
2329.01284	0.98614
2326.95904	0.98658
2324.90523	0.98623
2322.85143	0.98512
2320.79763	0.98453
2318.74382	0.98465
2316.69002	0.98481
2314.63622	0.98533
2312.58241	0.98606
2310.52861	0.98618
2308.47481	0.98599
2306.42100	0.98602
2304.36720	0.98619
2302.31340	0.98644
2300.25959	0.98658
2298.20579	0.98628
2296.15199	0.98548
2294.09818	0.98473
2292.04438	0.98472
2289.99058	0.98450
2287.93677	0.98336
2285.88297	0.98305
2283.82917	0.98393
2281.77537	0.98435
2279.72156	0.98446
2277.66776	0.98523
2275.61396	0.98596
2273.56015	0.98579
2271.50635	0.98584
2269.45255	0.98674
2267.39874	0.98703
2265.34494	0.98616
2263.29114	0.98536
2261.23733	0.98596
2259.18353	0.98756
2257.12973	0.98834
2255.07592	0.98762
2253.02212	0.98686
2250.96832	0.98765
2248.91451	0.98895
2246.86071	0.98874
2244.80691	0.98758
2242.75310	0.98710
2240.69930	0.98750
2238.64550	0.98784
2236.59169	0.98752
2234.53789	0.98701
2232.48409	0.98627
2230.43029	0.98546
2228.37648	0.98620
2226.32268	0.98754
2224.26888	0.98694
2222.21507	0.98610
2220.16127	0.98683
2218.10747	0.98745
2216.05366	0.98706
2213.99986	0.98662
2211.94606	0.98673
2209.89225	0.98701
2207.83845	0.98787
2205.78465	0.98973
2203.73084	0.99008
2201.67704	0.98837
2199.62324	0.98778
2197.56943	0.98780
2195.51563	0.98733
2193.46183	0.98684
2191.40802	0.98607
2189.35422	0.98615
2187.30042	0.98632
2185.24661	0.98677
2183.19281	0.98802
2181.13901	0.98742
2179.08520	0.98571
2177.03140	0.98582
2174.97760	0.98705
2172.92380	0.98722
2170.86999	0.98662
2168.81619	0.98701
2166.76239	0.98789
2164.70858	0.98758
2162.65478	0.98615
2160.60098	0.98560
2158.54717	0.98829
2156.49337	0.98953
2154.43957	0.98755
2152.38576	0.98753
2150.33196	0.98894
2148.27816	0.99025
2146.22435	0.99129
2144.17055	0.99028
2142.11675	0.98855
2140.06294	0.98840
2138.00914	0.98954
2135.95534	0.99099
2133.90153	0.99132
2131.84773	0.99010
2129.79393	0.98931
2127.74012	0.98972
2125.68632	0.98913
2123.63252	0.98748
2121.57871	0.98731
2119.52491	0.98841
2117.47111	0.98920
2115.41731	0.98947
2113.36350	0.98858
2111.30970	0.98668
2109.25590	0.98583
2107.20209	0.98580
2105.14829	0.98594
2103.09449	0.98752
2101.04068	0.98914
2098.98688	0.98891
2096.93308	0.98822
2094.87927	0.98903
2092.82547	0.99036
2090.77167	0.98987
2088.71786	0.98811
2086.66406	0.98683
2084.61026	0.98646
2082.55645	0.98717
2080.50265	0.98781
2078.44885	0.98706
2076.39504	0.98589
2074.34124	0.98542
2072.28744	0.98554
2070.23363	0.98609
2068.17983	0.98658
2066.12603	0.98665
2064.07223	0.98746
2062.01842	0.98854
2059.96462	0.98779
2057.91082	0.98647
2055.85701	0.98725
2053.80321	0.98924
2051.74941	0.98937
2049.69560	0.98743
2047.64180	0.98585
2045.58800	0.98568
2043.53419	0.98654
2041.48039	0.98720
2039.42659	0.98732
2037.37278	0.98894
2035.31898	0.99135
2033.26518	0.99270
2031.21137	0.99225
2029.15757	0.98971
2027.10377	0.98957
2025.04996	0.99273
2022.99616	0.99227
2020.94236	0.98779
2018.88855	0.98681
2016.83475	0.99084
2014.78095	0.99352
2012.72714	0.99209
2010.67334	0.99027
2008.61954	0.98992
2006.56574	0.98899
2004.51193	0.98796
2002.45813	0.98852
2000.40433	0.98946
1998.35052	0.98890
1996.29672	0.98628
1994.24292	0.98414
1992.18911	0.98523
1990.13531	0.98688
1988.08151	0.98718
1986.02770	0.98833
1983.97390	0.98981
1981.92010	0.99011
1979.86629	0.98902
1977.81249	0.98752
1975.75869	0.98860
1973.70488	0.99121
1971.65108	0.99192
1969.59728	0.99137
1967.54347	0.99054
1965.48967	0.98992
1963.43587	0.98946
1961.38206	0.98833
1959.32826	0.98705
1957.27446	0.98758
1955.22066	0.99026
1953.16685	0.99183
1951.11305	0.99131
1949.05925	0.99061
1947.00544	0.98969
1944.95164	0.98817
1942.89784	0.98683
1940.84403	0.98635
1938.79023	0.98677
1936.73643	0.98825
1934.68262	0.99033
1932.62882	0.99162
1930.57502	0.99120
1928.52121	0.98961
1926.46741	0.98866
1924.41361	0.98957
1922.35980	0.99150
1920.30600	0.99223
1918.25220	0.99094
1916.19839	0.98919
1914.14459	0.98840
1912.09079	0.98789
1910.03698	0.98768
1907.98318	0.98865
1905.92938	0.98980
1903.87557	0.98946
1901.82177	0.98808
1899.76797	0.98778
1897.71417	0.98895
1895.66036	0.99001
1893.60656	0.99010
1891.55276	0.99017
1889.49895	0.99065
1887.44515	0.99024
1885.39135	0.98915
1883.33754	0.98864
1881.28374	0.98874
1879.22994	0.98897
1877.17613	0.98913
1875.12233	0.98967
1873.06853	0.99067
1871.01472	0.99138
1868.96092	0.99127
1866.90712	0.99073
1864.85331	0.99041
1862.79951	0.98985
1860.74571	0.98918
1858.69190	0.98919
1856.63810	0.98976
1854.58430	0.99019
1852.53049	0.98993
1850.47669	0.98912
1848.42289	0.98885
1846.36908	0.98982
1844.31528	0.99104
1842.26148	0.99095
1840.20768	0.98995
1838.15387	0.98913
1836.10007	0.98908
1834.04627	0.98979
1831.99246	0.99069
1829.93866	0.99102
1827.88486	0.99041
1825.83105	0.98936
1823.77725	0.98890
1821.72345	0.98957
1819.66964	0.99049
1817.61584	0.99086
1815.56204	0.99072
1813.50823	0.99030
1811.45443	0.99002
1809.40063	0.99015
1807.34682	0.99033
1805.29302	0.99033
1803.23922	0.99049
1801.18541	0.99084
1799.13161	0.99072
1797.07781	0.99023
1795.02400	0.99003
1792.97020	0.99007
1790.91640	0.99004
1788.86260	0.99018
1786.80879	0.99055
1784.75499	0.99096
1782.70119	0.99097
1780.64738	0.99042
1778.59358	0.99002
1776.53978	0.99021
1774.48597	0.99052
1772.43217	0.99060
1770.37837	0.99065
1768.32456	0.99057
1766.27076	0.99034
1764.21696	0.99016
1762.16315	0.99024
1760.10935	0.99049
1758.05555	0.99059
1756.00174	0.99068
1753.94794	0.99088
1751.89414	0.99097
1749.84033	0.99087
1747.78653	0.99052
1745.73273	0.99000
1743.67892	0.98957
1741.62512	0.98927
1739.57132	0.98913
1737.51751	0.98883
1735.46371	0.98835
1733.40991	0.98841
1731.35611	0.98881
1729.30230	0.98857
1727.24850	0.98803
1725.19470	0.98780
1723.14089	0.98778
1721.08709	0.98765
1719.03329	0.98773
1716.97948	0.98882
1714.92568	0.98935
1712.87188	0.98820
1710.81807	0.98660
1708.76427	0.98544
1706.71047	0.98424
1704.65666	0.98259
1702.60286	0.98098
1700.54906	0.97832
1698.49525	0.97507
1696.44145	0.97253
1694.38765	0.96966
1692.33384	0.96703
1690.28004	0.96422
1688.22624	0.96155
1686.17243	0.95962
1684.11863	0.95650
1682.06483	0.95297
1680.01103	0.95073
1677.95722	0.94877
1675.90342	0.94636
1673.84962	0.94393
1671.79581	0.94209
1669.74201	0.93933
1667.68821	0.93616
1665.63440	0.93423
1663.58060	0.93211
1661.52680	0.92915
1659.47299	0.92684
1657.41919	0.92534
1655.36539	0.92381
1653.31158	0.92085
1651.25778	0.91842
1649.20398	0.91771
1647.15017	0.91595
1645.09637	0.91342
1643.04257	0.91197
1640.98876	0.91075
1638.93496	0.90933
1636.88116	0.90711
1634.82735	0.90408
1632.77355	0.90258
1630.71975	0.90210
1628.66594	0.90170
1626.61214	0.90146
1624.55834	0.90160
1622.50454	0.90234
1620.45073	0.90380
1618.39693	0.90536
1616.34313	0.90696
1614.28932	0.90910
1612.23552	0.91157
1610.18172	0.91443
1608.12791	0.91747
1606.07411	0.92016
1604.02031	0.92274
1601.96650	0.92537
1599.91270	0.92782
1597.85890	0.93008
1595.80509	0.93226
1593.75129	0.93448
1591.69749	0.93658
1589.64368	0.93823
1587.58988	0.93937
1585.53608	0.94037
1583.48227	0.94107
1581.42847	0.94116
1579.37467	0.94117
1577.32086	0.94155
1575.26706	0.94167
1573.21326	0.94119
1571.15945	0.94039
1569.10565	0.93893
1567.05185	0.93718
1564.99805	0.93560
1562.94424	0.93435
1560.89044	0.93315
1558.83664	0.93003
1556.78283	0.92677
1554.72903	0.92504
1552.67523	0.92342
1550.62142	0.92191
1548.56762	0.92049
1546.51382	0.91924
1544.46001	0.91777
1542.40621	0.91594
1540.35241	0.91384
1538.29860	0.91253
1536.24480	0.91263
1534.19100	0.91274
1532.13719	0.91236
1530.08339	0.91245
1528.02959	0.91288
1525.97578	0.91291
1523.92198	0.91272
1521.86818	0.91252
1519.81437	0.91201
1517.76057	0.91144
1515.70677	0.91117
1513.65297	0.91154
1511.59916	0.91271
1509.54536	0.91456
1507.49156	0.91695
1505.43775	0.91938
1503.38395	0.92118
1501.33015	0.92291
1499.27634	0.92521
1497.22254	0.92832
1495.16874	0.93127
1493.11493	0.93350
1491.06113	0.93581
1489.00733	0.93855
1486.95352	0.94082
1484.89972	0.94257
1482.84592	0.94416
1480.79211	0.94562
1478.73831	0.94670
1476.68451	0.94731
1474.63070	0.94747
1472.57690	0.94659
1470.52310	0.94495
1468.46929	0.94399
1466.41549	0.94353
1464.36169	0.94297
1462.30788	0.94249
1460.25408	0.94220
1458.20028	0.94140
1456.14648	0.93936
1454.09267	0.93784
1452.03887	0.93759
1449.98507	0.93788
1447.93126	0.93790
1445.87746	0.93777
1443.82366	0.93792
1441.76985	0.93826
1439.71605	0.93871
1437.66225	0.93906
1435.60844	0.93948
1433.55464	0.94041
1431.50084	0.94128
1429.44703	0.94155
1427.39323	0.94168
1425.33943	0.94215
1423.28562	0.94254
1421.23182	0.94237
1419.17802	0.94171
1417.12421	0.94094
1415.07041	0.94039
1413.01661	0.94000
1410.96280	0.93984
1408.90900	0.93982
1406.85520	0.93973
1404.80139	0.93969
1402.74759	0.93987
1400.69379	0.94019
1398.63999	0.94071
1396.58618	0.94130
1394.53238	0.94135
1392.47858	0.94104
1390.42477	0.94128
1388.37097	0.94224
1386.31717	0.94308
1384.26336	0.94349
1382.20956	0.94407
1380.15576	0.94493
1378.10195	0.94582
1376.04815	0.94665
1373.99435	0.94751
1371.94054	0.94793
1369.88674	0.94779
1367.83294	0.94779
1365.77913	0.94840
1363.72533	0.94935
1361.67153	0.95014
1359.61772	0.95080
1357.56392	0.95137
1355.51012	0.95173
1353.45631	0.95204
1351.40251	0.95214
1349.34871	0.95197
1347.29491	0.95186
1345.24110	0.95175
1343.18730	0.95162
1341.13350	0.95154
1339.07969	0.95142
1337.02589	0.95149
1334.97209	0.95183
1332.91828	0.95210
1330.86448	0.95212
1328.81068	0.95216
1326.75687	0.95244
1324.70307	0.95262
1322.64927	0.95244
1320.59546	0.95215
1318.54166	0.95184
1316.48786	0.95168
1314.43405	0.95187
1312.38025	0.95191
1310.32645	0.95176
1308.27264	0.95181
1306.21884	0.95192
1304.16504	0.95212
1302.11123	0.95271
1300.05743	0.95329
1298.00363	0.95342
1295.94982	0.95351
1293.89602	0.95361
1291.84222	0.95331
1289.78842	0.95273
1287.73461	0.95228
1285.68081	0.95230
1283.62701	0.95258
1281.57320	0.95258
1279.51940	0.95202
1277.46560	0.95133
1275.41179	0.95098
1273.35799	0.95085
1271.30419	0.95068
1269.25038	0.95048
1267.19658	0.95031
1265.14278	0.94999
1263.08897	0.94946
1261.03517	0.94901
1258.98137	0.94874
1256.92756	0.94830
1254.87376	0.94765
1252.81996	0.94705
1250.76615	0.94646
1248.71235	0.94592
1246.65855	0.94529
1244.60474	0.94433
1242.55094	0.94348
1240.49714	0.94299
1238.44334	0.94246
1236.38953	0.94187
1234.33573	0.94157
1232.28193	0.94153
1230.22812	0.94154
1228.17432	0.94170
1226.12052	0.94223
1224.06671	0.94304
1222.01291	0.94373
1219.95911	0.94413
1217.90530	0.94442
1215.85150	0.94482
1213.79770	0.94530
1211.74389	0.94540
1209.69009	0.94513
1207.63629	0.94513
1205.58248	0.94534
1203.52868	0.94518
1201.47488	0.94449
1199.42107	0.94387
1197.36727	0.94372
1195.31347	0.94359
1193.25966	0.94333
1191.20586	0.94310
1189.15206	0.94279
1187.09825	0.94234
1185.04445	0.94164
1182.99065	0.94053
1180.93685	0.93927
1178.88304	0.93831
1176.82924	0.93758
1174.77544	0.93673
1172.72163	0.93559
1170.66783	0.93429
1168.61403	0.93326
1166.56022	0.93273
1164.50642	0.93223
1162.45262	0.93156
1160.39881	0.93102
1158.34501	0.93057
1156.29121	0.93004
1154.23740	0.92963
1152.18360	0.92935
1150.12980	0.92912
1148.07599	0.92903
1146.02219	0.92884
1143.96839	0.92841
1141.91458	0.92812
1139.86078	0.92797
1137.80698	0.92770
1135.75317	0.92705
1133.69937	0.92634
1131.64557	0.92592
1129.59176	0.92539
1127.53796	0.92483
1125.48416	0.92434
1123.43036	0.92347
1121.37655	0.92253
1119.32275	0.92174
1117.26895	0.92090
1115.21514	0.92029
1113.16134	0.91954
1111.10754	0.91819
1109.05373	0.91673
1106.99993	0.91546
1104.94613	0.91437
1102.89232	0.91344
1100.83852	0.91280
1098.78472	0.91222
1096.73091	0.91137
1094.67711	0.91073
1092.62331	0.91043
1090.56950	0.91018
1088.51570	0.90979
1086.46190	0.90895
1084.40809	0.90811
1082.35429	0.90776
1080.30049	0.90778
1078.24668	0.90781
1076.19288	0.90755
1074.13908	0.90713
1072.08528	0.90688
1070.03147	0.90674
1067.97767	0.90647
1065.92387	0.90610
1063.87006	0.90565
1061.81626	0.90487
1059.76246	0.90378
1057.70865	0.90275
1055.65485	0.90185
1053.60105	0.90074
1051.54724	0.89950
1049.49344	0.89850
1047.43964	0.89749
1045.38583	0.89606
1043.33203	0.89433
1041.27823	0.89284
1039.22442	0.89187
1037.17062	0.89098
1035.11682	0.88983
1033.06301	0.88855
1031.00921	0.88731
1028.95541	0.88636
1026.90160	0.88585
1024.84780	0.88556
1022.79400	0.88521
1020.74019	0.88485
1018.68639	0.88464
1016.63259	0.88467
1014.57879	0.88491
1012.52498	0.88498
1010.47118	0.88476
1008.41738	0.88444
1006.36357	0.88426
1004.30977	0.88453
1002.25597	0.88544
1000.20216	0.88687
998.14836	0.88830
996.09456	0.88914
994.04075	0.88968
991.98695	0.89054
989.93315	0.89180
987.87934	0.89340
985.82554	0.89517
983.77174	0.89700
981.71793	0.89912
979.66413	0.90153
977.61033	0.90405
975.55652	0.90673
973.50272	0.90944
971.44892	0.91177
969.39511	0.91371
967.34131	0.91581
965.28751	0.91829
963.23371	0.92071
961.17990	0.92261
959.12610	0.92411
957.07230	0.92601
955.01849	0.92817
952.96469	0.92932
950.91089	0.92961
948.85708	0.93018
946.80328	0.93106
944.74948	0.93164
942.69567	0.93194
940.64187	0.93231
938.58807	0.93277
936.53426	0.93304
934.48046	0.93310
932.42666	0.93353
930.37285	0.93454
928.31905	0.93559
926.26525	0.93601
924.21144	0.93600
922.15764	0.93636
920.10384	0.93693
918.05003	0.93692
915.99623	0.93691
913.94243	0.93760
911.88862	0.93809
909.83482	0.93816
907.78102	0.93870
905.72722	0.93980
903.67341	0.94076
901.61961	0.94123
899.56581	0.94162
897.51200	0.94226
895.45820	0.94334
893.40440	0.94499
891.35059	0.94629
889.29679	0.94664
887.24299	0.94683
885.18918	0.94713
883.13538	0.94719
881.08158	0.94721
879.02777	0.94727
876.97397	0.94737
874.92017	0.94742
872.86636	0.94790
870.81256	0.94912
868.75876	0.94964
866.70495	0.94931
864.65115	0.94955
862.59735	0.94992
860.54354	0.94950
858.48974	0.94900
856.43594	0.94926
854.38213	0.94991
852.32833	0.95035
850.27453	0.95049
848.22073	0.95032
846.16692	0.94974
844.11312	0.94960
842.05932	0.95038
840.00551	0.95058
837.95171	0.94968
835.89791	0.94852
833.84410	0.94728
831.79030	0.94621
829.73650	0.94561
827.68269	0.94515
825.62889	0.94481
823.57509	0.94503
821.52128	0.94585
819.46748	0.94619
817.41368	0.94516
815.35987	0.94421
813.30607	0.94430
811.25227	0.94446
809.19846	0.94409
807.14466	0.94292
805.09086	0.94114
803.03705	0.93972
800.98325	0.93884
798.92945	0.93788
796.87565	0.93715
794.82184	0.93693
792.76804	0.93709
790.71424	0.93698
788.66043	0.93619
786.60663	0.93513
784.55283	0.93372
782.49902	0.93236
780.44522	0.93179
778.39142	0.93172
776.33761	0.93194
774.28381	0.93267
772.23001	0.93301
770.17620	0.93203
768.12240	0.93067
766.06860	0.92999
764.01479	0.92981
761.96099	0.92946
759.90719	0.92863
757.85338	0.92704
755.79958	0.92534
753.74578	0.92494
751.69197	0.92542
749.63817	0.92549
747.58437	0.92526
745.53056	0.92507
743.47676	0.92478
741.42296	0.92452
739.36916	0.92430
737.31535	0.92378
735.26155	0.92306
733.20775	0.92207
731.15394	0.92102
729.10014	0.92077
727.04634	0.92082
724.99253	0.92028
722.93873	0.91957
720.88493	0.91908
718.83112	0.91889
716.77732	0.91822
714.72352	0.91633
712.66971	0.91443
710.61591	0.91315
708.56211	0.91128
706.50830	0.90870
704.45450	0.90665
702.40070	0.90617
700.34689	0.90650
698.29309	0.90616
696.23929	0.90515
694.18548	0.90421
692.13168	0.90388
690.07788	0.90341
688.02408	0.90280
685.97027	0.90324
683.91647	0.90348
681.86267	0.90264
679.80886	0.90169
677.75506	0.90063
675.70126	0.89976
673.64745	0.89923
671.59365	0.89827
669.53985	0.89662
667.48604	0.89552
665.43224	0.89596
663.37844	0.89646
661.32463	0.89659
659.27083	0.89599
657.21703	0.89470
655.16322	0.89366
653.10942	0.89280
651.05562	0.89179
649.00181	0.89109
646.94801	0.89061
644.89421	0.88957
642.84040	0.88858
640.78660	0.88836
638.73280	0.88796
636.67899	0.88716
634.62519	0.88728
632.57139	0.88842
630.51759	0.88901
628.46378	0.88819
626.40998	0.88697
624.35618	0.88695
622.30237	0.88790
620.24857	0.88801
618.19477	0.88684
616.14096	0.88559
614.08716	0.88462
612.03336	0.88335
609.97955	0.88169
607.92575	0.87993
605.87195	0.87856
603.81814	0.87781
601.76434	0.87754
599.71054	0.87726
597.65673	0.87574
595.60293	0.87315
593.54913	0.87148
591.49532	0.87196
589.44152	0.87305
587.38772	0.87316
585.33391	0.87287
583.28011	0.87213
581.22631	0.87110
579.17250	0.87026
577.11870	0.86946
575.06490	0.86875
573.01110	0.86782
570.95729	0.86737
568.90349	0.86805
566.84969	0.86889
564.79588	0.86831
562.74208	0.86571
560.68828	0.86282
558.63447	0.86127
556.58067	0.86018
554.52687	0.85869
552.47306	0.85738
550.41926	0.85709
548.36546	0.85611
546.31165	0.85325
544.25785	0.85196
542.20405	0.85169
540.15024	0.84870
538.09644	0.84487
536.04264	0.84315
533.98883	0.84298
531.93503	0.84358
529.88123	0.84461
527.82742	0.84452
525.77362	0.84338
523.71982	0.84288
521.66602	0.84202
519.61221	0.83960
517.55841	0.83724
515.50461	0.83755
513.45080	0.84078
511.39700	0.84353
509.34320	0.84372
507.28939	0.84313
505.23559	0.84272
503.18179	0.84190
501.12798	0.83986
499.07418	0.83848
497.02038	0.83978
494.96657	0.84096
492.91277	0.83975
490.85897	0.83912
488.80516	0.83983
486.75136	0.83813
484.69756	0.83520
482.64375	0.83282
480.58995	0.82874
478.53615	0.82458
476.48234	0.82268
474.42854	0.82159
472.37474	0.81875
470.32093	0.81459
468.26713	0.81192
466.21333	0.81123
464.15953	0.81137
462.10572	0.81083
460.05192	0.80989
457.99812	0.81181
455.94431	0.81657
453.89051	0.81838
451.83671	0.81613
449.78290	0.81421
447.72910	0.81662
445.67530	0.82167
443.62149	0.82416
441.56769	0.82443
439.51389	0.82517
437.46008	0.82549
435.40628	0.82338
433.35248	0.81930
431.29867	0.81706
429.24487	0.81677
427.19107	0.81633
425.13726	0.81710
423.08346	0.81914
421.02966	0.82015
418.97585	0.82031
416.92205	0.82102
414.86825	0.81981
412.81445	0.81739
410.76064	0.81785
408.70684	0.81880
406.65304	0.81752
404.59923	0.81987
402.54543	0.82377
400.49163	0.81967
398.43782	0.81198
