3996.71440	0.97815
3994.66059	0.97817
3992.60678	0.97822
3990.55297	0.97801
3988.49916	0.97774
3986.44535	0.97759
3984.39154	0.97755
3982.33773	0.97776
3980.28391	0.97802
3978.23010	0.97806
3976.17629	0.97803
3974.12248	0.97815
3972.06867	0.97826
3970.01486	0.97826
3967.96105	0.97829
3965.90724	0.97818
3963.85343	0.97777
3961.79962	0.97738
3959.74581	0.97754
3957.69200	0.97798
3955.63819	0.97801
3953.58438	0.97774
3951.53057	0.97763
3949.47676	0.97777
3947.42295	0.97804
3945.36914	0.97825
3943.31533	0.97823
3941.26152	0.97807
3939.20771	0.97806
3937.15390	0.97814
3935.10009	0.97798
3933.04628	0.97777
3930.99247	0.97781
3928.93866	0.97781
3926.88485	0.97779
3924.83104	0.97801
3922.77723	0.97837
3920.72342	0.97861
3918.66961	0.97853
3916.61580	0.97814
3914.56199	0.97778
3912.50818	0.97765
3910.45437	0.97779
3908.40056	0.97786
3906.34675	0.97777
3904.29294	0.97764
3902.23913	0.97742
3900.18532	0.97734
3898.13151	0.97744
3896.07770	0.97739
3894.02389	0.97734
3891.97008	0.97755
3889.91627	0.97770
3887.86246	0.97762
3885.80865	0.97762
3883.75484	0.97795
3881.70103	0.97813
3879.64722	0.97785
3877.59341	0.97767
3875.53960	0.97777
3873.48579	0.97796
3871.43198	0.97812
3869.37817	0.97814
3867.32436	0.97805
3865.27055	0.97769
3863.21674	0.97743
3861.16293	0.97772
3859.10912	0.97805
3857.05531	0.97823
3855.00150	0.97812
3852.94769	0.97759
3850.89388	0.97736
3848.84007	0.97766
3846.78626	0.97826
3844.73245	0.97858
3842.67864	0.97834
3840.62483	0.97800
3838.57102	0.97796
3836.51721	0.97802
3834.46340	0.97765
3832.40959	0.97723
3830.35578	0.97763
3828.30197	0.97823
3826.24816	0.97821
3824.19435	0.97828
3822.14054	0.97846
3820.08673	0.97808
3818.03292	0.97779
3815.97911	0.97775
3813.92530	0.97773
3811.87149	0.97782
3809.81768	0.97784
3807.76387	0.97771
3805.71006	0.97763
3803.65625	0.97770
3801.60244	0.97799
3799.54863	0.97842
3797.49482	0.97864
3795.44101	0.97859
3793.38720	0.97848
3791.33339	0.97839
3789.27958	0.97845
3787.22577	0.97861
3785.17196	0.97872
3783.11815	0.97887
3781.06434	0.97882
3779.01053	0.97843
3776.95672	0.97824
3774.90291	0.97843
3772.84910	0.97843
3770.79529	0.97812
3768.74148	0.97808
3766.68767	0.97849
3764.63386	0.97892
3762.58005	0.97904
3760.52624	0.97880
3758.47243	0.97848
3756.41862	0.97854
3754.36481	0.97892
3752.31100	0.97899
3750.25719	0.97864
3748.20338	0.97883
3746.14957	0.97937
3744.09576	0.97948
3742.04195	0.97919
3739.98814	0.97932
3737.93433	0.97980
3735.88052	0.97990
3733.82671	0.97960
3731.77290	0.97934
3729.71909	0.97902
3727.66528	0.97876
3725.61147	0.97861
3723.55766	0.97843
3721.50385	0.97841
3719.45004	0.97852
3717.39623	0.97857
3715.34242	0.97841
3713.28861	0.97763
3711.23480	0.97660
3709.18099	0.97640
3707.12718	0.97658
3705.07337	0.97654
3703.01956	0.97636
3700.96575	0.97612
3698.91194	0.97599
3696.85813	0.97578
3694.80432	0.97546
3692.75051	0.97535
3690.69670	0.97555
3688.64289	0.97604
3686.58907	0.97637
3684.53526	0.97631
3682.48145	0.97609
3680.42764	0.97583
3678.37383	0.97584
3676.32002	0.97605
3674.26621	0.97618
3672.21240	0.97615
3670.15859	0.97538
3668.10478	0.97447
3666.05097	0.97445
3663.99716	0.97473
3661.94335	0.97487
3659.88954	0.97515
3657.83573	0.97540
3655.78192	0.97495
3653.72811	0.97436
3651.67430	0.97420
3649.62049	0.97397
3647.56668	0.97371
3645.51287	0.97377
3643.45906	0.97374
3641.40525	0.97346
3639.35144	0.97315
3637.29763	0.97288
3635.24382	0.97251
3633.19001	0.97250
3631.13620	0.97274
3629.08239	0.97205
3627.02858	0.97130
3624.97477	0.97146
3622.92096	0.97150
3620.86715	0.97111
3618.81334	0.97038
3616.75953	0.96997
3614.70572	0.97033
3612.65191	0.97058
3610.59810	0.97019
3608.54429	0.96982
3606.49048	0.96994
3604.43667	0.97019
3602.38286	0.97005
3600.32905	0.96977
3598.27524	0.96985
3596.22143	0.96995
3594.16762	0.96963
3592.11381	0.96939
3590.06000	0.96952
3588.00619	0.96975
3585.95238	0.96986
3583.89857	0.96985
3581.84476	0.96966
3579.79095	0.96935
3577.73714	0.96906
3575.68333	0.96881
3573.62952	0.96847
3571.57571	0.96797
3569.52190	0.96723
3567.46809	0.96643
3565.41428	0.96624
3563.36047	0.96655
3561.30666	0.96656
3559.25285	0.96597
3557.19904	0.96525
3555.14523	0.96502
3553.09142	0.96514
3551.03761	0.96517
3548.98380	0.96508
3546.92999	0.96477
3544.87618	0.96447
3542.82237	0.96450
3540.76856	0.96446
3538.71475	0.96413
3536.66094	0.96370
3534.60713	0.96324
3532.55332	0.96285
3530.49951	0.96273
3528.44570	0.96282
3526.39189	0.96255
3524.33808	0.96185
3522.28427	0.96136
3520.23046	0.96139
3518.17665	0.96155
3516.12284	0.96170
3514.06903	0.96189
3512.01522	0.96181
3509.96141	0.96140
3507.90760	0.96095
3505.85379	0.96045
3503.79998	0.95996
3501.74617	0.95973
3499.69236	0.95976
3497.63855	0.95998
3495.58474	0.96007
3493.53093	0.95979
3491.47712	0.95939
3489.42331	0.95908
3487.36950	0.95889
3485.31569	0.95876
3483.26188	0.95830
3481.20807	0.95753
3479.15426	0.95704
3477.10045	0.95680
3475.04664	0.95653
3472.99283	0.95634
3470.93902	0.95612
3468.88521	0.95582
3466.83140	0.95546
3464.77759	0.95503
3462.72378	0.95490
3460.66997	0.95518
3458.61616	0.95548
3456.56235	0.95545
3454.50854	0.95500
3452.45473	0.95449
3450.40092	0.95431
3448.34711	0.95419
3446.29330	0.95394
3444.23949	0.95382
3442.18568	0.95361
3440.13187	0.95323
3438.07806	0.95311
3436.02425	0.95316
3433.97044	0.95329
3431.91663	0.95351
3429.86282	0.95347
3427.80901	0.95327
3425.75520	0.95292
3423.70139	0.95244
3421.64758	0.95211
3419.59377	0.95192
3417.53996	0.95181
3415.48615	0.95177
3413.43234	0.95157
3411.37853	0.95126
3409.32472	0.95108
3407.27091	0.95088
3405.21710	0.95067
3403.16329	0.95053
3401.10948	0.95041
3399.05567	0.95055
3397.00186	0.95088
3394.94805	0.95094
3392.89424	0.95076
3390.84042	0.95059
3388.78661	0.95045
3386.73280	0.95023
3384.67899	0.95005
3382.62518	0.95011
3380.57137	0.95034
3378.51756	0.95044
3376.46375	0.95029
3374.40994	0.95007
3372.35613	0.94995
3370.30232	0.94996
3368.24851	0.94987
3366.19470	0.94955
3364.14089	0.94930
3362.08708	0.94926
3360.03327	0.94925
3357.97946	0.94929
3355.92565	0.94939
3353.87184	0.94948
3351.81803	0.94936
3349.76422	0.94905
3347.71041	0.94898
3345.65660	0.94934
3343.60279	0.94963
3341.54898	0.94954
3339.49517	0.94935
3337.44136	0.94925
3335.38755	0.94927
3333.33374	0.94960
3331.27993	0.95008
3329.22612	0.95019
3327.17231	0.95000
3325.11850	0.94989
3323.06469	0.94979
3321.01088	0.94962
3318.95707	0.94946
3316.90326	0.94949
3314.84945	0.94968
3312.79564	0.94993
3310.74183	0.95016
3308.68802	0.95002
3306.63421	0.94964
3304.58040	0.94964
3302.52659	0.95004
3300.47278	0.95030
3298.41897	0.95008
3296.36516	0.94978
3294.31135	0.94988
3292.25754	0.95021
3290.20373	0.95034
3288.14992	0.95026
3286.09611	0.95022
3284.04230	0.95032
3281.98849	0.95049
3279.93468	0.95056
3277.88087	0.95056
3275.82706	0.95065
3273.77325	0.95074
3271.71944	0.95067
3269.66563	0.95056
3267.61182	0.95058
3265.55801	0.95074
3263.50420	0.95101
3261.45039	0.95133
3259.39658	0.95168
3257.34277	0.95194
3255.28896	0.95191
3253.23515	0.95183
3251.18134	0.95203
3249.12753	0.95232
3247.07372	0.95246
3245.01991	0.95239
3242.96610	0.95229
3240.91229	0.95243
3238.85848	0.95277
3236.80467	0.95292
3234.75086	0.95288
3232.69705	0.95306
3230.64324	0.95332
3228.58943	0.95330
3226.53562	0.95322
3224.48181	0.95330
3222.42800	0.95343
3220.37419	0.95360
3218.32038	0.95358
3216.26657	0.95340
3214.21276	0.95363
3212.15895	0.95406
3210.10514	0.95424
3208.05133	0.95424
3205.99752	0.95416
3203.94371	0.95415
3201.88990	0.95422
3199.83609	0.95440
3197.78228	0.95475
3195.72847	0.95512
3193.67466	0.95532
3191.62085	0.95535
3189.56704	0.95546
3187.51323	0.95571
3185.45942	0.95585
3183.40561	0.95599
3181.35180	0.95627
3179.29799	0.95659
3177.24418	0.95696
3175.19037	0.95736
3173.13656	0.95771
3171.08275	0.95777
3169.02894	0.95760
3166.97513	0.95767
3164.92132	0.95801
3162.86751	0.95827
3160.81370	0.95842
3158.75989	0.95848
3156.70608	0.95853
3154.65227	0.95865
3152.59846	0.95881
3150.54465	0.95904
3148.49084	0.95931
3146.43703	0.95938
3144.38322	0.95925
3142.32941	0.95931
3140.27560	0.95963
3138.22179	0.95990
3136.16798	0.96010
3134.11417	0.96031
3132.06036	0.96042
3130.00655	0.96049
3127.95274	0.96060
3125.89893	0.96071
3123.84512	0.96094
3121.79131	0.96125
3119.73750	0.96127
3117.68369	0.96107
3115.62988	0.96097
3113.57607	0.96093
3111.52226	0.96085
3109.46845	0.96086
3107.41464	0.96107
3105.36083	0.96125
3103.30702	0.96115
3101.25321	0.96087
3099.19940	0.96069
3097.14559	0.96070
3095.09177	0.96068
3093.03796	0.96060
3090.98415	0.96059
3088.93034	0.96056
3086.87653	0.96038
3084.82272	0.96017
3082.76891	0.96008
3080.71510	0.96023
3078.66129	0.96044
3076.60748	0.96041
3074.55367	0.96030
3072.49986	0.96037
3070.44605	0.96053
3068.39224	0.96070
3066.33843	0.96085
3064.28462	0.96094
3062.23081	0.96093
3060.17700	0.96090
3058.12319	0.96083
3056.06938	0.96067
3054.01557	0.96046
3051.96176	0.96031
3049.90795	0.96012
3047.85414	0.95983
3045.80033	0.95970
3043.74652	0.95986
3041.69271	0.96015
3039.63890	0.96020
3037.58509	0.96006
3035.53128	0.95996
3033.47747	0.95983
3031.42366	0.95968
3029.36985	0.95963
3027.31604	0.95959
3025.26223	0.95947
3023.20842	0.95946
3021.15461	0.95952
3019.10080	0.95910
3017.04699	0.95823
3014.99318	0.95756
3012.93937	0.95723
3010.88556	0.95700
3008.83175	0.95673
3006.77794	0.95638
3004.72413	0.95614
3002.67032	0.95609
3000.61651	0.95601
2998.56270	0.95586
2996.50889	0.95558
2994.45508	0.95512
2992.40127	0.95453
2990.34746	0.95387
2988.29365	0.95326
2986.23984	0.95254
2984.18603	0.95147
2982.13222	0.94999
2980.07841	0.94822
2978.02460	0.94652
2975.97079	0.94480
2973.91698	0.94262
2971.86317	0.93991
2969.80936	0.93664
2967.75555	0.93299
2965.70174	0.92935
2963.64793	0.92562
2961.59412	0.92162
2959.54031	0.91783
2957.48650	0.91458
2955.43269	0.91160
2953.37888	0.90884
2951.32507	0.90639
2949.27126	0.90317
2947.21745	0.89788
2945.16364	0.89028
2943.10983	0.88017
2941.05602	0.86710
2939.00221	0.85115
2936.94840	0.83241
2934.89459	0.81073
2932.84078	0.78615
2930.78697	0.75869
2928.73316	0.72794
2926.67935	0.69314
2924.62554	0.65386
2922.57173	0.61031
2920.51792	0.56369
2918.46411	0.51801
2916.41030	0.48231
2914.35649	0.46861
2912.30268	0.48212
2910.24887	0.51480
2908.19506	0.55288
2906.14125	0.58740
2904.08744	0.61572
2902.03363	0.63830
2899.97982	0.65655
2897.92601	0.67204
2895.87220	0.68619
2893.81839	0.70020
2891.76458	0.71480
2889.71077	0.73025
2887.65696	0.74652
2885.60315	0.76318
2883.54934	0.77977
2881.49553	0.79620
2879.44172	0.81246
2877.38791	0.82778
2875.33410	0.84066
2873.28029	0.85015
2871.22648	0.85631
2869.17267	0.85918
2867.11886	0.85821
2865.06505	0.85231
2863.01124	0.84017
2860.95743	0.82051
2858.90362	0.79164
2856.84981	0.75105
2854.79600	0.69683
2852.74219	0.63132
2850.68838	0.56546
2848.63457	0.51940
2846.58076	0.51126
2844.52695	0.54165
2842.47314	0.59506
2840.41933	0.65418
2838.36552	0.70820
2836.31171	0.75280
2834.25790	0.78765
2832.20409	0.81446
2830.15028	0.83535
2828.09647	0.85198
2826.04266	0.86547
2823.98885	0.87661
2821.93504	0.88584
2819.88123	0.89340
2817.82742	0.89969
2815.77361	0.90515
2813.71980	0.90989
2811.66599	0.91400
2809.61218	0.91782
2807.55837	0.92145
2805.50456	0.92474
2803.45075	0.92758
2801.39693	0.92990
2799.34312	0.93181
2797.28931	0.93370
2795.23550	0.93575
2793.18169	0.93775
2791.12788	0.93954
2789.07407	0.94121
2787.02026	0.94283
2784.96645	0.94432
2782.91264	0.94551
2780.85883	0.94664
2778.80502	0.94798
2776.75121	0.94916
2774.69740	0.94999
2772.64359	0.95073
2770.58978	0.95152
2768.53597	0.95236
2766.48216	0.95296
2764.42835	0.95334
2762.37454	0.95382
2760.32073	0.95433
2758.26692	0.95484
2756.21311	0.95548
2754.15930	0.95609
2752.10549	0.95641
2750.05168	0.95645
2747.99787	0.95644
2745.94406	0.95650
2743.89025	0.95653
2741.83644	0.95653
2739.78263	0.95662
2737.72882	0.95688
2735.67501	0.95734
2733.62120	0.95776
2731.56739	0.95800
2729.51358	0.95816
2727.45977	0.95827
2725.40596	0.95834
2723.35215	0.95848
2721.29834	0.95888
2719.24453	0.95941
2717.19072	0.95982
2715.13691	0.96007
2713.08310	0.96017
2711.02929	0.96006
2708.97548	0.95994
2706.92167	0.96011
2704.86786	0.96064
2702.81405	0.96124
2700.76024	0.96151
2698.70643	0.96139
2696.65262	0.96120
2694.59881	0.96119
2692.54500	0.96142
2690.49119	0.96176
2688.43738	0.96198
2686.38357	0.96197
2684.32976	0.96188
2682.27595	0.96180
2680.22214	0.96178
2678.16833	0.96177
2676.11452	0.96166
2674.06071	0.96135
2672.00690	0.96085
2669.95309	0.96047
2667.89928	0.96029
2665.84547	0.96014
2663.79166	0.96006
2661.73785	0.96009
2659.68404	0.96015
2657.63023	0.96020
2655.57642	0.96020
2653.52261	0.96033
2651.46880	0.96060
2649.41499	0.96089
2647.36118	0.96110
2645.30737	0.96113
2643.25356	0.96093
2641.19975	0.96059
2639.14594	0.96048
2637.09213	0.96075
2635.03832	0.96103
2632.98451	0.96115
2630.93070	0.96131
2628.87689	0.96160
2626.82308	0.96192
2624.76927	0.96226
2622.71546	0.96267
2620.66165	0.96317
2618.60784	0.96359
2616.55403	0.96384
2614.50022	0.96420
2612.44641	0.96480
2610.39260	0.96522
2608.33879	0.96539
2606.28498	0.96567
2604.23117	0.96610
2602.17736	0.96647
2600.12355	0.96672
2598.06974	0.96703
2596.01593	0.96726
2593.96212	0.96727
2591.90831	0.96724
2589.85450	0.96739
2587.80069	0.96779
2585.74688	0.96834
2583.69307	0.96872
2581.63926	0.96845
2579.58545	0.96787
2577.53164	0.96788
2575.47783	0.96847
2573.42402	0.96878
2571.37021	0.96858
2569.31640	0.96848
2567.26259	0.96894
2565.20878	0.96976
2563.15497	0.97028
2561.10116	0.97034
2559.04735	0.97025
2556.99354	0.97005
2554.93973	0.97002
2552.88592	0.97046
2550.83211	0.97083
2548.77830	0.97060
2546.72449	0.97032
2544.67068	0.97046
2542.61687	0.97075
2540.56306	0.97108
2538.50925	0.97162
2536.45544	0.97190
2534.40163	0.97158
2532.34782	0.97121
2530.29401	0.97113
2528.24020	0.97115
2526.18639	0.97123
2524.13258	0.97156
2522.07877	0.97184
2520.02496	0.97153
2517.97115	0.97103
2515.91734	0.97106
2513.86353	0.97141
2511.80972	0.97165
2509.75591	0.97183
2507.70210	0.97204
2505.64828	0.97231
2503.59447	0.97240
2501.54066	0.97218
2499.48685	0.97208
2497.43304	0.97231
2495.37923	0.97261
2493.32542	0.97291
2491.27161	0.97298
2489.21780	0.97265
2487.16399	0.97256
2485.11018	0.97303
2483.05637	0.97340
2481.00256	0.97329
2478.94875	0.97299
2476.89494	0.97277
2474.84113	0.97270
2472.78732	0.97286
2470.73351	0.97326
2468.67970	0.97371
2466.62589	0.97394
2464.57208	0.97393
2462.51827	0.97373
2460.46446	0.97350
2458.41065	0.97352
2456.35684	0.97366
2454.30303	0.97352
2452.24922	0.97326
2450.19541	0.97350
2448.14160	0.97389
2446.08779	0.97377
2444.03398	0.97346
2441.98017	0.97324
2439.92636	0.97307
2437.87255	0.97345
2435.81874	0.97427
2433.76493	0.97456
2431.71112	0.97433
2429.65731	0.97421
2427.60350	0.97408
2425.54969	0.97392
2423.49588	0.97405
2421.44207	0.97424
2419.38826	0.97412
2417.33445	0.97380
2415.28064	0.97360
2413.22683	0.97356
2411.17302	0.97352
2409.11921	0.97361
2407.06540	0.97382
2405.01159	0.97391
2402.95778	0.97387
2400.90397	0.97376
2398.85016	0.97378
2396.79635	0.97385
2394.74254	0.97370
2392.68873	0.97367
2390.63492	0.97397
2388.58111	0.97415
2386.52730	0.97392
2384.47349	0.97359
2382.41968	0.97332
2380.36587	0.97308
2378.31206	0.97319
2376.25825	0.97361
2374.20444	0.97403
2372.15063	0.97450
2370.09682	0.97459
2368.04301	0.97410
2365.98920	0.97395
2363.93539	0.97458
2361.88158	0.97501
2359.82777	0.97396
2357.77396	0.97197
2355.72015	0.97101
2353.66634	0.97137
2351.61253	0.97193
2349.55872	0.97209
2347.50491	0.97194
2345.45110	0.97210
2343.39729	0.97260
2341.34348	0.97206
2339.28967	0.97108
2337.23586	0.97098
2335.18205	0.97107
2333.12824	0.97075
2331.07443	0.97038
2329.02062	0.97017
2326.96681	0.96964
2324.91300	0.96893
2322.85919	0.96917
2320.80538	0.97043
2318.75157	0.97149
2316.69776	0.97154
2314.64395	0.97109
2312.59014	0.97125
2310.53633	0.97212
2308.48252	0.97292
2306.42871	0.97341
2304.37490	0.97343
2302.32109	0.97300
2300.26728	0.97275
2298.21347	0.97292
2296.15966	0.97308
2294.10585	0.97299
2292.05204	0.97294
2289.99823	0.97290
2287.94442	0.97260
2285.89061	0.97253
2283.83680	0.97296
2281.78299	0.97336
2279.72918	0.97350
2277.67537	0.97343
2275.62156	0.97347
2273.56775	0.97349
2271.51394	0.97325
2269.46013	0.97342
2267.40632	0.97399
2265.35251	0.97458
2263.29870	0.97499
2261.24489	0.97490
2259.19108	0.97440
2257.13727	0.97405
2255.08346	0.97413
2253.02965	0.97423
2250.97584	0.97437
2248.92203	0.97479
2246.86822	0.97530
2244.81441	0.97554
2242.76060	0.97569
2240.70679	0.97598
2238.65298	0.97639
2236.59917	0.97682
2234.54536	0.97650
2232.49155	0.97560
2230.43774	0.97575
2228.38393	0.97692
2226.33012	0.97743
2224.27631	0.97710
2222.22250	0.97649
2220.16869	0.97560
2218.11488	0.97491
2216.06107	0.97493
2214.00726	0.97529
2211.95344	0.97552
2209.89963	0.97597
2207.84582	0.97656
2205.79201	0.97606
2203.73820	0.97526
2201.68439	0.97612
2199.63058	0.97736
2197.57677	0.97761
2195.52296	0.97767
2193.46915	0.97763
2191.41534	0.97737
2189.36153	0.97663
2187.30772	0.97477
2185.25391	0.97388
2183.20010	0.97607
2181.14629	0.97929
2179.09248	0.98043
2177.03867	0.97863
2174.98486	0.97572
2172.93105	0.97434
2170.87724	0.97459
2168.82343	0.97483
2166.76962	0.97496
2164.71581	0.97596
2162.66200	0.97714
2160.60819	0.97830
2158.55438	0.98136
2156.50057	0.98405
2154.44676	0.98292
2152.39295	0.98060
2150.33914	0.97978
2148.28533	0.97951
2146.23152	0.97934
2144.17771	0.97987
2142.12390	0.98012
2140.07009	0.97992
2138.01628	0.98006
2135.96247	0.97998
2133.90866	0.98038
2131.85485	0.98146
2129.80104	0.98108
2127.74723	0.97951
2125.69342	0.97856
2123.63961	0.97803
2121.58580	0.97710
2119.53199	0.97579
2117.47818	0.97520
2115.42437	0.97547
2113.37056	0.97548
2111.31675	0.97577
2109.26294	0.97678
2107.20913	0.97770
2105.15532	0.97785
2103.10151	0.97718
2101.04770	0.97647
2098.99389	0.97611
2096.94008	0.97599
2094.88627	0.97647
2092.83246	0.97742
2090.77865	0.97768
2088.72484	0.97715
2086.67103	0.97672
2084.61722	0.97659
2082.56341	0.97681
2080.50960	0.97708
2078.45579	0.97701
2076.40198	0.97698
2074.34817	0.97671
2072.29436	0.97564
2070.24055	0.97479
2068.18674	0.97532
2066.13293	0.97657
2064.07912	0.97716
2062.02531	0.97700
2059.97150	0.97656
2057.91769	0.97569
2055.86388	0.97476
2053.81007	0.97453
2051.75626	0.97469
2049.70245	0.97511
2047.64864	0.97627
2045.59483	0.97731
2043.54102	0.97666
2041.48721	0.97486
2039.43340	0.97462
2037.37959	0.97579
2035.32578	0.97574
2033.27197	0.97506
2031.21816	0.97543
2029.16435	0.97611
2027.11054	0.97652
2025.05673	0.97719
2023.00292	0.97863
2020.94911	0.97958
2018.89530	0.97810
2016.84149	0.97596
2014.78768	0.97605
2012.73387	0.97799
2010.68006	0.97916
2008.62625	0.97861
2006.57244	0.97798
2004.51863	0.97734
2002.46482	0.97652
2000.41101	0.97631
1998.35720	0.97630
1996.30339	0.97673
1994.24958	0.97814
1992.19577	0.97923
1990.14196	0.97886
1988.08815	0.97763
1986.03434	0.97653
1983.98053	0.97557
1981.92672	0.97497
1979.87291	0.97553
1977.81910	0.97691
1975.76529	0.97803
1973.71148	0.97849
1971.65767	0.97862
1969.60386	0.97855
1967.55005	0.97774
1965.49624	0.97667
1963.44243	0.97677
1961.38862	0.97808
1959.33481	0.97925
1957.28100	0.97946
1955.22719	0.97897
1953.17338	0.97821
1951.11957	0.97755
1949.06576	0.97694
1947.01195	0.97657
1944.95814	0.97700
1942.90433	0.97755
1940.85052	0.97705
1938.79671	0.97583
1936.74290	0.97537
1934.68909	0.97607
1932.63528	0.97667
1930.58147	0.97646
1928.52766	0.97622
1926.47385	0.97639
1924.42004	0.97628
1922.36623	0.97590
1920.31242	0.97593
1918.25861	0.97597
1916.20479	0.97570
1914.15098	0.97577
1912.09717	0.97615
1910.04336	0.97626
1907.98955	0.97615
1905.93574	0.97635
1903.88193	0.97660
1901.82812	0.97627
1899.77431	0.97589
1897.72050	0.97577
1895.66669	0.97538
1893.61288	0.97509
1891.55907	0.97530
1889.50526	0.97582
1887.45145	0.97649
1885.39764	0.97657
1883.34383	0.97592
1881.29002	0.97556
1879.23621	0.97584
1877.18240	0.97615
1875.12859	0.97622
1873.07478	0.97603
1871.02097	0.97576
1868.96716	0.97562
1866.91335	0.97552
1864.85954	0.97552
1862.80573	0.97577
1860.75192	0.97612
1858.69811	0.97640
1856.64430	0.97640
1854.59049	0.97605
1852.53668	0.97596
1850.48287	0.97612
1848.42906	0.97612
1846.37525	0.97613
1844.32144	0.97604
1842.26763	0.97567
1840.21382	0.97540
1838.16001	0.97539
1836.10620	0.97552
1834.05239	0.97553
1831.99858	0.97562
1829.94477	0.97604
1827.89096	0.97622
1825.83715	0.97594
1823.78334	0.97558
1821.72953	0.97519
1819.67572	0.97502
1817.62191	0.97529
1815.56810	0.97550
1813.51429	0.97531
1811.46048	0.97498
1809.40667	0.97476
1807.35286	0.97456
1805.29905	0.97439
1803.24524	0.97433
1801.19143	0.97428
1799.13762	0.97407
1797.08381	0.97374
1795.03000	0.97370
1792.97619	0.97379
1790.92238	0.97353
1788.86857	0.97326
1786.81476	0.97296
1784.76095	0.97249
1782.70714	0.97214
1780.65333	0.97195
1778.59952	0.97189
1776.54571	0.97200
1774.49190	0.97192
1772.43809	0.97127
1770.38428	0.97022
1768.33047	0.96924
1766.27666	0.96850
1764.22285	0.96790
1762.16904	0.96685
1760.11523	0.96483
1758.06142	0.96189
1756.00761	0.95818
1753.95380	0.95437
1751.89999	0.95035
1749.84618	0.94599
1747.79237	0.94231
1745.73856	0.93972
1743.68475	0.93812
1741.63094	0.93753
1739.57713	0.93785
1737.52332	0.93897
1735.46951	0.94084
1733.41570	0.94340
1731.36189	0.94556
1729.30808	0.94683
1727.25427	0.94747
1725.20046	0.94765
1723.14665	0.94749
1721.09284	0.94701
1719.03903	0.94608
1716.98522	0.94481
1714.93141	0.94405
1712.87760	0.94401
1710.82379	0.94455
1708.76998	0.94539
1706.71617	0.94626
1704.66236	0.94712
1702.60855	0.94767
1700.55474	0.94771
1698.50093	0.94772
1696.44712	0.94758
1694.39331	0.94706
1692.33950	0.94661
1690.28569	0.94584
1688.23188	0.94470
1686.17807	0.94345
1684.12426	0.94150
1682.07045	0.93975
1680.01664	0.93875
1677.96283	0.93768
1675.90902	0.93609
1673.85521	0.93450
1671.80140	0.93355
1669.74759	0.93238
1667.69378	0.93109
1665.63997	0.93035
1663.58616	0.92949
1661.53235	0.92830
1659.47854	0.92737
1657.42473	0.92688
1655.37092	0.92668
1653.31711	0.92599
1651.26330	0.92532
1649.20949	0.92554
1647.15568	0.92559
1645.10187	0.92538
1643.04806	0.92541
1640.99425	0.92543
1638.94044	0.92518
1636.88663	0.92440
1634.83282	0.92361
1632.77901	0.92363
1630.72520	0.92375
1628.67139	0.92367
1626.61758	0.92345
1624.56377	0.92303
1622.50996	0.92266
1620.45614	0.92271
1618.40233	0.92290
1616.34852	0.92285
1614.29471	0.92292
1612.24090	0.92318
1610.18709	0.92332
1608.13328	0.92320
1606.07947	0.92292
1604.02566	0.92272
1601.97185	0.92270
1599.91804	0.92278
1597.86423	0.92288
1595.81042	0.92306
1593.75661	0.92353
1591.70280	0.92425
1589.64899	0.92506
1587.59518	0.92592
1585.54137	0.92671
1583.48756	0.92754
1581.43375	0.92861
1579.37994	0.92985
1577.32613	0.93102
1575.27232	0.93229
1573.21851	0.93384
1571.16470	0.93525
1569.11089	0.93643
1567.05708	0.93755
1565.00327	0.93849
1562.94946	0.93917
1560.89565	0.93975
1558.84184	0.94038
1556.78803	0.94101
1554.73422	0.94158
1552.68041	0.94203
1550.62660	0.94236
1548.57279	0.94274
1546.51898	0.94312
1544.46517	0.94335
1542.41136	0.94359
1540.35755	0.94397
1538.30374	0.94489
1536.24993	0.94595
1534.19612	0.94683
1532.14231	0.94757
1530.08850	0.94819
1528.03469	0.94861
1525.98088	0.94879
1523.92707	0.94904
1521.87326	0.94940
1519.81945	0.94986
1517.76564	0.95039
1515.71183	0.95083
1513.65802	0.95113
1511.60421	0.95135
1509.55040	0.95139
1507.49659	0.95122
1505.44278	0.95151
1503.38897	0.95190
1501.33516	0.95186
1499.28135	0.95133
1497.22754	0.95058
1495.17373	0.95004
1493.11992	0.94963
1491.06611	0.94869
1489.01230	0.94690
1486.95849	0.94478
1484.90468	0.94241
1482.85087	0.93888
1480.79706	0.93228
1478.74325	0.91766
1476.68944	0.88155
1474.63563	0.81729
1472.58182	0.76182
1470.52801	0.75995
1468.47420	0.77950
1466.42039	0.78486
1464.36658	0.76825
1462.31277	0.75887
1460.25896	0.78107
1458.20515	0.82461
1456.15134	0.86249
1454.09753	0.87995
1452.04372	0.89013
1449.98991	0.89811
1447.93610	0.90394
1445.88229	0.90778
1443.82848	0.91033
1441.77467	0.91251
1439.72086	0.91445
1437.66705	0.91621
1435.61324	0.91814
1433.55943	0.92023
1431.50562	0.92251
1429.45181	0.92499
1427.39800	0.92717
1425.34419	0.92872
1423.29038	0.92974
1421.23657	0.93025
1419.18276	0.93047
1417.12895	0.93083
1415.07514	0.93150
1413.02133	0.93229
1410.96752	0.93318
1408.91371	0.93415
1406.85990	0.93486
1404.80609	0.93541
1402.75228	0.93620
1400.69847	0.93695
1398.64466	0.93729
1396.59085	0.93743
1394.53704	0.93757
1392.48323	0.93767
1390.42942	0.93749
1388.37561	0.93680
1386.32180	0.93570
1384.26799	0.93438
1382.21418	0.93271
1380.16037	0.93066
1378.10656	0.92886
1376.05275	0.92834
1373.99894	0.92900
1371.94513	0.92937
1369.89132	0.92917
1367.83751	0.92929
1365.78370	0.93006
1363.72989	0.93120
1361.67608	0.93254
1359.62227	0.93386
1357.56846	0.93494
1355.51465	0.93565
1353.46084	0.93597
1351.40703	0.93631
1349.35322	0.93717
1347.29941	0.93839
1345.24560	0.93935
1343.19179	0.94007
1341.13798	0.94077
1339.08417	0.94158
1337.03036	0.94266
1334.97655	0.94374
1332.92274	0.94433
1330.86893	0.94446
1328.81512	0.94435
1326.76130	0.94394
1324.70749	0.94328
1322.65368	0.94254
1320.59987	0.94166
1318.54606	0.94068
1316.49225	0.93989
1314.43844	0.93936
1312.38463	0.93896
1310.33082	0.93872
1308.27701	0.93870
1306.22320	0.93880
1304.16939	0.93896
1302.11558	0.93913
1300.06177	0.93926
1298.00796	0.93944
1295.95415	0.93960
1293.90034	0.93962
1291.84653	0.93954
1289.79272	0.93937
1287.73891	0.93898
1285.68510	0.93839
1283.63129	0.93784
1281.57748	0.93748
1279.52367	0.93714
1277.46986	0.93657
1275.41605	0.93578
1273.36224	0.93489
1271.30843	0.93376
1269.25462	0.93238
1267.20081	0.93107
1265.14700	0.93001
1263.09319	0.92928
1261.03938	0.92906
1258.98557	0.92937
1256.93176	0.93002
1254.87795	0.93060
1252.82414	0.93086
1250.77033	0.93092
1248.71652	0.93091
1246.66271	0.93096
1244.60890	0.93117
1242.55509	0.93133
1240.50128	0.93136
1238.44747	0.93136
1236.39366	0.93134
1234.33985	0.93139
1232.28604	0.93140
1230.23223	0.93133
1228.17842	0.93139
1226.12461	0.93140
1224.07080	0.93113
1222.01699	0.93061
1219.96318	0.93007
1217.90937	0.92976
1215.85556	0.92953
1213.80175	0.92902
1211.74794	0.92822
1209.69413	0.92731
1207.64032	0.92641
1205.58651	0.92551
1203.53270	0.92454
1201.47889	0.92350
1199.42508	0.92245
1197.37127	0.92139
1195.31746	0.92018
1193.26365	0.91878
1191.20984	0.91721
1189.15603	0.91561
1187.10222	0.91397
1185.04841	0.91224
1182.99460	0.91061
1180.94079	0.90897
1178.88698	0.90701
1176.83317	0.90505
1174.77936	0.90344
1172.72555	0.90196
1170.67174	0.90046
1168.61793	0.89899
1166.56412	0.89758
1164.51031	0.89628
1162.45650	0.89511
1160.40269	0.89397
1158.34888	0.89294
1156.29507	0.89197
1154.24126	0.89103
1152.18745	0.89029
1150.13364	0.88978
1148.07983	0.88941
1146.02602	0.88909
1143.97221	0.88874
1141.91840	0.88824
1139.86459	0.88752
1137.81078	0.88668
1135.75697	0.88572
1133.70316	0.88434
1131.64935	0.88245
1129.59554	0.88022
1127.54173	0.87772
1125.48792	0.87509
1123.43411	0.87266
1121.38030	0.87062
1119.32649	0.86912
1117.27268	0.86838
1115.21887	0.86839
1113.16506	0.86874
1111.11125	0.86880
1109.05744	0.86837
1107.00363	0.86802
1104.94982	0.86774
1102.89601	0.86685
1100.84220	0.86567
1098.78839	0.86475
1096.73458	0.86404
1094.68077	0.86350
1092.62696	0.86286
1090.57315	0.86208
1088.51934	0.86173
1086.46553	0.86195
1084.41172	0.86266
1082.35791	0.86404
1080.30410	0.86572
1078.25029	0.86717
1076.19648	0.86826
1074.14267	0.86904
1072.08886	0.86981
1070.03505	0.87063
1067.98124	0.87111
1065.92743	0.87111
1063.87362	0.87083
1061.81981	0.87034
1059.76600	0.86959
1057.71219	0.86847
1055.65838	0.86679
1053.60457	0.86440
1051.55076	0.86161
1049.49695	0.85905
1047.44314	0.85709
1045.38933	0.85555
1043.33552	0.85417
1041.28171	0.85310
1039.22790	0.85248
1037.17409	0.85246
1035.12028	0.85296
1033.06647	0.85348
1031.01265	0.85420
1028.95884	0.85558
1026.90503	0.85703
1024.85122	0.85784
1022.79741	0.85807
1020.74360	0.85816
1018.68979	0.85864
1016.63598	0.85990
1014.58217	0.86207
1012.52836	0.86480
1010.47455	0.86734
1008.42074	0.86956
1006.36693	0.87204
1004.31312	0.87492
1002.25931	0.87786
1000.20550	0.88072
998.15169	0.88350
996.09788	0.88627
994.04407	0.88914
991.99026	0.89200
989.93645	0.89469
987.88264	0.89709
985.82883	0.89915
983.77502	0.90120
981.72121	0.90350
979.66740	0.90556
977.61359	0.90706
975.55978	0.90840
973.50597	0.90988
971.45216	0.91130
969.39835	0.91261
967.34454	0.91374
965.29073	0.91471
963.23692	0.91573
961.18311	0.91671
959.12930	0.91770
957.07549	0.91896
955.02168	0.92032
952.96787	0.92122
950.91406	0.92175
948.86025	0.92235
946.80644	0.92298
944.75263	0.92356
942.69882	0.92432
940.64501	0.92514
938.59120	0.92565
936.53739	0.92567
934.48358	0.92547
932.42977	0.92555
930.37596	0.92597
928.32215	0.92640
926.26834	0.92661
924.21453	0.92670
922.16072	0.92674
920.10691	0.92648
918.05310	0.92636
915.99929	0.92673
913.94548	0.92706
911.89167	0.92716
909.83786	0.92741
907.78405	0.92832
905.73024	0.92981
903.67643	0.93120
901.62262	0.93228
899.56881	0.93330
897.51500	0.93435
895.46119	0.93490
893.40738	0.93489
891.35357	0.93522
889.29976	0.93592
887.24595	0.93618
885.19214	0.93612
883.13833	0.93618
881.08452	0.93609
879.03071	0.93548
876.97690	0.93485
874.92309	0.93464
872.86928	0.93470
870.81547	0.93520
868.76166	0.93584
866.70785	0.93587
864.65404	0.93578
862.60023	0.93624
860.54642	0.93674
858.49261	0.93685
856.43880	0.93730
854.38499	0.93843
852.33118	0.93936
850.27737	0.93980
848.22356	0.94028
846.16975	0.94095
844.11594	0.94152
842.06213	0.94163
840.00832	0.94138
837.95451	0.94133
835.90070	0.94166
833.84689	0.94193
831.79308	0.94175
829.73927	0.94130
827.68546	0.94086
825.63165	0.94037
823.57784	0.93969
821.52403	0.93883
819.47022	0.93811
817.41641	0.93804
815.36260	0.93820
813.30879	0.93755
811.25498	0.93603
809.20117	0.93462
807.14736	0.93387
805.09355	0.93319
803.03974	0.93198
800.98593	0.93068
798.93212	0.92999
796.87831	0.92978
794.82450	0.92950
792.77069	0.92930
790.71688	0.92997
788.66307	0.93104
786.60926	0.93125
784.55545	0.93080
782.50164	0.93076
780.44783	0.93108
778.39402	0.93088
776.34021	0.93053
774.28640	0.93071
772.23259	0.93116
770.17878	0.93171
768.12497	0.93232
766.07116	0.93270
764.01735	0.93256
761.96354	0.93216
759.90973	0.93206
757.85592	0.93186
755.80211	0.93129
753.74830	0.93098
751.69449	0.93069
749.64068	0.92989
747.58687	0.92865
745.53306	0.92746
743.47925	0.92594
741.42544	0.92344
739.37163	0.91990
737.31781	0.91290
735.26400	0.89407
733.21019	0.85402
731.15638	0.81040
729.10257	0.80049
727.04876	0.81915
724.99495	0.82615
722.94114	0.79911
720.88733	0.74410
718.83352	0.70333
716.77971	0.71673
714.72590	0.76968
712.67209	0.82412
710.61828	0.86042
708.56447	0.88038
706.51066	0.89133
704.45685	0.89830
702.40304	0.90326
700.34923	0.90632
698.29542	0.90830
696.24161	0.90983
694.18780	0.91091
692.13399	0.91186
690.08018	0.91262
688.02637	0.91293
685.97256	0.91313
683.91875	0.91378
681.86494	0.91471
679.81113	0.91507
677.75732	0.91466
675.70351	0.91413
673.64970	0.91390
671.59589	0.91420
669.54208	0.91537
667.48827	0.91677
665.43446	0.91657
663.38065	0.91559
661.32684	0.91487
659.27303	0.91480
657.21922	0.91523
655.16541	0.91580
653.11160	0.91624
651.05779	0.91589
649.00398	0.91450
646.95017	0.91317
644.89636	0.91237
642.84255	0.91163
640.78874	0.91075
638.73493	0.90982
636.68112	0.90899
634.62731	0.90832
632.57350	0.90787
630.51969	0.90802
628.46588	0.90845
626.41207	0.90789
624.35826	0.90645
622.30445	0.90571
620.25064	0.90574
618.19683	0.90498
616.14302	0.90370
614.08921	0.90312
612.03540	0.90250
609.98159	0.90168
607.92778	0.90152
605.87397	0.90204
603.82016	0.90259
601.76635	0.90256
599.71254	0.90197
597.65873	0.90121
595.60492	0.90053
593.55111	0.89957
591.49730	0.89841
589.44349	0.89828
587.38968	0.89869
585.33587	0.89772
583.28206	0.89629
581.22825	0.89608
579.17444	0.89622
577.12063	0.89592
575.06682	0.89538
573.01301	0.89494
570.95920	0.89461
568.90539	0.89402
566.85158	0.89369
564.79777	0.89379
562.74396	0.89409
560.69015	0.89411
558.63634	0.89346
556.58253	0.89364
554.52872	0.89468
552.47491	0.89423
550.42110	0.89177
548.36729	0.88903
546.31348	0.88705
544.25967	0.88590
542.20586	0.88560
540.15205	0.88539
538.09824	0.88524
536.04443	0.88593
533.99062	0.88722
531.93681	0.88781
529.88300	0.88720
527.82919	0.88751
525.77538	0.88981
523.72157	0.89195
521.66776	0.89285
519.61395	0.89292
517.56014	0.89290
515.50633	0.89387
513.45252	0.89545
511.39871	0.89659
509.34490	0.89660
507.29109	0.89602
505.23728	0.89499
503.18347	0.89321
501.12966	0.89256
499.07585	0.89364
497.02204	0.89397
494.96823	0.89228
492.91442	0.89097
490.86061	0.89224
488.80680	0.89327
486.75299	0.89116
484.69918	0.88811
482.64537	0.88626
480.59156	0.88495
478.53775	0.88336
476.48394	0.88076
474.43013	0.87791
472.37632	0.87540
470.32251	0.87289
468.26870	0.87146
466.21489	0.87155
464.16108	0.87203
462.10727	0.87369
460.05346	0.87748
457.99965	0.88022
455.94584	0.87965
453.89203	0.87826
451.83822	0.87856
449.78441	0.88102
447.73060	0.88329
445.67679	0.88314
443.62298	0.88057
441.56916	0.87884
439.51535	0.87970
437.46154	0.87952
435.40773	0.87906
433.35392	0.88117
431.30011	0.88133
429.24630	0.87785
427.19249	0.87520
425.13868	0.87635
423.08487	0.87970
421.03106	0.87977
418.97725	0.87903
416.92344	0.88398
414.86963	0.88815
412.81582	0.88955
410.76201	0.89001
408.70820	0.89009
406.65439	0.89135
404.60058	0.89302
402.54677	0.89472
400.49296	0.89817
398.43915	0.90163
