3996.70104	0.97750
3994.64724	0.97737
3992.59344	0.97750
3990.53964	0.97763
3988.48583	0.97734
3986.43203	0.97704
3984.37823	0.97709
3982.32442	0.97723
3980.27062	0.97716
3978.21682	0.97714
3976.16301	0.97728
3974.10921	0.97728
3972.05541	0.97731
3970.00160	0.97789
3967.94780	0.97872
3965.89400	0.97904
3963.84019	0.97873
3961.78639	0.97809
3959.73259	0.97736
3957.67878	0.97716
3955.62498	0.97781
3953.57118	0.97856
3951.51737	0.97845
3949.46357	0.97765
3947.40977	0.97733
3945.35596	0.97777
3943.30216	0.97806
3941.24836	0.97815
3939.19455	0.97810
3937.14075	0.97779
3935.08695	0.97775
3933.03315	0.97801
3930.97934	0.97799
3928.92554	0.97781
3926.87174	0.97782
3924.81793	0.97799
3922.76413	0.97801
3920.71033	0.97781
3918.65652	0.97775
3916.60272	0.97799
3914.54892	0.97797
3912.49511	0.97759
3910.44131	0.97775
3908.38751	0.97889
3906.33370	0.98003
3904.27990	0.97993
3902.22610	0.97871
3900.17229	0.97778
3898.11849	0.97777
3896.06469	0.97798
3894.01088	0.97788
3891.95708	0.97775
3889.90328	0.97771
3887.84947	0.97733
3885.79567	0.97678
3883.74187	0.97719
3881.68807	0.97842
3879.63426	0.97898
3877.58046	0.97899
3875.52666	0.97930
3873.47285	0.97939
3871.41905	0.97901
3869.36525	0.97868
3867.31144	0.97854
3865.25764	0.97839
3863.20384	0.97784
3861.15003	0.97748
3859.09623	0.97769
3857.04243	0.97792
3854.98862	0.97795
3852.93482	0.97795
3850.88102	0.97784
3848.82721	0.97760
3846.77341	0.97764
3844.71961	0.97793
3842.66580	0.97791
3840.61200	0.97788
3838.55820	0.97809
3836.50439	0.97794
3834.45059	0.97763
3832.39679	0.97733
3830.34298	0.97709
3828.28918	0.97732
3826.23538	0.97796
3824.18158	0.97887
3822.12777	0.97973
3820.07397	0.97973
3818.02017	0.97928
3815.96636	0.97862
3813.91256	0.97804
3811.85876	0.97845
3809.80495	0.97886
3807.75115	0.97805
3805.69735	0.97727
3803.64354	0.97745
3801.58974	0.97745
3799.53594	0.97765
3797.48213	0.97829
3795.42833	0.97855
3793.37453	0.97835
3791.32072	0.97798
3789.26692	0.97760
3787.21312	0.97753
3785.15931	0.97791
3783.10551	0.97846
3781.05171	0.97888
3778.99790	0.97877
3776.94410	0.97847
3774.89030	0.97857
3772.83650	0.97879
3770.78269	0.97860
3768.72889	0.97789
3766.67509	0.97770
3764.62128	0.97844
3762.56748	0.97910
3760.51368	0.97907
3758.45987	0.97836
3756.40607	0.97771
3754.35227	0.97767
3752.29846	0.97782
3750.24466	0.97784
3748.19086	0.97808
3746.13705	0.97817
3744.08325	0.97814
3742.02945	0.97857
3739.97564	0.97910
3737.92184	0.97980
3735.86804	0.98062
3733.81423	0.98024
3731.76043	0.97877
3729.70663	0.97773
3727.65282	0.97735
3725.59902	0.97777
3723.54522	0.97899
3721.49141	0.97957
3719.43761	0.97864
3717.38381	0.97724
3715.33001	0.97602
3713.27620	0.97495
3711.22240	0.97409
3709.16860	0.97300
3707.11479	0.97177
3705.06099	0.97098
3703.00719	0.96994
3700.95338	0.96799
3698.89958	0.96663
3696.84578	0.96632
3694.79197	0.96623
3692.73817	0.96637
3690.68437	0.96751
3688.63056	0.96948
3686.57676	0.97053
3684.52296	0.97087
3682.46915	0.97096
3680.41535	0.97054
3678.36155	0.97038
3676.30774	0.97080
3674.25394	0.96996
3672.20014	0.96906
3670.14633	0.96930
3668.09253	0.96957
3666.03873	0.96931
3663.98492	0.96851
3661.93112	0.96738
3659.87732	0.96668
3657.82352	0.96656
3655.76971	0.96657
3653.71591	0.96663
3651.66211	0.96610
3649.60830	0.96472
3647.55450	0.96468
3645.50070	0.96489
3643.44689	0.96398
3641.39309	0.96286
3639.33929	0.96199
3637.28548	0.96145
3635.23168	0.96140
3633.17788	0.96131
3631.12407	0.96094
3629.07027	0.96008
3627.01647	0.95856
3624.96266	0.95767
3622.90886	0.95731
3620.85506	0.95698
3618.80125	0.95687
3616.74745	0.95700
3614.69365	0.95685
3612.63984	0.95631
3610.58604	0.95579
3608.53224	0.95554
3606.47844	0.95533
3604.42463	0.95524
3602.37083	0.95490
3600.31703	0.95403
3598.26322	0.95372
3596.20942	0.95408
3594.15562	0.95410
3592.10181	0.95391
3590.04801	0.95403
3587.99421	0.95406
3585.94040	0.95343
3583.88660	0.95271
3581.83280	0.95262
3579.77899	0.95273
3577.72519	0.95235
3575.67139	0.95142
3573.61758	0.95029
3571.56378	0.94971
3569.50998	0.94958
3567.45617	0.94886
3565.40237	0.94794
3563.34857	0.94759
3561.29476	0.94693
3559.24096	0.94559
3557.18716	0.94408
3555.13335	0.94271
3553.07955	0.94175
3551.02575	0.94134
3548.97195	0.94098
3546.91814	0.94027
3544.86434	0.93965
3542.81054	0.93943
3540.75673	0.93921
3538.70293	0.93876
3536.64913	0.93869
3534.59532	0.93924
3532.54152	0.93945
3530.48772	0.93924
3528.43391	0.93940
3526.38011	0.94020
3524.32631	0.94080
3522.27250	0.94081
3520.21870	0.94064
3518.16490	0.94039
3516.11109	0.94020
3514.05729	0.94041
3512.00349	0.94104
3509.94968	0.94154
3507.89588	0.94146
3505.84208	0.94122
3503.78827	0.94087
3501.73447	0.94028
3499.68067	0.93998
3497.62687	0.94013
3495.57306	0.94019
3493.51926	0.93983
3491.46546	0.93950
3489.41165	0.93970
3487.35785	0.94019
3485.30405	0.94073
3483.25024	0.94103
3481.19644	0.94083
3479.14264	0.94046
3477.08883	0.94032
3475.03503	0.94027
3472.98123	0.94018
3470.92742	0.94002
3468.87362	0.93957
3466.81982	0.93884
3464.76601	0.93821
3462.71221	0.93769
3460.65841	0.93736
3458.60460	0.93770
3456.55080	0.93823
3454.49700	0.93829
3452.44319	0.93789
3450.38939	0.93747
3448.33559	0.93732
3446.28178	0.93731
3444.22798	0.93744
3442.17418	0.93731
3440.12038	0.93667
3438.06657	0.93631
3436.01277	0.93625
3433.95897	0.93586
3431.90516	0.93521
3429.85136	0.93460
3427.79756	0.93424
3425.74375	0.93374
3423.68995	0.93265
3421.63615	0.93151
3419.58234	0.93096
3417.52854	0.93059
3415.47474	0.93011
3413.42093	0.92988
3411.36713	0.92973
3409.31333	0.92926
3407.25952	0.92886
3405.20572	0.92885
3403.15192	0.92899
3401.09811	0.92904
3399.04431	0.92896
3396.99051	0.92854
3394.93670	0.92841
3392.88290	0.92933
3390.82910	0.93044
3388.77529	0.93089
3386.72149	0.93118
3384.66769	0.93166
3382.61389	0.93207
3380.56008	0.93246
3378.50628	0.93258
3376.45248	0.93231
3374.39867	0.93242
3372.34487	0.93305
3370.29107	0.93358
3368.23726	0.93408
3366.18346	0.93441
3364.12966	0.93437
3362.07585	0.93442
3360.02205	0.93458
3357.96825	0.93472
3355.91444	0.93502
3353.86064	0.93539
3351.80684	0.93573
3349.75303	0.93596
3347.69923	0.93598
3345.64543	0.93615
3343.59162	0.93661
3341.53782	0.93687
3339.48402	0.93698
3337.43021	0.93689
3335.37641	0.93644
3333.32261	0.93647
3331.26881	0.93736
3329.21500	0.93813
3327.16120	0.93821
3325.10740	0.93802
3323.05359	0.93805
3320.99979	0.93812
3318.94599	0.93812
3316.89218	0.93825
3314.83838	0.93851
3312.78458	0.93880
3310.73077	0.93906
3308.67697	0.93912
3306.62317	0.93886
3304.56936	0.93869
3302.51556	0.93922
3300.46176	0.94018
3298.40795	0.94059
3296.35415	0.94054
3294.30035	0.94060
3292.24654	0.94037
3290.19274	0.94007
3288.13894	0.94039
3286.08513	0.94068
3284.03133	0.94038
3281.97753	0.94042
3279.92372	0.94128
3277.86992	0.94196
3275.81612	0.94201
3273.76232	0.94214
3271.70851	0.94253
3269.65471	0.94270
3267.60091	0.94295
3265.54710	0.94332
3263.49330	0.94329
3261.43950	0.94284
3259.38569	0.94239
3257.33189	0.94245
3255.27809	0.94274
3253.22428	0.94276
3251.17048	0.94279
3249.11668	0.94315
3247.06287	0.94398
3245.00907	0.94505
3242.95527	0.94562
3240.90146	0.94572
3238.84766	0.94586
3236.79386	0.94582
3234.74005	0.94532
3232.68625	0.94485
3230.63245	0.94505
3228.57864	0.94590
3226.52484	0.94666
3224.47104	0.94689
3222.41724	0.94668
3220.36343	0.94650
3218.30963	0.94700
3216.25583	0.94786
3214.20202	0.94830
3212.14822	0.94834
3210.09442	0.94848
3208.04061	0.94913
3205.98681	0.94986
3203.93301	0.95015
3201.87920	0.95037
3199.82540	0.95084
3197.77160	0.95117
3195.71779	0.95083
3193.66399	0.95032
3191.61019	0.95060
3189.55638	0.95127
3187.50258	0.95155
3185.44878	0.95170
3183.39497	0.95207
3181.34117	0.95236
3179.28737	0.95218
3177.23356	0.95164
3175.17976	0.95143
3173.12596	0.95211
3171.07215	0.95339
3169.01835	0.95457
3166.96455	0.95507
3164.91075	0.95502
3162.85694	0.95504
3160.80314	0.95519
3158.74934	0.95532
3156.69553	0.95542
3154.64173	0.95546
3152.58793	0.95548
3150.53412	0.95572
3148.48032	0.95646
3146.42652	0.95740
3144.37271	0.95790
3142.31891	0.95774
3140.26511	0.95753
3138.21130	0.95757
3136.15750	0.95772
3134.10370	0.95828
3132.04989	0.95870
3129.99609	0.95845
3127.94229	0.95857
3125.88848	0.95914
3123.83468	0.95940
3121.78088	0.95952
3119.72707	0.95987
3117.67327	0.96035
3115.61947	0.96028
3113.56566	0.95982
3111.51186	0.96009
3109.45806	0.96056
3107.40426	0.96041
3105.35045	0.96020
3103.29665	0.96013
3101.24285	0.96026
3099.18904	0.96054
3097.13524	0.96035
3095.08144	0.96011
3093.02763	0.96056
3090.97383	0.96093
3088.92003	0.96054
3086.86622	0.96029
3084.81242	0.96076
3082.75862	0.96117
3080.70481	0.96115
3078.65101	0.96122
3076.59721	0.96136
3074.54340	0.96124
3072.48960	0.96122
3070.43580	0.96142
3068.38199	0.96151
3066.32819	0.96143
3064.27439	0.96147
3062.22058	0.96167
3060.16678	0.96202
3058.11298	0.96240
3056.05918	0.96272
3054.00537	0.96286
3051.95157	0.96276
3049.89777	0.96273
3047.84396	0.96284
3045.79016	0.96286
3043.73636	0.96280
3041.68255	0.96301
3039.62875	0.96357
3037.57495	0.96403
3035.52114	0.96419
3033.46734	0.96422
3031.41354	0.96404
3029.35973	0.96368
3027.30593	0.96364
3025.25213	0.96388
3023.19832	0.96398
3021.14452	0.96404
3019.09072	0.96404
3017.03691	0.96408
3014.98311	0.96446
3012.92931	0.96484
3010.87550	0.96478
3008.82170	0.96459
3006.76790	0.96471
3004.71409	0.96490
3002.66029	0.96492
3000.60649	0.96489
2998.55269	0.96495
2996.49888	0.96502
2994.44508	0.96474
2992.39128	0.96443
2990.33747	0.96437
2988.28367	0.96419
2986.22987	0.96384
2984.17606	0.96330
2982.12226	0.96254
2980.06846	0.96162
2978.01465	0.96074
2975.96085	0.96044
2973.90705	0.96034
2971.85324	0.95964
2969.79944	0.95864
2967.74564	0.95764
2965.69183	0.95658
2963.63803	0.95541
2961.58423	0.95396
2959.53042	0.95224
2957.47662	0.95039
2955.42282	0.94852
2953.36901	0.94663
2951.31521	0.94469
2949.26141	0.94240
2947.20761	0.93940
2945.15380	0.93558
2943.10000	0.93063
2941.04620	0.92388
2938.99239	0.91504
2936.93859	0.90454
2934.88479	0.89226
2932.83098	0.87777
2930.77718	0.86084
2928.72338	0.84052
2926.66957	0.81522
2924.61577	0.78359
2922.56197	0.74558
2920.50816	0.70338
2918.45436	0.66227
2916.40056	0.63092
2914.34675	0.61830
2912.29295	0.62691
2910.23915	0.65079
2908.18534	0.68027
2906.13154	0.70781
2904.07774	0.73030
2902.02393	0.74800
2899.97013	0.76234
2897.91633	0.77455
2895.86252	0.78571
2893.80872	0.79622
2891.75492	0.80610
2889.70112	0.81595
2887.64731	0.82635
2885.59351	0.83718
2883.53971	0.84787
2881.48590	0.85849
2879.43210	0.86932
2877.37830	0.87983
2875.32449	0.88946
2873.27069	0.89775
2871.21689	0.90385
2869.16308	0.90734
2867.10928	0.90836
2865.05548	0.90649
2863.00167	0.90106
2860.94787	0.89141
2858.89407	0.87584
2856.84026	0.85040
2854.78646	0.81007
2852.73266	0.75341
2850.67885	0.69128
2848.62505	0.64822
2846.57125	0.64394
2844.51744	0.67490
2842.46364	0.72151
2840.40984	0.76676
2838.35603	0.80371
2836.30223	0.83210
2834.24843	0.85350
2832.19463	0.86975
2830.14082	0.88239
2828.08702	0.89233
2826.03322	0.90025
2823.97941	0.90673
2821.92561	0.91194
2819.87181	0.91618
2817.81800	0.92015
2815.76420	0.92391
2813.71040	0.92703
2811.65659	0.92964
2809.60279	0.93202
2807.54899	0.93428
2805.49518	0.93645
2803.44138	0.93826
2801.38758	0.93980
2799.33377	0.94127
2797.27997	0.94245
2795.22617	0.94328
2793.17236	0.94435
2791.11856	0.94593
2789.06476	0.94753
2787.01095	0.94884
2784.95715	0.94981
2782.90335	0.95046
2780.84955	0.95125
2778.79574	0.95211
2776.74194	0.95269
2774.68814	0.95328
2772.63433	0.95406
2770.58053	0.95491
2768.52673	0.95556
2766.47292	0.95591
2764.41912	0.95646
2762.36532	0.95724
2760.31151	0.95773
2758.25771	0.95802
2756.20391	0.95824
2754.15010	0.95816
2752.09630	0.95789
2750.04250	0.95792
2747.98869	0.95840
2745.93489	0.95897
2743.88109	0.95934
2741.82728	0.95951
2739.77348	0.95931
2737.71968	0.95906
2735.66587	0.95935
2733.61207	0.95992
2731.55827	0.96038
2729.50446	0.96070
2727.45066	0.96121
2725.39686	0.96192
2723.34306	0.96210
2721.28925	0.96168
2719.23545	0.96147
2717.18165	0.96187
2715.12784	0.96255
2713.07404	0.96304
2711.02024	0.96328
2708.96643	0.96338
2706.91263	0.96329
2704.85883	0.96316
2702.80502	0.96324
2700.75122	0.96350
2698.69742	0.96377
2696.64361	0.96389
2694.58981	0.96392
2692.53601	0.96397
2690.48220	0.96406
2688.42840	0.96433
2686.37460	0.96475
2684.32079	0.96511
2682.26699	0.96527
2680.21319	0.96523
2678.15938	0.96515
2676.10558	0.96500
2674.05178	0.96474
2671.99797	0.96437
2669.94417	0.96396
2667.89037	0.96375
2665.83657	0.96370
2663.78276	0.96378
2661.72896	0.96381
2659.67516	0.96347
2657.62135	0.96317
2655.56755	0.96319
2653.51375	0.96319
2651.45994	0.96331
2649.40614	0.96363
2647.35234	0.96381
2645.29853	0.96378
2643.24473	0.96364
2641.19093	0.96337
2639.13712	0.96299
2637.08332	0.96266
2635.02952	0.96261
2632.97571	0.96299
2630.92191	0.96359
2628.86811	0.96405
2626.81430	0.96455
2624.76050	0.96489
2622.70670	0.96501
2620.65289	0.96549
2618.59909	0.96601
2616.54529	0.96609
2614.49149	0.96625
2612.43768	0.96654
2610.38388	0.96631
2608.33008	0.96598
2606.27627	0.96636
2604.22247	0.96714
2602.16867	0.96797
2600.11486	0.96869
2598.06106	0.96898
2596.00726	0.96881
2593.95345	0.96855
2591.89965	0.96847
2589.84585	0.96863
2587.79204	0.96898
2585.73824	0.96931
2583.68444	0.96944
2581.63063	0.96951
2579.57683	0.96984
2577.52303	0.97009
2575.46922	0.96978
2573.41542	0.96942
2571.36162	0.96933
2569.30781	0.96946
2567.25401	0.97000
2565.20021	0.97084
2563.14640	0.97137
2561.09260	0.97118
2559.03880	0.97060
2556.98500	0.97052
2554.93119	0.97105
2552.87739	0.97128
2550.82359	0.97122
2548.76978	0.97137
2546.71598	0.97139
2544.66218	0.97153
2542.60837	0.97203
2540.55457	0.97200
2538.50077	0.97158
2536.44696	0.97149
2534.39316	0.97138
2532.33936	0.97093
2530.28555	0.97072
2528.23175	0.97125
2526.17795	0.97191
2524.12414	0.97194
2522.07034	0.97162
2520.01654	0.97150
2517.96273	0.97162
2515.90893	0.97199
2513.85513	0.97234
2511.80132	0.97235
2509.74752	0.97245
2507.69372	0.97293
2505.63992	0.97344
2503.58611	0.97360
2501.53231	0.97335
2499.47851	0.97278
2497.42470	0.97189
2495.37090	0.97152
2493.31710	0.97233
2491.26329	0.97323
2489.20949	0.97345
2487.15569	0.97341
2485.10188	0.97341
2483.04808	0.97334
2480.99428	0.97296
2478.94047	0.97242
2476.88667	0.97246
2474.83287	0.97308
2472.77906	0.97365
2470.72526	0.97383
2468.67146	0.97354
2466.61765	0.97296
2464.56385	0.97251
2462.51005	0.97280
2460.45624	0.97372
2458.40244	0.97412
2456.34864	0.97349
2454.29483	0.97252
2452.24103	0.97238
2450.18723	0.97348
2448.13343	0.97479
2446.07962	0.97480
2444.02582	0.97406
2441.97202	0.97390
2439.91821	0.97420
2437.86441	0.97420
2435.81061	0.97396
2433.75680	0.97407
2431.70300	0.97422
2429.64920	0.97413
2427.59539	0.97424
2425.54159	0.97477
2423.48779	0.97523
2421.43398	0.97505
2419.38018	0.97436
2417.32638	0.97398
2415.27257	0.97403
2413.21877	0.97388
2411.16497	0.97348
2409.11116	0.97305
2407.05736	0.97290
2405.00356	0.97338
2402.94975	0.97409
2400.89595	0.97447
2398.84215	0.97470
2396.78834	0.97455
2394.73454	0.97379
2392.68074	0.97337
2390.62694	0.97369
2388.57313	0.97441
2386.51933	0.97507
2384.46553	0.97523
2382.41172	0.97506
2380.35792	0.97473
2378.30412	0.97428
2376.25031	0.97417
2374.19651	0.97449
2372.14271	0.97462
2370.08890	0.97466
2368.03510	0.97478
2365.98130	0.97462
2363.92749	0.97429
2361.87369	0.97423
2359.81989	0.97431
2357.76608	0.97394
2355.71228	0.97300
2353.65848	0.97210
2351.60467	0.97167
2349.55087	0.97175
2347.49707	0.97230
2345.44326	0.97289
2343.38946	0.97332
2341.33566	0.97357
2339.28186	0.97296
2337.22805	0.97177
2335.17425	0.97098
2333.12045	0.97114
2331.06664	0.97184
2329.01284	0.97142
2326.95904	0.97034
2324.90523	0.97066
2322.85143	0.97180
2320.79763	0.97226
2318.74382	0.97216
2316.69002	0.97196
2314.63622	0.97227
2312.58241	0.97344
2310.52861	0.97420
2308.47481	0.97378
2306.42100	0.97366
2304.36720	0.97403
2302.31340	0.97358
2300.25959	0.97267
2298.20579	0.97239
2296.15199	0.97258
2294.09818	0.97286
2292.04438	0.97329
2289.99058	0.97362
2287.93677	0.97366
2285.88297	0.97364
2283.82917	0.97363
2281.77537	0.97329
2279.72156	0.97274
2277.66776	0.97249
2275.61396	0.97288
2273.56015	0.97394
2271.50635	0.97494
2269.45255	0.97564
2267.39874	0.97563
2265.34494	0.97387
2263.29114	0.97225
2261.23733	0.97269
2259.18353	0.97398
2257.12973	0.97520
2255.07592	0.97586
2253.02212	0.97606
2250.96832	0.97596
2248.91451	0.97492
2246.86071	0.97416
2244.80691	0.97446
2242.75310	0.97444
2240.69930	0.97391
2238.64550	0.97384
2236.59169	0.97389
2234.53789	0.97384
2232.48409	0.97485
2230.43029	0.97586
2228.37648	0.97507
2226.32268	0.97391
2224.26888	0.97395
2222.21507	0.97430
2220.16127	0.97355
2218.10747	0.97242
2216.05366	0.97251
2213.99986	0.97375
2211.94606	0.97447
2209.89225	0.97402
2207.83845	0.97441
2205.78465	0.97649
2203.73084	0.97815
2201.67704	0.97945
2199.62324	0.98006
2197.56943	0.97713
2195.51563	0.97341
2193.46183	0.97295
2191.40802	0.97392
2189.35422	0.97470
2187.30042	0.97664
2185.24661	0.97915
2183.19281	0.97929
2181.13901	0.97697
2179.08520	0.97485
2177.03140	0.97497
2174.97760	0.97703
2172.92380	0.97904
2170.86999	0.97863
2168.81619	0.97498
2166.76239	0.97252
2164.70858	0.97366
2162.65478	0.97444
2160.60098	0.97425
2158.54717	0.97567
2156.49337	0.97781
2154.43957	0.97872
2152.38576	0.97836
2150.33196	0.97907
2148.27816	0.98167
2146.22435	0.98219
2144.17055	0.98029
2142.11675	0.97944
2140.06294	0.97975
2138.00914	0.97968
2135.95534	0.97813
2133.90153	0.97638
2131.84773	0.97552
2129.79393	0.97506
2127.74012	0.97533
2125.68632	0.97586
2123.63252	0.97641
2121.57871	0.97710
2119.52491	0.97687
2117.47111	0.97605
2115.41731	0.97637
2113.36350	0.97737
2111.30970	0.97770
2109.25590	0.97735
2107.20209	0.97665
2105.14829	0.97601
2103.09449	0.97557
2101.04068	0.97542
2098.98688	0.97522
2096.93308	0.97442
2094.87927	0.97381
2092.82547	0.97432
2090.77167	0.97502
2088.71786	0.97523
2086.66406	0.97583
2084.61026	0.97699
2082.55645	0.97792
2080.50265	0.97708
2078.44885	0.97488
2076.39504	0.97343
2074.34124	0.97351
2072.28744	0.97505
2070.23363	0.97641
2068.17983	0.97677
2066.12603	0.97729
2064.07223	0.97741
2062.01842	0.97740
2059.96462	0.97766
2057.91082	0.97693
2055.85701	0.97631
2053.80321	0.97628
2051.74941	0.97531
2049.69560	0.97462
2047.64180	0.97572
2045.58800	0.97683
2043.53419	0.97695
2041.48039	0.97682
2039.42659	0.97568
2037.37278	0.97371
2035.31898	0.97251
2033.26518	0.97354
2031.21137	0.97735
2029.15757	0.98149
2027.10377	0.98200
2025.04996	0.97993
2022.99616	0.97946
2020.94236	0.98023
2018.88855	0.97974
2016.83475	0.97874
2014.78095	0.97771
2012.72714	0.97576
2010.67334	0.97504
2008.61954	0.97601
2006.56574	0.97574
2004.51193	0.97367
2002.45813	0.97211
2000.40433	0.97259
1998.35052	0.97467
1996.29672	0.97688
1994.24292	0.97830
1992.18911	0.97890
1990.13531	0.97775
1988.08151	0.97502
1986.02770	0.97399
1983.97390	0.97570
1981.92010	0.97723
1979.86629	0.97786
1977.81249	0.97764
1975.75869	0.97587
1973.70488	0.97552
1971.65108	0.97815
1969.59728	0.98076
1967.54347	0.98104
1965.48967	0.97997
1963.43587	0.97864
1961.38206	0.97799
1959.32826	0.97813
1957.27446	0.97832
1955.22066	0.97921
1953.16685	0.97963
1951.11305	0.97879
1949.05925	0.97879
1947.00544	0.97918
1944.95164	0.97773
1942.89784	0.97553
1940.84403	0.97535
1938.79023	0.97705
1936.73643	0.97824
1934.68262	0.97778
1932.62882	0.97725
1930.57502	0.97760
1928.52121	0.97708
1926.46741	0.97566
1924.41361	0.97528
1922.35980	0.97660
1920.30600	0.97809
1918.25220	0.97730
1916.19839	0.97568
1914.14459	0.97605
1912.09079	0.97714
1910.03698	0.97733
1907.98318	0.97703
1905.92938	0.97669
1903.87557	0.97623
1901.82177	0.97606
1899.76797	0.97580
1897.71417	0.97493
1895.66036	0.97436
1893.60656	0.97471
1891.55276	0.97499
1889.49895	0.97493
1887.44515	0.97569
1885.39135	0.97690
1883.33754	0.97735
1881.28374	0.97723
1879.22994	0.97717
1877.17613	0.97720
1875.12233	0.97675
1873.06853	0.97571
1871.01472	0.97493
1868.96092	0.97500
1866.90712	0.97553
1864.85331	0.97561
1862.79951	0.97530
1860.74571	0.97534
1858.69190	0.97586
1856.63810	0.97637
1854.58430	0.97656
1852.53049	0.97648
1850.47669	0.97630
1848.42289	0.97622
1846.36908	0.97626
1844.31528	0.97612
1842.26148	0.97572
1840.20768	0.97552
1838.15387	0.97540
1836.10007	0.97487
1834.04627	0.97454
1831.99246	0.97501
1829.93866	0.97534
1827.88486	0.97538
1825.83105	0.97579
1823.77725	0.97581
1821.72345	0.97499
1819.66964	0.97420
1817.61584	0.97394
1815.56204	0.97374
1813.50823	0.97365
1811.45443	0.97387
1809.40063	0.97404
1807.34682	0.97376
1805.29302	0.97323
1803.23922	0.97289
1801.18541	0.97247
1799.13161	0.97159
1797.07781	0.97048
1795.02400	0.96946
1792.97020	0.96870
1790.91640	0.96786
1788.86260	0.96673
1786.80879	0.96521
1784.75499	0.96367
1782.70119	0.96295
1780.64738	0.96276
1778.59358	0.96258
1776.53978	0.96234
1774.48597	0.96212
1772.43217	0.96173
1770.37837	0.96085
1768.32456	0.95994
1766.27076	0.95933
1764.21696	0.95871
1762.16315	0.95778
1760.10935	0.95692
1758.05555	0.95643
1756.00174	0.95610
1753.94794	0.95553
1751.89414	0.95436
1749.84033	0.95244
1747.78653	0.95042
1745.73273	0.94859
1743.67892	0.94638
1741.62512	0.94396
1739.57132	0.94177
1737.51751	0.94025
1735.46371	0.93925
1733.40991	0.93776
1731.35611	0.93649
1729.30230	0.93582
1727.24850	0.93512
1725.19470	0.93404
1723.14089	0.93223
1721.08709	0.93028
1719.03329	0.92830
1716.97948	0.92509
1714.92568	0.92222
1712.87188	0.92147
1710.81807	0.92239
1708.76427	0.92398
1706.71047	0.92526
1704.65666	0.92639
1702.60286	0.92758
1700.54906	0.92832
1698.49525	0.92840
1696.44145	0.92908
1694.38765	0.93059
1692.33384	0.93207
1690.28004	0.93308
1688.22624	0.93354
1686.17243	0.93385
1684.11863	0.93390
1682.06483	0.93385
1680.01103	0.93415
1677.95722	0.93462
1675.90342	0.93481
1673.84962	0.93450
1671.79581	0.93441
1669.74201	0.93414
1667.68821	0.93301
1665.63440	0.93227
1663.58060	0.93203
1661.52680	0.93151
1659.47299	0.93093
1657.41919	0.93075
1655.36539	0.93067
1653.31158	0.92988
1651.25778	0.92939
1649.20398	0.92999
1647.15017	0.93018
1645.09637	0.92946
1643.04257	0.92899
1640.98876	0.92878
1638.93496	0.92878
1636.88116	0.92902
1634.82735	0.92928
1632.77355	0.92955
1630.71975	0.92966
1628.66594	0.92960
1626.61214	0.92946
1624.55834	0.92894
1622.50454	0.92827
1620.45073	0.92882
1618.39693	0.93063
1616.34313	0.93303
1614.28932	0.93511
1612.23552	0.93688
1610.18172	0.93842
1608.12791	0.93968
1606.07411	0.94085
1604.02031	0.94180
1601.96650	0.94258
1599.91270	0.94336
1597.85890	0.94390
1595.80509	0.94399
1593.75129	0.94405
1591.69749	0.94445
1589.64368	0.94486
1587.58988	0.94502
1585.53608	0.94498
1583.48227	0.94498
1581.42847	0.94526
1579.37467	0.94570
1577.32086	0.94604
1575.26706	0.94613
1573.21326	0.94638
1571.15945	0.94677
1569.10565	0.94708
1567.05185	0.94746
1564.99805	0.94788
1562.94424	0.94820
1560.89044	0.94846
1558.83664	0.94809
1556.78283	0.94730
1554.72903	0.94706
1552.67523	0.94724
1550.62142	0.94777
1548.56762	0.94809
1546.51382	0.94831
1544.46001	0.94859
1542.40621	0.94883
1540.35241	0.94906
1538.29860	0.94959
1536.24480	0.95041
1534.19100	0.95118
1532.13719	0.95179
1530.08339	0.95222
1528.02959	0.95289
1525.97578	0.95406
1523.92198	0.95488
1521.86818	0.95488
1519.81437	0.95488
1517.76057	0.95535
1515.70677	0.95584
1513.65297	0.95635
1511.59916	0.95719
1509.54536	0.95813
1507.49156	0.95885
1505.43775	0.95897
1503.38395	0.95867
1501.33015	0.95863
1499.27634	0.95890
1497.22254	0.95897
1495.16874	0.95842
1493.11493	0.95803
1491.06113	0.95807
1489.00733	0.95798
1486.95352	0.95709
1484.89972	0.95557
1482.84592	0.95337
1480.79211	0.94947
1478.73831	0.93986
1476.68451	0.91286
1474.63070	0.86051
1472.57690	0.81420
1470.52310	0.82127
1468.46929	0.84913
1466.41549	0.86146
1464.36169	0.84826
1462.30788	0.83678
1460.25408	0.85005
1458.20028	0.88157
1456.14648	0.90979
1454.09267	0.91948
1452.03887	0.92353
1449.98507	0.92681
1447.93126	0.92920
1445.87746	0.93054
1443.82366	0.93131
1441.76985	0.93192
1439.71605	0.93255
1437.66225	0.93332
1435.60844	0.93381
1433.55464	0.93403
1431.50084	0.93462
1429.44703	0.93534
1427.39323	0.93593
1425.33943	0.93631
1423.28562	0.93631
1421.23182	0.93601
1419.17802	0.93565
1417.12421	0.93525
1415.07041	0.93501
1413.01661	0.93504
1410.96280	0.93524
1408.90900	0.93551
1406.85520	0.93572
1404.80139	0.93621
1402.74759	0.93705
1400.69379	0.93804
1398.63999	0.93922
1396.58618	0.94007
1394.53238	0.94014
1392.47858	0.94006
1390.42477	0.94016
1388.37097	0.94011
1386.31717	0.93988
1384.26336	0.93970
1382.20956	0.93953
1380.15576	0.93916
1378.10195	0.93885
1376.04815	0.93886
1373.99435	0.93900
1371.94054	0.93918
1369.88674	0.93949
1367.83294	0.93972
1365.77913	0.93977
1363.72533	0.93974
1361.67153	0.93967
1359.61772	0.93980
1357.56392	0.94039
1355.51012	0.94126
1353.45631	0.94180
1351.40251	0.94188
1349.34871	0.94181
1347.29491	0.94187
1345.24110	0.94209
1343.18730	0.94245
1341.13350	0.94301
1339.07969	0.94359
1337.02589	0.94374
1334.97209	0.94353
1332.91828	0.94336
1330.86448	0.94328
1328.81068	0.94308
1326.75687	0.94272
1324.70307	0.94225
1322.64927	0.94173
1320.59546	0.94124
1318.54166	0.94066
1316.48786	0.94001
1314.43405	0.93952
1312.38025	0.93927
1310.32645	0.93917
1308.27264	0.93894
1306.21884	0.93857
1304.16504	0.93813
1302.11123	0.93765
1300.05743	0.93717
1298.00363	0.93651
1295.94982	0.93580
1293.89602	0.93529
1291.84222	0.93487
1289.78842	0.93443
1287.73461	0.93410
1285.68081	0.93387
1283.62701	0.93348
1281.57320	0.93295
1279.51940	0.93232
1277.46560	0.93173
1275.41179	0.93124
1273.35799	0.93060
1271.30419	0.92974
1269.25038	0.92890
1267.19658	0.92828
1265.14278	0.92749
1263.08897	0.92619
1261.03517	0.92481
1258.98137	0.92363
1256.92756	0.92250
1254.87376	0.92129
1252.81996	0.91980
1250.76615	0.91806
1248.71235	0.91627
1246.65855	0.91439
1244.60474	0.91261
1242.55094	0.91106
1240.49714	0.90959
1238.44334	0.90812
1236.38953	0.90658
1234.33573	0.90499
1232.28193	0.90341
1230.22812	0.90214
1228.17432	0.90124
1226.12052	0.90017
1224.06671	0.89871
1222.01291	0.89727
1219.95911	0.89599
1217.90530	0.89482
1215.85150	0.89363
1213.79770	0.89211
1211.74389	0.89025
1209.69009	0.88833
1207.63629	0.88639
1205.58248	0.88447
1203.52868	0.88258
1201.47488	0.88066
1199.42107	0.87870
1197.36727	0.87664
1195.31347	0.87433
1193.25966	0.87193
1191.20586	0.86940
1189.15206	0.86653
1187.09825	0.86359
1185.04445	0.86057
1182.99065	0.85717
1180.93685	0.85344
1178.88304	0.84957
1176.82924	0.84564
1174.77544	0.84143
1172.72163	0.83713
1170.66783	0.83320
1168.61403	0.82966
1166.56022	0.82640
1164.50642	0.82347
1162.45262	0.82101
1160.39881	0.81907
1158.34501	0.81734
1156.29121	0.81539
1154.23740	0.81321
1152.18360	0.81118
1150.12980	0.80957
1148.07599	0.80827
1146.02219	0.80671
1143.96839	0.80489
1141.91458	0.80354
1139.86078	0.80259
1137.80698	0.80149
1135.75317	0.80028
1133.69937	0.79907
1131.64557	0.79772
1129.59176	0.79585
1127.53796	0.79363
1125.48416	0.79133
1123.43036	0.78874
1121.37655	0.78567
1119.32275	0.78237
1117.26895	0.77920
1115.21514	0.77609
1113.16134	0.77334
1111.10754	0.77127
1109.05373	0.76937
1106.99993	0.76744
1104.94613	0.76569
1102.89232	0.76426
1100.83852	0.76306
1098.78472	0.76192
1096.73091	0.76084
1094.67711	0.76006
1092.62331	0.75985
1090.56950	0.75994
1088.51570	0.75996
1086.46190	0.76005
1084.40809	0.76022
1082.35429	0.76060
1080.30049	0.76118
1078.24668	0.76146
1076.19288	0.76161
1074.13908	0.76192
1072.08528	0.76213
1070.03147	0.76188
1067.97767	0.76101
1065.92387	0.75969
1063.87006	0.75819
1061.81626	0.75678
1059.76246	0.75571
1057.70865	0.75456
1055.65485	0.75287
1053.60105	0.75077
1051.54724	0.74850
1049.49344	0.74630
1047.43964	0.74455
1045.38583	0.74319
1043.33203	0.74162
1041.27823	0.73974
1039.22442	0.73788
1037.17062	0.73656
1035.11682	0.73620
1033.06301	0.73654
1031.00921	0.73719
1028.95541	0.73847
1026.90160	0.74043
1024.84780	0.74261
1022.79400	0.74473
1020.74019	0.74637
1018.68639	0.74774
1016.63259	0.74918
1014.57879	0.75028
1012.52498	0.75097
1010.47118	0.75175
1008.41738	0.75291
1006.36357	0.75462
1004.30977	0.75704
1002.25597	0.76002
1000.20216	0.76343
998.14836	0.76736
996.09456	0.77136
994.04075	0.77524
991.98695	0.77946
989.93315	0.78420
987.87934	0.78921
985.82554	0.79417
983.77174	0.79929
981.71793	0.80464
979.66413	0.80976
977.61033	0.81454
975.55652	0.81904
973.50272	0.82328
971.44892	0.82739
969.39511	0.83139
967.34131	0.83527
965.28751	0.83879
963.23371	0.84204
961.17990	0.84524
959.12610	0.84809
957.07230	0.85045
955.01849	0.85274
952.96469	0.85511
950.91089	0.85676
948.85708	0.85774
946.80328	0.85924
944.74948	0.86143
942.69567	0.86334
940.64187	0.86455
938.58807	0.86581
936.53426	0.86733
934.48046	0.86853
932.42666	0.86958
930.37285	0.87090
928.31905	0.87209
926.26525	0.87282
924.21144	0.87329
922.15764	0.87336
920.10384	0.87268
918.05003	0.87142
915.99623	0.87026
913.94243	0.86974
911.88862	0.86985
909.83482	0.87053
907.78102	0.87235
905.72722	0.87576
903.67341	0.88013
901.61961	0.88455
899.56581	0.88868
897.51200	0.89251
895.45820	0.89560
893.40440	0.89786
891.35059	0.90002
889.29679	0.90188
887.24299	0.90311
885.18918	0.90423
883.13538	0.90537
881.08158	0.90679
879.02777	0.90858
876.97397	0.90989
874.92017	0.91046
872.86636	0.91106
870.81256	0.91216
868.75876	0.91344
866.70495	0.91452
864.65115	0.91561
862.59735	0.91663
860.54354	0.91736
858.48974	0.91862
856.43594	0.92034
854.38213	0.92114
852.32833	0.92113
850.27453	0.92160
848.22073	0.92262
846.16692	0.92340
844.11312	0.92369
842.05932	0.92332
840.00551	0.92277
837.95171	0.92252
835.89791	0.92194
833.84410	0.92095
831.79030	0.92037
829.73650	0.92020
827.68269	0.91989
825.62889	0.91965
823.57509	0.91958
821.52128	0.91908
819.46748	0.91800
817.41368	0.91717
815.35987	0.91657
813.30607	0.91528
811.25227	0.91345
809.19846	0.91156
807.14466	0.90921
805.09086	0.90575
803.03705	0.90153
800.98325	0.89764
798.92945	0.89506
796.87565	0.89430
794.82184	0.89502
792.76804	0.89602
790.71424	0.89684
788.66043	0.89832
786.60663	0.89950
784.55283	0.89838
782.49902	0.89592
780.44522	0.89476
778.39142	0.89562
776.33761	0.89766
774.28381	0.90000
772.23001	0.90159
770.17620	0.90187
768.12240	0.90172
766.06860	0.90205
764.01479	0.90233
761.96099	0.90199
759.90719	0.90150
757.85338	0.90122
755.79958	0.90155
753.74578	0.90231
751.69197	0.90236
749.63817	0.90150
747.58437	0.90053
745.53056	0.89995
743.47676	0.89971
741.42296	0.89973
739.36916	0.89929
737.31535	0.89605
735.26155	0.88267
733.20775	0.85115
731.15394	0.81716
729.10014	0.81158
727.04634	0.83055
724.99253	0.84120
722.93873	0.82454
720.88493	0.78284
718.83112	0.74376
716.77732	0.74019
714.72352	0.77134
712.66971	0.81228
710.61591	0.84263
708.56211	0.85886
706.50830	0.86617
704.45450	0.86974
702.40070	0.87212
700.34689	0.87334
698.29309	0.87346
696.23929	0.87338
694.18548	0.87388
692.13168	0.87479
690.07788	0.87604
688.02408	0.87685
685.97027	0.87657
683.91647	0.87608
681.86267	0.87593
679.80886	0.87595
677.75506	0.87535
675.70126	0.87393
673.64745	0.87238
671.59365	0.87152
669.53985	0.87174
667.48604	0.87261
665.43224	0.87344
663.37844	0.87474
661.32463	0.87622
659.27083	0.87613
657.21703	0.87481
655.16322	0.87391
653.10942	0.87276
651.05562	0.87102
649.00181	0.87065
646.94801	0.87184
644.89421	0.87253
642.84040	0.87198
640.78660	0.87039
638.73280	0.86867
636.67899	0.86773
634.62519	0.86767
632.57139	0.86832
630.51759	0.86890
628.46378	0.86863
626.40998	0.86735
624.35618	0.86605
622.30237	0.86528
620.24857	0.86436
618.19477	0.86288
616.14096	0.86052
614.08716	0.85760
612.03336	0.85483
609.97955	0.85236
607.92575	0.85025
605.87195	0.84831
603.81814	0.84609
601.76434	0.84395
599.71054	0.84277
597.65673	0.84220
595.60293	0.84215
593.54913	0.84246
591.49532	0.84189
589.44152	0.84097
587.38772	0.84075
585.33391	0.84050
583.28011	0.83995
581.22631	0.84041
579.17250	0.84234
577.11870	0.84418
575.06490	0.84333
573.01110	0.84015
570.95729	0.83765
568.90349	0.83739
566.84969	0.83913
564.79588	0.83960
562.74208	0.83799
560.68828	0.83717
558.63447	0.83677
556.58067	0.83552
554.52687	0.83418
552.47306	0.83254
550.41926	0.83034
548.36546	0.82823
546.31165	0.82546
544.25785	0.82217
542.20405	0.81976
540.15024	0.81809
538.09644	0.81589
536.04264	0.81261
533.98883	0.81029
531.93503	0.81098
529.88123	0.81320
527.82742	0.81425
525.77362	0.81388
523.71982	0.81367
521.66602	0.81454
519.61221	0.81617
517.55841	0.81887
515.50461	0.82234
513.45080	0.82404
511.39700	0.82245
509.34320	0.81920
507.28939	0.81809
505.23559	0.81987
503.18179	0.82191
501.12798	0.82186
499.07418	0.81951
497.02038	0.81730
494.96657	0.81552
492.91277	0.81427
490.85897	0.81394
488.80516	0.81049
486.75136	0.80326
484.69756	0.79681
482.64375	0.79226
480.58995	0.78726
478.53615	0.78094
476.48234	0.77420
474.42854	0.76774
472.37474	0.76061
470.32093	0.75388
468.26713	0.75006
466.21333	0.74797
464.15953	0.74745
462.10572	0.75024
460.05192	0.75573
457.99812	0.76141
455.94431	0.76500
453.89051	0.76867
451.83671	0.77438
449.78290	0.77861
447.72910	0.77880
445.67530	0.77866
443.62149	0.78147
441.56769	0.78438
439.51389	0.78446
437.46008	0.78330
435.40628	0.78386
433.35248	0.78457
431.29867	0.78386
429.24487	0.78424
427.19107	0.78483
425.13726	0.78574
423.08346	0.79048
421.02966	0.79747
418.97585	0.80204
416.92205	0.80074
414.86825	0.79894
412.81445	0.80041
410.76064	0.80534
408.70684	0.81157
406.65304	0.81243
404.59923	0.80860
402.54543	0.80650
400.49163	0.80480
398.43782	0.80388
