3996.71440	0.97386
3994.66059	0.97390
3992.60678	0.97395
3990.55297	0.97397
3988.49916	0.97416
3986.44535	0.97443
3984.39154	0.97409
3982.33773	0.97326
3980.28391	0.97299
3978.23010	0.97328
3976.17629	0.97362
3974.12248	0.97403
3972.06867	0.97394
3970.01486	0.97333
3967.96105	0.97317
3965.90724	0.97365
3963.85343	0.97399
3961.79962	0.97404
3959.74581	0.97419
3957.69200	0.97416
3955.63819	0.97368
3953.58438	0.97314
3951.53057	0.97326
3949.47676	0.97399
3947.42295	0.97433
3945.36914	0.97402
3943.31533	0.97366
3941.26152	0.97365
3939.20771	0.97399
3937.15390	0.97434
3935.10009	0.97438
3933.04628	0.97452
3930.99247	0.97457
3928.93866	0.97398
3926.88485	0.97375
3924.83104	0.97461
3922.77723	0.97550
3920.72342	0.97517
3918.66961	0.97397
3916.61580	0.97315
3914.56199	0.97315
3912.50818	0.97342
3910.45437	0.97352
3908.40056	0.97340
3906.34675	0.97316
3904.29294	0.97284
3902.23913	0.97286
3900.18532	0.97365
3898.13151	0.97456
3896.07770	0.97464
3894.02389	0.97405
3891.97008	0.97383
3889.91627	0.97430
3887.86246	0.97454
3885.80865	0.97436
3883.75484	0.97424
3881.70103	0.97422
3879.64722	0.97415
3877.59341	0.97410
3875.53960	0.97404
3873.48579	0.97391
3871.43198	0.97407
3869.37817	0.97495
3867.32436	0.97520
3865.27055	0.97434
3863.21674	0.97383
3861.16293	0.97401
3859.10912	0.97413
3857.05531	0.97392
3855.00150	0.97336
3852.94769	0.97322
3850.89388	0.97375
3848.84007	0.97389
3846.78626	0.97389
3844.73245	0.97404
3842.67864	0.97439
3840.62483	0.97495
3838.57102	0.97517
3836.51721	0.97469
3834.46340	0.97431
3832.40959	0.97437
3830.35578	0.97466
3828.30197	0.97485
3826.24816	0.97479
3824.19435	0.97491
3822.14054	0.97527
3820.08673	0.97549
3818.03292	0.97554
3815.97911	0.97536
3813.92530	0.97498
3811.87149	0.97493
3809.81768	0.97528
3807.76387	0.97582
3805.71006	0.97634
3803.65625	0.97631
3801.60244	0.97595
3799.54863	0.97581
3797.49482	0.97563
3795.44101	0.97529
3793.38720	0.97488
3791.33339	0.97457
3789.27958	0.97484
3787.22577	0.97561
3785.17196	0.97607
3783.11815	0.97582
3781.06434	0.97536
3779.01053	0.97505
3776.95672	0.97482
3774.90291	0.97459
3772.84910	0.97433
3770.79529	0.97392
3768.74148	0.97356
3766.68767	0.97371
3764.63386	0.97410
3762.58005	0.97415
3760.52624	0.97400
3758.47243	0.97406
3756.41862	0.97413
3754.36481	0.97425
3752.31100	0.97492
3750.25719	0.97572
3748.20338	0.97558
3746.14957	0.97506
3744.09576	0.97537
3742.04195	0.97599
3739.98814	0.97633
3737.93433	0.97668
3735.88052	0.97658
3733.82671	0.97559
3731.77290	0.97418
3729.71909	0.97328
3727.66528	0.97303
3725.61147	0.97305
3723.55766	0.97295
3721.50385	0.97218
3719.45004	0.97107
3717.39623	0.97023
3715.34242	0.96933
3713.28861	0.96757
3711.23480	0.96456
3709.18099	0.96154
3707.12718	0.95896
3705.07337	0.95552
3703.01956	0.95131
3700.96575	0.94793
3698.91194	0.94601
3696.85813	0.94497
3694.80432	0.94467
3692.75051	0.94505
3690.69670	0.94607
3688.64289	0.94753
3686.58907	0.94851
3684.53526	0.94937
3682.48145	0.95013
3680.42764	0.95002
3678.37383	0.94957
3676.32002	0.94962
3674.26621	0.94995
3672.21240	0.94994
3670.15859	0.94948
3668.10478	0.94907
3666.05097	0.94865
3663.99716	0.94785
3661.94335	0.94706
3659.88954	0.94670
3657.83573	0.94661
3655.78192	0.94613
3653.72811	0.94515
3651.67430	0.94427
3649.62049	0.94361
3647.56668	0.94308
3645.51287	0.94281
3643.45906	0.94249
3641.40525	0.94198
3639.35144	0.94135
3637.29763	0.94019
3635.24382	0.93842
3633.19001	0.93658
3631.13620	0.93487
3629.08239	0.93305
3627.02858	0.93201
3624.97477	0.93172
3622.92096	0.93170
3620.86715	0.93267
3618.81334	0.93444
3616.75953	0.93542
3614.70572	0.93589
3612.65191	0.93678
3610.59810	0.93796
3608.54429	0.93899
3606.49048	0.93940
3604.43667	0.93933
3602.38286	0.93937
3600.32905	0.93953
3598.27524	0.93972
3596.22143	0.93991
3594.16762	0.93970
3592.11381	0.93929
3590.06000	0.93942
3588.00619	0.94012
3585.95238	0.94064
3583.89857	0.94040
3581.84476	0.93992
3579.79095	0.93966
3577.73714	0.93926
3575.68333	0.93878
3573.62952	0.93887
3571.57571	0.93922
3569.52190	0.93938
3567.46809	0.93932
3565.41428	0.93916
3563.36047	0.93909
3561.30666	0.93879
3559.25285	0.93837
3557.19904	0.93828
3555.14523	0.93801
3553.09142	0.93742
3551.03761	0.93747
3548.98380	0.93765
3546.92999	0.93738
3544.87618	0.93738
3542.82237	0.93713
3540.76856	0.93628
3538.71475	0.93567
3536.66094	0.93557
3534.60713	0.93577
3532.55332	0.93594
3530.49951	0.93599
3528.44570	0.93604
3526.39189	0.93590
3524.33808	0.93527
3522.28427	0.93473
3520.23046	0.93496
3518.17665	0.93543
3516.12284	0.93579
3514.06903	0.93632
3512.01522	0.93642
3509.96141	0.93574
3507.90760	0.93533
3505.85379	0.93557
3503.79998	0.93594
3501.74617	0.93617
3499.69236	0.93584
3497.63855	0.93516
3495.58474	0.93472
3493.53093	0.93464
3491.47712	0.93489
3489.42331	0.93520
3487.36950	0.93523
3485.31569	0.93508
3483.26188	0.93471
3481.20807	0.93404
3479.15426	0.93380
3477.10045	0.93399
3475.04664	0.93370
3472.99283	0.93303
3470.93902	0.93278
3468.88521	0.93321
3466.83140	0.93377
3464.77759	0.93389
3462.72378	0.93344
3460.66997	0.93262
3458.61616	0.93194
3456.56235	0.93174
3454.50854	0.93183
3452.45473	0.93197
3450.40092	0.93209
3448.34711	0.93204
3446.29330	0.93175
3444.23949	0.93143
3442.18568	0.93111
3440.13187	0.93066
3438.07806	0.93032
3436.02425	0.93026
3433.97044	0.93021
3431.91663	0.93002
3429.86282	0.92989
3427.80901	0.92980
3425.75520	0.92973
3423.70139	0.92981
3421.64758	0.92976
3419.59377	0.92954
3417.53996	0.92944
3415.48615	0.92923
3413.43234	0.92870
3411.37853	0.92845
3409.32472	0.92867
3407.27091	0.92864
3405.21710	0.92828
3403.16329	0.92800
3401.10948	0.92780
3399.05567	0.92759
3397.00186	0.92760
3394.94805	0.92798
3392.89424	0.92825
3390.84042	0.92835
3388.78661	0.92860
3386.73280	0.92866
3384.67899	0.92827
3382.62518	0.92784
3380.57137	0.92769
3378.51756	0.92794
3376.46375	0.92864
3374.40994	0.92922
3372.35613	0.92940
3370.30232	0.92962
3368.24851	0.92974
3366.19470	0.92966
3364.14089	0.92977
3362.08708	0.92991
3360.03327	0.92970
3357.97946	0.92956
3355.92565	0.92978
3353.87184	0.93018
3351.81803	0.93043
3349.76422	0.93029
3347.71041	0.93016
3345.65660	0.93070
3343.60279	0.93162
3341.54898	0.93202
3339.49517	0.93180
3337.44136	0.93158
3335.38755	0.93155
3333.33374	0.93143
3331.27993	0.93118
3329.22612	0.93108
3327.17231	0.93124
3325.11850	0.93157
3323.06469	0.93161
3321.01088	0.93136
3318.95707	0.93167
3316.90326	0.93227
3314.84945	0.93221
3312.79564	0.93163
3310.74183	0.93132
3308.68802	0.93156
3306.63421	0.93188
3304.58040	0.93209
3302.52659	0.93231
3300.47278	0.93243
3298.41897	0.93228
3296.36516	0.93182
3294.31135	0.93130
3292.25754	0.93139
3290.20373	0.93216
3288.14992	0.93273
3286.09611	0.93274
3284.04230	0.93284
3281.98849	0.93322
3279.93468	0.93348
3277.88087	0.93344
3275.82706	0.93333
3273.77325	0.93345
3271.71944	0.93356
3269.66563	0.93346
3267.61182	0.93345
3265.55801	0.93381
3263.50420	0.93451
3261.45039	0.93515
3259.39658	0.93556
3257.34277	0.93586
3255.28896	0.93600
3253.23515	0.93626
3251.18134	0.93681
3249.12753	0.93732
3247.07372	0.93765
3245.01991	0.93772
3242.96610	0.93763
3240.91229	0.93762
3238.85848	0.93762
3236.80467	0.93756
3234.75086	0.93759
3232.69705	0.93773
3230.64324	0.93799
3228.58943	0.93845
3226.53562	0.93916
3224.48181	0.94011
3222.42800	0.94068
3220.37419	0.94080
3218.32038	0.94081
3216.26657	0.94074
3214.21276	0.94099
3212.15895	0.94163
3210.10514	0.94212
3208.05133	0.94224
3205.99752	0.94236
3203.94371	0.94257
3201.88990	0.94259
3199.83609	0.94264
3197.78228	0.94300
3195.72847	0.94327
3193.67466	0.94336
3191.62085	0.94387
3189.56704	0.94461
3187.51323	0.94509
3185.45942	0.94557
3183.40561	0.94593
3181.35180	0.94566
3179.29799	0.94544
3177.24418	0.94606
3175.19037	0.94673
3173.13656	0.94691
3171.08275	0.94736
3169.02894	0.94801
3166.97513	0.94830
3164.92132	0.94852
3162.86751	0.94884
3160.81370	0.94881
3158.75989	0.94846
3156.70608	0.94850
3154.65227	0.94908
3152.59846	0.94988
3150.54465	0.95057
3148.49084	0.95114
3146.43703	0.95157
3144.38322	0.95146
3142.32941	0.95136
3140.27560	0.95189
3138.22179	0.95213
3136.16798	0.95153
3134.11417	0.95109
3132.06036	0.95142
3130.00655	0.95203
3127.95274	0.95280
3125.89893	0.95366
3123.84512	0.95401
3121.79131	0.95385
3119.73750	0.95375
3117.68369	0.95379
3115.62988	0.95387
3113.57607	0.95396
3111.52226	0.95397
3109.46845	0.95412
3107.41464	0.95438
3105.36083	0.95437
3103.30702	0.95423
3101.25321	0.95420
3099.19940	0.95412
3097.14559	0.95421
3095.09177	0.95458
3093.03796	0.95461
3090.98415	0.95452
3088.93034	0.95478
3086.87653	0.95475
3084.82272	0.95437
3082.76891	0.95449
3080.71510	0.95523
3078.66129	0.95596
3076.60748	0.95616
3074.55367	0.95583
3072.49986	0.95542
3070.44605	0.95550
3068.39224	0.95587
3066.33843	0.95603
3064.28462	0.95635
3062.23081	0.95701
3060.17700	0.95746
3058.12319	0.95765
3056.06938	0.95774
3054.01557	0.95778
3051.96176	0.95787
3049.90795	0.95787
3047.85414	0.95769
3045.80033	0.95779
3043.74652	0.95836
3041.69271	0.95865
3039.63890	0.95821
3037.58509	0.95785
3035.53128	0.95807
3033.47747	0.95829
3031.42366	0.95830
3029.36985	0.95854
3027.31604	0.95902
3025.26223	0.95925
3023.20842	0.95909
3021.15461	0.95888
3019.10080	0.95894
3017.04699	0.95931
3014.99318	0.95978
3012.93937	0.96008
3010.88556	0.96027
3008.83175	0.96057
3006.77794	0.96090
3004.72413	0.96090
3002.67032	0.96058
3000.61651	0.96038
2998.56270	0.96044
2996.50889	0.96062
2994.45508	0.96059
2992.40127	0.96013
2990.34746	0.95966
2988.29365	0.95966
2986.23984	0.95987
2984.18603	0.95964
2982.13222	0.95891
2980.07841	0.95814
2978.02460	0.95753
2975.97079	0.95705
2973.91698	0.95651
2971.86317	0.95552
2969.80936	0.95413
2967.75555	0.95293
2965.70174	0.95194
2963.64793	0.95065
2961.59412	0.94934
2959.54031	0.94818
2957.48650	0.94659
2955.43269	0.94466
2953.37888	0.94290
2951.32507	0.94085
2949.27126	0.93775
2947.21745	0.93362
2945.16364	0.92860
2943.10983	0.92225
2941.05602	0.91390
2939.00221	0.90330
2936.94840	0.89055
2934.89459	0.87572
2932.84078	0.85854
2930.78697	0.83845
2928.73316	0.81511
2926.67935	0.78800
2924.62554	0.75624
2922.57173	0.71975
2920.51792	0.68033
2918.46411	0.64232
2916.41030	0.61381
2914.35649	0.60402
2912.30268	0.61544
2910.24887	0.64093
2908.19506	0.67037
2906.14125	0.69748
2904.08744	0.72030
2902.03363	0.73897
2899.97982	0.75408
2897.92601	0.76655
2895.87220	0.77771
2893.81839	0.78828
2891.76458	0.79877
2889.71077	0.80996
2887.65696	0.82170
2885.60315	0.83320
2883.54934	0.84445
2881.49553	0.85555
2879.44172	0.86641
2877.38791	0.87682
2875.33410	0.88599
2873.28029	0.89320
2871.22648	0.89825
2869.17267	0.90087
2867.11886	0.90069
2865.06505	0.89767
2863.01124	0.89109
2860.95743	0.87918
2858.90362	0.85987
2856.84981	0.83099
2854.79600	0.78974
2852.74219	0.73564
2850.68838	0.67819
2848.63457	0.63886
2846.58076	0.63612
2844.52695	0.66770
2842.47314	0.71515
2840.41933	0.76195
2838.36552	0.80084
2836.31171	0.83056
2834.25790	0.85230
2832.20409	0.86841
2830.15028	0.88092
2828.09647	0.89082
2826.04266	0.89889
2823.98885	0.90568
2821.93504	0.91134
2819.88123	0.91598
2817.82742	0.91963
2815.77361	0.92244
2813.71980	0.92494
2811.66599	0.92747
2809.61218	0.92981
2807.55837	0.93171
2805.50456	0.93341
2803.45075	0.93510
2801.39693	0.93669
2799.34312	0.93807
2797.28931	0.93919
2795.23550	0.94026
2793.18169	0.94164
2791.12788	0.94321
2789.07407	0.94453
2787.02026	0.94560
2784.96645	0.94656
2782.91264	0.94730
2780.85883	0.94792
2778.80502	0.94857
2776.75121	0.94923
2774.69740	0.94988
2772.64359	0.95062
2770.58978	0.95157
2768.53597	0.95235
2766.48216	0.95259
2764.42835	0.95291
2762.37454	0.95351
2760.32073	0.95390
2758.26692	0.95409
2756.21311	0.95433
2754.15930	0.95462
2752.10549	0.95506
2750.05168	0.95564
2747.99787	0.95592
2745.94406	0.95563
2743.89025	0.95516
2741.83644	0.95523
2739.78263	0.95597
2737.72882	0.95683
2735.67501	0.95716
2733.62120	0.95707
2731.56739	0.95710
2729.51358	0.95730
2727.45977	0.95768
2725.40596	0.95817
2723.35215	0.95831
2721.29834	0.95801
2719.24453	0.95771
2717.19072	0.95801
2715.13691	0.95858
2713.08310	0.95876
2711.02929	0.95879
2708.97548	0.95884
2706.92167	0.95884
2704.86786	0.95915
2702.81405	0.95969
2700.76024	0.96004
2698.70643	0.96031
2696.65262	0.96046
2694.59881	0.96050
2692.54500	0.96068
2690.49119	0.96079
2688.43738	0.96045
2686.38357	0.96004
2684.32976	0.96007
2682.27595	0.96026
2680.22214	0.96036
2678.16833	0.96049
2676.11452	0.96065
2674.06071	0.96072
2672.00690	0.96080
2669.95309	0.96095
2667.89928	0.96104
2665.84547	0.96101
2663.79166	0.96087
2661.73785	0.96047
2659.68404	0.96010
2657.63023	0.96018
2655.57642	0.96040
2653.52261	0.96054
2651.46880	0.96075
2649.41499	0.96086
2647.36118	0.96088
2645.30737	0.96104
2643.25356	0.96110
2641.19975	0.96101
2639.14594	0.96118
2637.09213	0.96157
2635.03832	0.96160
2632.98451	0.96120
2630.93070	0.96103
2628.87689	0.96132
2626.82308	0.96176
2624.76927	0.96210
2622.71546	0.96234
2620.66165	0.96252
2618.60784	0.96278
2616.55403	0.96347
2614.50022	0.96424
2612.44641	0.96463
2610.39260	0.96470
2608.33879	0.96467
2606.28498	0.96468
2604.23117	0.96478
2602.17736	0.96484
2600.12355	0.96468
2598.06974	0.96483
2596.01593	0.96527
2593.96212	0.96541
2591.90831	0.96569
2589.85450	0.96639
2587.80069	0.96672
2585.74688	0.96644
2583.69307	0.96625
2581.63926	0.96627
2579.58545	0.96621
2577.53164	0.96612
2575.47783	0.96607
2573.42402	0.96605
2571.37021	0.96637
2569.31640	0.96726
2567.26259	0.96793
2565.20878	0.96799
2563.15497	0.96790
2561.10116	0.96772
2559.04735	0.96781
2556.99354	0.96841
2554.93973	0.96886
2552.88592	0.96881
2550.83211	0.96854
2548.77830	0.96839
2546.72449	0.96847
2544.67068	0.96846
2542.61687	0.96821
2540.56306	0.96839
2538.50925	0.96879
2536.45544	0.96877
2534.40163	0.96883
2532.34782	0.96911
2530.29401	0.96909
2528.24020	0.96885
2526.18639	0.96851
2524.13258	0.96801
2522.07877	0.96787
2520.02496	0.96821
2517.97115	0.96820
2515.91734	0.96789
2513.86353	0.96816
2511.80972	0.96888
2509.75591	0.96938
2507.70210	0.96956
2505.64828	0.96949
2503.59447	0.96920
2501.54066	0.96898
2499.48685	0.96915
2497.43304	0.96967
2495.37923	0.96979
2493.32542	0.96940
2491.27161	0.96940
2489.21780	0.96973
2487.16399	0.96981
2485.11018	0.96941
2483.05637	0.96897
2481.00256	0.96925
2478.94875	0.96988
2476.89494	0.97018
2474.84113	0.97034
2472.78732	0.97040
2470.73351	0.97012
2468.67970	0.97001
2466.62589	0.97039
2464.57208	0.97075
2462.51827	0.97063
2460.46446	0.97026
2458.41065	0.97012
2456.35684	0.97005
2454.30303	0.97019
2452.24922	0.97086
2450.19541	0.97149
2448.14160	0.97130
2446.08779	0.97063
2444.03398	0.97044
2441.98017	0.97089
2439.92636	0.97136
2437.87255	0.97128
2435.81874	0.97094
2433.76493	0.97086
2431.71112	0.97050
2429.65731	0.96990
2427.60350	0.97023
2425.54969	0.97094
2423.49588	0.97077
2421.44207	0.97041
2419.38826	0.97093
2417.33445	0.97153
2415.28064	0.97127
2413.22683	0.97066
2411.17302	0.97032
2409.11921	0.97020
2407.06540	0.97012
2405.01159	0.97044
2402.95778	0.97088
2400.90397	0.97088
2398.85016	0.97083
2396.79635	0.97088
2394.74254	0.97076
2392.68873	0.97049
2390.63492	0.97026
2388.58111	0.97053
2386.52730	0.97118
2384.47349	0.97156
2382.41968	0.97151
2380.36587	0.97083
2378.31206	0.96998
2376.25825	0.97006
2374.20444	0.97115
2372.15063	0.97194
2370.09682	0.97167
2368.04301	0.97119
2365.98920	0.97115
2363.93539	0.97173
2361.88158	0.97246
2359.82777	0.97268
2357.77396	0.97218
2355.72015	0.97108
2353.66634	0.97010
2351.61253	0.96976
2349.55872	0.96979
2347.50491	0.96937
2345.45110	0.96814
2343.39729	0.96730
2341.34348	0.96785
2339.28967	0.96854
2337.23586	0.96821
2335.18205	0.96782
2333.12824	0.96837
2331.07443	0.96941
2329.02062	0.97029
2326.96681	0.97013
2324.91300	0.96870
2322.85919	0.96761
2320.80538	0.96816
2318.75157	0.96932
2316.69776	0.96981
2314.64395	0.96933
2312.59014	0.96887
2310.53633	0.96919
2308.48252	0.96964
2306.42871	0.97020
2304.37490	0.97071
2302.32109	0.97027
2300.26728	0.96939
2298.21347	0.96903
2296.15966	0.96858
2294.10585	0.96805
2292.05204	0.96858
2289.99823	0.96984
2287.94442	0.97036
2285.89061	0.97019
2283.83680	0.97012
2281.78299	0.97008
2279.72918	0.97019
2277.67537	0.97059
2275.62156	0.97117
2273.56775	0.97139
2271.51394	0.97118
2269.46013	0.97092
2267.40632	0.97093
2265.35251	0.97179
2263.29870	0.97276
2261.24489	0.97277
2259.19108	0.97237
2257.13727	0.97238
2255.08346	0.97286
2253.02965	0.97357
2250.97584	0.97355
2248.92203	0.97278
2246.86822	0.97250
2244.81441	0.97288
2242.76060	0.97343
2240.70679	0.97379
2238.65298	0.97339
2236.59917	0.97257
2234.54536	0.97294
2232.49155	0.97358
2230.43774	0.97315
2228.38393	0.97310
2226.33012	0.97284
2224.27631	0.97119
2222.22250	0.97041
2220.16869	0.97121
2218.11488	0.97200
2216.06107	0.97232
2214.00726	0.97247
2211.95344	0.97364
2209.89963	0.97480
2207.84582	0.97409
2205.79201	0.97383
2203.73820	0.97515
2201.68439	0.97580
2199.63058	0.97525
2197.57677	0.97347
2195.52296	0.97135
2193.46915	0.97141
2191.41534	0.97254
2189.36153	0.97185
2187.30772	0.97033
2185.25391	0.97055
2183.20010	0.97248
2181.14629	0.97434
2179.09248	0.97544
2177.03867	0.97707
2174.98486	0.97935
2172.93105	0.98015
2170.87724	0.97861
2168.82343	0.97617
2166.76962	0.97649
2164.71581	0.97945
2162.66200	0.98035
2160.60819	0.97933
2158.55438	0.97975
2156.50057	0.98054
2154.44676	0.97906
2152.39295	0.97638
2150.33914	0.97576
2148.28533	0.97627
2146.23152	0.97538
2144.17771	0.97484
2142.12390	0.97603
2140.07009	0.97818
2138.01628	0.97879
2135.96247	0.97704
2133.90866	0.97599
2131.85485	0.97657
2129.80104	0.97666
2127.74723	0.97561
2125.69342	0.97512
2123.63961	0.97578
2121.58580	0.97553
2119.53199	0.97414
2117.47818	0.97365
2115.42437	0.97383
2113.37056	0.97346
2111.31675	0.97299
2109.26294	0.97307
2107.20913	0.97332
2105.15532	0.97299
2103.10151	0.97249
2101.04770	0.97300
2098.99389	0.97483
2096.94008	0.97622
2094.88627	0.97545
2092.83246	0.97379
2090.77865	0.97279
2088.72484	0.97241
2086.67103	0.97274
2084.61722	0.97311
2082.56341	0.97321
2080.50960	0.97435
2078.45579	0.97595
2076.40198	0.97661
2074.34817	0.97605
2072.29436	0.97489
2070.24055	0.97461
2068.18674	0.97495
2066.13293	0.97419
2064.07912	0.97285
2062.02531	0.97241
2059.97150	0.97253
2057.91769	0.97196
2055.86388	0.97138
2053.81007	0.97279
2051.75626	0.97530
2049.70245	0.97680
2047.64864	0.97671
2045.59483	0.97517
2043.54102	0.97363
2041.48721	0.97247
2039.43340	0.97188
2037.37959	0.97342
2035.32578	0.97563
2033.27197	0.97700
2031.21816	0.97802
2029.16435	0.97803
2027.11054	0.97737
2025.05673	0.97586
2023.00292	0.97382
2020.94911	0.97378
2018.89530	0.97611
2016.84149	0.97798
2014.78768	0.97784
2012.73387	0.97639
2010.68006	0.97356
2008.62625	0.97154
2006.57244	0.97285
2004.51863	0.97614
2002.46482	0.97897
2000.41101	0.97955
1998.35720	0.97786
1996.30339	0.97682
1994.24958	0.97820
1992.19577	0.97947
1990.14196	0.97965
1988.08815	0.98027
1986.03434	0.98100
1983.98053	0.98058
1981.92672	0.97886
1979.87291	0.97724
1977.81910	0.97648
1975.76529	0.97633
1973.71148	0.97600
1971.65767	0.97451
1969.60386	0.97348
1967.55005	0.97583
1965.49624	0.97920
1963.44243	0.97863
1961.38862	0.97614
1959.33481	0.97575
1957.28100	0.97545
1955.22719	0.97329
1953.17338	0.97177
1951.11957	0.97234
1949.06576	0.97326
1947.01195	0.97291
1944.95814	0.97208
1942.90433	0.97166
1940.85052	0.97167
1938.79671	0.97284
1936.74290	0.97501
1934.68909	0.97616
1932.63528	0.97494
1930.58147	0.97317
1928.52766	0.97303
1926.47385	0.97391
1924.42004	0.97492
1922.36623	0.97539
1920.31242	0.97481
1918.25861	0.97393
1916.20479	0.97327
1914.15098	0.97306
1912.09717	0.97314
1910.04336	0.97301
1907.98955	0.97232
1905.93574	0.97111
1903.88193	0.97072
1901.82812	0.97153
1899.77431	0.97205
1897.72050	0.97188
1895.66669	0.97218
1893.61288	0.97290
1891.55907	0.97287
1889.50526	0.97240
1887.45145	0.97274
1885.39764	0.97325
1883.34383	0.97235
1881.29002	0.97089
1879.23621	0.97057
1877.18240	0.97103
1875.12859	0.97157
1873.07478	0.97180
1871.02097	0.97148
1868.96716	0.97122
1866.91335	0.97152
1864.85954	0.97187
1862.80573	0.97200
1860.75192	0.97206
1858.69811	0.97188
1856.64430	0.97165
1854.59049	0.97196
1852.53668	0.97218
1850.48287	0.97138
1848.42906	0.97071
1846.37525	0.97138
1844.32144	0.97232
1842.26763	0.97205
1840.21382	0.97155
1838.16001	0.97164
1836.10620	0.97169
1834.05239	0.97150
1831.99858	0.97125
1829.94477	0.97128
1827.89096	0.97191
1825.83715	0.97253
1823.78334	0.97243
1821.72953	0.97194
1819.67572	0.97175
1817.62191	0.97174
1815.56810	0.97169
1813.51429	0.97161
1811.46048	0.97141
1809.40667	0.97121
1807.35286	0.97110
1805.29905	0.97113
1803.24524	0.97138
1801.19143	0.97158
1799.13762	0.97142
1797.08381	0.97089
1795.03000	0.97023
1792.97619	0.96960
1790.92238	0.96937
1788.86857	0.96962
1786.81476	0.96967
1784.76095	0.96954
1782.70714	0.96954
1780.65333	0.96958
1778.59952	0.96973
1776.54571	0.96984
1774.49190	0.96946
1772.43809	0.96845
1770.38428	0.96798
1768.33047	0.96822
1766.27666	0.96806
1764.22285	0.96755
1762.16904	0.96735
1760.11523	0.96743
1758.06142	0.96738
1756.00761	0.96697
1753.95380	0.96651
1751.89999	0.96621
1749.84618	0.96557
1747.79237	0.96474
1745.73856	0.96417
1743.68475	0.96338
1741.63094	0.96224
1739.57713	0.96110
1737.52332	0.96036
1735.46951	0.96009
1733.41570	0.95990
1731.36189	0.95922
1729.30808	0.95812
1727.25427	0.95702
1725.20046	0.95617
1723.14665	0.95524
1721.09284	0.95437
1719.03903	0.95379
1716.98522	0.95300
1714.93141	0.95187
1712.87760	0.95111
1710.82379	0.95078
1708.76998	0.95037
1706.71617	0.94929
1704.66236	0.94780
1702.60855	0.94655
1700.55474	0.94504
1698.50093	0.94331
1696.44712	0.94179
1694.39331	0.93997
1692.33950	0.93804
1690.28569	0.93581
1688.23188	0.93333
1686.17807	0.93118
1684.12426	0.92886
1682.07045	0.92654
1680.01664	0.92468
1677.96283	0.92286
1675.90902	0.92092
1673.85521	0.91909
1671.80140	0.91737
1669.74759	0.91501
1667.69378	0.91228
1665.63997	0.91016
1663.58616	0.90842
1661.53235	0.90681
1659.47854	0.90521
1657.42473	0.90366
1655.37092	0.90250
1653.31711	0.90145
1651.26330	0.90035
1649.20949	0.89987
1647.15568	0.90010
1645.10187	0.90024
1643.04806	0.89972
1640.99425	0.89940
1638.94044	0.89966
1636.88663	0.90027
1634.83282	0.90082
1632.77901	0.90095
1630.72520	0.90118
1628.67139	0.90186
1626.61758	0.90257
1624.56377	0.90302
1622.50996	0.90402
1620.45614	0.90575
1618.40233	0.90782
1616.34852	0.91069
1614.29471	0.91345
1612.24090	0.91548
1610.18709	0.91728
1608.13328	0.91875
1606.07947	0.91978
1604.02566	0.92079
1601.97185	0.92208
1599.91804	0.92343
1597.86423	0.92458
1595.81042	0.92553
1593.75661	0.92633
1591.70280	0.92697
1589.64899	0.92747
1587.59518	0.92775
1585.54137	0.92794
1583.48756	0.92812
1581.43375	0.92822
1579.37994	0.92820
1577.32613	0.92819
1575.27232	0.92845
1573.21851	0.92870
1571.16470	0.92856
1569.11089	0.92828
1567.05708	0.92812
1565.00327	0.92764
1562.94946	0.92655
1560.89565	0.92535
1558.84184	0.92513
1556.78803	0.92548
1554.73422	0.92520
1552.68041	0.92473
1550.62660	0.92422
1548.57279	0.92390
1546.51898	0.92376
1544.46517	0.92354
1542.41136	0.92358
1540.35755	0.92449
1538.30374	0.92556
1536.24993	0.92599
1534.19612	0.92662
1532.14231	0.92760
1530.08850	0.92831
1528.03469	0.92897
1525.98088	0.92980
1523.92707	0.93038
1521.87326	0.93083
1519.81945	0.93139
1517.76564	0.93206
1515.71183	0.93308
1513.65802	0.93410
1511.60421	0.93516
1509.55040	0.93640
1507.49659	0.93814
1505.44278	0.94002
1503.38897	0.94070
1501.33516	0.94105
1499.28135	0.94164
1497.22754	0.94260
1495.17373	0.94355
1493.11992	0.94388
1491.06611	0.94370
1489.01230	0.94371
1486.95849	0.94400
1484.90468	0.94380
1482.85087	0.94258
1480.79706	0.93939
1478.74325	0.93110
1476.68944	0.90820
1474.63563	0.86266
1472.58182	0.81668
1470.52801	0.80949
1468.47420	0.82365
1466.42039	0.83141
1464.36658	0.82673
1462.31277	0.82584
1460.25896	0.84112
1458.20515	0.86611
1456.15134	0.88640
1454.09753	0.89552
1452.04372	0.90093
1449.98991	0.90531
1447.93610	0.90867
1445.88229	0.91088
1443.82848	0.91194
1441.77467	0.91268
1439.72086	0.91367
1437.66705	0.91510
1435.61324	0.91683
1433.55943	0.91815
1431.50562	0.91948
1429.45181	0.92124
1427.39800	0.92268
1425.34419	0.92364
1423.29038	0.92443
1421.23657	0.92476
1419.18276	0.92486
1417.12895	0.92538
1415.07514	0.92597
1413.02133	0.92627
1410.96752	0.92650
1408.91371	0.92687
1406.85990	0.92758
1404.80609	0.92856
1402.75228	0.92931
1400.69847	0.92982
1398.64466	0.93027
1396.59085	0.93073
1394.53704	0.93118
1392.48323	0.93142
1390.42942	0.93145
1388.37561	0.93149
1386.32180	0.93130
1384.26799	0.93076
1382.21418	0.93006
1380.16037	0.92908
1378.10656	0.92818
1376.05275	0.92797
1373.99894	0.92812
1371.94513	0.92805
1369.89132	0.92796
1367.83751	0.92823
1365.78370	0.92914
1363.72989	0.93052
1361.67608	0.93182
1359.62227	0.93260
1357.56846	0.93295
1355.51465	0.93332
1353.46084	0.93389
1351.40703	0.93442
1349.35322	0.93484
1347.29941	0.93539
1345.24560	0.93599
1343.19179	0.93621
1341.13798	0.93615
1339.08417	0.93642
1337.03036	0.93681
1334.97655	0.93691
1332.92274	0.93696
1330.86893	0.93694
1328.81512	0.93678
1326.76130	0.93646
1324.70749	0.93608
1322.65368	0.93575
1320.59987	0.93523
1318.54606	0.93455
1316.49225	0.93408
1314.43844	0.93387
1312.38463	0.93373
1310.33082	0.93368
1308.27701	0.93361
1306.22320	0.93342
1304.16939	0.93338
1302.11558	0.93349
1300.06177	0.93348
1298.00796	0.93359
1295.95415	0.93380
1293.90034	0.93382
1291.84653	0.93361
1289.79272	0.93346
1287.73891	0.93352
1285.68510	0.93357
1283.63129	0.93346
1281.57748	0.93305
1279.52367	0.93246
1277.46986	0.93197
1275.41605	0.93137
1273.36224	0.93052
1271.30843	0.92966
1269.25462	0.92892
1267.20081	0.92808
1265.14700	0.92729
1263.09319	0.92688
1261.03938	0.92660
1258.98557	0.92617
1256.93176	0.92570
1254.87795	0.92517
1252.82414	0.92452
1250.77033	0.92376
1248.71652	0.92293
1246.66271	0.92213
1244.60890	0.92164
1242.55509	0.92149
1240.50128	0.92105
1238.44747	0.92017
1236.39366	0.91941
1234.33985	0.91918
1232.28604	0.91908
1230.23223	0.91864
1228.17842	0.91831
1226.12461	0.91828
1224.07080	0.91786
1222.01699	0.91701
1219.96318	0.91645
1217.90937	0.91600
1215.85556	0.91498
1213.80175	0.91362
1211.74794	0.91253
1209.69413	0.91181
1207.64032	0.91096
1205.58651	0.90974
1203.53270	0.90845
1201.47889	0.90738
1199.42508	0.90656
1197.37127	0.90595
1195.31746	0.90529
1193.26365	0.90411
1191.20984	0.90249
1189.15603	0.90099
1187.10222	0.89937
1185.04841	0.89712
1182.99460	0.89461
1180.94079	0.89218
1178.88698	0.88963
1176.83317	0.88707
1174.77936	0.88478
1172.72555	0.88264
1170.67174	0.88053
1168.61793	0.87819
1166.56412	0.87552
1164.51031	0.87280
1162.45650	0.87017
1160.40269	0.86769
1158.34888	0.86556
1156.29507	0.86341
1154.24126	0.86083
1152.18745	0.85807
1150.13364	0.85535
1148.07983	0.85233
1146.02602	0.84903
1143.97221	0.84577
1141.91840	0.84260
1139.86459	0.83916
1137.81078	0.83511
1135.75697	0.83066
1133.70316	0.82606
1131.64935	0.82112
1129.59554	0.81539
1127.54173	0.80897
1125.48792	0.80253
1123.43411	0.79603
1121.38030	0.78932
1119.32649	0.78301
1117.27268	0.77756
1115.21887	0.77272
1113.16506	0.76790
1111.11125	0.76315
1109.05744	0.75879
1107.00363	0.75444
1104.94982	0.74975
1102.89601	0.74505
1100.84220	0.74095
1098.78839	0.73752
1096.73458	0.73439
1094.68077	0.73138
1092.62696	0.72848
1090.57315	0.72592
1088.51934	0.72353
1086.46553	0.72090
1084.41172	0.71816
1082.35791	0.71548
1080.30410	0.71256
1078.25029	0.70927
1076.19648	0.70567
1074.14267	0.70188
1072.08886	0.69822
1070.03505	0.69435
1067.98124	0.68954
1065.92743	0.68372
1063.87362	0.67733
1061.81981	0.67056
1059.76600	0.66312
1057.71219	0.65499
1055.65838	0.64679
1053.60457	0.63859
1051.55076	0.62965
1049.49695	0.62002
1047.44314	0.61060
1045.38933	0.60181
1043.33552	0.59342
1041.28171	0.58522
1039.22790	0.57755
1037.17409	0.57083
1035.12028	0.56518
1033.06647	0.56104
1031.01265	0.55886
1028.95884	0.55862
1026.90503	0.55988
1024.85122	0.56180
1022.79741	0.56351
1020.74360	0.56471
1018.68979	0.56552
1016.63598	0.56582
1014.58217	0.56530
1012.52836	0.56450
1010.47455	0.56402
1008.42074	0.56431
1006.36693	0.56653
1004.31312	0.57133
1002.25931	0.57814
1000.20550	0.58652
998.15169	0.59611
996.09788	0.60665
994.04407	0.61831
991.99026	0.63097
989.93645	0.64393
987.88264	0.65659
985.82883	0.66865
983.77502	0.68031
981.72121	0.69202
979.66740	0.70348
977.61359	0.71416
975.55978	0.72423
973.50597	0.73389
971.45216	0.74281
969.39835	0.75091
967.34454	0.75864
965.29073	0.76619
963.23692	0.77323
961.18311	0.77937
959.12930	0.78455
957.07549	0.78917
955.02168	0.79320
952.96787	0.79658
950.91406	0.79978
948.86025	0.80291
946.80644	0.80541
944.75263	0.80712
942.69882	0.80862
940.64501	0.80998
938.59120	0.81091
936.53739	0.81136
934.48358	0.81166
932.42977	0.81190
930.37596	0.81146
928.32215	0.81005
926.26834	0.80776
924.21453	0.80456
922.16072	0.80060
920.10691	0.79641
918.05310	0.79204
915.99929	0.78738
913.94548	0.78370
911.89167	0.78270
909.83786	0.78515
907.78405	0.79077
905.73024	0.79838
903.67643	0.80674
901.62262	0.81522
899.56881	0.82333
897.51500	0.83046
895.46119	0.83646
893.40738	0.84140
891.35357	0.84524
889.29976	0.84848
887.24595	0.85156
885.19214	0.85399
883.13833	0.85566
881.08452	0.85689
879.03071	0.85791
876.97690	0.85943
874.92309	0.86159
872.86928	0.86411
870.81547	0.86728
868.76166	0.87087
866.70785	0.87386
864.65404	0.87605
862.60023	0.87805
860.54642	0.87993
858.49261	0.88143
856.43880	0.88257
854.38499	0.88404
852.33118	0.88618
850.27737	0.88838
848.22356	0.89004
846.16975	0.89031
844.11594	0.88925
842.06213	0.88847
840.00832	0.88855
837.95451	0.88901
835.90070	0.88925
833.84689	0.88892
831.79308	0.88859
829.73927	0.88846
827.68546	0.88785
825.63165	0.88677
823.57784	0.88629
821.52403	0.88667
819.47022	0.88678
817.41641	0.88594
815.36260	0.88489
813.30879	0.88409
811.25498	0.88327
809.20117	0.88200
807.14736	0.87948
805.09355	0.87609
803.03974	0.87334
800.98593	0.87177
798.93212	0.87090
796.87831	0.87042
794.82450	0.87048
792.77069	0.87058
790.71688	0.87022
788.66307	0.86984
786.60926	0.86988
784.55545	0.87016
782.50164	0.87014
780.44783	0.86988
778.39402	0.87006
776.34021	0.87055
774.28640	0.87112
772.23259	0.87149
770.17878	0.87082
768.12497	0.86941
766.07116	0.86820
764.01735	0.86723
761.96354	0.86612
759.90973	0.86445
757.85592	0.86232
755.80211	0.86046
753.74830	0.85899
751.69449	0.85760
749.64068	0.85663
747.58687	0.85668
745.53306	0.85707
743.47925	0.85708
741.42544	0.85766
739.37163	0.85832
737.31781	0.85660
735.26400	0.84824
733.21019	0.82653
731.15638	0.79911
729.10257	0.78925
727.04876	0.79776
724.99495	0.80143
722.94114	0.78446
720.88733	0.74720
718.83352	0.71139
716.77971	0.70386
714.72590	0.72632
712.67209	0.75955
710.61828	0.78461
708.56447	0.79735
706.51066	0.80227
704.45685	0.80308
702.40304	0.80188
700.34923	0.80011
698.29542	0.79785
696.24161	0.79501
694.18780	0.79265
692.13399	0.79107
690.08018	0.78993
688.02637	0.78948
685.97256	0.78963
683.91875	0.78940
681.86494	0.78884
679.81113	0.78888
677.75732	0.78892
675.70351	0.78797
673.64970	0.78666
671.59589	0.78583
669.54208	0.78544
667.48827	0.78641
665.43446	0.78811
663.38065	0.78961
661.32684	0.79196
659.27303	0.79421
657.21922	0.79481
655.16541	0.79486
653.11160	0.79533
651.05779	0.79557
649.00398	0.79517
646.95017	0.79449
644.89636	0.79339
642.84255	0.79152
640.78874	0.79016
638.73493	0.78967
636.68112	0.78909
634.62731	0.78809
632.57350	0.78654
630.51969	0.78544
628.46588	0.78441
626.41207	0.78221
624.35826	0.77982
622.30445	0.77838
620.25064	0.77801
618.19683	0.77718
616.14302	0.77460
614.08921	0.77082
612.03540	0.76754
609.98159	0.76537
607.92778	0.76258
605.87397	0.75867
603.82016	0.75445
601.76635	0.75107
599.71254	0.74966
597.65873	0.74944
595.60492	0.74854
593.55111	0.74585
591.49730	0.74203
589.44349	0.73854
587.38968	0.73550
585.33587	0.73260
583.28206	0.72968
581.22825	0.72519
579.17444	0.71923
577.12063	0.71417
575.06682	0.71051
573.01301	0.70751
570.95920	0.70477
568.90539	0.70127
566.85158	0.69639
564.79777	0.69154
562.74396	0.68837
560.69015	0.68591
558.63634	0.68178
556.58253	0.67652
554.52872	0.67234
552.47491	0.66761
550.42110	0.66103
548.36729	0.65508
546.31348	0.65026
544.25967	0.64550
542.20586	0.64073
540.15205	0.63555
538.09824	0.63108
536.04443	0.62908
533.99062	0.62880
531.93681	0.62882
529.88300	0.62924
527.82919	0.63152
525.77538	0.63573
523.72157	0.63990
521.66776	0.64456
519.61395	0.65134
517.56014	0.65740
515.50633	0.66066
513.45252	0.66456
511.39871	0.66955
509.34490	0.67312
507.29109	0.67575
505.23728	0.67890
503.18347	0.68173
501.12966	0.68442
499.07585	0.68823
497.02204	0.69053
494.96823	0.68993
492.91442	0.68799
490.86061	0.68461
488.80680	0.67935
486.75299	0.67273
484.69918	0.66460
482.64537	0.65372
480.59156	0.64030
478.53775	0.62607
476.48394	0.61140
474.43013	0.59526
472.37632	0.57972
470.32251	0.56960
468.26870	0.56453
466.21489	0.56392
464.16108	0.56812
462.10727	0.57392
460.05346	0.58005
457.99965	0.58925
455.94584	0.60066
453.89203	0.61006
451.83822	0.61474
449.78441	0.61519
447.73060	0.61648
445.67679	0.61900
443.62298	0.62068
441.56916	0.62393
439.51535	0.62538
437.46154	0.61962
435.40773	0.61250
433.35392	0.61043
431.30011	0.61097
429.24630	0.61330
427.19249	0.61695
425.13868	0.61945
423.08487	0.62372
421.03106	0.63467
418.97725	0.64654
416.92344	0.65152
414.86963	0.65859
412.81582	0.66795
410.76201	0.67458
408.70820	0.68251
406.65439	0.69459
404.60058	0.70637
402.54677	0.71461
400.49296	0.71884
398.43915	0.71979
