3996.70104	0.98949
3994.64724	0.98982
3992.59344	0.98966
3990.53964	0.98933
3988.48583	0.98927
3986.43203	0.98936
3984.37823	0.98952
3982.32442	0.98968
3980.27062	0.98977
3978.21682	0.98982
3976.16301	0.98969
3974.10921	0.98935
3972.05541	0.98903
3970.00160	0.98893
3967.94780	0.98918
3965.89400	0.98984
3963.84019	0.99044
3961.78639	0.99048
3959.73259	0.99021
3957.67878	0.98996
3955.62498	0.99000
3953.57118	0.98998
3951.51737	0.98948
3949.46357	0.98925
3947.40977	0.98992
3945.35596	0.99076
3943.30216	0.99119
3941.24836	0.99110
3939.19455	0.99100
3937.14075	0.99127
3935.08695	0.99097
3933.03315	0.98981
3930.97934	0.98923
3928.92554	0.98993
3926.87174	0.99065
3924.81793	0.99052
3922.76413	0.99032
3920.71033	0.99044
3918.65652	0.99022
3916.60272	0.99001
3914.54892	0.99028
3912.49511	0.99034
3910.44131	0.99030
3908.38751	0.99033
3906.33370	0.99000
3904.27990	0.98945
3902.22610	0.98932
3900.17229	0.99002
3898.11849	0.99071
3896.06469	0.99030
3894.01088	0.98958
3891.95708	0.98957
3889.90328	0.98983
3887.84947	0.98966
3885.79567	0.98962
3883.74187	0.99021
3881.68807	0.99103
3879.63426	0.99153
3877.58046	0.99112
3875.52666	0.99027
3873.47285	0.98994
3871.41905	0.99022
3869.36525	0.99016
3867.31144	0.98992
3865.25764	0.99042
3863.20384	0.99142
3861.15003	0.99193
3859.09623	0.99132
3857.04243	0.98990
3854.98862	0.98858
3852.93482	0.98860
3850.88102	0.98962
3848.82721	0.99001
3846.77341	0.98994
3844.71961	0.99000
3842.66580	0.99024
3840.61200	0.99006
3838.55820	0.98982
3836.50439	0.99027
3834.45059	0.99078
3832.39679	0.99094
3830.34298	0.99090
3828.28918	0.99058
3826.23538	0.99005
3824.18158	0.98989
3822.12777	0.99074
3820.07397	0.99175
3818.02017	0.99125
3815.96636	0.99004
3813.91256	0.98972
3811.85876	0.99014
3809.80495	0.99031
3807.75115	0.99036
3805.69735	0.99046
3803.64354	0.99056
3801.58974	0.99104
3799.53594	0.99119
3797.48213	0.99075
3795.42833	0.99003
3793.37453	0.98922
3791.32072	0.98905
3789.26692	0.98963
3787.21312	0.99027
3785.15931	0.99032
3783.10551	0.99025
3781.05171	0.99062
3778.99790	0.99078
3776.94410	0.99065
3774.89030	0.99080
3772.83650	0.99104
3770.78269	0.99099
3768.72889	0.99061
3766.67509	0.99024
3764.62128	0.99007
3762.56748	0.99016
3760.51368	0.99026
3758.45987	0.99045
3756.40607	0.99077
3754.35227	0.99089
3752.29846	0.99083
3750.24466	0.99021
3748.19086	0.98921
3746.13705	0.98922
3744.08325	0.99042
3742.02945	0.99076
3739.97564	0.99023
3737.92184	0.99000
3735.86804	0.98980
3733.81423	0.98928
3731.76043	0.98939
3729.70663	0.99025
3727.65282	0.99122
3725.59902	0.99164
3723.54522	0.99097
3721.49141	0.98982
3719.43761	0.98941
3717.38381	0.98987
3715.33001	0.99017
3713.27620	0.98966
3711.22240	0.98833
3709.16860	0.98723
3707.11479	0.98700
3705.06099	0.98686
3703.00719	0.98698
3700.95338	0.98718
3698.89958	0.98680
3696.84578	0.98643
3694.79197	0.98635
3692.73817	0.98663
3690.68437	0.98697
3688.63056	0.98657
3686.57676	0.98612
3684.52296	0.98610
3682.46915	0.98628
3680.41535	0.98641
3678.36155	0.98631
3676.30774	0.98649
3674.25394	0.98655
3672.20014	0.98600
3670.14633	0.98549
3668.09253	0.98542
3666.03873	0.98574
3663.98492	0.98607
3661.93112	0.98599
3659.87732	0.98539
3657.82352	0.98452
3655.76971	0.98413
3653.71591	0.98421
3651.66211	0.98383
3649.60830	0.98331
3647.55450	0.98323
3645.50070	0.98288
3643.44689	0.98231
3641.39309	0.98198
3639.33929	0.98221
3637.28548	0.98253
3635.23168	0.98191
3633.17788	0.98062
3631.12407	0.97963
3629.07027	0.97884
3627.01647	0.97856
3624.96266	0.97894
3622.90886	0.97914
3620.85506	0.97878
3618.80125	0.97875
3616.74745	0.97945
3614.69365	0.97966
3612.63984	0.97919
3610.58604	0.97878
3608.53224	0.97904
3606.47844	0.97957
3604.42463	0.97943
3602.37083	0.97866
3600.31703	0.97781
3598.26322	0.97715
3596.20942	0.97694
3594.15562	0.97746
3592.10181	0.97824
3590.04801	0.97880
3587.99421	0.97893
3585.94040	0.97842
3583.88660	0.97790
3581.83280	0.97774
3579.77899	0.97722
3577.72519	0.97595
3575.67139	0.97489
3573.61758	0.97475
3571.56378	0.97505
3569.50998	0.97559
3567.45617	0.97605
3565.40237	0.97527
3563.34857	0.97421
3561.29476	0.97406
3559.24096	0.97425
3557.18716	0.97371
3555.13335	0.97282
3553.07955	0.97292
3551.02575	0.97375
3548.97195	0.97389
3546.91814	0.97307
3544.86434	0.97237
3542.81054	0.97245
3540.75673	0.97261
3538.70293	0.97239
3536.64913	0.97185
3534.59532	0.97110
3532.54152	0.97063
3530.48772	0.97081
3528.43391	0.97127
3526.38011	0.97178
3524.32631	0.97207
3522.27250	0.97150
3520.21870	0.97050
3518.16490	0.96995
3516.11109	0.96995
3514.05729	0.97023
3512.00349	0.97026
3509.94968	0.96993
3507.89588	0.96994
3505.84208	0.97031
3503.78827	0.97037
3501.73447	0.97020
3499.68067	0.97018
3497.62687	0.96974
3495.57306	0.96894
3493.51926	0.96875
3491.46546	0.96914
3489.41165	0.96920
3487.35785	0.96853
3485.30405	0.96782
3483.25024	0.96769
3481.19644	0.96776
3479.14264	0.96741
3477.08883	0.96663
3475.03503	0.96633
3472.98123	0.96690
3470.92742	0.96742
3468.87362	0.96737
3466.81982	0.96693
3464.76601	0.96644
3462.71221	0.96631
3460.65841	0.96652
3458.60460	0.96640
3456.55080	0.96601
3454.49700	0.96589
3452.44319	0.96606
3450.38939	0.96612
3448.33559	0.96603
3446.28178	0.96607
3444.22798	0.96613
3442.17418	0.96580
3440.12038	0.96512
3438.06657	0.96460
3436.01277	0.96459
3433.95897	0.96484
3431.90516	0.96481
3429.85136	0.96448
3427.79756	0.96419
3425.74375	0.96400
3423.68995	0.96412
3421.63615	0.96477
3419.58234	0.96515
3417.52854	0.96473
3415.47474	0.96432
3413.42093	0.96400
3411.36713	0.96299
3409.31333	0.96208
3407.25952	0.96242
3405.20572	0.96319
3403.15192	0.96353
3401.09811	0.96394
3399.04431	0.96407
3396.99051	0.96322
3394.93670	0.96250
3392.88290	0.96266
3390.82910	0.96285
3388.77529	0.96271
3386.72149	0.96244
3384.66769	0.96216
3382.61389	0.96198
3380.56008	0.96197
3378.50628	0.96215
3376.45248	0.96231
3374.39867	0.96234
3372.34487	0.96218
3370.29107	0.96197
3368.23726	0.96200
3366.18346	0.96208
3364.12966	0.96182
3362.07585	0.96142
3360.02205	0.96145
3357.96825	0.96164
3355.91444	0.96141
3353.86064	0.96106
3351.80684	0.96117
3349.75303	0.96161
3347.69923	0.96180
3345.64543	0.96160
3343.59162	0.96145
3341.53782	0.96173
3339.48402	0.96213
3337.43021	0.96224
3335.37641	0.96208
3333.32261	0.96183
3331.26881	0.96172
3329.21500	0.96174
3327.16120	0.96179
3325.10740	0.96215
3323.05359	0.96241
3320.99979	0.96202
3318.94599	0.96167
3316.89218	0.96169
3314.83838	0.96183
3312.78458	0.96201
3310.73077	0.96179
3308.67697	0.96131
3306.62317	0.96123
3304.56936	0.96145
3302.51556	0.96152
3300.46176	0.96170
3298.40795	0.96179
3296.35415	0.96139
3294.30035	0.96143
3292.24654	0.96210
3290.19274	0.96220
3288.13894	0.96172
3286.08513	0.96147
3284.03133	0.96119
3281.97753	0.96067
3279.92372	0.96041
3277.86992	0.96054
3275.81612	0.96106
3273.76232	0.96194
3271.70851	0.96249
3269.65471	0.96226
3267.60091	0.96193
3265.54710	0.96179
3263.49330	0.96144
3261.43950	0.96127
3259.38569	0.96159
3257.33189	0.96184
3255.27809	0.96180
3253.22428	0.96179
3251.17048	0.96181
3249.11668	0.96176
3247.06287	0.96190
3245.00907	0.96225
3242.95527	0.96221
3240.90146	0.96186
3238.84766	0.96203
3236.79386	0.96226
3234.74005	0.96185
3232.68625	0.96150
3230.63245	0.96167
3228.57864	0.96190
3226.52484	0.96191
3224.47104	0.96181
3222.41724	0.96190
3220.36343	0.96209
3218.30963	0.96202
3216.25583	0.96198
3214.20202	0.96221
3212.14822	0.96253
3210.09442	0.96284
3208.04061	0.96281
3205.98681	0.96264
3203.93301	0.96277
3201.87920	0.96278
3199.82540	0.96281
3197.77160	0.96285
3195.71779	0.96239
3193.66399	0.96206
3191.61019	0.96243
3189.55638	0.96283
3187.50258	0.96313
3185.44878	0.96344
3183.39497	0.96308
3181.34117	0.96245
3179.28737	0.96252
3177.23356	0.96304
3175.17976	0.96347
3173.12596	0.96356
3171.07215	0.96341
3169.01835	0.96340
3166.96455	0.96348
3164.91075	0.96337
3162.85694	0.96331
3160.80314	0.96346
3158.74934	0.96365
3156.69553	0.96369
3154.64173	0.96373
3152.58793	0.96402
3150.53412	0.96430
3148.48032	0.96431
3146.42652	0.96423
3144.37271	0.96405
3142.31891	0.96377
3140.26511	0.96382
3138.21130	0.96442
3136.15750	0.96487
3134.10370	0.96462
3132.04989	0.96415
3129.99609	0.96401
3127.94229	0.96440
3125.88848	0.96503
3123.83468	0.96535
3121.78088	0.96535
3119.72707	0.96534
3117.67327	0.96552
3115.61947	0.96573
3113.56566	0.96595
3111.51186	0.96626
3109.45806	0.96647
3107.40426	0.96667
3105.35045	0.96669
3103.29665	0.96649
3101.24285	0.96657
3099.18904	0.96653
3097.13524	0.96617
3095.08144	0.96630
3093.02763	0.96689
3090.97383	0.96713
3088.92003	0.96674
3086.86622	0.96624
3084.81242	0.96625
3082.75862	0.96668
3080.70481	0.96685
3078.65101	0.96673
3076.59721	0.96673
3074.54340	0.96705
3072.48960	0.96746
3070.43580	0.96751
3068.38199	0.96747
3066.32819	0.96731
3064.27439	0.96696
3062.22058	0.96696
3060.16678	0.96743
3058.11298	0.96804
3056.05918	0.96837
3054.00537	0.96824
3051.95157	0.96805
3049.89777	0.96814
3047.84396	0.96841
3045.79016	0.96856
3043.73636	0.96845
3041.68255	0.96827
3039.62875	0.96825
3037.57495	0.96853
3035.52114	0.96897
3033.46734	0.96925
3031.41354	0.96943
3029.35973	0.96955
3027.30593	0.96943
3025.25213	0.96920
3023.19832	0.96923
3021.14452	0.96939
3019.09072	0.96942
3017.03691	0.96975
3014.98311	0.97036
3012.92931	0.97041
3010.87550	0.97002
3008.82170	0.96997
3006.76790	0.97043
3004.71409	0.97078
3002.66029	0.97026
3000.60649	0.96947
2998.55269	0.96964
2996.49888	0.97058
2994.44508	0.97154
2992.39128	0.97204
2990.33747	0.97162
2988.28367	0.97078
2986.22987	0.97056
2984.17606	0.97067
2982.12226	0.97051
2980.06846	0.97062
2978.01465	0.97116
2975.96085	0.97139
2973.90705	0.97106
2971.85324	0.97092
2969.79944	0.97118
2967.74564	0.97129
2965.69183	0.97142
2963.63803	0.97162
2961.58423	0.97126
2959.53042	0.97068
2957.47662	0.97054
2955.42282	0.97066
2953.36901	0.97072
2951.31521	0.97077
2949.26141	0.97096
2947.20761	0.97112
2945.15380	0.97125
2943.10000	0.97137
2941.04620	0.97154
2938.99239	0.97194
2936.93859	0.97224
2934.88479	0.97203
2932.83098	0.97160
2930.77718	0.97141
2928.72338	0.97171
2926.66957	0.97229
2924.61577	0.97254
2922.56197	0.97227
2920.50816	0.97195
2918.45436	0.97195
2916.40056	0.97214
2914.34675	0.97257
2912.29295	0.97303
2910.23915	0.97331
2908.18534	0.97351
2906.13154	0.97355
2904.07774	0.97344
2902.02393	0.97338
2899.97013	0.97344
2897.91633	0.97345
2895.86252	0.97325
2893.80872	0.97313
2891.75492	0.97333
2889.70112	0.97355
2887.64731	0.97368
2885.59351	0.97395
2883.53971	0.97438
2881.48590	0.97473
2879.43210	0.97479
2877.37830	0.97476
2875.32449	0.97502
2873.27069	0.97537
2871.21689	0.97562
2869.16308	0.97580
2867.10928	0.97571
2865.05548	0.97557
2863.00167	0.97547
2860.94787	0.97551
2858.89407	0.97595
2856.84026	0.97634
2854.78646	0.97638
2852.73266	0.97639
2850.67885	0.97642
2848.62505	0.97644
2846.57125	0.97646
2844.51744	0.97649
2842.46364	0.97663
2840.40984	0.97676
2838.35603	0.97684
2836.30223	0.97713
2834.24843	0.97765
2832.19463	0.97800
2830.14082	0.97792
2828.08702	0.97781
2826.03322	0.97791
2823.97941	0.97786
2821.92561	0.97771
2819.87181	0.97779
2817.81800	0.97790
2815.76420	0.97782
2813.71040	0.97777
2811.65659	0.97794
2809.60279	0.97819
2807.54899	0.97837
2805.49518	0.97877
2803.44138	0.97937
2801.38758	0.97969
2799.33377	0.97962
2797.27997	0.97954
2795.22617	0.97964
2793.17236	0.97962
2791.11856	0.97957
2789.06476	0.97953
2787.01095	0.97929
2784.95715	0.97931
2782.90335	0.97978
2780.84955	0.97997
2778.79574	0.97995
2776.74194	0.97998
2774.68814	0.97985
2772.63433	0.97969
2770.58053	0.97977
2768.52673	0.97997
2766.47292	0.98021
2764.41912	0.98047
2762.36532	0.98058
2760.31151	0.98055
2758.25771	0.98060
2756.20391	0.98048
2754.15010	0.98003
2752.09630	0.97992
2750.04250	0.98042
2747.98869	0.98104
2745.93489	0.98118
2743.88109	0.98093
2741.82728	0.98096
2739.77348	0.98115
2737.71968	0.98117
2735.66587	0.98126
2733.61207	0.98130
2731.55827	0.98134
2729.50446	0.98165
2727.45066	0.98188
2725.39686	0.98181
2723.34306	0.98186
2721.28925	0.98213
2719.23545	0.98234
2717.18165	0.98252
2715.12784	0.98265
2713.07404	0.98266
2711.02024	0.98259
2708.96643	0.98258
2706.91263	0.98265
2704.85883	0.98264
2702.80502	0.98253
2700.75122	0.98258
2698.69742	0.98265
2696.64361	0.98249
2694.58981	0.98238
2692.53601	0.98241
2690.48220	0.98249
2688.42840	0.98244
2686.37460	0.98233
2684.32079	0.98258
2682.26699	0.98283
2680.21319	0.98256
2678.15938	0.98211
2676.10558	0.98187
2674.05178	0.98179
2671.99797	0.98200
2669.94417	0.98251
2667.89037	0.98295
2665.83657	0.98310
2663.78276	0.98301
2661.72896	0.98291
2659.67516	0.98301
2657.62135	0.98317
2655.56755	0.98341
2653.51375	0.98366
2651.45994	0.98352
2649.40614	0.98324
2647.35234	0.98321
2645.29853	0.98329
2643.24473	0.98326
2641.19093	0.98307
2639.13712	0.98284
2637.08332	0.98255
2635.02952	0.98246
2632.97571	0.98272
2630.92191	0.98295
2628.86811	0.98317
2626.81430	0.98350
2624.76050	0.98375
2622.70670	0.98378
2620.65289	0.98352
2618.59909	0.98323
2616.54529	0.98316
2614.49149	0.98320
2612.43768	0.98355
2610.38388	0.98424
2608.33008	0.98456
2606.27627	0.98436
2604.22247	0.98431
2602.16867	0.98458
2600.11486	0.98484
2598.06106	0.98478
2596.00726	0.98441
2593.95345	0.98451
2591.89965	0.98498
2589.84585	0.98474
2587.79204	0.98416
2585.73824	0.98410
2583.68444	0.98431
2581.63063	0.98421
2579.57683	0.98394
2577.52303	0.98392
2575.46922	0.98420
2573.41542	0.98487
2571.36162	0.98569
2569.30781	0.98594
2567.25401	0.98547
2565.20021	0.98490
2563.14640	0.98484
2561.09260	0.98533
2559.03880	0.98588
2556.98500	0.98591
2554.93119	0.98532
2552.87739	0.98476
2550.82359	0.98472
2548.76978	0.98461
2546.71598	0.98437
2544.66218	0.98460
2542.60837	0.98491
2540.55457	0.98474
2538.50077	0.98434
2536.44696	0.98421
2534.39316	0.98464
2532.33936	0.98533
2530.28555	0.98577
2528.23175	0.98574
2526.17795	0.98537
2524.12414	0.98546
2522.07034	0.98609
2520.01654	0.98630
2517.96273	0.98602
2515.90893	0.98561
2513.85513	0.98504
2511.80132	0.98460
2509.74752	0.98475
2507.69372	0.98548
2505.63992	0.98612
2503.58611	0.98630
2501.53231	0.98622
2499.47851	0.98572
2497.42470	0.98508
2495.37090	0.98496
2493.31710	0.98550
2491.26329	0.98595
2489.20949	0.98579
2487.15569	0.98560
2485.10188	0.98540
2483.04808	0.98502
2480.99428	0.98497
2478.94047	0.98556
2476.88667	0.98663
2474.83287	0.98767
2472.77906	0.98765
2470.72526	0.98659
2468.67146	0.98595
2466.61765	0.98640
2464.56385	0.98713
2462.51005	0.98697
2460.45624	0.98599
2458.40244	0.98508
2456.34864	0.98451
2454.29483	0.98460
2452.24103	0.98513
2450.18723	0.98537
2448.13343	0.98543
2446.07962	0.98538
2444.02582	0.98537
2441.97202	0.98570
2439.91821	0.98607
2437.86441	0.98589
2435.81061	0.98512
2433.75680	0.98459
2431.70300	0.98479
2429.64920	0.98539
2427.59539	0.98563
2425.54159	0.98538
2423.48779	0.98556
2421.43398	0.98596
2419.38018	0.98612
2417.32638	0.98637
2415.27257	0.98662
2413.21877	0.98716
2411.16497	0.98778
2409.11116	0.98715
2407.05736	0.98588
2405.00356	0.98566
2402.94975	0.98602
2400.89595	0.98588
2398.84215	0.98554
2396.78834	0.98562
2394.73454	0.98597
2392.68074	0.98615
2390.62694	0.98650
2388.57313	0.98680
2386.51933	0.98616
2384.46553	0.98522
2382.41172	0.98528
2380.35792	0.98610
2378.30412	0.98659
2376.25031	0.98626
2374.19651	0.98528
2372.14271	0.98470
2370.08890	0.98543
2368.03510	0.98626
2365.98130	0.98563
2363.92749	0.98448
2361.87369	0.98432
2359.81989	0.98413
2357.76608	0.98318
2355.71228	0.98276
2353.65848	0.98325
2351.60467	0.98424
2349.55087	0.98543
2347.49707	0.98612
2345.44326	0.98554
2343.38946	0.98404
2341.33566	0.98294
2339.28186	0.98277
2337.22805	0.98331
2335.17425	0.98368
2333.12045	0.98367
2331.06664	0.98415
2329.01284	0.98430
2326.95904	0.98281
2324.90523	0.98116
2322.85143	0.98106
2320.79763	0.98182
2318.74382	0.98214
2316.69002	0.98235
2314.63622	0.98307
2312.58241	0.98384
2310.52861	0.98393
2308.47481	0.98346
2306.42100	0.98330
2304.36720	0.98388
2302.31340	0.98462
2300.25959	0.98466
2298.20579	0.98437
2296.15199	0.98440
2294.09818	0.98445
2292.04438	0.98431
2289.99058	0.98396
2287.93677	0.98342
2285.88297	0.98299
2283.82917	0.98271
2281.77537	0.98251
2279.72156	0.98247
2277.66776	0.98319
2275.61396	0.98476
2273.56015	0.98559
2271.50635	0.98525
2269.45255	0.98543
2267.39874	0.98634
2265.34494	0.98672
2263.29114	0.98657
2261.23733	0.98625
2259.18353	0.98553
2257.12973	0.98448
2255.07592	0.98382
2253.02212	0.98405
2250.96832	0.98520
2248.91451	0.98662
2246.86071	0.98726
2244.80691	0.98713
2242.75310	0.98702
2240.69930	0.98670
2238.64550	0.98550
2236.59169	0.98418
2234.53789	0.98436
2232.48409	0.98627
2230.43029	0.98813
2228.37648	0.98883
2226.32268	0.98883
2224.26888	0.98759
2222.21507	0.98602
2220.16127	0.98622
2218.10747	0.98716
2216.05366	0.98726
2213.99986	0.98694
2211.94606	0.98710
2209.89225	0.98778
2207.83845	0.98788
2205.78465	0.98736
2203.73084	0.98757
2201.67704	0.98901
2199.62324	0.99023
2197.56943	0.98929
2195.51563	0.98761
2193.46183	0.98797
2191.40802	0.98912
2189.35422	0.98791
2187.30042	0.98450
2185.24661	0.98173
2183.19281	0.98177
2181.13901	0.98359
2179.08520	0.98381
2177.03140	0.98332
2174.97760	0.98535
2172.92380	0.98860
2170.86999	0.99025
2168.81619	0.99035
2166.76239	0.98955
2164.70858	0.98671
2162.65478	0.98363
2160.60098	0.98361
2158.54717	0.98543
2156.49337	0.98649
2154.43957	0.98715
2152.38576	0.98814
2150.33196	0.98826
2148.27816	0.98791
2146.22435	0.98834
2144.17055	0.98894
2142.11675	0.98834
2140.06294	0.98705
2138.00914	0.98756
2135.95534	0.98921
2133.90153	0.99033
2131.84773	0.99073
2129.79393	0.98969
2127.74012	0.98808
2125.68632	0.98741
2123.63252	0.98699
2121.57871	0.98675
2119.52491	0.98687
2117.47111	0.98615
2115.41731	0.98502
2113.36350	0.98472
2111.30970	0.98515
2109.25590	0.98506
2107.20209	0.98489
2105.14829	0.98596
2103.09449	0.98645
2101.04068	0.98593
2098.98688	0.98637
2096.93308	0.98748
2094.87927	0.98804
2092.82547	0.98781
2090.77167	0.98684
2088.71786	0.98594
2086.66406	0.98602
2084.61026	0.98661
2082.55645	0.98647
2080.50265	0.98574
2078.44885	0.98660
2076.39504	0.98788
2074.34124	0.98692
2072.28744	0.98540
2070.23363	0.98541
2068.17983	0.98607
2066.12603	0.98608
2064.07223	0.98582
2062.01842	0.98578
2059.96462	0.98591
2057.91082	0.98655
2055.85701	0.98698
2053.80321	0.98580
2051.74941	0.98404
2049.69560	0.98417
2047.64180	0.98684
2045.58800	0.98929
2043.53419	0.98828
2041.48039	0.98466
2039.42659	0.98212
2037.37278	0.98196
2035.31898	0.98321
2033.26518	0.98617
2031.21137	0.98846
2029.15757	0.98832
2027.10377	0.98880
2025.04996	0.98996
2022.99616	0.98927
2020.94236	0.98660
2018.88855	0.98447
2016.83475	0.98529
2014.78095	0.98740
2012.72714	0.98736
2010.67334	0.98460
2008.61954	0.98337
2006.56574	0.98621
2004.51193	0.98781
2002.45813	0.98575
2000.40433	0.98441
1998.35052	0.98476
1996.29672	0.98446
1994.24292	0.98390
1992.18911	0.98474
1990.13531	0.98727
1988.08151	0.98906
1986.02770	0.98820
1983.97390	0.98680
1981.92010	0.98581
1979.86629	0.98508
1977.81249	0.98633
1975.75869	0.98990
1973.70488	0.99264
1971.65108	0.99204
1969.59728	0.99051
1967.54347	0.99043
1965.48967	0.99039
1963.43587	0.98956
1961.38206	0.98821
1959.32826	0.98666
1957.27446	0.98716
1955.22066	0.98929
1953.16685	0.99038
1951.11305	0.99059
1949.05925	0.99022
1947.00544	0.98878
1944.95164	0.98844
1942.89784	0.99019
1940.84403	0.99041
1938.79023	0.98943
1936.73643	0.98982
1934.68262	0.99057
1932.62882	0.99030
1930.57502	0.98954
1928.52121	0.98898
1926.46741	0.98850
1924.41361	0.98900
1922.35980	0.99004
1920.30600	0.99004
1918.25220	0.98970
1916.19839	0.99026
1914.14459	0.99056
1912.09079	0.98956
1910.03698	0.98918
1907.98318	0.99014
1905.92938	0.99066
1903.87557	0.99028
1901.82177	0.98965
1899.76797	0.98968
1897.71417	0.99039
1895.66036	0.99037
1893.60656	0.98941
1891.55276	0.98890
1889.49895	0.98932
1887.44515	0.98989
1885.39135	0.99018
1883.33754	0.99035
1881.28374	0.99007
1879.22994	0.98949
1877.17613	0.98901
1875.12233	0.98852
1873.06853	0.98810
1871.01472	0.98797
1868.96092	0.98789
1866.90712	0.98808
1864.85331	0.98860
1862.79951	0.98871
1860.74571	0.98874
1858.69190	0.98918
1856.63810	0.98950
1854.58430	0.98911
1852.53049	0.98863
1850.47669	0.98883
1848.42289	0.98899
1846.36908	0.98862
1844.31528	0.98883
1842.26148	0.98986
1840.20768	0.99009
1838.15387	0.98959
1836.10007	0.98936
1834.04627	0.98922
1831.99246	0.98862
1829.93866	0.98814
1827.88486	0.98873
1825.83105	0.98942
1823.77725	0.98896
1821.72345	0.98809
1819.66964	0.98760
1817.61584	0.98776
1815.56204	0.98857
1813.50823	0.98892
1811.45443	0.98840
1809.40063	0.98789
1807.34682	0.98791
1805.29302	0.98836
1803.23922	0.98881
1801.18541	0.98867
1799.13161	0.98808
1797.07781	0.98802
1795.02400	0.98843
1792.97020	0.98842
1790.91640	0.98805
1788.86260	0.98810
1786.80879	0.98847
1784.75499	0.98882
1782.70119	0.98905
1780.64738	0.98899
1778.59358	0.98851
1776.53978	0.98817
1774.48597	0.98831
1772.43217	0.98853
1770.37837	0.98837
1768.32456	0.98793
1766.27076	0.98765
1764.21696	0.98754
1762.16315	0.98727
1760.10935	0.98704
1758.05555	0.98720
1756.00174	0.98751
1753.94794	0.98764
1751.89414	0.98742
1749.84033	0.98718
1747.78653	0.98746
1745.73273	0.98751
1743.67892	0.98683
1741.62512	0.98618
1739.57132	0.98623
1737.51751	0.98670
1735.46371	0.98711
1733.40991	0.98734
1731.35611	0.98698
1729.30230	0.98631
1727.24850	0.98585
1725.19470	0.98550
1723.14089	0.98505
1721.08709	0.98471
1719.03329	0.98429
1716.97948	0.98356
1714.92568	0.98301
1712.87188	0.98286
1710.81807	0.98275
1708.76427	0.98234
1706.71047	0.98162
1704.65666	0.98096
1702.60286	0.98023
1700.54906	0.97927
1698.49525	0.97888
1696.44145	0.97848
1694.38765	0.97745
1692.33384	0.97658
1690.28004	0.97580
1688.22624	0.97491
1686.17243	0.97393
1684.11863	0.97268
1682.06483	0.97149
1680.01103	0.97055
1677.95722	0.96964
1675.90342	0.96858
1673.84962	0.96754
1671.79581	0.96673
1669.74201	0.96558
1667.68821	0.96411
1665.63440	0.96318
1663.58060	0.96240
1661.52680	0.96144
1659.47299	0.96085
1657.41919	0.96075
1655.36539	0.96094
1653.31158	0.96051
1651.25778	0.95889
1649.20398	0.95772
1647.15017	0.95675
1645.09637	0.95627
1643.04257	0.95636
1640.98876	0.95629
1638.93496	0.95594
1636.88116	0.95509
1634.82735	0.95372
1632.77355	0.95309
1630.71975	0.95303
1628.66594	0.95286
1626.61214	0.95247
1624.55834	0.95214
1622.50454	0.95176
1620.45073	0.95119
1618.39693	0.95074
1616.34313	0.95060
1614.28932	0.95064
1612.23552	0.95087
1610.18172	0.95114
1608.12791	0.95097
1606.07411	0.95046
1604.02031	0.95025
1601.96650	0.95048
1599.91270	0.95085
1597.85890	0.95114
1595.80509	0.95123
1593.75129	0.95118
1591.69749	0.95139
1589.64368	0.95205
1587.58988	0.95295
1585.53608	0.95368
1583.48227	0.95422
1581.42847	0.95490
1579.37467	0.95601
1577.32086	0.95764
1575.26706	0.95919
1573.21326	0.96008
1571.15945	0.96096
1569.10565	0.96189
1567.05185	0.96244
1564.99805	0.96300
1562.94424	0.96382
1560.89044	0.96467
1558.83664	0.96536
1556.78283	0.96540
1554.72903	0.96522
1552.67523	0.96524
1550.62142	0.96553
1548.56762	0.96578
1546.51382	0.96594
1544.46001	0.96613
1542.40621	0.96605
1540.35241	0.96582
1538.29860	0.96594
1536.24480	0.96608
1534.19100	0.96635
1532.13719	0.96672
1530.08339	0.96681
1528.02959	0.96691
1525.97578	0.96715
1523.92198	0.96732
1521.86818	0.96771
1519.81437	0.96821
1517.76057	0.96872
1515.70677	0.96938
1513.65297	0.96983
1511.59916	0.96978
1509.54536	0.96931
1507.49156	0.96931
1505.43775	0.97048
1503.38395	0.97115
1501.33015	0.97127
1499.27634	0.97133
1497.22254	0.97165
1495.16874	0.97225
1493.11493	0.97270
1491.06113	0.97295
1489.00733	0.97316
1486.95352	0.97338
1484.89972	0.97338
1482.84592	0.97326
1480.79211	0.97340
1478.73831	0.97351
1476.68451	0.97329
1474.63070	0.97298
1472.57690	0.97249
1470.52310	0.97199
1468.46929	0.97185
1466.41549	0.97178
1464.36169	0.97158
1462.30788	0.97119
1460.25408	0.97054
1458.20028	0.96982
1456.14648	0.96975
1454.09267	0.97010
1452.03887	0.97014
1449.98507	0.96985
1447.93126	0.96912
1445.87746	0.96808
1443.82366	0.96744
1441.76985	0.96720
1439.71605	0.96683
1437.66225	0.96586
1435.60844	0.96449
1433.55464	0.96375
1431.50084	0.96345
1429.44703	0.96340
1427.39323	0.96368
1425.33943	0.96410
1423.28562	0.96458
1421.23182	0.96519
1419.17802	0.96612
1417.12421	0.96695
1415.07041	0.96738
1413.01661	0.96807
1410.96280	0.96914
1408.90900	0.97008
1406.85520	0.97091
1404.80139	0.97173
1402.74759	0.97226
1400.69379	0.97283
1398.63999	0.97357
1396.58618	0.97389
1394.53238	0.97377
1392.47858	0.97378
1390.42477	0.97388
1388.37097	0.97400
1386.31717	0.97415
1384.26336	0.97422
1382.20956	0.97421
1380.15576	0.97431
1378.10195	0.97466
1376.04815	0.97503
1373.99435	0.97528
1371.94054	0.97540
1369.88674	0.97529
1367.83294	0.97517
1365.77913	0.97543
1363.72533	0.97590
1361.67153	0.97609
1359.61772	0.97595
1357.56392	0.97580
1355.51012	0.97585
1353.45631	0.97621
1351.40251	0.97676
1349.34871	0.97705
1347.29491	0.97715
1345.24110	0.97738
1343.18730	0.97742
1341.13350	0.97714
1339.07969	0.97702
1337.02589	0.97717
1334.97209	0.97745
1332.91828	0.97771
1330.86448	0.97774
1328.81068	0.97759
1326.75687	0.97751
1324.70307	0.97757
1322.64927	0.97778
1320.59546	0.97823
1318.54166	0.97873
1316.48786	0.97891
1314.43405	0.97883
1312.38025	0.97876
1310.32645	0.97879
1308.27264	0.97893
1306.21884	0.97906
1304.16504	0.97899
1302.11123	0.97883
1300.05743	0.97873
1298.00363	0.97851
1295.94982	0.97810
1293.89602	0.97768
1291.84222	0.97742
1289.78842	0.97741
1287.73461	0.97769
1285.68081	0.97804
1283.62701	0.97812
1281.57320	0.97808
1279.51940	0.97824
1277.46560	0.97851
1275.41179	0.97858
1273.35799	0.97849
1271.30419	0.97867
1269.25038	0.97910
1267.19658	0.97919
1265.14278	0.97883
1263.08897	0.97842
1261.03517	0.97812
1258.98137	0.97793
1256.92756	0.97793
1254.87376	0.97784
1252.81996	0.97757
1250.76615	0.97741
1248.71235	0.97731
1246.65855	0.97716
1244.60474	0.97703
1242.55094	0.97681
1240.49714	0.97638
1238.44334	0.97578
1236.38953	0.97518
1234.33573	0.97482
1232.28193	0.97479
1230.22812	0.97486
1228.17432	0.97455
1226.12052	0.97394
1224.06671	0.97345
1222.01291	0.97283
1219.95911	0.97205
1217.90530	0.97132
1215.85150	0.97074
1213.79770	0.97032
1211.74389	0.96958
1209.69009	0.96812
1207.63629	0.96654
1205.58248	0.96532
1203.52868	0.96398
1201.47488	0.96231
1199.42107	0.96083
1197.36727	0.95938
1195.31347	0.95765
1193.25966	0.95600
1191.20586	0.95450
1189.15206	0.95279
1187.09825	0.95095
1185.04445	0.94927
1182.99065	0.94765
1180.93685	0.94592
1178.88304	0.94404
1176.82924	0.94189
1174.77544	0.93958
1172.72163	0.93745
1170.66783	0.93542
1168.61403	0.93325
1166.56022	0.93102
1164.50642	0.92877
1162.45262	0.92644
1160.39881	0.92414
1158.34501	0.92221
1156.29121	0.92060
1154.23740	0.91867
1152.18360	0.91633
1150.12980	0.91409
1148.07599	0.91198
1146.02219	0.90957
1143.96839	0.90700
1141.91458	0.90484
1139.86078	0.90328
1137.80698	0.90175
1135.75317	0.89973
1133.69937	0.89749
1131.64557	0.89542
1129.59176	0.89355
1127.53796	0.89167
1125.48416	0.88954
1123.43036	0.88730
1121.37655	0.88514
1119.32275	0.88309
1117.26895	0.88078
1115.21514	0.87797
1113.16134	0.87516
1111.10754	0.87268
1109.05373	0.87050
1106.99993	0.86826
1104.94613	0.86570
1102.89232	0.86310
1100.83852	0.86093
1098.78472	0.85943
1096.73091	0.85802
1094.67711	0.85638
1092.62331	0.85498
1090.56950	0.85380
1088.51570	0.85252
1086.46190	0.85124
1084.40809	0.85010
1082.35429	0.84936
1080.30049	0.84925
1078.24668	0.84926
1076.19288	0.84905
1074.13908	0.84911
1072.08528	0.84947
1070.03147	0.84973
1067.97767	0.85004
1065.92387	0.85040
1063.87006	0.85034
1061.81626	0.85018
1059.76246	0.85047
1057.70865	0.85081
1055.65485	0.85086
1053.60105	0.85059
1051.54724	0.85002
1049.49344	0.84937
1047.43964	0.84876
1045.38583	0.84812
1043.33203	0.84735
1041.27823	0.84627
1039.22442	0.84490
1037.17062	0.84344
1035.11682	0.84174
1033.06301	0.83960
1031.00921	0.83739
1028.95541	0.83549
1026.90160	0.83383
1024.84780	0.83217
1022.79400	0.82989
1020.74019	0.82673
1018.68639	0.82352
1016.63259	0.82062
1014.57879	0.81778
1012.52498	0.81499
1010.47118	0.81183
1008.41738	0.80816
1006.36357	0.80441
1004.30977	0.80114
1002.25597	0.79851
1000.20216	0.79615
998.14836	0.79394
996.09456	0.79171
994.04075	0.78930
991.98695	0.78716
989.93315	0.78540
987.87934	0.78375
985.82554	0.78238
983.77174	0.78159
981.71793	0.78129
979.66413	0.78116
977.61033	0.78129
975.55652	0.78239
973.50272	0.78476
971.44892	0.78819
969.39511	0.79287
967.34131	0.79898
965.28751	0.80592
963.23371	0.81316
961.17990	0.82036
959.12610	0.82655
957.07230	0.83168
955.01849	0.83702
952.96469	0.84247
950.91089	0.84710
948.85708	0.85126
946.80328	0.85556
944.74948	0.85977
942.69567	0.86359
940.64187	0.86701
938.58807	0.87013
936.53426	0.87315
934.48046	0.87624
932.42666	0.87914
930.37285	0.88181
928.31905	0.88436
926.26525	0.88646
924.21144	0.88792
922.15764	0.88892
920.10384	0.88958
918.05003	0.88974
915.99623	0.88950
913.94243	0.88924
911.88862	0.88889
909.83482	0.88858
907.78102	0.88855
905.72722	0.88879
903.67341	0.88912
901.61961	0.88902
899.56581	0.88854
897.51200	0.88860
895.45820	0.88975
893.40440	0.89149
891.35059	0.89349
889.29679	0.89591
887.24299	0.89826
885.18918	0.90002
883.13538	0.90126
881.08158	0.90196
879.02777	0.90274
876.97397	0.90406
874.92017	0.90513
872.86636	0.90577
870.81256	0.90650
868.75876	0.90727
866.70495	0.90788
864.65115	0.90821
862.59735	0.90825
860.54354	0.90801
858.48974	0.90752
856.43594	0.90689
854.38213	0.90640
852.32833	0.90597
850.27453	0.90479
848.22073	0.90286
846.16692	0.90110
844.11312	0.89960
842.05932	0.89783
840.00551	0.89617
837.95171	0.89524
835.89791	0.89467
833.84410	0.89411
831.79030	0.89355
829.73650	0.89248
827.68269	0.89084
825.62889	0.88940
823.57509	0.88892
821.52128	0.88892
819.46748	0.88836
817.41368	0.88691
815.35987	0.88520
813.30607	0.88393
811.25227	0.88238
809.19846	0.88012
807.14466	0.87754
805.09086	0.87465
803.03705	0.87171
800.98325	0.86978
798.92945	0.86934
796.87565	0.86929
794.82184	0.86891
792.76804	0.86883
790.71424	0.86918
788.66043	0.86944
786.60663	0.86972
784.55283	0.87038
782.49902	0.87085
780.44522	0.87072
778.39142	0.87085
776.33761	0.87160
774.28381	0.87232
772.23001	0.87257
770.17620	0.87231
768.12240	0.87206
766.06860	0.87201
764.01479	0.87169
761.96099	0.87111
759.90719	0.87084
757.85338	0.87045
755.79958	0.86908
753.74578	0.86736
751.69197	0.86652
749.63817	0.86691
747.58437	0.86771
745.53056	0.86787
743.47676	0.86758
741.42296	0.86765
739.36916	0.86817
737.31535	0.86884
735.26155	0.86914
733.20775	0.86885
731.15394	0.86866
729.10014	0.86839
727.04634	0.86748
724.99253	0.86668
722.93873	0.86656
720.88493	0.86657
718.83112	0.86636
716.77732	0.86659
714.72352	0.86673
712.66971	0.86552
710.61591	0.86388
708.56211	0.86251
706.50830	0.86102
704.45450	0.86025
702.40070	0.85982
700.34689	0.85804
698.29309	0.85496
696.23929	0.85239
694.18548	0.85187
692.13168	0.85266
690.07788	0.85256
688.02408	0.85080
685.97027	0.84905
683.91647	0.84858
681.86267	0.84824
679.80886	0.84735
677.75506	0.84665
675.70126	0.84599
673.64745	0.84488
671.59365	0.84400
669.53985	0.84296
667.48604	0.84067
665.43224	0.83998
663.37844	0.84104
661.32463	0.84169
659.27083	0.84128
657.21703	0.84055
655.16322	0.83935
653.10942	0.83749
651.05562	0.83634
649.00181	0.83709
646.94801	0.83855
644.89421	0.83908
642.84040	0.83926
640.78660	0.83987
638.73280	0.84057
636.67899	0.84069
634.62519	0.83945
632.57139	0.83730
630.51759	0.83629
628.46378	0.83672
626.40998	0.83626
624.35618	0.83392
622.30237	0.83142
620.24857	0.82918
618.19477	0.82613
616.14096	0.82306
614.08716	0.82054
612.03336	0.81805
609.97955	0.81552
607.92575	0.81261
605.87195	0.80900
603.81814	0.80494
601.76434	0.80126
599.71054	0.79857
597.65673	0.79696
595.60293	0.79598
593.54913	0.79490
591.49532	0.79296
589.44152	0.79092
587.38772	0.78987
585.33391	0.78908
583.28011	0.78766
581.22631	0.78587
579.17250	0.78485
577.11870	0.78379
575.06490	0.78174
573.01110	0.77991
570.95729	0.77872
568.90349	0.77769
566.84969	0.77593
564.79588	0.77340
562.74208	0.77084
560.68828	0.76833
558.63447	0.76628
556.58067	0.76460
554.52687	0.76203
552.47306	0.75833
550.41926	0.75533
548.36546	0.75356
546.31165	0.75075
544.25785	0.74587
542.20405	0.74056
540.15024	0.73588
538.09644	0.73229
536.04264	0.72918
533.98883	0.72576
531.93503	0.72344
529.88123	0.72180
527.82742	0.71865
525.77362	0.71427
523.71982	0.71112
521.66602	0.71011
519.61221	0.71011
517.55841	0.71105
515.50461	0.71244
513.45080	0.71293
511.39700	0.71286
509.34320	0.71356
507.28939	0.71556
505.23559	0.71835
503.18179	0.72062
501.12798	0.72057
499.07418	0.71849
497.02038	0.71638
494.96657	0.71469
492.91277	0.71350
490.85897	0.71243
488.80516	0.70924
486.75136	0.70463
484.69756	0.70153
482.64375	0.69975
480.58995	0.69768
478.53615	0.69446
476.48234	0.69002
474.42854	0.68533
472.37474	0.68146
470.32093	0.67999
468.26713	0.67947
466.21333	0.67773
464.15953	0.67691
462.10572	0.67804
460.05192	0.67943
457.99812	0.68053
455.94431	0.68261
453.89051	0.68559
451.83671	0.68710
449.78290	0.68634
447.72910	0.68518
445.67530	0.68398
443.62149	0.68208
441.56769	0.68134
439.51389	0.68098
437.46008	0.67770
435.40628	0.67509
433.35248	0.67622
431.29867	0.67771
429.24487	0.67797
427.19107	0.67498
425.13726	0.66974
423.08346	0.66880
421.02966	0.67203
418.97585	0.67137
416.92205	0.66773
414.86825	0.66920
412.81445	0.67135
410.76064	0.67054
408.70684	0.66905
406.65304	0.66783
404.59923	0.66573
402.54543	0.66360
400.49163	0.66301
398.43782	0.66409
