3996.70104	0.96241
3994.64724	0.96217
3992.59344	0.96170
3990.53964	0.96164
3988.48583	0.96180
3986.43203	0.96158
3984.37823	0.96117
3982.32442	0.96115
3980.27062	0.96125
3978.21682	0.96124
3976.16301	0.96161
3974.10921	0.96204
3972.05541	0.96196
3970.00160	0.96157
3967.94780	0.96125
3965.89400	0.96142
3963.84019	0.96209
3961.78639	0.96248
3959.73259	0.96196
3957.67878	0.96117
3955.62498	0.96111
3953.57118	0.96187
3951.51737	0.96244
3949.46357	0.96195
3947.40977	0.96125
3945.35596	0.96128
3943.30216	0.96165
3941.24836	0.96193
3939.19455	0.96204
3937.14075	0.96196
3935.08695	0.96173
3933.03315	0.96164
3930.97934	0.96180
3928.92554	0.96193
3926.87174	0.96192
3924.81793	0.96153
3922.76413	0.96116
3920.71033	0.96148
3918.65652	0.96203
3916.60272	0.96202
3914.54892	0.96148
3912.49511	0.96123
3910.44131	0.96181
3908.38751	0.96266
3906.33370	0.96301
3904.27990	0.96298
3902.22610	0.96291
3900.17229	0.96245
3898.11849	0.96218
3896.06469	0.96286
3894.01088	0.96356
3891.95708	0.96336
3889.90328	0.96273
3887.84947	0.96232
3885.79567	0.96234
3883.74187	0.96264
3881.68807	0.96242
3879.63426	0.96193
3877.58046	0.96151
3875.52666	0.96116
3873.47285	0.96141
3871.41905	0.96178
3869.36525	0.96196
3867.31144	0.96227
3865.25764	0.96260
3863.20384	0.96339
3861.15003	0.96394
3859.09623	0.96357
3857.04243	0.96314
3854.98862	0.96314
3852.93482	0.96307
3850.88102	0.96310
3848.82721	0.96331
3846.77341	0.96339
3844.71961	0.96346
3842.66580	0.96331
3840.61200	0.96266
3838.55820	0.96214
3836.50439	0.96266
3834.45059	0.96318
3832.39679	0.96305
3830.34298	0.96303
3828.28918	0.96309
3826.23538	0.96268
3824.18158	0.96252
3822.12777	0.96354
3820.07397	0.96445
3818.02017	0.96428
3815.96636	0.96435
3813.91256	0.96408
3811.85876	0.96314
3809.80495	0.96238
3807.75115	0.96189
3805.69735	0.96173
3803.64354	0.96207
3801.58974	0.96276
3799.53594	0.96337
3797.48213	0.96378
3795.42833	0.96414
3793.37453	0.96412
3791.32072	0.96375
3789.26692	0.96312
3787.21312	0.96261
3785.15931	0.96274
3783.10551	0.96324
3781.05171	0.96380
3778.99790	0.96408
3776.94410	0.96372
3774.89030	0.96325
3772.83650	0.96320
3770.78269	0.96330
3768.72889	0.96322
3766.67509	0.96348
3764.62128	0.96411
3762.56748	0.96450
3760.51368	0.96457
3758.45987	0.96437
3756.40607	0.96427
3754.35227	0.96445
3752.29846	0.96481
3750.24466	0.96498
3748.19086	0.96410
3746.13705	0.96291
3744.08325	0.96291
3742.02945	0.96355
3739.97564	0.96388
3737.92184	0.96425
3735.86804	0.96402
3733.81423	0.96333
3731.76043	0.96356
3729.70663	0.96416
3727.65282	0.96418
3725.59902	0.96370
3723.54522	0.96337
3721.49141	0.96314
3719.43761	0.96247
3717.38381	0.96169
3715.33001	0.96117
3713.27620	0.96057
3711.22240	0.95940
3709.16860	0.95723
3707.11479	0.95449
3705.06099	0.95156
3703.00719	0.94853
3700.95338	0.94578
3698.89958	0.94394
3696.84578	0.94344
3694.79197	0.94406
3692.73817	0.94553
3690.68437	0.94731
3688.63056	0.94879
3686.57676	0.95036
3684.52296	0.95136
3682.46915	0.95117
3680.41535	0.95050
3678.36155	0.95007
3676.30774	0.95009
3674.25394	0.95069
3672.20014	0.95088
3670.14633	0.95032
3668.09253	0.94942
3666.03873	0.94858
3663.98492	0.94827
3661.93112	0.94837
3659.87732	0.94825
3657.82352	0.94748
3655.76971	0.94610
3653.71591	0.94522
3651.66211	0.94486
3649.60830	0.94420
3647.55450	0.94442
3645.50070	0.94530
3643.44689	0.94528
3641.39309	0.94492
3639.33929	0.94448
3637.28548	0.94359
3635.23168	0.94304
3633.17788	0.94283
3631.12407	0.94192
3629.07027	0.94056
3627.01647	0.93982
3624.96266	0.93935
3622.90886	0.93862
3620.85506	0.93793
3618.80125	0.93763
3616.74745	0.93804
3614.69365	0.93929
3612.63984	0.94058
3610.58604	0.94106
3608.53224	0.94110
3606.47844	0.94124
3604.42463	0.94157
3602.37083	0.94169
3600.31703	0.94141
3598.26322	0.94129
3596.20942	0.94169
3594.15562	0.94227
3592.10181	0.94247
3590.04801	0.94236
3587.99421	0.94272
3585.94040	0.94312
3583.88660	0.94256
3581.83280	0.94190
3579.77899	0.94211
3577.72519	0.94284
3575.67139	0.94310
3573.61758	0.94255
3571.56378	0.94176
3569.50998	0.94129
3567.45617	0.94104
3565.40237	0.94097
3563.34857	0.94104
3561.29476	0.94087
3559.24096	0.94049
3557.18716	0.94027
3555.13335	0.94019
3553.07955	0.94013
3551.02575	0.94025
3548.97195	0.94058
3546.91814	0.94082
3544.86434	0.94046
3542.81054	0.93982
3540.75673	0.93954
3538.70293	0.93929
3536.64913	0.93915
3534.59532	0.93955
3532.54152	0.93991
3530.48772	0.94000
3528.43391	0.94038
3526.38011	0.94086
3524.32631	0.94097
3522.27250	0.94072
3520.21870	0.94022
3518.16490	0.93991
3516.11109	0.93989
3514.05729	0.93973
3512.00349	0.93951
3509.94968	0.93951
3507.89588	0.93967
3505.84208	0.93985
3503.78827	0.93989
3501.73447	0.93977
3499.68067	0.93968
3497.62687	0.93948
3495.57306	0.93898
3493.51926	0.93854
3491.46546	0.93847
3489.41165	0.93872
3487.35785	0.93900
3485.30405	0.93896
3483.25024	0.93888
3481.19644	0.93930
3479.14264	0.93962
3477.08883	0.93905
3475.03503	0.93809
3472.98123	0.93767
3470.92742	0.93775
3468.87362	0.93775
3466.81982	0.93777
3464.76601	0.93789
3462.71221	0.93797
3460.65841	0.93786
3458.60460	0.93732
3456.55080	0.93670
3454.49700	0.93647
3452.44319	0.93655
3450.38939	0.93693
3448.33559	0.93750
3446.28178	0.93766
3444.22798	0.93726
3442.17418	0.93682
3440.12038	0.93650
3438.06657	0.93612
3436.01277	0.93584
3433.95897	0.93615
3431.90516	0.93684
3429.85136	0.93679
3427.79756	0.93583
3425.74375	0.93513
3423.68995	0.93507
3421.63615	0.93510
3419.58234	0.93524
3417.52854	0.93553
3415.47474	0.93553
3413.42093	0.93543
3411.36713	0.93562
3409.31333	0.93599
3407.25952	0.93599
3405.20572	0.93524
3403.15192	0.93445
3401.09811	0.93428
3399.04431	0.93450
3396.99051	0.93474
3394.93670	0.93507
3392.88290	0.93536
3390.82910	0.93514
3388.77529	0.93468
3386.72149	0.93459
3384.66769	0.93458
3382.61389	0.93435
3380.56008	0.93424
3378.50628	0.93444
3376.45248	0.93488
3374.39867	0.93551
3372.34487	0.93580
3370.29107	0.93541
3368.23726	0.93504
3366.18346	0.93525
3364.12966	0.93553
3362.07585	0.93565
3360.02205	0.93601
3357.96825	0.93613
3355.91444	0.93570
3353.86064	0.93556
3351.80684	0.93575
3349.75303	0.93568
3347.69923	0.93557
3345.64543	0.93546
3343.59162	0.93541
3341.53782	0.93600
3339.48402	0.93691
3337.43021	0.93719
3335.37641	0.93713
3333.32261	0.93686
3331.26881	0.93621
3329.21500	0.93593
3327.16120	0.93607
3325.10740	0.93610
3323.05359	0.93626
3320.99979	0.93670
3318.94599	0.93713
3316.89218	0.93739
3314.83838	0.93751
3312.78458	0.93722
3310.73077	0.93666
3308.67697	0.93645
3306.62317	0.93659
3304.56936	0.93679
3302.51556	0.93689
3300.46176	0.93687
3298.40795	0.93689
3296.35415	0.93673
3294.30035	0.93645
3292.24654	0.93657
3290.19274	0.93712
3288.13894	0.93753
3286.08513	0.93756
3284.03133	0.93766
3281.97753	0.93820
3279.92372	0.93861
3277.86992	0.93839
3275.81612	0.93780
3273.76232	0.93749
3271.70851	0.93778
3269.65471	0.93819
3267.60091	0.93840
3265.54710	0.93855
3263.49330	0.93862
3261.43950	0.93880
3259.38569	0.93904
3257.33189	0.93903
3255.27809	0.93905
3253.22428	0.93942
3251.17048	0.93981
3249.11668	0.93998
3247.06287	0.94041
3245.00907	0.94121
3242.95527	0.94159
3240.90146	0.94149
3238.84766	0.94145
3236.79386	0.94143
3234.74005	0.94123
3232.68625	0.94098
3230.63245	0.94094
3228.57864	0.94097
3226.52484	0.94114
3224.47104	0.94192
3222.41724	0.94273
3220.36343	0.94295
3218.30963	0.94285
3216.25583	0.94270
3214.20202	0.94260
3212.14822	0.94249
3210.09442	0.94251
3208.04061	0.94305
3205.98681	0.94379
3203.93301	0.94398
3201.87920	0.94391
3199.82540	0.94426
3197.77160	0.94480
3195.71779	0.94529
3193.66399	0.94581
3191.61019	0.94606
3189.55638	0.94588
3187.50258	0.94570
3185.44878	0.94595
3183.39497	0.94635
3181.34117	0.94656
3179.28737	0.94691
3177.23356	0.94753
3175.17976	0.94766
3173.12596	0.94706
3171.07215	0.94652
3169.01835	0.94664
3166.96455	0.94738
3164.91075	0.94818
3162.85694	0.94834
3160.80314	0.94809
3158.74934	0.94809
3156.69553	0.94839
3154.64173	0.94875
3152.58793	0.94890
3150.53412	0.94885
3148.48032	0.94896
3146.42652	0.94953
3144.37271	0.95011
3142.31891	0.95007
3140.26511	0.94976
3138.21130	0.94970
3136.15750	0.94977
3134.10370	0.94990
3132.04989	0.95007
3129.99609	0.95009
3127.94229	0.95005
3125.88848	0.95040
3123.83468	0.95082
3121.78088	0.95090
3119.72707	0.95113
3117.67327	0.95140
3115.61947	0.95120
3113.56566	0.95080
3111.51186	0.95075
3109.45806	0.95145
3107.40426	0.95238
3105.35045	0.95273
3103.29665	0.95275
3101.24285	0.95276
3099.18904	0.95265
3097.13524	0.95255
3095.08144	0.95254
3093.02763	0.95232
3090.97383	0.95182
3088.92003	0.95164
3086.86622	0.95181
3084.81242	0.95217
3082.75862	0.95284
3080.70481	0.95351
3078.65101	0.95388
3076.59721	0.95393
3074.54340	0.95379
3072.48960	0.95374
3070.43580	0.95396
3068.38199	0.95429
3066.32819	0.95457
3064.27439	0.95481
3062.22058	0.95471
3060.16678	0.95441
3058.11298	0.95459
3056.05918	0.95527
3054.00537	0.95577
3051.95157	0.95570
3049.89777	0.95535
3047.84396	0.95546
3045.79016	0.95609
3043.73636	0.95662
3041.68255	0.95652
3039.62875	0.95587
3037.57495	0.95566
3035.52114	0.95618
3033.46734	0.95657
3031.41354	0.95642
3029.35973	0.95630
3027.30593	0.95641
3025.25213	0.95647
3023.19832	0.95664
3021.14452	0.95667
3019.09072	0.95646
3017.03691	0.95660
3014.98311	0.95703
3012.92931	0.95731
3010.87550	0.95765
3008.82170	0.95794
3006.76790	0.95778
3004.71409	0.95752
3002.66029	0.95743
3000.60649	0.95749
2998.55269	0.95767
2996.49888	0.95771
2994.44508	0.95766
2992.39128	0.95784
2990.33747	0.95818
2988.28367	0.95814
2986.22987	0.95782
2984.17606	0.95773
2982.12226	0.95760
2980.06846	0.95698
2978.01465	0.95602
2975.96085	0.95534
2973.90705	0.95498
2971.85324	0.95424
2969.79944	0.95283
2967.74564	0.95091
2965.69183	0.94873
2963.63803	0.94652
2961.58423	0.94474
2959.53042	0.94346
2957.47662	0.94216
2955.42282	0.94096
2953.36901	0.94013
2951.31521	0.93932
2949.26141	0.93829
2947.20761	0.93650
2945.15380	0.93283
2943.10000	0.92730
2941.04620	0.92068
2938.99239	0.91290
2936.93859	0.90336
2934.88479	0.89175
2932.83098	0.87795
2930.77718	0.86173
2928.72338	0.84306
2926.66957	0.82150
2924.61577	0.79640
2922.56197	0.76773
2920.50816	0.73696
2918.45436	0.70837
2916.40056	0.68964
2914.34675	0.68805
2912.29295	0.70382
2910.23915	0.72908
2908.18534	0.75467
2906.13154	0.77599
2904.07774	0.79257
2902.02393	0.80578
2899.97013	0.81671
2897.91633	0.82576
2895.86252	0.83371
2893.80872	0.84123
2891.75492	0.84864
2889.70112	0.85641
2887.64731	0.86442
2885.59351	0.87194
2883.53971	0.87901
2881.48590	0.88592
2879.43210	0.89210
2877.37830	0.89744
2875.32449	0.90227
2873.27069	0.90600
2871.21689	0.90836
2869.16308	0.90982
2867.10928	0.91006
2865.05548	0.90807
2863.00167	0.90307
2860.94787	0.89448
2858.89407	0.88103
2856.84026	0.86047
2854.78646	0.83028
2852.73266	0.78994
2850.67885	0.74750
2848.62505	0.72164
2846.57125	0.72636
2844.51744	0.75577
2842.46364	0.79293
2840.40984	0.82612
2838.35603	0.85167
2836.30223	0.87020
2834.24843	0.88374
2832.19463	0.89396
2830.14082	0.90183
2828.08702	0.90783
2826.03322	0.91237
2823.97941	0.91622
2821.92561	0.91983
2819.87181	0.92278
2817.81800	0.92505
2815.76420	0.92717
2813.71040	0.92907
2811.65659	0.93063
2809.60279	0.93209
2807.54899	0.93362
2805.49518	0.93473
2803.44138	0.93521
2801.38758	0.93594
2799.33377	0.93700
2797.27997	0.93796
2795.22617	0.93888
2793.17236	0.93959
2791.11856	0.94029
2789.06476	0.94118
2787.01095	0.94182
2784.95715	0.94245
2782.90335	0.94344
2780.84955	0.94433
2778.79574	0.94497
2776.74194	0.94546
2774.68814	0.94577
2772.63433	0.94587
2770.58053	0.94590
2768.52673	0.94609
2766.47292	0.94651
2764.41912	0.94702
2762.36532	0.94758
2760.31151	0.94814
2758.25771	0.94849
2756.20391	0.94841
2754.15010	0.94813
2752.09630	0.94833
2750.04250	0.94884
2747.98869	0.94917
2745.93489	0.94940
2743.88109	0.94964
2741.82728	0.94973
2739.77348	0.94958
2737.71968	0.94947
2735.66587	0.94953
2733.61207	0.94971
2731.55827	0.94990
2729.50446	0.95001
2727.45066	0.95025
2725.39686	0.95066
2723.34306	0.95104
2721.28925	0.95128
2719.23545	0.95139
2717.18165	0.95149
2715.12784	0.95164
2713.07404	0.95180
2711.02024	0.95192
2708.96643	0.95188
2706.91263	0.95187
2704.85883	0.95217
2702.80502	0.95251
2700.75122	0.95262
2698.69742	0.95285
2696.64361	0.95335
2694.58981	0.95366
2692.53601	0.95373
2690.48220	0.95391
2688.42840	0.95397
2686.37460	0.95375
2684.32079	0.95357
2682.26699	0.95348
2680.21319	0.95336
2678.15938	0.95329
2676.10558	0.95328
2674.05178	0.95337
2671.99797	0.95367
2669.94417	0.95382
2667.89037	0.95359
2665.83657	0.95360
2663.78276	0.95393
2661.72896	0.95391
2659.67516	0.95359
2657.62135	0.95356
2655.56755	0.95386
2653.51375	0.95403
2651.45994	0.95382
2649.40614	0.95365
2647.35234	0.95373
2645.29853	0.95392
2643.24473	0.95406
2641.19093	0.95394
2639.13712	0.95368
2637.08332	0.95351
2635.02952	0.95341
2632.97571	0.95363
2630.92191	0.95437
2628.86811	0.95511
2626.81430	0.95544
2624.76050	0.95540
2622.70670	0.95511
2620.65289	0.95519
2618.59909	0.95577
2616.54529	0.95603
2614.49149	0.95606
2612.43768	0.95667
2610.38388	0.95739
2608.33008	0.95736
2606.27627	0.95693
2604.22247	0.95655
2602.16867	0.95653
2600.11486	0.95717
2598.06106	0.95779
2596.00726	0.95770
2593.95345	0.95742
2591.89965	0.95783
2589.84585	0.95871
2587.79204	0.95932
2585.73824	0.95946
2583.68444	0.95909
2581.63063	0.95864
2579.57683	0.95845
2577.52303	0.95833
2575.46922	0.95860
2573.41542	0.95911
2571.36162	0.95928
2569.30781	0.95911
2567.25401	0.95912
2565.20021	0.95947
2563.14640	0.95966
2561.09260	0.95953
2559.03880	0.95921
2556.98500	0.95907
2554.93119	0.95924
2552.87739	0.95953
2550.82359	0.95980
2548.76978	0.95997
2546.71598	0.96037
2544.66218	0.96080
2542.60837	0.96076
2540.55457	0.96049
2538.50077	0.96062
2536.44696	0.96128
2534.39316	0.96171
2532.33936	0.96134
2530.28555	0.96058
2528.23175	0.96029
2526.17795	0.96041
2524.12414	0.96034
2522.07034	0.96016
2520.01654	0.96060
2517.96273	0.96170
2515.90893	0.96238
2513.85513	0.96231
2511.80132	0.96227
2509.74752	0.96211
2507.69372	0.96111
2505.63992	0.95982
2503.58611	0.95969
2501.53231	0.96077
2499.47851	0.96129
2497.42470	0.96065
2495.37090	0.96018
2493.31710	0.96077
2491.26329	0.96178
2489.20949	0.96231
2487.15569	0.96253
2485.10188	0.96238
2483.04808	0.96172
2480.99428	0.96107
2478.94047	0.96076
2476.88667	0.96090
2474.83287	0.96127
2472.77906	0.96153
2470.72526	0.96137
2468.67146	0.96121
2466.61765	0.96161
2464.56385	0.96199
2462.51005	0.96166
2460.45624	0.96111
2458.40244	0.96095
2456.34864	0.96118
2454.29483	0.96143
2452.24103	0.96172
2450.18723	0.96239
2448.13343	0.96283
2446.07962	0.96279
2444.02582	0.96288
2441.97202	0.96269
2439.91821	0.96205
2437.86441	0.96193
2435.81061	0.96237
2433.75680	0.96244
2431.70300	0.96199
2429.64920	0.96175
2427.59539	0.96234
2425.54159	0.96320
2423.48779	0.96348
2421.43398	0.96331
2419.38018	0.96307
2417.32638	0.96279
2415.27257	0.96238
2413.21877	0.96226
2411.16497	0.96276
2409.11116	0.96323
2407.05736	0.96329
2405.00356	0.96297
2402.94975	0.96258
2400.89595	0.96271
2398.84215	0.96299
2396.78834	0.96291
2394.73454	0.96289
2392.68074	0.96303
2390.62694	0.96283
2388.57313	0.96247
2386.51933	0.96237
2384.46553	0.96261
2382.41172	0.96302
2380.35792	0.96312
2378.30412	0.96286
2376.25031	0.96274
2374.19651	0.96290
2372.14271	0.96329
2370.08890	0.96332
2368.03510	0.96278
2365.98130	0.96295
2363.92749	0.96379
2361.87369	0.96411
2359.81989	0.96409
2357.76608	0.96388
2355.71228	0.96337
2353.65848	0.96293
2351.60467	0.96250
2349.55087	0.96199
2347.49707	0.96155
2345.44326	0.96121
2343.38946	0.96130
2341.33566	0.96215
2339.28186	0.96280
2337.22805	0.96267
2335.17425	0.96248
2333.12045	0.96230
2331.06664	0.96181
2329.01284	0.96130
2326.95904	0.96131
2324.90523	0.96193
2322.85143	0.96234
2320.79763	0.96210
2318.74382	0.96201
2316.69002	0.96254
2314.63622	0.96343
2312.58241	0.96404
2310.52861	0.96368
2308.47481	0.96303
2306.42100	0.96328
2304.36720	0.96368
2302.31340	0.96327
2300.25959	0.96280
2298.20579	0.96305
2296.15199	0.96354
2294.09818	0.96335
2292.04438	0.96312
2289.99058	0.96372
2287.93677	0.96413
2285.88297	0.96368
2283.82917	0.96365
2281.77537	0.96461
2279.72156	0.96530
2277.66776	0.96517
2275.61396	0.96498
2273.56015	0.96520
2271.50635	0.96528
2269.45255	0.96482
2267.39874	0.96459
2265.34494	0.96443
2263.29114	0.96346
2261.23733	0.96221
2259.18353	0.96207
2257.12973	0.96304
2255.07592	0.96379
2253.02212	0.96423
2250.96832	0.96473
2248.91451	0.96491
2246.86071	0.96513
2244.80691	0.96558
2242.75310	0.96577
2240.69930	0.96524
2238.64550	0.96444
2236.59169	0.96478
2234.53789	0.96567
2232.48409	0.96583
2230.43029	0.96606
2228.37648	0.96652
2226.32268	0.96624
2224.26888	0.96562
2222.21507	0.96592
2220.16127	0.96703
2218.10747	0.96768
2216.05366	0.96710
2213.99986	0.96675
2211.94606	0.96773
2209.89225	0.96824
2207.83845	0.96751
2205.78465	0.96646
2203.73084	0.96610
2201.67704	0.96626
2199.62324	0.96625
2197.56943	0.96653
2195.51563	0.96700
2193.46183	0.96741
2191.40802	0.96816
2189.35422	0.96929
2187.30042	0.97035
2185.24661	0.97013
2183.19281	0.96773
2181.13901	0.96551
2179.08520	0.96679
2177.03140	0.96914
2174.97760	0.96946
2172.92380	0.96956
2170.86999	0.96993
2168.81619	0.96965
2166.76239	0.96929
2164.70858	0.96866
2162.65478	0.96737
2160.60098	0.96607
2158.54717	0.96625
2156.49337	0.96732
2154.43957	0.96761
2152.38576	0.96787
2150.33196	0.96789
2148.27816	0.96679
2146.22435	0.96613
2144.17055	0.96818
2142.11675	0.97043
2140.06294	0.96978
2138.00914	0.96905
2135.95534	0.97033
2133.90153	0.97152
2131.84773	0.97101
2129.79393	0.96977
2127.74012	0.96862
2125.68632	0.96697
2123.63252	0.96512
2121.57871	0.96445
2119.52491	0.96525
2117.47111	0.96619
2115.41731	0.96602
2113.36350	0.96483
2111.30970	0.96467
2109.25590	0.96629
2107.20209	0.96706
2105.14829	0.96642
2103.09449	0.96641
2101.04068	0.96633
2098.98688	0.96524
2096.93308	0.96556
2094.87927	0.96733
2092.82547	0.96748
2090.77167	0.96636
2088.71786	0.96585
2086.66406	0.96511
2084.61026	0.96463
2082.55645	0.96558
2080.50265	0.96651
2078.44885	0.96715
2076.39504	0.96842
2074.34124	0.96970
2072.28744	0.96952
2070.23363	0.96766
2068.17983	0.96585
2066.12603	0.96544
2064.07223	0.96630
2062.01842	0.96763
2059.96462	0.96887
2057.91082	0.96911
2055.85701	0.96755
2053.80321	0.96582
2051.74941	0.96594
2049.69560	0.96777
2047.64180	0.96977
2045.58800	0.96965
2043.53419	0.96750
2041.48039	0.96623
2039.42659	0.96701
2037.37278	0.96906
2035.31898	0.97033
2033.26518	0.96871
2031.21137	0.96645
2029.15757	0.96643
2027.10377	0.96666
2025.04996	0.96547
2022.99616	0.96555
2020.94236	0.96849
2018.88855	0.97132
2016.83475	0.97161
2014.78095	0.97043
2012.72714	0.96944
2010.67334	0.96968
2008.61954	0.97059
2006.56574	0.96967
2004.51193	0.96769
2002.45813	0.96740
2000.40433	0.96703
1998.35052	0.96588
1996.29672	0.96685
1994.24292	0.96914
1992.18911	0.97054
1990.13531	0.97167
1988.08151	0.97161
1986.02770	0.96953
1983.97390	0.96702
1981.92010	0.96432
1979.86629	0.96382
1977.81249	0.96818
1975.75869	0.97247
1973.70488	0.97295
1971.65108	0.97283
1969.59728	0.97313
1967.54347	0.97157
1965.48967	0.96851
1963.43587	0.96841
1961.38206	0.97187
1959.32826	0.97405
1957.27446	0.97293
1955.22066	0.96996
1953.16685	0.96699
1951.11305	0.96621
1949.05925	0.96736
1947.00544	0.96847
1944.95164	0.96897
1942.89784	0.96900
1940.84403	0.96921
1938.79023	0.96975
1936.73643	0.96961
1934.68262	0.96811
1932.62882	0.96619
1930.57502	0.96597
1928.52121	0.96756
1926.46741	0.96920
1924.41361	0.96965
1922.35980	0.96901
1920.30600	0.96849
1918.25220	0.96813
1916.19839	0.96720
1914.14459	0.96630
1912.09079	0.96620
1910.03698	0.96633
1907.98318	0.96614
1905.92938	0.96623
1903.87557	0.96613
1901.82177	0.96530
1899.76797	0.96497
1897.71417	0.96553
1895.66036	0.96616
1893.60656	0.96657
1891.55276	0.96660
1889.49895	0.96574
1887.44515	0.96466
1885.39135	0.96440
1883.33754	0.96451
1881.28374	0.96427
1879.22994	0.96396
1877.17613	0.96433
1875.12233	0.96469
1873.06853	0.96445
1871.01472	0.96454
1868.96092	0.96521
1866.90712	0.96563
1864.85331	0.96584
1862.79951	0.96621
1860.74571	0.96558
1858.69190	0.96392
1856.63810	0.96323
1854.58430	0.96410
1852.53049	0.96509
1850.47669	0.96475
1848.42289	0.96414
1846.36908	0.96482
1844.31528	0.96585
1842.26148	0.96601
1840.20768	0.96584
1838.15387	0.96582
1836.10007	0.96569
1834.04627	0.96544
1831.99246	0.96520
1829.93866	0.96479
1827.88486	0.96453
1825.83105	0.96484
1823.77725	0.96515
1821.72345	0.96522
1819.66964	0.96546
1817.61584	0.96569
1815.56204	0.96567
1813.50823	0.96555
1811.45443	0.96531
1809.40063	0.96493
1807.34682	0.96477
1805.29302	0.96490
1803.23922	0.96491
1801.18541	0.96461
1799.13161	0.96447
1797.07781	0.96472
1795.02400	0.96505
1792.97020	0.96513
1790.91640	0.96452
1788.86260	0.96366
1786.80879	0.96339
1784.75499	0.96377
1782.70119	0.96431
1780.64738	0.96431
1778.59358	0.96352
1776.53978	0.96294
1774.48597	0.96322
1772.43217	0.96354
1770.37837	0.96300
1768.32456	0.96249
1766.27076	0.96232
1764.21696	0.96223
1762.16315	0.96230
1760.10935	0.96215
1758.05555	0.96170
1756.00174	0.96120
1753.94794	0.96076
1751.89414	0.96067
1749.84033	0.96106
1747.78653	0.96130
1745.73273	0.96100
1743.67892	0.96043
1741.62512	0.95942
1739.57132	0.95822
1737.51751	0.95755
1735.46371	0.95738
1733.40991	0.95720
1731.35611	0.95647
1729.30230	0.95550
1727.24850	0.95456
1725.19470	0.95326
1723.14089	0.95154
1721.08709	0.95020
1719.03329	0.94927
1716.97948	0.94862
1714.92568	0.94859
1712.87188	0.94831
1710.81807	0.94795
1708.76427	0.94820
1706.71047	0.94866
1704.65666	0.94883
1702.60286	0.94885
1700.54906	0.94887
1698.49525	0.94875
1696.44145	0.94829
1694.38765	0.94740
1692.33384	0.94639
1690.28004	0.94558
1688.22624	0.94511
1686.17243	0.94492
1684.11863	0.94437
1682.06483	0.94321
1680.01103	0.94208
1677.95722	0.94121
1675.90342	0.94057
1673.84962	0.93966
1671.79581	0.93846
1669.74201	0.93717
1667.68821	0.93556
1665.63440	0.93398
1663.58060	0.93268
1661.52680	0.93163
1659.47299	0.93067
1657.41919	0.92993
1655.36539	0.92960
1653.31158	0.92958
1651.25778	0.92941
1649.20398	0.92919
1647.15017	0.92916
1645.09637	0.92934
1643.04257	0.92946
1640.98876	0.92917
1638.93496	0.92879
1636.88116	0.92894
1634.82735	0.92916
1632.77355	0.92900
1630.71975	0.92877
1628.66594	0.92857
1626.61214	0.92870
1624.55834	0.92913
1622.50454	0.92972
1620.45073	0.93040
1618.39693	0.93119
1616.34313	0.93237
1614.28932	0.93359
1612.23552	0.93445
1610.18172	0.93490
1608.12791	0.93520
1606.07411	0.93582
1604.02031	0.93652
1601.96650	0.93700
1599.91270	0.93729
1597.85890	0.93759
1595.80509	0.93799
1593.75129	0.93854
1591.69749	0.93916
1589.64368	0.93968
1587.58988	0.94022
1585.53608	0.94072
1583.48227	0.94092
1581.42847	0.94076
1579.37467	0.94069
1577.32086	0.94096
1575.26706	0.94123
1573.21326	0.94120
1571.15945	0.94137
1569.10565	0.94172
1567.05185	0.94128
1564.99805	0.94047
1562.94424	0.93996
1560.89044	0.93998
1558.83664	0.94090
1556.78283	0.94167
1554.72903	0.94150
1552.67523	0.94104
1550.62142	0.94082
1548.56762	0.94096
1546.51382	0.94122
1544.46001	0.94146
1542.40621	0.94201
1540.35241	0.94341
1538.29860	0.94418
1536.24480	0.94391
1534.19100	0.94397
1532.13719	0.94461
1530.08339	0.94503
1528.02959	0.94539
1525.97578	0.94651
1523.92198	0.94822
1521.86818	0.94933
1519.81437	0.94930
1517.76057	0.94945
1515.70677	0.95006
1513.65297	0.95045
1511.59916	0.95087
1509.54536	0.95161
1507.49156	0.95248
1505.43775	0.95288
1503.38395	0.95276
1501.33015	0.95262
1499.27634	0.95268
1497.22254	0.95293
1495.16874	0.95299
1493.11493	0.95289
1491.06113	0.95287
1489.00733	0.95286
1486.95352	0.95263
1484.89972	0.95214
1482.84592	0.95131
1480.79211	0.94982
1478.73831	0.94592
1476.68451	0.93406
1474.63070	0.90852
1472.57690	0.87923
1470.52310	0.86940
1468.46929	0.87190
1466.41549	0.87227
1464.36169	0.86901
1462.30788	0.87063
1460.25408	0.88027
1458.20028	0.89396
1456.14648	0.90554
1454.09267	0.91158
1452.03887	0.91584
1449.98507	0.91928
1447.93126	0.92171
1445.87746	0.92348
1443.82366	0.92483
1441.76985	0.92584
1439.71605	0.92648
1437.66225	0.92727
1435.60844	0.92860
1433.55464	0.92962
1431.50084	0.93033
1429.44703	0.93146
1427.39323	0.93259
1425.33943	0.93323
1423.28562	0.93370
1421.23182	0.93416
1419.17802	0.93463
1417.12421	0.93498
1415.07041	0.93514
1413.01661	0.93516
1410.96280	0.93517
1408.90900	0.93540
1406.85520	0.93573
1404.80139	0.93613
1402.74759	0.93686
1400.69379	0.93796
1398.63999	0.93898
1396.58618	0.93945
1394.53238	0.93964
1392.47858	0.93974
1390.42477	0.93974
1388.37097	0.93981
1386.31717	0.93962
1384.26336	0.93880
1382.20956	0.93744
1380.15576	0.93590
1378.10195	0.93468
1376.04815	0.93418
1373.99435	0.93438
1371.94054	0.93452
1369.88674	0.93460
1367.83294	0.93506
1365.77913	0.93566
1363.72533	0.93628
1361.67153	0.93691
1359.61772	0.93733
1357.56392	0.93763
1355.51012	0.93799
1353.45631	0.93833
1351.40251	0.93862
1349.34871	0.93892
1347.29491	0.93929
1345.24110	0.93983
1343.18730	0.94041
1341.13350	0.94074
1339.07969	0.94075
1337.02589	0.94060
1334.97209	0.94047
1332.91828	0.94053
1330.86448	0.94069
1328.81068	0.94078
1326.75687	0.94073
1324.70307	0.94037
1322.64927	0.93987
1320.59546	0.93955
1318.54166	0.93908
1316.48786	0.93846
1314.43405	0.93832
1312.38025	0.93837
1310.32645	0.93812
1308.27264	0.93790
1306.21884	0.93790
1304.16504	0.93782
1302.11123	0.93745
1300.05743	0.93689
1298.00363	0.93646
1295.94982	0.93642
1293.89602	0.93650
1291.84222	0.93634
1289.78842	0.93594
1287.73461	0.93544
1285.68081	0.93512
1283.62701	0.93497
1281.57320	0.93470
1279.51940	0.93450
1277.46560	0.93432
1275.41179	0.93386
1273.35799	0.93322
1271.30419	0.93260
1269.25038	0.93206
1267.19658	0.93156
1265.14278	0.93106
1263.08897	0.93056
1261.03517	0.93009
1258.98137	0.92957
1256.92756	0.92882
1254.87376	0.92784
1252.81996	0.92682
1250.76615	0.92602
1248.71235	0.92558
1246.65855	0.92527
1244.60474	0.92475
1242.55094	0.92387
1240.49714	0.92289
1238.44334	0.92192
1236.38953	0.92082
1234.33573	0.91975
1232.28193	0.91882
1230.22812	0.91781
1228.17432	0.91659
1226.12052	0.91527
1224.06671	0.91375
1222.01291	0.91183
1219.95911	0.90962
1217.90530	0.90748
1215.85150	0.90524
1213.79770	0.90244
1211.74389	0.89914
1209.69009	0.89561
1207.63629	0.89194
1205.58248	0.88825
1203.52868	0.88456
1201.47488	0.88069
1199.42107	0.87644
1197.36727	0.87184
1195.31347	0.86727
1193.25966	0.86285
1191.20586	0.85828
1189.15206	0.85334
1187.09825	0.84797
1185.04445	0.84228
1182.99065	0.83661
1180.93685	0.83107
1178.88304	0.82542
1176.82924	0.81969
1174.77544	0.81391
1172.72163	0.80788
1170.66783	0.80171
1168.61403	0.79563
1166.56022	0.78990
1164.50642	0.78491
1162.45262	0.78118
1160.39881	0.77866
1158.34501	0.77653
1156.29121	0.77384
1154.23740	0.77038
1152.18360	0.76655
1150.12980	0.76268
1148.07599	0.75876
1146.02219	0.75496
1143.96839	0.75161
1141.91458	0.74842
1139.86078	0.74505
1137.80698	0.74156
1135.75317	0.73810
1133.69937	0.73473
1131.64557	0.73119
1129.59176	0.72732
1127.53796	0.72322
1125.48416	0.71873
1123.43036	0.71336
1121.37655	0.70734
1119.32275	0.70125
1117.26895	0.69480
1115.21514	0.68804
1113.16134	0.68169
1111.10754	0.67558
1109.05373	0.66935
1106.99993	0.66316
1104.94613	0.65702
1102.89232	0.65094
1100.83852	0.64540
1098.78472	0.64076
1096.73091	0.63682
1094.67711	0.63331
1092.62331	0.63020
1090.56950	0.62798
1088.51570	0.62688
1086.46190	0.62630
1084.40809	0.62588
1082.35429	0.62552
1080.30049	0.62517
1078.24668	0.62497
1076.19288	0.62463
1074.13908	0.62365
1072.08528	0.62176
1070.03147	0.61896
1067.97767	0.61519
1065.92387	0.60995
1063.87006	0.60359
1061.81626	0.59721
1059.76246	0.59081
1057.70865	0.58383
1055.65485	0.57603
1053.60105	0.56737
1051.54724	0.55834
1049.49344	0.54934
1047.43964	0.53990
1045.38583	0.52977
1043.33203	0.51930
1041.27823	0.50879
1039.22442	0.49868
1037.17062	0.48942
1035.11682	0.48122
1033.06301	0.47428
1031.00921	0.46894
1028.95541	0.46538
1026.90160	0.46312
1024.84780	0.46182
1022.79400	0.46094
1020.74019	0.45926
1018.68639	0.45652
1016.63259	0.45328
1014.57879	0.44991
1012.52498	0.44635
1010.47118	0.44245
1008.41738	0.43883
1006.36357	0.43659
1004.30977	0.43596
1002.25597	0.43661
1000.20216	0.43862
998.14836	0.44230
996.09456	0.44730
994.04075	0.45293
991.98695	0.45910
989.93315	0.46590
987.87934	0.47344
985.82554	0.48200
983.77174	0.49167
981.71793	0.50223
979.66413	0.51345
977.61033	0.52545
975.55652	0.53793
973.50272	0.55044
971.44892	0.56307
969.39511	0.57560
967.34131	0.58740
965.28751	0.59873
963.23371	0.61002
961.17990	0.62078
959.12610	0.63068
957.07230	0.63994
955.01849	0.64875
952.96469	0.65695
950.91089	0.66423
948.85708	0.67069
946.80328	0.67688
944.74948	0.68297
942.69567	0.68846
940.64187	0.69339
938.58807	0.69813
936.53426	0.70300
934.48046	0.70847
932.42666	0.71402
930.37285	0.71888
928.31905	0.72301
926.26525	0.72658
924.21144	0.72954
922.15764	0.73128
920.10384	0.73134
918.05003	0.73046
915.99623	0.72988
913.94243	0.73032
911.88862	0.73270
909.83482	0.73786
907.78102	0.74551
905.72722	0.75463
903.67341	0.76411
901.61961	0.77323
899.56581	0.78146
897.51200	0.78877
895.45820	0.79561
893.40440	0.80207
891.35059	0.80761
889.29679	0.81232
887.24299	0.81674
885.18918	0.82062
883.13538	0.82392
881.08158	0.82684
879.02777	0.82938
876.97397	0.83230
874.92017	0.83615
872.86636	0.84016
870.81256	0.84374
868.75876	0.84714
866.70495	0.85062
864.65115	0.85397
862.59735	0.85677
860.54354	0.85952
858.48974	0.86278
856.43594	0.86581
854.38213	0.86802
852.32833	0.86982
850.27453	0.87169
848.22073	0.87364
846.16692	0.87511
844.11312	0.87562
842.05932	0.87542
840.00551	0.87511
837.95171	0.87476
835.89791	0.87450
833.84410	0.87455
831.79030	0.87426
829.73650	0.87345
827.68269	0.87293
825.62889	0.87307
823.57509	0.87278
821.52128	0.87175
819.46748	0.87137
817.41368	0.87142
815.35987	0.87006
813.30607	0.86633
811.25227	0.86068
809.19846	0.85314
807.14466	0.84256
805.09086	0.82873
803.03705	0.81431
800.98325	0.80313
798.92945	0.79701
796.87565	0.79535
794.82184	0.79657
792.76804	0.79845
790.71424	0.79931
788.66043	0.79950
786.60663	0.79962
784.55283	0.79861
782.49902	0.79555
780.44522	0.79219
778.39142	0.79137
776.33761	0.79416
774.28381	0.79933
772.23001	0.80389
770.17620	0.80609
768.12240	0.80660
766.06860	0.80595
764.01479	0.80416
761.96099	0.80204
759.90719	0.80098
757.85338	0.80167
755.79958	0.80322
753.74578	0.80433
751.69197	0.80494
749.63817	0.80518
747.58437	0.80484
745.53056	0.80455
743.47676	0.80558
741.42296	0.80818
739.36916	0.81134
737.31535	0.81334
735.26155	0.81084
733.20775	0.79927
731.15394	0.78168
729.10014	0.77130
727.04634	0.77121
724.99253	0.76924
722.93873	0.75627
720.88493	0.73430
718.83112	0.71774
716.77732	0.72159
714.72352	0.74343
712.66971	0.76830
710.61591	0.78518
708.56211	0.79361
706.50830	0.79703
704.45450	0.79726
702.40070	0.79506
700.34689	0.79139
698.29309	0.78673
696.23929	0.78208
694.18548	0.78055
692.13168	0.78338
690.07788	0.78769
688.02408	0.79128
685.97027	0.79448
683.91647	0.79733
681.86267	0.79931
679.80886	0.80030
677.75506	0.80115
675.70126	0.80290
673.64745	0.80464
671.59365	0.80545
669.53985	0.80606
667.48604	0.80569
665.43224	0.80404
663.37844	0.80278
661.32463	0.80121
659.27083	0.79807
657.21703	0.79339
655.16322	0.78784
653.10942	0.78147
651.05562	0.77500
649.00181	0.77032
646.94801	0.76853
644.89421	0.76917
642.84040	0.77182
640.78660	0.77581
638.73280	0.77964
636.67899	0.78282
634.62519	0.78601
632.57139	0.78842
630.51759	0.78866
628.46378	0.78794
626.40998	0.78792
624.35618	0.78713
622.30237	0.78384
620.24857	0.77862
618.19477	0.77158
616.14096	0.76330
614.08716	0.75609
612.03336	0.75024
609.97955	0.74538
607.92575	0.74131
605.87195	0.73600
603.81814	0.72957
601.76434	0.72410
599.71054	0.71882
597.65673	0.71255
595.60293	0.70534
593.54913	0.69815
591.49532	0.69211
589.44152	0.68728
587.38772	0.68413
585.33391	0.68372
583.28011	0.68556
581.22631	0.68808
579.17250	0.69066
577.11870	0.69302
575.06490	0.69442
573.01110	0.69410
570.95729	0.69303
568.90349	0.69277
566.84969	0.69267
564.79588	0.69112
562.74208	0.68813
560.68828	0.68558
558.63447	0.68352
556.58067	0.67997
554.52687	0.67484
552.47306	0.66917
550.41926	0.66249
548.36546	0.65406
546.31165	0.64483
544.25785	0.63487
542.20405	0.62291
540.15024	0.61000
538.09644	0.59911
536.04264	0.59115
533.98883	0.58534
531.93503	0.58174
529.88123	0.58113
527.82742	0.58388
525.77362	0.58825
523.71982	0.59272
521.66602	0.59788
519.61221	0.60304
517.55841	0.60701
515.50461	0.61043
513.45080	0.61350
511.39700	0.61647
509.34320	0.62094
507.28939	0.62645
505.23559	0.63037
503.18179	0.63241
501.12798	0.63360
499.07418	0.63275
497.02038	0.63029
494.96657	0.62807
492.91277	0.62531
490.85897	0.62084
488.80516	0.61344
486.75136	0.60154
484.69756	0.58593
482.64375	0.56830
480.58995	0.54849
478.53615	0.52824
476.48234	0.50991
474.42854	0.49262
472.37474	0.47699
470.32093	0.46523
468.26713	0.45612
466.21333	0.45047
464.15953	0.44969
462.10572	0.45228
460.05192	0.45783
457.99812	0.46646
455.94431	0.47755
453.89051	0.48901
451.83671	0.49766
449.78290	0.50342
447.72910	0.50914
445.67530	0.51477
443.62149	0.51790
441.56769	0.51600
439.51389	0.50888
437.46008	0.49990
435.40628	0.49125
433.35248	0.48240
431.29867	0.47591
429.24487	0.47379
427.19107	0.47222
425.13726	0.47239
423.08346	0.47706
421.02966	0.48330
418.97585	0.49174
416.92205	0.50137
414.86825	0.51127
412.81445	0.52136
410.76064	0.53067
408.70684	0.54312
406.65304	0.55407
404.59923	0.55566
402.54543	0.55077
400.49163	0.54096
398.43782	0.52395
