3996.71440	0.98012
3994.66059	0.98003
3992.60678	0.98005
3990.55297	0.97981
3988.49916	0.97965
3986.44535	0.98002
3984.39154	0.98019
3982.33773	0.97999
3980.28391	0.97997
3978.23010	0.98007
3976.17629	0.98014
3974.12248	0.98025
3972.06867	0.98029
3970.01486	0.98005
3967.96105	0.97994
3965.90724	0.98019
3963.85343	0.98034
3961.79962	0.98020
3959.74581	0.98010
3957.69200	0.98008
3955.63819	0.97981
3953.58438	0.97959
3951.53057	0.97992
3949.47676	0.98045
3947.42295	0.98057
3945.36914	0.98029
3943.31533	0.98022
3941.26152	0.98049
3939.20771	0.98054
3937.15390	0.98014
3935.10009	0.97975
3933.04628	0.97977
3930.99247	0.97989
3928.93866	0.97986
3926.88485	0.98002
3924.83104	0.98040
3922.77723	0.98064
3920.72342	0.98065
3918.66961	0.98054
3916.61580	0.98029
3914.56199	0.97999
3912.50818	0.97990
3910.45437	0.98012
3908.40056	0.98031
3906.34675	0.98015
3904.29294	0.97991
3902.23913	0.97996
3900.18532	0.98005
3898.13151	0.97987
3896.07770	0.97968
3894.02389	0.97956
3891.97008	0.97932
3889.91627	0.97909
3887.86246	0.97915
3885.80865	0.97943
3883.75484	0.97965
3881.70103	0.97964
3879.64722	0.97966
3877.59341	0.97975
3875.53960	0.97966
3873.48579	0.97938
3871.43198	0.97938
3869.37817	0.97982
3867.32436	0.98023
3865.27055	0.98034
3863.21674	0.98008
3861.16293	0.97990
3859.10912	0.98015
3857.05531	0.98049
3855.00150	0.98042
3852.94769	0.98005
3850.89388	0.98001
3848.84007	0.97981
3846.78626	0.97948
3844.73245	0.97968
3842.67864	0.98030
3840.62483	0.98043
3838.57102	0.97998
3836.51721	0.97955
3834.46340	0.97936
3832.40959	0.97958
3830.35578	0.98003
3828.30197	0.98035
3826.24816	0.98049
3824.19435	0.98037
3822.14054	0.97997
3820.08673	0.97973
3818.03292	0.97991
3815.97911	0.98010
3813.92530	0.98008
3811.87149	0.98007
3809.81768	0.98016
3807.76387	0.98021
3805.71006	0.98025
3803.65625	0.98050
3801.60244	0.98052
3799.54863	0.98003
3797.49482	0.97976
3795.44101	0.97995
3793.38720	0.98036
3791.33339	0.98071
3789.27958	0.98092
3787.22577	0.98090
3785.17196	0.98057
3783.11815	0.98015
3781.06434	0.97992
3779.01053	0.97995
3776.95672	0.98021
3774.90291	0.98034
3772.84910	0.98026
3770.79529	0.98024
3768.74148	0.98016
3766.68767	0.98006
3764.63386	0.98017
3762.58005	0.98026
3760.52624	0.98008
3758.47243	0.97986
3756.41862	0.97998
3754.36481	0.98014
3752.31100	0.98004
3750.25719	0.98004
3748.20338	0.98044
3746.14957	0.98078
3744.09576	0.98053
3742.04195	0.98027
3739.98814	0.98050
3737.93433	0.98066
3735.88052	0.98072
3733.82671	0.98103
3731.77290	0.98114
3729.71909	0.98095
3727.66528	0.98088
3725.61147	0.98099
3723.55766	0.98082
3721.50385	0.98004
3719.45004	0.97921
3717.39623	0.97920
3715.34242	0.97965
3713.28861	0.97981
3711.23480	0.97942
3709.18099	0.97868
3707.12718	0.97809
3705.07337	0.97769
3703.01956	0.97731
3700.96575	0.97707
3698.91194	0.97692
3696.85813	0.97670
3694.80432	0.97658
3692.75051	0.97662
3690.69670	0.97658
3688.64289	0.97648
3686.58907	0.97668
3684.53526	0.97712
3682.48145	0.97751
3680.42764	0.97754
3678.37383	0.97714
3676.32002	0.97634
3674.26621	0.97572
3672.21240	0.97591
3670.15859	0.97646
3668.10478	0.97705
3666.05097	0.97733
3663.99716	0.97722
3661.94335	0.97689
3659.88954	0.97673
3657.83573	0.97680
3655.78192	0.97675
3653.72811	0.97673
3651.67430	0.97668
3649.62049	0.97605
3647.56668	0.97567
3645.51287	0.97603
3643.45906	0.97611
3641.40525	0.97596
3639.35144	0.97580
3637.29763	0.97546
3635.24382	0.97529
3633.19001	0.97536
3631.13620	0.97517
3629.08239	0.97454
3627.02858	0.97414
3624.97477	0.97434
3622.92096	0.97468
3620.86715	0.97477
3618.81334	0.97466
3616.75953	0.97479
3614.70572	0.97483
3612.65191	0.97435
3610.59810	0.97377
3608.54429	0.97366
3606.49048	0.97401
3604.43667	0.97448
3602.38286	0.97472
3600.32905	0.97467
3598.27524	0.97466
3596.22143	0.97482
3594.16762	0.97479
3592.11381	0.97448
3590.06000	0.97401
3588.00619	0.97360
3585.95238	0.97376
3583.89857	0.97411
3581.84476	0.97404
3579.79095	0.97391
3577.73714	0.97381
3575.68333	0.97351
3573.62952	0.97332
3571.57571	0.97333
3569.52190	0.97320
3567.46809	0.97302
3565.41428	0.97298
3563.36047	0.97297
3561.30666	0.97318
3559.25285	0.97355
3557.19904	0.97348
3555.14523	0.97296
3553.09142	0.97262
3551.03761	0.97272
3548.98380	0.97285
3546.92999	0.97272
3544.87618	0.97253
3542.82237	0.97260
3540.76856	0.97261
3538.71475	0.97224
3536.66094	0.97176
3534.60713	0.97143
3532.55332	0.97133
3530.49951	0.97138
3528.44570	0.97129
3526.39189	0.97124
3524.33808	0.97144
3522.28427	0.97139
3520.23046	0.97120
3518.17665	0.97127
3516.12284	0.97133
3514.06903	0.97125
3512.01522	0.97123
3509.96141	0.97129
3507.90760	0.97118
3505.85379	0.97104
3503.79998	0.97104
3501.74617	0.97103
3499.69236	0.97104
3497.63855	0.97108
3495.58474	0.97089
3493.53093	0.97055
3491.47712	0.97051
3489.42331	0.97075
3487.36950	0.97089
3485.31569	0.97077
3483.26188	0.97033
3481.20807	0.96971
3479.15426	0.96945
3477.10045	0.96955
3475.04664	0.96962
3472.99283	0.96967
3470.93902	0.96967
3468.88521	0.96945
3466.83140	0.96928
3464.77759	0.96941
3462.72378	0.96960
3460.66997	0.96969
3458.61616	0.96969
3456.56235	0.96945
3454.50854	0.96899
3452.45473	0.96849
3450.40092	0.96809
3448.34711	0.96810
3446.29330	0.96836
3444.23949	0.96842
3442.18568	0.96860
3440.13187	0.96886
3438.07806	0.96871
3436.02425	0.96857
3433.97044	0.96877
3431.91663	0.96891
3429.86282	0.96885
3427.80901	0.96881
3425.75520	0.96866
3423.70139	0.96828
3421.64758	0.96810
3419.59377	0.96810
3417.53996	0.96785
3415.48615	0.96771
3413.43234	0.96805
3411.37853	0.96840
3409.32472	0.96831
3407.27091	0.96785
3405.21710	0.96750
3403.16329	0.96767
3401.10948	0.96799
3399.05567	0.96801
3397.00186	0.96790
3394.94805	0.96778
3392.89424	0.96764
3390.84042	0.96748
3388.78661	0.96737
3386.73280	0.96758
3384.67899	0.96765
3382.62518	0.96729
3380.57137	0.96708
3378.51756	0.96715
3376.46375	0.96730
3374.40994	0.96759
3372.35613	0.96780
3370.30232	0.96780
3368.24851	0.96787
3366.19470	0.96799
3364.14089	0.96801
3362.08708	0.96792
3360.03327	0.96777
3357.97946	0.96765
3355.92565	0.96766
3353.87184	0.96799
3351.81803	0.96832
3349.76422	0.96820
3347.71041	0.96791
3345.65660	0.96769
3343.60279	0.96754
3341.54898	0.96766
3339.49517	0.96799
3337.44136	0.96799
3335.38755	0.96782
3333.33374	0.96808
3331.27993	0.96845
3329.22612	0.96837
3327.17231	0.96821
3325.11850	0.96830
3323.06469	0.96841
3321.01088	0.96832
3318.95707	0.96818
3316.90326	0.96826
3314.84945	0.96832
3312.79564	0.96841
3310.74183	0.96866
3308.68802	0.96871
3306.63421	0.96848
3304.58040	0.96813
3302.52659	0.96796
3300.47278	0.96819
3298.41897	0.96836
3296.36516	0.96841
3294.31135	0.96870
3292.25754	0.96886
3290.20373	0.96865
3288.14992	0.96850
3286.09611	0.96845
3284.04230	0.96831
3281.98849	0.96818
3279.93468	0.96820
3277.88087	0.96844
3275.82706	0.96864
3273.77325	0.96862
3271.71944	0.96848
3269.66563	0.96840
3267.61182	0.96846
3265.55801	0.96853
3263.50420	0.96847
3261.45039	0.96840
3259.39658	0.96861
3257.34277	0.96884
3255.28896	0.96881
3253.23515	0.96893
3251.18134	0.96916
3249.12753	0.96918
3247.07372	0.96937
3245.01991	0.96980
3242.96610	0.96995
3240.91229	0.96978
3238.85848	0.96957
3236.80467	0.96940
3234.75086	0.96942
3232.69705	0.96971
3230.64324	0.96983
3228.58943	0.96966
3226.53562	0.96976
3224.48181	0.97004
3222.42800	0.97008
3220.37419	0.97001
3218.32038	0.97020
3216.26657	0.97042
3214.21276	0.97024
3212.15895	0.96991
3210.10514	0.96978
3208.05133	0.96998
3205.99752	0.97038
3203.94371	0.97058
3201.88990	0.97055
3199.83609	0.97042
3197.78228	0.97016
3195.72847	0.97013
3193.67466	0.97049
3191.62085	0.97093
3189.56704	0.97126
3187.51323	0.97135
3185.45942	0.97121
3183.40561	0.97114
3181.35180	0.97116
3179.29799	0.97115
3177.24418	0.97103
3175.19037	0.97090
3173.13656	0.97100
3171.08275	0.97134
3169.02894	0.97178
3166.97513	0.97200
3164.92132	0.97176
3162.86751	0.97149
3160.81370	0.97154
3158.75989	0.97162
3156.70608	0.97144
3154.65227	0.97109
3152.59846	0.97091
3150.54465	0.97123
3148.49084	0.97178
3146.43703	0.97196
3144.38322	0.97188
3142.32941	0.97188
3140.27560	0.97206
3138.22179	0.97241
3136.16798	0.97260
3134.11417	0.97252
3132.06036	0.97260
3130.00655	0.97291
3127.95274	0.97304
3125.89893	0.97301
3123.84512	0.97297
3121.79131	0.97284
3119.73750	0.97269
3117.68369	0.97265
3115.62988	0.97281
3113.57607	0.97321
3111.52226	0.97358
3109.46845	0.97372
3107.41464	0.97390
3105.36083	0.97410
3103.30702	0.97402
3101.25321	0.97384
3099.19940	0.97395
3097.14559	0.97424
3095.09177	0.97458
3093.03796	0.97486
3090.98415	0.97487
3088.93034	0.97464
3086.87653	0.97434
3084.82272	0.97424
3082.76891	0.97438
3080.71510	0.97443
3078.66129	0.97419
3076.60748	0.97402
3074.55367	0.97419
3072.49986	0.97449
3070.44605	0.97476
3068.39224	0.97502
3066.33843	0.97522
3064.28462	0.97521
3062.23081	0.97507
3060.17700	0.97488
3058.12319	0.97463
3056.06938	0.97453
3054.01557	0.97477
3051.96176	0.97509
3049.90795	0.97518
3047.85414	0.97503
3045.80033	0.97484
3043.74652	0.97502
3041.69271	0.97565
3039.63890	0.97619
3037.58509	0.97620
3035.53128	0.97602
3033.47747	0.97606
3031.42366	0.97622
3029.36985	0.97636
3027.31604	0.97638
3025.26223	0.97614
3023.20842	0.97598
3021.15461	0.97609
3019.10080	0.97613
3017.04699	0.97620
3014.99318	0.97636
3012.93937	0.97624
3010.88556	0.97596
3008.83175	0.97603
3006.77794	0.97631
3004.72413	0.97639
3002.67032	0.97632
3000.61651	0.97617
2998.56270	0.97582
2996.50889	0.97539
2994.45508	0.97498
2992.40127	0.97450
2990.34746	0.97377
2988.29365	0.97282
2986.23984	0.97184
2984.18603	0.97058
2982.13222	0.96867
2980.07841	0.96613
2978.02460	0.96299
2975.97079	0.95891
2973.91698	0.95332
2971.86317	0.94608
2969.80936	0.93732
2967.75555	0.92684
2965.70174	0.91469
2963.64793	0.90218
2961.59412	0.89190
2959.54031	0.88560
2957.48650	0.88201
2955.43269	0.87773
2953.37888	0.87101
2951.32507	0.86425
2949.27126	0.86215
2947.21745	0.86761
2945.16364	0.87924
2943.10983	0.89241
2941.05602	0.90252
2939.00221	0.90721
2936.94840	0.90638
2934.89459	0.90101
2932.84078	0.89197
2930.78697	0.88007
2928.73316	0.86621
2926.67935	0.85133
2924.62554	0.83629
2922.57173	0.82141
2920.51792	0.80717
2918.46411	0.79597
2916.41030	0.79177
2914.35649	0.79653
2912.30268	0.80731
2910.24887	0.81906
2908.19506	0.82922
2906.14125	0.83786
2904.08744	0.84588
2902.03363	0.85400
2899.97982	0.86238
2897.92601	0.87056
2895.87220	0.87771
2893.81839	0.88357
2891.76458	0.88802
2889.71077	0.89092
2887.65696	0.89272
2885.60315	0.89362
2883.54934	0.89347
2881.49553	0.89229
2879.44172	0.89074
2877.38791	0.89021
2875.33410	0.89114
2873.28029	0.89202
2871.22648	0.89135
2869.17267	0.88931
2867.11886	0.88788
2865.06505	0.88992
2863.01124	0.89631
2860.95743	0.90420
2858.90362	0.90934
2856.84981	0.90939
2854.79600	0.90430
2852.74219	0.89577
2850.68838	0.88792
2848.63457	0.88528
2846.58076	0.88739
2844.52695	0.88904
2842.47314	0.88704
2840.41933	0.88304
2838.36552	0.88110
2836.31171	0.88456
2834.25790	0.89383
2832.20409	0.90628
2830.15028	0.91816
2828.09647	0.92725
2826.04266	0.93366
2823.98885	0.93830
2821.93504	0.94172
2819.88123	0.94436
2817.82742	0.94657
2815.77361	0.94850
2813.71980	0.95010
2811.66599	0.95129
2809.61218	0.95209
2807.55837	0.95290
2805.50456	0.95405
2803.45075	0.95538
2801.39693	0.95653
2799.34312	0.95739
2797.28931	0.95810
2795.23550	0.95875
2793.18169	0.95941
2791.12788	0.96013
2789.07407	0.96075
2787.02026	0.96119
2784.96645	0.96170
2782.91264	0.96238
2780.85883	0.96304
2778.80502	0.96361
2776.75121	0.96400
2774.69740	0.96418
2772.64359	0.96436
2770.58978	0.96456
2768.53597	0.96479
2766.48216	0.96515
2764.42835	0.96555
2762.37454	0.96580
2760.32073	0.96578
2758.26692	0.96580
2756.21311	0.96603
2754.15930	0.96622
2752.10549	0.96623
2750.05168	0.96619
2747.99787	0.96627
2745.94406	0.96638
2743.89025	0.96629
2741.83644	0.96618
2739.78263	0.96627
2737.72882	0.96637
2735.67501	0.96632
2733.62120	0.96617
2731.56739	0.96595
2729.51358	0.96565
2727.45977	0.96542
2725.40596	0.96518
2723.35215	0.96479
2721.29834	0.96459
2719.24453	0.96478
2717.19072	0.96521
2715.13691	0.96574
2713.08310	0.96626
2711.02929	0.96668
2708.97548	0.96707
2706.92167	0.96740
2704.86786	0.96751
2702.81405	0.96745
2700.76024	0.96736
2698.70643	0.96738
2696.65262	0.96748
2694.59881	0.96761
2692.54500	0.96780
2690.49119	0.96798
2688.43738	0.96803
2686.38357	0.96800
2684.32976	0.96802
2682.27595	0.96819
2680.22214	0.96839
2678.16833	0.96844
2676.11452	0.96846
2674.06071	0.96847
2672.00690	0.96845
2669.95309	0.96855
2667.89928	0.96870
2665.84547	0.96872
2663.79166	0.96859
2661.73785	0.96832
2659.68404	0.96813
2657.63023	0.96815
2655.57642	0.96818
2653.52261	0.96825
2651.46880	0.96856
2649.41499	0.96893
2647.36118	0.96894
2645.30737	0.96874
2643.25356	0.96882
2641.19975	0.96904
2639.14594	0.96914
2637.09213	0.96932
2635.03832	0.96961
2632.98451	0.96981
2630.93070	0.96981
2628.87689	0.96953
2626.82308	0.96911
2624.76927	0.96884
2622.71546	0.96898
2620.66165	0.96943
2618.60784	0.96965
2616.55403	0.96954
2614.50022	0.96947
2612.44641	0.96941
2610.39260	0.96931
2608.33879	0.96960
2606.28498	0.97032
2604.23117	0.97085
2602.17736	0.97080
2600.12355	0.97051
2598.06974	0.97033
2596.01593	0.97039
2593.96212	0.97038
2591.90831	0.97027
2589.85450	0.97050
2587.80069	0.97071
2585.74688	0.97066
2583.69307	0.97079
2581.63926	0.97110
2579.58545	0.97119
2577.53164	0.97100
2575.47783	0.97076
2573.42402	0.97082
2571.37021	0.97116
2569.31640	0.97119
2567.26259	0.97086
2565.20878	0.97075
2563.15497	0.97096
2561.10116	0.97114
2559.04735	0.97116
2556.99354	0.97119
2554.93973	0.97143
2552.88592	0.97177
2550.83211	0.97180
2548.77830	0.97157
2546.72449	0.97153
2544.67068	0.97172
2542.61687	0.97181
2540.56306	0.97195
2538.50925	0.97240
2536.45544	0.97277
2534.40163	0.97263
2532.34782	0.97253
2530.29401	0.97300
2528.24020	0.97321
2526.18639	0.97259
2524.13258	0.97215
2522.07877	0.97249
2520.02496	0.97280
2517.97115	0.97263
2515.91734	0.97249
2513.86353	0.97254
2511.80972	0.97249
2509.75591	0.97233
2507.70210	0.97243
2505.64828	0.97265
2503.59447	0.97279
2501.54066	0.97297
2499.48685	0.97311
2497.43304	0.97324
2495.37923	0.97335
2493.32542	0.97327
2491.27161	0.97296
2489.21780	0.97260
2487.16399	0.97229
2485.11018	0.97232
2483.05637	0.97271
2481.00256	0.97293
2478.94875	0.97287
2476.89494	0.97284
2474.84113	0.97306
2472.78732	0.97338
2470.73351	0.97313
2468.67970	0.97247
2466.62589	0.97212
2464.57208	0.97207
2462.51827	0.97213
2460.46446	0.97238
2458.41065	0.97281
2456.35684	0.97320
2454.30303	0.97318
2452.24922	0.97303
2450.19541	0.97308
2448.14160	0.97308
2446.08779	0.97273
2444.03398	0.97241
2441.98017	0.97262
2439.92636	0.97308
2437.87255	0.97309
2435.81874	0.97256
2433.76493	0.97218
2431.71112	0.97244
2429.65731	0.97290
2427.60350	0.97306
2425.54969	0.97319
2423.49588	0.97323
2421.44207	0.97295
2419.38826	0.97284
2417.33445	0.97314
2415.28064	0.97368
2413.22683	0.97404
2411.17302	0.97389
2409.11921	0.97358
2407.06540	0.97340
2405.01159	0.97309
2402.95778	0.97273
2400.90397	0.97269
2398.85016	0.97285
2396.79635	0.97279
2394.74254	0.97266
2392.68873	0.97290
2390.63492	0.97319
2388.58111	0.97305
2386.52730	0.97288
2384.47349	0.97296
2382.41968	0.97299
2380.36587	0.97303
2378.31206	0.97331
2376.25825	0.97351
2374.20444	0.97364
2372.15063	0.97387
2370.09682	0.97360
2368.04301	0.97291
2365.98920	0.97268
2363.93539	0.97282
2361.88158	0.97298
2359.82777	0.97320
2357.77396	0.97311
2355.72015	0.97271
2353.66634	0.97259
2351.61253	0.97258
2349.55872	0.97264
2347.50491	0.97272
2345.45110	0.97223
2343.39729	0.97147
2341.34348	0.97148
2339.28967	0.97192
2337.23586	0.97252
2335.18205	0.97294
2333.12824	0.97277
2331.07443	0.97249
2329.02062	0.97218
2326.96681	0.97154
2324.91300	0.97102
2322.85919	0.97122
2320.80538	0.97212
2318.75157	0.97300
2316.69776	0.97312
2314.64395	0.97260
2312.59014	0.97205
2310.53633	0.97177
2308.48252	0.97177
2306.42871	0.97197
2304.37490	0.97225
2302.32109	0.97231
2300.26728	0.97200
2298.21347	0.97162
2296.15966	0.97135
2294.10585	0.97137
2292.05204	0.97187
2289.99823	0.97223
2287.94442	0.97188
2285.89061	0.97148
2283.83680	0.97156
2281.78299	0.97181
2279.72918	0.97216
2277.67537	0.97266
2275.62156	0.97296
2273.56775	0.97297
2271.51394	0.97285
2269.46013	0.97265
2267.40632	0.97274
2265.35251	0.97308
2263.29870	0.97311
2261.24489	0.97309
2259.19108	0.97318
2257.13727	0.97297
2255.08346	0.97254
2253.02965	0.97221
2250.97584	0.97240
2248.92203	0.97311
2246.86822	0.97346
2244.81441	0.97283
2242.76060	0.97173
2240.70679	0.97125
2238.65298	0.97112
2236.59917	0.97068
2234.54536	0.97057
2232.49155	0.97138
2230.43774	0.97258
2228.38393	0.97293
2226.33012	0.97239
2224.27631	0.97237
2222.22250	0.97349
2220.16869	0.97493
2218.11488	0.97493
2216.06107	0.97340
2214.00726	0.97265
2211.95344	0.97308
2209.89963	0.97346
2207.84582	0.97399
2205.79201	0.97425
2203.73820	0.97358
2201.68439	0.97277
2199.63058	0.97213
2197.57677	0.97200
2195.52296	0.97262
2193.46915	0.97307
2191.41534	0.97292
2189.36153	0.97275
2187.30772	0.97304
2185.25391	0.97323
2183.20010	0.97282
2181.14629	0.97276
2179.09248	0.97353
2177.03867	0.97401
2174.98486	0.97394
2172.93105	0.97388
2170.87724	0.97380
2168.82343	0.97370
2166.76962	0.97287
2164.71581	0.97139
2162.66200	0.97083
2160.60819	0.97201
2158.55438	0.97452
2156.50057	0.97610
2154.44676	0.97591
2152.39295	0.97547
2150.33914	0.97517
2148.28533	0.97474
2146.23152	0.97463
2144.17771	0.97507
2142.12390	0.97519
2140.07009	0.97473
2138.01628	0.97458
2135.96247	0.97504
2133.90866	0.97574
2131.85485	0.97601
2129.80104	0.97528
2127.74723	0.97433
2125.69342	0.97406
2123.63961	0.97410
2121.58580	0.97429
2119.53199	0.97439
2117.47818	0.97400
2115.42437	0.97353
2113.37056	0.97266
2111.31675	0.97190
2109.26294	0.97250
2107.20913	0.97338
2105.15532	0.97351
2103.10151	0.97334
2101.04770	0.97349
2098.99389	0.97380
2096.94008	0.97359
2094.88627	0.97337
2092.83246	0.97367
2090.77865	0.97427
2088.72484	0.97469
2086.67103	0.97441
2084.61722	0.97406
2082.56341	0.97449
2080.50960	0.97466
2078.45579	0.97354
2076.40198	0.97234
2074.34817	0.97223
2072.29436	0.97270
2070.24055	0.97336
2068.18674	0.97391
2066.13293	0.97358
2064.07912	0.97278
2062.02531	0.97236
2059.97150	0.97268
2057.91769	0.97368
2055.86388	0.97398
2053.81007	0.97330
2051.75626	0.97287
2049.70245	0.97287
2047.64864	0.97251
2045.59483	0.97224
2043.54102	0.97309
2041.48721	0.97397
2039.43340	0.97401
2037.37959	0.97347
2035.32578	0.97283
2033.27197	0.97355
2031.21816	0.97505
2029.16435	0.97502
2027.11054	0.97437
2025.05673	0.97483
2023.00292	0.97546
2020.94911	0.97554
2018.89530	0.97625
2016.84149	0.97650
2014.78768	0.97452
2012.73387	0.97318
2010.68006	0.97433
2008.62625	0.97562
2006.57244	0.97569
2004.51863	0.97478
2002.46482	0.97391
2000.41101	0.97446
1998.35720	0.97512
1996.30339	0.97471
1994.24958	0.97404
1992.19577	0.97341
1990.14196	0.97408
1988.08815	0.97561
1986.03434	0.97569
1983.98053	0.97421
1981.92672	0.97201
1979.87291	0.97031
1977.81910	0.97087
1975.76529	0.97353
1973.71148	0.97546
1971.65767	0.97518
1969.60386	0.97492
1967.55005	0.97595
1965.49624	0.97591
1963.44243	0.97491
1961.38862	0.97518
1959.33481	0.97639
1957.28100	0.97655
1955.22719	0.97570
1953.17338	0.97559
1951.11957	0.97603
1949.06576	0.97613
1947.01195	0.97558
1944.95814	0.97472
1942.90433	0.97476
1940.85052	0.97529
1938.79671	0.97489
1936.74290	0.97412
1934.68909	0.97359
1932.63528	0.97313
1930.58147	0.97286
1928.52766	0.97267
1926.47385	0.97272
1924.42004	0.97308
1922.36623	0.97331
1920.31242	0.97327
1918.25861	0.97293
1916.20479	0.97293
1914.15098	0.97351
1912.09717	0.97360
1910.04336	0.97304
1907.98955	0.97274
1905.93574	0.97290
1903.88193	0.97311
1901.82812	0.97343
1899.77431	0.97372
1897.72050	0.97356
1895.66669	0.97328
1893.61288	0.97309
1891.55907	0.97288
1889.50526	0.97296
1887.45145	0.97317
1885.39764	0.97308
1883.34383	0.97263
1881.29002	0.97198
1879.23621	0.97176
1877.18240	0.97222
1875.12859	0.97271
1873.07478	0.97286
1871.02097	0.97269
1868.96716	0.97251
1866.91335	0.97255
1864.85954	0.97259
1862.80573	0.97257
1860.75192	0.97257
1858.69811	0.97265
1856.64430	0.97262
1854.59049	0.97244
1852.53668	0.97231
1850.48287	0.97213
1848.42906	0.97208
1846.37525	0.97230
1844.32144	0.97249
1842.26763	0.97265
1840.21382	0.97278
1838.16001	0.97268
1836.10620	0.97230
1834.05239	0.97196
1831.99858	0.97195
1829.94477	0.97234
1827.89096	0.97270
1825.83715	0.97242
1823.78334	0.97183
1821.72953	0.97161
1819.67572	0.97167
1817.62191	0.97172
1815.56810	0.97186
1813.51429	0.97216
1811.46048	0.97230
1809.40667	0.97207
1807.35286	0.97186
1805.29905	0.97191
1803.24524	0.97213
1801.19143	0.97219
1799.13762	0.97183
1797.08381	0.97143
1795.03000	0.97131
1792.97619	0.97131
1790.92238	0.97116
1788.86857	0.97097
1786.81476	0.97083
1784.76095	0.97071
1782.70714	0.97063
1780.65333	0.97048
1778.59952	0.97027
1776.54571	0.97028
1774.49190	0.97040
1772.43809	0.97034
1770.38428	0.97039
1768.33047	0.97066
1766.27666	0.97081
1764.22285	0.97085
1762.16904	0.97080
1760.11523	0.97056
1758.06142	0.97014
1756.00761	0.96975
1753.95380	0.96966
1751.89999	0.96954
1749.84618	0.96888
1747.79237	0.96786
1745.73856	0.96689
1743.68475	0.96594
1741.63094	0.96494
1739.57713	0.96408
1737.52332	0.96349
1735.46951	0.96337
1733.41570	0.96389
1731.36189	0.96446
1729.30808	0.96461
1727.25427	0.96450
1725.20046	0.96434
1723.14665	0.96450
1721.09284	0.96495
1719.03903	0.96538
1716.98522	0.96563
1714.93141	0.96543
1712.87760	0.96494
1710.82379	0.96464
1708.76998	0.96470
1706.71617	0.96493
1704.66236	0.96487
1702.60855	0.96442
1700.55474	0.96395
1698.50093	0.96379
1696.44712	0.96366
1694.39331	0.96331
1692.33950	0.96301
1690.28569	0.96269
1688.23188	0.96221
1686.17807	0.96177
1684.12426	0.96117
1682.07045	0.96046
1680.01664	0.95991
1677.96283	0.95939
1675.90902	0.95891
1673.85521	0.95854
1671.80140	0.95825
1669.74759	0.95794
1667.69378	0.95762
1665.63997	0.95713
1663.58616	0.95631
1661.53235	0.95564
1659.47854	0.95555
1657.42473	0.95560
1655.37092	0.95553
1653.31711	0.95507
1651.26330	0.95467
1649.20949	0.95473
1647.15568	0.95452
1645.10187	0.95422
1643.04806	0.95436
1640.99425	0.95464
1638.94044	0.95484
1636.88663	0.95483
1634.83282	0.95473
1632.77901	0.95503
1630.72520	0.95548
1628.67139	0.95565
1626.61758	0.95570
1624.56377	0.95594
1622.50996	0.95619
1620.45614	0.95633
1618.40233	0.95653
1616.34852	0.95683
1614.29471	0.95707
1612.24090	0.95719
1610.18709	0.95723
1608.13328	0.95715
1606.07947	0.95711
1604.02566	0.95737
1601.97185	0.95780
1599.91804	0.95788
1597.86423	0.95789
1595.81042	0.95821
1593.75661	0.95844
1591.70280	0.95828
1589.64899	0.95813
1587.59518	0.95829
1585.54137	0.95843
1583.48756	0.95830
1581.43375	0.95807
1579.37994	0.95803
1577.32613	0.95809
1575.27232	0.95795
1573.21851	0.95792
1571.16470	0.95794
1569.11089	0.95783
1567.05708	0.95775
1565.00327	0.95759
1562.94946	0.95748
1560.89565	0.95769
1558.84184	0.95779
1556.78803	0.95734
1554.73422	0.95693
1552.68041	0.95638
1550.62660	0.95565
1548.57279	0.95504
1546.51898	0.95476
1544.46517	0.95462
1542.41136	0.95430
1540.35755	0.95326
1538.30374	0.95224
1536.24993	0.95198
1534.19612	0.95180
1532.14231	0.95152
1530.08850	0.95132
1528.03469	0.95110
1525.98088	0.95069
1523.92707	0.95034
1521.87326	0.95020
1519.81945	0.94994
1517.76564	0.94947
1515.71183	0.94911
1513.65802	0.94890
1511.60421	0.94860
1509.55040	0.94804
1507.49659	0.94693
1505.44278	0.94606
1503.38897	0.94611
1501.33516	0.94616
1499.28135	0.94583
1497.22754	0.94510
1495.17373	0.94432
1493.11992	0.94387
1491.06611	0.94348
1489.01230	0.94257
1486.95849	0.94149
1484.90468	0.94070
1482.85087	0.93975
1480.79706	0.93837
1478.74325	0.93650
1476.68944	0.93295
1474.63563	0.92622
1472.58182	0.91705
1470.52801	0.90908
1468.47420	0.90236
1466.42039	0.89362
1464.36658	0.88232
1462.31277	0.87377
1460.25896	0.86965
1458.20515	0.86682
1456.15134	0.86419
1454.09753	0.86342
1452.04372	0.86419
1449.98991	0.86704
1447.93610	0.87374
1445.88229	0.88361
1443.82848	0.89312
1441.77467	0.90022
1439.72086	0.90423
1437.66705	0.90565
1435.61324	0.90645
1433.55943	0.90944
1431.50562	0.91443
1429.45181	0.91954
1427.39800	0.92292
1425.34419	0.92494
1423.29038	0.92649
1421.23657	0.92789
1419.18276	0.92951
1417.12895	0.93141
1415.07514	0.93328
1413.02133	0.93510
1410.96752	0.93691
1408.91371	0.93868
1406.85990	0.94042
1404.80609	0.94205
1402.75228	0.94337
1400.69847	0.94434
1398.64466	0.94532
1396.59085	0.94642
1394.53704	0.94732
1392.48323	0.94786
1390.42942	0.94799
1388.37561	0.94702
1386.32180	0.94345
1384.26799	0.93547
1382.21418	0.92017
1380.16037	0.89455
1378.10656	0.86259
1376.05275	0.84057
1373.99894	0.84517
1371.94513	0.87022
1369.89132	0.89561
1367.83751	0.91318
1365.78370	0.92212
1363.72989	0.92489
1361.67608	0.92391
1359.62227	0.92212
1357.56846	0.92279
1355.51465	0.92679
1353.46084	0.93227
1351.40703	0.93706
1349.35322	0.94060
1347.29941	0.94309
1345.24560	0.94488
1343.19179	0.94623
1341.13798	0.94709
1339.08417	0.94765
1337.03036	0.94820
1334.97655	0.94853
1332.92274	0.94848
1330.86893	0.94833
1328.81512	0.94840
1326.76130	0.94875
1324.70749	0.94942
1322.65368	0.95023
1320.59987	0.95088
1318.54606	0.95140
1316.49225	0.95187
1314.43844	0.95217
1312.38463	0.95225
1310.33082	0.95194
1308.27701	0.95080
1306.22320	0.94903
1304.16939	0.94789
1302.11558	0.94822
1300.06177	0.94901
1298.00796	0.94930
1295.95415	0.94945
1293.90034	0.94990
1291.84653	0.95041
1289.79272	0.95074
1287.73891	0.95107
1285.68510	0.95148
1283.63129	0.95182
1281.57748	0.95207
1279.52367	0.95227
1277.46986	0.95231
1275.41605	0.95230
1273.36224	0.95221
1271.30843	0.95200
1269.25462	0.95167
1267.20081	0.95111
1265.14700	0.95043
1263.09319	0.94957
1261.03938	0.94828
1258.98557	0.94667
1256.93176	0.94518
1254.87795	0.94451
1252.82414	0.94488
1250.77033	0.94548
1248.71652	0.94571
1246.66271	0.94575
1244.60890	0.94575
1242.55509	0.94581
1240.50128	0.94607
1238.44747	0.94641
1236.39366	0.94678
1234.33985	0.94731
1232.28604	0.94789
1230.23223	0.94829
1228.17842	0.94853
1226.12461	0.94858
1224.07080	0.94836
1222.01699	0.94798
1219.96318	0.94773
1217.90937	0.94786
1215.85556	0.94826
1213.80175	0.94863
1211.74794	0.94898
1209.69413	0.94930
1207.64032	0.94949
1205.58651	0.94969
1203.53270	0.94992
1201.47889	0.94996
1199.42508	0.94982
1197.37127	0.94987
1195.31746	0.95005
1193.26365	0.94998
1191.20984	0.94967
1189.15603	0.94934
1187.10222	0.94907
1185.04841	0.94896
1182.99460	0.94895
1180.94079	0.94869
1178.88698	0.94792
1176.83317	0.94647
1174.77936	0.94379
1172.72555	0.93925
1170.67174	0.93316
1168.61793	0.92766
1166.56412	0.92549
1164.51031	0.92682
1162.45650	0.92948
1160.40269	0.93185
1158.34888	0.93346
1156.29507	0.93430
1154.24126	0.93449
1152.18745	0.93442
1150.13364	0.93481
1148.07983	0.93583
1146.02602	0.93693
1143.97221	0.93771
1141.91840	0.93820
1139.86459	0.93856
1137.81078	0.93886
1135.75697	0.93885
1133.70316	0.93820
1131.64935	0.93715
1129.59554	0.93627
1127.54173	0.93555
1125.48792	0.93468
1123.43411	0.93366
1121.38030	0.93242
1119.32649	0.93119
1117.27268	0.93038
1115.21887	0.92989
1113.16506	0.92943
1111.11125	0.92861
1109.05744	0.92730
1107.00363	0.92565
1104.94982	0.92383
1102.89601	0.92234
1100.84220	0.92149
1098.78839	0.92112
1096.73458	0.92108
1094.68077	0.92105
1092.62696	0.92063
1090.57315	0.91984
1088.51934	0.91901
1086.46553	0.91841
1084.41172	0.91794
1082.35791	0.91736
1080.30410	0.91663
1078.25029	0.91604
1076.19648	0.91572
1074.14267	0.91524
1072.08886	0.91440
1070.03505	0.91328
1067.98124	0.91202
1065.92743	0.91100
1063.87362	0.91032
1061.81981	0.90967
1059.76600	0.90887
1057.71219	0.90775
1055.65838	0.90630
1053.60457	0.90469
1051.55076	0.90306
1049.49695	0.90133
1047.44314	0.89956
1045.38933	0.89813
1043.33552	0.89737
1041.28171	0.89721
1039.22790	0.89748
1037.17409	0.89791
1035.12028	0.89824
1033.06647	0.89871
1031.01265	0.89946
1028.95884	0.90017
1026.90503	0.90080
1024.85122	0.90159
1022.79741	0.90253
1020.74360	0.90344
1018.68979	0.90422
1016.63598	0.90491
1014.58217	0.90554
1012.52836	0.90598
1010.47455	0.90614
1008.42074	0.90637
1006.36693	0.90663
1004.31312	0.90581
1002.25931	0.90268
1000.20550	0.89739
998.15169	0.89342
996.09788	0.89532
994.04407	0.90263
991.99026	0.91050
989.93645	0.91595
987.88264	0.91927
985.82883	0.92153
983.77502	0.92316
981.72121	0.92359
979.66740	0.92161
977.61359	0.91636
975.55978	0.90874
973.50597	0.90285
971.45216	0.90366
969.39835	0.91090
967.34454	0.91930
965.29073	0.92542
963.23692	0.92908
961.18311	0.93108
959.12930	0.93241
957.07549	0.93342
955.02168	0.93417
952.96787	0.93483
950.91406	0.93531
948.86025	0.93543
946.80644	0.93537
944.75263	0.93536
942.69882	0.93543
940.64501	0.93556
938.59120	0.93583
936.53739	0.93639
934.48358	0.93703
932.42977	0.93724
930.37596	0.93706
928.32215	0.93709
926.26834	0.93726
924.21453	0.93712
922.16072	0.93671
920.10691	0.93630
918.05310	0.93580
915.99929	0.93490
913.94548	0.93396
911.89167	0.93388
909.83786	0.93453
907.78405	0.93503
905.73024	0.93489
903.67643	0.93370
901.62262	0.93172
899.56881	0.93050
897.51500	0.93142
895.46119	0.93412
893.40738	0.93698
891.35357	0.93900
889.29976	0.94035
887.24595	0.94090
885.19214	0.94040
883.13833	0.93912
881.08452	0.93653
879.03071	0.93265
876.97690	0.92967
874.92309	0.92973
872.86928	0.93264
870.81547	0.93632
868.76166	0.93871
866.70785	0.93938
864.65404	0.93916
862.60023	0.93875
860.54642	0.93825
858.49261	0.93782
856.43880	0.93790
854.38499	0.93887
852.33118	0.94021
850.27737	0.94065
848.22356	0.93954
846.16975	0.93607
844.11594	0.92874
842.06213	0.92029
840.00832	0.91833
837.95451	0.92420
835.90070	0.93116
833.84689	0.93532
831.79308	0.93764
829.73927	0.93927
827.68546	0.94008
825.63165	0.94001
823.57784	0.93983
821.52403	0.93985
819.47022	0.93974
817.41641	0.93909
815.36260	0.93751
813.30879	0.93483
811.25498	0.93177
809.20117	0.92974
807.14736	0.92984
805.09355	0.93157
803.03974	0.93342
800.98593	0.93493
798.93212	0.93623
796.87831	0.93687
794.82450	0.93684
792.77069	0.93688
790.71688	0.93742
788.66307	0.93803
786.60926	0.93822
784.55545	0.93813
782.50164	0.93796
780.44783	0.93801
778.39402	0.93841
776.34021	0.93866
774.28640	0.93859
772.23259	0.93861
770.17878	0.93892
768.12497	0.93906
766.07116	0.93880
764.01735	0.93844
761.96354	0.93807
759.90973	0.93757
757.85592	0.93694
755.80211	0.93647
753.74830	0.93621
751.69449	0.93600
749.64068	0.93600
747.58687	0.93599
745.53306	0.93538
743.47925	0.93461
741.42544	0.93414
739.37163	0.93407
737.31781	0.93396
735.26400	0.93230
733.21019	0.92847
731.15638	0.92410
729.10257	0.92214
727.04876	0.92276
724.99495	0.92278
722.94114	0.92020
720.88733	0.91636
718.83352	0.91427
716.77971	0.91498
714.72590	0.91689
712.67209	0.91901
710.61828	0.92096
708.56447	0.92182
706.51066	0.92156
704.45685	0.92110
702.40304	0.92071
700.34923	0.92044
698.29542	0.92031
696.24161	0.91973
694.18780	0.91895
692.13399	0.91897
690.08018	0.91929
688.02637	0.91935
685.97256	0.91911
683.91875	0.91814
681.86494	0.91739
679.81113	0.91759
677.75732	0.91772
675.70351	0.91757
673.64970	0.91739
671.59589	0.91706
669.54208	0.91680
667.48827	0.91711
665.43446	0.91762
663.38065	0.91774
661.32684	0.91753
659.27303	0.91688
657.21922	0.91613
655.16541	0.91592
653.11160	0.91604
651.05779	0.91623
649.00398	0.91620
646.95017	0.91594
644.89636	0.91581
642.84255	0.91587
640.78874	0.91574
638.73493	0.91549
636.68112	0.91547
634.62731	0.91547
632.57350	0.91490
630.51969	0.91407
628.46588	0.91372
626.41207	0.91404
624.35826	0.91485
622.30445	0.91492
620.25064	0.91400
618.19683	0.91282
616.14302	0.91143
614.08921	0.91082
612.03540	0.91141
609.98159	0.91158
607.92778	0.91090
605.87397	0.91049
603.82016	0.91050
601.76635	0.91019
599.71254	0.90873
597.65873	0.90671
595.60492	0.90571
593.55111	0.90568
591.49730	0.90524
589.44349	0.90426
587.38968	0.90400
585.33587	0.90435
583.28206	0.90404
581.22825	0.90285
579.17444	0.90149
577.12063	0.90059
575.06682	0.90047
573.01301	0.90121
570.95920	0.90165
568.90539	0.90073
566.85158	0.89908
564.79777	0.89732
562.74396	0.89585
560.69015	0.89520
558.63634	0.89530
556.58253	0.89594
554.52872	0.89607
552.47491	0.89508
550.42110	0.89410
548.36729	0.89386
546.31348	0.89382
544.25967	0.89276
542.20586	0.89084
540.15205	0.89013
538.09824	0.89104
536.04443	0.89196
533.99062	0.89182
531.93681	0.89082
529.88300	0.89034
527.82919	0.89072
525.77538	0.89073
523.72157	0.89103
521.66776	0.89299
519.61395	0.89524
517.56014	0.89623
515.50633	0.89635
513.45252	0.89618
511.39871	0.89680
509.34490	0.89884
507.29109	0.90124
505.23728	0.90252
503.18347	0.90252
501.12966	0.90198
499.07585	0.90134
497.02204	0.90084
494.96823	0.90038
492.91442	0.90014
490.86061	0.90022
488.80680	0.89955
486.75299	0.89734
484.69918	0.89474
482.64537	0.89423
480.59156	0.89378
478.53775	0.88979
476.48394	0.88551
474.43013	0.88434
472.37632	0.88448
470.32251	0.88427
468.26870	0.88321
466.21489	0.88169
464.16108	0.88028
462.10727	0.87826
460.05346	0.87674
457.99965	0.87984
455.94584	0.88797
453.89203	0.89460
451.83822	0.89559
449.78441	0.89244
447.73060	0.89094
445.67679	0.89346
443.62298	0.89581
441.56916	0.89514
439.51535	0.89290
437.46154	0.89057
435.40773	0.88900
433.35392	0.88849
431.30011	0.88773
429.24630	0.88653
427.19249	0.88708
425.13868	0.88961
423.08487	0.89225
421.03106	0.89504
418.97725	0.89712
416.92344	0.89709
414.86963	0.89726
412.81582	0.89688
410.76201	0.89661
408.70820	0.90068
406.65439	0.90694
404.60058	0.90890
402.54677	0.90741
400.49296	0.90601
398.43915	0.90641
