3996.70104	0.99657
3994.64724	0.99655
3992.59344	0.99666
3990.53964	0.99697
3988.48583	0.99712
3986.43203	0.99684
3984.37823	0.99650
3982.32442	0.99642
3980.27062	0.99649
3978.21682	0.99680
3976.16301	0.99740
3974.10921	0.99761
3972.05541	0.99689
3970.00160	0.99628
3967.94780	0.99663
3965.89400	0.99697
3963.84019	0.99666
3961.78639	0.99629
3959.73259	0.99616
3957.67878	0.99636
3955.62498	0.99679
3953.57118	0.99678
3951.51737	0.99660
3949.46357	0.99676
3947.40977	0.99649
3945.35596	0.99577
3943.30216	0.99587
3941.24836	0.99677
3939.19455	0.99684
3937.14075	0.99608
3935.08695	0.99578
3933.03315	0.99619
3930.97934	0.99641
3928.92554	0.99604
3926.87174	0.99566
3924.81793	0.99563
3922.76413	0.99602
3920.71033	0.99623
3918.65652	0.99590
3916.60272	0.99578
3914.54892	0.99617
3912.49511	0.99653
3910.44131	0.99663
3908.38751	0.99655
3906.33370	0.99628
3904.27990	0.99612
3902.22610	0.99649
3900.17229	0.99659
3898.11849	0.99641
3896.06469	0.99656
3894.01088	0.99652
3891.95708	0.99626
3889.90328	0.99644
3887.84947	0.99662
3885.79567	0.99613
3883.74187	0.99564
3881.68807	0.99583
3879.63426	0.99594
3877.58046	0.99600
3875.52666	0.99619
3873.47285	0.99625
3871.41905	0.99625
3869.36525	0.99575
3867.31144	0.99500
3865.25764	0.99514
3863.20384	0.99593
3861.15003	0.99618
3859.09623	0.99578
3857.04243	0.99527
3854.98862	0.99504
3852.93482	0.99512
3850.88102	0.99527
3848.82721	0.99543
3846.77341	0.99559
3844.71961	0.99568
3842.66580	0.99580
3840.61200	0.99637
3838.55820	0.99738
3836.50439	0.99789
3834.45059	0.99746
3832.39679	0.99649
3830.34298	0.99583
3828.28918	0.99596
3826.23538	0.99637
3824.18158	0.99692
3822.12777	0.99742
3820.07397	0.99692
3818.02017	0.99602
3815.96636	0.99599
3813.91256	0.99644
3811.85876	0.99634
3809.80495	0.99594
3807.75115	0.99618
3805.69735	0.99695
3803.64354	0.99674
3801.58974	0.99537
3799.53594	0.99450
3797.48213	0.99492
3795.42833	0.99582
3793.37453	0.99646
3791.32072	0.99645
3789.26692	0.99635
3787.21312	0.99677
3785.15931	0.99712
3783.10551	0.99686
3781.05171	0.99638
3778.99790	0.99611
3776.94410	0.99597
3774.89030	0.99586
3772.83650	0.99607
3770.78269	0.99641
3768.72889	0.99680
3766.67509	0.99724
3764.62128	0.99709
3762.56748	0.99638
3760.51368	0.99604
3758.45987	0.99641
3756.40607	0.99691
3754.35227	0.99703
3752.29846	0.99680
3750.24466	0.99672
3748.19086	0.99656
3746.13705	0.99567
3744.08325	0.99479
3742.02945	0.99500
3739.97564	0.99523
3737.92184	0.99514
3735.86804	0.99517
3733.81423	0.99546
3731.76043	0.99590
3729.70663	0.99607
3727.65282	0.99575
3725.59902	0.99544
3723.54522	0.99540
3721.49141	0.99455
3719.43761	0.99286
3717.38381	0.99186
3715.33001	0.99152
3713.27620	0.99039
3711.22240	0.98790
3709.16860	0.98583
3707.11479	0.98488
3705.06099	0.98385
3703.00719	0.98205
3700.95338	0.97987
3698.89958	0.97859
3696.84578	0.97876
3694.79197	0.97976
3692.73817	0.98093
3690.68437	0.98213
3688.63056	0.98297
3686.57676	0.98329
3684.52296	0.98374
3682.46915	0.98421
3680.41535	0.98418
3678.36155	0.98389
3676.30774	0.98356
3674.25394	0.98298
3672.20014	0.98251
3670.14633	0.98197
3668.09253	0.98150
3666.03873	0.98136
3663.98492	0.98110
3661.93112	0.98080
3659.87732	0.98051
3657.82352	0.97982
3655.76971	0.97891
3653.71591	0.97820
3651.66211	0.97776
3649.60830	0.97758
3647.55450	0.97712
3645.50070	0.97663
3643.44689	0.97639
3641.39309	0.97617
3639.33929	0.97569
3637.28548	0.97458
3635.23168	0.97287
3633.17788	0.97157
3631.12407	0.97163
3629.07027	0.97189
3627.01647	0.97087
3624.96266	0.96983
3622.90886	0.96896
3620.85506	0.96813
3618.80125	0.96741
3616.74745	0.96718
3614.69365	0.96764
3612.63984	0.96808
3610.58604	0.96809
3608.53224	0.96756
3606.47844	0.96673
3604.42463	0.96610
3602.37083	0.96546
3600.31703	0.96497
3598.26322	0.96485
3596.20942	0.96497
3594.15562	0.96514
3592.10181	0.96535
3590.04801	0.96585
3587.99421	0.96554
3585.94040	0.96383
3583.88660	0.96282
3581.83280	0.96236
3579.77899	0.96155
3577.72519	0.96060
3575.67139	0.95979
3573.61758	0.95936
3571.56378	0.95949
3569.50998	0.95987
3567.45617	0.95977
3565.40237	0.95897
3563.34857	0.95792
3561.29476	0.95696
3559.24096	0.95630
3557.18716	0.95596
3555.13335	0.95601
3553.07955	0.95575
3551.02575	0.95493
3548.97195	0.95436
3546.91814	0.95376
3544.86434	0.95257
3542.81054	0.95131
3540.75673	0.95027
3538.70293	0.94949
3536.64913	0.94934
3534.59532	0.94987
3532.54152	0.94999
3530.48772	0.94922
3528.43391	0.94856
3526.38011	0.94848
3524.32631	0.94836
3522.27250	0.94798
3520.21870	0.94752
3518.16490	0.94712
3516.11109	0.94663
3514.05729	0.94603
3512.00349	0.94559
3509.94968	0.94512
3507.89588	0.94451
3505.84208	0.94391
3503.78827	0.94320
3501.73447	0.94239
3499.68067	0.94168
3497.62687	0.94105
3495.57306	0.94072
3493.51926	0.94071
3491.46546	0.94026
3489.41165	0.93947
3487.35785	0.93894
3485.30405	0.93832
3483.25024	0.93737
3481.19644	0.93634
3479.14264	0.93552
3477.08883	0.93517
3475.03503	0.93504
3472.98123	0.93451
3470.92742	0.93356
3468.87362	0.93297
3466.81982	0.93319
3464.76601	0.93361
3462.71221	0.93320
3460.65841	0.93211
3458.60460	0.93124
3456.55080	0.93066
3454.49700	0.92969
3452.44319	0.92850
3450.38939	0.92816
3448.33559	0.92864
3446.28178	0.92893
3444.22798	0.92826
3442.17418	0.92715
3440.12038	0.92687
3438.06657	0.92682
3436.01277	0.92584
3433.95897	0.92461
3431.90516	0.92392
3429.85136	0.92342
3427.79756	0.92274
3425.74375	0.92211
3423.68995	0.92160
3421.63615	0.92117
3419.58234	0.92134
3417.52854	0.92195
3415.47474	0.92172
3413.42093	0.92054
3411.36713	0.91944
3409.31333	0.91901
3407.25952	0.91883
3405.20572	0.91859
3403.15192	0.91831
3401.09811	0.91815
3399.04431	0.91839
3396.99051	0.91863
3394.93670	0.91829
3392.88290	0.91756
3390.82910	0.91703
3388.77529	0.91688
3386.72149	0.91676
3384.66769	0.91655
3382.61389	0.91626
3380.56008	0.91627
3378.50628	0.91679
3376.45248	0.91695
3374.39867	0.91644
3372.34487	0.91624
3370.29107	0.91641
3368.23726	0.91653
3366.18346	0.91666
3364.12966	0.91637
3362.07585	0.91587
3360.02205	0.91573
3357.96825	0.91587
3355.91444	0.91630
3353.86064	0.91692
3351.80684	0.91703
3349.75303	0.91665
3347.69923	0.91663
3345.64543	0.91710
3343.59162	0.91744
3341.53782	0.91757
3339.48402	0.91796
3337.43021	0.91838
3335.37641	0.91843
3333.32261	0.91833
3331.26881	0.91812
3329.21500	0.91821
3327.16120	0.91900
3325.10740	0.91975
3323.05359	0.91967
3320.99979	0.91931
3318.94599	0.91954
3316.89218	0.92016
3314.83838	0.92081
3312.78458	0.92144
3310.73077	0.92184
3308.67697	0.92190
3306.62317	0.92195
3304.56936	0.92210
3302.51556	0.92231
3300.46176	0.92265
3298.40795	0.92308
3296.35415	0.92345
3294.30035	0.92351
3292.24654	0.92339
3290.19274	0.92356
3288.13894	0.92400
3286.08513	0.92435
3284.03133	0.92471
3281.97753	0.92505
3279.92372	0.92469
3277.86992	0.92408
3275.81612	0.92429
3273.76232	0.92467
3271.70851	0.92463
3269.65471	0.92500
3267.60091	0.92605
3265.54710	0.92687
3263.49330	0.92704
3261.43950	0.92734
3259.38569	0.92783
3257.33189	0.92800
3255.27809	0.92774
3253.22428	0.92765
3251.17048	0.92812
3249.11668	0.92866
3247.06287	0.92909
3245.00907	0.92954
3242.95527	0.92994
3240.90146	0.93011
3238.84766	0.93015
3236.79386	0.93028
3234.74005	0.93076
3232.68625	0.93168
3230.63245	0.93262
3228.57864	0.93309
3226.52484	0.93317
3224.47104	0.93344
3222.41724	0.93365
3220.36343	0.93347
3218.30963	0.93361
3216.25583	0.93423
3214.20202	0.93489
3212.14822	0.93558
3210.09442	0.93622
3208.04061	0.93680
3205.98681	0.93741
3203.93301	0.93795
3201.87920	0.93849
3199.82540	0.93898
3197.77160	0.93904
3195.71779	0.93876
3193.66399	0.93913
3191.61019	0.94039
3189.55638	0.94153
3187.50258	0.94208
3185.44878	0.94200
3183.39497	0.94169
3181.34117	0.94192
3179.28737	0.94284
3177.23356	0.94412
3175.17976	0.94508
3173.12596	0.94531
3171.07215	0.94557
3169.01835	0.94618
3166.96455	0.94654
3164.91075	0.94671
3162.85694	0.94706
3160.80314	0.94765
3158.74934	0.94842
3156.69553	0.94901
3154.64173	0.94942
3152.58793	0.95004
3150.53412	0.95084
3148.48032	0.95165
3146.42652	0.95240
3144.37271	0.95303
3142.31891	0.95357
3140.26511	0.95389
3138.21130	0.95433
3136.15750	0.95493
3134.10370	0.95517
3132.04989	0.95535
3129.99609	0.95599
3127.94229	0.95696
3125.88848	0.95787
3123.83468	0.95816
3121.78088	0.95813
3119.72707	0.95843
3117.67327	0.95881
3115.61947	0.95911
3113.56566	0.95958
3111.51186	0.96006
3109.45806	0.96025
3107.40426	0.96034
3105.35045	0.96076
3103.29665	0.96179
3101.24285	0.96287
3099.18904	0.96323
3097.13524	0.96336
3095.08144	0.96380
3093.02763	0.96419
3090.97383	0.96421
3088.92003	0.96408
3086.86622	0.96425
3084.81242	0.96484
3082.75862	0.96539
3080.70481	0.96588
3078.65101	0.96638
3076.59721	0.96667
3074.54340	0.96696
3072.48960	0.96747
3070.43580	0.96823
3068.38199	0.96888
3066.32819	0.96916
3064.27439	0.96936
3062.22058	0.96942
3060.16678	0.96964
3058.11298	0.97030
3056.05918	0.97047
3054.00537	0.97012
3051.95157	0.97031
3049.89777	0.97073
3047.84396	0.97099
3045.79016	0.97151
3043.73636	0.97199
3041.68255	0.97227
3039.62875	0.97269
3037.57495	0.97302
3035.52114	0.97308
3033.46734	0.97300
3031.41354	0.97257
3029.35973	0.97222
3027.30593	0.97260
3025.25213	0.97331
3023.19832	0.97363
3021.14452	0.97349
3019.09072	0.97328
3017.03691	0.97316
3014.98311	0.97321
3012.92931	0.97348
3010.87550	0.97365
3008.82170	0.97361
3006.76790	0.97342
3004.71409	0.97270
3002.66029	0.97187
3000.60649	0.97163
2998.55269	0.97156
2996.49888	0.97092
2994.44508	0.96968
2992.39128	0.96804
2990.33747	0.96623
2988.28367	0.96471
2986.22987	0.96307
2984.17606	0.96056
2982.12226	0.95708
2980.06846	0.95237
2978.01465	0.94601
2975.96085	0.93813
2973.90705	0.92870
2971.85324	0.91721
2969.79944	0.90310
2967.74564	0.88624
2965.69183	0.86772
2963.63803	0.84916
2961.58423	0.83268
2959.53042	0.82051
2957.47662	0.81281
2955.42282	0.80719
2953.36901	0.80143
2951.31521	0.79668
2949.26141	0.79790
2947.20761	0.80916
2945.15380	0.82857
2943.10000	0.84940
2941.04620	0.86499
2938.99239	0.87184
2936.93859	0.86966
2934.88479	0.86032
2932.83098	0.84612
2930.77718	0.82849
2928.72338	0.80921
2926.66957	0.79040
2924.61577	0.77273
2922.56197	0.75603
2920.50816	0.74127
2918.45436	0.73080
2916.40056	0.72800
2914.34675	0.73494
2912.29295	0.74888
2910.23915	0.76393
2908.18534	0.77709
2906.13154	0.78920
2904.07774	0.80135
2902.02393	0.81396
2899.97013	0.82688
2897.91633	0.83927
2895.86252	0.85030
2893.80872	0.85932
2891.75492	0.86571
2889.70112	0.86953
2887.64731	0.87129
2885.59351	0.87126
2883.53971	0.86954
2881.48590	0.86628
2879.43210	0.86242
2877.37830	0.85994
2875.32449	0.85986
2873.27069	0.86085
2871.21689	0.86073
2869.16308	0.85918
2867.10928	0.85945
2865.05548	0.86608
2863.00167	0.87926
2860.94787	0.89393
2858.89407	0.90430
2856.84026	0.90722
2854.78646	0.90319
2852.73266	0.89554
2850.67885	0.88906
2848.62505	0.88695
2846.57125	0.88689
2844.51744	0.88364
2842.46364	0.87534
2840.40984	0.86507
2838.35603	0.85872
2836.30223	0.86194
2834.24843	0.87611
2832.19463	0.89705
2830.14082	0.91807
2828.08702	0.93454
2826.03322	0.94583
2823.97941	0.95329
2821.92561	0.95857
2819.87181	0.96245
2817.81800	0.96484
2815.76420	0.96636
2813.71040	0.96780
2811.65659	0.96927
2809.60279	0.97078
2807.54899	0.97208
2805.49518	0.97327
2803.44138	0.97477
2801.38758	0.97629
2799.33377	0.97764
2797.27997	0.97882
2795.22617	0.97961
2793.17236	0.98025
2791.11856	0.98109
2789.06476	0.98207
2787.01095	0.98299
2784.95715	0.98382
2782.90335	0.98464
2780.84955	0.98537
2778.79574	0.98574
2776.74194	0.98584
2774.68814	0.98609
2772.63433	0.98648
2770.58053	0.98657
2768.52673	0.98634
2766.47292	0.98636
2764.41912	0.98686
2762.36532	0.98743
2760.31151	0.98772
2758.25771	0.98776
2756.20391	0.98765
2754.15010	0.98759
2752.09630	0.98762
2750.04250	0.98761
2747.98869	0.98757
2745.93489	0.98768
2743.88109	0.98810
2741.82728	0.98852
2739.77348	0.98832
2737.71968	0.98774
2735.66587	0.98740
2733.61207	0.98704
2731.55827	0.98660
2729.50446	0.98637
2727.45066	0.98605
2725.39686	0.98535
2723.34306	0.98469
2721.28925	0.98474
2719.23545	0.98537
2717.18165	0.98587
2715.12784	0.98622
2713.07404	0.98682
2711.02024	0.98772
2708.96643	0.98851
2706.91263	0.98885
2704.85883	0.98906
2702.80502	0.98944
2700.75122	0.98957
2698.69742	0.98934
2696.64361	0.98921
2694.58981	0.98929
2692.53601	0.98949
2690.48220	0.98968
2688.42840	0.98979
2686.37460	0.99011
2684.32079	0.99029
2682.26699	0.99002
2680.21319	0.98980
2678.15938	0.98954
2676.10558	0.98929
2674.05178	0.98947
2671.99797	0.98984
2669.94417	0.99006
2667.89037	0.99002
2665.83657	0.98983
2663.78276	0.98961
2661.72896	0.98934
2659.67516	0.98918
2657.62135	0.98925
2655.56755	0.98944
2653.51375	0.98961
2651.45994	0.98972
2649.40614	0.98971
2647.35234	0.98972
2645.29853	0.98996
2643.24473	0.99015
2641.19093	0.99027
2639.13712	0.99067
2637.08332	0.99096
2635.02952	0.99078
2632.97571	0.99064
2630.92191	0.99099
2628.86811	0.99156
2626.81430	0.99175
2624.76050	0.99138
2622.70670	0.99098
2620.65289	0.99099
2618.59909	0.99114
2616.54529	0.99099
2614.49149	0.99048
2612.43768	0.99025
2610.38388	0.99080
2608.33008	0.99157
2606.27627	0.99197
2604.22247	0.99187
2602.16867	0.99169
2600.11486	0.99207
2598.06106	0.99256
2596.00726	0.99260
2593.95345	0.99260
2591.89965	0.99285
2589.84585	0.99313
2587.79204	0.99308
2585.73824	0.99253
2583.68444	0.99209
2581.63063	0.99221
2579.57683	0.99263
2577.52303	0.99290
2575.46922	0.99271
2573.41542	0.99270
2571.36162	0.99300
2569.30781	0.99291
2567.25401	0.99258
2565.20021	0.99271
2563.14640	0.99334
2561.09260	0.99362
2559.03880	0.99358
2556.98500	0.99356
2554.93119	0.99322
2552.87739	0.99306
2550.82359	0.99321
2548.76978	0.99319
2546.71598	0.99314
2544.66218	0.99331
2542.60837	0.99358
2540.55457	0.99364
2538.50077	0.99323
2536.44696	0.99322
2534.39316	0.99408
2532.33936	0.99443
2530.28555	0.99412
2528.23175	0.99393
2526.17795	0.99366
2524.12414	0.99344
2522.07034	0.99351
2520.01654	0.99367
2517.96273	0.99384
2515.90893	0.99403
2513.85513	0.99469
2511.80132	0.99573
2509.74752	0.99592
2507.69372	0.99516
2505.63992	0.99465
2503.58611	0.99465
2501.53231	0.99443
2499.47851	0.99425
2497.42470	0.99443
2495.37090	0.99441
2493.31710	0.99437
2491.26329	0.99436
2489.20949	0.99420
2487.15569	0.99455
2485.10188	0.99514
2483.04808	0.99495
2480.99428	0.99467
2478.94047	0.99530
2476.88667	0.99585
2474.83287	0.99549
2472.77906	0.99511
2470.72526	0.99517
2468.67146	0.99571
2466.61765	0.99643
2464.56385	0.99646
2462.51005	0.99588
2460.45624	0.99529
2458.40244	0.99481
2456.34864	0.99456
2454.29483	0.99443
2452.24103	0.99429
2450.18723	0.99427
2448.13343	0.99436
2446.07962	0.99438
2444.02582	0.99414
2441.97202	0.99404
2439.91821	0.99422
2437.86441	0.99420
2435.81061	0.99415
2433.75680	0.99447
2431.70300	0.99486
2429.64920	0.99461
2427.59539	0.99406
2425.54159	0.99436
2423.48779	0.99526
2421.43398	0.99549
2419.38018	0.99521
2417.32638	0.99518
2415.27257	0.99510
2413.21877	0.99471
2411.16497	0.99419
2409.11116	0.99415
2407.05736	0.99471
2405.00356	0.99513
2402.94975	0.99499
2400.89595	0.99448
2398.84215	0.99414
2396.78834	0.99421
2394.73454	0.99441
2392.68074	0.99463
2390.62694	0.99484
2388.57313	0.99513
2386.51933	0.99530
2384.46553	0.99518
2382.41172	0.99493
2380.35792	0.99445
2378.30412	0.99370
2376.25031	0.99322
2374.19651	0.99364
2372.14271	0.99433
2370.08890	0.99435
2368.03510	0.99414
2365.98130	0.99408
2363.92749	0.99406
2361.87369	0.99378
2359.81989	0.99359
2357.76608	0.99416
2355.71228	0.99432
2353.65848	0.99371
2351.60467	0.99337
2349.55087	0.99343
2347.49707	0.99347
2345.44326	0.99268
2343.38946	0.99173
2341.33566	0.99190
2339.28186	0.99227
2337.22805	0.99219
2335.17425	0.99189
2333.12045	0.99206
2331.06664	0.99278
2329.01284	0.99321
2326.95904	0.99265
2324.90523	0.99132
2322.85143	0.99013
2320.79763	0.98990
2318.74382	0.99129
2316.69002	0.99313
2314.63622	0.99396
2312.58241	0.99377
2310.52861	0.99292
2308.47481	0.99188
2306.42100	0.99136
2304.36720	0.99146
2302.31340	0.99184
2300.25959	0.99260
2298.20579	0.99320
2296.15199	0.99294
2294.09818	0.99244
2292.04438	0.99238
2289.99058	0.99252
2287.93677	0.99262
2285.88297	0.99290
2283.82917	0.99347
2281.77537	0.99406
2279.72156	0.99392
2277.66776	0.99283
2275.61396	0.99190
2273.56015	0.99164
2271.50635	0.99158
2269.45255	0.99182
2267.39874	0.99234
2265.34494	0.99277
2263.29114	0.99306
2261.23733	0.99321
2259.18353	0.99350
2257.12973	0.99445
2255.07592	0.99522
2253.02212	0.99488
2250.96832	0.99461
2248.91451	0.99538
2246.86071	0.99550
2244.80691	0.99378
2242.75310	0.99231
2240.69930	0.99275
2238.64550	0.99341
2236.59169	0.99314
2234.53789	0.99339
2232.48409	0.99477
2230.43029	0.99572
2228.37648	0.99561
2226.32268	0.99549
2224.26888	0.99531
2222.21507	0.99440
2220.16127	0.99291
2218.10747	0.99149
2216.05366	0.99157
2213.99986	0.99359
2211.94606	0.99559
2209.89225	0.99608
2207.83845	0.99591
2205.78465	0.99559
2203.73084	0.99501
2201.67704	0.99469
2199.62324	0.99454
2197.56943	0.99442
2195.51563	0.99506
2193.46183	0.99615
2191.40802	0.99604
2189.35422	0.99444
2187.30042	0.99237
2185.24661	0.99136
2183.19281	0.99231
2181.13901	0.99349
2179.08520	0.99402
2177.03140	0.99642
2174.97760	1.00060
2172.92380	1.00190
2170.86999	0.99977
2168.81619	0.99824
2166.76239	0.99810
2164.70858	0.99701
2162.65478	0.99574
2160.60098	0.99770
2158.54717	1.00160
2156.49337	1.00301
2154.43957	1.00212
2152.38576	1.00096
2150.33196	1.00036
2148.27816	0.99996
2146.22435	0.99833
2144.17055	0.99690
2142.11675	0.99726
2140.06294	0.99830
2138.00914	0.99906
2135.95534	0.99860
2133.90153	0.99719
2131.84773	0.99712
2129.79393	0.99861
2127.74012	0.99890
2125.68632	0.99725
2123.63252	0.99540
2121.57871	0.99415
2119.52491	0.99322
2117.47111	0.99319
2115.41731	0.99418
2113.36350	0.99500
2111.30970	0.99547
2109.25590	0.99488
2107.20209	0.99309
2105.14829	0.99218
2103.09449	0.99293
2101.04068	0.99432
2098.98688	0.99557
2096.93308	0.99662
2094.87927	0.99726
2092.82547	0.99712
2090.77167	0.99650
2088.71786	0.99590
2086.66406	0.99638
2084.61026	0.99769
2082.55645	0.99731
2080.50265	0.99570
2078.44885	0.99542
2076.39504	0.99607
2074.34124	0.99631
2072.28744	0.99601
2070.23363	0.99575
2068.17983	0.99665
2066.12603	0.99841
2064.07223	0.99923
2062.01842	0.99892
2059.96462	0.99851
2057.91082	0.99843
2055.85701	0.99868
2053.80321	0.99859
2051.74941	0.99816
2049.69560	0.99783
2047.64180	0.99645
2045.58800	0.99475
2043.53419	0.99433
2041.48039	0.99332
2039.42659	0.99169
2037.37278	0.99153
2035.31898	0.99313
2033.26518	0.99619
2031.21137	0.99902
2029.15757	1.00092
2027.10377	1.00173
2025.04996	0.99994
2022.99616	0.99845
2020.94236	0.99848
2018.88855	0.99697
2016.83475	0.99532
2014.78095	0.99543
2012.72714	0.99737
2010.67334	1.00057
2008.61954	1.00205
2006.56574	1.00135
2004.51193	1.00055
2002.45813	1.00005
2000.40433	0.99983
1998.35052	0.99960
1996.29672	0.99828
1994.24292	0.99642
1992.18911	0.99578
1990.13531	0.99631
1988.08151	0.99723
1986.02770	0.99805
1983.97390	0.99772
1981.92010	0.99591
1979.86629	0.99350
1977.81249	0.99277
1975.75869	0.99463
1973.70488	0.99635
1971.65108	0.99603
1969.59728	0.99544
1967.54347	0.99666
1965.48967	0.99885
1963.43587	0.99975
1961.38206	0.99904
1959.32826	0.99811
1957.27446	0.99692
1955.22066	0.99572
1953.16685	0.99633
1951.11305	0.99798
1949.05925	0.99835
1947.00544	0.99777
1944.95164	0.99706
1942.89784	0.99542
1940.84403	0.99402
1938.79023	0.99440
1936.73643	0.99518
1934.68262	0.99552
1932.62882	0.99643
1930.57502	0.99748
1928.52121	0.99783
1926.46741	0.99755
1924.41361	0.99641
1922.35980	0.99558
1920.30600	0.99647
1918.25220	0.99758
1916.19839	0.99716
1914.14459	0.99642
1912.09079	0.99642
1910.03698	0.99606
1907.98318	0.99524
1905.92938	0.99527
1903.87557	0.99617
1901.82177	0.99693
1899.76797	0.99687
1897.71417	0.99655
1895.66036	0.99640
1893.60656	0.99598
1891.55276	0.99564
1889.49895	0.99525
1887.44515	0.99456
1885.39135	0.99452
1883.33754	0.99478
1881.28374	0.99491
1879.22994	0.99537
1877.17613	0.99607
1875.12233	0.99669
1873.06853	0.99713
1871.01472	0.99717
1868.96092	0.99690
1866.90712	0.99639
1864.85331	0.99535
1862.79951	0.99460
1860.74571	0.99488
1858.69190	0.99535
1856.63810	0.99529
1854.58430	0.99522
1852.53049	0.99535
1850.47669	0.99567
1848.42289	0.99627
1846.36908	0.99666
1844.31528	0.99651
1842.26148	0.99620
1840.20768	0.99582
1838.15387	0.99513
1836.10007	0.99462
1834.04627	0.99485
1831.99246	0.99568
1829.93866	0.99683
1827.88486	0.99729
1825.83105	0.99687
1823.77725	0.99629
1821.72345	0.99583
1819.66964	0.99580
1817.61584	0.99623
1815.56204	0.99627
1813.50823	0.99578
1811.45443	0.99535
1809.40063	0.99523
1807.34682	0.99540
1805.29302	0.99533
1803.23922	0.99468
1801.18541	0.99425
1799.13161	0.99485
1797.07781	0.99571
1795.02400	0.99569
1792.97020	0.99488
1790.91640	0.99467
1788.86260	0.99499
1786.80879	0.99481
1784.75499	0.99442
1782.70119	0.99425
1780.64738	0.99442
1778.59358	0.99479
1776.53978	0.99480
1774.48597	0.99429
1772.43217	0.99370
1770.37837	0.99363
1768.32456	0.99341
1766.27076	0.99287
1764.21696	0.99256
1762.16315	0.99240
1760.10935	0.99231
1758.05555	0.99208
1756.00174	0.99150
1753.94794	0.99111
1751.89414	0.99080
1749.84033	0.98989
1747.78653	0.98900
1745.73273	0.98902
1743.67892	0.98932
1741.62512	0.98877
1739.57132	0.98765
1737.51751	0.98723
1735.46371	0.98735
1733.40991	0.98724
1731.35611	0.98713
1729.30230	0.98702
1727.24850	0.98643
1725.19470	0.98561
1723.14089	0.98508
1721.08709	0.98476
1719.03329	0.98445
1716.97948	0.98442
1714.92568	0.98419
1712.87188	0.98332
1710.81807	0.98243
1708.76427	0.98183
1706.71047	0.98122
1704.65666	0.98060
1702.60286	0.98002
1700.54906	0.97881
1698.49525	0.97728
1696.44145	0.97569
1694.38765	0.97378
1692.33384	0.97249
1690.28004	0.97131
1688.22624	0.96994
1686.17243	0.96847
1684.11863	0.96595
1682.06483	0.96402
1680.01103	0.96339
1677.95722	0.96267
1675.90342	0.96139
1673.84962	0.95964
1671.79581	0.95822
1669.74201	0.95700
1667.68821	0.95556
1665.63440	0.95431
1663.58060	0.95302
1661.52680	0.95173
1659.47299	0.95095
1657.41919	0.95036
1655.36539	0.94965
1653.31158	0.94860
1651.25778	0.94786
1649.20398	0.94771
1647.15017	0.94752
1645.09637	0.94725
1643.04257	0.94733
1640.98876	0.94758
1638.93496	0.94780
1636.88116	0.94804
1634.82735	0.94856
1632.77355	0.94952
1630.71975	0.95029
1628.66594	0.95064
1626.61214	0.95108
1624.55834	0.95200
1622.50454	0.95300
1620.45073	0.95384
1618.39693	0.95466
1616.34313	0.95569
1614.28932	0.95709
1612.23552	0.95856
1610.18172	0.95982
1608.12791	0.96079
1606.07411	0.96159
1604.02031	0.96228
1601.96650	0.96306
1599.91270	0.96406
1597.85890	0.96514
1595.80509	0.96590
1593.75129	0.96610
1591.69749	0.96633
1589.64368	0.96714
1587.58988	0.96798
1585.53608	0.96847
1583.48227	0.96888
1581.42847	0.96928
1579.37467	0.96940
1577.32086	0.96914
1575.26706	0.96895
1573.21326	0.96925
1571.15945	0.96954
1569.10565	0.96962
1567.05185	0.96971
1564.99805	0.96964
1562.94424	0.96935
1560.89044	0.96919
1558.83664	0.96918
1556.78283	0.96899
1554.72903	0.96904
1552.67523	0.96947
1550.62142	0.97001
1548.56762	0.97045
1546.51382	0.97070
1544.46001	0.97080
1542.40621	0.97121
1540.35241	0.97246
1538.29860	0.97367
1536.24480	0.97416
1534.19100	0.97490
1532.13719	0.97595
1530.08339	0.97666
1528.02959	0.97708
1525.97578	0.97734
1523.92198	0.97776
1521.86818	0.97856
1519.81437	0.97941
1517.76057	0.97982
1515.70677	0.97981
1513.65297	0.97955
1511.59916	0.97926
1509.54536	0.97931
1507.49156	0.97971
1505.43775	0.98008
1503.38395	0.98040
1501.33015	0.98067
1499.27634	0.98079
1497.22254	0.98069
1495.16874	0.98023
1493.11493	0.97966
1491.06113	0.97903
1489.00733	0.97787
1486.95352	0.97603
1484.89972	0.97428
1482.84592	0.97262
1480.79211	0.97039
1478.73831	0.96698
1476.68451	0.96130
1474.63070	0.95172
1472.57690	0.93662
1470.52310	0.92093
1468.46929	0.90843
1466.41549	0.89415
1464.36169	0.87655
1462.30788	0.86386
1460.25408	0.85786
1458.20028	0.85381
1456.14648	0.85100
1454.09267	0.85173
1452.03887	0.85557
1449.98507	0.86414
1447.93126	0.87971
1445.87746	0.89831
1443.82366	0.91332
1441.76985	0.92376
1439.71605	0.92953
1437.66225	0.93201
1435.60844	0.93498
1433.55464	0.94126
1431.50084	0.94949
1429.44703	0.95711
1427.39323	0.96178
1425.33943	0.96430
1423.28562	0.96578
1421.23182	0.96662
1419.17802	0.96752
1417.12421	0.96830
1415.07041	0.96846
1413.01661	0.96845
1410.96280	0.96862
1408.90900	0.96890
1406.85520	0.96923
1404.80139	0.96980
1402.74759	0.97045
1400.69379	0.97058
1398.63999	0.97029
1396.58618	0.97007
1394.53238	0.96942
1392.47858	0.96769
1390.42477	0.96529
1388.37097	0.96123
1386.31717	0.95218
1384.26336	0.93534
1382.20956	0.90727
1380.15576	0.86581
1378.10195	0.82226
1376.04815	0.80213
1373.99435	0.82339
1371.94054	0.86741
1369.88674	0.90437
1367.83294	0.92756
1365.77913	0.93809
1363.72533	0.94038
1361.67153	0.93831
1359.61772	0.93622
1357.56392	0.93797
1355.51012	0.94412
1353.45631	0.95178
1351.40251	0.95802
1349.34871	0.96245
1347.29491	0.96554
1345.24110	0.96769
1343.18730	0.96927
1341.13350	0.97055
1339.07969	0.97113
1337.02589	0.97079
1334.97209	0.97018
1332.91828	0.96939
1330.86448	0.96852
1328.81068	0.96846
1326.75687	0.96933
1324.70307	0.97031
1322.64927	0.97117
1320.59546	0.97226
1318.54166	0.97342
1316.48786	0.97404
1314.43405	0.97406
1312.38025	0.97383
1310.32645	0.97309
1308.27264	0.97121
1306.21884	0.96867
1304.16504	0.96727
1302.11123	0.96778
1300.05743	0.96891
1298.00363	0.96957
1295.94982	0.96982
1293.89602	0.97004
1291.84222	0.97047
1289.78842	0.97133
1287.73461	0.97230
1285.68081	0.97288
1283.62701	0.97304
1281.57320	0.97301
1279.51940	0.97285
1277.46560	0.97254
1275.41179	0.97224
1273.35799	0.97185
1271.30419	0.97126
1269.25038	0.97064
1267.19658	0.97001
1265.14278	0.96910
1263.08897	0.96774
1261.03517	0.96598
1258.98137	0.96380
1256.92756	0.96165
1254.87376	0.96086
1252.81996	0.96185
1250.76615	0.96347
1248.71235	0.96454
1246.65855	0.96478
1244.60474	0.96459
1242.55094	0.96420
1240.49714	0.96365
1238.44334	0.96302
1236.38953	0.96250
1234.33573	0.96235
1232.28193	0.96217
1230.22812	0.96161
1228.17432	0.96089
1226.12052	0.96020
1224.06671	0.95953
1222.01291	0.95889
1219.95911	0.95819
1217.90530	0.95747
1215.85150	0.95690
1213.79770	0.95657
1211.74389	0.95648
1209.69009	0.95637
1207.63629	0.95583
1205.58248	0.95493
1203.52868	0.95420
1201.47488	0.95365
1199.42107	0.95290
1197.36727	0.95198
1195.31347	0.95115
1193.25966	0.95027
1191.20586	0.94901
1189.15206	0.94736
1187.09825	0.94576
1185.04445	0.94431
1182.99065	0.94262
1180.93685	0.94026
1178.88304	0.93688
1176.82924	0.93243
1174.77544	0.92664
1172.72163	0.91889
1170.66783	0.91015
1168.61403	0.90301
1166.56022	0.89964
1164.50642	0.90015
1162.45262	0.90247
1160.39881	0.90416
1158.34501	0.90460
1156.29121	0.90444
1154.23740	0.90421
1152.18360	0.90417
1150.12980	0.90438
1148.07599	0.90487
1146.02219	0.90548
1143.96839	0.90569
1141.91458	0.90585
1139.86078	0.90645
1137.80698	0.90666
1135.75317	0.90570
1133.69937	0.90384
1131.64557	0.90178
1129.59176	0.89984
1127.53796	0.89760
1125.48416	0.89479
1123.43036	0.89176
1121.37655	0.88868
1119.32275	0.88519
1117.26895	0.88127
1115.21514	0.87735
1113.16134	0.87382
1111.10754	0.87055
1109.05373	0.86703
1106.99993	0.86319
1104.94613	0.85956
1102.89232	0.85705
1100.83852	0.85576
1098.78472	0.85494
1096.73091	0.85444
1094.67711	0.85419
1092.62331	0.85403
1090.56950	0.85403
1088.51570	0.85388
1086.46190	0.85350
1084.40809	0.85325
1082.35429	0.85280
1080.30049	0.85187
1078.24668	0.85115
1076.19288	0.85089
1074.13908	0.85028
1072.08528	0.84903
1070.03147	0.84769
1067.97767	0.84615
1065.92387	0.84432
1063.87006	0.84244
1061.81626	0.83996
1059.76246	0.83679
1057.70865	0.83366
1055.65485	0.83063
1053.60105	0.82737
1051.54724	0.82381
1049.49344	0.81939
1047.43964	0.81425
1045.38583	0.80961
1043.33203	0.80563
1041.27823	0.80202
1039.22442	0.79913
1037.17062	0.79710
1035.11682	0.79556
1033.06301	0.79434
1031.00921	0.79367
1028.95541	0.79366
1026.90160	0.79414
1024.84780	0.79507
1022.79400	0.79622
1020.74019	0.79703
1018.68639	0.79728
1016.63259	0.79731
1014.57879	0.79750
1012.52498	0.79753
1010.47118	0.79692
1008.41738	0.79575
1006.36357	0.79453
1004.30977	0.79281
1002.25597	0.78919
1000.20216	0.78399
998.14836	0.78169
996.09456	0.78718
994.04075	0.79909
991.98695	0.81176
989.93315	0.82180
987.87934	0.82924
985.82554	0.83507
983.77174	0.83929
981.71793	0.84116
979.66413	0.83942
977.61033	0.83325
975.55652	0.82562
973.50272	0.82326
971.44892	0.83100
969.39511	0.84615
967.34131	0.86107
965.28751	0.87150
963.23371	0.87833
961.17990	0.88351
959.12610	0.88785
957.07230	0.89139
955.01849	0.89424
952.96469	0.89652
950.91089	0.89841
948.85708	0.90002
946.80328	0.90101
944.74948	0.90140
942.69567	0.90202
940.64187	0.90309
938.58807	0.90431
936.53426	0.90595
934.48046	0.90791
932.42666	0.90942
930.37285	0.91040
928.31905	0.91119
926.26525	0.91161
924.21144	0.91154
922.15764	0.91100
920.10384	0.91023
918.05003	0.90938
915.99623	0.90854
913.94243	0.90771
911.88862	0.90717
909.83482	0.90779
907.78102	0.90928
905.72722	0.91001
903.67341	0.90923
901.61961	0.90804
899.56581	0.90843
897.51200	0.91199
895.45820	0.91802
893.40440	0.92383
891.35059	0.92796
889.29679	0.93044
887.24299	0.93188
885.18918	0.93313
883.13538	0.93426
881.08158	0.93497
879.02777	0.93544
876.97397	0.93609
874.92017	0.93715
872.86636	0.93805
870.81256	0.93811
868.75876	0.93784
866.70495	0.93815
864.65115	0.93904
862.59735	0.94026
860.54354	0.94164
858.48974	0.94217
856.43594	0.94145
854.38213	0.94066
852.32833	0.94054
850.27453	0.93998
848.22073	0.93737
846.16692	0.93133
844.11312	0.92077
842.05932	0.91127
840.00551	0.91263
837.95171	0.92334
835.89791	0.93295
833.84410	0.93693
831.79030	0.93751
829.73650	0.93789
827.68269	0.93870
825.62889	0.93863
823.57509	0.93814
821.52128	0.93806
819.46748	0.93768
817.41368	0.93634
815.35987	0.93367
813.30607	0.92977
811.25227	0.92541
809.19846	0.92171
807.14466	0.92003
805.09086	0.92060
803.03705	0.92189
800.98325	0.92314
798.92945	0.92427
796.87565	0.92467
794.82184	0.92485
792.76804	0.92561
790.71424	0.92643
788.66043	0.92672
786.60663	0.92675
784.55283	0.92681
782.49902	0.92650
780.44522	0.92609
778.39142	0.92629
776.33761	0.92662
774.28381	0.92679
772.23001	0.92682
770.17620	0.92637
768.12240	0.92558
766.06860	0.92483
764.01479	0.92429
761.96099	0.92377
759.90719	0.92291
757.85338	0.92213
755.79958	0.92191
753.74578	0.92181
751.69197	0.92137
749.63817	0.92089
747.58437	0.92061
745.53056	0.91986
743.47676	0.91912
741.42296	0.91985
739.36916	0.92135
737.31535	0.92203
735.26155	0.92180
733.20775	0.92083
731.15394	0.91995
729.10014	0.92012
727.04634	0.91953
724.99253	0.91695
722.93873	0.91372
720.88493	0.91121
718.83112	0.91098
716.77732	0.91309
714.72352	0.91530
712.66971	0.91645
710.61591	0.91660
708.56211	0.91570
706.50830	0.91427
704.45450	0.91307
702.40070	0.91177
700.34689	0.91025
698.29309	0.90923
696.23929	0.90806
694.18548	0.90668
692.13168	0.90642
690.07788	0.90608
688.02408	0.90518
685.97027	0.90600
683.91647	0.90826
681.86267	0.90915
679.80886	0.90813
677.75506	0.90685
675.70126	0.90640
673.64745	0.90671
671.59365	0.90704
669.53985	0.90651
667.48604	0.90544
665.43224	0.90623
663.37844	0.90761
661.32463	0.90817
659.27083	0.90831
657.21703	0.90827
655.16322	0.90799
653.10942	0.90795
651.05562	0.90747
649.00181	0.90553
646.94801	0.90384
644.89421	0.90426
642.84040	0.90539
640.78660	0.90547
638.73280	0.90576
636.67899	0.90707
634.62519	0.90720
632.57139	0.90557
630.51759	0.90453
628.46378	0.90513
626.40998	0.90626
624.35618	0.90706
622.30237	0.90626
620.24857	0.90381
618.19477	0.90123
616.14096	0.89910
614.08716	0.89788
612.03336	0.89762
609.97955	0.89763
607.92575	0.89684
605.87195	0.89547
603.81814	0.89539
601.76434	0.89580
599.71054	0.89509
597.65673	0.89380
595.60293	0.89243
593.54913	0.89151
591.49532	0.89107
589.44152	0.89111
587.38772	0.89160
585.33391	0.89083
583.28011	0.88924
581.22631	0.88924
579.17250	0.88989
577.11870	0.88978
575.06490	0.88964
573.01110	0.88935
570.95729	0.88779
568.90349	0.88469
566.84969	0.88211
564.79588	0.88112
562.74208	0.87996
560.68828	0.87823
558.63447	0.87710
556.58067	0.87596
554.52687	0.87417
552.47306	0.87282
550.41926	0.87165
548.36546	0.86981
546.31165	0.86770
544.25785	0.86542
542.20405	0.86263
540.15024	0.85943
538.09644	0.85618
536.04264	0.85350
533.98883	0.85176
531.93503	0.85040
529.88123	0.84838
527.82742	0.84685
525.77362	0.84711
523.71982	0.84790
521.66602	0.85014
519.61221	0.85435
517.55841	0.85748
515.50461	0.85854
513.45080	0.85902
511.39700	0.85876
509.34320	0.85918
507.28939	0.86349
505.23559	0.86839
503.18179	0.86857
501.12798	0.86542
499.07418	0.86344
497.02038	0.86410
494.96657	0.86534
492.91277	0.86532
490.85897	0.86409
488.80516	0.86193
486.75136	0.85909
484.69756	0.85621
482.64375	0.85362
480.58995	0.85064
478.53615	0.84652
476.48234	0.84042
474.42854	0.83200
472.37474	0.82376
470.32093	0.81874
468.26713	0.81548
466.21333	0.81272
464.15953	0.81175
462.10572	0.81354
460.05192	0.81678
457.99812	0.82031
455.94431	0.82524
453.89051	0.82920
451.83671	0.83085
449.78290	0.83235
447.72910	0.83383
445.67530	0.83733
443.62149	0.84487
441.56769	0.84983
439.51389	0.84762
437.46008	0.84153
435.40628	0.83758
433.35248	0.83826
431.29867	0.83846
429.24487	0.83822
427.19107	0.83817
425.13726	0.83448
423.08346	0.83060
421.02966	0.83028
418.97585	0.83239
416.92205	0.83646
414.86825	0.84176
412.81445	0.84845
410.76064	0.85380
408.70684	0.85537
406.65304	0.85497
404.59923	0.85502
402.54543	0.85430
400.49163	0.85187
398.43782	0.84884
