3996.70104	0.96194
3994.64724	0.96218
3992.59344	0.96181
3990.53964	0.96099
3988.48583	0.96048
3986.43203	0.96065
3984.37823	0.96125
3982.32442	0.96175
3980.27062	0.96189
3978.21682	0.96142
3976.16301	0.96050
3974.10921	0.96033
3972.05541	0.96088
3970.00160	0.96089
3967.94780	0.96058
3965.89400	0.96065
3963.84019	0.96083
3961.78639	0.96107
3959.73259	0.96143
3957.67878	0.96112
3955.62498	0.96021
3953.57118	0.96015
3951.51737	0.96106
3949.46357	0.96168
3947.40977	0.96173
3945.35596	0.96163
3943.30216	0.96121
3941.24836	0.96049
3939.19455	0.96023
3937.14075	0.96084
3935.08695	0.96168
3933.03315	0.96195
3930.97934	0.96164
3928.92554	0.96140
3926.87174	0.96104
3924.81793	0.96016
3922.76413	0.95976
3920.71033	0.96065
3918.65652	0.96160
3916.60272	0.96132
3914.54892	0.96083
3912.49511	0.96108
3910.44131	0.96153
3908.38751	0.96172
3906.33370	0.96190
3904.27990	0.96239
3902.22610	0.96223
3900.17229	0.96108
3898.11849	0.96046
3896.06469	0.96066
3894.01088	0.96094
3891.95708	0.96135
3889.90328	0.96175
3887.84947	0.96166
3885.79567	0.96139
3883.74187	0.96155
3881.68807	0.96177
3879.63426	0.96139
3877.58046	0.96078
3875.52666	0.96050
3873.47285	0.96081
3871.41905	0.96155
3869.36525	0.96200
3867.31144	0.96185
3865.25764	0.96157
3863.20384	0.96162
3861.15003	0.96167
3859.09623	0.96162
3857.04243	0.96185
3854.98862	0.96193
3852.93482	0.96125
3850.88102	0.96109
3848.82721	0.96174
3846.77341	0.96191
3844.71961	0.96138
3842.66580	0.96142
3840.61200	0.96228
3838.55820	0.96289
3836.50439	0.96252
3834.45059	0.96173
3832.39679	0.96129
3830.34298	0.96121
3828.28918	0.96155
3826.23538	0.96231
3824.18158	0.96312
3822.12777	0.96308
3820.07397	0.96195
3818.02017	0.96124
3815.96636	0.96131
3813.91256	0.96173
3811.85876	0.96221
3809.80495	0.96274
3807.75115	0.96277
3805.69735	0.96208
3803.64354	0.96169
3801.58974	0.96136
3799.53594	0.96134
3797.48213	0.96192
3795.42833	0.96233
3793.37453	0.96272
3791.32072	0.96300
3789.26692	0.96278
3787.21312	0.96239
3785.15931	0.96243
3783.10551	0.96302
3781.05171	0.96339
3778.99790	0.96294
3776.94410	0.96197
3774.89030	0.96125
3772.83650	0.96135
3770.78269	0.96196
3768.72889	0.96190
3766.67509	0.96145
3764.62128	0.96154
3762.56748	0.96205
3760.51368	0.96275
3758.45987	0.96269
3756.40607	0.96198
3754.35227	0.96215
3752.29846	0.96280
3750.24466	0.96269
3748.19086	0.96258
3746.13705	0.96269
3744.08325	0.96258
3742.02945	0.96268
3739.97564	0.96313
3737.92184	0.96403
3735.86804	0.96461
3733.81423	0.96344
3731.76043	0.96259
3729.70663	0.96251
3727.65282	0.96159
3725.59902	0.96051
3723.54522	0.96014
3721.49141	0.95973
3719.43761	0.95947
3717.38381	0.95968
3715.33001	0.95988
3713.27620	0.95907
3711.22240	0.95658
3709.16860	0.95417
3707.11479	0.95313
3705.06099	0.95276
3703.00719	0.95183
3700.95338	0.94965
3698.89958	0.94775
3696.84578	0.94698
3694.79197	0.94694
3692.73817	0.94749
3690.68437	0.94864
3688.63056	0.94981
3686.57676	0.95026
3684.52296	0.95039
3682.46915	0.95052
3680.41535	0.95083
3678.36155	0.95141
3676.30774	0.95151
3674.25394	0.95047
3672.20014	0.94959
3670.14633	0.94874
3668.09253	0.94784
3666.03873	0.94742
3663.98492	0.94719
3661.93112	0.94694
3659.87732	0.94650
3657.82352	0.94602
3655.76971	0.94563
3653.71591	0.94534
3651.66211	0.94470
3649.60830	0.94325
3647.55450	0.94197
3645.50070	0.94187
3643.44689	0.94234
3641.39309	0.94217
3639.33929	0.94111
3637.28548	0.94023
3635.23168	0.93968
3633.17788	0.93886
3631.12407	0.93812
3629.07027	0.93683
3627.01647	0.93480
3624.96266	0.93411
3622.90886	0.93435
3620.85506	0.93453
3618.80125	0.93434
3616.74745	0.93460
3614.69365	0.93549
3612.63984	0.93662
3610.58604	0.93754
3608.53224	0.93760
3606.47844	0.93742
3604.42463	0.93758
3602.37083	0.93766
3600.31703	0.93752
3598.26322	0.93743
3596.20942	0.93780
3594.15562	0.93837
3592.10181	0.93874
3590.04801	0.93899
3587.99421	0.93843
3585.94040	0.93756
3583.88660	0.93783
3581.83280	0.93811
3579.77899	0.93764
3577.72519	0.93712
3575.67139	0.93704
3573.61758	0.93752
3571.56378	0.93854
3569.50998	0.93942
3567.45617	0.93904
3565.40237	0.93753
3563.34857	0.93685
3561.29476	0.93704
3559.24096	0.93666
3557.18716	0.93590
3555.13335	0.93592
3553.07955	0.93647
3551.02575	0.93714
3548.97195	0.93752
3546.91814	0.93714
3544.86434	0.93651
3542.81054	0.93641
3540.75673	0.93663
3538.70293	0.93636
3536.64913	0.93549
3534.59532	0.93487
3532.54152	0.93491
3530.48772	0.93539
3528.43391	0.93617
3526.38011	0.93662
3524.32631	0.93617
3522.27250	0.93554
3520.21870	0.93548
3518.16490	0.93568
3516.11109	0.93571
3514.05729	0.93550
3512.00349	0.93544
3509.94968	0.93573
3507.89588	0.93580
3505.84208	0.93556
3503.78827	0.93535
3501.73447	0.93523
3499.68067	0.93516
3497.62687	0.93508
3495.57306	0.93491
3493.51926	0.93460
3491.46546	0.93479
3489.41165	0.93548
3487.35785	0.93561
3485.30405	0.93495
3483.25024	0.93449
3481.19644	0.93446
3479.14264	0.93440
3477.08883	0.93442
3475.03503	0.93444
3472.98123	0.93424
3470.92742	0.93410
3468.87362	0.93383
3466.81982	0.93327
3464.76601	0.93310
3462.71221	0.93340
3460.65841	0.93325
3458.60460	0.93270
3456.55080	0.93229
3454.49700	0.93214
3452.44319	0.93228
3450.38939	0.93218
3448.33559	0.93145
3446.28178	0.93086
3444.22798	0.93124
3442.17418	0.93172
3440.12038	0.93152
3438.06657	0.93127
3436.01277	0.93117
3433.95897	0.93130
3431.90516	0.93168
3429.85136	0.93143
3427.79756	0.93063
3425.74375	0.93030
3423.68995	0.93039
3421.63615	0.93035
3419.58234	0.93036
3417.52854	0.93080
3415.47474	0.93127
3413.42093	0.93115
3411.36713	0.93060
3409.31333	0.93007
3407.25952	0.92972
3405.20572	0.92954
3403.15192	0.92947
3401.09811	0.92944
3399.04431	0.92965
3396.99051	0.93016
3394.93670	0.93053
3392.88290	0.93028
3390.82910	0.92953
3388.77529	0.92916
3386.72149	0.92944
3384.66769	0.92973
3382.61389	0.92948
3380.56008	0.92927
3378.50628	0.92948
3376.45248	0.92965
3374.39867	0.92996
3372.34487	0.93028
3370.29107	0.93014
3368.23726	0.93009
3366.18346	0.93019
3364.12966	0.92981
3362.07585	0.92972
3360.02205	0.93031
3357.96825	0.93061
3355.91444	0.93040
3353.86064	0.93044
3351.80684	0.93071
3349.75303	0.93060
3347.69923	0.93031
3345.64543	0.93024
3343.59162	0.93055
3341.53782	0.93135
3339.48402	0.93205
3337.43021	0.93220
3335.37641	0.93214
3333.32261	0.93208
3331.26881	0.93212
3329.21500	0.93233
3327.16120	0.93222
3325.10740	0.93192
3323.05359	0.93215
3320.99979	0.93261
3318.94599	0.93277
3316.89218	0.93251
3314.83838	0.93226
3312.78458	0.93250
3310.73077	0.93276
3308.67697	0.93259
3306.62317	0.93241
3304.56936	0.93242
3302.51556	0.93214
3300.46176	0.93178
3298.40795	0.93216
3296.35415	0.93286
3294.30035	0.93306
3292.24654	0.93301
3290.19274	0.93309
3288.13894	0.93300
3286.08513	0.93274
3284.03133	0.93275
3281.97753	0.93302
3279.92372	0.93335
3277.86992	0.93369
3275.81612	0.93395
3273.76232	0.93395
3271.70851	0.93389
3269.65471	0.93408
3267.60091	0.93430
3265.54710	0.93438
3263.49330	0.93417
3261.43950	0.93407
3259.38569	0.93456
3257.33189	0.93503
3255.27809	0.93533
3253.22428	0.93571
3251.17048	0.93581
3249.11668	0.93582
3247.06287	0.93589
3245.00907	0.93540
3242.95527	0.93460
3240.90146	0.93464
3238.84766	0.93512
3236.79386	0.93509
3234.74005	0.93518
3232.68625	0.93561
3230.63245	0.93608
3228.57864	0.93676
3226.52484	0.93731
3224.47104	0.93736
3222.41724	0.93704
3220.36343	0.93676
3218.30963	0.93693
3216.25583	0.93713
3214.20202	0.93672
3212.14822	0.93618
3210.09442	0.93627
3208.04061	0.93689
3205.98681	0.93772
3203.93301	0.93836
3201.87920	0.93843
3199.82540	0.93815
3197.77160	0.93783
3195.71779	0.93777
3193.66399	0.93826
3191.61019	0.93901
3189.55638	0.93932
3187.50258	0.93913
3185.44878	0.93908
3183.39497	0.93916
3181.34117	0.93903
3179.28737	0.93883
3177.23356	0.93882
3175.17976	0.93917
3173.12596	0.93972
3171.07215	0.94010
3169.01835	0.94029
3166.96455	0.94042
3164.91075	0.94065
3162.85694	0.94107
3160.80314	0.94125
3158.74934	0.94095
3156.69553	0.94069
3154.64173	0.94073
3152.58793	0.94104
3150.53412	0.94159
3148.48032	0.94210
3146.42652	0.94232
3144.37271	0.94214
3142.31891	0.94183
3140.26511	0.94199
3138.21130	0.94254
3136.15750	0.94277
3134.10370	0.94280
3132.04989	0.94302
3129.99609	0.94314
3127.94229	0.94328
3125.88848	0.94376
3123.83468	0.94400
3121.78088	0.94368
3119.72707	0.94347
3117.67327	0.94375
3115.61947	0.94396
3113.56566	0.94379
3111.51186	0.94362
3109.45806	0.94357
3107.40426	0.94343
3105.35045	0.94310
3103.29665	0.94266
3101.24285	0.94243
3099.18904	0.94237
3097.13524	0.94223
3095.08144	0.94203
3093.02763	0.94168
3090.97383	0.94095
3088.92003	0.93963
3086.86622	0.93782
3084.81242	0.93610
3082.75862	0.93529
3080.70481	0.93557
3078.65101	0.93640
3076.59721	0.93743
3074.54340	0.93821
3072.48960	0.93859
3070.43580	0.93852
3068.38199	0.93755
3066.32819	0.93574
3064.27439	0.93356
3062.22058	0.93185
3060.16678	0.93139
3058.11298	0.93181
3056.05918	0.93270
3054.00537	0.93442
3051.95157	0.93662
3049.89777	0.93833
3047.84396	0.93935
3045.79016	0.94002
3043.73636	0.94039
3041.68255	0.94028
3039.62875	0.93959
3037.57495	0.93827
3035.52114	0.93618
3033.46734	0.93284
3031.41354	0.92815
3029.35973	0.92277
3027.30593	0.91787
3025.25213	0.91530
3023.19832	0.91642
3021.14452	0.92073
3019.09072	0.92642
3017.03691	0.93170
3014.98311	0.93569
3012.92931	0.93826
3010.87550	0.93978
3008.82170	0.94050
3006.76790	0.94044
3004.71409	0.94005
3002.66029	0.93999
3000.60649	0.94047
2998.55269	0.94156
2996.49888	0.94293
2994.44508	0.94426
2992.39128	0.94564
2990.33747	0.94664
2988.28367	0.94672
2986.22987	0.94617
2984.17606	0.94573
2982.12226	0.94599
2980.06846	0.94629
2978.01465	0.94613
2975.96085	0.94597
2973.90705	0.94609
2971.85324	0.94636
2969.79944	0.94625
2967.74564	0.94549
2965.69183	0.94472
2963.63803	0.94402
2961.58423	0.94295
2959.53042	0.94199
2957.47662	0.94162
2955.42282	0.94130
2953.36901	0.94047
2951.31521	0.93932
2949.26141	0.93805
2947.20761	0.93643
2945.15380	0.93441
2943.10000	0.93217
2941.04620	0.92950
2938.99239	0.92629
2936.93859	0.92257
2934.88479	0.91850
2932.83098	0.91454
2930.77718	0.91093
2928.72338	0.90765
2926.66957	0.90462
2924.61577	0.90198
2922.56197	0.90012
2920.50816	0.89939
2918.45436	0.89986
2916.40056	0.90148
2914.34675	0.90406
2912.29295	0.90668
2910.23915	0.90883
2908.18534	0.91105
2906.13154	0.91348
2904.07774	0.91586
2902.02393	0.91841
2899.97013	0.92123
2897.91633	0.92396
2895.86252	0.92599
2893.80872	0.92736
2891.75492	0.92879
2889.70112	0.93038
2887.64731	0.93163
2885.59351	0.93248
2883.53971	0.93336
2881.48590	0.93456
2879.43210	0.93552
2877.37830	0.93581
2875.32449	0.93594
2873.27069	0.93643
2871.21689	0.93728
2869.16308	0.93792
2867.10928	0.93780
2865.05548	0.93726
2863.00167	0.93656
2860.94787	0.93528
2858.89407	0.93348
2856.84026	0.93163
2854.78646	0.92989
2852.73266	0.92837
2850.67885	0.92745
2848.62505	0.92759
2846.57125	0.92894
2844.51744	0.93084
2842.46364	0.93292
2840.40984	0.93549
2838.35603	0.93839
2836.30223	0.94080
2834.24843	0.94244
2832.19463	0.94379
2830.14082	0.94511
2828.08702	0.94629
2826.03322	0.94705
2823.97941	0.94742
2821.92561	0.94761
2819.87181	0.94774
2817.81800	0.94799
2815.76420	0.94842
2813.71040	0.94881
2811.65659	0.94905
2809.60279	0.94921
2807.54899	0.94929
2805.49518	0.94942
2803.44138	0.94974
2801.38758	0.95019
2799.33377	0.95046
2797.27997	0.95045
2795.22617	0.95046
2793.17236	0.95063
2791.11856	0.95078
2789.06476	0.95094
2787.01095	0.95131
2784.95715	0.95156
2782.90335	0.95152
2780.84955	0.95168
2778.79574	0.95183
2776.74194	0.95165
2774.68814	0.95164
2772.63433	0.95192
2770.58053	0.95211
2768.52673	0.95206
2766.47292	0.95195
2764.41912	0.95187
2762.36532	0.95183
2760.31151	0.95193
2758.25771	0.95227
2756.20391	0.95277
2754.15010	0.95312
2752.09630	0.95307
2750.04250	0.95263
2747.98869	0.95227
2745.93489	0.95227
2743.88109	0.95242
2741.82728	0.95261
2739.77348	0.95293
2737.71968	0.95343
2735.66587	0.95378
2733.61207	0.95379
2731.55827	0.95350
2729.50446	0.95303
2727.45066	0.95294
2725.39686	0.95335
2723.34306	0.95349
2721.28925	0.95303
2719.23545	0.95278
2717.18165	0.95322
2715.12784	0.95370
2713.07404	0.95376
2711.02024	0.95358
2708.96643	0.95340
2706.91263	0.95339
2704.85883	0.95351
2702.80502	0.95359
2700.75122	0.95362
2698.69742	0.95362
2696.64361	0.95352
2694.58981	0.95365
2692.53601	0.95387
2690.48220	0.95373
2688.42840	0.95362
2686.37460	0.95380
2684.32079	0.95398
2682.26699	0.95405
2680.21319	0.95411
2678.15938	0.95437
2676.10558	0.95450
2674.05178	0.95421
2671.99797	0.95408
2669.94417	0.95430
2667.89037	0.95448
2665.83657	0.95448
2663.78276	0.95425
2661.72896	0.95394
2659.67516	0.95390
2657.62135	0.95413
2655.56755	0.95437
2653.51375	0.95443
2651.45994	0.95415
2649.40614	0.95398
2647.35234	0.95431
2645.29853	0.95457
2643.24473	0.95445
2641.19093	0.95436
2639.13712	0.95443
2637.08332	0.95441
2635.02952	0.95432
2632.97571	0.95436
2630.92191	0.95463
2628.86811	0.95485
2626.81430	0.95475
2624.76050	0.95457
2622.70670	0.95484
2620.65289	0.95569
2618.59909	0.95633
2616.54529	0.95635
2614.49149	0.95609
2612.43768	0.95557
2610.38388	0.95515
2608.33008	0.95529
2606.27627	0.95578
2604.22247	0.95631
2602.16867	0.95671
2600.11486	0.95679
2598.06106	0.95643
2596.00726	0.95589
2593.95345	0.95562
2591.89965	0.95581
2589.84585	0.95647
2587.79204	0.95681
2585.73824	0.95642
2583.68444	0.95608
2581.63063	0.95585
2579.57683	0.95554
2577.52303	0.95582
2575.46922	0.95647
2573.41542	0.95655
2571.36162	0.95655
2569.30781	0.95721
2567.25401	0.95772
2565.20021	0.95754
2563.14640	0.95738
2561.09260	0.95746
2559.03880	0.95746
2556.98500	0.95748
2554.93119	0.95727
2552.87739	0.95687
2550.82359	0.95700
2548.76978	0.95764
2546.71598	0.95798
2544.66218	0.95798
2542.60837	0.95800
2540.55457	0.95779
2538.50077	0.95747
2536.44696	0.95730
2534.39316	0.95753
2532.33936	0.95820
2530.28555	0.95863
2528.23175	0.95853
2526.17795	0.95821
2524.12414	0.95792
2522.07034	0.95731
2520.01654	0.95660
2517.96273	0.95700
2515.90893	0.95804
2513.85513	0.95809
2511.80132	0.95756
2509.74752	0.95786
2507.69372	0.95856
2505.63992	0.95841
2503.58611	0.95779
2501.53231	0.95763
2499.47851	0.95754
2497.42470	0.95729
2495.37090	0.95750
2493.31710	0.95796
2491.26329	0.95803
2489.20949	0.95779
2487.15569	0.95765
2485.10188	0.95793
2483.04808	0.95863
2480.99428	0.95908
2478.94047	0.95868
2476.88667	0.95849
2474.83287	0.95890
2472.77906	0.95922
2470.72526	0.95937
2468.67146	0.95921
2466.61765	0.95932
2464.56385	0.95984
2462.51005	0.95968
2460.45624	0.95907
2458.40244	0.95900
2456.34864	0.95923
2454.29483	0.95883
2452.24103	0.95838
2450.18723	0.95870
2448.13343	0.95880
2446.07962	0.95863
2444.02582	0.95872
2441.97202	0.95856
2439.91821	0.95840
2437.86441	0.95855
2435.81061	0.95851
2433.75680	0.95838
2431.70300	0.95830
2429.64920	0.95799
2427.59539	0.95787
2425.54159	0.95846
2423.48779	0.95899
2421.43398	0.95875
2419.38018	0.95851
2417.32638	0.95880
2415.27257	0.95899
2413.21877	0.95892
2411.16497	0.95881
2409.11116	0.95871
2407.05736	0.95899
2405.00356	0.95977
2402.94975	0.96019
2400.89595	0.95993
2398.84215	0.96000
2396.78834	0.96043
2394.73454	0.96014
2392.68074	0.95947
2390.62694	0.95959
2388.57313	0.96015
2386.51933	0.96017
2384.46553	0.95970
2382.41172	0.95939
2380.35792	0.95948
2378.30412	0.95939
2376.25031	0.95868
2374.19651	0.95819
2372.14271	0.95866
2370.08890	0.95906
2368.03510	0.95931
2365.98130	0.95983
2363.92749	0.95937
2361.87369	0.95841
2359.81989	0.95896
2357.76608	0.95983
2355.71228	0.95923
2353.65848	0.95903
2351.60467	0.95968
2349.55087	0.95967
2347.49707	0.95872
2345.44326	0.95755
2343.38946	0.95767
2341.33566	0.95876
2339.28186	0.95858
2337.22805	0.95751
2335.17425	0.95713
2333.12045	0.95726
2331.06664	0.95741
2329.01284	0.95761
2326.95904	0.95785
2324.90523	0.95751
2322.85143	0.95689
2320.79763	0.95754
2318.74382	0.95892
2316.69002	0.95944
2314.63622	0.95894
2312.58241	0.95791
2310.52861	0.95742
2308.47481	0.95788
2306.42100	0.95823
2304.36720	0.95827
2302.31340	0.95881
2300.25959	0.95924
2298.20579	0.95857
2296.15199	0.95772
2294.09818	0.95777
2292.04438	0.95838
2289.99058	0.95869
2287.93677	0.95823
2285.88297	0.95742
2283.82917	0.95691
2281.77537	0.95728
2279.72156	0.95875
2277.66776	0.95968
2275.61396	0.95903
2273.56015	0.95866
2271.50635	0.95959
2269.45255	0.96059
2267.39874	0.96115
2265.34494	0.96150
2263.29114	0.96155
2261.23733	0.96138
2259.18353	0.96118
2257.12973	0.96042
2255.07592	0.95981
2253.02212	0.96069
2250.96832	0.96165
2248.91451	0.96157
2246.86071	0.96170
2244.80691	0.96218
2242.75310	0.96241
2240.69930	0.96259
2238.64550	0.96201
2236.59169	0.96041
2234.53789	0.95952
2232.48409	0.95963
2230.43029	0.95912
2228.37648	0.95806
2226.32268	0.95860
2224.26888	0.96121
2222.21507	0.96302
2220.16127	0.96329
2218.10747	0.96323
2216.05366	0.96244
2213.99986	0.96209
2211.94606	0.96361
2209.89225	0.96546
2207.83845	0.96548
2205.78465	0.96415
2203.73084	0.96264
2201.67704	0.96088
2199.62324	0.95978
2197.56943	0.95949
2195.51563	0.95957
2193.46183	0.96027
2191.40802	0.96075
2189.35422	0.96074
2187.30042	0.96118
2185.24661	0.96176
2183.19281	0.96204
2181.13901	0.96239
2179.08520	0.96237
2177.03140	0.96194
2174.97760	0.96162
2172.92380	0.96109
2170.86999	0.96014
2168.81619	0.95937
2166.76239	0.95917
2164.70858	0.95847
2162.65478	0.95708
2160.60098	0.95833
2158.54717	0.96468
2156.49337	0.97153
2154.43957	0.97329
2152.38576	0.96991
2150.33196	0.96501
2148.27816	0.96233
2146.22435	0.96283
2144.17055	0.96416
2142.11675	0.96452
2140.06294	0.96513
2138.00914	0.96635
2135.95534	0.96719
2133.90153	0.96668
2131.84773	0.96484
2129.79393	0.96352
2127.74012	0.96323
2125.68632	0.96279
2123.63252	0.96230
2121.57871	0.96222
2119.52491	0.96247
2117.47111	0.96280
2115.41731	0.96270
2113.36350	0.96200
2111.30970	0.96143
2109.25590	0.96163
2107.20209	0.96216
2105.14829	0.96232
2103.09449	0.96215
2101.04068	0.96162
2098.98688	0.96079
2096.93308	0.96078
2094.87927	0.96189
2092.82547	0.96246
2090.77167	0.96172
2088.71786	0.96080
2086.66406	0.96069
2084.61026	0.96128
2082.55645	0.96245
2080.50265	0.96407
2078.44885	0.96513
2076.39504	0.96473
2074.34124	0.96299
2072.28744	0.96096
2070.23363	0.96032
2068.17983	0.96086
2066.12603	0.96111
2064.07223	0.96157
2062.01842	0.96264
2059.96462	0.96322
2057.91082	0.96324
2055.85701	0.96328
2053.80321	0.96261
2051.74941	0.96066
2049.69560	0.95912
2047.64180	0.95968
2045.58800	0.96081
2043.53419	0.96095
2041.48039	0.96169
2039.42659	0.96244
2037.37278	0.96237
2035.31898	0.96260
2033.26518	0.96231
2031.21137	0.96223
2029.15757	0.96277
2027.10377	0.96337
2025.04996	0.96563
2022.99616	0.96786
2020.94236	0.96712
2018.88855	0.96558
2016.83475	0.96605
2014.78095	0.96821
2012.72714	0.96926
2010.67334	0.96674
2008.61954	0.96391
2006.56574	0.96472
2004.51193	0.96671
2002.45813	0.96647
2000.40433	0.96424
1998.35052	0.96283
1996.29672	0.96393
1994.24292	0.96578
1992.18911	0.96577
1990.13531	0.96459
1988.08151	0.96538
1986.02770	0.96647
1983.97390	0.96512
1981.92010	0.96299
1979.86629	0.96256
1977.81249	0.96484
1975.75869	0.96638
1973.70488	0.96522
1971.65108	0.96469
1969.59728	0.96514
1967.54347	0.96501
1965.48967	0.96424
1963.43587	0.96336
1961.38206	0.96330
1959.32826	0.96448
1957.27446	0.96508
1955.22066	0.96401
1953.16685	0.96349
1951.11305	0.96407
1949.05925	0.96333
1947.00544	0.96060
1944.95164	0.95874
1942.89784	0.95909
1940.84403	0.95938
1938.79023	0.95860
1936.73643	0.95771
1934.68262	0.95757
1932.62882	0.95801
1930.57502	0.95881
1928.52121	0.96002
1926.46741	0.96108
1924.41361	0.96169
1922.35980	0.96130
1920.30600	0.96046
1918.25220	0.96049
1916.19839	0.96126
1914.14459	0.96201
1912.09079	0.96252
1910.03698	0.96290
1907.98318	0.96274
1905.92938	0.96202
1903.87557	0.96150
1901.82177	0.96090
1899.76797	0.96002
1897.71417	0.95976
1895.66036	0.95981
1893.60656	0.95941
1891.55276	0.95890
1889.49895	0.95914
1887.44515	0.96003
1885.39135	0.96044
1883.33754	0.96055
1881.28374	0.96060
1879.22994	0.95992
1877.17613	0.95900
1875.12233	0.95846
1873.06853	0.95797
1871.01472	0.95751
1868.96092	0.95738
1866.90712	0.95756
1864.85331	0.95776
1862.79951	0.95807
1860.74571	0.95858
1858.69190	0.95928
1856.63810	0.96023
1854.58430	0.96086
1852.53049	0.96086
1850.47669	0.96069
1848.42289	0.96072
1846.36908	0.96101
1844.31528	0.96128
1842.26148	0.96141
1840.20768	0.96161
1838.15387	0.96165
1836.10007	0.96150
1834.04627	0.96159
1831.99246	0.96198
1829.93866	0.96204
1827.88486	0.96175
1825.83105	0.96150
1823.77725	0.96074
1821.72345	0.95978
1819.66964	0.95942
1817.61584	0.95919
1815.56204	0.95863
1813.50823	0.95823
1811.45443	0.95825
1809.40063	0.95809
1807.34682	0.95743
1805.29302	0.95684
1803.23922	0.95655
1801.18541	0.95640
1799.13161	0.95659
1797.07781	0.95661
1795.02400	0.95633
1792.97020	0.95678
1790.91640	0.95800
1788.86260	0.95879
1786.80879	0.95909
1784.75499	0.95931
1782.70119	0.95949
1780.64738	0.95949
1778.59358	0.95929
1776.53978	0.95901
1774.48597	0.95896
1772.43217	0.95920
1770.37837	0.95920
1768.32456	0.95884
1766.27076	0.95861
1764.21696	0.95860
1762.16315	0.95849
1760.10935	0.95813
1758.05555	0.95760
1756.00174	0.95682
1753.94794	0.95605
1751.89414	0.95543
1749.84033	0.95480
1747.78653	0.95399
1745.73273	0.95315
1743.67892	0.95237
1741.62512	0.95196
1739.57132	0.95205
1737.51751	0.95229
1735.46371	0.95246
1733.40991	0.95240
1731.35611	0.95235
1729.30230	0.95223
1727.24850	0.95182
1725.19470	0.95152
1723.14089	0.95170
1721.08709	0.95214
1719.03329	0.95269
1716.97948	0.95328
1714.92568	0.95323
1712.87188	0.95296
1710.81807	0.95275
1708.76427	0.95229
1706.71047	0.95185
1704.65666	0.95195
1702.60286	0.95188
1700.54906	0.95113
1698.49525	0.95066
1696.44145	0.95018
1694.38765	0.94893
1692.33384	0.94773
1690.28004	0.94677
1688.22624	0.94613
1686.17243	0.94537
1684.11863	0.94320
1682.06483	0.94036
1680.01103	0.93764
1677.95722	0.93412
1675.90342	0.92934
1673.84962	0.92540
1671.79581	0.92486
1669.74201	0.92556
1667.68821	0.92549
1665.63440	0.92521
1663.58060	0.92417
1661.52680	0.92183
1659.47299	0.92025
1657.41919	0.92071
1655.36539	0.92274
1653.31158	0.92620
1651.25778	0.92927
1649.20398	0.93079
1647.15017	0.93141
1645.09637	0.93155
1643.04257	0.93183
1640.98876	0.93199
1638.93496	0.93215
1636.88116	0.93228
1634.82735	0.93194
1632.77355	0.93156
1630.71975	0.93139
1628.66594	0.93126
1626.61214	0.93142
1624.55834	0.93169
1622.50454	0.93141
1620.45073	0.93109
1618.39693	0.93110
1616.34313	0.93098
1614.28932	0.93076
1612.23552	0.93003
1610.18172	0.92752
1608.12791	0.92240
1606.07411	0.91480
1604.02031	0.90571
1601.96650	0.89799
1599.91270	0.89570
1597.85890	0.89907
1595.80509	0.90442
1593.75129	0.90937
1591.69749	0.91460
1589.64368	0.92049
1587.58988	0.92507
1585.53608	0.92669
1583.48227	0.92692
1581.42847	0.92863
1579.37467	0.93194
1577.32086	0.93527
1575.26706	0.93768
1573.21326	0.93860
1571.15945	0.93846
1569.10565	0.93752
1567.05185	0.93614
1564.99805	0.93428
1562.94424	0.93255
1560.89044	0.93124
1558.83664	0.92810
1556.78283	0.92436
1554.72903	0.92238
1552.67523	0.92107
1550.62142	0.92092
1548.56762	0.92187
1546.51382	0.92354
1544.46001	0.92580
1542.40621	0.92796
1540.35241	0.92830
1538.29860	0.92706
1536.24480	0.92623
1534.19100	0.92419
1532.13719	0.91987
1530.08339	0.91534
1528.02959	0.91039
1525.97578	0.90453
1523.92198	0.89980
1521.86818	0.89569
1519.81437	0.89182
1517.76057	0.88931
1515.70677	0.88751
1513.65297	0.88648
1511.59916	0.88630
1509.54536	0.88691
1507.49156	0.88972
1505.43775	0.89577
1503.38395	0.89996
1501.33015	0.90124
1499.27634	0.89750
1497.22254	0.88043
1495.16874	0.85104
1493.11493	0.82954
1491.06113	0.82663
1489.00733	0.84343
1486.95352	0.86451
1484.89972	0.87912
1482.84592	0.88990
1480.79211	0.89880
1478.73831	0.90545
1476.68451	0.90996
1474.63070	0.91284
1472.57690	0.91456
1470.52310	0.91601
1468.46929	0.91732
1466.41549	0.91836
1464.36169	0.91924
1462.30788	0.91962
1460.25408	0.91860
1458.20028	0.91024
1456.14648	0.88452
1454.09267	0.85889
1452.03887	0.84546
1449.98507	0.84404
1447.93126	0.85122
1445.87746	0.86118
1443.82366	0.87170
1441.76985	0.88190
1439.71605	0.89033
1437.66225	0.89753
1435.60844	0.90406
1433.55464	0.90872
1431.50084	0.91247
1429.44703	0.91592
1427.39323	0.91829
1425.33943	0.91966
1423.28562	0.92092
1421.23182	0.92256
1419.17802	0.92439
1417.12421	0.92587
1415.07041	0.92693
1413.01661	0.92797
1410.96280	0.92918
1408.90900	0.93028
1406.85520	0.93115
1404.80139	0.93212
1402.74759	0.93308
1400.69379	0.93371
1398.63999	0.93420
1396.58618	0.93479
1394.53238	0.93523
1392.47858	0.93528
1390.42477	0.93500
1388.37097	0.93428
1386.31717	0.93325
1384.26336	0.93243
1382.20956	0.93166
1380.15576	0.93054
1378.10195	0.92924
1376.04815	0.92824
1373.99435	0.92762
1371.94054	0.92744
1369.88674	0.92748
1367.83294	0.92702
1365.77913	0.92582
1363.72533	0.92332
1361.67153	0.91971
1359.61772	0.91835
1357.56392	0.92046
1355.51012	0.92415
1353.45631	0.92770
1351.40251	0.93042
1349.34871	0.93199
1347.29491	0.93273
1345.24110	0.93350
1343.18730	0.93463
1341.13350	0.93569
1339.07969	0.93630
1337.02589	0.93650
1334.97209	0.93640
1332.91828	0.93581
1330.86448	0.93472
1328.81068	0.93374
1326.75687	0.93292
1324.70307	0.93185
1322.64927	0.93056
1320.59546	0.92926
1318.54166	0.92747
1316.48786	0.92412
1314.43405	0.91967
1312.38025	0.91671
1310.32645	0.91736
1308.27264	0.92078
1306.21884	0.92476
1304.16504	0.92792
1302.11123	0.93010
1300.05743	0.93158
1298.00363	0.93245
1295.94982	0.93265
1293.89602	0.93207
1291.84222	0.93034
1289.78842	0.92772
1287.73461	0.92485
1285.68081	0.92260
1283.62701	0.92213
1281.57320	0.92338
1279.51940	0.92511
1277.46560	0.92655
1275.41179	0.92741
1273.35799	0.92732
1271.30419	0.92654
1269.25038	0.92569
1267.19658	0.92486
1265.14278	0.92405
1263.08897	0.92330
1261.03517	0.92227
1258.98137	0.92059
1256.92756	0.91813
1254.87376	0.91530
1252.81996	0.91286
1250.76615	0.91156
1248.71235	0.91173
1246.65855	0.91259
1244.60474	0.91315
1242.55094	0.91387
1240.49714	0.91578
1238.44334	0.91863
1236.38953	0.92154
1234.33573	0.92398
1232.28193	0.92579
1230.22812	0.92702
1228.17432	0.92759
1226.12052	0.92744
1224.06671	0.92701
1222.01291	0.92649
1219.95911	0.92527
1217.90530	0.92298
1215.85150	0.92022
1213.79770	0.91824
1211.74389	0.91765
1209.69009	0.91766
1207.63629	0.91740
1205.58248	0.91647
1203.52868	0.91485
1201.47488	0.91291
1199.42107	0.91108
1197.36727	0.90925
1195.31347	0.90686
1193.25966	0.90366
1191.20586	0.89958
1189.15206	0.89412
1187.09825	0.88722
1185.04445	0.88004
1182.99065	0.87441
1180.93685	0.87155
1178.88304	0.87144
1176.82924	0.87325
1174.77544	0.87587
1172.72163	0.87800
1170.66783	0.87905
1168.61403	0.87931
1166.56022	0.87888
1164.50642	0.87785
1162.45262	0.87666
1160.39881	0.87531
1158.34501	0.87311
1156.29121	0.87049
1154.23740	0.86893
1152.18360	0.86873
1150.12980	0.86900
1148.07599	0.86891
1146.02219	0.86838
1143.96839	0.86784
1141.91458	0.86731
1139.86078	0.86641
1137.80698	0.86496
1135.75317	0.86295
1133.69937	0.86060
1131.64557	0.85804
1129.59176	0.85510
1127.53796	0.85196
1125.48416	0.84826
1123.43036	0.84362
1121.37655	0.83872
1119.32275	0.83362
1117.26895	0.82823
1115.21514	0.82327
1113.16134	0.81864
1111.10754	0.81388
1109.05373	0.80943
1106.99993	0.80569
1104.94613	0.80269
1102.89232	0.80029
1100.83852	0.79782
1098.78472	0.79495
1096.73091	0.79231
1094.67711	0.79012
1092.62331	0.78794
1090.56950	0.78569
1088.51570	0.78351
1086.46190	0.78120
1084.40809	0.77833
1082.35429	0.77513
1080.30049	0.77215
1078.24668	0.76928
1076.19288	0.76609
1074.13908	0.76197
1072.08528	0.75703
1070.03147	0.75226
1067.97767	0.74814
1065.92387	0.74467
1063.87006	0.74180
1061.81626	0.73921
1059.76246	0.73662
1057.70865	0.73373
1055.65485	0.73001
1053.60105	0.72469
1051.54724	0.71824
1049.49344	0.71225
1047.43964	0.70699
1045.38583	0.70148
1043.33203	0.69513
1041.27823	0.68797
1039.22442	0.68014
1037.17062	0.67176
1035.11682	0.66263
1033.06301	0.65271
1031.00921	0.64295
1028.95541	0.63488
1026.90160	0.62990
1024.84780	0.62869
1022.79400	0.62949
1020.74019	0.62977
1018.68639	0.62901
1016.63259	0.62764
1014.57879	0.62633
1012.52498	0.62565
1010.47118	0.62505
1008.41738	0.62380
1006.36357	0.62216
1004.30977	0.62107
1002.25597	0.62138
1000.20216	0.62346
998.14836	0.62698
996.09456	0.63102
994.04075	0.63478
991.98695	0.63830
989.93315	0.64244
987.87934	0.64728
985.82554	0.65210
983.77174	0.65715
981.71793	0.66302
979.66413	0.66966
977.61033	0.67718
975.55652	0.68596
973.50272	0.69547
971.44892	0.70446
969.39511	0.71234
967.34131	0.71944
965.28751	0.72634
963.23371	0.73319
961.17990	0.74000
959.12610	0.74653
957.07230	0.75188
955.01849	0.75582
952.96469	0.75887
950.91089	0.76149
948.85708	0.76428
946.80328	0.76781
944.74948	0.77219
942.69567	0.77677
940.64187	0.78076
938.58807	0.78425
936.53426	0.78770
934.48046	0.79121
932.42666	0.79453
930.37285	0.79742
928.31905	0.79984
926.26525	0.80152
924.21144	0.80200
922.15764	0.80135
920.10384	0.79969
918.05003	0.79669
915.99623	0.79322
913.94243	0.79054
911.88862	0.78871
909.83482	0.78780
907.78102	0.78842
905.72722	0.79158
903.67341	0.79808
901.61961	0.80691
899.56581	0.81625
897.51200	0.82527
895.45820	0.83338
893.40440	0.84028
891.35059	0.84614
889.29679	0.85082
887.24299	0.85454
885.18918	0.85742
883.13538	0.85913
881.08158	0.86021
879.02777	0.86136
876.97397	0.86275
874.92017	0.86474
872.86636	0.86713
870.81256	0.86986
868.75876	0.87308
866.70495	0.87644
864.65115	0.87951
862.59735	0.88196
860.54354	0.88412
858.48974	0.88643
856.43594	0.88865
854.38213	0.89000
852.32833	0.89034
850.27453	0.89033
848.22073	0.89002
846.16692	0.88916
844.11312	0.88780
842.05932	0.88619
840.00551	0.88484
837.95171	0.88379
835.89791	0.88344
833.84410	0.88449
831.79030	0.88610
829.73650	0.88682
827.68269	0.88686
825.62889	0.88697
823.57509	0.88752
821.52128	0.88892
819.46748	0.89001
817.41368	0.88947
815.35987	0.88820
813.30607	0.88722
811.25227	0.88611
809.19846	0.88400
807.14466	0.88074
805.09086	0.87711
803.03705	0.87435
800.98325	0.87313
798.92945	0.87321
796.87565	0.87369
794.82184	0.87399
792.76804	0.87473
790.71424	0.87530
788.66043	0.87437
786.60663	0.87255
784.55283	0.87034
782.49902	0.86713
780.44522	0.86317
778.39142	0.85888
776.33761	0.85371
774.28381	0.84704
772.23001	0.83846
770.17620	0.82767
768.12240	0.81559
766.06860	0.80352
764.01479	0.79117
761.96099	0.77771
759.90719	0.76428
757.85338	0.75449
755.79958	0.75002
753.74578	0.74846
751.69197	0.74759
749.63817	0.74786
747.58437	0.75127
745.53056	0.75996
743.47676	0.77426
741.42296	0.79138
739.36916	0.80831
737.31535	0.82362
735.26155	0.83675
733.20775	0.84782
731.15394	0.85701
729.10014	0.86396
727.04634	0.86888
724.99253	0.87289
722.93873	0.87682
720.88493	0.88011
718.83112	0.88185
716.77732	0.88215
714.72352	0.88068
712.66971	0.87552
710.61591	0.86322
708.56211	0.84002
706.50830	0.80395
704.45450	0.75470
702.40070	0.69414
700.34689	0.62643
698.29309	0.56017
696.23929	0.51737
694.18548	0.52555
692.13168	0.58194
690.07788	0.64935
688.02408	0.69870
685.97027	0.72959
683.91647	0.75140
681.86267	0.76880
679.80886	0.78239
677.75506	0.79193
675.70126	0.79862
673.64745	0.80371
671.59365	0.80711
669.53985	0.80985
667.48604	0.81344
665.43224	0.81647
663.37844	0.81866
661.32463	0.82076
659.27083	0.82280
657.21703	0.82467
655.16322	0.82579
653.10942	0.82574
651.05562	0.82588
649.00181	0.82718
646.94801	0.82865
644.89421	0.82985
642.84040	0.83097
640.78660	0.83237
638.73280	0.83399
636.67899	0.83462
634.62519	0.83427
632.57139	0.83378
630.51759	0.83300
628.46378	0.83225
626.40998	0.83156
624.35618	0.82915
622.30237	0.82482
620.24857	0.82206
618.19477	0.82308
616.14096	0.82469
614.08716	0.82449
612.03336	0.82446
609.97955	0.82512
607.92575	0.82555
605.87195	0.82490
603.81814	0.82233
601.76434	0.81990
599.71054	0.81919
597.65673	0.81817
595.60293	0.81609
593.54913	0.81360
591.49532	0.81101
589.44152	0.80947
587.38772	0.80854
585.33391	0.80663
583.28011	0.80413
581.22631	0.80187
579.17250	0.79842
577.11870	0.79288
575.06490	0.78680
573.01110	0.78146
570.95729	0.77713
568.90349	0.77234
566.84969	0.76518
564.79588	0.75724
562.74208	0.74981
560.68828	0.74054
558.63447	0.72965
556.58067	0.72151
554.52687	0.71700
552.47306	0.71192
550.41926	0.70354
548.36546	0.69358
546.31165	0.68427
544.25785	0.67436
542.20405	0.66260
540.15024	0.65099
538.09644	0.64284
536.04264	0.63894
533.98883	0.63842
531.93503	0.64229
529.88123	0.64944
527.82742	0.65688
525.77362	0.66319
523.71982	0.66824
521.66602	0.67391
519.61221	0.67987
517.55841	0.68479
515.50461	0.68958
513.45080	0.69449
511.39700	0.70137
509.34320	0.71029
507.28939	0.71746
505.23559	0.72121
503.18179	0.72175
501.12798	0.72181
499.07418	0.72399
497.02038	0.72490
494.96657	0.72239
492.91277	0.71874
490.85897	0.71393
488.80516	0.70745
486.75136	0.70159
484.69756	0.69446
482.64375	0.68244
480.58995	0.66811
478.53615	0.65473
476.48234	0.64400
474.42854	0.63565
472.37474	0.62690
470.32093	0.61925
468.26713	0.61619
466.21333	0.61792
464.15953	0.62284
462.10572	0.62808
460.05192	0.63304
457.99812	0.64049
455.94431	0.64923
453.89051	0.65539
451.83671	0.65875
449.78290	0.66009
447.72910	0.66246
445.67530	0.66665
443.62149	0.66930
441.56769	0.67026
439.51389	0.66947
437.46008	0.66418
435.40628	0.65809
433.35248	0.65765
431.29867	0.65889
429.24487	0.65728
427.19107	0.65517
425.13726	0.65571
423.08346	0.66074
421.02966	0.66901
418.97585	0.67377
416.92205	0.67036
414.86825	0.67140
412.81445	0.68078
410.76064	0.69071
408.70684	0.69641
406.65304	0.70117
404.59923	0.70675
402.54543	0.71064
400.49163	0.71369
398.43782	0.71620
