3996.70104	0.93482
3994.64724	0.93523
3992.59344	0.93542
3990.53964	0.93500
3988.48583	0.93462
3986.43203	0.93488
3984.37823	0.93526
3982.32442	0.93502
3980.27062	0.93489
3978.21682	0.93568
3976.16301	0.93632
3974.10921	0.93601
3972.05541	0.93533
3970.00160	0.93490
3967.94780	0.93488
3965.89400	0.93520
3963.84019	0.93538
3961.78639	0.93518
3959.73259	0.93493
3957.67878	0.93491
3955.62498	0.93504
3953.57118	0.93498
3951.51737	0.93504
3949.46357	0.93525
3947.40977	0.93513
3945.35596	0.93523
3943.30216	0.93545
3941.24836	0.93490
3939.19455	0.93406
3937.14075	0.93391
3935.08695	0.93440
3933.03315	0.93485
3930.97934	0.93491
3928.92554	0.93477
3926.87174	0.93492
3924.81793	0.93528
3922.76413	0.93511
3920.71033	0.93427
3918.65652	0.93358
3916.60272	0.93378
3914.54892	0.93442
3912.49511	0.93500
3910.44131	0.93523
3908.38751	0.93513
3906.33370	0.93548
3904.27990	0.93623
3902.22610	0.93640
3900.17229	0.93589
3898.11849	0.93530
3896.06469	0.93519
3894.01088	0.93550
3891.95708	0.93580
3889.90328	0.93589
3887.84947	0.93588
3885.79567	0.93588
3883.74187	0.93581
3881.68807	0.93585
3879.63426	0.93637
3877.58046	0.93668
3875.52666	0.93631
3873.47285	0.93575
3871.41905	0.93550
3869.36525	0.93525
3867.31144	0.93475
3865.25764	0.93423
3863.20384	0.93410
3861.15003	0.93462
3859.09623	0.93513
3857.04243	0.93537
3854.98862	0.93559
3852.93482	0.93565
3850.88102	0.93608
3848.82721	0.93675
3846.77341	0.93650
3844.71961	0.93548
3842.66580	0.93507
3840.61200	0.93547
3838.55820	0.93626
3836.50439	0.93728
3834.45059	0.93757
3832.39679	0.93699
3830.34298	0.93623
3828.28918	0.93570
3826.23538	0.93549
3824.18158	0.93582
3822.12777	0.93633
3820.07397	0.93648
3818.02017	0.93636
3815.96636	0.93634
3813.91256	0.93664
3811.85876	0.93645
3809.80495	0.93601
3807.75115	0.93630
3805.69735	0.93696
3803.64354	0.93703
3801.58974	0.93642
3799.53594	0.93564
3797.48213	0.93557
3795.42833	0.93606
3793.37453	0.93622
3791.32072	0.93597
3789.26692	0.93604
3787.21312	0.93653
3785.15931	0.93702
3783.10551	0.93743
3781.05171	0.93773
3778.99790	0.93773
3776.94410	0.93729
3774.89030	0.93689
3772.83650	0.93723
3770.78269	0.93792
3768.72889	0.93777
3766.67509	0.93676
3764.62128	0.93585
3762.56748	0.93558
3760.51368	0.93570
3758.45987	0.93622
3756.40607	0.93679
3754.35227	0.93689
3752.29846	0.93741
3750.24466	0.93875
3748.19086	0.93971
3746.13705	0.94038
3744.08325	0.94035
3742.02945	0.93941
3739.97564	0.93858
3737.92184	0.93763
3735.86804	0.93667
3733.81423	0.93671
3731.76043	0.93718
3729.70663	0.93763
3727.65282	0.93816
3725.59902	0.93826
3723.54522	0.93804
3721.49141	0.93797
3719.43761	0.93761
3717.38381	0.93721
3715.33001	0.93716
3713.27620	0.93680
3711.22240	0.93550
3709.16860	0.93382
3707.11479	0.93254
3705.06099	0.93146
3703.00719	0.93042
3700.95338	0.92965
3698.89958	0.92921
3696.84578	0.92887
3694.79197	0.92881
3692.73817	0.92934
3690.68437	0.93010
3688.63056	0.93034
3686.57676	0.93058
3684.52296	0.93105
3682.46915	0.93089
3680.41535	0.92985
3678.36155	0.92925
3676.30774	0.93039
3674.25394	0.93173
3672.20014	0.93150
3670.14633	0.93053
3668.09253	0.92951
3666.03873	0.92921
3663.98492	0.92947
3661.93112	0.92961
3659.87732	0.92930
3657.82352	0.92863
3655.76971	0.92790
3653.71591	0.92838
3651.66211	0.92973
3649.60830	0.92995
3647.55450	0.92896
3645.50070	0.92794
3643.44689	0.92685
3641.39309	0.92637
3639.33929	0.92655
3637.28548	0.92662
3635.23168	0.92627
3633.17788	0.92548
3631.12407	0.92493
3629.07027	0.92538
3627.01647	0.92551
3624.96266	0.92472
3622.90886	0.92408
3620.85506	0.92427
3618.80125	0.92513
3616.74745	0.92556
3614.69365	0.92579
3612.63984	0.92623
3610.58604	0.92640
3608.53224	0.92590
3606.47844	0.92504
3604.42463	0.92518
3602.37083	0.92573
3600.31703	0.92515
3598.26322	0.92478
3596.20942	0.92537
3594.15562	0.92513
3592.10181	0.92443
3590.04801	0.92439
3587.99421	0.92484
3585.94040	0.92523
3583.88660	0.92477
3581.83280	0.92380
3579.77899	0.92320
3577.72519	0.92318
3575.67139	0.92350
3573.61758	0.92401
3571.56378	0.92430
3569.50998	0.92397
3567.45617	0.92341
3565.40237	0.92332
3563.34857	0.92337
3561.29476	0.92290
3559.24096	0.92198
3557.18716	0.92162
3555.13335	0.92199
3553.07955	0.92212
3551.02575	0.92184
3548.97195	0.92165
3546.91814	0.92159
3544.86434	0.92179
3542.81054	0.92201
3540.75673	0.92175
3538.70293	0.92102
3536.64913	0.92024
3534.59532	0.92020
3532.54152	0.92114
3530.48772	0.92214
3528.43391	0.92223
3526.38011	0.92181
3524.32631	0.92152
3522.27250	0.92100
3520.21870	0.92052
3518.16490	0.92056
3516.11109	0.92070
3514.05729	0.92081
3512.00349	0.92124
3509.94968	0.92159
3507.89588	0.92118
3505.84208	0.92040
3503.78827	0.92029
3501.73447	0.92094
3499.68067	0.92120
3497.62687	0.92074
3495.57306	0.92021
3493.51926	0.92017
3491.46546	0.92060
3489.41165	0.92084
3487.35785	0.92046
3485.30405	0.91938
3483.25024	0.91820
3481.19644	0.91814
3479.14264	0.91902
3477.08883	0.91954
3475.03503	0.91933
3472.98123	0.91899
3470.92742	0.91910
3468.87362	0.91922
3466.81982	0.91897
3464.76601	0.91851
3462.71221	0.91809
3460.65841	0.91776
3458.60460	0.91763
3456.55080	0.91803
3454.49700	0.91843
3452.44319	0.91818
3450.38939	0.91788
3448.33559	0.91801
3446.28178	0.91825
3444.22798	0.91797
3442.17418	0.91712
3440.12038	0.91650
3438.06657	0.91670
3436.01277	0.91719
3433.95897	0.91730
3431.90516	0.91712
3429.85136	0.91693
3427.79756	0.91697
3425.74375	0.91723
3423.68995	0.91695
3421.63615	0.91620
3419.58234	0.91581
3417.52854	0.91585
3415.47474	0.91591
3413.42093	0.91585
3411.36713	0.91557
3409.31333	0.91514
3407.25952	0.91498
3405.20572	0.91536
3403.15192	0.91599
3401.09811	0.91651
3399.04431	0.91671
3396.99051	0.91619
3394.93670	0.91550
3392.88290	0.91531
3390.82910	0.91533
3388.77529	0.91544
3386.72149	0.91574
3384.66769	0.91608
3382.61389	0.91600
3380.56008	0.91547
3378.50628	0.91544
3376.45248	0.91605
3374.39867	0.91614
3372.34487	0.91577
3370.29107	0.91598
3368.23726	0.91629
3366.18346	0.91618
3364.12966	0.91579
3362.07585	0.91533
3360.02205	0.91511
3357.96825	0.91531
3355.91444	0.91590
3353.86064	0.91622
3351.80684	0.91620
3349.75303	0.91642
3347.69923	0.91674
3345.64543	0.91684
3343.59162	0.91673
3341.53782	0.91665
3339.48402	0.91668
3337.43021	0.91668
3335.37641	0.91693
3333.32261	0.91729
3331.26881	0.91694
3329.21500	0.91627
3327.16120	0.91633
3325.10740	0.91705
3323.05359	0.91751
3320.99979	0.91712
3318.94599	0.91626
3316.89218	0.91594
3314.83838	0.91642
3312.78458	0.91690
3310.73077	0.91709
3308.67697	0.91754
3306.62317	0.91819
3304.56936	0.91863
3302.51556	0.91872
3300.46176	0.91835
3298.40795	0.91792
3296.35415	0.91792
3294.30035	0.91816
3292.24654	0.91815
3290.19274	0.91785
3288.13894	0.91757
3286.08513	0.91758
3284.03133	0.91793
3281.97753	0.91824
3279.92372	0.91812
3277.86992	0.91794
3275.81612	0.91796
3273.76232	0.91805
3271.70851	0.91825
3269.65471	0.91844
3267.60091	0.91848
3265.54710	0.91846
3263.49330	0.91867
3261.43950	0.91917
3259.38569	0.91965
3257.33189	0.91976
3255.27809	0.91957
3253.22428	0.91961
3251.17048	0.91974
3249.11668	0.91975
3247.06287	0.91989
3245.00907	0.92009
3242.95527	0.92030
3240.90146	0.92074
3238.84766	0.92114
3236.79386	0.92082
3234.74005	0.91996
3232.68625	0.91964
3230.63245	0.92011
3228.57864	0.92054
3226.52484	0.92055
3224.47104	0.92065
3222.41724	0.92087
3220.36343	0.92081
3218.30963	0.92092
3216.25583	0.92151
3214.20202	0.92196
3212.14822	0.92194
3210.09442	0.92157
3208.04061	0.92137
3205.98681	0.92149
3203.93301	0.92124
3201.87920	0.92071
3199.82540	0.92072
3197.77160	0.92122
3195.71779	0.92166
3193.66399	0.92197
3191.61019	0.92220
3189.55638	0.92216
3187.50258	0.92215
3185.44878	0.92260
3183.39497	0.92320
3181.34117	0.92365
3179.28737	0.92383
3177.23356	0.92376
3175.17976	0.92360
3173.12596	0.92350
3171.07215	0.92354
3169.01835	0.92361
3166.96455	0.92356
3164.91075	0.92344
3162.85694	0.92344
3160.80314	0.92356
3158.74934	0.92388
3156.69553	0.92426
3154.64173	0.92426
3152.58793	0.92404
3150.53412	0.92418
3148.48032	0.92473
3146.42652	0.92514
3144.37271	0.92524
3142.31891	0.92529
3140.26511	0.92548
3138.21130	0.92564
3136.15750	0.92560
3134.10370	0.92569
3132.04989	0.92606
3129.99609	0.92608
3127.94229	0.92567
3125.88848	0.92558
3123.83468	0.92628
3121.78088	0.92718
3119.72707	0.92730
3117.67327	0.92682
3115.61947	0.92633
3113.56566	0.92597
3111.51186	0.92580
3109.45806	0.92553
3107.40426	0.92501
3105.35045	0.92464
3103.29665	0.92444
3101.24285	0.92432
3099.18904	0.92468
3097.13524	0.92534
3095.08144	0.92554
3093.02763	0.92515
3090.97383	0.92408
3088.92003	0.92204
3086.86622	0.91943
3084.81242	0.91699
3082.75862	0.91529
3080.70481	0.91502
3078.65101	0.91628
3076.59721	0.91802
3074.54340	0.91915
3072.48960	0.91939
3070.43580	0.91916
3068.38199	0.91851
3066.32819	0.91697
3064.27439	0.91439
3062.22058	0.91141
3060.16678	0.90930
3058.11298	0.90903
3056.05918	0.91060
3054.00537	0.91319
3051.95157	0.91569
3049.89777	0.91764
3047.84396	0.91897
3045.79016	0.91982
3043.73636	0.92040
3041.68255	0.92039
3039.62875	0.91972
3037.57495	0.91837
3035.52114	0.91551
3033.46734	0.91075
3031.41354	0.90452
3029.35973	0.89759
3027.30593	0.89106
3025.25213	0.88708
3023.19832	0.88823
3021.14452	0.89380
3019.09072	0.90034
3017.03691	0.90620
3014.98311	0.91118
3012.92931	0.91478
3010.87550	0.91702
3008.82170	0.91827
3006.76790	0.91830
3004.71409	0.91756
3002.66029	0.91737
3000.60649	0.91786
2998.55269	0.91872
2996.49888	0.92007
2994.44508	0.92184
2992.39128	0.92369
2990.33747	0.92517
2988.28367	0.92610
2986.22987	0.92639
2984.17606	0.92625
2982.12226	0.92619
2980.06846	0.92631
2978.01465	0.92636
2975.96085	0.92634
2973.90705	0.92653
2971.85324	0.92668
2969.79944	0.92646
2967.74564	0.92609
2965.69183	0.92582
2963.63803	0.92551
2961.58423	0.92503
2959.53042	0.92438
2957.47662	0.92356
2955.42282	0.92266
2953.36901	0.92185
2951.31521	0.92088
2949.26141	0.91967
2947.20761	0.91829
2945.15380	0.91628
2943.10000	0.91347
2941.04620	0.91040
2938.99239	0.90720
2936.93859	0.90356
2934.88479	0.89933
2932.83098	0.89498
2930.77718	0.89058
2928.72338	0.88579
2926.66957	0.88133
2924.61577	0.87822
2922.56197	0.87648
2920.50816	0.87574
2918.45436	0.87584
2916.40056	0.87671
2914.34675	0.87838
2912.29295	0.88098
2910.23915	0.88410
2908.18534	0.88701
2906.13154	0.88957
2904.07774	0.89213
2902.02393	0.89482
2899.97013	0.89763
2897.91633	0.90052
2895.86252	0.90320
2893.80872	0.90522
2891.75492	0.90660
2889.70112	0.90790
2887.64731	0.90902
2885.59351	0.90969
2883.53971	0.91045
2881.48590	0.91167
2879.43210	0.91290
2877.37830	0.91369
2875.32449	0.91451
2873.27069	0.91563
2871.21689	0.91656
2869.16308	0.91696
2867.10928	0.91678
2865.05548	0.91613
2863.00167	0.91514
2860.94787	0.91376
2858.89407	0.91199
2856.84026	0.90994
2854.78646	0.90767
2852.73266	0.90578
2850.67885	0.90477
2848.62505	0.90426
2846.57125	0.90462
2844.51744	0.90632
2842.46364	0.90883
2840.40984	0.91148
2838.35603	0.91411
2836.30223	0.91663
2834.24843	0.91867
2832.19463	0.92006
2830.14082	0.92097
2828.08702	0.92173
2826.03322	0.92265
2823.97941	0.92353
2821.92561	0.92390
2819.87181	0.92375
2817.81800	0.92360
2815.76420	0.92368
2813.71040	0.92378
2811.65659	0.92397
2809.60279	0.92433
2807.54899	0.92454
2805.49518	0.92454
2803.44138	0.92476
2801.38758	0.92514
2799.33377	0.92542
2797.27997	0.92566
2795.22617	0.92584
2793.17236	0.92592
2791.11856	0.92605
2789.06476	0.92622
2787.01095	0.92641
2784.95715	0.92656
2782.90335	0.92654
2780.84955	0.92666
2778.79574	0.92716
2776.74194	0.92732
2774.68814	0.92681
2772.63433	0.92647
2770.58053	0.92681
2768.52673	0.92730
2766.47292	0.92744
2764.41912	0.92741
2762.36532	0.92755
2760.31151	0.92781
2758.25771	0.92779
2756.20391	0.92749
2754.15010	0.92719
2752.09630	0.92694
2750.04250	0.92711
2747.98869	0.92782
2745.93489	0.92849
2743.88109	0.92854
2741.82728	0.92818
2739.77348	0.92805
2737.71968	0.92817
2735.66587	0.92813
2733.61207	0.92773
2731.55827	0.92746
2729.50446	0.92779
2727.45066	0.92826
2725.39686	0.92853
2723.34306	0.92871
2721.28925	0.92866
2719.23545	0.92861
2717.18165	0.92885
2715.12784	0.92909
2713.07404	0.92890
2711.02024	0.92850
2708.96643	0.92837
2706.91263	0.92859
2704.85883	0.92880
2702.80502	0.92878
2700.75122	0.92866
2698.69742	0.92843
2696.64361	0.92813
2694.58981	0.92809
2692.53601	0.92834
2690.48220	0.92871
2688.42840	0.92895
2686.37460	0.92917
2684.32079	0.92944
2682.26699	0.92945
2680.21319	0.92919
2678.15938	0.92905
2676.10558	0.92929
2674.05178	0.92972
2671.99797	0.92990
2669.94417	0.92953
2667.89037	0.92903
2665.83657	0.92881
2663.78276	0.92877
2661.72896	0.92896
2659.67516	0.92919
2657.62135	0.92927
2655.56755	0.92941
2653.51375	0.92936
2651.45994	0.92918
2649.40614	0.92932
2647.35234	0.92942
2645.29853	0.92940
2643.24473	0.92977
2641.19093	0.92993
2639.13712	0.92939
2637.08332	0.92892
2635.02952	0.92894
2632.97571	0.92925
2630.92191	0.92960
2628.86811	0.92979
2626.81430	0.93000
2624.76050	0.93035
2622.70670	0.93074
2620.65289	0.93112
2618.59909	0.93130
2616.54529	0.93099
2614.49149	0.93042
2612.43768	0.93006
2610.38388	0.93007
2608.33008	0.93040
2606.27627	0.93060
2604.22247	0.93064
2602.16867	0.93073
2600.11486	0.93070
2598.06106	0.93066
2596.00726	0.93080
2593.95345	0.93116
2591.89965	0.93167
2589.84585	0.93210
2587.79204	0.93229
2585.73824	0.93223
2583.68444	0.93223
2581.63063	0.93222
2579.57683	0.93185
2577.52303	0.93161
2575.46922	0.93186
2573.41542	0.93212
2571.36162	0.93212
2569.30781	0.93204
2567.25401	0.93206
2565.20021	0.93224
2563.14640	0.93218
2561.09260	0.93193
2559.03880	0.93192
2556.98500	0.93182
2554.93119	0.93154
2552.87739	0.93134
2550.82359	0.93121
2548.76978	0.93127
2546.71598	0.93161
2544.66218	0.93208
2542.60837	0.93268
2540.55457	0.93307
2538.50077	0.93272
2536.44696	0.93224
2534.39316	0.93268
2532.33936	0.93378
2530.28555	0.93392
2528.23175	0.93271
2526.17795	0.93176
2524.12414	0.93188
2522.07034	0.93238
2520.01654	0.93270
2517.96273	0.93272
2515.90893	0.93257
2513.85513	0.93237
2511.80132	0.93239
2509.74752	0.93273
2507.69372	0.93283
2505.63992	0.93263
2503.58611	0.93253
2501.53231	0.93253
2499.47851	0.93236
2497.42470	0.93227
2495.37090	0.93244
2493.31710	0.93239
2491.26329	0.93220
2489.20949	0.93231
2487.15569	0.93268
2485.10188	0.93271
2483.04808	0.93251
2480.99428	0.93280
2478.94047	0.93311
2476.88667	0.93283
2474.83287	0.93249
2472.77906	0.93269
2470.72526	0.93309
2468.67146	0.93347
2466.61765	0.93390
2464.56385	0.93401
2462.51005	0.93351
2460.45624	0.93263
2458.40244	0.93235
2456.34864	0.93318
2454.29483	0.93399
2452.24103	0.93377
2450.18723	0.93324
2448.13343	0.93329
2446.07962	0.93360
2444.02582	0.93392
2441.97202	0.93444
2439.91821	0.93470
2437.86441	0.93422
2435.81061	0.93392
2433.75680	0.93432
2431.70300	0.93459
2429.64920	0.93468
2427.59539	0.93497
2425.54159	0.93498
2423.48779	0.93438
2421.43398	0.93353
2419.38018	0.93277
2417.32638	0.93258
2415.27257	0.93309
2413.21877	0.93368
2411.16497	0.93386
2409.11116	0.93371
2407.05736	0.93388
2405.00356	0.93430
2402.94975	0.93412
2400.89595	0.93352
2398.84215	0.93322
2396.78834	0.93327
2394.73454	0.93366
2392.68074	0.93429
2390.62694	0.93448
2388.57313	0.93403
2386.51933	0.93383
2384.46553	0.93425
2382.41172	0.93450
2380.35792	0.93427
2378.30412	0.93397
2376.25031	0.93363
2374.19651	0.93322
2372.14271	0.93314
2370.08890	0.93388
2368.03510	0.93450
2365.98130	0.93377
2363.92749	0.93266
2361.87369	0.93172
2359.81989	0.93077
2357.76608	0.93064
2355.71228	0.93114
2353.65848	0.93100
2351.60467	0.93115
2349.55087	0.93212
2347.49707	0.93278
2345.44326	0.93283
2343.38946	0.93232
2341.33566	0.93186
2339.28186	0.93234
2337.22805	0.93278
2335.17425	0.93262
2333.12045	0.93230
2331.06664	0.93178
2329.01284	0.93127
2326.95904	0.93106
2324.90523	0.93099
2322.85143	0.93101
2320.79763	0.93135
2318.74382	0.93199
2316.69002	0.93262
2314.63622	0.93325
2312.58241	0.93372
2310.52861	0.93347
2308.47481	0.93281
2306.42100	0.93235
2304.36720	0.93229
2302.31340	0.93296
2300.25959	0.93400
2298.20579	0.93457
2296.15199	0.93476
2294.09818	0.93504
2292.04438	0.93485
2289.99058	0.93381
2287.93677	0.93281
2285.88297	0.93285
2283.82917	0.93396
2281.77537	0.93495
2279.72156	0.93523
2277.66776	0.93494
2275.61396	0.93391
2273.56015	0.93367
2271.50635	0.93536
2269.45255	0.93675
2267.39874	0.93664
2265.34494	0.93606
2263.29114	0.93548
2261.23733	0.93574
2259.18353	0.93656
2257.12973	0.93620
2255.07592	0.93514
2253.02212	0.93499
2250.96832	0.93551
2248.91451	0.93627
2246.86071	0.93695
2244.80691	0.93688
2242.75310	0.93618
2240.69930	0.93551
2238.64550	0.93573
2236.59169	0.93635
2234.53789	0.93558
2232.48409	0.93396
2230.43029	0.93361
2228.37648	0.93420
2226.32268	0.93433
2224.26888	0.93402
2222.21507	0.93376
2220.16127	0.93432
2218.10747	0.93669
2216.05366	0.94021
2213.99986	0.94180
2211.94606	0.94042
2209.89225	0.93858
2207.83845	0.93774
2205.78465	0.93786
2203.73084	0.93864
2201.67704	0.93901
2199.62324	0.93783
2197.56943	0.93673
2195.51563	0.93729
2193.46183	0.93745
2191.40802	0.93604
2189.35422	0.93535
2187.30042	0.93659
2185.24661	0.93784
2183.19281	0.93787
2181.13901	0.93691
2179.08520	0.93578
2177.03140	0.93613
2174.97760	0.93772
2172.92380	0.93832
2170.86999	0.93850
2168.81619	0.93858
2166.76239	0.93696
2164.70858	0.93618
2162.65478	0.93757
2160.60098	0.94031
2158.54717	0.94497
2156.49337	0.94811
2154.43957	0.94799
2152.38576	0.94674
2150.33196	0.94510
2148.27816	0.94294
2146.22435	0.94095
2144.17055	0.93973
2142.11675	0.93983
2140.06294	0.94038
2138.00914	0.94030
2135.95534	0.94092
2133.90153	0.94148
2131.84773	0.94092
2129.79393	0.94121
2127.74012	0.94233
2125.68632	0.94192
2123.63252	0.93998
2121.57871	0.93831
2119.52491	0.93778
2117.47111	0.93803
2115.41731	0.93812
2113.36350	0.93808
2111.30970	0.93906
2109.25590	0.94109
2107.20209	0.94186
2105.14829	0.94004
2103.09449	0.93774
2101.04068	0.93680
2098.98688	0.93665
2096.93308	0.93717
2094.87927	0.93861
2092.82547	0.93904
2090.77167	0.93756
2088.71786	0.93620
2086.66406	0.93612
2084.61026	0.93668
2082.55645	0.93713
2080.50265	0.93738
2078.44885	0.93816
2076.39504	0.93992
2074.34124	0.94176
2072.28744	0.94249
2070.23363	0.94164
2068.17983	0.94038
2066.12603	0.94024
2064.07223	0.94061
2062.01842	0.94034
2059.96462	0.93991
2057.91082	0.93920
2055.85701	0.93789
2053.80321	0.93750
2051.74941	0.93862
2049.69560	0.94031
2047.64180	0.94165
2045.58800	0.94115
2043.53419	0.93970
2041.48039	0.93920
2039.42659	0.93942
2037.37278	0.93977
2035.31898	0.93988
2033.26518	0.94009
2031.21137	0.93999
2029.15757	0.93976
2027.10377	0.94128
2025.04996	0.94361
2022.99616	0.94381
2020.94236	0.94258
2018.88855	0.94231
2016.83475	0.94288
2014.78095	0.94279
2012.72714	0.94179
2010.67334	0.94203
2008.61954	0.94406
2006.56574	0.94488
2004.51193	0.94309
2002.45813	0.94166
2000.40433	0.94253
1998.35052	0.94375
1996.29672	0.94422
1994.24292	0.94379
1992.18911	0.94170
1990.13531	0.93939
1988.08151	0.93969
1986.02770	0.94139
1983.97390	0.94074
1981.92010	0.93831
1979.86629	0.93792
1977.81249	0.94053
1975.75869	0.94291
1973.70488	0.94177
1971.65108	0.93889
1969.59728	0.93832
1967.54347	0.94096
1965.48967	0.94347
1963.43587	0.94317
1961.38206	0.94139
1959.32826	0.94026
1957.27446	0.93984
1955.22066	0.93894
1953.16685	0.93836
1951.11305	0.93812
1949.05925	0.93659
1947.00544	0.93408
1944.95164	0.93275
1942.89784	0.93390
1940.84403	0.93615
1938.79023	0.93745
1936.73643	0.93782
1934.68262	0.93863
1932.62882	0.93989
1930.57502	0.93994
1928.52121	0.93928
1926.46741	0.93992
1924.41361	0.94136
1922.35980	0.94188
1920.30600	0.94142
1918.25220	0.94064
1916.19839	0.94053
1914.14459	0.94100
1912.09079	0.94093
1910.03698	0.94036
1907.98318	0.93996
1905.92938	0.93977
1903.87557	0.93964
1901.82177	0.93949
1899.76797	0.93903
1897.71417	0.93855
1895.66036	0.93843
1893.60656	0.93875
1891.55276	0.93930
1889.49895	0.93925
1887.44515	0.93828
1885.39135	0.93715
1883.33754	0.93686
1881.28374	0.93739
1879.22994	0.93738
1877.17613	0.93667
1875.12233	0.93652
1873.06853	0.93695
1871.01472	0.93685
1868.96092	0.93594
1866.90712	0.93525
1864.85331	0.93532
1862.79951	0.93603
1860.74571	0.93718
1858.69190	0.93818
1856.63810	0.93890
1854.58430	0.93921
1852.53049	0.93893
1850.47669	0.93878
1848.42289	0.93938
1846.36908	0.94015
1844.31528	0.94027
1842.26148	0.94004
1840.20768	0.94010
1838.15387	0.94008
1836.10007	0.93976
1834.04627	0.93958
1831.99246	0.93970
1829.93866	0.94008
1827.88486	0.94050
1825.83105	0.94058
1823.77725	0.94021
1821.72345	0.93931
1819.66964	0.93825
1817.61584	0.93784
1815.56204	0.93778
1813.50823	0.93720
1811.45443	0.93642
1809.40063	0.93612
1807.34682	0.93608
1805.29302	0.93582
1803.23922	0.93544
1801.18541	0.93504
1799.13161	0.93492
1797.07781	0.93540
1795.02400	0.93604
1792.97020	0.93645
1790.91640	0.93668
1788.86260	0.93694
1786.80879	0.93709
1784.75499	0.93689
1782.70119	0.93686
1780.64738	0.93716
1778.59358	0.93706
1776.53978	0.93657
1774.48597	0.93613
1772.43217	0.93634
1770.37837	0.93690
1768.32456	0.93685
1766.27076	0.93658
1764.21696	0.93665
1762.16315	0.93698
1760.10935	0.93700
1758.05555	0.93628
1756.00174	0.93520
1753.94794	0.93452
1751.89414	0.93412
1749.84033	0.93342
1747.78653	0.93234
1745.73273	0.93121
1743.67892	0.93030
1741.62512	0.93003
1739.57132	0.93055
1737.51751	0.93119
1735.46371	0.93152
1733.40991	0.93158
1731.35611	0.93160
1729.30230	0.93159
1727.24850	0.93138
1725.19470	0.93097
1723.14089	0.93059
1721.08709	0.93048
1719.03329	0.93065
1716.97948	0.93117
1714.92568	0.93172
1712.87188	0.93186
1710.81807	0.93168
1708.76427	0.93156
1706.71047	0.93181
1704.65666	0.93210
1702.60286	0.93195
1700.54906	0.93143
1698.49525	0.93105
1696.44145	0.93102
1694.38765	0.93067
1692.33384	0.92998
1690.28004	0.92913
1688.22624	0.92833
1686.17243	0.92780
1684.11863	0.92729
1682.06483	0.92702
1680.01103	0.92663
1677.95722	0.92578
1675.90342	0.92486
1673.84962	0.92434
1671.79581	0.92396
1669.74201	0.92331
1667.68821	0.92273
1665.63440	0.92255
1663.58060	0.92257
1661.52680	0.92267
1659.47299	0.92267
1657.41919	0.92254
1655.36539	0.92234
1653.31158	0.92227
1651.25778	0.92225
1649.20398	0.92210
1647.15017	0.92218
1645.09637	0.92293
1643.04257	0.92364
1640.98876	0.92384
1638.93496	0.92371
1636.88116	0.92359
1634.82735	0.92376
1632.77355	0.92402
1630.71975	0.92431
1628.66594	0.92485
1626.61214	0.92518
1624.55834	0.92496
1622.50454	0.92500
1620.45073	0.92546
1618.39693	0.92545
1616.34313	0.92483
1614.28932	0.92452
1612.23552	0.92424
1610.18172	0.92265
1608.12791	0.91828
1606.07411	0.91085
1604.02031	0.90143
1601.96650	0.89318
1599.91270	0.89133
1597.85890	0.89672
1595.80509	0.90471
1593.75129	0.91122
1591.69749	0.91560
1589.64368	0.91833
1587.58988	0.91908
1585.53608	0.91773
1583.48227	0.91613
1581.42847	0.91692
1579.37467	0.91994
1577.32086	0.92336
1575.26706	0.92583
1573.21326	0.92692
1571.15945	0.92779
1569.10565	0.92906
1567.05185	0.93014
1564.99805	0.93062
1562.94424	0.93072
1560.89044	0.93113
1558.83664	0.93215
1556.78283	0.93224
1554.72903	0.93192
1552.67523	0.93177
1550.62142	0.93153
1548.56762	0.93111
1546.51382	0.93089
1544.46001	0.93117
1542.40621	0.93168
1540.35241	0.93172
1538.29860	0.93171
1536.24480	0.93219
1534.19100	0.93317
1532.13719	0.93442
1530.08339	0.93517
1528.02959	0.93556
1525.97578	0.93580
1523.92198	0.93613
1521.86818	0.93645
1519.81437	0.93673
1517.76057	0.93709
1515.70677	0.93753
1513.65297	0.93826
1511.59916	0.93936
1509.54536	0.94048
1507.49156	0.94056
1505.43775	0.93910
1503.38395	0.93777
1501.33015	0.93541
1499.27634	0.92739
1497.22254	0.90290
1495.16874	0.86492
1493.11493	0.84050
1491.06113	0.84303
1489.00733	0.87099
1486.95352	0.89722
1484.89972	0.91049
1482.84592	0.91823
1480.79211	0.92365
1478.73831	0.92700
1476.68451	0.92871
1474.63070	0.92942
1472.57690	0.92979
1470.52310	0.93047
1468.46929	0.93114
1466.41549	0.93147
1464.36169	0.93095
1462.30788	0.92954
1460.25408	0.92709
1458.20028	0.91614
1456.14648	0.88259
1454.09267	0.84956
1452.03887	0.83429
1449.98507	0.83715
1447.93126	0.85192
1445.87746	0.86670
1443.82366	0.87760
1441.76985	0.88662
1439.71605	0.89407
1437.66225	0.90099
1435.60844	0.90800
1433.55464	0.91272
1431.50084	0.91604
1429.44703	0.91941
1427.39323	0.92212
1425.33943	0.92397
1423.28562	0.92542
1421.23182	0.92612
1419.17802	0.92621
1417.12421	0.92664
1415.07041	0.92747
1413.01661	0.92813
1410.96280	0.92838
1408.90900	0.92837
1406.85520	0.92849
1404.80139	0.92880
1402.74759	0.92909
1400.69379	0.92939
1398.63999	0.92970
1396.58618	0.92992
1394.53238	0.93007
1392.47858	0.92979
1390.42477	0.92893
1388.37097	0.92744
1386.31717	0.92557
1384.26336	0.92426
1382.20956	0.92345
1380.15576	0.92251
1378.10195	0.92130
1376.04815	0.91997
1373.99435	0.91884
1371.94054	0.91820
1369.88674	0.91805
1367.83294	0.91815
1365.77913	0.91836
1363.72533	0.91878
1361.67153	0.91939
1359.61772	0.92019
1357.56392	0.92119
1355.51012	0.92199
1353.45631	0.92227
1351.40251	0.92230
1349.34871	0.92247
1347.29491	0.92271
1345.24110	0.92294
1343.18730	0.92348
1341.13350	0.92438
1339.07969	0.92521
1337.02589	0.92543
1334.97209	0.92491
1332.91828	0.92393
1330.86448	0.92275
1328.81068	0.92186
1326.75687	0.92164
1324.70307	0.92195
1322.64927	0.92251
1320.59546	0.92300
1318.54166	0.92317
1316.48786	0.92315
1314.43405	0.92306
1312.38025	0.92302
1310.32645	0.92313
1308.27264	0.92374
1306.21884	0.92485
1304.16504	0.92560
1302.11123	0.92583
1300.05743	0.92628
1298.00363	0.92684
1295.94982	0.92690
1293.89602	0.92662
1291.84222	0.92663
1289.78842	0.92704
1287.73461	0.92740
1285.68081	0.92755
1283.62701	0.92759
1281.57320	0.92743
1279.51940	0.92726
1277.46560	0.92713
1275.41179	0.92690
1273.35799	0.92704
1271.30419	0.92759
1269.25038	0.92788
1267.19658	0.92804
1265.14278	0.92855
1263.08897	0.92896
1261.03517	0.92887
1258.98137	0.92853
1256.92756	0.92824
1254.87376	0.92822
1252.81996	0.92851
1250.76615	0.92856
1248.71235	0.92819
1246.65855	0.92774
1244.60474	0.92740
1242.55094	0.92725
1240.49714	0.92730
1238.44334	0.92734
1236.38953	0.92710
1234.33573	0.92675
1232.28193	0.92665
1230.22812	0.92656
1228.17432	0.92611
1226.12052	0.92548
1224.06671	0.92494
1222.01291	0.92450
1219.95911	0.92396
1217.90530	0.92327
1215.85150	0.92260
1213.79770	0.92185
1211.74389	0.92064
1209.69009	0.91927
1207.63629	0.91816
1205.58248	0.91698
1203.52868	0.91544
1201.47488	0.91334
1199.42107	0.91103
1197.36727	0.90940
1195.31347	0.90822
1193.25966	0.90678
1191.20586	0.90516
1189.15206	0.90347
1187.09825	0.90148
1185.04445	0.89882
1182.99065	0.89569
1180.93685	0.89301
1178.88304	0.89171
1176.82924	0.89186
1174.77544	0.89253
1172.72163	0.89259
1170.66783	0.89175
1168.61403	0.89023
1166.56022	0.88872
1164.50642	0.88764
1162.45262	0.88634
1160.39881	0.88408
1158.34501	0.88089
1156.29121	0.87751
1154.23740	0.87523
1152.18360	0.87500
1150.12980	0.87604
1148.07599	0.87692
1146.02219	0.87727
1143.96839	0.87707
1141.91458	0.87640
1139.86078	0.87603
1137.80698	0.87597
1135.75317	0.87518
1133.69937	0.87345
1131.64557	0.87163
1129.59176	0.87002
1127.53796	0.86777
1125.48416	0.86453
1123.43036	0.86127
1121.37655	0.85803
1119.32275	0.85402
1117.26895	0.84939
1115.21514	0.84487
1113.16134	0.84101
1111.10754	0.83766
1109.05373	0.83446
1106.99993	0.83166
1104.94613	0.82926
1102.89232	0.82685
1100.83852	0.82459
1098.78472	0.82305
1096.73091	0.82227
1094.67711	0.82149
1092.62331	0.82030
1090.56950	0.81927
1088.51570	0.81886
1086.46190	0.81828
1084.40809	0.81685
1082.35429	0.81515
1080.30049	0.81357
1078.24668	0.81159
1076.19288	0.80865
1074.13908	0.80509
1072.08528	0.80173
1070.03147	0.79878
1067.97767	0.79632
1065.92387	0.79446
1063.87006	0.79299
1061.81626	0.79152
1059.76246	0.78989
1057.70865	0.78823
1055.65485	0.78606
1053.60105	0.78282
1051.54724	0.77884
1049.49344	0.77453
1047.43964	0.77017
1045.38583	0.76599
1043.33203	0.76164
1041.27823	0.75694
1039.22442	0.75201
1037.17062	0.74651
1035.11682	0.73967
1033.06301	0.73103
1031.00921	0.72192
1028.95541	0.71548
1026.90160	0.71402
1024.84780	0.71716
1022.79400	0.72257
1020.74019	0.72743
1018.68639	0.73050
1016.63259	0.73256
1014.57879	0.73471
1012.52498	0.73694
1010.47118	0.73864
1008.41738	0.73976
1006.36357	0.74092
1004.30977	0.74318
1002.25597	0.74752
1000.20216	0.75393
998.14836	0.76153
996.09456	0.76916
994.04075	0.77608
991.98695	0.78277
989.93315	0.78947
987.87934	0.79540
985.82554	0.80047
983.77174	0.80519
981.71793	0.81003
979.66413	0.81571
977.61033	0.82208
975.55652	0.82811
973.50272	0.83342
971.44892	0.83797
969.39511	0.84173
967.34131	0.84463
965.28751	0.84686
963.23371	0.84948
961.17990	0.85336
959.12610	0.85778
957.07230	0.86171
955.01849	0.86498
952.96469	0.86739
950.91089	0.86907
948.85708	0.87026
946.80328	0.87104
944.74948	0.87202
942.69567	0.87349
940.64187	0.87506
938.58807	0.87673
936.53426	0.87877
934.48046	0.88088
932.42666	0.88227
930.37285	0.88302
928.31905	0.88414
926.26525	0.88529
924.21144	0.88517
922.15764	0.88385
920.10384	0.88227
918.05003	0.88037
915.99623	0.87752
913.94243	0.87377
911.88862	0.86979
909.83482	0.86651
907.78102	0.86516
905.72722	0.86675
903.67341	0.87130
901.61961	0.87812
899.56581	0.88568
897.51200	0.89209
895.45820	0.89657
893.40440	0.89998
891.35059	0.90290
889.29679	0.90491
887.24299	0.90637
885.18918	0.90805
883.13538	0.90957
881.08158	0.91066
879.02777	0.91171
876.97397	0.91283
874.92017	0.91411
872.86636	0.91520
870.81256	0.91596
868.75876	0.91708
866.70495	0.91849
864.65115	0.91945
862.59735	0.92000
860.54354	0.92095
858.48974	0.92224
856.43594	0.92277
854.38213	0.92241
852.32833	0.92186
850.27453	0.92105
848.22073	0.91984
846.16692	0.91830
844.11312	0.91645
842.05932	0.91519
840.00551	0.91499
837.95171	0.91545
835.89791	0.91673
833.84410	0.91880
831.79030	0.92096
829.73650	0.92276
827.68269	0.92455
825.62889	0.92583
823.57509	0.92554
821.52128	0.92464
819.46748	0.92467
817.41368	0.92548
815.35987	0.92593
813.30607	0.92546
811.25227	0.92455
809.19846	0.92361
807.14466	0.92242
805.09086	0.92078
803.03705	0.91917
800.98325	0.91808
798.92945	0.91732
796.87565	0.91648
794.82184	0.91571
792.76804	0.91506
790.71424	0.91385
788.66043	0.91186
786.60663	0.90956
784.55283	0.90703
782.49902	0.90381
780.44522	0.89933
778.39142	0.89301
776.33761	0.88521
774.28381	0.87601
772.23001	0.86401
770.17620	0.84907
768.12240	0.83288
766.06860	0.81681
764.01479	0.80087
761.96099	0.78514
759.90719	0.77105
757.85338	0.76036
755.79958	0.75429
753.74578	0.75258
751.69197	0.75367
749.63817	0.75623
747.58437	0.76077
745.53056	0.77094
743.47676	0.78946
741.42296	0.81266
739.36916	0.83438
737.31535	0.85250
735.26155	0.86801
733.20775	0.88154
731.15394	0.89302
729.10014	0.90160
727.04634	0.90648
724.99253	0.90894
722.93873	0.91050
720.88493	0.91177
718.83112	0.91361
716.77732	0.91474
714.72352	0.91195
712.66971	0.90317
710.61591	0.88598
708.56211	0.85475
706.50830	0.80309
704.45450	0.72955
702.40070	0.63907
700.34689	0.53999
698.29309	0.44796
696.23929	0.39515
694.18548	0.41661
692.13168	0.50704
690.07788	0.61588
688.02408	0.70004
685.97027	0.75289
683.91647	0.78526
681.86267	0.80629
679.80886	0.82017
677.75506	0.82959
675.70126	0.83726
673.64745	0.84439
671.59365	0.84952
669.53985	0.85194
667.48604	0.85476
665.43224	0.85900
663.37844	0.86261
661.32463	0.86540
659.27083	0.86747
657.21703	0.86976
655.16322	0.87206
653.10942	0.87289
651.05562	0.87311
649.00181	0.87430
646.94801	0.87537
644.89421	0.87582
642.84040	0.87717
640.78660	0.87904
638.73280	0.87959
636.67899	0.87832
634.62519	0.87608
632.57139	0.87526
630.51759	0.87639
628.46378	0.87630
626.40998	0.87455
624.35618	0.87369
622.30237	0.87350
620.24857	0.87296
618.19477	0.87237
616.14096	0.87188
614.08716	0.87170
612.03336	0.87111
609.97955	0.86970
607.92575	0.86908
605.87195	0.86934
603.81814	0.86784
601.76434	0.86421
599.71054	0.86142
597.65673	0.86027
595.60293	0.85833
593.54913	0.85604
591.49532	0.85583
589.44152	0.85620
587.38772	0.85511
585.33391	0.85274
583.28011	0.84924
581.22631	0.84557
579.17250	0.84319
577.11870	0.84141
575.06490	0.83792
573.01110	0.83278
570.95729	0.82762
568.90349	0.82210
566.84969	0.81663
564.79588	0.81256
562.74208	0.80807
560.68828	0.80207
558.63447	0.79609
556.58067	0.79069
554.52687	0.78606
552.47306	0.78061
550.41926	0.77102
548.36546	0.75873
546.31165	0.74686
544.25785	0.73468
542.20405	0.72209
540.15024	0.71152
538.09644	0.70624
536.04264	0.70796
533.98883	0.71672
531.93503	0.73035
529.88123	0.74418
527.82742	0.75605
525.77362	0.76719
523.71982	0.77794
521.66602	0.78780
519.61221	0.79615
517.55841	0.80255
515.50461	0.80770
513.45080	0.81232
511.39700	0.81613
509.34320	0.81914
507.28939	0.82270
505.23559	0.82630
503.18179	0.82869
501.12798	0.82966
499.07418	0.82898
497.02038	0.82955
494.96657	0.83246
492.91277	0.83337
490.85897	0.83129
488.80516	0.82857
486.75136	0.82383
484.69756	0.81607
482.64375	0.80766
480.58995	0.80054
478.53615	0.79392
476.48234	0.78557
474.42854	0.77587
472.37474	0.76913
470.32093	0.76743
468.26713	0.76652
466.21333	0.76392
464.15953	0.76304
462.10572	0.76839
460.05192	0.77981
457.99812	0.79136
455.94431	0.79623
453.89051	0.79885
451.83671	0.80324
449.78290	0.80554
447.72910	0.80699
445.67530	0.80946
443.62149	0.80859
441.56769	0.80445
439.51389	0.80362
437.46008	0.80502
435.40628	0.80297
433.35248	0.79890
431.29867	0.79674
429.24487	0.79910
427.19107	0.80637
425.13726	0.81448
423.08346	0.81975
421.02966	0.82259
418.97585	0.82303
416.92205	0.82298
414.86825	0.82758
412.81445	0.83502
410.76064	0.84007
408.70684	0.84085
406.65304	0.84141
404.59923	0.84815
402.54543	0.85953
400.49163	0.86378
398.43782	0.85485
