3996.70104	0.97634
3994.64724	0.97695
3992.59344	0.97686
3990.53964	0.97657
3988.48583	0.97629
3986.43203	0.97583
3984.37823	0.97520
3982.32442	0.97470
3980.27062	0.97446
3978.21682	0.97450
3976.16301	0.97493
3974.10921	0.97565
3972.05541	0.97615
3970.00160	0.97599
3967.94780	0.97539
3965.89400	0.97488
3963.84019	0.97496
3961.78639	0.97562
3959.73259	0.97628
3957.67878	0.97648
3955.62498	0.97609
3953.57118	0.97579
3951.51737	0.97598
3949.46357	0.97616
3947.40977	0.97633
3945.35596	0.97657
3943.30216	0.97654
3941.24836	0.97633
3939.19455	0.97616
3937.14075	0.97605
3935.08695	0.97601
3933.03315	0.97596
3930.97934	0.97581
3928.92554	0.97577
3926.87174	0.97585
3924.81793	0.97573
3922.76413	0.97573
3920.71033	0.97634
3918.65652	0.97707
3916.60272	0.97693
3914.54892	0.97631
3912.49511	0.97618
3910.44131	0.97640
3908.38751	0.97645
3906.33370	0.97630
3904.27990	0.97647
3902.22610	0.97714
3900.17229	0.97754
3898.11849	0.97693
3896.06469	0.97599
3894.01088	0.97590
3891.95708	0.97630
3889.90328	0.97592
3887.84947	0.97545
3885.79567	0.97592
3883.74187	0.97674
3881.68807	0.97691
3879.63426	0.97664
3877.58046	0.97625
3875.52666	0.97594
3873.47285	0.97629
3871.41905	0.97714
3869.36525	0.97704
3867.31144	0.97595
3865.25764	0.97523
3863.20384	0.97543
3861.15003	0.97628
3859.09623	0.97683
3857.04243	0.97688
3854.98862	0.97726
3852.93482	0.97790
3850.88102	0.97760
3848.82721	0.97689
3846.77341	0.97638
3844.71961	0.97644
3842.66580	0.97666
3840.61200	0.97669
3838.55820	0.97707
3836.50439	0.97721
3834.45059	0.97658
3832.39679	0.97586
3830.34298	0.97569
3828.28918	0.97598
3826.23538	0.97610
3824.18158	0.97617
3822.12777	0.97663
3820.07397	0.97685
3818.02017	0.97614
3815.96636	0.97542
3813.91256	0.97557
3811.85876	0.97612
3809.80495	0.97674
3807.75115	0.97717
3805.69735	0.97710
3803.64354	0.97713
3801.58974	0.97734
3799.53594	0.97686
3797.48213	0.97629
3795.42833	0.97636
3793.37453	0.97642
3791.32072	0.97633
3789.26692	0.97630
3787.21312	0.97641
3785.15931	0.97699
3783.10551	0.97730
3781.05171	0.97678
3778.99790	0.97614
3776.94410	0.97585
3774.89030	0.97606
3772.83650	0.97698
3770.78269	0.97806
3768.72889	0.97825
3766.67509	0.97773
3764.62128	0.97749
3762.56748	0.97792
3760.51368	0.97842
3758.45987	0.97809
3756.40607	0.97732
3754.35227	0.97707
3752.29846	0.97773
3750.24466	0.97877
3748.19086	0.97910
3746.13705	0.97927
3744.08325	0.97913
3742.02945	0.97837
3739.97564	0.97809
3737.92184	0.97835
3735.86804	0.97815
3733.81423	0.97740
3731.76043	0.97727
3729.70663	0.97775
3727.65282	0.97852
3725.59902	0.97868
3723.54522	0.97739
3721.49141	0.97586
3719.43761	0.97569
3717.38381	0.97616
3715.33001	0.97597
3713.27620	0.97554
3711.22240	0.97569
3709.16860	0.97617
3707.11479	0.97626
3705.06099	0.97601
3703.00719	0.97555
3700.95338	0.97519
3698.89958	0.97541
3696.84578	0.97522
3694.79197	0.97438
3692.73817	0.97459
3690.68437	0.97580
3688.63056	0.97555
3686.57676	0.97434
3684.52296	0.97410
3682.46915	0.97438
3680.41535	0.97450
3678.36155	0.97468
3676.30774	0.97496
3674.25394	0.97521
3672.20014	0.97516
3670.14633	0.97439
3668.09253	0.97389
3666.03873	0.97383
3663.98492	0.97364
3661.93112	0.97363
3659.87732	0.97392
3657.82352	0.97441
3655.76971	0.97470
3653.71591	0.97413
3651.66211	0.97328
3649.60830	0.97292
3647.55450	0.97234
3645.50070	0.97159
3643.44689	0.97142
3641.39309	0.97131
3639.33929	0.97113
3637.28548	0.97153
3635.23168	0.97201
3633.17788	0.97172
3631.12407	0.97131
3629.07027	0.97153
3627.01647	0.97195
3624.96266	0.97184
3622.90886	0.97134
3620.85506	0.97085
3618.80125	0.97071
3616.74745	0.97076
3614.69365	0.97093
3612.63984	0.97125
3610.58604	0.97150
3608.53224	0.97149
3606.47844	0.97120
3604.42463	0.97091
3602.37083	0.97068
3600.31703	0.97075
3598.26322	0.97113
3596.20942	0.97107
3594.15562	0.97098
3592.10181	0.97151
3590.04801	0.97216
3587.99421	0.97267
3585.94040	0.97216
3583.88660	0.97064
3581.83280	0.96985
3579.77899	0.97007
3577.72519	0.97019
3575.67139	0.97016
3573.61758	0.97060
3571.56378	0.97113
3569.50998	0.97124
3567.45617	0.97147
3565.40237	0.97185
3563.34857	0.97169
3561.29476	0.97171
3559.24096	0.97192
3557.18716	0.97142
3555.13335	0.97058
3553.07955	0.97037
3551.02575	0.97042
3548.97195	0.97023
3546.91814	0.97035
3544.86434	0.97050
3542.81054	0.96992
3540.75673	0.96907
3538.70293	0.96878
3536.64913	0.96917
3534.59532	0.96987
3532.54152	0.97069
3530.48772	0.97092
3528.43391	0.97037
3526.38011	0.96999
3524.32631	0.97000
3522.27250	0.96989
3520.21870	0.96972
3518.16490	0.96958
3516.11109	0.96955
3514.05729	0.96956
3512.00349	0.96928
3509.94968	0.96879
3507.89588	0.96842
3505.84208	0.96857
3503.78827	0.96914
3501.73447	0.96967
3499.68067	0.97000
3497.62687	0.97019
3495.57306	0.97014
3493.51926	0.96991
3491.46546	0.96968
3489.41165	0.96905
3487.35785	0.96860
3485.30405	0.96912
3483.25024	0.96963
3481.19644	0.96948
3479.14264	0.96886
3477.08883	0.96821
3475.03503	0.96799
3472.98123	0.96809
3470.92742	0.96860
3468.87362	0.96930
3466.81982	0.96926
3464.76601	0.96867
3462.71221	0.96871
3460.65841	0.96910
3458.60460	0.96891
3456.55080	0.96855
3454.49700	0.96848
3452.44319	0.96835
3450.38939	0.96806
3448.33559	0.96788
3446.28178	0.96794
3444.22798	0.96808
3442.17418	0.96836
3440.12038	0.96846
3438.06657	0.96799
3436.01277	0.96771
3433.95897	0.96815
3431.90516	0.96836
3429.85136	0.96786
3427.79756	0.96739
3425.74375	0.96710
3423.68995	0.96671
3421.63615	0.96635
3419.58234	0.96628
3417.52854	0.96677
3415.47474	0.96748
3413.42093	0.96769
3411.36713	0.96751
3409.31333	0.96748
3407.25952	0.96740
3405.20572	0.96692
3403.15192	0.96637
3401.09811	0.96642
3399.04431	0.96715
3396.99051	0.96759
3394.93670	0.96743
3392.88290	0.96766
3390.82910	0.96804
3388.77529	0.96785
3386.72149	0.96779
3384.66769	0.96815
3382.61389	0.96809
3380.56008	0.96744
3378.50628	0.96692
3376.45248	0.96678
3374.39867	0.96703
3372.34487	0.96753
3370.29107	0.96752
3368.23726	0.96727
3366.18346	0.96721
3364.12966	0.96686
3362.07585	0.96670
3360.02205	0.96710
3357.96825	0.96711
3355.91444	0.96680
3353.86064	0.96716
3351.80684	0.96763
3349.75303	0.96748
3347.69923	0.96740
3345.64543	0.96761
3343.59162	0.96787
3341.53782	0.96786
3339.48402	0.96771
3337.43021	0.96789
3335.37641	0.96787
3333.32261	0.96756
3331.26881	0.96781
3329.21500	0.96833
3327.16120	0.96845
3325.10740	0.96825
3323.05359	0.96810
3320.99979	0.96829
3318.94599	0.96836
3316.89218	0.96798
3314.83838	0.96780
3312.78458	0.96806
3310.73077	0.96827
3308.67697	0.96802
3306.62317	0.96739
3304.56936	0.96726
3302.51556	0.96778
3300.46176	0.96798
3298.40795	0.96786
3296.35415	0.96811
3294.30035	0.96839
3292.24654	0.96818
3290.19274	0.96757
3288.13894	0.96705
3286.08513	0.96718
3284.03133	0.96780
3281.97753	0.96821
3279.92372	0.96831
3277.86992	0.96838
3275.81612	0.96849
3273.76232	0.96856
3271.70851	0.96860
3269.65471	0.96889
3267.60091	0.96922
3265.54710	0.96898
3263.49330	0.96843
3261.43950	0.96840
3259.38569	0.96932
3257.33189	0.97027
3255.27809	0.96985
3253.22428	0.96885
3251.17048	0.96858
3249.11668	0.96885
3247.06287	0.96922
3245.00907	0.96955
3242.95527	0.96993
3240.90146	0.97038
3238.84766	0.97038
3236.79386	0.97001
3234.74005	0.96992
3232.68625	0.97015
3230.63245	0.97018
3228.57864	0.96980
3226.52484	0.96950
3224.47104	0.96974
3222.41724	0.97037
3220.36343	0.97078
3218.30963	0.97053
3216.25583	0.97013
3214.20202	0.97000
3212.14822	0.96973
3210.09442	0.96934
3208.04061	0.96964
3205.98681	0.97074
3203.93301	0.97159
3201.87920	0.97149
3199.82540	0.97122
3197.77160	0.97116
3195.71779	0.97105
3193.66399	0.97112
3191.61019	0.97107
3189.55638	0.97068
3187.50258	0.97036
3185.44878	0.97014
3183.39497	0.97019
3181.34117	0.97057
3179.28737	0.97072
3177.23356	0.97059
3175.17976	0.97073
3173.12596	0.97105
3171.07215	0.97093
3169.01835	0.97077
3166.96455	0.97135
3164.91075	0.97203
3162.85694	0.97234
3160.80314	0.97283
3158.74934	0.97320
3156.69553	0.97289
3154.64173	0.97231
3152.58793	0.97181
3150.53412	0.97145
3148.48032	0.97169
3146.42652	0.97228
3144.37271	0.97246
3142.31891	0.97255
3140.26511	0.97277
3138.21130	0.97275
3136.15750	0.97271
3134.10370	0.97285
3132.04989	0.97284
3129.99609	0.97284
3127.94229	0.97311
3125.88848	0.97323
3123.83468	0.97306
3121.78088	0.97288
3119.72707	0.97270
3117.67327	0.97247
3115.61947	0.97234
3113.56566	0.97237
3111.51186	0.97240
3109.45806	0.97235
3107.40426	0.97221
3105.35045	0.97199
3103.29665	0.97173
3101.24285	0.97141
3099.18904	0.97131
3097.13524	0.97159
3095.08144	0.97180
3093.02763	0.97168
3090.97383	0.97126
3088.92003	0.97048
3086.86622	0.96966
3084.81242	0.96910
3082.75862	0.96864
3080.70481	0.96854
3078.65101	0.96931
3076.59721	0.97028
3074.54340	0.97059
3072.48960	0.97051
3070.43580	0.97045
3068.38199	0.97013
3066.32819	0.96937
3064.27439	0.96810
3062.22058	0.96633
3060.16678	0.96520
3058.11298	0.96557
3056.05918	0.96657
3054.00537	0.96769
3051.95157	0.96918
3049.89777	0.97023
3047.84396	0.97028
3045.79016	0.97016
3043.73636	0.97021
3041.68255	0.96995
3039.62875	0.96919
3037.57495	0.96812
3035.52114	0.96692
3033.46734	0.96550
3031.41354	0.96338
3029.35973	0.96038
3027.30593	0.95759
3025.25213	0.95678
3023.19832	0.95806
3021.14452	0.96062
3019.09072	0.96390
3017.03691	0.96644
3014.98311	0.96755
3012.92931	0.96841
3010.87550	0.96980
3008.82170	0.97132
3006.76790	0.97221
3004.71409	0.97212
3002.66029	0.97149
3000.60649	0.97100
2998.55269	0.97107
2996.49888	0.97147
2994.44508	0.97177
2992.39128	0.97207
2990.33747	0.97262
2988.28367	0.97320
2986.22987	0.97344
2984.17606	0.97333
2982.12226	0.97335
2980.06846	0.97356
2978.01465	0.97373
2975.96085	0.97369
2973.90705	0.97338
2971.85324	0.97299
2969.79944	0.97276
2967.74564	0.97279
2965.69183	0.97280
2963.63803	0.97260
2961.58423	0.97230
2959.53042	0.97186
2957.47662	0.97121
2955.42282	0.97026
2953.36901	0.96940
2951.31521	0.96912
2949.26141	0.96889
2947.20761	0.96802
2945.15380	0.96693
2943.10000	0.96604
2941.04620	0.96496
2938.99239	0.96347
2936.93859	0.96189
2934.88479	0.96022
2932.83098	0.95826
2930.77718	0.95616
2928.72338	0.95387
2926.66957	0.95113
2924.61577	0.94897
2922.56197	0.94862
2920.50816	0.94923
2918.45436	0.94956
2916.40056	0.95009
2914.34675	0.95135
2912.29295	0.95292
2910.23915	0.95455
2908.18534	0.95589
2906.13154	0.95668
2904.07774	0.95745
2902.02393	0.95872
2899.97013	0.96040
2897.91633	0.96195
2895.86252	0.96315
2893.80872	0.96406
2891.75492	0.96472
2889.70112	0.96521
2887.64731	0.96554
2885.59351	0.96582
2883.53971	0.96642
2881.48590	0.96705
2879.43210	0.96749
2877.37830	0.96803
2875.32449	0.96846
2873.27069	0.96845
2871.21689	0.96815
2869.16308	0.96809
2867.10928	0.96840
2865.05548	0.96847
2863.00167	0.96790
2860.94787	0.96706
2858.89407	0.96636
2856.84026	0.96564
2854.78646	0.96473
2852.73266	0.96397
2850.67885	0.96366
2848.62505	0.96372
2846.57125	0.96417
2844.51744	0.96508
2842.46364	0.96640
2840.40984	0.96786
2838.35603	0.96917
2836.30223	0.97033
2834.24843	0.97122
2832.19463	0.97175
2830.14082	0.97205
2828.08702	0.97245
2826.03322	0.97290
2823.97941	0.97294
2821.92561	0.97295
2819.87181	0.97333
2817.81800	0.97370
2815.76420	0.97382
2813.71040	0.97381
2811.65659	0.97388
2809.60279	0.97389
2807.54899	0.97375
2805.49518	0.97370
2803.44138	0.97372
2801.38758	0.97360
2799.33377	0.97377
2797.27997	0.97443
2795.22617	0.97496
2793.17236	0.97491
2791.11856	0.97485
2789.06476	0.97526
2787.01095	0.97546
2784.95715	0.97518
2782.90335	0.97498
2780.84955	0.97514
2778.79574	0.97535
2776.74194	0.97514
2774.68814	0.97483
2772.63433	0.97485
2770.58053	0.97494
2768.52673	0.97496
2766.47292	0.97517
2764.41912	0.97575
2762.36532	0.97621
2760.31151	0.97614
2758.25771	0.97591
2756.20391	0.97578
2754.15010	0.97565
2752.09630	0.97558
2750.04250	0.97560
2747.98869	0.97573
2745.93489	0.97585
2743.88109	0.97582
2741.82728	0.97574
2739.77348	0.97569
2737.71968	0.97545
2735.66587	0.97501
2733.61207	0.97482
2731.55827	0.97482
2729.50446	0.97482
2727.45066	0.97493
2725.39686	0.97500
2723.34306	0.97514
2721.28925	0.97565
2719.23545	0.97610
2717.18165	0.97607
2715.12784	0.97594
2713.07404	0.97606
2711.02024	0.97629
2708.96643	0.97643
2706.91263	0.97628
2704.85883	0.97583
2702.80502	0.97544
2700.75122	0.97533
2698.69742	0.97534
2696.64361	0.97549
2694.58981	0.97585
2692.53601	0.97597
2690.48220	0.97576
2688.42840	0.97567
2686.37460	0.97577
2684.32079	0.97590
2682.26699	0.97601
2680.21319	0.97613
2678.15938	0.97636
2676.10558	0.97638
2674.05178	0.97609
2671.99797	0.97629
2669.94417	0.97697
2667.89037	0.97703
2665.83657	0.97642
2663.78276	0.97601
2661.72896	0.97589
2659.67516	0.97587
2657.62135	0.97601
2655.56755	0.97605
2653.51375	0.97600
2651.45994	0.97608
2649.40614	0.97604
2647.35234	0.97573
2645.29853	0.97539
2643.24473	0.97518
2641.19093	0.97507
2639.13712	0.97531
2637.08332	0.97567
2635.02952	0.97563
2632.97571	0.97556
2630.92191	0.97586
2628.86811	0.97606
2626.81430	0.97610
2624.76050	0.97653
2622.70670	0.97699
2620.65289	0.97687
2618.59909	0.97665
2616.54529	0.97650
2614.49149	0.97625
2612.43768	0.97641
2610.38388	0.97703
2608.33008	0.97730
2606.27627	0.97704
2604.22247	0.97677
2602.16867	0.97679
2600.11486	0.97737
2598.06106	0.97809
2596.00726	0.97807
2593.95345	0.97735
2591.89965	0.97684
2589.84585	0.97710
2587.79204	0.97759
2585.73824	0.97801
2583.68444	0.97829
2581.63063	0.97807
2579.57683	0.97792
2577.52303	0.97831
2575.46922	0.97859
2573.41542	0.97824
2571.36162	0.97788
2569.30781	0.97811
2567.25401	0.97817
2565.20021	0.97774
2563.14640	0.97751
2561.09260	0.97753
2559.03880	0.97773
2556.98500	0.97790
2554.93119	0.97768
2552.87739	0.97768
2550.82359	0.97819
2548.76978	0.97857
2546.71598	0.97870
2544.66218	0.97889
2542.60837	0.97871
2540.55457	0.97782
2538.50077	0.97696
2536.44696	0.97672
2534.39316	0.97711
2532.33936	0.97803
2530.28555	0.97853
2528.23175	0.97819
2526.17795	0.97793
2524.12414	0.97777
2522.07034	0.97746
2520.01654	0.97756
2517.96273	0.97781
2515.90893	0.97776
2513.85513	0.97763
2511.80132	0.97735
2509.74752	0.97694
2507.69372	0.97702
2505.63992	0.97780
2503.58611	0.97840
2501.53231	0.97875
2499.47851	0.97904
2497.42470	0.97851
2495.37090	0.97779
2493.31710	0.97780
2491.26329	0.97836
2489.20949	0.97883
2487.15569	0.97869
2485.10188	0.97829
2483.04808	0.97809
2480.99428	0.97840
2478.94047	0.97878
2476.88667	0.97844
2474.83287	0.97814
2472.77906	0.97853
2470.72526	0.97883
2468.67146	0.97837
2466.61765	0.97791
2464.56385	0.97809
2462.51005	0.97813
2460.45624	0.97803
2458.40244	0.97865
2456.34864	0.97938
2454.29483	0.97943
2452.24103	0.97900
2450.18723	0.97855
2448.13343	0.97844
2446.07962	0.97881
2444.02582	0.97912
2441.97202	0.97872
2439.91821	0.97837
2437.86441	0.97888
2435.81061	0.97962
2433.75680	0.97973
2431.70300	0.97927
2429.64920	0.97896
2427.59539	0.97910
2425.54159	0.97936
2423.48779	0.97969
2421.43398	0.97999
2419.38018	0.97959
2417.32638	0.97858
2415.27257	0.97795
2413.21877	0.97822
2411.16497	0.97872
2409.11116	0.97882
2407.05736	0.97869
2405.00356	0.97849
2402.94975	0.97844
2400.89595	0.97874
2398.84215	0.97915
2396.78834	0.97908
2394.73454	0.97849
2392.68074	0.97804
2390.62694	0.97813
2388.57313	0.97851
2386.51933	0.97887
2384.46553	0.97899
2382.41172	0.97866
2380.35792	0.97848
2378.30412	0.97880
2376.25031	0.97915
2374.19651	0.97930
2372.14271	0.97892
2370.08890	0.97795
2368.03510	0.97727
2365.98130	0.97778
2363.92749	0.97849
2361.87369	0.97769
2359.81989	0.97665
2357.76608	0.97713
2355.71228	0.97759
2353.65848	0.97763
2351.60467	0.97813
2349.55087	0.97816
2347.49707	0.97771
2345.44326	0.97763
2343.38946	0.97815
2341.33566	0.97916
2339.28186	0.98005
2337.22805	0.97984
2335.17425	0.97870
2333.12045	0.97749
2331.06664	0.97674
2329.01284	0.97643
2326.95904	0.97616
2324.90523	0.97603
2322.85143	0.97645
2320.79763	0.97700
2318.74382	0.97715
2316.69002	0.97709
2314.63622	0.97739
2312.58241	0.97811
2310.52861	0.97865
2308.47481	0.97900
2306.42100	0.97938
2304.36720	0.97907
2302.31340	0.97836
2300.25959	0.97821
2298.20579	0.97826
2296.15199	0.97792
2294.09818	0.97705
2292.04438	0.97626
2289.99058	0.97653
2287.93677	0.97757
2285.88297	0.97860
2283.82917	0.97942
2281.77537	0.97959
2279.72156	0.97874
2277.66776	0.97819
2275.61396	0.97854
2273.56015	0.97881
2271.50635	0.97920
2269.45255	0.97960
2267.39874	0.97973
2265.34494	0.97994
2263.29114	0.97949
2261.23733	0.97872
2259.18353	0.97892
2257.12973	0.97934
2255.07592	0.97939
2253.02212	0.98021
2250.96832	0.98130
2248.91451	0.98094
2246.86071	0.97947
2244.80691	0.97881
2242.75310	0.97946
2240.69930	0.98046
2238.64550	0.98088
2236.59169	0.98043
2234.53789	0.98021
2232.48409	0.98075
2230.43029	0.98079
2228.37648	0.98048
2226.32268	0.98136
2224.26888	0.98227
2222.21507	0.98103
2220.16127	0.97922
2218.10747	0.97897
2216.05366	0.98005
2213.99986	0.98199
2211.94606	0.98339
2209.89225	0.98322
2207.83845	0.98224
2205.78465	0.98087
2203.73084	0.98036
2201.67704	0.98146
2199.62324	0.98164
2197.56943	0.98107
2195.51563	0.98190
2193.46183	0.98246
2191.40802	0.98155
2189.35422	0.97971
2187.30042	0.97747
2185.24661	0.97654
2183.19281	0.97865
2181.13901	0.98240
2179.08520	0.98329
2177.03140	0.98004
2174.97760	0.97797
2172.92380	0.97983
2170.86999	0.98127
2168.81619	0.98024
2166.76239	0.97900
2164.70858	0.97896
2162.65478	0.98076
2160.60098	0.98376
2158.54717	0.98500
2156.49337	0.98457
2154.43957	0.98564
2152.38576	0.98763
2150.33196	0.98860
2148.27816	0.98806
2146.22435	0.98695
2144.17055	0.98684
2142.11675	0.98692
2140.06294	0.98579
2138.00914	0.98399
2135.95534	0.98319
2133.90153	0.98360
2131.84773	0.98284
2129.79393	0.98134
2127.74012	0.98082
2125.68632	0.98037
2123.63252	0.98070
2121.57871	0.98225
2119.52491	0.98233
2117.47111	0.98088
2115.41731	0.98004
2113.36350	0.98016
2111.30970	0.98050
2109.25590	0.98071
2107.20209	0.98097
2105.14829	0.98146
2103.09449	0.98195
2101.04068	0.98160
2098.98688	0.98065
2096.93308	0.97992
2094.87927	0.97994
2092.82547	0.98126
2090.77167	0.98276
2088.71786	0.98354
2086.66406	0.98371
2084.61026	0.98353
2082.55645	0.98326
2080.50265	0.98273
2078.44885	0.98257
2076.39504	0.98326
2074.34124	0.98381
2072.28744	0.98391
2070.23363	0.98345
2068.17983	0.98209
2066.12603	0.98086
2064.07223	0.98037
2062.01842	0.98001
2059.96462	0.98004
2057.91082	0.98086
2055.85701	0.98156
2053.80321	0.98156
2051.74941	0.98117
2049.69560	0.98158
2047.64180	0.98267
2045.58800	0.98277
2043.53419	0.98330
2041.48039	0.98448
2039.42659	0.98304
2037.37278	0.97983
2035.31898	0.97979
2033.26518	0.98401
2031.21137	0.98745
2029.15757	0.98632
2027.10377	0.98268
2025.04996	0.97952
2022.99616	0.97814
2020.94236	0.97884
2018.88855	0.98056
2016.83475	0.98320
2014.78095	0.98539
2012.72714	0.98468
2010.67334	0.98246
2008.61954	0.98201
2006.56574	0.98391
2004.51193	0.98579
2002.45813	0.98570
2000.40433	0.98371
1998.35052	0.98084
1996.29672	0.97872
1994.24292	0.97890
1992.18911	0.98123
1990.13531	0.98400
1988.08151	0.98488
1986.02770	0.98275
1983.97390	0.97988
1981.92010	0.98004
1979.86629	0.98246
1977.81249	0.98364
1975.75869	0.98520
1973.70488	0.98750
1971.65108	0.98719
1969.59728	0.98536
1967.54347	0.98369
1965.48967	0.98218
1963.43587	0.98239
1961.38206	0.98379
1959.32826	0.98407
1957.27446	0.98368
1955.22066	0.98335
1953.16685	0.98265
1951.11305	0.98227
1949.05925	0.98184
1947.00544	0.98030
1944.95164	0.97854
1942.89784	0.97769
1940.84403	0.97832
1938.79023	0.97976
1936.73643	0.98033
1934.68262	0.98021
1932.62882	0.98069
1930.57502	0.98100
1928.52121	0.98089
1926.46741	0.98153
1924.41361	0.98272
1922.35980	0.98376
1920.30600	0.98410
1918.25220	0.98349
1916.19839	0.98275
1914.14459	0.98231
1912.09079	0.98191
1910.03698	0.98173
1907.98318	0.98215
1905.92938	0.98286
1903.87557	0.98291
1901.82177	0.98243
1899.76797	0.98227
1897.71417	0.98230
1895.66036	0.98193
1893.60656	0.98116
1891.55276	0.98084
1889.49895	0.98128
1887.44515	0.98120
1885.39135	0.98055
1883.33754	0.98063
1881.28374	0.98119
1879.22994	0.98124
1877.17613	0.98092
1875.12233	0.98091
1873.06853	0.98101
1871.01472	0.98048
1868.96092	0.97980
1866.90712	0.97992
1864.85331	0.98038
1862.79951	0.98094
1860.74571	0.98159
1858.69190	0.98203
1856.63810	0.98257
1854.58430	0.98298
1852.53049	0.98217
1850.47669	0.98074
1848.42289	0.98020
1846.36908	0.98033
1844.31528	0.98058
1842.26148	0.98129
1840.20768	0.98208
1838.15387	0.98238
1836.10007	0.98251
1834.04627	0.98274
1831.99246	0.98275
1829.93866	0.98263
1827.88486	0.98221
1825.83105	0.98151
1823.77725	0.98103
1821.72345	0.98066
1819.66964	0.98061
1817.61584	0.98114
1815.56204	0.98132
1813.50823	0.98070
1811.45443	0.98015
1809.40063	0.98007
1807.34682	0.98026
1805.29302	0.98064
1803.23922	0.98066
1801.18541	0.98013
1799.13161	0.98009
1797.07781	0.98085
1795.02400	0.98142
1792.97020	0.98142
1790.91640	0.98117
1788.86260	0.98102
1786.80879	0.98111
1784.75499	0.98141
1782.70119	0.98158
1780.64738	0.98137
1778.59358	0.98097
1776.53978	0.98059
1774.48597	0.98040
1772.43217	0.98074
1770.37837	0.98135
1768.32456	0.98151
1766.27076	0.98131
1764.21696	0.98125
1762.16315	0.98144
1760.10935	0.98171
1758.05555	0.98162
1756.00174	0.98102
1753.94794	0.98064
1751.89414	0.98066
1749.84033	0.98059
1747.78653	0.98037
1745.73273	0.98025
1743.67892	0.98005
1741.62512	0.97962
1739.57132	0.97939
1737.51751	0.97981
1735.46371	0.98055
1733.40991	0.98071
1731.35611	0.98027
1729.30230	0.97993
1727.24850	0.97970
1725.19470	0.97952
1723.14089	0.97919
1721.08709	0.97896
1719.03329	0.97931
1716.97948	0.97993
1714.92568	0.98043
1712.87188	0.98082
1710.81807	0.98073
1708.76427	0.98034
1706.71047	0.97991
1704.65666	0.97963
1702.60286	0.97953
1700.54906	0.97920
1698.49525	0.97865
1696.44145	0.97823
1694.38765	0.97785
1692.33384	0.97769
1690.28004	0.97777
1688.22624	0.97786
1686.17243	0.97762
1684.11863	0.97701
1682.06483	0.97639
1680.01103	0.97595
1677.95722	0.97557
1675.90342	0.97535
1673.84962	0.97532
1671.79581	0.97504
1669.74201	0.97430
1667.68821	0.97369
1665.63440	0.97351
1663.58060	0.97358
1661.52680	0.97354
1659.47299	0.97309
1657.41919	0.97252
1655.36539	0.97221
1653.31158	0.97231
1651.25778	0.97222
1649.20398	0.97207
1647.15017	0.97230
1645.09637	0.97281
1643.04257	0.97302
1640.98876	0.97286
1638.93496	0.97280
1636.88116	0.97309
1634.82735	0.97293
1632.77355	0.97243
1630.71975	0.97232
1628.66594	0.97251
1626.61214	0.97277
1624.55834	0.97283
1622.50454	0.97249
1620.45073	0.97227
1618.39693	0.97238
1616.34313	0.97236
1614.28932	0.97224
1612.23552	0.97218
1610.18172	0.97152
1608.12791	0.96968
1606.07411	0.96697
1604.02031	0.96402
1601.96650	0.96179
1599.91270	0.96162
1597.85890	0.96351
1595.80509	0.96604
1593.75129	0.96808
1591.69749	0.96947
1589.64368	0.97014
1587.58988	0.97010
1585.53608	0.96972
1583.48227	0.96954
1581.42847	0.97016
1579.37467	0.97137
1577.32086	0.97227
1575.26706	0.97282
1573.21326	0.97337
1571.15945	0.97378
1569.10565	0.97413
1567.05185	0.97459
1564.99805	0.97513
1562.94424	0.97552
1560.89044	0.97580
1558.83664	0.97625
1556.78283	0.97600
1554.72903	0.97538
1552.67523	0.97513
1550.62142	0.97513
1548.56762	0.97502
1546.51382	0.97503
1544.46001	0.97547
1542.40621	0.97642
1540.35241	0.97703
1538.29860	0.97627
1536.24480	0.97574
1534.19100	0.97598
1532.13719	0.97656
1530.08339	0.97698
1528.02959	0.97703
1525.97578	0.97680
1523.92198	0.97692
1521.86818	0.97726
1519.81437	0.97730
1517.76057	0.97724
1515.70677	0.97721
1513.65297	0.97722
1511.59916	0.97734
1509.54536	0.97762
1507.49156	0.97788
1505.43775	0.97766
1503.38395	0.97696
1501.33015	0.97536
1499.27634	0.97139
1497.22254	0.96198
1495.16874	0.94891
1493.11493	0.94130
1491.06113	0.94355
1489.00733	0.95417
1486.95352	0.96311
1484.89972	0.96743
1482.84592	0.97001
1480.79211	0.97171
1478.73831	0.97277
1476.68451	0.97355
1474.63070	0.97401
1472.57690	0.97373
1470.52310	0.97304
1468.46929	0.97273
1466.41549	0.97260
1464.36169	0.97200
1462.30788	0.97105
1460.25408	0.97001
1458.20028	0.96582
1456.14648	0.95325
1454.09267	0.94168
1452.03887	0.93746
1449.98507	0.93955
1447.93126	0.94493
1445.87746	0.95014
1443.82366	0.95429
1441.76985	0.95774
1439.71605	0.96057
1437.66225	0.96339
1435.60844	0.96591
1433.55464	0.96724
1431.50084	0.96843
1429.44703	0.96981
1427.39323	0.97063
1425.33943	0.97105
1423.28562	0.97152
1421.23182	0.97191
1419.17802	0.97224
1417.12421	0.97255
1415.07041	0.97266
1413.01661	0.97285
1410.96280	0.97337
1408.90900	0.97399
1406.85520	0.97440
1404.80139	0.97466
1402.74759	0.97486
1400.69379	0.97498
1398.63999	0.97504
1396.58618	0.97502
1394.53238	0.97484
1392.47858	0.97478
1390.42477	0.97493
1388.37097	0.97473
1386.31717	0.97402
1384.26336	0.97330
1382.20956	0.97263
1380.15576	0.97183
1378.10195	0.97107
1376.04815	0.97064
1373.99435	0.97074
1371.94054	0.97112
1369.88674	0.97136
1367.83294	0.97128
1365.77913	0.97113
1363.72533	0.97143
1361.67153	0.97202
1359.61772	0.97225
1357.56392	0.97233
1355.51012	0.97259
1353.45631	0.97285
1351.40251	0.97296
1349.34871	0.97296
1347.29491	0.97306
1345.24110	0.97342
1343.18730	0.97392
1341.13350	0.97453
1339.07969	0.97492
1337.02589	0.97470
1334.97209	0.97436
1332.91828	0.97405
1330.86448	0.97363
1328.81068	0.97354
1326.75687	0.97375
1324.70307	0.97362
1322.64927	0.97356
1320.59546	0.97394
1318.54166	0.97400
1316.48786	0.97377
1314.43405	0.97386
1312.38025	0.97410
1310.32645	0.97425
1308.27264	0.97423
1306.21884	0.97416
1304.16504	0.97443
1302.11123	0.97491
1300.05743	0.97505
1298.00363	0.97493
1295.94982	0.97505
1293.89602	0.97521
1291.84222	0.97510
1289.78842	0.97509
1287.73461	0.97524
1285.68081	0.97527
1283.62701	0.97516
1281.57320	0.97494
1279.51940	0.97481
1277.46560	0.97487
1275.41179	0.97490
1273.35799	0.97490
1271.30419	0.97504
1269.25038	0.97511
1267.19658	0.97500
1265.14278	0.97487
1263.08897	0.97493
1261.03517	0.97522
1258.98137	0.97524
1256.92756	0.97498
1254.87376	0.97487
1252.81996	0.97478
1250.76615	0.97469
1248.71235	0.97453
1246.65855	0.97402
1244.60474	0.97357
1242.55094	0.97366
1240.49714	0.97392
1238.44334	0.97403
1236.38953	0.97394
1234.33573	0.97351
1232.28193	0.97294
1230.22812	0.97282
1228.17432	0.97322
1226.12052	0.97338
1224.06671	0.97296
1222.01291	0.97218
1219.95911	0.97120
1217.90530	0.97024
1215.85150	0.96946
1213.79770	0.96885
1211.74389	0.96826
1209.69009	0.96764
1207.63629	0.96691
1205.58248	0.96580
1203.52868	0.96443
1201.47488	0.96304
1199.42107	0.96162
1197.36727	0.96018
1195.31347	0.95885
1193.25966	0.95774
1191.20586	0.95666
1189.15206	0.95536
1187.09825	0.95385
1185.04445	0.95206
1182.99065	0.95012
1180.93685	0.94859
1178.88304	0.94752
1176.82924	0.94645
1174.77544	0.94554
1172.72163	0.94490
1170.66783	0.94387
1168.61403	0.94229
1166.56022	0.94045
1164.50642	0.93856
1162.45262	0.93722
1160.39881	0.93649
1158.34501	0.93543
1156.29121	0.93363
1154.23740	0.93180
1152.18360	0.93073
1150.12980	0.93030
1148.07599	0.93008
1146.02219	0.92959
1143.96839	0.92869
1141.91458	0.92781
1139.86078	0.92689
1137.80698	0.92573
1135.75317	0.92446
1133.69937	0.92294
1131.64557	0.92122
1129.59176	0.91984
1127.53796	0.91887
1125.48416	0.91759
1123.43036	0.91590
1121.37655	0.91437
1119.32275	0.91265
1117.26895	0.91024
1115.21514	0.90746
1113.16134	0.90503
1111.10754	0.90326
1109.05373	0.90157
1106.99993	0.89982
1104.94613	0.89831
1102.89232	0.89696
1100.83852	0.89592
1098.78472	0.89497
1096.73091	0.89381
1094.67711	0.89272
1092.62331	0.89198
1090.56950	0.89126
1088.51570	0.89023
1086.46190	0.88908
1084.40809	0.88811
1082.35429	0.88727
1080.30049	0.88618
1078.24668	0.88493
1076.19288	0.88383
1074.13908	0.88249
1072.08528	0.88074
1070.03147	0.87915
1067.97767	0.87777
1065.92387	0.87608
1063.87006	0.87404
1061.81626	0.87188
1059.76246	0.86972
1057.70865	0.86746
1055.65485	0.86490
1053.60105	0.86196
1051.54724	0.85864
1049.49344	0.85516
1047.43964	0.85155
1045.38583	0.84744
1043.33203	0.84293
1041.27823	0.83840
1039.22442	0.83378
1037.17062	0.82918
1035.11682	0.82463
1033.06301	0.81985
1031.00921	0.81519
1028.95541	0.81147
1026.90160	0.80926
1024.84780	0.80890
1022.79400	0.80992
1020.74019	0.81071
1018.68639	0.81039
1016.63259	0.80945
1014.57879	0.80835
1012.52498	0.80713
1010.47118	0.80583
1008.41738	0.80475
1006.36357	0.80437
1004.30977	0.80485
1002.25597	0.80628
1000.20216	0.80840
998.14836	0.81049
996.09456	0.81247
994.04075	0.81480
991.98695	0.81753
989.93315	0.82053
987.87934	0.82363
985.82554	0.82676
983.77174	0.83006
981.71793	0.83366
979.66413	0.83757
977.61033	0.84177
975.55652	0.84619
973.50272	0.85074
971.44892	0.85503
969.39511	0.85882
967.34131	0.86241
965.28751	0.86602
963.23371	0.86955
961.17990	0.87301
959.12610	0.87651
957.07230	0.87975
955.01849	0.88224
952.96469	0.88405
950.91089	0.88595
948.85708	0.88809
946.80328	0.89018
944.74948	0.89221
942.69567	0.89385
940.64187	0.89529
938.58807	0.89680
936.53426	0.89805
934.48046	0.89919
932.42666	0.90062
930.37285	0.90222
928.31905	0.90349
926.26525	0.90430
924.21144	0.90500
922.15764	0.90563
920.10384	0.90569
918.05003	0.90506
915.99623	0.90456
913.94243	0.90452
911.88862	0.90433
909.83482	0.90424
907.78102	0.90496
905.72722	0.90661
903.67341	0.90893
901.61961	0.91193
899.56581	0.91598
897.51200	0.92089
895.45820	0.92550
893.40440	0.92829
891.35059	0.92916
889.29679	0.92998
887.24299	0.93175
885.18918	0.93360
883.13538	0.93469
881.08158	0.93534
879.02777	0.93649
876.97397	0.93803
874.92017	0.93930
872.86636	0.94053
870.81256	0.94223
868.75876	0.94426
866.70495	0.94594
864.65115	0.94698
862.59735	0.94786
860.54354	0.94888
858.48974	0.94963
856.43594	0.94984
854.38213	0.95009
852.32833	0.95047
850.27453	0.95070
848.22073	0.95081
846.16692	0.95103
844.11312	0.95123
842.05932	0.95124
840.00551	0.95122
837.95171	0.95132
835.89791	0.95196
833.84410	0.95283
831.79030	0.95341
829.73650	0.95379
827.68269	0.95344
825.62889	0.95294
823.57509	0.95375
821.52128	0.95530
819.46748	0.95622
817.41368	0.95601
815.35987	0.95509
813.30607	0.95442
811.25227	0.95385
809.19846	0.95271
807.14466	0.95096
805.09086	0.94830
803.03705	0.94563
800.98325	0.94398
798.92945	0.94293
796.87565	0.94252
794.82184	0.94234
792.76804	0.94163
790.71424	0.94084
788.66043	0.94008
786.60663	0.93861
784.55283	0.93656
782.49902	0.93482
780.44522	0.93306
778.39142	0.93016
776.33761	0.92648
774.28381	0.92296
772.23001	0.91933
770.17620	0.91506
768.12240	0.90999
766.06860	0.90470
764.01479	0.89967
761.96099	0.89441
759.90719	0.88950
757.85338	0.88644
755.79958	0.88480
753.74578	0.88362
751.69197	0.88386
749.63817	0.88606
747.58437	0.88920
745.53056	0.89336
743.47676	0.89925
741.42296	0.90593
739.36916	0.91133
737.31535	0.91532
735.26155	0.91956
733.20775	0.92378
731.15394	0.92696
729.10014	0.92928
727.04634	0.93063
724.99253	0.93120
722.93873	0.93166
720.88493	0.93196
718.83112	0.93229
716.77732	0.93334
714.72352	0.93472
712.66971	0.93410
710.61591	0.92861
708.56211	0.91690
706.50830	0.89797
704.45450	0.86977
702.40070	0.83244
700.34689	0.79097
698.29309	0.75583
696.23929	0.74533
694.18548	0.77212
692.13168	0.82032
690.07788	0.86136
688.02408	0.88528
685.97027	0.89798
683.91647	0.90539
681.86267	0.91010
679.80886	0.91342
677.75506	0.91678
675.70126	0.92015
673.64745	0.92221
671.59365	0.92280
669.53985	0.92262
667.48604	0.92296
665.43224	0.92434
663.37844	0.92520
661.32463	0.92469
659.27083	0.92384
657.21703	0.92332
655.16322	0.92180
653.10942	0.91957
651.05562	0.91765
649.00181	0.91602
646.94801	0.91509
644.89421	0.91583
642.84040	0.91775
640.78660	0.91912
638.73280	0.91991
636.67899	0.92092
634.62519	0.92199
632.57139	0.92254
630.51759	0.92251
628.46378	0.92276
626.40998	0.92307
624.35618	0.92206
622.30237	0.92056
620.24857	0.92042
618.19477	0.92040
616.14096	0.91821
614.08716	0.91470
612.03336	0.91160
609.97955	0.90965
607.92575	0.90856
605.87195	0.90722
603.81814	0.90541
601.76434	0.90355
599.71054	0.90185
597.65673	0.89985
595.60293	0.89691
593.54913	0.89447
591.49532	0.89389
589.44152	0.89383
587.38772	0.89289
585.33391	0.89092
583.28011	0.88839
581.22631	0.88655
579.17250	0.88597
577.11870	0.88457
575.06490	0.88051
573.01110	0.87574
570.95729	0.87307
568.90349	0.87219
566.84969	0.87053
564.79588	0.86706
562.74208	0.86327
560.68828	0.86040
558.63447	0.85778
556.58067	0.85501
554.52687	0.85232
552.47306	0.84950
550.41926	0.84541
548.36546	0.83958
546.31165	0.83400
544.25785	0.82840
542.20405	0.82090
540.15024	0.81278
538.09644	0.80679
536.04264	0.80358
533.98883	0.80306
531.93503	0.80649
529.88123	0.81308
527.82742	0.81959
525.77362	0.82454
523.71982	0.82888
521.66602	0.83268
519.61221	0.83592
517.55841	0.84082
515.50461	0.84731
513.45080	0.85154
511.39700	0.85326
509.34320	0.85574
507.28939	0.85892
505.23559	0.86072
503.18179	0.86157
501.12798	0.86296
499.07418	0.86501
497.02038	0.86557
494.96657	0.86327
492.91277	0.85892
490.85897	0.85342
488.80516	0.84882
486.75136	0.84499
484.69756	0.83843
482.64375	0.82866
480.58995	0.81863
478.53615	0.80975
476.48234	0.80150
474.42854	0.79465
472.37474	0.78960
470.32093	0.78516
468.26713	0.78281
466.21333	0.78452
464.15953	0.78826
462.10572	0.79155
460.05192	0.79459
457.99812	0.79844
455.94431	0.80355
453.89051	0.80877
451.83671	0.81244
449.78290	0.81279
447.72910	0.81032
445.67530	0.80849
443.62149	0.80821
441.56769	0.80679
439.51389	0.80418
437.46008	0.80215
435.40628	0.80204
433.35248	0.80284
431.29867	0.80055
429.24487	0.79504
427.19107	0.79186
425.13726	0.79523
423.08346	0.80244
421.02966	0.80649
418.97585	0.80370
416.92205	0.79846
414.86825	0.79920
412.81445	0.80601
410.76064	0.81269
408.70684	0.81746
406.65304	0.82249
404.59923	0.82471
402.54543	0.82541
400.49163	0.82835
398.43782	0.83375
