3996.70104	0.99592
3994.64724	0.99602
3992.59344	0.99621
3990.53964	0.99634
3988.48583	0.99610
3986.43203	0.99568
3984.37823	0.99573
3982.32442	0.99608
3980.27062	0.99626
3978.21682	0.99621
3976.16301	0.99594
3974.10921	0.99551
3972.05541	0.99508
3970.00160	0.99495
3967.94780	0.99505
3965.89400	0.99499
3963.84019	0.99474
3961.78639	0.99460
3959.73259	0.99491
3957.67878	0.99544
3955.62498	0.99557
3953.57118	0.99533
3951.51737	0.99526
3949.46357	0.99577
3947.40977	0.99650
3945.35596	0.99654
3943.30216	0.99611
3941.24836	0.99581
3939.19455	0.99535
3937.14075	0.99466
3935.08695	0.99461
3933.03315	0.99538
3930.97934	0.99574
3928.92554	0.99538
3926.87174	0.99524
3924.81793	0.99582
3922.76413	0.99647
3920.71033	0.99657
3918.65652	0.99640
3916.60272	0.99602
3914.54892	0.99564
3912.49511	0.99544
3910.44131	0.99532
3908.38751	0.99517
3906.33370	0.99523
3904.27990	0.99599
3902.22610	0.99682
3900.17229	0.99669
3898.11849	0.99609
3896.06469	0.99572
3894.01088	0.99584
3891.95708	0.99667
3889.90328	0.99707
3887.84947	0.99632
3885.79567	0.99534
3883.74187	0.99470
3881.68807	0.99472
3879.63426	0.99539
3877.58046	0.99579
3875.52666	0.99560
3873.47285	0.99516
3871.41905	0.99503
3869.36525	0.99537
3867.31144	0.99552
3865.25764	0.99552
3863.20384	0.99569
3861.15003	0.99571
3859.09623	0.99557
3857.04243	0.99552
3854.98862	0.99566
3852.93482	0.99566
3850.88102	0.99502
3848.82721	0.99445
3846.77341	0.99432
3844.71961	0.99479
3842.66580	0.99573
3840.61200	0.99660
3838.55820	0.99754
3836.50439	0.99840
3834.45059	0.99829
3832.39679	0.99764
3830.34298	0.99722
3828.28918	0.99673
3826.23538	0.99614
3824.18158	0.99600
3822.12777	0.99660
3820.07397	0.99763
3818.02017	0.99755
3815.96636	0.99703
3813.91256	0.99700
3811.85876	0.99669
3809.80495	0.99619
3807.75115	0.99618
3805.69735	0.99620
3803.64354	0.99561
3801.58974	0.99532
3799.53594	0.99558
3797.48213	0.99560
3795.42833	0.99566
3793.37453	0.99609
3791.32072	0.99641
3789.26692	0.99601
3787.21312	0.99551
3785.15931	0.99574
3783.10551	0.99606
3781.05171	0.99609
3778.99790	0.99594
3776.94410	0.99572
3774.89030	0.99584
3772.83650	0.99593
3770.78269	0.99569
3768.72889	0.99547
3766.67509	0.99552
3764.62128	0.99590
3762.56748	0.99619
3760.51368	0.99588
3758.45987	0.99530
3756.40607	0.99549
3754.35227	0.99616
3752.29846	0.99639
3750.24466	0.99599
3748.19086	0.99555
3746.13705	0.99569
3744.08325	0.99708
3742.02945	0.99785
3739.97564	0.99720
3737.92184	0.99651
3735.86804	0.99654
3733.81423	0.99703
3731.76043	0.99662
3729.70663	0.99625
3727.65282	0.99672
3725.59902	0.99684
3723.54522	0.99625
3721.49141	0.99659
3719.43761	0.99745
3717.38381	0.99770
3715.33001	0.99764
3713.27620	0.99737
3711.22240	0.99668
3709.16860	0.99578
3707.11479	0.99524
3705.06099	0.99496
3703.00719	0.99463
3700.95338	0.99459
3698.89958	0.99498
3696.84578	0.99530
3694.79197	0.99509
3692.73817	0.99476
3690.68437	0.99500
3688.63056	0.99511
3686.57676	0.99465
3684.52296	0.99422
3682.46915	0.99374
3680.41535	0.99310
3678.36155	0.99228
3676.30774	0.99140
3674.25394	0.99155
3672.20014	0.99266
3670.14633	0.99348
3668.09253	0.99342
3666.03873	0.99321
3663.98492	0.99307
3661.93112	0.99280
3659.87732	0.99233
3657.82352	0.99176
3655.76971	0.99162
3653.71591	0.99164
3651.66211	0.99147
3649.60830	0.99225
3647.55450	0.99369
3645.50070	0.99334
3643.44689	0.99227
3641.39309	0.99143
3639.33929	0.99120
3637.28548	0.99097
3635.23168	0.98994
3633.17788	0.98874
3631.12407	0.98788
3629.07027	0.98842
3627.01647	0.98981
3624.96266	0.98946
3622.90886	0.98853
3620.85506	0.98821
3618.80125	0.98878
3616.74745	0.98900
3614.69365	0.98773
3612.63984	0.98620
3610.58604	0.98617
3608.53224	0.98733
3606.47844	0.98818
3604.42463	0.98783
3602.37083	0.98698
3600.31703	0.98663
3598.26322	0.98663
3596.20942	0.98663
3594.15562	0.98728
3592.10181	0.98787
3590.04801	0.98769
3587.99421	0.98731
3585.94040	0.98661
3583.88660	0.98583
3581.83280	0.98563
3579.77899	0.98591
3577.72519	0.98621
3575.67139	0.98612
3573.61758	0.98556
3571.56378	0.98481
3569.50998	0.98416
3567.45617	0.98438
3565.40237	0.98564
3563.34857	0.98606
3561.29476	0.98534
3559.24096	0.98444
3557.18716	0.98382
3555.13335	0.98360
3553.07955	0.98388
3551.02575	0.98414
3548.97195	0.98379
3546.91814	0.98346
3544.86434	0.98356
3542.81054	0.98351
3540.75673	0.98323
3538.70293	0.98303
3536.64913	0.98276
3534.59532	0.98220
3532.54152	0.98176
3530.48772	0.98199
3528.43391	0.98260
3526.38011	0.98277
3524.32631	0.98265
3522.27250	0.98255
3520.21870	0.98228
3518.16490	0.98203
3516.11109	0.98190
3514.05729	0.98155
3512.00349	0.98085
3509.94968	0.98052
3507.89588	0.98087
3505.84208	0.98106
3503.78827	0.98067
3501.73447	0.98002
3499.68067	0.97949
3497.62687	0.97916
3495.57306	0.97909
3493.51926	0.97935
3491.46546	0.97993
3489.41165	0.98030
3487.35785	0.98029
3485.30405	0.98022
3483.25024	0.98007
3481.19644	0.97991
3479.14264	0.97934
3477.08883	0.97862
3475.03503	0.97852
3472.98123	0.97867
3470.92742	0.97872
3468.87362	0.97843
3466.81982	0.97791
3464.76601	0.97806
3462.71221	0.97887
3460.65841	0.97927
3458.60460	0.97897
3456.55080	0.97855
3454.49700	0.97837
3452.44319	0.97851
3450.38939	0.97845
3448.33559	0.97775
3446.28178	0.97718
3444.22798	0.97729
3442.17418	0.97764
3440.12038	0.97803
3438.06657	0.97837
3436.01277	0.97835
3433.95897	0.97780
3431.90516	0.97710
3429.85136	0.97693
3427.79756	0.97706
3425.74375	0.97703
3423.68995	0.97728
3421.63615	0.97779
3419.58234	0.97792
3417.52854	0.97799
3415.47474	0.97814
3413.42093	0.97772
3411.36713	0.97708
3409.31333	0.97698
3407.25952	0.97717
3405.20572	0.97714
3403.15192	0.97711
3401.09811	0.97717
3399.04431	0.97703
3396.99051	0.97696
3394.93670	0.97711
3392.88290	0.97700
3390.82910	0.97669
3388.77529	0.97678
3386.72149	0.97726
3384.66769	0.97755
3382.61389	0.97715
3380.56008	0.97644
3378.50628	0.97634
3376.45248	0.97700
3374.39867	0.97765
3372.34487	0.97798
3370.29107	0.97813
3368.23726	0.97788
3366.18346	0.97746
3364.12966	0.97741
3362.07585	0.97749
3360.02205	0.97718
3357.96825	0.97681
3355.91444	0.97669
3353.86064	0.97689
3351.80684	0.97722
3349.75303	0.97730
3347.69923	0.97726
3345.64543	0.97728
3343.59162	0.97716
3341.53782	0.97686
3339.48402	0.97681
3337.43021	0.97709
3335.37641	0.97718
3333.32261	0.97693
3331.26881	0.97685
3329.21500	0.97711
3327.16120	0.97752
3325.10740	0.97789
3323.05359	0.97772
3320.99979	0.97734
3318.94599	0.97764
3316.89218	0.97826
3314.83838	0.97853
3312.78458	0.97869
3310.73077	0.97898
3308.67697	0.97910
3306.62317	0.97872
3304.56936	0.97819
3302.51556	0.97810
3300.46176	0.97836
3298.40795	0.97871
3296.35415	0.97911
3294.30035	0.97943
3292.24654	0.97943
3290.19274	0.97920
3288.13894	0.97896
3286.08513	0.97891
3284.03133	0.97926
3281.97753	0.97962
3279.92372	0.97940
3277.86992	0.97894
3275.81612	0.97905
3273.76232	0.97955
3271.70851	0.97978
3269.65471	0.97984
3267.60091	0.98000
3265.54710	0.97995
3263.49330	0.97975
3261.43950	0.97959
3259.38569	0.97924
3257.33189	0.97901
3255.27809	0.97952
3253.22428	0.98049
3251.17048	0.98075
3249.11668	0.98011
3247.06287	0.97970
3245.00907	0.98015
3242.95527	0.98073
3240.90146	0.98080
3238.84766	0.98054
3236.79386	0.98019
3234.74005	0.97985
3232.68625	0.97979
3230.63245	0.98008
3228.57864	0.98041
3226.52484	0.98056
3224.47104	0.98046
3222.41724	0.98038
3220.36343	0.98069
3218.30963	0.98094
3216.25583	0.98089
3214.20202	0.98107
3212.14822	0.98138
3210.09442	0.98132
3208.04061	0.98086
3205.98681	0.98036
3203.93301	0.98025
3201.87920	0.98062
3199.82540	0.98102
3197.77160	0.98105
3195.71779	0.98110
3193.66399	0.98152
3191.61019	0.98195
3189.55638	0.98185
3187.50258	0.98161
3185.44878	0.98200
3183.39497	0.98262
3181.34117	0.98283
3179.28737	0.98270
3177.23356	0.98228
3175.17976	0.98159
3173.12596	0.98129
3171.07215	0.98186
3169.01835	0.98274
3166.96455	0.98316
3164.91075	0.98302
3162.85694	0.98269
3160.80314	0.98241
3158.74934	0.98227
3156.69553	0.98241
3154.64173	0.98273
3152.58793	0.98313
3150.53412	0.98352
3148.48032	0.98372
3146.42652	0.98348
3144.37271	0.98315
3142.31891	0.98331
3140.26511	0.98374
3138.21130	0.98383
3136.15750	0.98343
3134.10370	0.98310
3132.04989	0.98316
3129.99609	0.98336
3127.94229	0.98351
3125.88848	0.98369
3123.83468	0.98386
3121.78088	0.98391
3119.72707	0.98398
3117.67327	0.98403
3115.61947	0.98394
3113.56566	0.98414
3111.51186	0.98471
3109.45806	0.98497
3107.40426	0.98486
3105.35045	0.98480
3103.29665	0.98493
3101.24285	0.98527
3099.18904	0.98545
3097.13524	0.98530
3095.08144	0.98500
3093.02763	0.98467
3090.97383	0.98465
3088.92003	0.98508
3086.86622	0.98530
3084.81242	0.98523
3082.75862	0.98521
3080.70481	0.98508
3078.65101	0.98497
3076.59721	0.98522
3074.54340	0.98570
3072.48960	0.98585
3070.43580	0.98567
3068.38199	0.98563
3066.32819	0.98565
3064.27439	0.98546
3062.22058	0.98546
3060.16678	0.98588
3058.11298	0.98623
3056.05918	0.98626
3054.00537	0.98616
3051.95157	0.98620
3049.89777	0.98623
3047.84396	0.98611
3045.79016	0.98610
3043.73636	0.98624
3041.68255	0.98619
3039.62875	0.98592
3037.57495	0.98579
3035.52114	0.98575
3033.46734	0.98568
3031.41354	0.98582
3029.35973	0.98615
3027.30593	0.98632
3025.25213	0.98625
3023.19832	0.98623
3021.14452	0.98621
3019.09072	0.98596
3017.03691	0.98580
3014.98311	0.98578
3012.92931	0.98595
3010.87550	0.98667
3008.82170	0.98734
3006.76790	0.98733
3004.71409	0.98710
3002.66029	0.98712
3000.60649	0.98712
2998.55269	0.98699
2996.49888	0.98686
2994.44508	0.98687
2992.39128	0.98699
2990.33747	0.98683
2988.28367	0.98651
2986.22987	0.98664
2984.17606	0.98703
2982.12226	0.98689
2980.06846	0.98668
2978.01465	0.98677
2975.96085	0.98669
2973.90705	0.98651
2971.85324	0.98622
2969.79944	0.98593
2967.74564	0.98583
2965.69183	0.98595
2963.63803	0.98650
2961.58423	0.98698
2959.53042	0.98707
2957.47662	0.98725
2955.42282	0.98720
2953.36901	0.98683
2951.31521	0.98672
2949.26141	0.98688
2947.20761	0.98691
2945.15380	0.98681
2943.10000	0.98687
2941.04620	0.98683
2938.99239	0.98655
2936.93859	0.98628
2934.88479	0.98633
2932.83098	0.98670
2930.77718	0.98693
2928.72338	0.98667
2926.66957	0.98623
2924.61577	0.98596
2922.56197	0.98577
2920.50816	0.98551
2918.45436	0.98543
2916.40056	0.98571
2914.34675	0.98626
2912.29295	0.98682
2910.23915	0.98703
2908.18534	0.98684
2906.13154	0.98676
2904.07774	0.98718
2902.02393	0.98758
2899.97013	0.98758
2897.91633	0.98760
2895.86252	0.98774
2893.80872	0.98767
2891.75492	0.98746
2889.70112	0.98737
2887.64731	0.98727
2885.59351	0.98727
2883.53971	0.98773
2881.48590	0.98853
2879.43210	0.98894
2877.37830	0.98858
2875.32449	0.98795
2873.27069	0.98789
2871.21689	0.98858
2869.16308	0.98924
2867.10928	0.98933
2865.05548	0.98903
2863.00167	0.98850
2860.94787	0.98794
2858.89407	0.98767
2856.84026	0.98767
2854.78646	0.98782
2852.73266	0.98804
2850.67885	0.98799
2848.62505	0.98793
2846.57125	0.98826
2844.51744	0.98863
2842.46364	0.98891
2840.40984	0.98915
2838.35603	0.98901
2836.30223	0.98872
2834.24843	0.98867
2832.19463	0.98864
2830.14082	0.98863
2828.08702	0.98874
2826.03322	0.98885
2823.97941	0.98900
2821.92561	0.98909
2819.87181	0.98905
2817.81800	0.98930
2815.76420	0.98961
2813.71040	0.98952
2811.65659	0.98937
2809.60279	0.98926
2807.54899	0.98892
2805.49518	0.98858
2803.44138	0.98857
2801.38758	0.98877
2799.33377	0.98902
2797.27997	0.98909
2795.22617	0.98908
2793.17236	0.98917
2791.11856	0.98929
2789.06476	0.98951
2787.01095	0.98975
2784.95715	0.98968
2782.90335	0.98935
2780.84955	0.98917
2778.79574	0.98932
2776.74194	0.98955
2774.68814	0.98963
2772.63433	0.98960
2770.58053	0.98951
2768.52673	0.98937
2766.47292	0.98924
2764.41912	0.98939
2762.36532	0.98970
2760.31151	0.98975
2758.25771	0.98982
2756.20391	0.99010
2754.15010	0.99041
2752.09630	0.99058
2750.04250	0.99054
2747.98869	0.99036
2745.93489	0.99012
2743.88109	0.98981
2741.82728	0.98958
2739.77348	0.98957
2737.71968	0.98956
2735.66587	0.98958
2733.61207	0.98988
2731.55827	0.99020
2729.50446	0.99025
2727.45066	0.99002
2725.39686	0.98984
2723.34306	0.98994
2721.28925	0.99002
2719.23545	0.98988
2717.18165	0.98992
2715.12784	0.99015
2713.07404	0.99004
2711.02024	0.98987
2708.96643	0.99010
2706.91263	0.99045
2704.85883	0.99049
2702.80502	0.99024
2700.75122	0.99001
2698.69742	0.98993
2696.64361	0.99000
2694.58981	0.99008
2692.53601	0.99003
2690.48220	0.99006
2688.42840	0.99020
2686.37460	0.99021
2684.32079	0.99031
2682.26699	0.99054
2680.21319	0.99060
2678.15938	0.99053
2676.10558	0.99052
2674.05178	0.99045
2671.99797	0.99046
2669.94417	0.99071
2667.89037	0.99088
2665.83657	0.99066
2663.78276	0.99019
2661.72896	0.98988
2659.67516	0.99007
2657.62135	0.99040
2655.56755	0.99021
2653.51375	0.98981
2651.45994	0.98978
2649.40614	0.98980
2647.35234	0.98968
2645.29853	0.98959
2643.24473	0.98967
2641.19093	0.98992
2639.13712	0.98995
2637.08332	0.98978
2635.02952	0.98988
2632.97571	0.99006
2630.92191	0.99006
2628.86811	0.99010
2626.81430	0.99030
2624.76050	0.99060
2622.70670	0.99072
2620.65289	0.99061
2618.59909	0.99033
2616.54529	0.99006
2614.49149	0.99006
2612.43768	0.99025
2610.38388	0.99051
2608.33008	0.99063
2606.27627	0.99052
2604.22247	0.99037
2602.16867	0.99022
2600.11486	0.99024
2598.06106	0.99051
2596.00726	0.99093
2593.95345	0.99132
2591.89965	0.99118
2589.84585	0.99054
2587.79204	0.99025
2585.73824	0.99037
2583.68444	0.99024
2581.63063	0.98980
2579.57683	0.98948
2577.52303	0.98989
2575.46922	0.99098
2573.41542	0.99181
2571.36162	0.99178
2569.30781	0.99125
2567.25401	0.99093
2565.20021	0.99089
2563.14640	0.99085
2561.09260	0.99078
2559.03880	0.99076
2556.98500	0.99093
2554.93119	0.99093
2552.87739	0.99111
2550.82359	0.99188
2548.76978	0.99220
2546.71598	0.99156
2544.66218	0.99064
2542.60837	0.99008
2540.55457	0.98988
2538.50077	0.98994
2536.44696	0.99048
2534.39316	0.99094
2532.33936	0.99123
2530.28555	0.99181
2528.23175	0.99203
2526.17795	0.99153
2524.12414	0.99113
2522.07034	0.99126
2520.01654	0.99146
2517.96273	0.99111
2515.90893	0.99043
2513.85513	0.99020
2511.80132	0.99036
2509.74752	0.99036
2507.69372	0.99011
2505.63992	0.99000
2503.58611	0.99033
2501.53231	0.99139
2499.47851	0.99250
2497.42470	0.99258
2495.37090	0.99228
2493.31710	0.99210
2491.26329	0.99185
2489.20949	0.99185
2487.15569	0.99224
2485.10188	0.99253
2483.04808	0.99224
2480.99428	0.99168
2478.94047	0.99165
2476.88667	0.99236
2474.83287	0.99282
2472.77906	0.99255
2470.72526	0.99244
2468.67146	0.99261
2466.61765	0.99228
2464.56385	0.99158
2462.51005	0.99098
2460.45624	0.99074
2458.40244	0.99098
2456.34864	0.99123
2454.29483	0.99104
2452.24103	0.99082
2450.18723	0.99074
2448.13343	0.99051
2446.07962	0.99045
2444.02582	0.99087
2441.97202	0.99110
2439.91821	0.99077
2437.86441	0.99080
2435.81061	0.99169
2433.75680	0.99249
2431.70300	0.99249
2429.64920	0.99178
2427.59539	0.99101
2425.54159	0.99137
2423.48779	0.99243
2421.43398	0.99257
2419.38018	0.99244
2417.32638	0.99259
2415.27257	0.99210
2413.21877	0.99140
2411.16497	0.99128
2409.11116	0.99131
2407.05736	0.99109
2405.00356	0.99081
2402.94975	0.99069
2400.89595	0.99136
2398.84215	0.99255
2396.78834	0.99315
2394.73454	0.99313
2392.68074	0.99281
2390.62694	0.99216
2388.57313	0.99153
2386.51933	0.99124
2384.46553	0.99118
2382.41172	0.99117
2380.35792	0.99127
2378.30412	0.99160
2376.25031	0.99186
2374.19651	0.99202
2372.14271	0.99228
2370.08890	0.99237
2368.03510	0.99191
2365.98130	0.99135
2363.92749	0.99165
2361.87369	0.99271
2359.81989	0.99333
2357.76608	0.99307
2355.71228	0.99242
2353.65848	0.99166
2351.60467	0.99106
2349.55087	0.99066
2347.49707	0.99053
2345.44326	0.99091
2343.38946	0.99138
2341.33566	0.99145
2339.28186	0.99149
2337.22805	0.99125
2335.17425	0.99058
2333.12045	0.99088
2331.06664	0.99196
2329.01284	0.99190
2326.95904	0.99085
2324.90523	0.99009
2322.85143	0.99010
2320.79763	0.99035
2318.74382	0.99052
2316.69002	0.99083
2314.63622	0.99087
2312.58241	0.99059
2310.52861	0.99050
2308.47481	0.99078
2306.42100	0.99128
2304.36720	0.99165
2302.31340	0.99145
2300.25959	0.99074
2298.20579	0.99016
2296.15199	0.99012
2294.09818	0.99058
2292.04438	0.99107
2289.99058	0.99098
2287.93677	0.99037
2285.88297	0.99014
2283.82917	0.99054
2281.77537	0.99100
2279.72156	0.99132
2277.66776	0.99110
2275.61396	0.99057
2273.56015	0.99031
2271.50635	0.98997
2269.45255	0.98928
2267.39874	0.98842
2265.34494	0.98816
2263.29114	0.98920
2261.23733	0.99053
2259.18353	0.99064
2257.12973	0.99009
2255.07592	0.99064
2253.02212	0.99194
2250.96832	0.99177
2248.91451	0.98998
2246.86071	0.98900
2244.80691	0.99014
2242.75310	0.99112
2240.69930	0.99071
2238.64550	0.99113
2236.59169	0.99290
2234.53789	0.99345
2232.48409	0.99174
2230.43029	0.99017
2228.37648	0.99086
2226.32268	0.99267
2224.26888	0.99302
2222.21507	0.99169
2220.16127	0.99040
2218.10747	0.99049
2216.05366	0.99151
2213.99986	0.99144
2211.94606	0.99004
2209.89225	0.98925
2207.83845	0.98943
2205.78465	0.98828
2203.73084	0.98657
2201.67704	0.98701
2199.62324	0.98888
2197.56943	0.99017
2195.51563	0.98939
2193.46183	0.98781
2191.40802	0.98873
2189.35422	0.99197
2187.30042	0.99319
2185.24661	0.99083
2183.19281	0.98995
2181.13901	0.99356
2179.08520	0.99717
2177.03140	0.99646
2174.97760	0.99329
2172.92380	0.99289
2170.86999	0.99567
2168.81619	0.99509
2166.76239	0.99091
2164.70858	0.99075
2162.65478	0.99326
2160.60098	0.99179
2158.54717	0.98922
2156.49337	0.99107
2154.43957	0.99476
2152.38576	0.99541
2150.33196	0.99356
2148.27816	0.99186
2146.22435	0.99028
2144.17055	0.98950
2142.11675	0.99058
2140.06294	0.99208
2138.00914	0.99207
2135.95534	0.99187
2133.90153	0.99314
2131.84773	0.99417
2129.79393	0.99380
2127.74012	0.99301
2125.68632	0.99264
2123.63252	0.99275
2121.57871	0.99332
2119.52491	0.99399
2117.47111	0.99426
2115.41731	0.99353
2113.36350	0.99187
2111.30970	0.99072
2109.25590	0.99091
2107.20209	0.99138
2105.14829	0.99113
2103.09449	0.99087
2101.04068	0.99107
2098.98688	0.99150
2096.93308	0.99197
2094.87927	0.99174
2092.82547	0.99110
2090.77167	0.99095
2088.71786	0.99056
2086.66406	0.98949
2084.61026	0.98942
2082.55645	0.99051
2080.50265	0.99087
2078.44885	0.99095
2076.39504	0.99193
2074.34124	0.99249
2072.28744	0.99161
2070.23363	0.99037
2068.17983	0.98976
2066.12603	0.99031
2064.07223	0.99176
2062.01842	0.99207
2059.96462	0.99039
2057.91082	0.98916
2055.85701	0.99064
2053.80321	0.99222
2051.74941	0.99067
2049.69560	0.98875
2047.64180	0.99026
2045.58800	0.99267
2043.53419	0.99249
2041.48039	0.99065
2039.42659	0.98943
2037.37278	0.98954
2035.31898	0.98974
2033.26518	0.98975
2031.21137	0.99062
2029.15757	0.99183
2027.10377	0.99310
2025.04996	0.99504
2022.99616	0.99549
2020.94236	0.99392
2018.88855	0.99505
2016.83475	0.99716
2014.78095	0.99407
2012.72714	0.98868
2010.67334	0.98674
2008.61954	0.98851
2006.56574	0.99137
2004.51193	0.99357
2002.45813	0.99400
2000.40433	0.99306
1998.35052	0.99270
1996.29672	0.99410
1994.24292	0.99473
1992.18911	0.99216
1990.13531	0.98935
1988.08151	0.98898
1986.02770	0.99080
1983.97390	0.99221
1981.92010	0.99108
1979.86629	0.98991
1977.81249	0.99054
1975.75869	0.99181
1973.70488	0.99217
1971.65108	0.99166
1969.59728	0.99324
1967.54347	0.99637
1965.48967	0.99715
1963.43587	0.99587
1961.38206	0.99410
1959.32826	0.99330
1957.27446	0.99373
1955.22066	0.99279
1953.16685	0.99087
1951.11305	0.99042
1949.05925	0.99095
1947.00544	0.99198
1944.95164	0.99346
1942.89784	0.99402
1940.84403	0.99323
1938.79023	0.99254
1936.73643	0.99254
1934.68262	0.99223
1932.62882	0.99206
1930.57502	0.99256
1928.52121	0.99264
1926.46741	0.99249
1924.41361	0.99265
1922.35980	0.99307
1920.30600	0.99305
1918.25220	0.99248
1916.19839	0.99257
1914.14459	0.99297
1912.09079	0.99249
1910.03698	0.99196
1907.98318	0.99248
1905.92938	0.99331
1903.87557	0.99294
1901.82177	0.99163
1899.76797	0.99135
1897.71417	0.99196
1895.66036	0.99221
1893.60656	0.99210
1891.55276	0.99162
1889.49895	0.99112
1887.44515	0.99125
1885.39135	0.99176
1883.33754	0.99192
1881.28374	0.99147
1879.22994	0.99115
1877.17613	0.99152
1875.12233	0.99241
1873.06853	0.99341
1871.01472	0.99375
1868.96092	0.99251
1866.90712	0.99101
1864.85331	0.99118
1862.79951	0.99184
1860.74571	0.99198
1858.69190	0.99187
1856.63810	0.99175
1854.58430	0.99185
1852.53049	0.99196
1850.47669	0.99140
1848.42289	0.99083
1846.36908	0.99127
1844.31528	0.99204
1842.26148	0.99185
1840.20768	0.99124
1838.15387	0.99110
1836.10007	0.99121
1834.04627	0.99146
1831.99246	0.99205
1829.93866	0.99250
1827.88486	0.99241
1825.83105	0.99233
1823.77725	0.99228
1821.72345	0.99217
1819.66964	0.99222
1817.61584	0.99246
1815.56204	0.99285
1813.50823	0.99312
1811.45443	0.99283
1809.40063	0.99204
1807.34682	0.99173
1805.29302	0.99189
1803.23922	0.99193
1801.18541	0.99223
1799.13161	0.99241
1797.07781	0.99196
1795.02400	0.99158
1792.97020	0.99149
1790.91640	0.99128
1788.86260	0.99101
1786.80879	0.99115
1784.75499	0.99164
1782.70119	0.99194
1780.64738	0.99211
1778.59358	0.99240
1776.53978	0.99246
1774.48597	0.99234
1772.43217	0.99224
1770.37837	0.99196
1768.32456	0.99147
1766.27076	0.99099
1764.21696	0.99075
1762.16315	0.99091
1760.10935	0.99107
1758.05555	0.99099
1756.00174	0.99105
1753.94794	0.99101
1751.89414	0.99066
1749.84033	0.99024
1747.78653	0.99015
1745.73273	0.99056
1743.67892	0.99100
1741.62512	0.99090
1739.57132	0.99018
1737.51751	0.98927
1735.46371	0.98885
1733.40991	0.98933
1731.35611	0.98991
1729.30230	0.99014
1727.24850	0.99014
1725.19470	0.98996
1723.14089	0.98973
1721.08709	0.98969
1719.03329	0.99040
1716.97948	0.99144
1714.92568	0.99122
1712.87188	0.99066
1710.81807	0.99045
1708.76427	0.99042
1706.71047	0.99042
1704.65666	0.99018
1702.60286	0.98958
1700.54906	0.98899
1698.49525	0.98891
1696.44145	0.98880
1694.38765	0.98880
1692.33384	0.98881
1690.28004	0.98839
1688.22624	0.98750
1686.17243	0.98664
1684.11863	0.98607
1682.06483	0.98501
1680.01103	0.98361
1677.95722	0.98238
1675.90342	0.98127
1673.84962	0.98045
1671.79581	0.98004
1669.74201	0.97955
1667.68821	0.97867
1665.63440	0.97762
1663.58060	0.97671
1661.52680	0.97600
1659.47299	0.97516
1657.41919	0.97409
1655.36539	0.97324
1653.31158	0.97385
1651.25778	0.97452
1649.20398	0.97401
1647.15017	0.97407
1645.09637	0.97418
1643.04257	0.97365
1640.98876	0.97342
1638.93496	0.97364
1636.88116	0.97415
1634.82735	0.97460
1632.77355	0.97459
1630.71975	0.97474
1628.66594	0.97543
1626.61214	0.97634
1624.55834	0.97711
1622.50454	0.97793
1620.45073	0.97853
1618.39693	0.97884
1616.34313	0.97923
1614.28932	0.97970
1612.23552	0.97987
1610.18172	0.98002
1608.12791	0.98066
1606.07411	0.98118
1604.02031	0.98110
1601.96650	0.98095
1599.91270	0.98115
1597.85890	0.98127
1595.80509	0.98127
1593.75129	0.98160
1591.69749	0.98204
1589.64368	0.98241
1587.58988	0.98271
1585.53608	0.98288
1583.48227	0.98308
1581.42847	0.98315
1579.37467	0.98285
1577.32086	0.98254
1575.26706	0.98274
1573.21326	0.98297
1571.15945	0.98312
1569.10565	0.98337
1567.05185	0.98341
1564.99805	0.98335
1562.94424	0.98331
1560.89044	0.98323
1558.83664	0.98345
1556.78283	0.98324
1554.72903	0.98278
1552.67523	0.98258
1550.62142	0.98236
1548.56762	0.98215
1546.51382	0.98226
1544.46001	0.98304
1542.40621	0.98407
1540.35241	0.98422
1538.29860	0.98370
1536.24480	0.98354
1534.19100	0.98380
1532.13719	0.98370
1530.08339	0.98305
1528.02959	0.98277
1525.97578	0.98312
1523.92198	0.98344
1521.86818	0.98360
1519.81437	0.98347
1517.76057	0.98298
1515.70677	0.98245
1513.65297	0.98204
1511.59916	0.98184
1509.54536	0.98155
1507.49156	0.98117
1505.43775	0.98152
1503.38395	0.98171
1501.33015	0.98167
1499.27634	0.98182
1497.22254	0.98209
1495.16874	0.98221
1493.11493	0.98225
1491.06113	0.98242
1489.00733	0.98302
1486.95352	0.98356
1484.89972	0.98350
1482.84592	0.98324
1480.79211	0.98309
1478.73831	0.98319
1476.68451	0.98352
1474.63070	0.98402
1472.57690	0.98444
1470.52310	0.98417
1468.46929	0.98376
1466.41549	0.98374
1464.36169	0.98367
1462.30788	0.98332
1460.25408	0.98301
1458.20028	0.98322
1456.14648	0.98392
1454.09267	0.98363
1452.03887	0.98301
1449.98507	0.98292
1447.93126	0.98343
1445.87746	0.98388
1443.82366	0.98397
1441.76985	0.98394
1439.71605	0.98378
1437.66225	0.98375
1435.60844	0.98397
1433.55464	0.98397
1431.50084	0.98379
1429.44703	0.98364
1427.39323	0.98370
1425.33943	0.98393
1423.28562	0.98397
1421.23182	0.98377
1419.17802	0.98352
1417.12421	0.98335
1415.07041	0.98328
1413.01661	0.98314
1410.96280	0.98302
1408.90900	0.98322
1406.85520	0.98336
1404.80139	0.98319
1402.74759	0.98304
1400.69379	0.98315
1398.63999	0.98345
1396.58618	0.98340
1394.53238	0.98318
1392.47858	0.98345
1390.42477	0.98390
1388.37097	0.98413
1386.31717	0.98409
1384.26336	0.98405
1382.20956	0.98408
1380.15576	0.98391
1378.10195	0.98363
1376.04815	0.98378
1373.99435	0.98434
1371.94054	0.98457
1369.88674	0.98443
1367.83294	0.98433
1365.77913	0.98436
1363.72533	0.98438
1361.67153	0.98440
1359.61772	0.98471
1357.56392	0.98522
1355.51012	0.98559
1353.45631	0.98583
1351.40251	0.98593
1349.34871	0.98578
1347.29491	0.98571
1345.24110	0.98587
1343.18730	0.98618
1341.13350	0.98645
1339.07969	0.98650
1337.02589	0.98621
1334.97209	0.98581
1332.91828	0.98575
1330.86448	0.98597
1328.81068	0.98624
1326.75687	0.98648
1324.70307	0.98645
1322.64927	0.98617
1320.59546	0.98607
1318.54166	0.98634
1316.48786	0.98660
1314.43405	0.98639
1312.38025	0.98588
1310.32645	0.98556
1308.27264	0.98572
1306.21884	0.98601
1304.16504	0.98579
1302.11123	0.98505
1300.05743	0.98422
1298.00363	0.98334
1295.94982	0.98203
1293.89602	0.98037
1291.84222	0.97870
1289.78842	0.97689
1287.73461	0.97508
1285.68081	0.97364
1283.62701	0.97253
1281.57320	0.97202
1279.51940	0.97219
1277.46560	0.97277
1275.41179	0.97379
1273.35799	0.97532
1271.30419	0.97723
1269.25038	0.97935
1267.19658	0.98130
1265.14278	0.98254
1263.08897	0.98296
1261.03517	0.98315
1258.98137	0.98330
1256.92756	0.98338
1254.87376	0.98361
1252.81996	0.98381
1250.76615	0.98399
1248.71235	0.98430
1246.65855	0.98426
1244.60474	0.98388
1242.55094	0.98392
1240.49714	0.98450
1238.44334	0.98484
1236.38953	0.98463
1234.33573	0.98435
1232.28193	0.98418
1230.22812	0.98391
1228.17432	0.98379
1226.12052	0.98383
1224.06671	0.98371
1222.01291	0.98350
1219.95911	0.98316
1217.90530	0.98260
1215.85150	0.98205
1213.79770	0.98163
1211.74389	0.98109
1209.69009	0.98046
1207.63629	0.98015
1205.58248	0.98010
1203.52868	0.97988
1201.47488	0.97945
1199.42107	0.97896
1197.36727	0.97823
1195.31347	0.97736
1193.25966	0.97657
1191.20586	0.97569
1189.15206	0.97495
1187.09825	0.97453
1185.04445	0.97405
1182.99065	0.97338
1180.93685	0.97259
1178.88304	0.97170
1176.82924	0.97085
1174.77544	0.97009
1172.72163	0.96933
1170.66783	0.96870
1168.61403	0.96806
1166.56022	0.96695
1164.50642	0.96566
1162.45262	0.96478
1160.39881	0.96431
1158.34501	0.96392
1156.29121	0.96353
1154.23740	0.96330
1152.18360	0.96300
1150.12980	0.96226
1148.07599	0.96127
1146.02219	0.96041
1143.96839	0.95966
1141.91458	0.95904
1139.86078	0.95865
1137.80698	0.95827
1135.75317	0.95759
1133.69937	0.95662
1131.64557	0.95560
1129.59176	0.95456
1127.53796	0.95339
1125.48416	0.95222
1123.43036	0.95126
1121.37655	0.95058
1119.32275	0.94995
1117.26895	0.94899
1115.21514	0.94766
1113.16134	0.94655
1111.10754	0.94591
1109.05373	0.94509
1106.99993	0.94386
1104.94613	0.94304
1102.89232	0.94268
1100.83852	0.94232
1098.78472	0.94204
1096.73091	0.94132
1094.67711	0.94004
1092.62331	0.93909
1090.56950	0.93856
1088.51570	0.93783
1086.46190	0.93724
1084.40809	0.93703
1082.35429	0.93653
1080.30049	0.93613
1078.24668	0.93614
1076.19288	0.93557
1074.13908	0.93456
1072.08528	0.93382
1070.03147	0.93322
1067.97767	0.93262
1065.92387	0.93197
1063.87006	0.93105
1061.81626	0.93003
1059.76246	0.92919
1057.70865	0.92841
1055.65485	0.92740
1053.60105	0.92610
1051.54724	0.92455
1049.49344	0.92299
1047.43964	0.92178
1045.38583	0.92069
1043.33203	0.91921
1041.27823	0.91742
1039.22442	0.91559
1037.17062	0.91415
1035.11682	0.91310
1033.06301	0.91176
1031.00921	0.91035
1028.95541	0.90957
1026.90160	0.90923
1024.84780	0.90889
1022.79400	0.90839
1020.74019	0.90782
1018.68639	0.90738
1016.63259	0.90689
1014.57879	0.90604
1012.52498	0.90519
1010.47118	0.90498
1008.41738	0.90526
1006.36357	0.90523
1004.30977	0.90465
1002.25597	0.90391
1000.20216	0.90376
998.14836	0.90464
996.09456	0.90553
994.04075	0.90560
991.98695	0.90555
989.93315	0.90605
987.87934	0.90691
985.82554	0.90781
983.77174	0.90883
981.71793	0.90979
979.66413	0.91075
977.61033	0.91223
975.55652	0.91373
973.50272	0.91472
971.44892	0.91588
969.39511	0.91746
967.34131	0.91889
965.28751	0.91981
963.23371	0.92053
961.17990	0.92175
959.12610	0.92335
957.07230	0.92463
955.01849	0.92530
952.96469	0.92546
950.91089	0.92560
948.85708	0.92634
946.80328	0.92743
944.74948	0.92793
942.69567	0.92777
940.64187	0.92811
938.58807	0.92913
936.53426	0.92969
934.48046	0.92988
932.42666	0.93041
930.37285	0.93098
928.31905	0.93143
926.26525	0.93185
924.21144	0.93213
922.15764	0.93212
920.10384	0.93177
918.05003	0.93155
915.99623	0.93161
913.94243	0.93156
911.88862	0.93158
909.83482	0.93216
907.78102	0.93319
905.72722	0.93388
903.67341	0.93441
901.61961	0.93536
899.56581	0.93616
897.51200	0.93660
895.45820	0.93707
893.40440	0.93733
891.35059	0.93722
889.29679	0.93716
887.24299	0.93749
885.18918	0.93779
883.13538	0.93752
881.08158	0.93733
879.02777	0.93748
876.97397	0.93748
874.92017	0.93732
872.86636	0.93700
870.81256	0.93660
868.75876	0.93648
866.70495	0.93634
864.65115	0.93540
862.59735	0.93393
860.54354	0.93339
858.48974	0.93366
856.43594	0.93315
854.38213	0.93204
852.32833	0.93139
850.27453	0.93112
848.22073	0.93088
846.16692	0.93053
844.11312	0.92973
842.05932	0.92890
840.00551	0.92880
837.95171	0.92896
835.89791	0.92856
833.84410	0.92781
831.79030	0.92770
829.73650	0.92796
827.68269	0.92794
825.62889	0.92805
823.57509	0.92824
821.52128	0.92822
819.46748	0.92791
817.41368	0.92753
815.35987	0.92766
813.30607	0.92799
811.25227	0.92804
809.19846	0.92780
807.14466	0.92669
805.09086	0.92521
803.03705	0.92470
800.98325	0.92499
798.92945	0.92535
796.87565	0.92527
794.82184	0.92511
792.76804	0.92522
790.71424	0.92483
788.66043	0.92381
786.60663	0.92341
784.55283	0.92390
782.49902	0.92392
780.44522	0.92302
778.39142	0.92236
776.33761	0.92252
774.28381	0.92287
772.23001	0.92308
770.17620	0.92313
768.12240	0.92285
766.06860	0.92230
764.01479	0.92164
761.96099	0.92070
759.90719	0.91960
757.85338	0.91897
755.79958	0.91840
753.74578	0.91725
751.69197	0.91649
749.63817	0.91634
747.58437	0.91630
745.53056	0.91638
743.47676	0.91640
741.42296	0.91686
739.36916	0.91775
737.31535	0.91791
735.26155	0.91727
733.20775	0.91643
731.15394	0.91549
729.10014	0.91461
727.04634	0.91446
724.99253	0.91480
722.93873	0.91474
720.88493	0.91447
718.83112	0.91396
716.77732	0.91263
714.72352	0.91188
712.66971	0.91266
710.61591	0.91345
708.56211	0.91355
706.50830	0.91346
704.45450	0.91285
702.40070	0.91114
700.34689	0.90917
698.29309	0.90801
696.23929	0.90769
694.18548	0.90740
692.13168	0.90660
690.07788	0.90567
688.02408	0.90505
685.97027	0.90448
683.91647	0.90417
681.86267	0.90438
679.80886	0.90437
677.75506	0.90383
675.70126	0.90289
673.64745	0.90186
671.59365	0.90172
669.53985	0.90312
667.48604	0.90426
665.43224	0.90238
663.37844	0.89969
661.32463	0.89816
659.27083	0.89815
657.21703	0.89883
655.16322	0.89878
653.10942	0.89758
651.05562	0.89630
649.00181	0.89529
646.94801	0.89401
644.89421	0.89323
642.84040	0.89394
640.78660	0.89450
638.73280	0.89371
636.67899	0.89279
634.62519	0.89245
632.57139	0.89220
630.51759	0.89146
628.46378	0.89014
626.40998	0.88906
624.35618	0.88871
622.30237	0.88843
620.24857	0.88769
618.19477	0.88688
616.14096	0.88668
614.08716	0.88590
612.03336	0.88455
609.97955	0.88396
607.92575	0.88313
605.87195	0.88213
603.81814	0.88204
601.76434	0.88167
599.71054	0.87995
597.65673	0.87865
595.60293	0.87896
593.54913	0.87773
591.49532	0.87376
589.44152	0.87138
587.38772	0.87135
585.33391	0.87165
583.28011	0.87196
581.22631	0.87092
579.17250	0.86900
577.11870	0.86823
575.06490	0.86747
573.01110	0.86605
570.95729	0.86504
568.90349	0.86431
566.84969	0.86404
564.79588	0.86278
562.74208	0.85839
560.68828	0.85401
558.63447	0.85361
556.58067	0.85402
554.52687	0.85281
552.47306	0.85222
550.41926	0.85141
548.36546	0.85036
546.31165	0.84934
544.25785	0.84725
542.20405	0.84586
540.15024	0.84533
538.09644	0.84390
536.04264	0.84251
533.98883	0.84177
531.93503	0.84113
529.88123	0.84141
527.82742	0.84151
525.77362	0.83953
523.71982	0.83692
521.66602	0.83579
519.61221	0.83637
517.55841	0.83922
515.50461	0.84174
513.45080	0.84085
511.39700	0.84034
509.34320	0.84288
507.28939	0.84515
505.23559	0.84613
503.18179	0.84690
501.12798	0.84543
499.07418	0.84322
497.02038	0.84245
494.96657	0.84147
492.91277	0.84069
490.85897	0.84094
488.80516	0.84109
486.75136	0.84087
484.69756	0.84033
482.64375	0.83883
480.58995	0.83615
478.53615	0.83267
476.48234	0.82900
474.42854	0.82654
472.37474	0.82591
470.32093	0.82500
468.26713	0.82422
466.21333	0.82507
464.15953	0.82680
462.10572	0.82849
460.05192	0.82915
457.99812	0.82843
455.94431	0.82685
453.89051	0.82494
451.83671	0.82278
449.78290	0.82134
447.72910	0.82237
445.67530	0.82607
443.62149	0.82751
441.56769	0.82452
439.51389	0.82285
437.46008	0.82396
435.40628	0.82467
433.35248	0.82535
431.29867	0.82709
429.24487	0.82579
427.19107	0.82206
425.13726	0.82102
423.08346	0.82203
421.02966	0.82062
418.97585	0.81760
416.92205	0.82027
414.86825	0.82663
412.81445	0.83163
410.76064	0.83011
408.70684	0.82440
406.65304	0.82269
404.59923	0.82235
402.54543	0.81967
400.49163	0.82156
398.43782	0.83233
