3996.70104	1.00003
3994.64724	0.99998
3992.59344	1.00027
3990.53964	1.00059
3988.48583	1.00058
3986.43203	1.00079
3984.37823	1.00111
3982.32442	1.00101
3980.27062	1.00090
3978.21682	1.00091
3976.16301	1.00054
3974.10921	1.00001
3972.05541	1.00000
3970.00160	1.00040
3967.94780	1.00083
3965.89400	1.00086
3963.84019	1.00053
3961.78639	1.00038
3959.73259	1.00031
3957.67878	1.00029
3955.62498	1.00059
3953.57118	1.00092
3951.51737	1.00090
3949.46357	1.00069
3947.40977	1.00045
3945.35596	1.00008
3943.30216	0.99984
3941.24836	0.99999
3939.19455	1.00037
3937.14075	1.00043
3935.08695	1.00003
3933.03315	1.00001
3930.97934	1.00029
3928.92554	1.00007
3926.87174	0.99977
3924.81793	0.99961
3922.76413	0.99953
3920.71033	0.99971
3918.65652	1.00029
3916.60272	1.00102
3914.54892	1.00140
3912.49511	1.00139
3910.44131	1.00126
3908.38751	1.00111
3906.33370	1.00086
3904.27990	1.00080
3902.22610	1.00127
3900.17229	1.00142
3898.11849	1.00060
3896.06469	0.99970
3894.01088	0.99933
3891.95708	0.99932
3889.90328	0.99963
3887.84947	1.00007
3885.79567	1.00018
3883.74187	0.99992
3881.68807	0.99965
3879.63426	0.99938
3877.58046	0.99967
3875.52666	1.00025
3873.47285	1.00047
3871.41905	1.00086
3869.36525	1.00103
3867.31144	1.00006
3865.25764	0.99910
3863.20384	0.99908
3861.15003	0.99951
3859.09623	0.99976
3857.04243	0.99981
3854.98862	0.99979
3852.93482	0.99981
3850.88102	0.99999
3848.82721	1.00031
3846.77341	1.00014
3844.71961	0.99953
3842.66580	0.99979
3840.61200	1.00045
3838.55820	0.99973
3836.50439	0.99903
3834.45059	0.99983
3832.39679	1.00081
3830.34298	1.00108
3828.28918	1.00064
3826.23538	0.99985
3824.18158	0.99931
3822.12777	0.99938
3820.07397	1.00001
3818.02017	1.00047
3815.96636	1.00066
3813.91256	1.00039
3811.85876	0.99994
3809.80495	1.00016
3807.75115	1.00062
3805.69735	1.00023
3803.64354	0.99945
3801.58974	0.99908
3799.53594	0.99946
3797.48213	0.99991
3795.42833	0.99973
3793.37453	0.99941
3791.32072	0.99958
3789.26692	1.00008
3787.21312	1.00040
3785.15931	1.00015
3783.10551	0.99980
3781.05171	1.00013
3778.99790	1.00091
3776.94410	1.00115
3774.89030	1.00063
3772.83650	0.99993
3770.78269	0.99976
3768.72889	1.00031
3766.67509	1.00078
3764.62128	1.00080
3762.56748	1.00070
3760.51368	1.00068
3758.45987	1.00048
3756.40607	1.00029
3754.35227	1.00052
3752.29846	1.00081
3750.24466	1.00032
3748.19086	0.99962
3746.13705	0.99986
3744.08325	1.00028
3742.02945	1.00019
3739.97564	1.00048
3737.92184	1.00133
3735.86804	1.00199
3733.81423	1.00162
3731.76043	1.00076
3729.70663	1.00032
3727.65282	1.00040
3725.59902	1.00059
3723.54522	1.00044
3721.49141	1.00012
3719.43761	1.00025
3717.38381	1.00060
3715.33001	1.00069
3713.27620	1.00049
3711.22240	1.00029
3709.16860	1.00074
3707.11479	1.00101
3705.06099	1.00042
3703.00719	0.99974
3700.95338	1.00001
3698.89958	1.00042
3696.84578	1.00016
3694.79197	0.99996
3692.73817	1.00025
3690.68437	1.00045
3688.63056	1.00011
3686.57676	1.00002
3684.52296	1.00034
3682.46915	1.00030
3680.41535	0.99992
3678.36155	0.99970
3676.30774	0.99970
3674.25394	1.00038
3672.20014	1.00139
3670.14633	1.00197
3668.09253	1.00184
3666.03873	1.00123
3663.98492	1.00050
3661.93112	0.99999
3659.87732	1.00015
3657.82352	1.00058
3655.76971	1.00041
3653.71591	0.99980
3651.66211	0.99981
3649.60830	1.00086
3647.55450	1.00132
3645.50070	1.00084
3643.44689	1.00043
3641.39309	0.99991
3639.33929	0.99945
3637.28548	0.99935
3635.23168	0.99926
3633.17788	0.99903
3631.12407	0.99908
3629.07027	0.99957
3627.01647	0.99996
3624.96266	1.00007
3622.90886	1.00022
3620.85506	1.00041
3618.80125	1.00051
3616.74745	1.00023
3614.69365	0.99968
3612.63984	0.99942
3610.58604	0.99949
3608.53224	0.99951
3606.47844	0.99944
3604.42463	0.99949
3602.37083	0.99963
3600.31703	0.99943
3598.26322	0.99868
3596.20942	0.99817
3594.15562	0.99836
3592.10181	0.99853
3590.04801	0.99827
3587.99421	0.99798
3585.94040	0.99816
3583.88660	0.99844
3581.83280	0.99874
3579.77899	0.99954
3577.72519	1.00029
3575.67139	0.99991
3573.61758	0.99923
3571.56378	0.99940
3569.50998	0.99987
3567.45617	1.00006
3565.40237	1.00024
3563.34857	1.00051
3561.29476	1.00031
3559.24096	0.99955
3557.18716	0.99903
3555.13335	0.99901
3553.07955	0.99919
3551.02575	0.99899
3548.97195	0.99841
3546.91814	0.99872
3544.86434	0.99997
3542.81054	1.00029
3540.75673	0.99963
3538.70293	0.99935
3536.64913	0.99977
3534.59532	1.00002
3532.54152	0.99952
3530.48772	0.99900
3528.43391	0.99905
3526.38011	0.99929
3524.32631	0.99924
3522.27250	0.99899
3520.21870	0.99910
3518.16490	0.99929
3516.11109	0.99915
3514.05729	0.99887
3512.00349	0.99853
3509.94968	0.99855
3507.89588	0.99891
3505.84208	0.99910
3503.78827	0.99933
3501.73447	0.99956
3499.68067	0.99935
3497.62687	0.99884
3495.57306	0.99861
3493.51926	0.99884
3491.46546	0.99898
3489.41165	0.99885
3487.35785	0.99848
3485.30405	0.99839
3483.25024	0.99899
3481.19644	0.99933
3479.14264	0.99896
3477.08883	0.99877
3475.03503	0.99879
3472.98123	0.99850
3470.92742	0.99848
3468.87362	0.99872
3466.81982	0.99842
3464.76601	0.99840
3462.71221	0.99921
3460.65841	0.99976
3458.60460	0.99967
3456.55080	0.99949
3454.49700	0.99933
3452.44319	0.99914
3450.38939	0.99876
3448.33559	0.99817
3446.28178	0.99800
3444.22798	0.99860
3442.17418	0.99935
3440.12038	0.99927
3438.06657	0.99849
3436.01277	0.99832
3433.95897	0.99867
3431.90516	0.99894
3429.85136	0.99954
3427.79756	0.99993
3425.74375	0.99955
3423.68995	0.99919
3421.63615	0.99907
3419.58234	0.99887
3417.52854	0.99877
3415.47474	0.99879
3413.42093	0.99870
3411.36713	0.99868
3409.31333	0.99878
3407.25952	0.99910
3405.20572	0.99947
3403.15192	0.99924
3401.09811	0.99862
3399.04431	0.99820
3396.99051	0.99788
3394.93670	0.99798
3392.88290	0.99875
3390.82910	0.99911
3388.77529	0.99874
3386.72149	0.99866
3384.66769	0.99901
3382.61389	0.99928
3380.56008	0.99963
3378.50628	1.00015
3376.45248	1.00029
3374.39867	0.99987
3372.34487	0.99938
3370.29107	0.99913
3368.23726	0.99918
3366.18346	0.99948
3364.12966	0.99972
3362.07585	0.99958
3360.02205	0.99919
3357.96825	0.99911
3355.91444	0.99952
3353.86064	0.99982
3351.80684	0.99992
3349.75303	1.00004
3347.69923	0.99988
3345.64543	0.99938
3343.59162	0.99880
3341.53782	0.99850
3339.48402	0.99877
3337.43021	0.99929
3335.37641	0.99971
3333.32261	0.99990
3331.26881	0.99990
3329.21500	0.99978
3327.16120	0.99941
3325.10740	0.99903
3323.05359	0.99907
3320.99979	0.99918
3318.94599	0.99898
3316.89218	0.99874
3314.83838	0.99895
3312.78458	0.99937
3310.73077	0.99931
3308.67697	0.99884
3306.62317	0.99850
3304.56936	0.99875
3302.51556	0.99928
3300.46176	0.99941
3298.40795	0.99902
3296.35415	0.99842
3294.30035	0.99836
3292.24654	0.99894
3290.19274	0.99936
3288.13894	0.99967
3286.08513	1.00016
3284.03133	1.00025
3281.97753	0.99962
3279.92372	0.99897
3277.86992	0.99893
3275.81612	0.99933
3273.76232	0.99954
3271.70851	0.99948
3269.65471	0.99959
3267.60091	0.99972
3265.54710	0.99949
3263.49330	0.99937
3261.43950	0.99958
3259.38569	0.99962
3257.33189	0.99941
3255.27809	0.99942
3253.22428	0.99983
3251.17048	1.00006
3249.11668	0.99973
3247.06287	0.99917
3245.00907	0.99885
3242.95527	0.99883
3240.90146	0.99875
3238.84766	0.99867
3236.79386	0.99908
3234.74005	0.99962
3232.68625	0.99993
3230.63245	1.00012
3228.57864	0.99994
3226.52484	0.99940
3224.47104	0.99897
3222.41724	0.99873
3220.36343	0.99879
3218.30963	0.99915
3216.25583	0.99915
3214.20202	0.99890
3212.14822	0.99896
3210.09442	0.99891
3208.04061	0.99865
3205.98681	0.99877
3203.93301	0.99910
3201.87920	0.99906
3199.82540	0.99901
3197.77160	0.99937
3195.71779	0.99991
3193.66399	1.00036
3191.61019	1.00060
3189.55638	1.00033
3187.50258	0.99953
3185.44878	0.99871
3183.39497	0.99823
3181.34117	0.99805
3179.28737	0.99842
3177.23356	0.99949
3175.17976	1.00032
3173.12596	1.00012
3171.07215	0.99947
3169.01835	0.99899
3166.96455	0.99881
3164.91075	0.99896
3162.85694	0.99934
3160.80314	0.99970
3158.74934	0.99970
3156.69553	0.99937
3154.64173	0.99925
3152.58793	0.99960
3150.53412	0.99997
3148.48032	0.99976
3146.42652	0.99938
3144.37271	0.99941
3142.31891	0.99954
3140.26511	0.99959
3138.21130	0.99952
3136.15750	0.99967
3134.10370	1.00006
3132.04989	0.99992
3129.99609	0.99931
3127.94229	0.99901
3125.88848	0.99916
3123.83468	0.99939
3121.78088	0.99961
3119.72707	0.99955
3117.67327	0.99940
3115.61947	0.99970
3113.56566	0.99976
3111.51186	0.99950
3109.45806	0.99962
3107.40426	0.99985
3105.35045	1.00022
3103.29665	1.00069
3101.24285	1.00051
3099.18904	0.99985
3097.13524	0.99942
3095.08144	0.99938
3093.02763	0.99957
3090.97383	0.99994
3088.92003	1.00032
3086.86622	1.00032
3084.81242	1.00007
3082.75862	0.99986
3080.70481	0.99992
3078.65101	1.00005
3076.59721	0.99991
3074.54340	0.99978
3072.48960	0.99975
3070.43580	0.99985
3068.38199	1.00007
3066.32819	0.99997
3064.27439	0.99971
3062.22058	0.99972
3060.16678	0.99980
3058.11298	0.99987
3056.05918	0.99985
3054.00537	0.99984
3051.95157	1.00003
3049.89777	1.00000
3047.84396	0.99992
3045.79016	0.99997
3043.73636	0.99966
3041.68255	0.99930
3039.62875	0.99939
3037.57495	0.99976
3035.52114	1.00020
3033.46734	1.00054
3031.41354	1.00042
3029.35973	1.00003
3027.30593	0.99990
3025.25213	1.00007
3023.19832	1.00020
3021.14452	1.00022
3019.09072	1.00041
3017.03691	1.00080
3014.98311	1.00092
3012.92931	1.00057
3010.87550	1.00012
3008.82170	0.99990
3006.76790	0.99996
3004.71409	1.00003
3002.66029	0.99970
3000.60649	0.99930
2998.55269	0.99954
2996.49888	1.00011
2994.44508	1.00037
2992.39128	1.00044
2990.33747	1.00051
2988.28367	1.00036
2986.22987	1.00009
2984.17606	0.99992
2982.12226	0.99978
2980.06846	1.00000
2978.01465	1.00046
2975.96085	1.00056
2973.90705	1.00033
2971.85324	1.00022
2969.79944	1.00007
2967.74564	0.99964
2965.69183	0.99950
2963.63803	0.99977
2961.58423	0.99989
2959.53042	0.99996
2957.47662	1.00007
2955.42282	0.99989
2953.36901	0.99945
2951.31521	0.99920
2949.26141	0.99924
2947.20761	0.99949
2945.15380	1.00006
2943.10000	1.00062
2941.04620	1.00060
2938.99239	1.00039
2936.93859	1.00030
2934.88479	1.00032
2932.83098	1.00060
2930.77718	1.00089
2928.72338	1.00105
2926.66957	1.00135
2924.61577	1.00167
2922.56197	1.00135
2920.50816	1.00058
2918.45436	1.00014
2916.40056	1.00009
2914.34675	1.00044
2912.29295	1.00102
2910.23915	1.00114
2908.18534	1.00099
2906.13154	1.00104
2904.07774	1.00094
2902.02393	1.00080
2899.97013	1.00096
2897.91633	1.00114
2895.86252	1.00119
2893.80872	1.00107
2891.75492	1.00073
2889.70112	1.00044
2887.64731	1.00032
2885.59351	1.00009
2883.53971	0.99978
2881.48590	0.99975
2879.43210	1.00004
2877.37830	1.00028
2875.32449	1.00018
2873.27069	1.00006
2871.21689	1.00010
2869.16308	1.00011
2867.10928	1.00013
2865.05548	1.00017
2863.00167	1.00024
2860.94787	1.00054
2858.89407	1.00080
2856.84026	1.00075
2854.78646	1.00065
2852.73266	1.00051
2850.67885	1.00048
2848.62505	1.00047
2846.57125	1.00024
2844.51744	1.00015
2842.46364	1.00015
2840.40984	0.99968
2838.35603	0.99917
2836.30223	0.99944
2834.24843	1.00016
2832.19463	1.00049
2830.14082	1.00041
2828.08702	1.00034
2826.03322	1.00052
2823.97941	1.00070
2821.92561	1.00058
2819.87181	1.00036
2817.81800	1.00014
2815.76420	0.99997
2813.71040	1.00008
2811.65659	1.00014
2809.60279	0.99991
2807.54899	0.99975
2805.49518	0.99980
2803.44138	0.99997
2801.38758	1.00013
2799.33377	0.99999
2797.27997	0.99980
2795.22617	0.99994
2793.17236	1.00024
2791.11856	1.00041
2789.06476	1.00033
2787.01095	1.00000
2784.95715	0.99974
2782.90335	0.99990
2780.84955	1.00022
2778.79574	1.00032
2776.74194	1.00025
2774.68814	1.00019
2772.63433	1.00037
2770.58053	1.00060
2768.52673	1.00040
2766.47292	1.00008
2764.41912	1.00003
2762.36532	1.00000
2760.31151	0.99993
2758.25771	0.99993
2756.20391	1.00013
2754.15010	1.00041
2752.09630	1.00045
2750.04250	1.00024
2747.98869	1.00019
2745.93489	1.00039
2743.88109	1.00054
2741.82728	1.00054
2739.77348	1.00060
2737.71968	1.00069
2735.66587	1.00067
2733.61207	1.00078
2731.55827	1.00097
2729.50446	1.00098
2727.45066	1.00076
2725.39686	1.00046
2723.34306	1.00030
2721.28925	1.00030
2719.23545	1.00040
2717.18165	1.00063
2715.12784	1.00088
2713.07404	1.00083
2711.02024	1.00045
2708.96643	1.00019
2706.91263	1.00023
2704.85883	1.00053
2702.80502	1.00093
2700.75122	1.00103
2698.69742	1.00075
2696.64361	1.00028
2694.58981	1.00002
2692.53601	1.00033
2690.48220	1.00068
2688.42840	1.00069
2686.37460	1.00072
2684.32079	1.00074
2682.26699	1.00063
2680.21319	1.00076
2678.15938	1.00104
2676.10558	1.00106
2674.05178	1.00086
2671.99797	1.00057
2669.94417	1.00054
2667.89037	1.00080
2665.83657	1.00077
2663.78276	1.00040
2661.72896	1.00016
2659.67516	1.00008
2657.62135	0.99986
2655.56755	0.99950
2653.51375	0.99922
2651.45994	0.99913
2649.40614	0.99898
2647.35234	0.99862
2645.29853	0.99840
2643.24473	0.99846
2641.19093	0.99850
2639.13712	0.99871
2637.08332	0.99931
2635.02952	0.99984
2632.97571	0.99988
2630.92191	0.99958
2628.86811	0.99938
2626.81430	0.99925
2624.76050	0.99905
2622.70670	0.99911
2620.65289	0.99951
2618.59909	0.99972
2616.54529	0.99975
2614.49149	1.00011
2612.43768	1.00033
2610.38388	0.99990
2608.33008	0.99939
2606.27627	0.99944
2604.22247	0.99966
2602.16867	0.99985
2600.11486	1.00026
2598.06106	1.00024
2596.00726	0.99947
2593.95345	0.99882
2591.89965	0.99862
2589.84585	0.99871
2587.79204	0.99919
2585.73824	0.99961
2583.68444	0.99967
2581.63063	0.99990
2579.57683	1.00025
2577.52303	1.00007
2575.46922	0.99973
2573.41542	0.99990
2571.36162	1.00016
2569.30781	1.00004
2567.25401	0.99981
2565.20021	0.99969
2563.14640	0.99954
2561.09260	0.99956
2559.03880	1.00019
2556.98500	1.00134
2554.93119	1.00205
2552.87739	1.00160
2550.82359	1.00090
2548.76978	1.00095
2546.71598	1.00093
2544.66218	1.00017
2542.60837	0.99931
2540.55457	0.99886
2538.50077	0.99898
2536.44696	0.99940
2534.39316	0.99970
2532.33936	1.00003
2530.28555	1.00038
2528.23175	1.00035
2526.17795	1.00000
2524.12414	0.99992
2522.07034	1.00050
2520.01654	1.00089
2517.96273	1.00050
2515.90893	1.00014
2513.85513	1.00035
2511.80132	1.00072
2509.74752	1.00061
2507.69372	1.00036
2505.63992	1.00063
2503.58611	1.00083
2501.53231	1.00033
2499.47851	0.99964
2497.42470	0.99958
2495.37090	1.00012
2493.31710	1.00063
2491.26329	1.00068
2489.20949	1.00034
2487.15569	1.00000
2485.10188	1.00010
2483.04808	1.00023
2480.99428	1.00006
2478.94047	1.00013
2476.88667	1.00023
2474.83287	1.00020
2472.77906	1.00037
2470.72526	1.00060
2468.67146	1.00069
2466.61765	1.00069
2464.56385	1.00066
2462.51005	1.00048
2460.45624	1.00007
2458.40244	0.99992
2456.34864	1.00009
2454.29483	0.99986
2452.24103	0.99959
2450.18723	1.00027
2448.13343	1.00118
2446.07962	1.00092
2444.02582	1.00014
2441.97202	0.99989
2439.91821	0.99965
2437.86441	0.99922
2435.81061	0.99884
2433.75680	0.99853
2431.70300	0.99915
2429.64920	1.00058
2427.59539	1.00140
2425.54159	1.00146
2423.48779	1.00118
2421.43398	1.00064
2419.38018	1.00011
2417.32638	0.99977
2415.27257	0.99967
2413.21877	1.00005
2411.16497	1.00065
2409.11116	1.00111
2407.05736	1.00140
2405.00356	1.00116
2402.94975	1.00062
2400.89595	1.00015
2398.84215	0.99988
2396.78834	1.00000
2394.73454	1.00028
2392.68074	1.00043
2390.62694	1.00049
2388.57313	1.00070
2386.51933	1.00083
2384.46553	1.00076
2382.41172	1.00100
2380.35792	1.00128
2378.30412	1.00125
2376.25031	1.00143
2374.19651	1.00157
2372.14271	1.00125
2370.08890	1.00117
2368.03510	1.00111
2365.98130	1.00004
2363.92749	0.99904
2361.87369	0.99965
2359.81989	1.00097
2357.76608	1.00150
2355.71228	1.00088
2353.65848	0.99996
2351.60467	0.99976
2349.55087	1.00037
2347.49707	1.00112
2345.44326	1.00131
2343.38946	1.00139
2341.33566	1.00173
2339.28186	1.00133
2337.22805	1.00074
2335.17425	1.00087
2333.12045	1.00088
2331.06664	1.00021
2329.01284	0.99944
2326.95904	0.99893
2324.90523	0.99826
2322.85143	0.99728
2320.79763	0.99724
2318.74382	0.99818
2316.69002	0.99871
2314.63622	0.99885
2312.58241	0.99931
2310.52861	0.99988
2308.47481	0.99982
2306.42100	0.99924
2304.36720	0.99886
2302.31340	0.99911
2300.25959	0.99907
2298.20579	0.99840
2296.15199	0.99840
2294.09818	0.99876
2292.04438	0.99839
2289.99058	0.99756
2287.93677	0.99726
2285.88297	0.99819
2283.82917	0.99967
2281.77537	1.00018
2279.72156	0.99948
2277.66776	0.99873
2275.61396	0.99884
2273.56015	0.99974
2271.50635	1.00045
2269.45255	1.00063
2267.39874	1.00116
2265.34494	1.00176
2263.29114	1.00154
2261.23733	1.00111
2259.18353	1.00028
2257.12973	0.99876
2255.07592	0.99783
2253.02212	0.99768
2250.96832	0.99782
2248.91451	0.99869
2246.86071	1.00037
2244.80691	1.00088
2242.75310	0.99970
2240.69930	0.99907
2238.64550	0.99919
2236.59169	0.99879
2234.53789	0.99825
2232.48409	0.99826
2230.43029	0.99896
2228.37648	1.00064
2226.32268	1.00236
2224.26888	1.00302
2222.21507	1.00312
2220.16127	1.00320
2218.10747	1.00239
2216.05366	1.00067
2213.99986	1.00029
2211.94606	1.00116
2209.89225	1.00145
2207.83845	1.00146
2205.78465	1.00106
2203.73084	0.99988
2201.67704	0.99915
2199.62324	0.99936
2197.56943	0.99943
2195.51563	0.99884
2193.46183	0.99777
2191.40802	0.99763
2189.35422	0.99934
2187.30042	1.00002
2185.24661	0.99926
2183.19281	1.00040
2181.13901	1.00227
2179.08520	1.00141
2177.03140	0.99928
2174.97760	0.99903
2172.92380	0.99959
2170.86999	0.99877
2168.81619	0.99701
2166.76239	0.99542
2164.70858	0.99392
2162.65478	0.99290
2160.60098	0.99411
2158.54717	0.99902
2156.49337	1.00340
2154.43957	1.00322
2152.38576	1.00138
2150.33196	1.00037
2148.27816	1.00111
2146.22435	1.00259
2144.17055	1.00386
2142.11675	1.00425
2140.06294	1.00252
2138.00914	1.00106
2135.95534	1.00181
2133.90153	1.00332
2131.84773	1.00330
2129.79393	1.00228
2127.74012	1.00227
2125.68632	1.00196
2123.63252	1.00056
2121.57871	1.00061
2119.52491	1.00213
2117.47111	1.00264
2115.41731	1.00192
2113.36350	1.00124
2111.30970	1.00131
2109.25590	1.00131
2107.20209	1.00030
2105.14829	0.99989
2103.09449	1.00089
2101.04068	1.00155
2098.98688	1.00133
2096.93308	1.00141
2094.87927	1.00238
2092.82547	1.00327
2090.77167	1.00334
2088.71786	1.00237
2086.66406	1.00055
2084.61026	0.99992
2082.55645	1.00151
2080.50265	1.00351
2078.44885	1.00397
2076.39504	1.00241
2074.34124	0.99970
2072.28744	0.99800
2070.23363	0.99894
2068.17983	1.00121
2066.12603	1.00260
2064.07223	1.00213
2062.01842	1.00161
2059.96462	1.00265
2057.91082	1.00346
2055.85701	1.00321
2053.80321	1.00143
2051.74941	0.99850
2049.69560	0.99769
2047.64180	0.99968
2045.58800	1.00138
2043.53419	1.00074
2041.48039	0.99902
2039.42659	0.99863
2037.37278	0.99966
2035.31898	1.00108
2033.26518	1.00140
2031.21137	1.00001
2029.15757	0.99909
2027.10377	1.00070
2025.04996	1.00306
2022.99616	1.00285
2020.94236	1.00075
2018.88855	0.99873
2016.83475	0.99778
2014.78095	1.00013
2012.72714	1.00339
2010.67334	1.00317
2008.61954	1.00148
2006.56574	1.00087
2004.51193	1.00077
2002.45813	1.00144
2000.40433	1.00221
1998.35052	1.00247
1996.29672	1.00262
1994.24292	1.00182
1992.18911	0.99933
1990.13531	0.99721
1988.08151	0.99720
1986.02770	0.99715
1983.97390	0.99627
1981.92010	0.99690
1979.86629	0.99949
1977.81249	1.00124
1975.75869	1.00010
1973.70488	0.99856
1971.65108	0.99920
1969.59728	1.00089
1967.54347	1.00087
1965.48967	0.99955
1963.43587	1.00056
1961.38206	1.00338
1959.32826	1.00428
1957.27446	1.00332
1955.22066	1.00275
1953.16685	1.00227
1951.11305	1.00146
1949.05925	1.00154
1947.00544	1.00251
1944.95164	1.00225
1942.89784	1.00060
1940.84403	1.00031
1938.79023	1.00123
1936.73643	1.00142
1934.68262	1.00123
1932.62882	1.00108
1930.57502	1.00039
1928.52121	0.99999
1926.46741	1.00078
1924.41361	1.00126
1922.35980	1.00040
1920.30600	0.99946
1918.25220	0.99947
1916.19839	1.00036
1914.14459	1.00121
1912.09079	1.00136
1910.03698	1.00114
1907.98318	1.00125
1905.92938	1.00151
1903.87557	1.00117
1901.82177	1.00080
1899.76797	1.00157
1897.71417	1.00284
1895.66036	1.00310
1893.60656	1.00225
1891.55276	1.00108
1889.49895	1.00015
1887.44515	1.00009
1885.39135	1.00050
1883.33754	1.00072
1881.28374	1.00063
1879.22994	1.00018
1877.17613	0.99993
1875.12233	1.00006
1873.06853	1.00032
1871.01472	1.00098
1868.96092	1.00143
1866.90712	1.00114
1864.85331	1.00114
1862.79951	1.00126
1860.74571	1.00111
1858.69190	1.00110
1856.63810	1.00133
1854.58430	1.00161
1852.53049	1.00175
1850.47669	1.00162
1848.42289	1.00117
1846.36908	1.00061
1844.31528	1.00062
1842.26148	1.00117
1840.20768	1.00129
1838.15387	1.00101
1836.10007	1.00063
1834.04627	1.00033
1831.99246	1.00079
1829.93866	1.00191
1827.88486	1.00225
1825.83105	1.00171
1823.77725	1.00115
1821.72345	1.00091
1819.66964	1.00108
1817.61584	1.00153
1815.56204	1.00175
1813.50823	1.00160
1811.45443	1.00138
1809.40063	1.00117
1807.34682	1.00087
1805.29302	1.00064
1803.23922	1.00066
1801.18541	1.00092
1799.13161	1.00132
1797.07781	1.00145
1795.02400	1.00127
1792.97020	1.00137
1790.91640	1.00152
1788.86260	1.00101
1786.80879	1.00036
1784.75499	1.00002
1782.70119	1.00018
1780.64738	1.00080
1778.59358	1.00125
1776.53978	1.00123
1774.48597	1.00130
1772.43217	1.00155
1770.37837	1.00123
1768.32456	1.00060
1766.27076	1.00049
1764.21696	1.00061
1762.16315	1.00048
1760.10935	1.00051
1758.05555	1.00092
1756.00174	1.00108
1753.94794	1.00098
1751.89414	1.00108
1749.84033	1.00103
1747.78653	1.00073
1745.73273	1.00087
1743.67892	1.00118
1741.62512	1.00125
1739.57132	1.00117
1737.51751	1.00099
1735.46371	1.00089
1733.40991	1.00101
1731.35611	1.00100
1729.30230	1.00089
1727.24850	1.00092
1725.19470	1.00092
1723.14089	1.00061
1721.08709	1.00043
1719.03329	1.00071
1716.97948	1.00080
1714.92568	1.00053
1712.87188	1.00055
1710.81807	1.00078
1708.76427	1.00090
1706.71047	1.00084
1704.65666	1.00059
1702.60286	1.00031
1700.54906	1.00053
1698.49525	1.00116
1696.44145	1.00125
1694.38765	1.00077
1692.33384	1.00039
1690.28004	1.00037
1688.22624	1.00056
1686.17243	1.00087
1684.11863	1.00108
1682.06483	1.00043
1680.01103	0.99974
1677.95722	0.99968
1675.90342	1.00005
1673.84962	1.00051
1671.79581	1.00081
1669.74201	1.00055
1667.68821	1.00002
1665.63440	0.99986
1663.58060	0.99983
1661.52680	0.99970
1659.47299	0.99978
1657.41919	0.99995
1655.36539	0.99972
1653.31158	0.99940
1651.25778	0.99981
1649.20398	1.00013
1647.15017	1.00021
1645.09637	1.00011
1643.04257	0.99982
1640.98876	0.99953
1638.93496	0.99950
1636.88116	0.99976
1634.82735	1.00004
1632.77355	0.99993
1630.71975	0.99959
1628.66594	0.99939
1626.61214	0.99947
1624.55834	0.99987
1622.50454	1.00034
1620.45073	1.00023
1618.39693	0.99960
1616.34313	0.99904
1614.28932	0.99900
1612.23552	0.99910
1610.18172	0.99919
1608.12791	0.99939
1606.07411	0.99957
1604.02031	0.99951
1601.96650	0.99932
1599.91270	0.99919
1597.85890	0.99929
1595.80509	0.99932
1593.75129	0.99895
1591.69749	0.99858
1589.64368	0.99865
1587.58988	0.99918
1585.53608	0.99958
1583.48227	0.99958
1581.42847	0.99968
1579.37467	1.00012
1577.32086	1.00049
1575.26706	1.00032
1573.21326	0.99979
1571.15945	0.99956
1569.10565	0.99981
1567.05185	0.99992
1564.99805	0.99968
1562.94424	0.99946
1560.89044	0.99925
1558.83664	0.99917
1556.78283	0.99961
1554.72903	0.99968
1552.67523	0.99942
1550.62142	0.99932
1548.56762	0.99947
1546.51382	0.99971
1544.46001	0.99975
1542.40621	0.99947
1540.35241	0.99937
1538.29860	0.99955
1536.24480	0.99952
1534.19100	0.99919
1532.13719	0.99899
1530.08339	0.99925
1528.02959	0.99972
1525.97578	1.00023
1523.92198	1.00081
1521.86818	1.00095
1519.81437	1.00045
1517.76057	1.00023
1515.70677	1.00007
1513.65297	0.99949
1511.59916	0.99916
1509.54536	0.99954
1507.49156	1.00013
1505.43775	1.00006
1503.38395	0.99961
1501.33015	0.99912
1499.27634	0.99886
1497.22254	0.99898
1495.16874	0.99910
1493.11493	0.99919
1491.06113	0.99959
1489.00733	0.99983
1486.95352	0.99953
1484.89972	0.99946
1482.84592	0.99963
1480.79211	0.99975
1478.73831	0.99978
1476.68451	0.99989
1474.63070	1.00027
1472.57690	1.00047
1470.52310	1.00015
1468.46929	1.00002
1466.41549	1.00028
1464.36169	1.00054
1462.30788	1.00054
1460.25408	1.00051
1458.20028	1.00070
1456.14648	1.00096
1454.09267	1.00043
1452.03887	0.99957
1449.98507	0.99906
1447.93126	0.99908
1445.87746	0.99931
1443.82366	0.99950
1441.76985	0.99969
1439.71605	0.99982
1437.66225	0.99982
1435.60844	0.99978
1433.55464	0.99993
1431.50084	1.00015
1429.44703	1.00013
1427.39323	0.99987
1425.33943	0.99962
1423.28562	0.99940
1421.23182	0.99926
1419.17802	0.99952
1417.12421	0.99998
1415.07041	0.99991
1413.01661	0.99957
1410.96280	0.99938
1408.90900	0.99956
1406.85520	1.00000
1404.80139	1.00017
1402.74759	0.99989
1400.69379	0.99962
1398.63999	0.99961
1396.58618	0.99970
1394.53238	0.99970
1392.47858	0.99965
1390.42477	0.99957
1388.37097	0.99946
1386.31717	0.99936
1384.26336	0.99941
1382.20956	0.99950
1380.15576	0.99951
1378.10195	0.99963
1376.04815	0.99991
1373.99435	0.99997
1371.94054	0.99973
1369.88674	0.99964
1367.83294	0.99971
1365.77913	0.99974
1363.72533	0.99982
1361.67153	0.99993
1359.61772	1.00000
1357.56392	0.99988
1355.51012	0.99946
1353.45631	0.99920
1351.40251	0.99942
1349.34871	0.99980
1347.29491	1.00010
1345.24110	1.00029
1343.18730	1.00029
1341.13350	1.00006
1339.07969	0.99996
1337.02589	1.00017
1334.97209	1.00031
1332.91828	1.00028
1330.86448	1.00021
1328.81068	1.00020
1326.75687	1.00023
1324.70307	1.00002
1322.64927	0.99967
1320.59546	0.99956
1318.54166	0.99961
1316.48786	0.99973
1314.43405	0.99984
1312.38025	0.99986
1310.32645	0.99988
1308.27264	0.99988
1306.21884	0.99972
1304.16504	0.99977
1302.11123	1.00018
1300.05743	1.00054
1298.00363	1.00067
1295.94982	1.00046
1293.89602	1.00003
1291.84222	0.99986
1289.78842	0.99976
1287.73461	0.99957
1285.68081	0.99960
1283.62701	0.99980
1281.57320	0.99980
1279.51940	0.99955
1277.46560	0.99949
1275.41179	0.99966
1273.35799	0.99971
1271.30419	0.99967
1269.25038	0.99958
1267.19658	0.99937
1265.14278	0.99905
1263.08897	0.99889
1261.03517	0.99898
1258.98137	0.99906
1256.92756	0.99911
1254.87376	0.99926
1252.81996	0.99937
1250.76615	0.99930
1248.71235	0.99926
1246.65855	0.99923
1244.60474	0.99912
1242.55094	0.99908
1240.49714	0.99922
1238.44334	0.99943
1236.38953	0.99942
1234.33573	0.99901
1232.28193	0.99861
1230.22812	0.99859
1228.17432	0.99855
1226.12052	0.99831
1224.06671	0.99811
1222.01291	0.99803
1219.95911	0.99812
1217.90530	0.99839
1215.85150	0.99864
1213.79770	0.99846
1211.74389	0.99784
1209.69009	0.99728
1207.63629	0.99701
1205.58248	0.99687
1203.52868	0.99675
1201.47488	0.99653
1199.42107	0.99627
1197.36727	0.99613
1195.31347	0.99595
1193.25966	0.99556
1191.20586	0.99494
1189.15206	0.99439
1187.09825	0.99409
1185.04445	0.99368
1182.99065	0.99292
1180.93685	0.99218
1178.88304	0.99170
1176.82924	0.99104
1174.77544	0.99010
1172.72163	0.98940
1170.66783	0.98880
1168.61403	0.98795
1166.56022	0.98707
1164.50642	0.98641
1162.45262	0.98607
1160.39881	0.98575
1158.34501	0.98539
1156.29121	0.98517
1154.23740	0.98508
1152.18360	0.98506
1150.12980	0.98519
1148.07599	0.98552
1146.02219	0.98577
1143.96839	0.98591
1141.91458	0.98624
1139.86078	0.98666
1137.80698	0.98666
1135.75317	0.98636
1133.69937	0.98619
1131.64557	0.98620
1129.59176	0.98631
1127.53796	0.98649
1125.48416	0.98662
1123.43036	0.98656
1121.37655	0.98646
1119.32275	0.98645
1117.26895	0.98653
1115.21514	0.98667
1113.16134	0.98656
1111.10754	0.98634
1109.05373	0.98621
1106.99993	0.98615
1104.94613	0.98614
1102.89232	0.98598
1100.83852	0.98558
1098.78472	0.98510
1096.73091	0.98476
1094.67711	0.98450
1092.62331	0.98402
1090.56950	0.98342
1088.51570	0.98317
1086.46190	0.98315
1084.40809	0.98289
1082.35429	0.98244
1080.30049	0.98224
1078.24668	0.98236
1076.19288	0.98217
1074.13908	0.98127
1072.08528	0.97994
1070.03147	0.97865
1067.97767	0.97762
1065.92387	0.97684
1063.87006	0.97631
1061.81626	0.97560
1059.76246	0.97461
1057.70865	0.97397
1055.65485	0.97350
1053.60105	0.97269
1051.54724	0.97196
1049.49344	0.97146
1047.43964	0.97069
1045.38583	0.96987
1043.33203	0.96944
1041.27823	0.96909
1039.22442	0.96886
1037.17062	0.96870
1035.11682	0.96822
1033.06301	0.96763
1031.00921	0.96751
1028.95541	0.96789
1026.90160	0.96803
1024.84780	0.96732
1022.79400	0.96642
1020.74019	0.96598
1018.68639	0.96572
1016.63259	0.96565
1014.57879	0.96586
1012.52498	0.96581
1010.47118	0.96525
1008.41738	0.96486
1006.36357	0.96543
1004.30977	0.96628
1002.25597	0.96643
1000.20216	0.96590
998.14836	0.96527
996.09456	0.96501
994.04075	0.96532
991.98695	0.96580
989.93315	0.96576
987.87934	0.96524
985.82554	0.96494
983.77174	0.96504
981.71793	0.96508
979.66413	0.96519
977.61033	0.96549
975.55652	0.96530
973.50272	0.96469
971.44892	0.96436
969.39511	0.96447
967.34131	0.96465
965.28751	0.96452
963.23371	0.96421
961.17990	0.96404
959.12610	0.96388
957.07230	0.96391
955.01849	0.96439
952.96469	0.96479
950.91089	0.96481
948.85708	0.96482
946.80328	0.96495
944.74948	0.96510
942.69567	0.96505
940.64187	0.96484
938.58807	0.96501
936.53426	0.96538
934.48046	0.96556
932.42666	0.96592
930.37285	0.96591
928.31905	0.96497
926.26525	0.96426
924.21144	0.96437
922.15764	0.96469
920.10384	0.96492
918.05003	0.96518
915.99623	0.96546
913.94243	0.96544
911.88862	0.96523
909.83482	0.96556
907.78102	0.96639
905.72722	0.96717
903.67341	0.96769
901.61961	0.96766
899.56581	0.96713
897.51200	0.96670
895.45820	0.96681
893.40440	0.96771
891.35059	0.96888
889.29679	0.96918
887.24299	0.96893
885.18918	0.96936
883.13538	0.97033
881.08158	0.97104
879.02777	0.97138
876.97397	0.97164
874.92017	0.97222
872.86636	0.97312
870.81256	0.97376
868.75876	0.97416
866.70495	0.97473
864.65115	0.97525
862.59735	0.97542
860.54354	0.97613
858.48974	0.97773
856.43594	0.97884
854.38213	0.97953
852.32833	0.98074
850.27453	0.98201
848.22073	0.98293
846.16692	0.98395
844.11312	0.98532
842.05932	0.98648
840.00551	0.98697
837.95171	0.98697
835.89791	0.98705
833.84410	0.98797
831.79030	0.98909
829.73650	0.98871
827.68269	0.98718
825.62889	0.98636
823.57509	0.98673
821.52128	0.98737
819.46748	0.98729
817.41368	0.98608
815.35987	0.98474
813.30607	0.98419
811.25227	0.98343
809.19846	0.98208
807.14466	0.98042
805.09086	0.97826
803.03705	0.97627
800.98325	0.97473
798.92945	0.97284
796.87565	0.97075
794.82184	0.96974
792.76804	0.96991
790.71424	0.96972
788.66043	0.96850
786.60663	0.96691
784.55283	0.96574
782.49902	0.96553
780.44522	0.96558
778.39142	0.96518
776.33761	0.96438
774.28381	0.96371
772.23001	0.96381
770.17620	0.96402
768.12240	0.96385
766.06860	0.96387
764.01479	0.96411
761.96099	0.96420
759.90719	0.96384
757.85338	0.96324
755.79958	0.96298
753.74578	0.96319
751.69197	0.96359
749.63817	0.96356
747.58437	0.96348
745.53056	0.96407
743.47676	0.96445
741.42296	0.96441
739.36916	0.96432
737.31535	0.96420
735.26155	0.96473
733.20775	0.96587
731.15394	0.96737
729.10014	0.96900
727.04634	0.96999
724.99253	0.97064
722.93873	0.97140
720.88493	0.97164
718.83112	0.97127
716.77732	0.97133
714.72352	0.97237
712.66971	0.97337
710.61591	0.97344
708.56211	0.97338
706.50830	0.97350
704.45450	0.97324
702.40070	0.97254
700.34689	0.97149
698.29309	0.97076
696.23929	0.97105
694.18548	0.97090
692.13168	0.96940
690.07788	0.96806
688.02408	0.96763
685.97027	0.96780
683.91647	0.96859
681.86267	0.96997
679.80886	0.97116
677.75506	0.97171
675.70126	0.97202
673.64745	0.97234
671.59365	0.97269
669.53985	0.97361
667.48604	0.97569
665.43224	0.97730
663.37844	0.97863
661.32463	0.97929
659.27083	0.97882
657.21703	0.97896
655.16322	0.97940
653.10942	0.97995
651.05562	0.98135
649.00181	0.98238
646.94801	0.98275
644.89421	0.98389
642.84040	0.98562
640.78660	0.98639
638.73280	0.98631
636.67899	0.98663
634.62519	0.98747
632.57139	0.98813
630.51759	0.98797
628.46378	0.98693
626.40998	0.98690
624.35618	0.98944
622.30237	0.99247
620.24857	0.99285
618.19477	0.99108
616.14096	0.98991
614.08716	0.98990
612.03336	0.99042
609.97955	0.99140
607.92575	0.99251
605.87195	0.99306
603.81814	0.99344
601.76434	0.99457
599.71054	0.99549
597.65673	0.99504
595.60293	0.99439
593.54913	0.99392
591.49532	0.99294
589.44152	0.99185
587.38772	0.99205
585.33391	0.99420
583.28011	0.99547
581.22631	0.99471
579.17250	0.99427
577.11870	0.99350
575.06490	0.99157
573.01110	0.98999
570.95729	0.98900
568.90349	0.98920
566.84969	0.99015
564.79588	0.99002
562.74208	0.98902
560.68828	0.98673
558.63447	0.98391
556.58067	0.98342
554.52687	0.98515
552.47306	0.98647
550.41926	0.98622
548.36546	0.98499
546.31165	0.98342
544.25785	0.98199
542.20405	0.98057
540.15024	0.97923
538.09644	0.97882
536.04264	0.97945
533.98883	0.97928
531.93503	0.97848
529.88123	0.97906
527.82742	0.97987
525.77362	0.97929
523.71982	0.97843
521.66602	0.97925
519.61221	0.98101
517.55841	0.98056
515.50461	0.97852
513.45080	0.97747
511.39700	0.97629
509.34320	0.97489
507.28939	0.97502
505.23559	0.97556
503.18179	0.97468
501.12798	0.97315
499.07418	0.97196
497.02038	0.97010
494.96657	0.96777
492.91277	0.96699
490.85897	0.96673
488.80516	0.96463
486.75136	0.96257
484.69756	0.96316
482.64375	0.96623
480.58995	0.96853
478.53615	0.96762
476.48234	0.96562
474.42854	0.96527
472.37474	0.96595
470.32093	0.96537
468.26713	0.96333
466.21333	0.96051
464.15953	0.95723
462.10572	0.95594
460.05192	0.95848
457.99812	0.96199
455.94431	0.96231
453.89051	0.96004
451.83671	0.95835
449.78290	0.95840
447.72910	0.95995
445.67530	0.96163
443.62149	0.96055
441.56769	0.95876
439.51389	0.95641
437.46008	0.95279
435.40628	0.95366
433.35248	0.95694
431.29867	0.95560
429.24487	0.95161
427.19107	0.94968
425.13726	0.95064
423.08346	0.94939
421.02966	0.94460
418.97585	0.94321
416.92205	0.94421
414.86825	0.94663
412.81445	0.95107
410.76064	0.95077
408.70684	0.94643
406.65304	0.94694
404.59923	0.95471
402.54543	0.96401
400.49163	0.96962
398.43782	0.96783
