3996.71440	0.97890
3994.66059	0.97904
3992.60678	0.97916
3990.55297	0.97926
3988.49916	0.97931
3986.44535	0.97911
3984.39154	0.97893
3982.33773	0.97900
3980.28391	0.97911
3978.23010	0.97918
3976.17629	0.97917
3974.12248	0.97913
3972.06867	0.97898
3970.01486	0.97879
3967.96105	0.97881
3965.90724	0.97909
3963.85343	0.97958
3961.79962	0.97996
3959.74581	0.98001
3957.69200	0.97989
3955.63819	0.97967
3953.58438	0.97952
3951.53057	0.97952
3949.47676	0.97941
3947.42295	0.97922
3945.36914	0.97925
3943.31533	0.97926
3941.26152	0.97927
3939.20771	0.97930
3937.15390	0.97907
3935.10009	0.97894
3933.04628	0.97901
3930.99247	0.97891
3928.93866	0.97884
3926.88485	0.97916
3924.83104	0.97957
3922.77723	0.97967
3920.72342	0.97958
3918.66961	0.97959
3916.61580	0.97973
3914.56199	0.97972
3912.50818	0.97955
3910.45437	0.97932
3908.40056	0.97906
3906.34675	0.97888
3904.29294	0.97901
3902.23913	0.97932
3900.18532	0.97947
3898.13151	0.97954
3896.07770	0.97955
3894.02389	0.97944
3891.97008	0.97914
3889.91627	0.97891
3887.86246	0.97913
3885.80865	0.97956
3883.75484	0.97985
3881.70103	0.97981
3879.64722	0.97954
3877.59341	0.97952
3875.53960	0.97975
3873.48579	0.98001
3871.43198	0.97989
3869.37817	0.97946
3867.32436	0.97960
3865.27055	0.97972
3863.21674	0.97930
3861.16293	0.97928
3859.10912	0.97973
3857.05531	0.98007
3855.00150	0.97986
3852.94769	0.97905
3850.89388	0.97900
3848.84007	0.97949
3846.78626	0.97965
3844.73245	0.97933
3842.67864	0.97880
3840.62483	0.97869
3838.57102	0.97917
3836.51721	0.97968
3834.46340	0.97967
3832.40959	0.97932
3830.35578	0.97921
3828.30197	0.97944
3826.24816	0.97968
3824.19435	0.97995
3822.14054	0.98020
3820.08673	0.97997
3818.03292	0.97945
3815.97911	0.97888
3813.92530	0.97878
3811.87149	0.97922
3809.81768	0.97971
3807.76387	0.98011
3805.71006	0.98019
3803.65625	0.98010
3801.60244	0.98010
3799.54863	0.98005
3797.49482	0.97978
3795.44101	0.97941
3793.38720	0.97932
3791.33339	0.97952
3789.27958	0.97981
3787.22577	0.98008
3785.17196	0.98045
3783.11815	0.98071
3781.06434	0.98056
3779.01053	0.98010
3776.95672	0.97986
3774.90291	0.98011
3772.84910	0.98064
3770.79529	0.98106
3768.74148	0.98082
3766.68767	0.98031
3764.63386	0.98015
3762.58005	0.98014
3760.52624	0.98014
3758.47243	0.98022
3756.41862	0.98040
3754.36481	0.98048
3752.31100	0.98044
3750.25719	0.98059
3748.20338	0.98050
3746.14957	0.97974
3744.09576	0.97906
3742.04195	0.97943
3739.98814	0.98010
3737.93433	0.98038
3735.88052	0.98008
3733.82671	0.97980
3731.77290	0.98002
3729.71909	0.98029
3727.66528	0.98029
3725.61147	0.98013
3723.55766	0.98031
3721.50385	0.98069
3719.45004	0.98073
3717.39623	0.98022
3715.34242	0.97944
3713.28861	0.97895
3711.23480	0.97865
3709.18099	0.97830
3707.12718	0.97823
3705.07337	0.97848
3703.01956	0.97861
3700.96575	0.97833
3698.91194	0.97806
3696.85813	0.97799
3694.80432	0.97801
3692.75051	0.97819
3690.69670	0.97833
3688.64289	0.97816
3686.58907	0.97799
3684.53526	0.97786
3682.48145	0.97795
3680.42764	0.97832
3678.37383	0.97852
3676.32002	0.97819
3674.26621	0.97761
3672.21240	0.97757
3670.15859	0.97790
3668.10478	0.97805
3666.05097	0.97771
3663.99716	0.97717
3661.94335	0.97709
3659.88954	0.97756
3657.83573	0.97785
3655.78192	0.97767
3653.72811	0.97746
3651.67430	0.97730
3649.62049	0.97691
3647.56668	0.97646
3645.51287	0.97636
3643.45906	0.97638
3641.40525	0.97620
3639.35144	0.97585
3637.29763	0.97566
3635.24382	0.97557
3633.19001	0.97519
3631.13620	0.97465
3629.08239	0.97413
3627.02858	0.97389
3624.97477	0.97383
3622.92096	0.97356
3620.86715	0.97313
3618.81334	0.97266
3616.75953	0.97254
3614.70572	0.97289
3612.65191	0.97313
3610.59810	0.97300
3608.54429	0.97261
3606.49048	0.97201
3604.43667	0.97144
3602.38286	0.97097
3600.32905	0.97062
3598.27524	0.97039
3596.22143	0.97009
3594.16762	0.96994
3592.11381	0.97018
3590.06000	0.97007
3588.00619	0.96921
3585.95238	0.96862
3583.89857	0.96847
3581.84476	0.96798
3579.79095	0.96751
3577.73714	0.96748
3575.68333	0.96753
3573.62952	0.96735
3571.57571	0.96691
3569.52190	0.96624
3567.46809	0.96525
3565.41428	0.96437
3563.36047	0.96415
3561.30666	0.96414
3559.25285	0.96373
3557.19904	0.96305
3555.14523	0.96280
3553.09142	0.96305
3551.03761	0.96301
3548.98380	0.96232
3546.92999	0.96134
3544.87618	0.96050
3542.82237	0.96013
3540.76856	0.96005
3538.71475	0.95987
3536.66094	0.95940
3534.60713	0.95887
3532.55332	0.95877
3530.49951	0.95862
3528.44570	0.95807
3526.39189	0.95753
3524.33808	0.95695
3522.28427	0.95645
3520.23046	0.95625
3518.17665	0.95585
3516.12284	0.95529
3514.06903	0.95502
3512.01522	0.95485
3509.96141	0.95451
3507.90760	0.95395
3505.85379	0.95327
3503.79998	0.95250
3501.74617	0.95176
3499.69236	0.95128
3497.63855	0.95091
3495.58474	0.95050
3493.53093	0.95000
3491.47712	0.94942
3489.42331	0.94894
3487.36950	0.94840
3485.31569	0.94768
3483.26188	0.94717
3481.20807	0.94697
3479.15426	0.94669
3477.10045	0.94603
3475.04664	0.94528
3472.99283	0.94485
3470.93902	0.94456
3468.88521	0.94427
3466.83140	0.94392
3464.77759	0.94327
3462.72378	0.94236
3460.66997	0.94148
3458.61616	0.94086
3456.56235	0.94069
3454.50854	0.94061
3452.45473	0.94026
3450.40092	0.93999
3448.34711	0.93962
3446.29330	0.93898
3444.23949	0.93860
3442.18568	0.93860
3440.13187	0.93859
3438.07806	0.93834
3436.02425	0.93799
3433.97044	0.93756
3431.91663	0.93691
3429.86282	0.93648
3427.80901	0.93639
3425.75520	0.93602
3423.70139	0.93539
3421.64758	0.93508
3419.59377	0.93500
3417.53996	0.93476
3415.48615	0.93425
3413.43234	0.93355
3411.37853	0.93302
3409.32472	0.93273
3407.27091	0.93235
3405.21710	0.93194
3403.16329	0.93177
3401.10948	0.93183
3399.05567	0.93181
3397.00186	0.93154
3394.94805	0.93129
3392.89424	0.93112
3390.84042	0.93080
3388.78661	0.93030
3386.73280	0.92970
3384.67899	0.92905
3382.62518	0.92855
3380.57137	0.92835
3378.51756	0.92831
3376.46375	0.92812
3374.40994	0.92772
3372.35613	0.92736
3370.30232	0.92715
3368.24851	0.92686
3366.19470	0.92637
3364.14089	0.92609
3362.08708	0.92592
3360.03327	0.92551
3357.97946	0.92522
3355.92565	0.92502
3353.87184	0.92473
3351.81803	0.92452
3349.76422	0.92434
3347.71041	0.92405
3345.65660	0.92360
3343.60279	0.92315
3341.54898	0.92306
3339.49517	0.92301
3337.44136	0.92240
3335.38755	0.92186
3333.33374	0.92183
3331.27993	0.92179
3329.22612	0.92167
3327.17231	0.92164
3325.11850	0.92148
3323.06469	0.92116
3321.01088	0.92093
3318.95707	0.92091
3316.90326	0.92082
3314.84945	0.92023
3312.79564	0.91961
3310.74183	0.91951
3308.68802	0.91958
3306.63421	0.91945
3304.58040	0.91917
3302.52659	0.91883
3300.47278	0.91853
3298.41897	0.91848
3296.36516	0.91859
3294.31135	0.91856
3292.25754	0.91844
3290.20373	0.91821
3288.14992	0.91780
3286.09611	0.91756
3284.04230	0.91762
3281.98849	0.91769
3279.93468	0.91777
3277.88087	0.91797
3275.82706	0.91824
3273.77325	0.91849
3271.71944	0.91862
3269.66563	0.91888
3267.61182	0.91936
3265.55801	0.91959
3263.50420	0.91961
3261.45039	0.91986
3259.39658	0.92019
3257.34277	0.92047
3255.28896	0.92078
3253.23515	0.92105
3251.18134	0.92134
3249.12753	0.92168
3247.07372	0.92215
3245.01991	0.92265
3242.96610	0.92297
3240.91229	0.92320
3238.85848	0.92341
3236.80467	0.92376
3234.75086	0.92409
3232.69705	0.92417
3230.64324	0.92419
3228.58943	0.92457
3226.53562	0.92526
3224.48181	0.92571
3222.42800	0.92588
3220.37419	0.92607
3218.32038	0.92623
3216.26657	0.92633
3214.21276	0.92649
3212.15895	0.92681
3210.10514	0.92711
3208.05133	0.92704
3205.99752	0.92687
3203.94371	0.92706
3201.88990	0.92748
3199.83609	0.92777
3197.78228	0.92786
3195.72847	0.92807
3193.67466	0.92862
3191.62085	0.92916
3189.56704	0.92933
3187.51323	0.92953
3185.45942	0.93024
3183.40561	0.93109
3181.35180	0.93163
3179.29799	0.93205
3177.24418	0.93258
3175.19037	0.93311
3173.13656	0.93350
3171.08275	0.93393
3169.02894	0.93458
3166.97513	0.93516
3164.92132	0.93552
3162.86751	0.93572
3160.81370	0.93583
3158.75989	0.93619
3156.70608	0.93685
3154.65227	0.93745
3152.59846	0.93786
3150.54465	0.93826
3148.49084	0.93882
3146.43703	0.93944
3144.38322	0.93987
3142.32941	0.94007
3140.27560	0.94017
3138.22179	0.94012
3136.16798	0.94020
3134.11417	0.94078
3132.06036	0.94145
3130.00655	0.94174
3127.95274	0.94170
3125.89893	0.94174
3123.84512	0.94206
3121.79131	0.94260
3119.73750	0.94330
3117.68369	0.94385
3115.62988	0.94410
3113.57607	0.94436
3111.52226	0.94476
3109.46845	0.94507
3107.41464	0.94522
3105.36083	0.94541
3103.30702	0.94540
3101.25321	0.94511
3099.19940	0.94517
3097.14559	0.94552
3095.09177	0.94563
3093.03796	0.94577
3090.98415	0.94611
3088.93034	0.94628
3086.87653	0.94622
3084.82272	0.94627
3082.76891	0.94658
3080.71510	0.94690
3078.66129	0.94690
3076.60748	0.94681
3074.55367	0.94710
3072.49986	0.94761
3070.44605	0.94793
3068.39224	0.94798
3066.33843	0.94786
3064.28462	0.94784
3062.23081	0.94814
3060.17700	0.94838
3058.12319	0.94847
3056.06938	0.94863
3054.01557	0.94883
3051.96176	0.94916
3049.90795	0.94961
3047.85414	0.94995
3045.80033	0.95018
3043.74652	0.95058
3041.69271	0.95104
3039.63890	0.95124
3037.58509	0.95135
3035.53128	0.95178
3033.47747	0.95230
3031.42366	0.95234
3029.36985	0.95223
3027.31604	0.95236
3025.26223	0.95259
3023.20842	0.95276
3021.15461	0.95279
3019.10080	0.95283
3017.04699	0.95295
3014.99318	0.95312
3012.93937	0.95318
3010.88556	0.95289
3008.83175	0.95245
3006.77794	0.95212
3004.72413	0.95180
3002.67032	0.95143
3000.61651	0.95111
2998.56270	0.95076
2996.50889	0.95016
2994.45508	0.94910
2992.40127	0.94781
2990.34746	0.94646
2988.29365	0.94491
2986.23984	0.94306
2984.18603	0.94067
2982.13222	0.93745
2980.07841	0.93331
2978.02460	0.92820
2975.97079	0.92181
2973.91698	0.91338
2971.86317	0.90235
2969.80936	0.88859
2967.75555	0.87224
2965.70174	0.85416
2963.64793	0.83667
2961.59412	0.82371
2959.54031	0.81781
2957.48650	0.81573
2955.43269	0.81060
2953.37888	0.79974
2951.32507	0.78826
2949.27126	0.78487
2947.21745	0.79413
2945.16364	0.81219
2943.10983	0.83107
2941.05602	0.84480
2939.00221	0.85104
2936.94840	0.85004
2934.89459	0.84299
2932.84078	0.83087
2930.78697	0.81442
2928.73316	0.79510
2926.67935	0.77490
2924.62554	0.75510
2922.57173	0.73616
2920.51792	0.71931
2918.46411	0.70867
2916.41030	0.70990
2914.35649	0.72422
2912.30268	0.74525
2910.24887	0.76461
2908.19506	0.77923
2906.14125	0.79105
2904.08744	0.80240
2902.03363	0.81409
2899.97982	0.82568
2897.92601	0.83610
2895.87220	0.84459
2893.81839	0.85082
2891.76458	0.85473
2889.71077	0.85658
2887.65696	0.85687
2885.60315	0.85601
2883.54934	0.85419
2881.49553	0.85141
2879.44172	0.84837
2877.38791	0.84704
2875.33410	0.84804
2873.28029	0.84914
2871.22648	0.84817
2869.17267	0.84533
2867.11886	0.84325
2865.06505	0.84622
2863.01124	0.85589
2860.95743	0.86835
2858.90362	0.87784
2856.84981	0.88154
2854.79600	0.87989
2852.74219	0.87463
2850.68838	0.86908
2848.63457	0.86664
2846.58076	0.86622
2844.52695	0.86323
2842.47314	0.85620
2840.41933	0.84889
2838.36552	0.84675
2836.31171	0.85303
2834.25790	0.86673
2832.20409	0.88324
2830.15028	0.89793
2828.09647	0.90896
2826.04266	0.91668
2823.98885	0.92220
2821.93504	0.92622
2819.88123	0.92923
2817.82742	0.93180
2815.77361	0.93385
2813.71980	0.93522
2811.66599	0.93644
2809.61218	0.93785
2807.55837	0.93935
2805.50456	0.94091
2803.45075	0.94237
2801.39693	0.94352
2799.34312	0.94431
2797.28931	0.94484
2795.23550	0.94552
2793.18169	0.94645
2791.12788	0.94732
2789.07407	0.94816
2787.02026	0.94917
2784.96645	0.95007
2782.91264	0.95075
2780.85883	0.95134
2778.80502	0.95175
2776.75121	0.95211
2774.69740	0.95264
2772.64359	0.95314
2770.58978	0.95360
2768.53597	0.95401
2766.48216	0.95425
2764.42835	0.95451
2762.37454	0.95497
2760.32073	0.95536
2758.26692	0.95541
2756.21311	0.95544
2754.15930	0.95568
2752.10549	0.95603
2750.05168	0.95630
2747.99787	0.95637
2745.94406	0.95635
2743.89025	0.95641
2741.83644	0.95630
2739.78263	0.95602
2737.72882	0.95593
2735.67501	0.95594
2733.62120	0.95578
2731.56739	0.95550
2729.51358	0.95514
2727.45977	0.95474
2725.40596	0.95445
2723.35215	0.95431
2721.29834	0.95443
2719.24453	0.95493
2717.19072	0.95566
2715.13691	0.95634
2713.08310	0.95682
2711.02929	0.95718
2708.97548	0.95753
2706.92167	0.95791
2704.86786	0.95831
2702.81405	0.95860
2700.76024	0.95884
2698.70643	0.95923
2696.65262	0.95964
2694.59881	0.95973
2692.54500	0.95964
2690.49119	0.95961
2688.43738	0.95966
2686.38357	0.95978
2684.32976	0.95986
2682.27595	0.95981
2680.22214	0.95967
2678.16833	0.95954
2676.11452	0.95951
2674.06071	0.95956
2672.00690	0.95976
2669.95309	0.96017
2667.89928	0.96054
2665.84547	0.96060
2663.79166	0.96041
2661.73785	0.96024
2659.68404	0.96019
2657.63023	0.96020
2655.57642	0.96033
2653.52261	0.96069
2651.46880	0.96111
2649.41499	0.96134
2647.36118	0.96135
2645.30737	0.96140
2643.25356	0.96159
2641.19975	0.96182
2639.14594	0.96221
2637.09213	0.96255
2635.03832	0.96265
2632.98451	0.96265
2630.93070	0.96252
2628.87689	0.96241
2626.82308	0.96257
2624.76927	0.96287
2622.71546	0.96306
2620.66165	0.96318
2618.60784	0.96327
2616.55403	0.96342
2614.50022	0.96355
2612.44641	0.96351
2610.39260	0.96360
2608.33879	0.96400
2606.28498	0.96450
2604.23117	0.96487
2602.17736	0.96487
2600.12355	0.96466
2598.06974	0.96468
2596.01593	0.96502
2593.96212	0.96540
2591.90831	0.96545
2589.85450	0.96509
2587.80069	0.96468
2585.74688	0.96456
2583.69307	0.96466
2581.63926	0.96482
2579.58545	0.96511
2577.53164	0.96558
2575.47783	0.96600
2573.42402	0.96609
2571.37021	0.96591
2569.31640	0.96594
2567.26259	0.96641
2565.20878	0.96682
2563.15497	0.96698
2561.10116	0.96710
2559.04735	0.96718
2556.99354	0.96719
2554.93973	0.96733
2552.88592	0.96778
2550.83211	0.96799
2548.77830	0.96745
2546.72449	0.96700
2544.67068	0.96718
2542.61687	0.96759
2540.56306	0.96815
2538.50925	0.96862
2536.45544	0.96857
2534.40163	0.96844
2532.34782	0.96884
2530.29401	0.96900
2528.24020	0.96863
2526.18639	0.96869
2524.13258	0.96914
2522.07877	0.96932
2520.02496	0.96922
2517.97115	0.96903
2515.91734	0.96893
2513.86353	0.96928
2511.80972	0.97001
2509.75591	0.97041
2507.70210	0.97023
2505.64828	0.97005
2503.59447	0.97013
2501.54066	0.97027
2499.48685	0.97025
2497.43304	0.97014
2495.37923	0.97025
2493.32542	0.97042
2491.27161	0.97043
2489.21780	0.97038
2487.16399	0.97037
2485.11018	0.97032
2483.05637	0.97032
2481.00256	0.97035
2478.94875	0.97038
2476.89494	0.97072
2474.84113	0.97104
2472.78732	0.97109
2470.73351	0.97125
2468.67970	0.97146
2466.62589	0.97149
2464.57208	0.97147
2462.51827	0.97135
2460.46446	0.97094
2458.41065	0.97047
2456.35684	0.97035
2454.30303	0.97053
2452.24922	0.97053
2450.19541	0.97039
2448.14160	0.97063
2446.08779	0.97120
2444.03398	0.97149
2441.98017	0.97161
2439.92636	0.97202
2437.87255	0.97232
2435.81874	0.97227
2433.76493	0.97199
2431.71112	0.97170
2429.65731	0.97172
2427.60350	0.97189
2425.54969	0.97204
2423.49588	0.97221
2421.44207	0.97205
2419.38826	0.97169
2417.33445	0.97165
2415.28064	0.97172
2413.22683	0.97166
2411.17302	0.97170
2409.11921	0.97189
2407.06540	0.97204
2405.01159	0.97220
2402.95778	0.97249
2400.90397	0.97278
2398.85016	0.97292
2396.79635	0.97286
2394.74254	0.97262
2392.68873	0.97238
2390.63492	0.97242
2388.58111	0.97284
2386.52730	0.97329
2384.47349	0.97340
2382.41968	0.97322
2380.36587	0.97283
2378.31206	0.97227
2376.25825	0.97181
2374.20444	0.97170
2372.15063	0.97183
2370.09682	0.97207
2368.04301	0.97232
2365.98920	0.97217
2363.93539	0.97184
2361.88158	0.97178
2359.82777	0.97140
2357.77396	0.97108
2355.72015	0.97132
2353.66634	0.97149
2351.61253	0.97166
2349.55872	0.97186
2347.50491	0.97179
2345.45110	0.97176
2343.39729	0.97220
2341.34348	0.97237
2339.28967	0.97198
2337.23586	0.97183
2335.18205	0.97215
2333.12824	0.97247
2331.07443	0.97251
2329.02062	0.97200
2326.96681	0.97083
2324.91300	0.96982
2322.85919	0.96997
2320.80538	0.97092
2318.75157	0.97149
2316.69776	0.97178
2314.64395	0.97224
2312.59014	0.97261
2310.53633	0.97250
2308.48252	0.97213
2306.42871	0.97210
2304.37490	0.97232
2302.32109	0.97248
2300.26728	0.97265
2298.21347	0.97291
2296.15966	0.97291
2294.10585	0.97249
2292.05204	0.97224
2289.99823	0.97215
2287.94442	0.97188
2285.89061	0.97192
2283.83680	0.97251
2281.78299	0.97313
2279.72918	0.97328
2277.67537	0.97315
2275.62156	0.97340
2273.56775	0.97409
2271.51394	0.97423
2269.46013	0.97365
2267.40632	0.97319
2265.35251	0.97298
2263.29870	0.97290
2261.24489	0.97307
2259.19108	0.97344
2257.13727	0.97381
2255.08346	0.97387
2253.02965	0.97388
2250.97584	0.97428
2248.92203	0.97477
2246.86822	0.97506
2244.81441	0.97518
2242.76060	0.97482
2240.70679	0.97408
2238.65298	0.97361
2236.59917	0.97392
2234.54536	0.97470
2232.49155	0.97517
2230.43774	0.97506
2228.38393	0.97467
2226.33012	0.97465
2224.27631	0.97528
2222.22250	0.97546
2220.16869	0.97421
2218.11488	0.97333
2216.06107	0.97423
2214.00726	0.97517
2211.95344	0.97497
2209.89963	0.97394
2207.84582	0.97316
2205.79201	0.97338
2203.73820	0.97390
2201.68439	0.97417
2199.63058	0.97434
2197.57677	0.97463
2195.52296	0.97471
2193.46915	0.97405
2191.41534	0.97337
2189.36153	0.97308
2187.30772	0.97261
2185.25391	0.97290
2183.20010	0.97486
2181.14629	0.97697
2179.09248	0.97713
2177.03867	0.97590
2174.98486	0.97513
2172.93105	0.97490
2170.87724	0.97442
2168.82343	0.97321
2166.76962	0.97182
2164.71581	0.97171
2162.66200	0.97196
2160.60819	0.97263
2158.55438	0.97586
2156.50057	0.97785
2154.44676	0.97645
2152.39295	0.97570
2150.33914	0.97676
2148.28533	0.97727
2146.23152	0.97670
2144.17771	0.97604
2142.12390	0.97545
2140.07009	0.97536
2138.01628	0.97623
2135.96247	0.97712
2133.90866	0.97720
2131.85485	0.97713
2129.80104	0.97684
2127.74723	0.97597
2125.69342	0.97535
2123.63961	0.97555
2121.58580	0.97623
2119.53199	0.97667
2117.47818	0.97631
2115.42437	0.97557
2113.37056	0.97500
2111.31675	0.97462
2109.26294	0.97478
2107.20913	0.97511
2105.15532	0.97488
2103.10151	0.97440
2101.04770	0.97397
2098.99389	0.97425
2096.94008	0.97515
2094.88627	0.97542
2092.83246	0.97523
2090.77865	0.97515
2088.72484	0.97519
2086.67103	0.97499
2084.61722	0.97427
2082.56341	0.97391
2080.50960	0.97440
2078.45579	0.97446
2076.40198	0.97371
2074.34817	0.97349
2072.29436	0.97373
2070.24055	0.97411
2068.18674	0.97469
2066.13293	0.97458
2064.07912	0.97441
2062.02531	0.97521
2059.97150	0.97582
2057.91769	0.97538
2055.86388	0.97454
2053.81007	0.97369
2051.75626	0.97321
2049.70245	0.97377
2047.64864	0.97420
2045.59483	0.97349
2043.54102	0.97303
2041.48721	0.97322
2039.43340	0.97367
2037.37959	0.97504
2035.32578	0.97645
2033.27197	0.97603
2031.21816	0.97459
2029.16435	0.97412
2027.11054	0.97478
2025.05673	0.97556
2023.00292	0.97524
2020.94911	0.97428
2018.89530	0.97357
2016.84149	0.97298
2014.78768	0.97354
2012.73387	0.97524
2010.68006	0.97617
2008.62625	0.97626
2006.57244	0.97671
2004.51863	0.97711
2002.46482	0.97718
2000.41101	0.97709
1998.35720	0.97663
1996.30339	0.97648
1994.24958	0.97691
1992.19577	0.97692
1990.14196	0.97579
1988.08815	0.97443
1986.03434	0.97403
1983.98053	0.97399
1981.92672	0.97286
1979.87291	0.97207
1977.81910	0.97379
1975.76529	0.97552
1973.71148	0.97552
1971.65767	0.97526
1969.60386	0.97559
1967.55005	0.97689
1965.49624	0.97760
1963.44243	0.97668
1961.38862	0.97639
1959.33481	0.97707
1957.28100	0.97676
1955.22719	0.97624
1953.17338	0.97677
1951.11957	0.97727
1949.06576	0.97717
1947.01195	0.97732
1944.95814	0.97787
1942.90433	0.97741
1940.85052	0.97589
1938.79671	0.97505
1936.74290	0.97512
1934.68909	0.97554
1932.63528	0.97607
1930.58147	0.97672
1928.52766	0.97737
1926.47385	0.97749
1924.42004	0.97675
1922.36623	0.97579
1920.31242	0.97557
1918.25861	0.97560
1916.20479	0.97533
1914.15098	0.97531
1912.09717	0.97540
1910.04336	0.97538
1907.98955	0.97549
1905.93574	0.97566
1903.88193	0.97578
1901.82812	0.97583
1899.77431	0.97600
1897.72050	0.97621
1895.66669	0.97609
1893.61288	0.97597
1891.55907	0.97619
1889.50526	0.97620
1887.45145	0.97584
1885.39764	0.97561
1883.34383	0.97567
1881.29002	0.97567
1879.23621	0.97554
1877.18240	0.97559
1875.12859	0.97585
1873.07478	0.97591
1871.02097	0.97550
1868.96716	0.97505
1866.91335	0.97503
1864.85954	0.97520
1862.80573	0.97542
1860.75192	0.97550
1858.69811	0.97563
1856.64430	0.97625
1854.59049	0.97670
1852.53668	0.97652
1850.48287	0.97626
1848.42906	0.97597
1846.37525	0.97552
1844.32144	0.97534
1842.26763	0.97546
1840.21382	0.97522
1838.16001	0.97484
1836.10620	0.97500
1834.05239	0.97559
1831.99858	0.97590
1829.94477	0.97565
1827.89096	0.97534
1825.83715	0.97524
1823.78334	0.97510
1821.72953	0.97502
1819.67572	0.97502
1817.62191	0.97495
1815.56810	0.97478
1813.51429	0.97474
1811.46048	0.97499
1809.40667	0.97503
1807.35286	0.97449
1805.29905	0.97385
1803.24524	0.97350
1801.19143	0.97326
1799.13762	0.97265
1797.08381	0.97173
1795.03000	0.97103
1792.97619	0.97045
1790.92238	0.96962
1788.86857	0.96863
1786.81476	0.96755
1784.76095	0.96645
1782.70714	0.96538
1780.65333	0.96397
1778.59952	0.96245
1776.54571	0.96164
1774.49190	0.96140
1772.43809	0.96073
1770.38428	0.95955
1768.33047	0.95878
1766.27666	0.95859
1764.22285	0.95849
1762.16904	0.95792
1760.11523	0.95706
1758.06142	0.95628
1756.00761	0.95538
1753.95380	0.95454
1751.89999	0.95358
1749.84618	0.95237
1747.79237	0.95116
1745.73856	0.94968
1743.68475	0.94808
1741.63094	0.94680
1739.57713	0.94576
1737.52332	0.94516
1735.46951	0.94483
1733.41570	0.94414
1731.36189	0.94362
1729.30808	0.94302
1727.25427	0.94189
1725.20046	0.94048
1723.14665	0.93870
1721.09284	0.93692
1719.03903	0.93513
1716.98522	0.93283
1714.93141	0.93097
1712.87760	0.92989
1710.82379	0.92912
1708.76998	0.92864
1706.71617	0.92840
1704.66236	0.92868
1702.60855	0.92917
1700.55474	0.92876
1698.50093	0.92777
1696.44712	0.92707
1694.39331	0.92618
1692.33950	0.92522
1690.28569	0.92392
1688.23188	0.92235
1686.17807	0.92074
1684.12426	0.91754
1682.07045	0.91418
1680.01664	0.91242
1677.96283	0.91091
1675.90902	0.90851
1673.85521	0.90553
1671.80140	0.90317
1669.74759	0.90012
1667.69378	0.89674
1665.63997	0.89456
1663.58616	0.89188
1661.53235	0.88820
1659.47854	0.88538
1657.42473	0.88366
1655.37092	0.88201
1653.31711	0.87828
1651.26330	0.87528
1649.20949	0.87551
1647.15568	0.87592
1645.10187	0.87614
1643.04806	0.87717
1640.99425	0.87850
1638.94044	0.87965
1636.88663	0.88025
1634.83282	0.88004
1632.77901	0.88030
1630.72520	0.88127
1628.67139	0.88233
1626.61758	0.88348
1624.56377	0.88487
1622.50996	0.88656
1620.45614	0.88857
1618.40233	0.89067
1616.34852	0.89267
1614.29471	0.89468
1612.24090	0.89675
1610.18709	0.89873
1608.13328	0.90052
1606.07947	0.90201
1604.02566	0.90328
1601.97185	0.90457
1599.91804	0.90578
1597.86423	0.90669
1595.81042	0.90735
1593.75661	0.90789
1591.70280	0.90834
1589.64899	0.90858
1587.59518	0.90868
1585.54137	0.90885
1583.48756	0.90903
1581.43375	0.90900
1579.37994	0.90888
1577.32613	0.90850
1575.27232	0.90796
1573.21851	0.90823
1571.16470	0.90873
1569.11089	0.90872
1567.05708	0.90867
1565.00327	0.90866
1562.94946	0.90867
1560.89565	0.90831
1558.84184	0.90560
1556.78803	0.90278
1554.73422	0.90167
1552.68041	0.90046
1550.62660	0.89904
1548.57279	0.89766
1546.51898	0.89680
1544.46517	0.89622
1542.41136	0.89580
1540.35755	0.89564
1538.30374	0.89636
1536.24993	0.89800
1534.19612	0.89995
1532.14231	0.90205
1530.08850	0.90411
1528.03469	0.90603
1525.98088	0.90774
1523.92707	0.90921
1521.87326	0.91040
1519.81945	0.91121
1517.76564	0.91192
1515.71183	0.91315
1513.65802	0.91517
1511.60421	0.91742
1509.55040	0.91942
1507.49659	0.92148
1505.44278	0.92377
1503.38897	0.92555
1501.33516	0.92684
1499.28135	0.92771
1497.22754	0.92842
1495.17373	0.92932
1493.11992	0.93027
1491.06611	0.93075
1489.01230	0.93054
1486.95849	0.93019
1484.90468	0.92975
1482.85087	0.92852
1480.79706	0.92619
1478.74325	0.92302
1476.68944	0.91814
1474.63563	0.90990
1472.58182	0.89785
1470.52801	0.88552
1468.47420	0.87478
1466.42039	0.86202
1464.36658	0.84686
1462.31277	0.83648
1460.25896	0.83238
1458.20515	0.82938
1456.15134	0.82508
1454.09753	0.82285
1452.04372	0.82286
1449.98991	0.82594
1447.93610	0.83502
1445.88229	0.84876
1443.82848	0.86175
1441.77467	0.87113
1439.72086	0.87600
1437.66705	0.87694
1435.61324	0.87726
1433.55943	0.88144
1431.50562	0.88800
1429.45181	0.89350
1427.39800	0.89618
1425.34419	0.89678
1423.29038	0.89632
1421.23657	0.89566
1419.18276	0.89478
1417.12895	0.89404
1415.07514	0.89404
1413.02133	0.89440
1410.96752	0.89497
1408.91371	0.89565
1406.85990	0.89653
1404.80609	0.89767
1402.75228	0.89888
1400.69847	0.89978
1398.64466	0.90036
1396.59085	0.90089
1394.53704	0.90144
1392.48323	0.90167
1390.42942	0.90104
1388.37561	0.89876
1386.32180	0.89356
1384.26799	0.88417
1382.21418	0.86759
1380.16037	0.83917
1378.10656	0.80235
1376.05275	0.77724
1373.99894	0.78410
1371.94513	0.81466
1369.89132	0.84508
1367.83751	0.86582
1365.78370	0.87628
1363.72989	0.87956
1361.67608	0.87835
1359.62227	0.87642
1357.56846	0.87793
1355.51465	0.88370
1353.46084	0.89100
1351.40703	0.89710
1349.35322	0.90162
1347.29941	0.90497
1345.24560	0.90735
1343.19179	0.90902
1341.13798	0.91011
1339.08417	0.91058
1337.03036	0.91068
1334.97655	0.91056
1332.92274	0.91009
1330.86893	0.90928
1328.81512	0.90850
1326.76130	0.90805
1324.70749	0.90793
1322.65368	0.90811
1320.59987	0.90852
1318.54606	0.90908
1316.49225	0.90967
1314.43844	0.91033
1312.38463	0.91081
1310.33082	0.91058
1308.27701	0.90922
1306.22320	0.90715
1304.16939	0.90591
1302.11558	0.90640
1300.06177	0.90761
1298.00796	0.90831
1295.95415	0.90857
1293.90034	0.90902
1291.84653	0.90970
1289.79272	0.91026
1287.73891	0.91055
1285.68510	0.91066
1283.63129	0.91067
1281.57748	0.91029
1279.52367	0.90931
1277.46986	0.90798
1275.41605	0.90682
1273.36224	0.90612
1271.30843	0.90564
1269.25462	0.90522
1267.20081	0.90487
1265.14700	0.90453
1263.09319	0.90397
1261.03938	0.90299
1258.98557	0.90137
1256.93176	0.89953
1254.87795	0.89882
1252.82414	0.89965
1250.77033	0.90079
1248.71652	0.90136
1246.66271	0.90154
1244.60890	0.90166
1242.55509	0.90181
1240.50128	0.90200
1238.44747	0.90215
1236.39366	0.90224
1234.33985	0.90232
1232.28604	0.90251
1230.23223	0.90287
1228.17842	0.90330
1226.12461	0.90356
1224.07080	0.90351
1222.01699	0.90324
1219.96318	0.90300
1217.90937	0.90301
1215.85556	0.90323
1213.80175	0.90363
1211.74794	0.90412
1209.69413	0.90439
1207.64032	0.90433
1205.58651	0.90415
1203.53270	0.90394
1201.47889	0.90355
1199.42508	0.90318
1197.37127	0.90319
1195.31746	0.90351
1193.26365	0.90393
1191.20984	0.90439
1189.15603	0.90474
1187.10222	0.90482
1185.04841	0.90459
1182.99460	0.90402
1180.94079	0.90306
1178.88698	0.90138
1176.83317	0.89865
1174.77936	0.89441
1172.72555	0.88786
1170.67174	0.87945
1168.61793	0.87198
1166.56412	0.86846
1164.51031	0.86904
1162.45650	0.87159
1160.40269	0.87396
1158.34888	0.87513
1156.29507	0.87523
1154.24126	0.87482
1152.18745	0.87442
1150.13364	0.87443
1148.07983	0.87492
1146.02602	0.87543
1143.97221	0.87560
1141.91840	0.87546
1139.86459	0.87525
1137.81078	0.87514
1135.75697	0.87493
1133.70316	0.87440
1131.64935	0.87348
1129.59554	0.87218
1127.54173	0.87094
1125.48792	0.86997
1123.43411	0.86888
1121.38030	0.86735
1119.32649	0.86558
1117.27268	0.86435
1115.21887	0.86401
1113.16506	0.86374
1111.11125	0.86294
1109.05744	0.86185
1107.00363	0.86044
1104.94982	0.85853
1102.89601	0.85663
1100.84220	0.85536
1098.78839	0.85476
1096.73458	0.85429
1094.68077	0.85356
1092.62696	0.85270
1090.57315	0.85215
1088.51934	0.85177
1086.46553	0.85100
1084.41172	0.84983
1082.35791	0.84851
1080.30410	0.84711
1078.25029	0.84588
1076.19648	0.84497
1074.14267	0.84429
1072.08886	0.84364
1070.03505	0.84283
1067.98124	0.84167
1065.92743	0.84005
1063.87362	0.83816
1061.81981	0.83628
1059.76600	0.83410
1057.71219	0.83148
1055.65838	0.82904
1053.60457	0.82670
1051.55076	0.82400
1049.49695	0.82137
1047.44314	0.81929
1045.38933	0.81783
1043.33552	0.81728
1041.28171	0.81754
1039.22790	0.81801
1037.17409	0.81845
1035.12028	0.81886
1033.06647	0.81933
1031.01265	0.82007
1028.95884	0.82105
1026.90503	0.82221
1024.85122	0.82365
1022.79741	0.82536
1020.74360	0.82711
1018.68979	0.82870
1016.63598	0.83005
1014.58217	0.83135
1012.52836	0.83287
1010.47455	0.83428
1008.42074	0.83491
1006.36693	0.83437
1004.31312	0.83195
1002.25931	0.82645
1000.20550	0.81815
998.15169	0.81187
996.09788	0.81331
994.04407	0.82154
991.99026	0.83077
989.93645	0.83791
987.88264	0.84327
985.82883	0.84767
983.77502	0.85147
981.72121	0.85454
979.66740	0.85619
977.61359	0.85527
975.55978	0.85129
973.50597	0.84761
971.45216	0.85072
969.39835	0.86138
967.34454	0.87294
965.29073	0.88115
963.23692	0.88651
961.18311	0.89012
959.12930	0.89254
957.07549	0.89422
955.02168	0.89517
952.96787	0.89525
950.91406	0.89495
948.86025	0.89481
946.80644	0.89475
944.75263	0.89433
942.69882	0.89338
940.64501	0.89253
938.59120	0.89267
936.53739	0.89374
934.48358	0.89480
932.42977	0.89532
930.37596	0.89565
928.32215	0.89615
926.26834	0.89677
924.21453	0.89749
922.16072	0.89825
920.10691	0.89899
918.05310	0.89971
915.99929	0.90031
913.94548	0.90092
911.89167	0.90194
909.83786	0.90338
907.78405	0.90473
905.73024	0.90521
903.67643	0.90400
901.62262	0.90144
899.56881	0.90004
897.51500	0.90210
895.46119	0.90641
893.40738	0.91016
891.35357	0.91255
889.29976	0.91405
887.24595	0.91475
885.19214	0.91508
883.13833	0.91537
881.08452	0.91522
879.03071	0.91425
876.97690	0.91286
874.92309	0.91198
872.86928	0.91200
870.81547	0.91241
868.76166	0.91281
866.70785	0.91324
864.65404	0.91368
862.60023	0.91400
860.54642	0.91434
858.49261	0.91473
856.43880	0.91508
854.38499	0.91551
852.33118	0.91559
850.27737	0.91483
848.22356	0.91330
846.16975	0.90934
844.11594	0.89980
842.06213	0.88848
840.00832	0.88658
837.95451	0.89545
835.90070	0.90480
833.84689	0.90972
831.79308	0.91218
829.73927	0.91375
827.68546	0.91479
825.63165	0.91495
823.57784	0.91436
821.52403	0.91361
819.47022	0.91279
817.41641	0.91191
815.36260	0.91042
813.30879	0.90719
811.25498	0.90279
809.20117	0.89961
807.14736	0.89980
805.09355	0.90289
803.03974	0.90591
800.98593	0.90722
798.93212	0.90753
796.87831	0.90771
794.82450	0.90797
792.77069	0.90812
790.71688	0.90805
788.66307	0.90771
786.60926	0.90704
784.55545	0.90617
782.50164	0.90561
780.44783	0.90544
778.39402	0.90533
776.34021	0.90539
774.28640	0.90547
772.23259	0.90530
770.17878	0.90472
768.12497	0.90415
766.07116	0.90415
764.01735	0.90447
761.96354	0.90467
759.90973	0.90444
757.85592	0.90345
755.80211	0.90236
753.74830	0.90212
751.69449	0.90240
749.64068	0.90222
747.58687	0.90180
745.53306	0.90203
743.47925	0.90221
741.42544	0.90165
739.37163	0.90111
737.31781	0.90049
735.26400	0.89933
733.21019	0.89754
731.15638	0.89558
729.10257	0.89463
727.04876	0.89407
724.99495	0.89255
722.94114	0.89011
720.88733	0.88790
718.83352	0.88729
716.77971	0.88812
714.72590	0.88938
712.67209	0.89046
710.61828	0.89074
708.56447	0.89000
706.51066	0.88881
704.45685	0.88776
702.40304	0.88674
700.34923	0.88593
698.29542	0.88544
696.24161	0.88458
694.18780	0.88350
692.13399	0.88296
690.08018	0.88284
688.02637	0.88286
685.97256	0.88274
683.91875	0.88234
681.86494	0.88187
679.81113	0.88124
677.75732	0.88038
675.70351	0.87965
673.64970	0.87937
671.59589	0.87941
669.54208	0.87886
667.48827	0.87702
665.43446	0.87610
663.38065	0.87615
661.32684	0.87590
659.27303	0.87530
657.21922	0.87508
655.16541	0.87566
653.11160	0.87643
651.05779	0.87626
649.00398	0.87544
646.95017	0.87478
644.89636	0.87429
642.84255	0.87376
640.78874	0.87327
638.73493	0.87262
636.68112	0.87170
634.62731	0.87143
632.57350	0.87161
630.51969	0.87130
628.46588	0.87011
626.41207	0.86825
624.35826	0.86689
622.30445	0.86636
620.25064	0.86608
618.19683	0.86581
616.14302	0.86499
614.08921	0.86319
612.03540	0.86159
609.98159	0.86114
607.92778	0.86082
605.87397	0.85973
603.82016	0.85864
601.76635	0.85811
599.71254	0.85771
597.65873	0.85729
595.60492	0.85672
593.55111	0.85605
591.49730	0.85543
589.44349	0.85527
587.38968	0.85588
585.33587	0.85639
583.28206	0.85574
581.22825	0.85448
579.17444	0.85376
577.12063	0.85283
575.06682	0.85124
573.01301	0.85014
570.95920	0.84998
568.90539	0.85004
566.85158	0.84926
564.79777	0.84819
562.74396	0.84790
560.69015	0.84753
558.63634	0.84603
556.58253	0.84319
554.52872	0.84024
552.47491	0.83895
550.42110	0.83892
548.36729	0.83834
546.31348	0.83653
544.25967	0.83484
542.20586	0.83412
540.15205	0.83374
538.09824	0.83313
536.04443	0.83161
533.99062	0.82985
531.93681	0.82918
529.88300	0.82914
527.82919	0.82954
525.77538	0.83092
523.72157	0.83211
521.66776	0.83242
519.61395	0.83288
517.56014	0.83364
515.50633	0.83467
513.45252	0.83639
511.39871	0.83791
509.34490	0.83809
507.29109	0.83760
505.23728	0.83772
503.18347	0.83805
501.12966	0.83803
499.07585	0.83890
497.02204	0.84141
494.96823	0.84349
492.91442	0.84304
490.86061	0.84094
488.80680	0.83914
486.75299	0.83830
484.69918	0.83741
482.64537	0.83491
480.59156	0.83130
478.53775	0.82774
476.48394	0.82415
474.43013	0.82001
472.37632	0.81578
470.32251	0.81458
468.26870	0.81664
466.21489	0.81815
464.16108	0.81675
462.10727	0.81442
460.05346	0.81493
457.99965	0.81723
455.94584	0.81889
453.89203	0.82130
451.83822	0.82406
449.78441	0.82605
447.73060	0.82824
445.67679	0.83135
443.62298	0.83448
441.56916	0.83665
439.51535	0.83855
437.46154	0.83993
435.40773	0.83962
433.35392	0.83892
431.30011	0.83871
429.24630	0.83853
427.19249	0.83768
425.13868	0.83644
423.08487	0.83657
421.03106	0.83866
418.97725	0.84179
416.92344	0.84329
414.86963	0.84453
412.81582	0.84672
410.76201	0.84798
408.70820	0.84840
406.65439	0.84983
404.60058	0.85317
402.54677	0.85512
400.49296	0.85198
398.43915	0.84546
