3996.70104	0.99470
3994.64724	0.99447
3992.59344	0.99413
3990.53964	0.99423
3988.48583	0.99480
3986.43203	0.99516
3984.37823	0.99510
3982.32442	0.99477
3980.27062	0.99429
3978.21682	0.99401
3976.16301	0.99397
3974.10921	0.99383
3972.05541	0.99371
3970.00160	0.99390
3967.94780	0.99389
3965.89400	0.99359
3963.84019	0.99359
3961.78639	0.99376
3959.73259	0.99393
3957.67878	0.99400
3955.62498	0.99373
3953.57118	0.99338
3951.51737	0.99307
3949.46357	0.99261
3947.40977	0.99239
3945.35596	0.99289
3943.30216	0.99383
3941.24836	0.99431
3939.19455	0.99421
3937.14075	0.99431
3935.08695	0.99436
3933.03315	0.99390
3930.97934	0.99335
3928.92554	0.99324
3926.87174	0.99355
3924.81793	0.99394
3922.76413	0.99440
3920.71033	0.99475
3918.65652	0.99416
3916.60272	0.99295
3914.54892	0.99257
3912.49511	0.99311
3910.44131	0.99370
3908.38751	0.99375
3906.33370	0.99317
3904.27990	0.99223
3902.22610	0.99171
3900.17229	0.99198
3898.11849	0.99264
3896.06469	0.99331
3894.01088	0.99355
3891.95708	0.99345
3889.90328	0.99370
3887.84947	0.99401
3885.79567	0.99391
3883.74187	0.99347
3881.68807	0.99331
3879.63426	0.99370
3877.58046	0.99370
3875.52666	0.99332
3873.47285	0.99375
3871.41905	0.99507
3869.36525	0.99554
3867.31144	0.99452
3865.25764	0.99328
3863.20384	0.99283
3861.15003	0.99303
3859.09623	0.99334
3857.04243	0.99376
3854.98862	0.99338
3852.93482	0.99217
3850.88102	0.99263
3848.82721	0.99361
3846.77341	0.99408
3844.71961	0.99440
3842.66580	0.99490
3840.61200	0.99498
3838.55820	0.99426
3836.50439	0.99350
3834.45059	0.99298
3832.39679	0.99278
3830.34298	0.99298
3828.28918	0.99307
3826.23538	0.99323
3824.18158	0.99365
3822.12777	0.99386
3820.07397	0.99407
3818.02017	0.99414
3815.96636	0.99377
3813.91256	0.99358
3811.85876	0.99347
3809.80495	0.99313
3807.75115	0.99291
3805.69735	0.99330
3803.64354	0.99371
3801.58974	0.99323
3799.53594	0.99243
3797.48213	0.99240
3795.42833	0.99313
3793.37453	0.99390
3791.32072	0.99393
3789.26692	0.99313
3787.21312	0.99242
3785.15931	0.99279
3783.10551	0.99387
3781.05171	0.99439
3778.99790	0.99391
3776.94410	0.99335
3774.89030	0.99378
3772.83650	0.99464
3770.78269	0.99461
3768.72889	0.99402
3766.67509	0.99399
3764.62128	0.99429
3762.56748	0.99450
3760.51368	0.99426
3758.45987	0.99364
3756.40607	0.99369
3754.35227	0.99445
3752.29846	0.99463
3750.24466	0.99357
3748.19086	0.99244
3746.13705	0.99173
3744.08325	0.99167
3742.02945	0.99250
3739.97564	0.99315
3737.92184	0.99346
3735.86804	0.99400
3733.81423	0.99421
3731.76043	0.99376
3729.70663	0.99397
3727.65282	0.99486
3725.59902	0.99532
3723.54522	0.99458
3721.49141	0.99318
3719.43761	0.99239
3717.38381	0.99229
3715.33001	0.99204
3713.27620	0.99127
3711.22240	0.98986
3709.16860	0.98888
3707.11479	0.98839
3705.06099	0.98768
3703.00719	0.98707
3700.95338	0.98623
3698.89958	0.98517
3696.84578	0.98488
3694.79197	0.98514
3692.73817	0.98515
3690.68437	0.98532
3688.63056	0.98634
3686.57676	0.98757
3684.52296	0.98858
3682.46915	0.98926
3680.41535	0.98930
3678.36155	0.98926
3676.30774	0.98978
3674.25394	0.99000
3672.20014	0.98916
3670.14633	0.98786
3668.09253	0.98716
3666.03873	0.98692
3663.98492	0.98647
3661.93112	0.98636
3659.87732	0.98688
3657.82352	0.98706
3655.76971	0.98644
3653.71591	0.98594
3651.66211	0.98584
3649.60830	0.98563
3647.55450	0.98536
3645.50070	0.98529
3643.44689	0.98530
3641.39309	0.98558
3639.33929	0.98627
3637.28548	0.98674
3635.23168	0.98621
3633.17788	0.98483
3631.12407	0.98361
3629.07027	0.98381
3627.01647	0.98492
3624.96266	0.98454
3622.90886	0.98354
3620.85506	0.98339
3618.80125	0.98369
3616.74745	0.98361
3614.69365	0.98349
3612.63984	0.98369
3610.58604	0.98410
3608.53224	0.98454
3606.47844	0.98501
3604.42463	0.98525
3602.37083	0.98487
3600.31703	0.98418
3598.26322	0.98408
3596.20942	0.98455
3594.15562	0.98520
3592.10181	0.98550
3590.04801	0.98519
3587.99421	0.98468
3585.94040	0.98449
3583.88660	0.98438
3581.83280	0.98388
3579.77899	0.98338
3577.72519	0.98312
3575.67139	0.98309
3573.61758	0.98336
3571.56378	0.98334
3569.50998	0.98296
3567.45617	0.98241
3565.40237	0.98177
3563.34857	0.98140
3561.29476	0.98147
3559.24096	0.98184
3557.18716	0.98220
3555.13335	0.98261
3553.07955	0.98267
3551.02575	0.98228
3548.97195	0.98184
3546.91814	0.98135
3544.86434	0.98100
3542.81054	0.98090
3540.75673	0.98072
3538.70293	0.98024
3536.64913	0.97980
3534.59532	0.97986
3532.54152	0.98026
3530.48772	0.98052
3528.43391	0.98023
3526.38011	0.97965
3524.32631	0.97931
3522.27250	0.97910
3520.21870	0.97901
3518.16490	0.97915
3516.11109	0.97941
3514.05729	0.97967
3512.00349	0.97985
3509.94968	0.97992
3507.89588	0.97966
3505.84208	0.97940
3503.78827	0.97942
3501.73447	0.97914
3499.68067	0.97864
3497.62687	0.97857
3495.57306	0.97883
3493.51926	0.97873
3491.46546	0.97829
3489.41165	0.97815
3487.35785	0.97816
3485.30405	0.97777
3483.25024	0.97704
3481.19644	0.97650
3479.14264	0.97657
3477.08883	0.97709
3475.03503	0.97772
3472.98123	0.97790
3470.92742	0.97741
3468.87362	0.97705
3466.81982	0.97710
3464.76601	0.97676
3462.71221	0.97592
3460.65841	0.97555
3458.60460	0.97573
3456.55080	0.97561
3454.49700	0.97559
3452.44319	0.97593
3450.38939	0.97562
3448.33559	0.97488
3446.28178	0.97477
3444.22798	0.97511
3442.17418	0.97516
3440.12038	0.97484
3438.06657	0.97448
3436.01277	0.97440
3433.95897	0.97451
3431.90516	0.97433
3429.85136	0.97389
3427.79756	0.97374
3425.74375	0.97377
3423.68995	0.97362
3421.63615	0.97347
3419.58234	0.97310
3417.52854	0.97250
3415.47474	0.97276
3413.42093	0.97345
3411.36713	0.97338
3409.31333	0.97307
3407.25952	0.97295
3405.20572	0.97273
3403.15192	0.97236
3401.09811	0.97207
3399.04431	0.97214
3396.99051	0.97235
3394.93670	0.97227
3392.88290	0.97186
3390.82910	0.97148
3388.77529	0.97146
3386.72149	0.97166
3384.66769	0.97179
3382.61389	0.97177
3380.56008	0.97200
3378.50628	0.97252
3376.45248	0.97261
3374.39867	0.97210
3372.34487	0.97174
3370.29107	0.97211
3368.23726	0.97262
3366.18346	0.97267
3364.12966	0.97236
3362.07585	0.97184
3360.02205	0.97130
3357.96825	0.97099
3355.91444	0.97078
3353.86064	0.97076
3351.80684	0.97109
3349.75303	0.97144
3347.69923	0.97138
3345.64543	0.97094
3343.59162	0.97051
3341.53782	0.97036
3339.48402	0.97072
3337.43021	0.97142
3335.37641	0.97188
3333.32261	0.97213
3331.26881	0.97225
3329.21500	0.97203
3327.16120	0.97167
3325.10740	0.97126
3323.05359	0.97110
3320.99979	0.97145
3318.94599	0.97164
3316.89218	0.97149
3314.83838	0.97174
3312.78458	0.97214
3310.73077	0.97192
3308.67697	0.97138
3306.62317	0.97146
3304.56936	0.97195
3302.51556	0.97198
3300.46176	0.97167
3298.40795	0.97138
3296.35415	0.97112
3294.30035	0.97097
3292.24654	0.97110
3290.19274	0.97125
3288.13894	0.97105
3286.08513	0.97105
3284.03133	0.97128
3281.97753	0.97141
3279.92372	0.97174
3277.86992	0.97175
3275.81612	0.97148
3273.76232	0.97166
3271.70851	0.97166
3269.65471	0.97108
3267.60091	0.97089
3265.54710	0.97156
3263.49330	0.97225
3261.43950	0.97219
3259.38569	0.97183
3257.33189	0.97201
3255.27809	0.97260
3253.22428	0.97272
3251.17048	0.97222
3249.11668	0.97215
3247.06287	0.97275
3245.00907	0.97321
3242.95527	0.97303
3240.90146	0.97251
3238.84766	0.97246
3236.79386	0.97294
3234.74005	0.97328
3232.68625	0.97309
3230.63245	0.97284
3228.57864	0.97295
3226.52484	0.97315
3224.47104	0.97332
3222.41724	0.97379
3220.36343	0.97464
3218.30963	0.97523
3216.25583	0.97506
3214.20202	0.97478
3212.14822	0.97524
3210.09442	0.97599
3208.04061	0.97584
3205.98681	0.97526
3203.93301	0.97527
3201.87920	0.97536
3199.82540	0.97516
3197.77160	0.97529
3195.71779	0.97583
3193.66399	0.97647
3191.61019	0.97673
3189.55638	0.97622
3187.50258	0.97611
3185.44878	0.97705
3183.39497	0.97758
3181.34117	0.97735
3179.28737	0.97702
3177.23356	0.97673
3175.17976	0.97689
3173.12596	0.97735
3171.07215	0.97779
3169.01835	0.97822
3166.96455	0.97814
3164.91075	0.97762
3162.85694	0.97739
3160.80314	0.97744
3158.74934	0.97763
3156.69553	0.97793
3154.64173	0.97823
3152.58793	0.97865
3150.53412	0.97902
3148.48032	0.97916
3146.42652	0.97933
3144.37271	0.97981
3142.31891	0.98032
3140.26511	0.98026
3138.21130	0.98005
3136.15750	0.98035
3134.10370	0.98054
3132.04989	0.98048
3129.99609	0.98074
3127.94229	0.98112
3125.88848	0.98124
3123.83468	0.98117
3121.78088	0.98122
3119.72707	0.98162
3117.67327	0.98233
3115.61947	0.98272
3113.56566	0.98227
3111.51186	0.98184
3109.45806	0.98198
3107.40426	0.98180
3105.35045	0.98122
3103.29665	0.98132
3101.24285	0.98194
3099.18904	0.98226
3097.13524	0.98235
3095.08144	0.98251
3093.02763	0.98270
3090.97383	0.98268
3088.92003	0.98254
3086.86622	0.98255
3084.81242	0.98262
3082.75862	0.98270
3080.70481	0.98275
3078.65101	0.98272
3076.59721	0.98289
3074.54340	0.98315
3072.48960	0.98326
3070.43580	0.98349
3068.38199	0.98362
3066.32819	0.98347
3064.27439	0.98360
3062.22058	0.98411
3060.16678	0.98431
3058.11298	0.98409
3056.05918	0.98393
3054.00537	0.98391
3051.95157	0.98382
3049.89777	0.98367
3047.84396	0.98370
3045.79016	0.98402
3043.73636	0.98447
3041.68255	0.98479
3039.62875	0.98494
3037.57495	0.98505
3035.52114	0.98513
3033.46734	0.98519
3031.41354	0.98533
3029.35973	0.98546
3027.30593	0.98533
3025.25213	0.98540
3023.19832	0.98583
3021.14452	0.98581
3019.09072	0.98551
3017.03691	0.98576
3014.98311	0.98624
3012.92931	0.98617
3010.87550	0.98570
3008.82170	0.98548
3006.76790	0.98577
3004.71409	0.98619
3002.66029	0.98639
3000.60649	0.98630
2998.55269	0.98609
2996.49888	0.98607
2994.44508	0.98589
2992.39128	0.98527
2990.33747	0.98459
2988.28367	0.98424
2986.22987	0.98435
2984.17606	0.98422
2982.12226	0.98343
2980.06846	0.98254
2978.01465	0.98162
2975.96085	0.98032
2973.90705	0.97858
2971.85324	0.97657
2969.79944	0.97438
2967.74564	0.97178
2965.69183	0.96857
2963.63803	0.96495
2961.58423	0.96154
2959.53042	0.95924
2957.47662	0.95806
2955.42282	0.95679
2953.36901	0.95492
2951.31521	0.95332
2949.26141	0.95304
2947.20761	0.95488
2945.15380	0.95844
2943.10000	0.96223
2941.04620	0.96516
2938.99239	0.96681
2936.93859	0.96696
2934.88479	0.96553
2932.83098	0.96296
2930.77718	0.96001
2928.72338	0.95695
2926.66957	0.95385
2924.61577	0.95096
2922.56197	0.94817
2920.50816	0.94550
2918.45436	0.94376
2916.40056	0.94346
2914.34675	0.94430
2912.29295	0.94579
2910.23915	0.94764
2908.18534	0.94978
2906.13154	0.95246
2904.07774	0.95533
2902.02393	0.95751
2899.97013	0.95924
2897.91633	0.96135
2895.86252	0.96378
2893.80872	0.96574
2891.75492	0.96672
2889.70112	0.96708
2887.64731	0.96725
2885.59351	0.96709
2883.53971	0.96657
2881.48590	0.96613
2879.43210	0.96555
2877.37830	0.96451
2875.32449	0.96384
2873.27069	0.96396
2871.21689	0.96421
2869.16308	0.96427
2867.10928	0.96446
2865.05548	0.96546
2863.00167	0.96773
2860.94787	0.97095
2858.89407	0.97394
2856.84026	0.97582
2854.78646	0.97663
2852.73266	0.97659
2850.67885	0.97593
2848.62505	0.97481
2846.57125	0.97352
2844.51744	0.97208
2842.46364	0.96990
2840.40984	0.96744
2838.35603	0.96591
2836.30223	0.96598
2834.24843	0.96805
2832.19463	0.97162
2830.14082	0.97533
2828.08702	0.97823
2826.03322	0.98023
2823.97941	0.98160
2821.92561	0.98249
2819.87181	0.98304
2817.81800	0.98356
2815.76420	0.98425
2813.71040	0.98484
2811.65659	0.98530
2809.60279	0.98564
2807.54899	0.98573
2805.49518	0.98602
2803.44138	0.98647
2801.38758	0.98659
2799.33377	0.98675
2797.27997	0.98717
2795.22617	0.98749
2793.17236	0.98771
2791.11856	0.98788
2789.06476	0.98806
2787.01095	0.98840
2784.95715	0.98867
2782.90335	0.98864
2780.84955	0.98848
2778.79574	0.98863
2776.74194	0.98931
2774.68814	0.98989
2772.63433	0.98979
2770.58053	0.98945
2768.52673	0.98919
2766.47292	0.98914
2764.41912	0.98943
2762.36532	0.98955
2760.31151	0.98924
2758.25771	0.98920
2756.20391	0.98954
2754.15010	0.98976
2752.09630	0.99005
2750.04250	0.99020
2747.98869	0.99013
2745.93489	0.99032
2743.88109	0.99056
2741.82728	0.99051
2739.77348	0.99016
2737.71968	0.98976
2735.66587	0.98959
2733.61207	0.98955
2731.55827	0.98947
2729.50446	0.98947
2727.45066	0.98977
2725.39686	0.99002
2723.34306	0.98983
2721.28925	0.98955
2719.23545	0.98944
2717.18165	0.98953
2715.12784	0.98973
2713.07404	0.98993
2711.02024	0.99007
2708.96643	0.99001
2706.91263	0.98985
2704.85883	0.98992
2702.80502	0.99009
2700.75122	0.99018
2698.69742	0.99057
2696.64361	0.99094
2694.58981	0.99074
2692.53601	0.99048
2690.48220	0.99049
2688.42840	0.99047
2686.37460	0.99039
2684.32079	0.99039
2682.26699	0.99040
2680.21319	0.99050
2678.15938	0.99070
2676.10558	0.99081
2674.05178	0.99080
2671.99797	0.99071
2669.94417	0.99080
2667.89037	0.99096
2665.83657	0.99079
2663.78276	0.99060
2661.72896	0.99080
2659.67516	0.99114
2657.62135	0.99140
2655.56755	0.99152
2653.51375	0.99125
2651.45994	0.99069
2649.40614	0.99035
2647.35234	0.99040
2645.29853	0.99062
2643.24473	0.99071
2641.19093	0.99051
2639.13712	0.99024
2637.08332	0.99018
2635.02952	0.99037
2632.97571	0.99077
2630.92191	0.99109
2628.86811	0.99109
2626.81430	0.99088
2624.76050	0.99065
2622.70670	0.99049
2620.65289	0.99031
2618.59909	0.99032
2616.54529	0.99066
2614.49149	0.99101
2612.43768	0.99123
2610.38388	0.99113
2608.33008	0.99085
2606.27627	0.99076
2604.22247	0.99078
2602.16867	0.99090
2600.11486	0.99113
2598.06106	0.99167
2596.00726	0.99257
2593.95345	0.99321
2591.89965	0.99337
2589.84585	0.99291
2587.79204	0.99207
2585.73824	0.99173
2583.68444	0.99183
2581.63063	0.99170
2579.57683	0.99151
2577.52303	0.99146
2575.46922	0.99130
2573.41542	0.99151
2571.36162	0.99238
2569.30781	0.99294
2567.25401	0.99318
2565.20021	0.99355
2563.14640	0.99357
2561.09260	0.99289
2559.03880	0.99160
2556.98500	0.99036
2554.93119	0.99004
2552.87739	0.99073
2550.82359	0.99173
2548.76978	0.99248
2546.71598	0.99304
2544.66218	0.99343
2542.60837	0.99337
2540.55457	0.99275
2538.50077	0.99209
2536.44696	0.99191
2534.39316	0.99212
2532.33936	0.99267
2530.28555	0.99308
2528.23175	0.99299
2526.17795	0.99297
2524.12414	0.99305
2522.07034	0.99318
2520.01654	0.99355
2517.96273	0.99359
2515.90893	0.99320
2513.85513	0.99307
2511.80132	0.99335
2509.74752	0.99364
2507.69372	0.99313
2505.63992	0.99212
2503.58611	0.99216
2501.53231	0.99316
2499.47851	0.99379
2497.42470	0.99370
2495.37090	0.99369
2493.31710	0.99414
2491.26329	0.99429
2489.20949	0.99395
2487.15569	0.99361
2485.10188	0.99320
2483.04808	0.99251
2480.99428	0.99192
2478.94047	0.99217
2476.88667	0.99307
2474.83287	0.99371
2472.77906	0.99361
2470.72526	0.99293
2468.67146	0.99233
2466.61765	0.99217
2464.56385	0.99241
2462.51005	0.99276
2460.45624	0.99263
2458.40244	0.99190
2456.34864	0.99157
2454.29483	0.99211
2452.24103	0.99262
2450.18723	0.99272
2448.13343	0.99259
2446.07962	0.99266
2444.02582	0.99338
2441.97202	0.99401
2439.91821	0.99383
2437.86441	0.99330
2435.81061	0.99322
2433.75680	0.99311
2431.70300	0.99243
2429.64920	0.99206
2427.59539	0.99253
2425.54159	0.99305
2423.48779	0.99333
2421.43398	0.99365
2419.38018	0.99345
2417.32638	0.99307
2415.27257	0.99356
2413.21877	0.99393
2411.16497	0.99330
2409.11116	0.99260
2407.05736	0.99248
2405.00356	0.99283
2402.94975	0.99346
2400.89595	0.99375
2398.84215	0.99351
2396.78834	0.99326
2394.73454	0.99331
2392.68074	0.99351
2390.62694	0.99341
2388.57313	0.99309
2386.51933	0.99297
2384.46553	0.99328
2382.41172	0.99375
2380.35792	0.99386
2378.30412	0.99381
2376.25031	0.99372
2374.19651	0.99344
2372.14271	0.99288
2370.08890	0.99192
2368.03510	0.99153
2365.98130	0.99222
2363.92749	0.99297
2361.87369	0.99225
2359.81989	0.99064
2357.76608	0.99139
2355.71228	0.99385
2353.65848	0.99454
2351.60467	0.99360
2349.55087	0.99273
2347.49707	0.99256
2345.44326	0.99295
2343.38946	0.99326
2341.33566	0.99346
2339.28186	0.99354
2337.22805	0.99315
2335.17425	0.99255
2333.12045	0.99192
2331.06664	0.99124
2329.01284	0.99121
2326.95904	0.99171
2324.90523	0.99175
2322.85143	0.99178
2320.79763	0.99223
2318.74382	0.99245
2316.69002	0.99230
2314.63622	0.99169
2312.58241	0.99076
2310.52861	0.99062
2308.47481	0.99160
2306.42100	0.99222
2304.36720	0.99162
2302.31340	0.99098
2300.25959	0.99149
2298.20579	0.99275
2296.15199	0.99347
2294.09818	0.99332
2292.04438	0.99291
2289.99058	0.99250
2287.93677	0.99211
2285.88297	0.99167
2283.82917	0.99126
2281.77537	0.99111
2279.72156	0.99158
2277.66776	0.99243
2275.61396	0.99230
2273.56015	0.99155
2271.50635	0.99164
2269.45255	0.99249
2267.39874	0.99296
2265.34494	0.99233
2263.29114	0.99159
2261.23733	0.99244
2259.18353	0.99447
2257.12973	0.99496
2255.07592	0.99349
2253.02212	0.99261
2250.96832	0.99328
2248.91451	0.99395
2246.86071	0.99328
2244.80691	0.99266
2242.75310	0.99349
2240.69930	0.99455
2238.64550	0.99422
2236.59169	0.99227
2234.53789	0.99100
2232.48409	0.99186
2230.43029	0.99356
2228.37648	0.99524
2226.32268	0.99619
2224.26888	0.99612
2222.21507	0.99481
2220.16127	0.99260
2218.10747	0.99250
2216.05366	0.99436
2213.99986	0.99501
2211.94606	0.99471
2209.89225	0.99396
2207.83845	0.99284
2205.78465	0.99318
2203.73084	0.99463
2201.67704	0.99481
2199.62324	0.99366
2197.56943	0.99304
2195.51563	0.99334
2193.46183	0.99343
2191.40802	0.99291
2189.35422	0.99322
2187.30042	0.99489
2185.24661	0.99517
2183.19281	0.99396
2181.13901	0.99491
2179.08520	0.99740
2177.03140	0.99760
2174.97760	0.99460
2172.92380	0.99237
2170.86999	0.99488
2168.81619	0.99796
2166.76239	0.99617
2164.70858	0.99308
2162.65478	0.99255
2160.60098	0.99249
2158.54717	0.99327
2156.49337	0.99575
2154.43957	0.99607
2152.38576	0.99440
2150.33196	0.99449
2148.27816	0.99616
2146.22435	0.99719
2144.17055	0.99691
2142.11675	0.99552
2140.06294	0.99477
2138.00914	0.99585
2135.95534	0.99753
2133.90153	0.99853
2131.84773	0.99810
2129.79393	0.99721
2127.74012	0.99630
2125.68632	0.99468
2123.63252	0.99313
2121.57871	0.99226
2119.52491	0.99217
2117.47111	0.99219
2115.41731	0.99232
2113.36350	0.99368
2111.30970	0.99511
2109.25590	0.99498
2107.20209	0.99384
2105.14829	0.99320
2103.09449	0.99304
2101.04068	0.99288
2098.98688	0.99316
2096.93308	0.99368
2094.87927	0.99392
2092.82547	0.99410
2090.77167	0.99449
2088.71786	0.99430
2086.66406	0.99325
2084.61026	0.99294
2082.55645	0.99312
2080.50265	0.99238
2078.44885	0.99162
2076.39504	0.99121
2074.34124	0.99143
2072.28744	0.99361
2070.23363	0.99617
2068.17983	0.99667
2066.12603	0.99555
2064.07223	0.99414
2062.01842	0.99318
2059.96462	0.99329
2057.91082	0.99443
2055.85701	0.99584
2053.80321	0.99600
2051.74941	0.99462
2049.69560	0.99440
2047.64180	0.99545
2045.58800	0.99414
2043.53419	0.99128
2041.48039	0.99221
2039.42659	0.99678
2037.37278	0.99862
2035.31898	0.99720
2033.26518	0.99603
2031.21137	0.99489
2029.15757	0.99439
2027.10377	0.99554
2025.04996	0.99606
2022.99616	0.99494
2020.94236	0.99393
2018.88855	0.99403
2016.83475	0.99428
2014.78095	0.99346
2012.72714	0.99272
2010.67334	0.99286
2008.61954	0.99292
2006.56574	0.99327
2004.51193	0.99503
2002.45813	0.99663
2000.40433	0.99646
1998.35052	0.99590
1996.29672	0.99582
1994.24292	0.99525
1992.18911	0.99349
1990.13531	0.99235
1988.08151	0.99418
1986.02770	0.99689
1983.97390	0.99720
1981.92010	0.99538
1979.86629	0.99310
1977.81249	0.99142
1975.75869	0.99157
1973.70488	0.99351
1971.65108	0.99512
1969.59728	0.99432
1967.54347	0.99338
1965.48967	0.99471
1963.43587	0.99585
1961.38206	0.99605
1959.32826	0.99603
1957.27446	0.99605
1955.22066	0.99605
1953.16685	0.99585
1951.11305	0.99606
1949.05925	0.99596
1947.00544	0.99536
1944.95164	0.99502
1942.89784	0.99406
1940.84403	0.99271
1938.79023	0.99217
1936.73643	0.99246
1934.68262	0.99410
1932.62882	0.99604
1930.57502	0.99546
1928.52121	0.99317
1926.46741	0.99215
1924.41361	0.99289
1922.35980	0.99392
1920.30600	0.99444
1918.25220	0.99466
1916.19839	0.99419
1914.14459	0.99333
1912.09079	0.99346
1910.03698	0.99484
1907.98318	0.99582
1905.92938	0.99541
1903.87557	0.99488
1901.82177	0.99492
1899.76797	0.99513
1897.71417	0.99525
1895.66036	0.99504
1893.60656	0.99439
1891.55276	0.99399
1889.49895	0.99415
1887.44515	0.99412
1885.39135	0.99388
1883.33754	0.99438
1881.28374	0.99515
1879.22994	0.99473
1877.17613	0.99369
1875.12233	0.99377
1873.06853	0.99459
1871.01472	0.99458
1868.96092	0.99380
1866.90712	0.99357
1864.85331	0.99388
1862.79951	0.99421
1860.74571	0.99429
1858.69190	0.99385
1856.63810	0.99324
1854.58430	0.99310
1852.53049	0.99351
1850.47669	0.99375
1848.42289	0.99364
1846.36908	0.99366
1844.31528	0.99397
1842.26148	0.99429
1840.20768	0.99435
1838.15387	0.99416
1836.10007	0.99389
1834.04627	0.99378
1831.99246	0.99408
1829.93866	0.99436
1827.88486	0.99408
1825.83105	0.99416
1823.77725	0.99448
1821.72345	0.99415
1819.66964	0.99377
1817.61584	0.99385
1815.56204	0.99414
1813.50823	0.99418
1811.45443	0.99382
1809.40063	0.99348
1807.34682	0.99338
1805.29302	0.99339
1803.23922	0.99352
1801.18541	0.99359
1799.13161	0.99351
1797.07781	0.99341
1795.02400	0.99335
1792.97020	0.99338
1790.91640	0.99339
1788.86260	0.99331
1786.80879	0.99320
1784.75499	0.99328
1782.70119	0.99360
1780.64738	0.99385
1778.59358	0.99379
1776.53978	0.99359
1774.48597	0.99350
1772.43217	0.99353
1770.37837	0.99380
1768.32456	0.99395
1766.27076	0.99369
1764.21696	0.99313
1762.16315	0.99239
1760.10935	0.99206
1758.05555	0.99223
1756.00174	0.99205
1753.94794	0.99141
1751.89414	0.99100
1749.84033	0.99098
1747.78653	0.99121
1745.73273	0.99152
1743.67892	0.99157
1741.62512	0.99144
1739.57132	0.99110
1737.51751	0.99056
1735.46371	0.99017
1733.40991	0.99009
1731.35611	0.99013
1729.30230	0.98987
1727.24850	0.98958
1725.19470	0.98950
1723.14089	0.98954
1721.08709	0.98961
1719.03329	0.98950
1716.97948	0.98907
1714.92568	0.98843
1712.87188	0.98789
1710.81807	0.98762
1708.76427	0.98761
1706.71047	0.98748
1704.65666	0.98699
1702.60286	0.98632
1700.54906	0.98531
1698.49525	0.98441
1696.44145	0.98384
1694.38765	0.98308
1692.33384	0.98242
1690.28004	0.98170
1688.22624	0.98098
1686.17243	0.98046
1684.11863	0.97918
1682.06483	0.97739
1680.01103	0.97660
1677.95722	0.97628
1675.90342	0.97549
1673.84962	0.97387
1671.79581	0.97248
1669.74201	0.97181
1667.68821	0.97137
1665.63440	0.97079
1663.58060	0.96994
1661.52680	0.96876
1659.47299	0.96790
1657.41919	0.96766
1655.36539	0.96767
1653.31158	0.96723
1651.25778	0.96648
1649.20398	0.96624
1647.15017	0.96617
1645.09637	0.96616
1643.04257	0.96622
1640.98876	0.96651
1638.93496	0.96694
1636.88116	0.96687
1634.82735	0.96632
1632.77355	0.96633
1630.71975	0.96675
1628.66594	0.96749
1626.61214	0.96845
1624.55834	0.96911
1622.50454	0.96944
1620.45073	0.96965
1618.39693	0.96998
1616.34313	0.97083
1614.28932	0.97169
1612.23552	0.97214
1610.18172	0.97252
1608.12791	0.97298
1606.07411	0.97371
1604.02031	0.97450
1601.96650	0.97499
1599.91270	0.97535
1597.85890	0.97581
1595.80509	0.97616
1593.75129	0.97639
1591.69749	0.97665
1589.64368	0.97670
1587.58988	0.97686
1585.53608	0.97747
1583.48227	0.97795
1581.42847	0.97818
1579.37467	0.97838
1577.32086	0.97838
1575.26706	0.97823
1573.21326	0.97833
1571.15945	0.97842
1569.10565	0.97826
1567.05185	0.97822
1564.99805	0.97820
1562.94424	0.97806
1560.89044	0.97815
1558.83664	0.97802
1556.78283	0.97698
1554.72903	0.97628
1552.67523	0.97620
1550.62142	0.97645
1548.56762	0.97674
1546.51382	0.97707
1544.46001	0.97745
1542.40621	0.97791
1540.35241	0.97823
1538.29860	0.97821
1536.24480	0.97833
1534.19100	0.97848
1532.13719	0.97857
1530.08339	0.97884
1528.02959	0.97928
1525.97578	0.97971
1523.92198	0.97978
1521.86818	0.97975
1519.81437	0.98037
1517.76057	0.98123
1515.70677	0.98191
1513.65297	0.98233
1511.59916	0.98261
1509.54536	0.98291
1507.49156	0.98318
1505.43775	0.98356
1503.38395	0.98421
1501.33015	0.98484
1499.27634	0.98522
1497.22254	0.98534
1495.16874	0.98540
1493.11493	0.98542
1491.06113	0.98541
1489.00733	0.98555
1486.95352	0.98563
1484.89972	0.98525
1482.84592	0.98474
1480.79211	0.98429
1478.73831	0.98365
1476.68451	0.98265
1474.63070	0.98104
1472.57690	0.97825
1470.52310	0.97515
1468.46929	0.97245
1466.41549	0.96920
1464.36169	0.96532
1462.30788	0.96244
1460.25408	0.96081
1458.20028	0.95930
1456.14648	0.95782
1454.09267	0.95761
1452.03887	0.95818
1449.98507	0.95946
1447.93126	0.96230
1445.87746	0.96616
1443.82366	0.96916
1441.76985	0.97083
1439.71605	0.97155
1437.66225	0.97186
1435.60844	0.97224
1433.55464	0.97331
1431.50084	0.97508
1429.44703	0.97680
1427.39323	0.97779
1425.33943	0.97833
1423.28562	0.97867
1421.23182	0.97870
1419.17802	0.97868
1417.12421	0.97884
1415.07041	0.97885
1413.01661	0.97875
1410.96280	0.97876
1408.90900	0.97899
1406.85520	0.97950
1404.80139	0.97994
1402.74759	0.98003
1400.69379	0.98017
1398.63999	0.98046
1396.58618	0.98046
1394.53238	0.98027
1392.47858	0.98043
1390.42477	0.98074
1388.37097	0.98048
1386.31717	0.97902
1384.26336	0.97591
1382.20956	0.97019
1380.15576	0.96137
1378.10195	0.95167
1376.04815	0.94630
1373.99435	0.94950
1371.94054	0.95815
1369.88674	0.96606
1367.83294	0.97150
1365.77913	0.97435
1363.72533	0.97515
1361.67153	0.97469
1359.61772	0.97407
1357.56392	0.97432
1355.51012	0.97569
1353.45631	0.97752
1351.40251	0.97886
1349.34871	0.97959
1347.29491	0.98035
1345.24110	0.98122
1343.18730	0.98189
1341.13350	0.98216
1339.07969	0.98201
1337.02589	0.98180
1334.97209	0.98176
1332.91828	0.98173
1330.86448	0.98163
1328.81068	0.98164
1326.75687	0.98183
1324.70307	0.98211
1322.64927	0.98245
1320.59546	0.98274
1318.54166	0.98293
1316.48786	0.98303
1314.43405	0.98282
1312.38025	0.98237
1310.32645	0.98220
1308.27264	0.98212
1306.21884	0.98178
1304.16504	0.98159
1302.11123	0.98185
1300.05743	0.98203
1298.00363	0.98197
1295.94982	0.98192
1293.89602	0.98187
1291.84222	0.98189
1289.78842	0.98183
1287.73461	0.98155
1285.68081	0.98134
1283.62701	0.98125
1281.57320	0.98115
1279.51940	0.98104
1277.46560	0.98103
1275.41179	0.98106
1273.35799	0.98094
1271.30419	0.98066
1269.25038	0.98055
1267.19658	0.98054
1265.14278	0.98017
1263.08897	0.97950
1261.03517	0.97892
1258.98137	0.97843
1256.92756	0.97788
1254.87376	0.97733
1252.81996	0.97706
1250.76615	0.97741
1248.71235	0.97803
1246.65855	0.97818
1244.60474	0.97790
1242.55094	0.97758
1240.49714	0.97709
1238.44334	0.97650
1236.38953	0.97634
1234.33573	0.97640
1232.28193	0.97621
1230.22812	0.97588
1228.17432	0.97554
1226.12052	0.97522
1224.06671	0.97500
1222.01291	0.97468
1219.95911	0.97396
1217.90530	0.97323
1215.85150	0.97314
1213.79770	0.97328
1211.74389	0.97284
1209.69009	0.97200
1207.63629	0.97136
1205.58248	0.97108
1203.52868	0.97075
1201.47488	0.96992
1199.42107	0.96882
1197.36727	0.96793
1195.31347	0.96711
1193.25966	0.96615
1191.20586	0.96532
1189.15206	0.96434
1187.09825	0.96310
1185.04445	0.96192
1182.99065	0.96062
1180.93685	0.95918
1178.88304	0.95775
1176.82924	0.95612
1174.77544	0.95422
1172.72163	0.95212
1170.66783	0.95002
1168.61403	0.94815
1166.56022	0.94665
1164.50642	0.94597
1162.45262	0.94593
1160.39881	0.94559
1158.34501	0.94477
1156.29121	0.94388
1154.23740	0.94308
1152.18360	0.94236
1150.12980	0.94182
1148.07599	0.94130
1146.02219	0.94061
1143.96839	0.93983
1141.91458	0.93909
1139.86078	0.93847
1137.80698	0.93795
1135.75317	0.93749
1133.69937	0.93704
1131.64557	0.93637
1129.59176	0.93511
1127.53796	0.93350
1125.48416	0.93214
1123.43036	0.93087
1121.37655	0.92901
1119.32275	0.92689
1117.26895	0.92496
1115.21514	0.92292
1113.16134	0.92095
1111.10754	0.91943
1109.05373	0.91800
1106.99993	0.91640
1104.94613	0.91473
1102.89232	0.91298
1100.83852	0.91144
1098.78472	0.91036
1096.73091	0.90962
1094.67711	0.90899
1092.62331	0.90829
1090.56950	0.90774
1088.51570	0.90764
1086.46190	0.90778
1084.40809	0.90797
1082.35429	0.90823
1080.30049	0.90819
1078.24668	0.90788
1076.19288	0.90763
1074.13908	0.90755
1072.08528	0.90735
1070.03147	0.90689
1067.97767	0.90622
1065.92387	0.90482
1063.87006	0.90322
1061.81626	0.90241
1059.76246	0.90159
1057.70865	0.89986
1055.65485	0.89776
1053.60105	0.89597
1051.54724	0.89434
1049.49344	0.89237
1047.43964	0.89005
1045.38583	0.88784
1043.33203	0.88585
1041.27823	0.88361
1039.22442	0.88135
1037.17062	0.87991
1035.11682	0.87907
1033.06301	0.87827
1031.00921	0.87769
1028.95541	0.87779
1026.90160	0.87834
1024.84780	0.87869
1022.79400	0.87894
1020.74019	0.87941
1018.68639	0.87990
1016.63259	0.88019
1014.57879	0.87968
1012.52498	0.87857
1010.47118	0.87802
1008.41738	0.87774
1006.36357	0.87710
1004.30977	0.87677
1002.25597	0.87713
1000.20216	0.87751
998.14836	0.87845
996.09456	0.88114
994.04075	0.88473
991.98695	0.88834
989.93315	0.89238
987.87934	0.89662
985.82554	0.90038
983.77174	0.90368
981.71793	0.90657
979.66413	0.90858
977.61033	0.90951
975.55652	0.91015
973.50272	0.91209
971.44892	0.91597
969.39511	0.92066
967.34131	0.92491
965.28751	0.92840
963.23371	0.93147
961.17990	0.93433
959.12610	0.93675
957.07230	0.93865
955.01849	0.94018
952.96469	0.94152
950.91089	0.94257
948.85708	0.94326
946.80328	0.94405
944.74948	0.94498
942.69567	0.94546
940.64187	0.94559
938.58807	0.94599
936.53426	0.94649
934.48046	0.94699
932.42666	0.94762
930.37285	0.94810
928.31905	0.94820
926.26525	0.94805
924.21144	0.94779
922.15764	0.94731
920.10384	0.94627
918.05003	0.94479
915.99623	0.94388
913.94243	0.94406
911.88862	0.94481
909.83482	0.94568
907.78102	0.94652
905.72722	0.94755
903.67341	0.94879
901.61961	0.95012
899.56581	0.95176
897.51200	0.95389
895.45820	0.95634
893.40440	0.95831
891.35059	0.95944
889.29679	0.96027
887.24299	0.96104
885.18918	0.96192
883.13538	0.96269
881.08158	0.96270
879.02777	0.96246
876.97397	0.96299
874.92017	0.96414
872.86636	0.96505
870.81256	0.96565
868.75876	0.96619
866.70495	0.96624
864.65115	0.96608
862.59735	0.96640
860.54354	0.96701
858.48974	0.96775
856.43594	0.96792
854.38213	0.96710
852.32833	0.96658
850.27453	0.96735
848.22073	0.96805
846.16692	0.96679
844.11312	0.96378
842.05932	0.96106
840.00551	0.96080
837.95171	0.96273
835.89791	0.96460
833.84410	0.96549
831.79030	0.96570
829.73650	0.96574
827.68269	0.96592
825.62889	0.96585
823.57509	0.96585
821.52128	0.96616
819.46748	0.96602
817.41368	0.96519
815.35987	0.96403
813.30607	0.96266
811.25227	0.96108
809.19846	0.95912
807.14466	0.95698
805.09086	0.95562
803.03705	0.95464
800.98325	0.95316
798.92945	0.95207
796.87565	0.95231
794.82184	0.95339
792.76804	0.95390
790.71424	0.95362
788.66043	0.95345
786.60663	0.95353
784.55283	0.95355
782.49902	0.95312
780.44522	0.95231
778.39142	0.95210
776.33761	0.95277
774.28381	0.95355
772.23001	0.95433
770.17620	0.95518
768.12240	0.95594
766.06860	0.95626
764.01479	0.95542
761.96099	0.95453
759.90719	0.95457
757.85338	0.95409
755.79958	0.95319
753.74578	0.95341
751.69197	0.95447
749.63817	0.95520
747.58437	0.95517
745.53056	0.95487
743.47676	0.95503
741.42296	0.95517
739.36916	0.95437
737.31535	0.95332
735.26155	0.95313
733.20775	0.95382
731.15394	0.95443
729.10014	0.95465
727.04634	0.95477
724.99253	0.95481
722.93873	0.95458
720.88493	0.95440
718.83112	0.95471
716.77732	0.95487
714.72352	0.95429
712.66971	0.95311
710.61591	0.95163
708.56211	0.95042
706.50830	0.94949
704.45450	0.94841
702.40070	0.94722
700.34689	0.94560
698.29309	0.94362
696.23929	0.94273
694.18548	0.94287
692.13168	0.94288
690.07788	0.94299
688.02408	0.94389
685.97027	0.94473
683.91647	0.94406
681.86267	0.94315
679.80886	0.94399
677.75506	0.94548
675.70126	0.94605
673.64745	0.94606
671.59365	0.94645
669.53985	0.94631
667.48604	0.94462
665.43224	0.94409
663.37844	0.94415
661.32463	0.94376
659.27083	0.94325
657.21703	0.94239
655.16322	0.94189
653.10942	0.94163
651.05562	0.94086
649.00181	0.94035
646.94801	0.94048
644.89421	0.94149
642.84040	0.94271
640.78660	0.94258
638.73280	0.94183
636.67899	0.94181
634.62519	0.94254
632.57139	0.94315
630.51759	0.94292
628.46378	0.94243
626.40998	0.94207
624.35618	0.94162
622.30237	0.94167
620.24857	0.94197
618.19477	0.94065
616.14096	0.93827
614.08716	0.93707
612.03336	0.93630
609.97955	0.93493
607.92575	0.93386
605.87195	0.93332
603.81814	0.93267
601.76434	0.93209
599.71054	0.93125
597.65673	0.92900
595.60293	0.92642
593.54913	0.92618
591.49532	0.92735
589.44152	0.92691
587.38772	0.92563
585.33391	0.92498
583.28011	0.92452
581.22631	0.92458
579.17250	0.92480
577.11870	0.92422
575.06490	0.92361
573.01110	0.92362
570.95729	0.92310
568.90349	0.92158
566.84969	0.92088
564.79588	0.92044
562.74208	0.91914
560.68828	0.91818
558.63447	0.91702
556.58067	0.91568
554.52687	0.91555
552.47306	0.91460
550.41926	0.91132
548.36546	0.90894
546.31165	0.90814
544.25785	0.90597
542.20405	0.90283
540.15024	0.90031
538.09644	0.89826
536.04264	0.89594
533.98883	0.89326
531.93503	0.89174
529.88123	0.89242
527.82742	0.89494
525.77362	0.89825
523.71982	0.90100
521.66602	0.90311
519.61221	0.90400
517.55841	0.90422
515.50461	0.90585
513.45080	0.90708
511.39700	0.90682
509.34320	0.90744
507.28939	0.91073
505.23559	0.91419
503.18179	0.91385
501.12798	0.91136
499.07418	0.91122
497.02038	0.91340
494.96657	0.91384
492.91277	0.91138
490.85897	0.90940
488.80516	0.90913
486.75136	0.90887
484.69756	0.90614
482.64375	0.90034
480.58995	0.89394
478.53615	0.88826
476.48234	0.88440
474.42854	0.88094
472.37474	0.87545
470.32093	0.87107
468.26713	0.86949
466.21333	0.86892
464.15953	0.86871
462.10572	0.87025
460.05192	0.87589
457.99812	0.88394
455.94431	0.88867
453.89051	0.88910
451.83671	0.88719
449.78290	0.88427
447.72910	0.88354
445.67530	0.88725
443.62149	0.89189
441.56769	0.89257
439.51389	0.88973
437.46008	0.88750
435.40628	0.88816
433.35248	0.89023
431.29867	0.89070
429.24487	0.88807
427.19107	0.88549
425.13726	0.88679
423.08346	0.89018
421.02966	0.89249
418.97585	0.89596
416.92205	0.89751
414.86825	0.89206
412.81445	0.88690
410.76064	0.88997
408.70684	0.90058
406.65304	0.91091
404.59923	0.91533
402.54543	0.91593
400.49163	0.91556
398.43782	0.91538
