3996.70104	0.98672
3994.64724	0.98637
3992.59344	0.98628
3990.53964	0.98660
3988.48583	0.98655
3986.43203	0.98620
3984.37823	0.98604
3982.32442	0.98626
3980.27062	0.98672
3978.21682	0.98689
3976.16301	0.98664
3974.10921	0.98644
3972.05541	0.98668
3970.00160	0.98682
3967.94780	0.98643
3965.89400	0.98624
3963.84019	0.98635
3961.78639	0.98622
3959.73259	0.98635
3957.67878	0.98693
3955.62498	0.98730
3953.57118	0.98730
3951.51737	0.98733
3949.46357	0.98758
3947.40977	0.98772
3945.35596	0.98771
3943.30216	0.98774
3941.24836	0.98762
3939.19455	0.98720
3937.14075	0.98670
3935.08695	0.98641
3933.03315	0.98661
3930.97934	0.98735
3928.92554	0.98793
3926.87174	0.98793
3924.81793	0.98787
3922.76413	0.98786
3920.71033	0.98802
3918.65652	0.98854
3916.60272	0.98853
3914.54892	0.98767
3912.49511	0.98710
3910.44131	0.98723
3908.38751	0.98750
3906.33370	0.98769
3904.27990	0.98803
3902.22610	0.98824
3900.17229	0.98797
3898.11849	0.98735
3896.06469	0.98689
3894.01088	0.98701
3891.95708	0.98759
3889.90328	0.98770
3887.84947	0.98723
3885.79567	0.98701
3883.74187	0.98731
3881.68807	0.98780
3879.63426	0.98803
3877.58046	0.98808
3875.52666	0.98810
3873.47285	0.98732
3871.41905	0.98642
3869.36525	0.98716
3867.31144	0.98833
3865.25764	0.98838
3863.20384	0.98740
3861.15003	0.98673
3859.09623	0.98683
3857.04243	0.98708
3854.98862	0.98767
3852.93482	0.98850
3850.88102	0.98803
3848.82721	0.98725
3846.77341	0.98713
3844.71961	0.98774
3842.66580	0.98850
3840.61200	0.98889
3838.55820	0.98907
3836.50439	0.98883
3834.45059	0.98854
3832.39679	0.98857
3830.34298	0.98852
3828.28918	0.98818
3826.23538	0.98770
3824.18158	0.98728
3822.12777	0.98737
3820.07397	0.98816
3818.02017	0.98859
3815.96636	0.98870
3813.91256	0.98872
3811.85876	0.98849
3809.80495	0.98801
3807.75115	0.98755
3805.69735	0.98762
3803.64354	0.98786
3801.58974	0.98809
3799.53594	0.98776
3797.48213	0.98716
3795.42833	0.98756
3793.37453	0.98840
3791.32072	0.98838
3789.26692	0.98780
3787.21312	0.98763
3785.15931	0.98792
3783.10551	0.98806
3781.05171	0.98813
3778.99790	0.98849
3776.94410	0.98871
3774.89030	0.98865
3772.83650	0.98835
3770.78269	0.98810
3768.72889	0.98829
3766.67509	0.98850
3764.62128	0.98860
3762.56748	0.98857
3760.51368	0.98832
3758.45987	0.98820
3756.40607	0.98875
3754.35227	0.98959
3752.29846	0.98983
3750.24466	0.98951
3748.19086	0.98908
3746.13705	0.98850
3744.08325	0.98858
3742.02945	0.98903
3739.97564	0.98917
3737.92184	0.98992
3735.86804	0.99123
3733.81423	0.99111
3731.76043	0.99031
3729.70663	0.99021
3727.65282	0.98991
3725.59902	0.98888
3723.54522	0.98834
3721.49141	0.98846
3719.43761	0.98811
3717.38381	0.98805
3715.33001	0.98842
3713.27620	0.98807
3711.22240	0.98678
3709.16860	0.98481
3707.11479	0.98256
3705.06099	0.98067
3703.00719	0.97924
3700.95338	0.97789
3698.89958	0.97676
3696.84578	0.97623
3694.79197	0.97591
3692.73817	0.97547
3690.68437	0.97563
3688.63056	0.97716
3686.57676	0.97853
3684.52296	0.97899
3682.46915	0.97916
3680.41535	0.97943
3678.36155	0.97984
3676.30774	0.98021
3674.25394	0.98042
3672.20014	0.98062
3670.14633	0.98061
3668.09253	0.97977
3666.03873	0.97869
3663.98492	0.97773
3661.93112	0.97739
3659.87732	0.97767
3657.82352	0.97751
3655.76971	0.97679
3653.71591	0.97586
3651.66211	0.97490
3649.60830	0.97451
3647.55450	0.97489
3645.50070	0.97505
3643.44689	0.97490
3641.39309	0.97482
3639.33929	0.97471
3637.28548	0.97431
3635.23168	0.97390
3633.17788	0.97344
3631.12407	0.97259
3629.07027	0.97117
3627.01647	0.97001
3624.96266	0.96962
3622.90886	0.96932
3620.85506	0.96934
3618.80125	0.97031
3616.74745	0.97164
3614.69365	0.97315
3612.63984	0.97414
3610.58604	0.97342
3608.53224	0.97208
3606.47844	0.97142
3604.42463	0.97132
3602.37083	0.97134
3600.31703	0.97192
3598.26322	0.97242
3596.20942	0.97196
3594.15562	0.97176
3592.10181	0.97190
3590.04801	0.97159
3587.99421	0.97114
3585.94040	0.97102
3583.88660	0.97131
3581.83280	0.97153
3579.77899	0.97144
3577.72519	0.97157
3575.67139	0.97198
3573.61758	0.97190
3571.56378	0.97149
3569.50998	0.97147
3567.45617	0.97156
3565.40237	0.97117
3563.34857	0.97059
3561.29476	0.96999
3559.24096	0.96961
3557.18716	0.96973
3555.13335	0.97018
3553.07955	0.97070
3551.02575	0.97094
3548.97195	0.97099
3546.91814	0.97115
3544.86434	0.97072
3542.81054	0.96981
3540.75673	0.96928
3538.70293	0.96915
3536.64913	0.96918
3534.59532	0.96897
3532.54152	0.96876
3530.48772	0.96895
3528.43391	0.96934
3526.38011	0.96963
3524.32631	0.96913
3522.27250	0.96817
3520.21870	0.96809
3518.16490	0.96850
3516.11109	0.96844
3514.05729	0.96809
3512.00349	0.96802
3509.94968	0.96861
3507.89588	0.96931
3505.84208	0.96925
3503.78827	0.96862
3501.73447	0.96807
3499.68067	0.96801
3497.62687	0.96820
3495.57306	0.96799
3493.51926	0.96747
3491.46546	0.96729
3489.41165	0.96769
3487.35785	0.96812
3485.30405	0.96803
3483.25024	0.96767
3481.19644	0.96764
3479.14264	0.96832
3477.08883	0.96917
3475.03503	0.96906
3472.98123	0.96771
3470.92742	0.96660
3468.87362	0.96693
3466.81982	0.96742
3464.76601	0.96720
3462.71221	0.96708
3460.65841	0.96706
3458.60460	0.96678
3456.55080	0.96640
3454.49700	0.96591
3452.44319	0.96559
3450.38939	0.96568
3448.33559	0.96586
3446.28178	0.96587
3444.22798	0.96576
3442.17418	0.96569
3440.12038	0.96562
3438.06657	0.96561
3436.01277	0.96565
3433.95897	0.96531
3431.90516	0.96464
3429.85136	0.96446
3427.79756	0.96496
3425.74375	0.96524
3423.68995	0.96517
3421.63615	0.96495
3419.58234	0.96425
3417.52854	0.96347
3415.47474	0.96308
3413.42093	0.96296
3411.36713	0.96312
3409.31333	0.96337
3407.25952	0.96336
3405.20572	0.96326
3403.15192	0.96309
3401.09811	0.96295
3399.04431	0.96298
3396.99051	0.96269
3394.93670	0.96227
3392.88290	0.96221
3390.82910	0.96222
3388.77529	0.96205
3386.72149	0.96220
3384.66769	0.96270
3382.61389	0.96265
3380.56008	0.96221
3378.50628	0.96221
3376.45248	0.96257
3374.39867	0.96274
3372.34487	0.96255
3370.29107	0.96235
3368.23726	0.96267
3366.18346	0.96331
3364.12966	0.96367
3362.07585	0.96366
3360.02205	0.96351
3357.96825	0.96343
3355.91444	0.96341
3353.86064	0.96348
3351.80684	0.96381
3349.75303	0.96402
3347.69923	0.96365
3345.64543	0.96335
3343.59162	0.96354
3341.53782	0.96391
3339.48402	0.96424
3337.43021	0.96434
3335.37641	0.96415
3333.32261	0.96396
3331.26881	0.96389
3329.21500	0.96390
3327.16120	0.96405
3325.10740	0.96416
3323.05359	0.96414
3320.99979	0.96410
3318.94599	0.96399
3316.89218	0.96400
3314.83838	0.96440
3312.78458	0.96480
3310.73077	0.96462
3308.67697	0.96437
3306.62317	0.96445
3304.56936	0.96438
3302.51556	0.96404
3300.46176	0.96376
3298.40795	0.96407
3296.35415	0.96493
3294.30035	0.96496
3292.24654	0.96419
3290.19274	0.96411
3288.13894	0.96431
3286.08513	0.96406
3284.03133	0.96396
3281.97753	0.96406
3279.92372	0.96399
3277.86992	0.96416
3275.81612	0.96471
3273.76232	0.96518
3271.70851	0.96527
3269.65471	0.96503
3267.60091	0.96477
3265.54710	0.96472
3263.49330	0.96483
3261.43950	0.96482
3259.38569	0.96462
3257.33189	0.96421
3255.27809	0.96398
3253.22428	0.96447
3251.17048	0.96530
3249.11668	0.96589
3247.06287	0.96630
3245.00907	0.96681
3242.95527	0.96700
3240.90146	0.96649
3238.84766	0.96580
3236.79386	0.96554
3234.74005	0.96583
3232.68625	0.96627
3230.63245	0.96647
3228.57864	0.96639
3226.52484	0.96634
3224.47104	0.96647
3222.41724	0.96697
3220.36343	0.96784
3218.30963	0.96803
3216.25583	0.96755
3214.20202	0.96746
3212.14822	0.96761
3210.09442	0.96792
3208.04061	0.96828
3205.98681	0.96816
3203.93301	0.96791
3201.87920	0.96816
3199.82540	0.96884
3197.77160	0.96931
3195.71779	0.96882
3193.66399	0.96817
3191.61019	0.96843
3189.55638	0.96880
3187.50258	0.96868
3185.44878	0.96863
3183.39497	0.96878
3181.34117	0.96908
3179.28737	0.96949
3177.23356	0.96975
3175.17976	0.96954
3173.12596	0.96912
3171.07215	0.96940
3169.01835	0.97033
3166.96455	0.97089
3164.91075	0.97072
3162.85694	0.97046
3160.80314	0.97072
3158.74934	0.97105
3156.69553	0.97100
3154.64173	0.97060
3152.58793	0.97033
3150.53412	0.97072
3148.48032	0.97168
3146.42652	0.97238
3144.37271	0.97229
3142.31891	0.97212
3140.26511	0.97242
3138.21130	0.97286
3136.15750	0.97278
3134.10370	0.97200
3132.04989	0.97159
3129.99609	0.97224
3127.94229	0.97313
3125.88848	0.97334
3123.83468	0.97321
3121.78088	0.97336
3119.72707	0.97366
3117.67327	0.97360
3115.61947	0.97330
3113.56566	0.97329
3111.51186	0.97351
3109.45806	0.97373
3107.40426	0.97386
3105.35045	0.97378
3103.29665	0.97375
3101.24285	0.97386
3099.18904	0.97386
3097.13524	0.97410
3095.08144	0.97464
3093.02763	0.97485
3090.97383	0.97488
3088.92003	0.97505
3086.86622	0.97508
3084.81242	0.97479
3082.75862	0.97454
3080.70481	0.97454
3078.65101	0.97454
3076.59721	0.97460
3074.54340	0.97517
3072.48960	0.97563
3070.43580	0.97542
3068.38199	0.97542
3066.32819	0.97576
3064.27439	0.97556
3062.22058	0.97512
3060.16678	0.97513
3058.11298	0.97548
3056.05918	0.97595
3054.00537	0.97619
3051.95157	0.97631
3049.89777	0.97681
3047.84396	0.97724
3045.79016	0.97712
3043.73636	0.97675
3041.68255	0.97653
3039.62875	0.97664
3037.57495	0.97701
3035.52114	0.97750
3033.46734	0.97797
3031.41354	0.97792
3029.35973	0.97740
3027.30593	0.97717
3025.25213	0.97736
3023.19832	0.97751
3021.14452	0.97748
3019.09072	0.97767
3017.03691	0.97832
3014.98311	0.97897
3012.92931	0.97900
3010.87550	0.97854
3008.82170	0.97804
3006.76790	0.97775
3004.71409	0.97800
3002.66029	0.97859
3000.60649	0.97858
2998.55269	0.97790
2996.49888	0.97742
2994.44508	0.97755
2992.39128	0.97799
2990.33747	0.97828
2988.28367	0.97827
2986.22987	0.97794
2984.17606	0.97735
2982.12226	0.97687
2980.06846	0.97676
2978.01465	0.97679
2975.96085	0.97643
2973.90705	0.97534
2971.85324	0.97375
2969.79944	0.97205
2967.74564	0.97023
2965.69183	0.96833
2963.63803	0.96649
2961.58423	0.96489
2959.53042	0.96375
2957.47662	0.96301
2955.42282	0.96242
2953.36901	0.96156
2951.31521	0.96075
2949.26141	0.96077
2947.20761	0.96171
2945.15380	0.96314
2943.10000	0.96415
2941.04620	0.96367
2938.99239	0.96184
2936.93859	0.95948
2934.88479	0.95663
2932.83098	0.95332
2930.77718	0.94955
2928.72338	0.94503
2926.66957	0.94015
2924.61577	0.93535
2922.56197	0.93041
2920.50816	0.92547
2918.45436	0.92148
2916.40056	0.91978
2914.34675	0.92130
2912.29295	0.92544
2910.23915	0.93047
2908.18534	0.93485
2906.13154	0.93827
2904.07774	0.94161
2902.02393	0.94490
2899.97013	0.94738
2897.91633	0.94903
2895.86252	0.95045
2893.80872	0.95246
2891.75492	0.95466
2889.70112	0.95590
2887.64731	0.95650
2885.59351	0.95751
2883.53971	0.95899
2881.48590	0.96014
2879.43210	0.96087
2877.37830	0.96145
2875.32449	0.96169
2873.27069	0.96196
2871.21689	0.96244
2869.16308	0.96246
2867.10928	0.96201
2865.05548	0.96165
2863.00167	0.96159
2860.94787	0.96106
2858.89407	0.95892
2856.84026	0.95507
2854.78646	0.95016
2852.73266	0.94420
2850.67885	0.93770
2848.62505	0.93356
2846.57125	0.93458
2844.51744	0.93998
2842.46364	0.94669
2840.40984	0.95225
2838.35603	0.95611
2836.30223	0.95918
2834.24843	0.96232
2832.19463	0.96533
2830.14082	0.96757
2828.08702	0.96899
2826.03322	0.97010
2823.97941	0.97132
2821.92561	0.97250
2819.87181	0.97341
2817.81800	0.97414
2815.76420	0.97468
2813.71040	0.97506
2811.65659	0.97559
2809.60279	0.97608
2807.54899	0.97618
2805.49518	0.97614
2803.44138	0.97640
2801.38758	0.97707
2799.33377	0.97783
2797.27997	0.97810
2795.22617	0.97781
2793.17236	0.97745
2791.11856	0.97739
2789.06476	0.97772
2787.01095	0.97818
2784.95715	0.97839
2782.90335	0.97844
2780.84955	0.97861
2778.79574	0.97870
2776.74194	0.97869
2774.68814	0.97901
2772.63433	0.97960
2770.58053	0.98001
2768.52673	0.97997
2766.47292	0.97963
2764.41912	0.97946
2762.36532	0.97973
2760.31151	0.98020
2758.25771	0.98030
2756.20391	0.98005
2754.15010	0.98007
2752.09630	0.98024
2750.04250	0.98020
2747.98869	0.98021
2745.93489	0.98041
2743.88109	0.98047
2741.82728	0.98037
2739.77348	0.98045
2737.71968	0.98056
2735.66587	0.98025
2733.61207	0.97976
2731.55827	0.97976
2729.50446	0.98017
2727.45066	0.98068
2725.39686	0.98093
2723.34306	0.98066
2721.28925	0.98038
2719.23545	0.98045
2717.18165	0.98063
2715.12784	0.98084
2713.07404	0.98092
2711.02024	0.98087
2708.96643	0.98090
2706.91263	0.98109
2704.85883	0.98138
2702.80502	0.98158
2700.75122	0.98186
2698.69742	0.98213
2696.64361	0.98183
2694.58981	0.98133
2692.53601	0.98123
2690.48220	0.98135
2688.42840	0.98141
2686.37460	0.98121
2684.32079	0.98093
2682.26699	0.98095
2680.21319	0.98124
2678.15938	0.98165
2676.10558	0.98189
2674.05178	0.98190
2671.99797	0.98183
2669.94417	0.98167
2667.89037	0.98157
2665.83657	0.98175
2663.78276	0.98173
2661.72896	0.98149
2659.67516	0.98160
2657.62135	0.98196
2655.56755	0.98213
2653.51375	0.98214
2651.45994	0.98197
2649.40614	0.98183
2647.35234	0.98220
2645.29853	0.98271
2643.24473	0.98254
2641.19093	0.98191
2639.13712	0.98166
2637.08332	0.98186
2635.02952	0.98215
2632.97571	0.98218
2630.92191	0.98180
2628.86811	0.98171
2626.81430	0.98247
2624.76050	0.98312
2622.70670	0.98279
2620.65289	0.98232
2618.59909	0.98246
2616.54529	0.98292
2614.49149	0.98333
2612.43768	0.98347
2610.38388	0.98322
2608.33008	0.98301
2606.27627	0.98307
2604.22247	0.98291
2602.16867	0.98276
2600.11486	0.98317
2598.06106	0.98361
2596.00726	0.98367
2593.95345	0.98386
2591.89965	0.98386
2589.84585	0.98318
2587.79204	0.98312
2585.73824	0.98416
2583.68444	0.98470
2581.63063	0.98389
2579.57683	0.98289
2577.52303	0.98286
2575.46922	0.98330
2573.41542	0.98323
2571.36162	0.98296
2569.30781	0.98333
2567.25401	0.98417
2565.20021	0.98469
2563.14640	0.98423
2561.09260	0.98312
2559.03880	0.98252
2556.98500	0.98268
2554.93119	0.98319
2552.87739	0.98376
2550.82359	0.98390
2548.76978	0.98376
2546.71598	0.98385
2544.66218	0.98427
2542.60837	0.98436
2540.55457	0.98362
2538.50077	0.98302
2536.44696	0.98334
2534.39316	0.98376
2532.33936	0.98392
2530.28555	0.98435
2528.23175	0.98454
2526.17795	0.98407
2524.12414	0.98388
2522.07034	0.98420
2520.01654	0.98428
2517.96273	0.98409
2515.90893	0.98419
2513.85513	0.98465
2511.80132	0.98530
2509.74752	0.98563
2507.69372	0.98507
2505.63992	0.98427
2503.58611	0.98427
2501.53231	0.98468
2499.47851	0.98453
2497.42470	0.98401
2495.37090	0.98408
2493.31710	0.98477
2491.26329	0.98503
2489.20949	0.98460
2487.15569	0.98440
2485.10188	0.98474
2483.04808	0.98485
2480.99428	0.98445
2478.94047	0.98399
2476.88667	0.98387
2474.83287	0.98415
2472.77906	0.98465
2470.72526	0.98524
2468.67146	0.98548
2466.61765	0.98503
2464.56385	0.98440
2462.51005	0.98445
2460.45624	0.98481
2458.40244	0.98482
2456.34864	0.98494
2454.29483	0.98545
2452.24103	0.98602
2450.18723	0.98618
2448.13343	0.98588
2446.07962	0.98563
2444.02582	0.98565
2441.97202	0.98572
2439.91821	0.98530
2437.86441	0.98439
2435.81061	0.98411
2433.75680	0.98501
2431.70300	0.98622
2429.64920	0.98662
2427.59539	0.98563
2425.54159	0.98402
2423.48779	0.98330
2421.43398	0.98356
2419.38018	0.98393
2417.32638	0.98417
2415.27257	0.98423
2413.21877	0.98412
2411.16497	0.98436
2409.11116	0.98506
2407.05736	0.98532
2405.00356	0.98496
2402.94975	0.98492
2400.89595	0.98545
2398.84215	0.98578
2396.78834	0.98542
2394.73454	0.98496
2392.68074	0.98521
2390.62694	0.98579
2388.57313	0.98602
2386.51933	0.98571
2384.46553	0.98520
2382.41172	0.98488
2380.35792	0.98447
2378.30412	0.98347
2376.25031	0.98203
2374.19651	0.98079
2372.14271	0.98051
2370.08890	0.98084
2368.03510	0.98050
2365.98130	0.97953
2363.92749	0.97908
2361.87369	0.97942
2359.81989	0.97980
2357.76608	0.97955
2355.71228	0.97915
2353.65848	0.97996
2351.60467	0.98161
2349.55087	0.98235
2347.49707	0.98185
2345.44326	0.98087
2343.38946	0.98032
2341.33566	0.98047
2339.28186	0.98095
2337.22805	0.98109
2335.17425	0.98077
2333.12045	0.98036
2331.06664	0.98029
2329.01284	0.98093
2326.95904	0.98143
2324.90523	0.98139
2322.85143	0.98136
2320.79763	0.98151
2318.74382	0.98158
2316.69002	0.98176
2314.63622	0.98236
2312.58241	0.98273
2310.52861	0.98255
2308.47481	0.98265
2306.42100	0.98296
2304.36720	0.98289
2302.31340	0.98318
2300.25959	0.98378
2298.20579	0.98406
2296.15199	0.98419
2294.09818	0.98420
2292.04438	0.98430
2289.99058	0.98426
2287.93677	0.98405
2285.88297	0.98462
2283.82917	0.98510
2281.77537	0.98457
2279.72156	0.98427
2277.66776	0.98452
2275.61396	0.98473
2273.56015	0.98518
2271.50635	0.98602
2269.45255	0.98643
2267.39874	0.98629
2265.34494	0.98624
2263.29114	0.98587
2261.23733	0.98480
2259.18353	0.98396
2257.12973	0.98449
2255.07592	0.98636
2253.02212	0.98755
2250.96832	0.98628
2248.91451	0.98426
2246.86071	0.98381
2244.80691	0.98416
2242.75310	0.98424
2240.69930	0.98417
2238.64550	0.98395
2236.59169	0.98414
2234.53789	0.98480
2232.48409	0.98472
2230.43029	0.98424
2228.37648	0.98490
2226.32268	0.98638
2224.26888	0.98672
2222.21507	0.98527
2220.16127	0.98374
2218.10747	0.98384
2216.05366	0.98494
2213.99986	0.98557
2211.94606	0.98586
2209.89225	0.98638
2207.83845	0.98741
2205.78465	0.98855
2203.73084	0.98850
2201.67704	0.98657
2199.62324	0.98480
2197.56943	0.98512
2195.51563	0.98585
2193.46183	0.98576
2191.40802	0.98568
2189.35422	0.98685
2187.30042	0.98935
2185.24661	0.99091
2183.19281	0.98990
2181.13901	0.98782
2179.08520	0.98628
2177.03140	0.98633
2174.97760	0.98897
2172.92380	0.99078
2170.86999	0.98797
2168.81619	0.98341
2166.76239	0.98209
2164.70858	0.98355
2162.65478	0.98413
2160.60098	0.98477
2158.54717	0.98860
2156.49337	0.99242
2154.43957	0.99125
2152.38576	0.98709
2150.33196	0.98400
2148.27816	0.98343
2146.22435	0.98495
2144.17055	0.98733
2142.11675	0.98820
2140.06294	0.98686
2138.00914	0.98635
2135.95534	0.98801
2133.90153	0.98926
2131.84773	0.98792
2129.79393	0.98551
2127.74012	0.98471
2125.68632	0.98563
2123.63252	0.98635
2121.57871	0.98586
2119.52491	0.98528
2117.47111	0.98584
2115.41731	0.98724
2113.36350	0.98783
2111.30970	0.98690
2109.25590	0.98535
2107.20209	0.98448
2105.14829	0.98550
2103.09449	0.98749
2101.04068	0.98795
2098.98688	0.98686
2096.93308	0.98566
2094.87927	0.98569
2092.82547	0.98753
2090.77167	0.98852
2088.71786	0.98708
2086.66406	0.98540
2084.61026	0.98502
2082.55645	0.98524
2080.50265	0.98497
2078.44885	0.98484
2076.39504	0.98567
2074.34124	0.98697
2072.28744	0.98797
2070.23363	0.98796
2068.17983	0.98692
2066.12603	0.98579
2064.07223	0.98579
2062.01842	0.98710
2059.96462	0.98808
2057.91082	0.98748
2055.85701	0.98648
2053.80321	0.98619
2051.74941	0.98668
2049.69560	0.98765
2047.64180	0.98761
2045.58800	0.98705
2043.53419	0.98829
2041.48039	0.99052
2039.42659	0.99073
2037.37278	0.98910
2035.31898	0.98860
2033.26518	0.98976
2031.21137	0.99136
2029.15757	0.99079
2027.10377	0.98734
2025.04996	0.98610
2022.99616	0.98785
2020.94236	0.98754
2018.88855	0.98619
2016.83475	0.98729
2014.78095	0.98780
2012.72714	0.98715
2010.67334	0.98770
2008.61954	0.98716
2006.56574	0.98701
2004.51193	0.98979
2002.45813	0.99182
2000.40433	0.99099
1998.35052	0.98863
1996.29672	0.98675
1994.24292	0.98705
1992.18911	0.98869
1990.13531	0.98930
1988.08151	0.98784
1986.02770	0.98509
1983.97390	0.98326
1981.92010	0.98324
1979.86629	0.98490
1977.81249	0.98793
1975.75869	0.98905
1973.70488	0.98703
1971.65108	0.98563
1969.59728	0.98623
1967.54347	0.98728
1965.48967	0.98754
1963.43587	0.98667
1961.38206	0.98611
1959.32826	0.98728
1957.27446	0.98864
1955.22066	0.98790
1953.16685	0.98617
1951.11305	0.98764
1949.05925	0.99188
1947.00544	0.99214
1944.95164	0.98762
1942.89784	0.98490
1940.84403	0.98629
1938.79023	0.98856
1936.73643	0.98944
1934.68262	0.98809
1932.62882	0.98650
1930.57502	0.98675
1928.52121	0.98731
1926.46741	0.98728
1924.41361	0.98704
1922.35980	0.98703
1920.30600	0.98813
1918.25220	0.98909
1916.19839	0.98847
1914.14459	0.98803
1912.09079	0.98888
1910.03698	0.98952
1907.98318	0.98907
1905.92938	0.98818
1903.87557	0.98774
1901.82177	0.98777
1899.76797	0.98755
1897.71417	0.98762
1895.66036	0.98772
1893.60656	0.98699
1891.55276	0.98667
1889.49895	0.98712
1887.44515	0.98746
1885.39135	0.98751
1883.33754	0.98701
1881.28374	0.98658
1879.22994	0.98705
1877.17613	0.98780
1875.12233	0.98795
1873.06853	0.98740
1871.01472	0.98689
1868.96092	0.98715
1866.90712	0.98794
1864.85331	0.98828
1862.79951	0.98816
1860.74571	0.98820
1858.69190	0.98851
1856.63810	0.98902
1854.58430	0.98891
1852.53049	0.98770
1850.47669	0.98736
1848.42289	0.98877
1846.36908	0.99020
1844.31528	0.99005
1842.26148	0.98869
1840.20768	0.98764
1838.15387	0.98740
1836.10007	0.98809
1834.04627	0.98887
1831.99246	0.98882
1829.93866	0.98859
1827.88486	0.98903
1825.83105	0.98925
1823.77725	0.98881
1821.72345	0.98844
1819.66964	0.98829
1817.61584	0.98827
1815.56204	0.98836
1813.50823	0.98821
1811.45443	0.98780
1809.40063	0.98769
1807.34682	0.98818
1805.29302	0.98880
1803.23922	0.98900
1801.18541	0.98860
1799.13161	0.98811
1797.07781	0.98783
1795.02400	0.98753
1792.97020	0.98759
1790.91640	0.98817
1788.86260	0.98832
1786.80879	0.98812
1784.75499	0.98799
1782.70119	0.98763
1780.64738	0.98707
1778.59358	0.98673
1776.53978	0.98679
1774.48597	0.98720
1772.43217	0.98757
1770.37837	0.98768
1768.32456	0.98769
1766.27076	0.98776
1764.21696	0.98791
1762.16315	0.98804
1760.10935	0.98778
1758.05555	0.98736
1756.00174	0.98710
1753.94794	0.98724
1751.89414	0.98803
1749.84033	0.98853
1747.78653	0.98806
1745.73273	0.98788
1743.67892	0.98773
1741.62512	0.98689
1739.57132	0.98606
1737.51751	0.98583
1735.46371	0.98626
1733.40991	0.98696
1731.35611	0.98637
1729.30230	0.98517
1727.24850	0.98463
1725.19470	0.98497
1723.14089	0.98540
1721.08709	0.98515
1719.03329	0.98433
1716.97948	0.98354
1714.92568	0.98323
1712.87188	0.98314
1710.81807	0.98316
1708.76427	0.98322
1706.71047	0.98345
1704.65666	0.98372
1702.60286	0.98373
1700.54906	0.98373
1698.49525	0.98333
1696.44145	0.98189
1694.38765	0.98015
1692.33384	0.97912
1690.28004	0.97849
1688.22624	0.97761
1686.17243	0.97690
1684.11863	0.97741
1682.06483	0.97725
1680.01103	0.97536
1677.95722	0.97362
1675.90342	0.97277
1673.84962	0.97243
1671.79581	0.97218
1669.74201	0.97163
1667.68821	0.97037
1665.63440	0.96928
1663.58060	0.96888
1661.52680	0.96846
1659.47299	0.96740
1657.41919	0.96648
1655.36539	0.96630
1653.31158	0.96643
1651.25778	0.96562
1649.20398	0.96512
1647.15017	0.96523
1645.09637	0.96501
1643.04257	0.96466
1640.98876	0.96456
1638.93496	0.96452
1636.88116	0.96459
1634.82735	0.96423
1632.77355	0.96372
1630.71975	0.96366
1628.66594	0.96368
1626.61214	0.96360
1624.55834	0.96394
1622.50454	0.96484
1620.45073	0.96534
1618.39693	0.96542
1616.34313	0.96597
1614.28932	0.96710
1612.23552	0.96821
1610.18172	0.96929
1608.12791	0.97001
1606.07411	0.97027
1604.02031	0.97056
1601.96650	0.97113
1599.91270	0.97185
1597.85890	0.97240
1595.80509	0.97273
1593.75129	0.97298
1591.69749	0.97316
1589.64368	0.97331
1587.58988	0.97344
1585.53608	0.97343
1583.48227	0.97341
1581.42847	0.97359
1579.37467	0.97394
1577.32086	0.97411
1575.26706	0.97374
1573.21326	0.97353
1571.15945	0.97386
1569.10565	0.97417
1567.05185	0.97373
1564.99805	0.97328
1562.94424	0.97362
1560.89044	0.97521
1558.83664	0.97739
1556.78283	0.97633
1554.72903	0.97479
1552.67523	0.97417
1550.62142	0.97419
1548.56762	0.97439
1546.51382	0.97449
1544.46001	0.97468
1542.40621	0.97515
1540.35241	0.97574
1538.29860	0.97559
1536.24480	0.97536
1534.19100	0.97546
1532.13719	0.97570
1530.08339	0.97611
1528.02959	0.97679
1525.97578	0.97737
1523.92198	0.97755
1521.86818	0.97795
1519.81437	0.97863
1517.76057	0.97907
1515.70677	0.97906
1513.65297	0.97877
1511.59916	0.97905
1509.54536	0.98018
1507.49156	0.98131
1505.43775	0.98073
1503.38395	0.97996
1501.33015	0.98001
1499.27634	0.98093
1497.22254	0.98209
1495.16874	0.98215
1493.11493	0.98160
1491.06113	0.98160
1489.00733	0.98232
1486.95352	0.98242
1484.89972	0.98194
1482.84592	0.98169
1480.79211	0.98148
1478.73831	0.98093
1476.68451	0.97947
1474.63070	0.97569
1472.57690	0.97061
1470.52310	0.96821
1468.46929	0.96738
1466.41549	0.96561
1464.36169	0.96233
1462.30788	0.96030
1460.25408	0.96136
1458.20028	0.96480
1456.14648	0.96761
1454.09267	0.96764
1452.03887	0.96719
1449.98507	0.96737
1447.93126	0.96878
1445.87746	0.97058
1443.82366	0.97143
1441.76985	0.97165
1439.71605	0.97215
1437.66225	0.97326
1435.60844	0.97434
1433.55464	0.97473
1431.50084	0.97510
1429.44703	0.97583
1427.39323	0.97643
1425.33943	0.97660
1423.28562	0.97649
1421.23182	0.97637
1419.17802	0.97682
1417.12421	0.97737
1415.07041	0.97721
1413.01661	0.97693
1410.96280	0.97692
1408.90900	0.97701
1406.85520	0.97727
1404.80139	0.97770
1402.74759	0.97793
1400.69379	0.97828
1398.63999	0.97907
1396.58618	0.97964
1394.53238	0.97937
1392.47858	0.97862
1390.42477	0.97825
1388.37097	0.97839
1386.31717	0.97820
1384.26336	0.97717
1382.20956	0.97546
1380.15576	0.97298
1378.10195	0.97011
1376.04815	0.96868
1373.99435	0.97006
1371.94054	0.97263
1369.88674	0.97454
1367.83294	0.97578
1365.77913	0.97669
1363.72533	0.97762
1361.67153	0.97809
1359.61772	0.97781
1357.56392	0.97779
1355.51012	0.97832
1353.45631	0.97880
1351.40251	0.97915
1349.34871	0.97964
1347.29491	0.98029
1345.24110	0.98086
1343.18730	0.98118
1341.13350	0.98135
1339.07969	0.98121
1337.02589	0.98069
1334.97209	0.98045
1332.91828	0.98052
1330.86448	0.98045
1328.81068	0.98042
1326.75687	0.98068
1324.70307	0.98097
1322.64927	0.98122
1320.59546	0.98138
1318.54166	0.98132
1316.48786	0.98126
1314.43405	0.98135
1312.38025	0.98135
1310.32645	0.98112
1308.27264	0.98080
1306.21884	0.98071
1304.16504	0.98086
1302.11123	0.98095
1300.05743	0.98094
1298.00363	0.98092
1295.94982	0.98106
1293.89602	0.98140
1291.84222	0.98178
1289.78842	0.98193
1287.73461	0.98189
1285.68081	0.98185
1283.62701	0.98183
1281.57320	0.98184
1279.51940	0.98183
1277.46560	0.98178
1275.41179	0.98172
1273.35799	0.98157
1271.30419	0.98143
1269.25038	0.98132
1267.19658	0.98115
1265.14278	0.98090
1263.08897	0.98060
1261.03517	0.98036
1258.98137	0.98014
1256.92756	0.97988
1254.87376	0.97973
1252.81996	0.97982
1250.76615	0.97997
1248.71235	0.97997
1246.65855	0.97994
1244.60474	0.97994
1242.55094	0.97986
1240.49714	0.97973
1238.44334	0.97967
1236.38953	0.97968
1234.33573	0.97960
1232.28193	0.97945
1230.22812	0.97937
1228.17432	0.97924
1226.12052	0.97897
1224.06671	0.97876
1222.01291	0.97890
1219.95911	0.97905
1217.90530	0.97866
1215.85150	0.97821
1213.79770	0.97821
1211.74389	0.97821
1209.69009	0.97778
1207.63629	0.97698
1205.58248	0.97624
1203.52868	0.97619
1201.47488	0.97668
1199.42107	0.97705
1197.36727	0.97676
1195.31347	0.97563
1193.25966	0.97435
1191.20586	0.97364
1189.15206	0.97329
1187.09825	0.97286
1185.04445	0.97232
1182.99065	0.97150
1180.93685	0.97023
1178.88304	0.96897
1176.82924	0.96801
1174.77544	0.96710
1172.72163	0.96599
1170.66783	0.96470
1168.61403	0.96342
1166.56022	0.96219
1164.50642	0.96117
1162.45262	0.96052
1160.39881	0.95998
1158.34501	0.95904
1156.29121	0.95764
1154.23740	0.95634
1152.18360	0.95544
1150.12980	0.95467
1148.07599	0.95366
1146.02219	0.95227
1143.96839	0.95077
1141.91458	0.94979
1139.86078	0.94917
1137.80698	0.94811
1135.75317	0.94646
1133.69937	0.94467
1131.64557	0.94312
1129.59176	0.94156
1127.53796	0.93930
1125.48416	0.93626
1123.43036	0.93302
1121.37655	0.93013
1119.32275	0.92774
1117.26895	0.92565
1115.21514	0.92338
1113.16134	0.92091
1111.10754	0.91891
1109.05373	0.91755
1106.99993	0.91630
1104.94613	0.91500
1102.89232	0.91366
1100.83852	0.91220
1098.78472	0.91096
1096.73091	0.91017
1094.67711	0.90926
1092.62331	0.90796
1090.56950	0.90707
1088.51570	0.90682
1086.46190	0.90634
1084.40809	0.90511
1082.35429	0.90333
1080.30049	0.90175
1078.24668	0.90081
1076.19288	0.89994
1074.13908	0.89860
1072.08528	0.89696
1070.03147	0.89527
1067.97767	0.89334
1065.92387	0.89096
1063.87006	0.88804
1061.81626	0.88459
1059.76246	0.88094
1057.70865	0.87728
1055.65485	0.87343
1053.60105	0.86916
1051.54724	0.86447
1049.49344	0.85959
1047.43964	0.85479
1045.38583	0.84992
1043.33203	0.84478
1041.27823	0.83990
1039.22442	0.83560
1037.17062	0.83139
1035.11682	0.82713
1033.06301	0.82318
1031.00921	0.81973
1028.95541	0.81718
1026.90160	0.81576
1024.84780	0.81446
1022.79400	0.81260
1020.74019	0.81100
1018.68639	0.81008
1016.63259	0.80915
1014.57879	0.80754
1012.52498	0.80521
1010.47118	0.80263
1008.41738	0.80031
1006.36357	0.79855
1004.30977	0.79699
1002.25597	0.79506
1000.20216	0.79337
998.14836	0.79288
996.09456	0.79357
994.04075	0.79463
991.98695	0.79539
989.93315	0.79638
987.87934	0.79808
985.82554	0.79998
983.77174	0.80187
981.71793	0.80393
979.66413	0.80602
977.61033	0.80827
975.55652	0.81089
973.50272	0.81356
971.44892	0.81623
969.39511	0.81940
967.34131	0.82303
965.28751	0.82649
963.23371	0.82973
961.17990	0.83334
959.12610	0.83720
957.07230	0.84079
955.01849	0.84379
952.96469	0.84603
950.91089	0.84761
948.85708	0.84911
946.80328	0.85115
944.74948	0.85367
942.69567	0.85580
940.64187	0.85681
938.58807	0.85751
936.53426	0.85884
934.48046	0.86027
932.42666	0.86124
930.37285	0.86167
928.31905	0.86177
926.26525	0.86213
924.21144	0.86251
922.15764	0.86190
920.10384	0.86033
918.05003	0.85820
915.99623	0.85538
913.94243	0.85258
911.88862	0.85056
909.83482	0.84941
907.78102	0.84971
905.72722	0.85159
903.67341	0.85426
901.61961	0.85715
899.56581	0.86032
897.51200	0.86408
895.45820	0.86817
893.40440	0.87187
891.35059	0.87476
889.29679	0.87699
887.24299	0.87864
885.18918	0.87975
883.13538	0.88123
881.08158	0.88339
879.02777	0.88523
876.97397	0.88654
874.92017	0.88793
872.86636	0.88975
870.81256	0.89200
868.75876	0.89429
866.70495	0.89640
864.65115	0.89849
862.59735	0.90056
860.54354	0.90267
858.48974	0.90467
856.43594	0.90619
854.38213	0.90801
852.32833	0.91032
850.27453	0.91201
848.22073	0.91318
846.16692	0.91453
844.11312	0.91586
842.05932	0.91686
840.00551	0.91767
837.95171	0.91812
835.89791	0.91837
833.84410	0.91861
831.79030	0.91856
829.73650	0.91826
827.68269	0.91827
825.62889	0.91900
823.57509	0.92023
821.52128	0.92125
819.46748	0.92160
817.41368	0.92145
815.35987	0.92132
813.30607	0.92158
811.25227	0.92160
809.19846	0.92095
807.14466	0.92038
805.09086	0.92030
803.03705	0.92035
800.98325	0.91996
798.92945	0.91924
796.87565	0.91847
794.82184	0.91790
792.76804	0.91797
790.71424	0.91823
788.66043	0.91802
786.60663	0.91777
784.55283	0.91802
782.49902	0.91852
780.44522	0.91860
778.39142	0.91841
776.33761	0.91837
774.28381	0.91840
772.23001	0.91905
770.17620	0.91984
768.12240	0.91955
766.06860	0.91812
764.01479	0.91622
761.96099	0.91499
759.90719	0.91483
757.85338	0.91471
755.79958	0.91379
753.74578	0.91297
751.69197	0.91296
749.63817	0.91323
747.58437	0.91307
745.53056	0.91231
743.47676	0.91199
741.42296	0.91309
739.36916	0.91515
737.31535	0.91665
735.26155	0.91650
733.20775	0.91494
731.15394	0.91287
729.10014	0.91181
727.04634	0.91240
724.99253	0.91278
722.93873	0.91154
720.88493	0.90974
718.83112	0.90942
716.77732	0.91109
714.72352	0.91313
712.66971	0.91431
710.61591	0.91478
708.56211	0.91434
706.50830	0.91247
704.45450	0.90986
702.40070	0.90727
700.34689	0.90469
698.29309	0.90264
696.23929	0.90105
694.18548	0.89885
692.13168	0.89667
690.07788	0.89573
688.02408	0.89544
685.97027	0.89449
683.91647	0.89265
681.86267	0.89095
679.80886	0.89016
677.75506	0.89019
675.70126	0.88998
673.64745	0.88875
671.59365	0.88689
669.53985	0.88527
667.48604	0.88694
665.43224	0.89021
663.37844	0.89116
661.32463	0.89088
659.27083	0.89135
657.21703	0.89264
655.16322	0.89342
653.10942	0.89292
651.05562	0.89207
649.00181	0.89261
646.94801	0.89383
644.89421	0.89378
642.84040	0.89247
640.78660	0.89148
638.73280	0.89201
636.67899	0.89300
634.62519	0.89253
632.57139	0.89092
630.51759	0.89045
628.46378	0.89195
626.40998	0.89335
624.35618	0.89285
622.30237	0.89172
620.24857	0.89190
618.19477	0.89306
616.14096	0.89270
614.08716	0.89029
612.03336	0.88791
609.97955	0.88649
607.92575	0.88573
605.87195	0.88469
603.81814	0.88193
601.76434	0.87799
599.71054	0.87549
597.65673	0.87499
595.60293	0.87501
593.54913	0.87431
591.49532	0.87218
589.44152	0.87028
587.38772	0.87023
585.33391	0.87025
583.28011	0.86807
581.22631	0.86455
579.17250	0.86237
577.11870	0.86168
575.06490	0.86020
573.01110	0.85802
570.95729	0.85582
568.90349	0.85274
566.84969	0.84943
564.79588	0.84672
562.74208	0.84391
560.68828	0.84054
558.63447	0.83716
556.58067	0.83471
554.52687	0.83360
552.47306	0.83211
550.41926	0.82874
548.36546	0.82501
546.31165	0.82147
544.25785	0.81721
542.20405	0.81256
540.15024	0.80838
538.09644	0.80464
536.04264	0.80122
533.98883	0.79793
531.93503	0.79352
529.88123	0.78948
527.82742	0.78824
525.77362	0.78904
523.71982	0.78938
521.66602	0.78866
519.61221	0.78902
517.55841	0.79118
515.50461	0.79353
513.45080	0.79464
511.39700	0.79451
509.34320	0.79502
507.28939	0.79802
505.23559	0.80231
503.18179	0.80538
501.12798	0.80712
499.07418	0.80650
497.02038	0.80345
494.96657	0.80255
492.91277	0.80511
490.85897	0.80628
488.80516	0.80455
486.75136	0.80218
484.69756	0.79976
482.64375	0.79683
480.58995	0.79241
478.53615	0.78598
476.48234	0.77893
474.42854	0.77326
472.37474	0.76812
470.32093	0.76042
468.26713	0.75017
466.21333	0.74164
464.15953	0.73815
462.10572	0.73856
460.05192	0.73950
457.99812	0.73922
455.94431	0.74126
453.89051	0.74431
451.83671	0.74295
449.78290	0.73975
447.72910	0.73954
445.67530	0.74153
443.62149	0.74389
441.56769	0.74478
439.51389	0.74320
437.46008	0.73954
435.40628	0.73399
433.35248	0.73213
431.29867	0.73487
429.24487	0.73323
427.19107	0.72702
425.13726	0.72635
423.08346	0.73254
421.02966	0.73702
418.97585	0.73293
416.92205	0.72449
414.86825	0.72265
412.81445	0.72529
410.76064	0.72804
408.70684	0.72854
406.65304	0.72659
404.59923	0.72771
402.54543	0.73767
400.49163	0.74905
398.43782	0.74704
