3996.70104	0.98170
3994.64724	0.98146
3992.59344	0.98144
3990.53964	0.98136
3988.48583	0.98125
3986.43203	0.98149
3984.37823	0.98191
3982.32442	0.98174
3980.27062	0.98099
3978.21682	0.98066
3976.16301	0.98081
3974.10921	0.98090
3972.05541	0.98083
3970.00160	0.98056
3967.94780	0.98071
3965.89400	0.98174
3963.84019	0.98260
3961.78639	0.98242
3959.73259	0.98157
3957.67878	0.98090
3955.62498	0.98104
3953.57118	0.98144
3951.51737	0.98131
3949.46357	0.98098
3947.40977	0.98055
3945.35596	0.98017
3943.30216	0.98056
3941.24836	0.98140
3939.19455	0.98189
3937.14075	0.98187
3935.08695	0.98137
3933.03315	0.98066
3930.97934	0.98045
3928.92554	0.98091
3926.87174	0.98153
3924.81793	0.98193
3922.76413	0.98176
3920.71033	0.98116
3918.65652	0.98073
3916.60272	0.98095
3914.54892	0.98136
3912.49511	0.98137
3910.44131	0.98105
3908.38751	0.98075
3906.33370	0.98126
3904.27990	0.98249
3902.22610	0.98314
3900.17229	0.98289
3898.11849	0.98232
3896.06469	0.98213
3894.01088	0.98217
3891.95708	0.98170
3889.90328	0.98096
3887.84947	0.98095
3885.79567	0.98159
3883.74187	0.98197
3881.68807	0.98182
3879.63426	0.98192
3877.58046	0.98238
3875.52666	0.98248
3873.47285	0.98204
3871.41905	0.98168
3869.36525	0.98170
3867.31144	0.98154
3865.25764	0.98132
3863.20384	0.98152
3861.15003	0.98147
3859.09623	0.98101
3857.04243	0.98069
3854.98862	0.98060
3852.93482	0.98122
3850.88102	0.98207
3848.82721	0.98221
3846.77341	0.98237
3844.71961	0.98285
3842.66580	0.98305
3840.61200	0.98283
3838.55820	0.98248
3836.50439	0.98177
3834.45059	0.98113
3832.39679	0.98139
3830.34298	0.98225
3828.28918	0.98266
3826.23538	0.98266
3824.18158	0.98303
3822.12777	0.98353
3820.07397	0.98307
3818.02017	0.98245
3815.96636	0.98235
3813.91256	0.98218
3811.85876	0.98191
3809.80495	0.98167
3807.75115	0.98136
3805.69735	0.98133
3803.64354	0.98158
3801.58974	0.98176
3799.53594	0.98180
3797.48213	0.98172
3795.42833	0.98194
3793.37453	0.98249
3791.32072	0.98257
3789.26692	0.98207
3787.21312	0.98169
3785.15931	0.98182
3783.10551	0.98202
3781.05171	0.98164
3778.99790	0.98119
3776.94410	0.98144
3774.89030	0.98188
3772.83650	0.98212
3770.78269	0.98231
3768.72889	0.98255
3766.67509	0.98256
3764.62128	0.98244
3762.56748	0.98236
3760.51368	0.98205
3758.45987	0.98189
3756.40607	0.98215
3754.35227	0.98188
3752.29846	0.98097
3750.24466	0.98108
3748.19086	0.98289
3746.13705	0.98421
3744.08325	0.98384
3742.02945	0.98279
3739.97564	0.98199
3737.92184	0.98105
3735.86804	0.98019
3733.81423	0.97983
3731.76043	0.97987
3729.70663	0.98024
3727.65282	0.98050
3725.59902	0.98026
3723.54522	0.97932
3721.49141	0.97828
3719.43761	0.97741
3717.38381	0.97587
3715.33001	0.97357
3713.27620	0.97056
3711.22240	0.96635
3709.16860	0.96215
3707.11479	0.95816
3705.06099	0.95368
3703.00719	0.94887
3700.95338	0.94401
3698.89958	0.94041
3696.84578	0.93916
3694.79197	0.94009
3692.73817	0.94191
3690.68437	0.94381
3688.63056	0.94652
3686.57676	0.94912
3684.52296	0.95079
3682.46915	0.95226
3680.41535	0.95291
3678.36155	0.95232
3676.30774	0.95148
3674.25394	0.95088
3672.20014	0.95032
3670.14633	0.94937
3668.09253	0.94839
3666.03873	0.94800
3663.98492	0.94745
3661.93112	0.94604
3659.87732	0.94410
3657.82352	0.94244
3655.76971	0.94128
3653.71591	0.94012
3651.66211	0.93827
3649.60830	0.93630
3647.55450	0.93617
3645.50070	0.93713
3643.44689	0.93760
3641.39309	0.93735
3639.33929	0.93669
3637.28548	0.93576
3635.23168	0.93447
3633.17788	0.93282
3631.12407	0.93131
3629.07027	0.92872
3627.01647	0.92505
3624.96266	0.92307
3622.90886	0.92246
3620.85506	0.92257
3618.80125	0.92286
3616.74745	0.92407
3614.69365	0.92603
3612.63984	0.92736
3610.58604	0.92846
3608.53224	0.93008
3606.47844	0.93109
3604.42463	0.93122
3602.37083	0.93135
3600.31703	0.93109
3598.26322	0.93029
3596.20942	0.92958
3594.15562	0.92957
3592.10181	0.93033
3590.04801	0.93098
3587.99421	0.93064
3585.94040	0.92987
3583.88660	0.92977
3581.83280	0.92949
3579.77899	0.92883
3577.72519	0.92865
3575.67139	0.92859
3573.61758	0.92808
3571.56378	0.92778
3569.50998	0.92765
3567.45617	0.92725
3565.40237	0.92688
3563.34857	0.92618
3561.29476	0.92536
3559.24096	0.92520
3557.18716	0.92522
3555.13335	0.92478
3553.07955	0.92418
3551.02575	0.92378
3548.97195	0.92336
3546.91814	0.92250
3544.86434	0.92194
3542.81054	0.92233
3540.75673	0.92241
3538.70293	0.92170
3536.64913	0.92087
3534.59532	0.92047
3532.54152	0.92073
3530.48772	0.92130
3528.43391	0.92180
3526.38011	0.92176
3524.32631	0.92118
3522.27250	0.92073
3520.21870	0.92055
3518.16490	0.92061
3516.11109	0.92116
3514.05729	0.92210
3512.00349	0.92294
3509.94968	0.92323
3507.89588	0.92274
3505.84208	0.92192
3503.78827	0.92126
3501.73447	0.92109
3499.68067	0.92143
3497.62687	0.92125
3495.57306	0.92034
3493.51926	0.91963
3491.46546	0.91959
3489.41165	0.91999
3487.35785	0.92006
3485.30405	0.91941
3483.25024	0.91861
3481.19644	0.91807
3479.14264	0.91781
3477.08883	0.91770
3475.03503	0.91746
3472.98123	0.91713
3470.92742	0.91687
3468.87362	0.91648
3466.81982	0.91579
3464.76601	0.91540
3462.71221	0.91549
3460.65841	0.91516
3458.60460	0.91433
3456.55080	0.91385
3454.49700	0.91379
3452.44319	0.91358
3450.38939	0.91281
3448.33559	0.91174
3446.28178	0.91117
3444.22798	0.91096
3442.17418	0.91039
3440.12038	0.90972
3438.06657	0.90930
3436.01277	0.90914
3433.95897	0.90913
3431.90516	0.90874
3429.85136	0.90781
3427.79756	0.90699
3425.74375	0.90680
3423.68995	0.90704
3421.63615	0.90713
3419.58234	0.90685
3417.52854	0.90620
3415.47474	0.90547
3413.42093	0.90516
3411.36713	0.90500
3409.31333	0.90445
3407.25952	0.90363
3405.20572	0.90309
3403.15192	0.90294
3401.09811	0.90287
3399.04431	0.90274
3396.99051	0.90258
3394.93670	0.90288
3392.88290	0.90341
3390.82910	0.90335
3388.77529	0.90334
3386.72149	0.90396
3384.66769	0.90424
3382.61389	0.90377
3380.56008	0.90352
3378.50628	0.90386
3376.45248	0.90428
3374.39867	0.90460
3372.34487	0.90488
3370.29107	0.90494
3368.23726	0.90475
3366.18346	0.90481
3364.12966	0.90514
3362.07585	0.90540
3360.02205	0.90580
3357.96825	0.90639
3355.91444	0.90684
3353.86064	0.90716
3351.80684	0.90748
3349.75303	0.90767
3347.69923	0.90765
3345.64543	0.90780
3343.59162	0.90817
3341.53782	0.90830
3339.48402	0.90852
3337.43021	0.90909
3335.37641	0.90921
3333.32261	0.90875
3331.26881	0.90846
3329.21500	0.90865
3327.16120	0.90911
3325.10740	0.90941
3323.05359	0.90959
3320.99979	0.90988
3318.94599	0.91006
3316.89218	0.91001
3314.83838	0.90999
3312.78458	0.91015
3310.73077	0.91058
3308.67697	0.91106
3306.62317	0.91151
3304.56936	0.91206
3302.51556	0.91234
3300.46176	0.91267
3298.40795	0.91358
3296.35415	0.91422
3294.30035	0.91429
3292.24654	0.91432
3290.19274	0.91440
3288.13894	0.91436
3286.08513	0.91437
3284.03133	0.91472
3281.97753	0.91516
3279.92372	0.91562
3277.86992	0.91628
3275.81612	0.91675
3273.76232	0.91679
3271.70851	0.91667
3269.65471	0.91673
3267.60091	0.91714
3265.54710	0.91739
3263.49330	0.91696
3261.43950	0.91662
3259.38569	0.91730
3257.33189	0.91840
3255.27809	0.91885
3253.22428	0.91888
3251.17048	0.91923
3249.11668	0.91984
3247.06287	0.92013
3245.00907	0.91987
3242.95527	0.91949
3240.90146	0.91972
3238.84766	0.92060
3236.79386	0.92141
3234.74005	0.92186
3232.68625	0.92249
3230.63245	0.92332
3228.57864	0.92364
3226.52484	0.92372
3224.47104	0.92420
3222.41724	0.92497
3220.36343	0.92552
3218.30963	0.92556
3216.25583	0.92547
3214.20202	0.92571
3212.14822	0.92634
3210.09442	0.92708
3208.04061	0.92755
3205.98681	0.92809
3203.93301	0.92876
3201.87920	0.92926
3199.82540	0.92990
3197.77160	0.93037
3195.71779	0.93036
3193.66399	0.93040
3191.61019	0.93085
3189.55638	0.93163
3187.50258	0.93235
3185.44878	0.93283
3183.39497	0.93322
3181.34117	0.93362
3179.28737	0.93397
3177.23356	0.93450
3175.17976	0.93528
3173.12596	0.93576
3171.07215	0.93602
3169.01835	0.93658
3166.96455	0.93744
3164.91075	0.93819
3162.85694	0.93848
3160.80314	0.93848
3158.74934	0.93852
3156.69553	0.93856
3154.64173	0.93882
3152.58793	0.93963
3150.53412	0.94074
3148.48032	0.94177
3146.42652	0.94237
3144.37271	0.94251
3142.31891	0.94246
3140.26511	0.94273
3138.21130	0.94346
3136.15750	0.94386
3134.10370	0.94406
3132.04989	0.94459
3129.99609	0.94499
3127.94229	0.94533
3125.88848	0.94585
3123.83468	0.94619
3121.78088	0.94647
3119.72707	0.94710
3117.67327	0.94803
3115.61947	0.94863
3113.56566	0.94859
3111.51186	0.94854
3109.45806	0.94898
3107.40426	0.94977
3105.35045	0.95044
3103.29665	0.95079
3101.24285	0.95097
3099.18904	0.95104
3097.13524	0.95112
3095.08144	0.95126
3093.02763	0.95144
3090.97383	0.95169
3088.92003	0.95183
3086.86622	0.95201
3084.81242	0.95234
3082.75862	0.95258
3080.70481	0.95280
3078.65101	0.95313
3076.59721	0.95366
3074.54340	0.95417
3072.48960	0.95446
3070.43580	0.95471
3068.38199	0.95484
3066.32819	0.95467
3064.27439	0.95476
3062.22058	0.95531
3060.16678	0.95583
3058.11298	0.95624
3056.05918	0.95661
3054.00537	0.95679
3051.95157	0.95674
3049.89777	0.95659
3047.84396	0.95666
3045.79016	0.95728
3043.73636	0.95803
3041.68255	0.95821
3039.62875	0.95827
3037.57495	0.95850
3035.52114	0.95855
3033.46734	0.95867
3031.41354	0.95894
3029.35973	0.95912
3027.30593	0.95935
3025.25213	0.95968
3023.19832	0.96013
3021.14452	0.96047
3019.09072	0.96048
3017.03691	0.96049
3014.98311	0.96056
3012.92931	0.96074
3010.87550	0.96124
3008.82170	0.96157
3006.76790	0.96144
3004.71409	0.96119
3002.66029	0.96106
3000.60649	0.96118
2998.55269	0.96132
2996.49888	0.96130
2994.44508	0.96116
2992.39128	0.96080
2990.33747	0.96021
2988.28367	0.95965
2986.22987	0.95927
2984.17606	0.95888
2982.12226	0.95853
2980.06846	0.95856
2978.01465	0.95867
2975.96085	0.95806
2973.90705	0.95675
2971.85324	0.95533
2969.79944	0.95379
2967.74564	0.95205
2965.69183	0.95014
2963.63803	0.94806
2961.58423	0.94621
2959.53042	0.94489
2957.47662	0.94382
2955.42282	0.94293
2953.36901	0.94216
2951.31521	0.94117
2949.26141	0.94002
2947.20761	0.93864
2945.15380	0.93630
2943.10000	0.93254
2941.04620	0.92774
2938.99239	0.92172
2936.93859	0.91375
2934.88479	0.90405
2932.83098	0.89286
2930.77718	0.87984
2928.72338	0.86478
2926.66957	0.84729
2924.61577	0.82680
2922.56197	0.80370
2920.50816	0.77981
2918.45436	0.75818
2916.40056	0.74382
2914.34675	0.74211
2912.29295	0.75307
2910.23915	0.77071
2908.18534	0.78936
2906.13154	0.80598
2904.07774	0.81948
2902.02393	0.83027
2899.97013	0.83915
2897.91633	0.84690
2895.86252	0.85390
2893.80872	0.86055
2891.75492	0.86723
2889.70112	0.87393
2887.64731	0.88077
2885.59351	0.88778
2883.53971	0.89470
2881.48590	0.90147
2879.43210	0.90815
2877.37830	0.91441
2875.32449	0.91983
2873.27069	0.92424
2871.21689	0.92720
2869.16308	0.92828
2867.10928	0.92788
2865.05548	0.92613
2863.00167	0.92203
2860.94787	0.91443
2858.89407	0.90213
2856.84026	0.88345
2854.78646	0.85688
2852.73266	0.82342
2850.67885	0.79017
2848.62505	0.76981
2846.57125	0.77128
2844.51744	0.79124
2842.46364	0.81897
2840.40984	0.84604
2838.35603	0.86895
2836.30223	0.88718
2834.24843	0.90149
2832.19463	0.91270
2830.14082	0.92143
2828.08702	0.92826
2826.03322	0.93358
2823.97941	0.93791
2821.92561	0.94172
2819.87181	0.94503
2817.81800	0.94775
2815.76420	0.94986
2813.71040	0.95162
2811.65659	0.95302
2809.60279	0.95439
2807.54899	0.95612
2805.49518	0.95773
2803.44138	0.95890
2801.38758	0.95988
2799.33377	0.96066
2797.27997	0.96127
2795.22617	0.96200
2793.17236	0.96285
2791.11856	0.96362
2789.06476	0.96425
2787.01095	0.96497
2784.95715	0.96587
2782.90335	0.96661
2780.84955	0.96706
2778.79574	0.96741
2776.74194	0.96771
2774.68814	0.96807
2772.63433	0.96867
2770.58053	0.96939
2768.52673	0.97006
2766.47292	0.97046
2764.41912	0.97050
2762.36532	0.97046
2760.31151	0.97048
2758.25771	0.97054
2756.20391	0.97067
2754.15010	0.97101
2752.09630	0.97157
2750.04250	0.97200
2747.98869	0.97206
2745.93489	0.97206
2743.88109	0.97195
2741.82728	0.97172
2739.77348	0.97194
2737.71968	0.97243
2735.66587	0.97251
2733.61207	0.97220
2731.55827	0.97205
2729.50446	0.97224
2727.45066	0.97244
2725.39686	0.97282
2723.34306	0.97335
2721.28925	0.97349
2719.23545	0.97338
2717.18165	0.97329
2715.12784	0.97318
2713.07404	0.97337
2711.02024	0.97395
2708.96643	0.97436
2706.91263	0.97433
2704.85883	0.97425
2702.80502	0.97434
2700.75122	0.97428
2698.69742	0.97406
2696.64361	0.97413
2694.58981	0.97438
2692.53601	0.97459
2690.48220	0.97483
2688.42840	0.97508
2686.37460	0.97524
2684.32079	0.97516
2682.26699	0.97512
2680.21319	0.97542
2678.15938	0.97562
2676.10558	0.97541
2674.05178	0.97509
2671.99797	0.97505
2669.94417	0.97543
2667.89037	0.97561
2665.83657	0.97497
2663.78276	0.97441
2661.72896	0.97477
2659.67516	0.97542
2657.62135	0.97549
2655.56755	0.97520
2653.51375	0.97509
2651.45994	0.97494
2649.40614	0.97464
2647.35234	0.97473
2645.29853	0.97522
2643.24473	0.97545
2641.19093	0.97509
2639.13712	0.97484
2637.08332	0.97525
2635.02952	0.97598
2632.97571	0.97652
2630.92191	0.97624
2628.86811	0.97572
2626.81430	0.97597
2624.76050	0.97634
2622.70670	0.97645
2620.65289	0.97682
2618.59909	0.97725
2616.54529	0.97735
2614.49149	0.97721
2612.43768	0.97700
2610.38388	0.97688
2608.33008	0.97704
2606.27627	0.97772
2604.22247	0.97849
2602.16867	0.97889
2600.11486	0.97909
2598.06106	0.97921
2596.00726	0.97940
2593.95345	0.97970
2591.89965	0.97959
2589.84585	0.97891
2587.79204	0.97852
2585.73824	0.97881
2583.68444	0.97936
2581.63063	0.97997
2579.57683	0.98049
2577.52303	0.98065
2575.46922	0.98029
2573.41542	0.97974
2571.36162	0.97957
2569.30781	0.97973
2567.25401	0.98010
2565.20021	0.98094
2563.14640	0.98180
2561.09260	0.98200
2559.03880	0.98183
2556.98500	0.98149
2554.93119	0.98085
2552.87739	0.98023
2550.82359	0.97978
2548.76978	0.97969
2546.71598	0.97990
2544.66218	0.97999
2542.60837	0.98011
2540.55457	0.98003
2538.50077	0.97991
2536.44696	0.98023
2534.39316	0.98080
2532.33936	0.98131
2530.28555	0.98112
2528.23175	0.98066
2526.17795	0.98093
2524.12414	0.98110
2522.07034	0.98059
2520.01654	0.98057
2517.96273	0.98122
2515.90893	0.98133
2513.85513	0.98056
2511.80132	0.97978
2509.74752	0.97979
2507.69372	0.98049
2505.63992	0.98131
2503.58611	0.98178
2501.53231	0.98211
2499.47851	0.98284
2497.42470	0.98316
2495.37090	0.98254
2493.31710	0.98227
2491.26329	0.98258
2489.20949	0.98245
2487.15569	0.98175
2485.10188	0.98123
2483.04808	0.98153
2480.99428	0.98180
2478.94047	0.98138
2476.88667	0.98124
2474.83287	0.98166
2472.77906	0.98207
2470.72526	0.98251
2468.67146	0.98281
2466.61765	0.98250
2464.56385	0.98166
2462.51005	0.98070
2460.45624	0.98038
2458.40244	0.98109
2456.34864	0.98204
2454.29483	0.98247
2452.24103	0.98270
2450.18723	0.98291
2448.13343	0.98318
2446.07962	0.98330
2444.02582	0.98283
2441.97202	0.98250
2439.91821	0.98248
2437.86441	0.98217
2435.81061	0.98190
2433.75680	0.98199
2431.70300	0.98200
2429.64920	0.98191
2427.59539	0.98229
2425.54159	0.98292
2423.48779	0.98319
2421.43398	0.98313
2419.38018	0.98296
2417.32638	0.98268
2415.27257	0.98251
2413.21877	0.98252
2411.16497	0.98257
2409.11116	0.98262
2407.05736	0.98284
2405.00356	0.98311
2402.94975	0.98311
2400.89595	0.98275
2398.84215	0.98234
2396.78834	0.98255
2394.73454	0.98324
2392.68074	0.98344
2390.62694	0.98286
2388.57313	0.98234
2386.51933	0.98235
2384.46553	0.98242
2382.41172	0.98210
2380.35792	0.98153
2378.30412	0.98103
2376.25031	0.98059
2374.19651	0.98042
2372.14271	0.98084
2370.08890	0.98168
2368.03510	0.98218
2365.98130	0.98171
2363.92749	0.98095
2361.87369	0.97987
2359.81989	0.97883
2357.76608	0.97925
2355.71228	0.98026
2353.65848	0.98067
2351.60467	0.98109
2349.55087	0.98175
2347.49707	0.98221
2345.44326	0.98184
2343.38946	0.98118
2341.33566	0.98139
2339.28186	0.98109
2337.22805	0.97990
2335.17425	0.97944
2333.12045	0.97953
2331.06664	0.97932
2329.01284	0.97937
2326.95904	0.97972
2324.90523	0.97992
2322.85143	0.98011
2320.79763	0.98044
2318.74382	0.98099
2316.69002	0.98136
2314.63622	0.98110
2312.58241	0.98072
2310.52861	0.98063
2308.47481	0.98074
2306.42100	0.98093
2304.36720	0.98127
2302.31340	0.98182
2300.25959	0.98220
2298.20579	0.98224
2296.15199	0.98187
2294.09818	0.98138
2292.04438	0.98138
2289.99058	0.98168
2287.93677	0.98172
2285.88297	0.98152
2283.82917	0.98171
2281.77537	0.98206
2279.72156	0.98234
2277.66776	0.98267
2275.61396	0.98230
2273.56015	0.98148
2271.50635	0.98172
2269.45255	0.98292
2267.39874	0.98318
2265.34494	0.98259
2263.29114	0.98287
2261.23733	0.98374
2259.18353	0.98394
2257.12973	0.98340
2255.07592	0.98310
2253.02212	0.98376
2250.96832	0.98418
2248.91451	0.98371
2246.86071	0.98362
2244.80691	0.98366
2242.75310	0.98314
2240.69930	0.98280
2238.64550	0.98319
2236.59169	0.98363
2234.53789	0.98371
2232.48409	0.98381
2230.43029	0.98304
2228.37648	0.98240
2226.32268	0.98361
2224.26888	0.98427
2222.21507	0.98345
2220.16127	0.98300
2218.10747	0.98288
2216.05366	0.98319
2213.99986	0.98447
2211.94606	0.98569
2209.89225	0.98544
2207.83845	0.98429
2205.78465	0.98408
2203.73084	0.98465
2201.67704	0.98429
2199.62324	0.98235
2197.56943	0.98002
2195.51563	0.97855
2193.46183	0.97842
2191.40802	0.97909
2189.35422	0.98058
2187.30042	0.98278
2185.24661	0.98260
2183.19281	0.98158
2181.13901	0.98388
2179.08520	0.98630
2177.03140	0.98569
2174.97760	0.98451
2172.92380	0.98542
2170.86999	0.98657
2168.81619	0.98423
2166.76239	0.98077
2164.70858	0.98113
2162.65478	0.98453
2160.60098	0.98636
2158.54717	0.98639
2156.49337	0.98803
2154.43957	0.98799
2152.38576	0.98569
2150.33196	0.98577
2148.27816	0.98779
2146.22435	0.98795
2144.17055	0.98593
2142.11675	0.98431
2140.06294	0.98439
2138.00914	0.98533
2135.95534	0.98581
2133.90153	0.98634
2131.84773	0.98679
2129.79393	0.98596
2127.74012	0.98460
2125.68632	0.98383
2123.63252	0.98376
2121.57871	0.98399
2119.52491	0.98453
2117.47111	0.98556
2115.41731	0.98595
2113.36350	0.98505
2111.30970	0.98424
2109.25590	0.98388
2107.20209	0.98377
2105.14829	0.98440
2103.09449	0.98437
2101.04068	0.98307
2098.98688	0.98226
2096.93308	0.98245
2094.87927	0.98306
2092.82547	0.98351
2090.77167	0.98385
2088.71786	0.98496
2086.66406	0.98587
2084.61026	0.98548
2082.55645	0.98479
2080.50265	0.98424
2078.44885	0.98338
2076.39504	0.98247
2074.34124	0.98221
2072.28744	0.98268
2070.23363	0.98357
2068.17983	0.98385
2066.12603	0.98406
2064.07223	0.98564
2062.01842	0.98666
2059.96462	0.98567
2057.91082	0.98460
2055.85701	0.98473
2053.80321	0.98517
2051.74941	0.98434
2049.69560	0.98345
2047.64180	0.98483
2045.58800	0.98603
2043.53419	0.98477
2041.48039	0.98276
2039.42659	0.98219
2037.37278	0.98473
2035.31898	0.98815
2033.26518	0.98802
2031.21137	0.98613
2029.15757	0.98471
2027.10377	0.98315
2025.04996	0.98446
2022.99616	0.98740
2020.94236	0.98590
2018.88855	0.98268
2016.83475	0.98468
2014.78095	0.98824
2012.72714	0.98746
2010.67334	0.98445
2008.61954	0.98226
2006.56574	0.98252
2004.51193	0.98462
2002.45813	0.98552
2000.40433	0.98527
1998.35052	0.98495
1996.29672	0.98287
1994.24292	0.98029
1992.18911	0.98058
1990.13531	0.98284
1988.08151	0.98467
1986.02770	0.98562
1983.97390	0.98535
1981.92010	0.98414
1979.86629	0.98338
1977.81249	0.98378
1975.75869	0.98477
1973.70488	0.98381
1971.65108	0.98179
1969.59728	0.98313
1967.54347	0.98720
1965.48967	0.98950
1963.43587	0.98950
1961.38206	0.98839
1959.32826	0.98672
1957.27446	0.98668
1955.22066	0.98806
1953.16685	0.98787
1951.11305	0.98635
1949.05925	0.98612
1947.00544	0.98681
1944.95164	0.98689
1942.89784	0.98611
1940.84403	0.98471
1938.79023	0.98391
1936.73643	0.98373
1934.68262	0.98371
1932.62882	0.98419
1930.57502	0.98469
1928.52121	0.98462
1926.46741	0.98484
1924.41361	0.98598
1922.35980	0.98696
1920.30600	0.98692
1918.25220	0.98623
1916.19839	0.98525
1914.14459	0.98461
1912.09079	0.98428
1910.03698	0.98445
1907.98318	0.98543
1905.92938	0.98535
1903.87557	0.98400
1901.82177	0.98342
1899.76797	0.98393
1897.71417	0.98460
1895.66036	0.98464
1893.60656	0.98414
1891.55276	0.98392
1889.49895	0.98402
1887.44515	0.98358
1885.39135	0.98335
1883.33754	0.98413
1881.28374	0.98481
1879.22994	0.98475
1877.17613	0.98409
1875.12233	0.98344
1873.06853	0.98383
1871.01472	0.98477
1868.96092	0.98488
1866.90712	0.98422
1864.85331	0.98383
1862.79951	0.98381
1860.74571	0.98369
1858.69190	0.98358
1856.63810	0.98370
1854.58430	0.98392
1852.53049	0.98420
1850.47669	0.98420
1848.42289	0.98419
1846.36908	0.98455
1844.31528	0.98434
1842.26148	0.98372
1840.20768	0.98357
1838.15387	0.98351
1836.10007	0.98380
1834.04627	0.98445
1831.99246	0.98447
1829.93866	0.98370
1827.88486	0.98293
1825.83105	0.98288
1823.77725	0.98339
1821.72345	0.98370
1819.66964	0.98391
1817.61584	0.98419
1815.56204	0.98401
1813.50823	0.98371
1811.45443	0.98385
1809.40063	0.98390
1807.34682	0.98343
1805.29302	0.98276
1803.23922	0.98216
1801.18541	0.98188
1799.13161	0.98243
1797.07781	0.98327
1795.02400	0.98343
1792.97020	0.98312
1790.91640	0.98285
1788.86260	0.98247
1786.80879	0.98217
1784.75499	0.98215
1782.70119	0.98231
1780.64738	0.98250
1778.59358	0.98227
1776.53978	0.98158
1774.48597	0.98088
1772.43217	0.98045
1770.37837	0.98024
1768.32456	0.98003
1766.27076	0.97984
1764.21696	0.97989
1762.16315	0.97990
1760.10935	0.97935
1758.05555	0.97862
1756.00174	0.97815
1753.94794	0.97780
1751.89414	0.97714
1749.84033	0.97589
1747.78653	0.97409
1745.73273	0.97195
1743.67892	0.96968
1741.62512	0.96761
1739.57132	0.96605
1737.51751	0.96524
1735.46371	0.96475
1733.40991	0.96409
1731.35611	0.96396
1729.30230	0.96416
1727.24850	0.96441
1725.19470	0.96475
1723.14089	0.96503
1721.08709	0.96523
1719.03329	0.96534
1716.97948	0.96531
1714.92568	0.96480
1712.87188	0.96422
1710.81807	0.96390
1708.76427	0.96351
1706.71047	0.96265
1704.65666	0.96178
1702.60286	0.96144
1700.54906	0.96075
1698.49525	0.95913
1696.44145	0.95713
1694.38765	0.95488
1692.33384	0.95320
1690.28004	0.95152
1688.22624	0.94958
1686.17243	0.94787
1684.11863	0.94500
1682.06483	0.94185
1680.01103	0.94045
1677.95722	0.93950
1675.90342	0.93796
1673.84962	0.93618
1671.79581	0.93489
1669.74201	0.93285
1667.68821	0.93016
1665.63440	0.92835
1663.58060	0.92670
1661.52680	0.92479
1659.47299	0.92338
1657.41919	0.92268
1655.36539	0.92220
1653.31158	0.92031
1651.25778	0.91844
1649.20398	0.91843
1647.15017	0.91816
1645.09637	0.91728
1643.04257	0.91695
1640.98876	0.91711
1638.93496	0.91742
1636.88116	0.91706
1634.82735	0.91601
1632.77355	0.91582
1630.71975	0.91606
1628.66594	0.91636
1626.61214	0.91679
1624.55834	0.91706
1622.50454	0.91747
1620.45073	0.91879
1618.39693	0.92070
1616.34313	0.92282
1614.28932	0.92448
1612.23552	0.92579
1610.18172	0.92740
1608.12791	0.92910
1606.07411	0.93052
1604.02031	0.93181
1601.96650	0.93280
1599.91270	0.93356
1597.85890	0.93453
1595.80509	0.93566
1593.75129	0.93690
1591.69749	0.93819
1589.64368	0.93923
1587.58988	0.93994
1585.53608	0.94063
1583.48227	0.94152
1581.42847	0.94253
1579.37467	0.94354
1577.32086	0.94459
1575.26706	0.94533
1573.21326	0.94556
1571.15945	0.94586
1569.10565	0.94640
1567.05185	0.94674
1564.99805	0.94710
1562.94424	0.94789
1560.89044	0.94868
1558.83664	0.94845
1556.78283	0.94764
1554.72903	0.94763
1552.67523	0.94798
1550.62142	0.94853
1548.56762	0.94921
1546.51382	0.94979
1544.46001	0.95021
1542.40621	0.95064
1540.35241	0.95159
1538.29860	0.95303
1536.24480	0.95388
1534.19100	0.95463
1532.13719	0.95548
1530.08339	0.95614
1528.02959	0.95705
1525.97578	0.95828
1523.92198	0.95910
1521.86818	0.95957
1519.81437	0.96023
1517.76057	0.96070
1515.70677	0.96096
1513.65297	0.96154
1511.59916	0.96206
1509.54536	0.96214
1507.49156	0.96245
1505.43775	0.96331
1503.38395	0.96376
1501.33015	0.96418
1499.27634	0.96461
1497.22254	0.96457
1495.16874	0.96398
1493.11493	0.96380
1491.06113	0.96392
1489.00733	0.96330
1486.95352	0.96242
1484.89972	0.96185
1482.84592	0.96054
1480.79211	0.95764
1478.73831	0.95137
1476.68451	0.93590
1474.63070	0.90728
1472.57690	0.87984
1470.52310	0.87605
1468.46929	0.88325
1466.41549	0.88624
1464.36169	0.88187
1462.30788	0.88069
1460.25408	0.89016
1458.20028	0.90642
1456.14648	0.92050
1454.09267	0.92703
1452.03887	0.93110
1449.98507	0.93445
1447.93126	0.93715
1445.87746	0.93920
1443.82366	0.94051
1441.76985	0.94122
1439.71605	0.94169
1437.66225	0.94217
1435.60844	0.94287
1433.55464	0.94412
1431.50084	0.94560
1429.44703	0.94670
1427.39323	0.94756
1425.33943	0.94856
1423.28562	0.94936
1421.23182	0.94954
1419.17802	0.94950
1417.12421	0.94967
1415.07041	0.94991
1413.01661	0.95025
1410.96280	0.95076
1408.90900	0.95123
1406.85520	0.95144
1404.80139	0.95146
1402.74759	0.95155
1400.69379	0.95191
1398.63999	0.95248
1396.58618	0.95292
1394.53238	0.95290
1392.47858	0.95258
1390.42477	0.95253
1388.37097	0.95292
1386.31717	0.95314
1384.26336	0.95258
1382.20956	0.95129
1380.15576	0.94925
1378.10195	0.94725
1376.04815	0.94675
1373.99435	0.94784
1371.94054	0.94906
1369.88674	0.94969
1367.83294	0.95000
1365.77913	0.95069
1363.72533	0.95203
1361.67153	0.95339
1359.61772	0.95418
1357.56392	0.95472
1355.51012	0.95540
1353.45631	0.95613
1351.40251	0.95647
1349.34871	0.95667
1347.29491	0.95735
1345.24110	0.95819
1343.18730	0.95866
1341.13350	0.95886
1339.07969	0.95912
1337.02589	0.95932
1334.97209	0.95924
1332.91828	0.95906
1330.86448	0.95899
1328.81068	0.95904
1326.75687	0.95902
1324.70307	0.95876
1322.64927	0.95829
1320.59546	0.95790
1318.54166	0.95778
1316.48786	0.95749
1314.43405	0.95701
1312.38025	0.95698
1310.32645	0.95739
1308.27264	0.95759
1306.21884	0.95733
1304.16504	0.95695
1302.11123	0.95682
1300.05743	0.95672
1298.00363	0.95659
1295.94982	0.95658
1293.89602	0.95664
1291.84222	0.95681
1289.78842	0.95680
1287.73461	0.95626
1285.68081	0.95559
1283.62701	0.95514
1281.57320	0.95476
1279.51940	0.95428
1277.46560	0.95348
1275.41179	0.95233
1273.35799	0.95108
1271.30419	0.95005
1269.25038	0.94957
1267.19658	0.94924
1265.14278	0.94842
1263.08897	0.94739
1261.03517	0.94661
1258.98137	0.94608
1256.92756	0.94565
1254.87376	0.94523
1252.81996	0.94495
1250.76615	0.94470
1248.71235	0.94405
1246.65855	0.94311
1244.60474	0.94223
1242.55094	0.94154
1240.49714	0.94108
1238.44334	0.94063
1236.38953	0.94011
1234.33573	0.93965
1232.28193	0.93922
1230.22812	0.93875
1228.17432	0.93827
1226.12052	0.93771
1224.06671	0.93702
1222.01291	0.93631
1219.95911	0.93565
1217.90530	0.93505
1215.85150	0.93445
1213.79770	0.93351
1211.74389	0.93216
1209.69009	0.93086
1207.63629	0.92976
1205.58248	0.92878
1203.52868	0.92775
1201.47488	0.92637
1199.42107	0.92485
1197.36727	0.92325
1195.31347	0.92150
1193.25966	0.91980
1191.20586	0.91790
1189.15206	0.91551
1187.09825	0.91286
1185.04445	0.91017
1182.99065	0.90756
1180.93685	0.90487
1178.88304	0.90174
1176.82924	0.89829
1174.77544	0.89501
1172.72163	0.89191
1170.66783	0.88870
1168.61403	0.88542
1166.56022	0.88223
1164.50642	0.87923
1162.45262	0.87666
1160.39881	0.87441
1158.34501	0.87216
1156.29121	0.87002
1154.23740	0.86793
1152.18360	0.86544
1150.12980	0.86272
1148.07599	0.86025
1146.02219	0.85810
1143.96839	0.85602
1141.91458	0.85375
1139.86078	0.85118
1137.80698	0.84831
1135.75317	0.84516
1133.69937	0.84146
1131.64557	0.83710
1129.59176	0.83250
1127.53796	0.82746
1125.48416	0.82153
1123.43036	0.81503
1121.37655	0.80854
1119.32275	0.80209
1117.26895	0.79576
1115.21514	0.79002
1113.16134	0.78502
1111.10754	0.78063
1109.05373	0.77658
1106.99993	0.77254
1104.94613	0.76830
1102.89232	0.76393
1100.83852	0.76003
1098.78472	0.75701
1096.73091	0.75459
1094.67711	0.75214
1092.62331	0.74969
1090.56950	0.74760
1088.51570	0.74588
1086.46190	0.74421
1084.40809	0.74222
1082.35429	0.74007
1080.30049	0.73796
1078.24668	0.73582
1076.19288	0.73350
1074.13908	0.73070
1072.08528	0.72751
1070.03147	0.72424
1067.97767	0.72064
1065.92387	0.71625
1063.87006	0.71087
1061.81626	0.70482
1059.76246	0.69872
1057.70865	0.69244
1055.65485	0.68557
1053.60105	0.67789
1051.54724	0.66923
1049.49344	0.66003
1047.43964	0.65071
1045.38583	0.64142
1043.33203	0.63236
1041.27823	0.62349
1039.22442	0.61492
1037.17062	0.60687
1035.11682	0.59951
1033.06301	0.59317
1031.00921	0.58807
1028.95541	0.58425
1026.90160	0.58151
1024.84780	0.57947
1022.79400	0.57786
1020.74019	0.57664
1018.68639	0.57563
1016.63259	0.57423
1014.57879	0.57230
1012.52498	0.57034
1010.47118	0.56861
1008.41738	0.56741
1006.36357	0.56715
1004.30977	0.56760
1002.25597	0.56889
1000.20216	0.57174
998.14836	0.57585
996.09456	0.58087
994.04075	0.58725
991.98695	0.59464
989.93315	0.60240
987.87934	0.61056
985.82554	0.61912
983.77174	0.62778
981.71793	0.63660
979.66413	0.64560
977.61033	0.65473
975.55652	0.66414
973.50272	0.67345
971.44892	0.68244
969.39511	0.69152
967.34131	0.70041
965.28751	0.70832
963.23371	0.71538
961.17990	0.72211
959.12610	0.72852
957.07230	0.73449
955.01849	0.73988
952.96469	0.74466
950.91089	0.74908
948.85708	0.75297
946.80328	0.75615
944.74948	0.75905
942.69567	0.76164
940.64187	0.76364
938.58807	0.76558
936.53426	0.76800
934.48046	0.77029
932.42666	0.77167
930.37285	0.77245
928.31905	0.77313
926.26525	0.77343
924.21144	0.77284
922.15764	0.77113
920.10384	0.76836
918.05003	0.76495
915.99623	0.76157
913.94243	0.75865
911.88862	0.75713
909.83482	0.75878
907.78102	0.76447
905.72722	0.77319
903.67341	0.78254
901.61961	0.79114
899.56581	0.79919
897.51200	0.80668
895.45820	0.81341
893.40440	0.81955
891.35059	0.82472
889.29679	0.82856
887.24299	0.83180
885.18918	0.83473
883.13538	0.83698
881.08158	0.83869
879.02777	0.84018
876.97397	0.84213
874.92017	0.84514
872.86636	0.84841
870.81256	0.85139
868.75876	0.85488
866.70495	0.85883
864.65115	0.86220
862.59735	0.86487
860.54354	0.86766
858.48974	0.87091
856.43594	0.87402
854.38213	0.87625
852.32833	0.87816
850.27453	0.88062
848.22073	0.88275
846.16692	0.88341
844.11312	0.88314
842.05932	0.88309
840.00551	0.88329
837.95171	0.88326
835.89791	0.88309
833.84410	0.88270
831.79030	0.88172
829.73650	0.88085
827.68269	0.88077
825.62889	0.88048
823.57509	0.87936
821.52128	0.87816
819.46748	0.87729
817.41368	0.87651
815.35987	0.87582
813.30607	0.87523
811.25227	0.87422
809.19846	0.87257
807.14466	0.87022
805.09086	0.86735
803.03705	0.86476
800.98325	0.86255
798.92945	0.86077
796.87565	0.85945
794.82184	0.85812
792.76804	0.85747
790.71424	0.85794
788.66043	0.85856
786.60663	0.85864
784.55283	0.85843
782.49902	0.85830
780.44522	0.85829
778.39142	0.85877
776.33761	0.85957
774.28381	0.86046
772.23001	0.86130
770.17620	0.86120
768.12240	0.85998
766.06860	0.85803
764.01479	0.85584
761.96099	0.85396
759.90719	0.85283
757.85338	0.85181
755.79958	0.84970
753.74578	0.84762
751.69197	0.84673
749.63817	0.84662
747.58437	0.84729
745.53056	0.84817
743.47676	0.84862
741.42296	0.84940
739.36916	0.85042
737.31535	0.85002
735.26155	0.84495
733.20775	0.83108
731.15394	0.81427
729.10014	0.80918
727.04634	0.81502
724.99253	0.81681
722.93873	0.80546
720.88493	0.78209
718.83112	0.76141
716.77732	0.75941
714.72352	0.77425
712.66971	0.79366
710.61591	0.80783
708.56211	0.81371
706.50830	0.81384
704.45450	0.81205
702.40070	0.80972
700.34689	0.80663
698.29309	0.80317
696.23929	0.80014
694.18548	0.79812
692.13168	0.79716
690.07788	0.79664
688.02408	0.79650
685.97027	0.79679
683.91647	0.79655
681.86267	0.79596
679.80886	0.79575
677.75506	0.79589
675.70126	0.79593
673.64745	0.79515
671.59365	0.79426
669.53985	0.79487
667.48604	0.79794
665.43224	0.80059
663.37844	0.80162
661.32463	0.80291
659.27083	0.80502
657.21703	0.80686
655.16322	0.80750
653.10942	0.80681
651.05562	0.80579
649.00181	0.80507
646.94801	0.80470
644.89421	0.80524
642.84040	0.80645
640.78660	0.80725
638.73280	0.80812
636.67899	0.80908
634.62519	0.80831
632.57139	0.80676
630.51759	0.80635
628.46378	0.80598
626.40998	0.80531
624.35618	0.80494
622.30237	0.80400
620.24857	0.80278
618.19477	0.80103
616.14096	0.79846
614.08716	0.79721
612.03336	0.79719
609.97955	0.79600
607.92575	0.79355
605.87195	0.79118
603.81814	0.78863
601.76434	0.78601
599.71054	0.78422
597.65673	0.78277
595.60293	0.78108
593.54913	0.78050
591.49532	0.78126
589.44152	0.78038
587.38772	0.77684
585.33391	0.77243
583.28011	0.76834
581.22631	0.76492
579.17250	0.76243
577.11870	0.76112
575.06490	0.76086
573.01110	0.76008
570.95729	0.75756
568.90349	0.75375
566.84969	0.74928
564.79588	0.74467
562.74208	0.74032
560.68828	0.73651
558.63447	0.73290
556.58067	0.72910
554.52687	0.72571
552.47306	0.72221
550.41926	0.71726
548.36546	0.71156
546.31165	0.70538
544.25785	0.69771
542.20405	0.68967
540.15024	0.68252
538.09644	0.67639
536.04264	0.67171
533.98883	0.66909
531.93503	0.66735
529.88123	0.66524
527.82742	0.66377
525.77362	0.66283
523.71982	0.66165
521.66602	0.66243
519.61221	0.66721
517.55841	0.67319
515.50461	0.67658
513.45080	0.67934
511.39700	0.68392
509.34320	0.68883
507.28939	0.69169
505.23559	0.69301
503.18179	0.69478
501.12798	0.69630
499.07418	0.69617
497.02038	0.69542
494.96657	0.69472
492.91277	0.69376
490.85897	0.69272
488.80516	0.69227
486.75136	0.69152
484.69756	0.68716
482.64375	0.67840
480.58995	0.66832
478.53615	0.65800
476.48234	0.64740
474.42854	0.63652
472.37474	0.62526
470.32093	0.61600
468.26713	0.60840
466.21333	0.60226
464.15953	0.60144
462.10572	0.60500
460.05192	0.60896
457.99812	0.61367
455.94431	0.61841
453.89051	0.62042
451.83671	0.62111
449.78290	0.62337
447.72910	0.62915
445.67530	0.63645
443.62149	0.64091
441.56769	0.64225
439.51389	0.64135
437.46008	0.64025
435.40628	0.64226
433.35248	0.64485
431.29867	0.64277
429.24487	0.63488
427.19107	0.62731
425.13726	0.62882
423.08346	0.63920
421.02966	0.65004
418.97585	0.65313
416.92205	0.64840
414.86825	0.64870
412.81445	0.65481
410.76064	0.66547
408.70684	0.67914
406.65304	0.68525
404.59923	0.68366
402.54543	0.68592
400.49163	0.69003
398.43782	0.68772
