3996.71440	0.98487
3994.66059	0.98519
3992.60678	0.98541
3990.55297	0.98541
3988.49916	0.98534
3986.44535	0.98506
3984.39154	0.98477
3982.33773	0.98482
3980.28391	0.98505
3978.23010	0.98517
3976.17629	0.98514
3974.12248	0.98518
3972.06867	0.98534
3970.01486	0.98538
3967.96105	0.98511
3965.90724	0.98463
3963.85343	0.98445
3961.79962	0.98476
3959.74581	0.98506
3957.69200	0.98516
3955.63819	0.98526
3953.58438	0.98522
3951.53057	0.98491
3949.47676	0.98463
3947.42295	0.98453
3945.36914	0.98457
3943.31533	0.98495
3941.26152	0.98522
3939.20771	0.98493
3937.15390	0.98456
3935.10009	0.98451
3933.04628	0.98475
3930.99247	0.98499
3928.93866	0.98494
3926.88485	0.98484
3924.83104	0.98501
3922.77723	0.98520
3920.72342	0.98507
3918.66961	0.98478
3916.61580	0.98470
3914.56199	0.98488
3912.50818	0.98494
3910.45437	0.98482
3908.40056	0.98466
3906.34675	0.98452
3904.29294	0.98468
3902.23913	0.98486
3900.18532	0.98473
3898.13151	0.98468
3896.07770	0.98465
3894.02389	0.98454
3891.97008	0.98465
3889.91627	0.98506
3887.86246	0.98532
3885.80865	0.98540
3883.75484	0.98533
3881.70103	0.98510
3879.64722	0.98500
3877.59341	0.98508
3875.53960	0.98521
3873.48579	0.98519
3871.43198	0.98491
3869.37817	0.98477
3867.32436	0.98480
3865.27055	0.98464
3863.21674	0.98456
3861.16293	0.98456
3859.10912	0.98446
3857.05531	0.98465
3855.00150	0.98507
3852.94769	0.98483
3850.89388	0.98437
3848.84007	0.98437
3846.78626	0.98456
3844.73245	0.98471
3842.67864	0.98477
3840.62483	0.98503
3838.57102	0.98536
3836.51721	0.98526
3834.46340	0.98491
3832.40959	0.98466
3830.35578	0.98454
3828.30197	0.98439
3826.24816	0.98426
3824.19435	0.98436
3822.14054	0.98469
3820.08673	0.98500
3818.03292	0.98492
3815.97911	0.98456
3813.92530	0.98445
3811.87149	0.98455
3809.81768	0.98446
3807.76387	0.98421
3805.71006	0.98393
3803.65625	0.98356
3801.60244	0.98331
3799.54863	0.98342
3797.49482	0.98367
3795.44101	0.98389
3793.38720	0.98377
3791.33339	0.98349
3789.27958	0.98350
3787.22577	0.98357
3785.17196	0.98362
3783.11815	0.98372
3781.06434	0.98347
3779.01053	0.98310
3776.95672	0.98294
3774.90291	0.98279
3772.84910	0.98260
3770.79529	0.98231
3768.74148	0.98218
3766.68767	0.98227
3764.63386	0.98239
3762.58005	0.98258
3760.52624	0.98271
3758.47243	0.98271
3756.41862	0.98270
3754.36481	0.98273
3752.31100	0.98292
3750.25719	0.98313
3748.20338	0.98315
3746.14957	0.98309
3744.09576	0.98302
3742.04195	0.98300
3739.98814	0.98270
3737.93433	0.98206
3735.88052	0.98140
3733.82671	0.98074
3731.77290	0.98064
3729.71909	0.98130
3727.66528	0.98177
3725.61147	0.98167
3723.55766	0.98137
3721.50385	0.98095
3719.45004	0.98013
3717.39623	0.97915
3715.34242	0.97829
3713.28861	0.97747
3711.23480	0.97672
3709.18099	0.97615
3707.12718	0.97521
3705.07337	0.97355
3703.01956	0.97157
3700.96575	0.97024
3698.91194	0.96997
3696.85813	0.97005
3694.80432	0.96999
3692.75051	0.96971
3690.69670	0.96924
3688.64289	0.96882
3686.58907	0.96818
3684.53526	0.96715
3682.48145	0.96619
3680.42764	0.96529
3678.37383	0.96426
3676.32002	0.96335
3674.26621	0.96225
3672.21240	0.96065
3670.15859	0.95896
3668.10478	0.95764
3666.05097	0.95646
3663.99716	0.95509
3661.94335	0.95378
3659.88954	0.95233
3657.83573	0.95039
3655.78192	0.94822
3653.72811	0.94646
3651.67430	0.94513
3649.62049	0.94366
3647.56668	0.94140
3645.51287	0.93927
3643.45906	0.93769
3641.40525	0.93615
3639.35144	0.93458
3637.29763	0.93283
3635.24382	0.93065
3633.19001	0.92849
3631.13620	0.92690
3629.08239	0.92525
3627.02858	0.92321
3624.97477	0.92172
3622.92096	0.92041
3620.86715	0.91895
3618.81334	0.91743
3616.75953	0.91599
3614.70572	0.91494
3612.65191	0.91404
3610.59810	0.91273
3608.54429	0.91117
3606.49048	0.90967
3604.43667	0.90814
3602.38286	0.90663
3600.32905	0.90520
3598.27524	0.90365
3596.22143	0.90212
3594.16762	0.90077
3592.11381	0.89938
3590.06000	0.89795
3588.00619	0.89637
3585.95238	0.89456
3583.89857	0.89307
3581.84476	0.89180
3579.79095	0.89024
3577.73714	0.88842
3575.68333	0.88665
3573.62952	0.88513
3571.57571	0.88387
3569.52190	0.88274
3567.46809	0.88151
3565.41428	0.87996
3563.36047	0.87823
3561.30666	0.87629
3559.25285	0.87427
3557.19904	0.87247
3555.14523	0.87110
3553.09142	0.86997
3551.03761	0.86878
3548.98380	0.86750
3546.92999	0.86606
3544.87618	0.86449
3542.82237	0.86284
3540.76856	0.86124
3538.71475	0.85993
3536.66094	0.85862
3534.60713	0.85706
3532.55332	0.85551
3530.49951	0.85402
3528.44570	0.85260
3526.39189	0.85121
3524.33808	0.85008
3522.28427	0.84911
3520.23046	0.84796
3518.17665	0.84695
3516.12284	0.84605
3514.06903	0.84489
3512.01522	0.84359
3509.96141	0.84220
3507.90760	0.84066
3505.85379	0.83910
3503.79998	0.83760
3501.74617	0.83628
3499.69236	0.83511
3497.63855	0.83388
3495.58474	0.83262
3493.53093	0.83152
3491.47712	0.83051
3489.42331	0.82946
3487.36950	0.82840
3485.31569	0.82731
3483.26188	0.82617
3481.20807	0.82490
3479.15426	0.82365
3477.10045	0.82254
3475.04664	0.82147
3472.99283	0.82046
3470.93902	0.81955
3468.88521	0.81849
3466.83140	0.81726
3464.77759	0.81632
3462.72378	0.81573
3460.66997	0.81511
3458.61616	0.81435
3456.56235	0.81347
3454.50854	0.81242
3452.45473	0.81139
3450.40092	0.81049
3448.34711	0.80967
3446.29330	0.80896
3444.23949	0.80817
3442.18568	0.80729
3440.13187	0.80646
3438.07806	0.80559
3436.02425	0.80489
3433.97044	0.80442
3431.91663	0.80384
3429.86282	0.80319
3427.80901	0.80252
3425.75520	0.80188
3423.70139	0.80146
3421.64758	0.80104
3419.59377	0.80033
3417.53996	0.79948
3415.48615	0.79875
3413.43234	0.79809
3411.37853	0.79758
3409.32472	0.79753
3407.27091	0.79776
3405.21710	0.79787
3403.16329	0.79767
3401.10948	0.79723
3399.05567	0.79677
3397.00186	0.79634
3394.94805	0.79594
3392.89424	0.79579
3390.84042	0.79590
3388.78661	0.79614
3386.73280	0.79635
3384.67899	0.79639
3382.62518	0.79630
3380.57137	0.79626
3378.51756	0.79632
3376.46375	0.79644
3374.40994	0.79667
3372.35613	0.79695
3370.30232	0.79709
3368.24851	0.79727
3366.19470	0.79779
3364.14089	0.79836
3362.08708	0.79859
3360.03327	0.79864
3357.97946	0.79885
3355.92565	0.79920
3353.87184	0.79960
3351.81803	0.80012
3349.76422	0.80064
3347.71041	0.80103
3345.65660	0.80138
3343.60279	0.80171
3341.54898	0.80210
3339.49517	0.80267
3337.44136	0.80336
3335.38755	0.80402
3333.33374	0.80446
3331.27993	0.80482
3329.22612	0.80512
3327.17231	0.80526
3325.11850	0.80563
3323.06469	0.80648
3321.01088	0.80721
3318.95707	0.80750
3316.90326	0.80770
3314.84945	0.80811
3312.79564	0.80879
3310.74183	0.80937
3308.68802	0.80968
3306.63421	0.81008
3304.58040	0.81038
3302.52659	0.81049
3300.47278	0.81072
3298.41897	0.81106
3296.36516	0.81158
3294.31135	0.81220
3292.25754	0.81258
3290.20373	0.81280
3288.14992	0.81307
3286.09611	0.81343
3284.04230	0.81390
3281.98849	0.81441
3279.93468	0.81481
3277.88087	0.81511
3275.82706	0.81543
3273.77325	0.81576
3271.71944	0.81604
3269.66563	0.81633
3267.61182	0.81671
3265.55801	0.81721
3263.50420	0.81773
3261.45039	0.81818
3259.39658	0.81851
3257.34277	0.81881
3255.28896	0.81943
3253.23515	0.82023
3251.18134	0.82084
3249.12753	0.82118
3247.07372	0.82152
3245.01991	0.82215
3242.96610	0.82288
3240.91229	0.82332
3238.85848	0.82357
3236.80467	0.82401
3234.75086	0.82478
3232.69705	0.82561
3230.64324	0.82619
3228.58943	0.82661
3226.53562	0.82721
3224.48181	0.82796
3222.42800	0.82863
3220.37419	0.82925
3218.32038	0.82990
3216.26657	0.83033
3214.21276	0.83070
3212.15895	0.83135
3210.10514	0.83220
3208.05133	0.83313
3205.99752	0.83389
3203.94371	0.83447
3201.88990	0.83529
3199.83609	0.83629
3197.78228	0.83725
3195.72847	0.83836
3193.67466	0.83947
3191.62085	0.84018
3189.56704	0.84078
3187.51323	0.84156
3185.45942	0.84242
3183.40561	0.84339
3181.35180	0.84446
3179.29799	0.84549
3177.24418	0.84640
3175.19037	0.84722
3173.13656	0.84816
3171.08275	0.84932
3169.02894	0.85049
3166.97513	0.85141
3164.92132	0.85207
3162.86751	0.85275
3160.81370	0.85367
3158.75989	0.85474
3156.70608	0.85576
3154.65227	0.85662
3152.59846	0.85752
3150.54465	0.85852
3148.49084	0.85943
3146.43703	0.86034
3144.38322	0.86131
3142.32941	0.86230
3140.27560	0.86333
3138.22179	0.86439
3136.16798	0.86540
3134.11417	0.86622
3132.06036	0.86684
3130.00655	0.86751
3127.95274	0.86835
3125.89893	0.86930
3123.84512	0.87022
3121.79131	0.87118
3119.73750	0.87219
3117.68369	0.87307
3115.62988	0.87385
3113.57607	0.87477
3111.52226	0.87584
3109.46845	0.87667
3107.41464	0.87724
3105.36083	0.87793
3103.30702	0.87855
3101.25321	0.87897
3099.19940	0.87942
3097.14559	0.88012
3095.09177	0.88101
3093.03796	0.88194
3090.98415	0.88304
3088.93034	0.88415
3086.87653	0.88487
3084.82272	0.88535
3082.76891	0.88587
3080.71510	0.88647
3078.66129	0.88729
3076.60748	0.88818
3074.55367	0.88880
3072.49986	0.88936
3070.44605	0.89004
3068.39224	0.89064
3066.33843	0.89123
3064.28462	0.89201
3062.23081	0.89292
3060.17700	0.89375
3058.12319	0.89426
3056.06938	0.89458
3054.01557	0.89495
3051.96176	0.89536
3049.90795	0.89587
3047.85414	0.89652
3045.80033	0.89709
3043.74652	0.89760
3041.69271	0.89831
3039.63890	0.89904
3037.58509	0.89952
3035.53128	0.89983
3033.47747	0.90011
3031.42366	0.90057
3029.36985	0.90116
3027.31604	0.90163
3025.26223	0.90201
3023.20842	0.90234
3021.15461	0.90255
3019.10080	0.90274
3017.04699	0.90295
3014.99318	0.90328
3012.93937	0.90377
3010.88556	0.90420
3008.83175	0.90427
3006.77794	0.90385
3004.72413	0.90325
3002.67032	0.90280
3000.61651	0.90239
2998.56270	0.90200
2996.50889	0.90155
2994.45508	0.90054
2992.40127	0.89897
2990.34746	0.89715
2988.29365	0.89506
2986.23984	0.89246
2984.18603	0.88903
2982.13222	0.88438
2980.07841	0.87832
2978.02460	0.87062
2975.97079	0.86079
2973.91698	0.84820
2971.86317	0.83210
2969.80936	0.81172
2967.75555	0.78693
2965.70174	0.75910
2963.64793	0.73166
2961.59412	0.70974
2959.54031	0.69694
2957.48650	0.69064
2955.43269	0.68354
2953.37888	0.67147
2951.32507	0.65870
2949.27126	0.65527
2947.21745	0.66831
2945.16364	0.69543
2943.10983	0.72655
2941.05602	0.75150
2939.00221	0.76519
2936.94840	0.76716
2934.89459	0.75890
2932.84078	0.74242
2930.78697	0.71993
2928.73316	0.69442
2926.67935	0.66952
2924.62554	0.64754
2922.57173	0.62853
2920.51792	0.61249
2918.46411	0.60298
2916.41030	0.60565
2914.35649	0.62118
2912.30268	0.64280
2910.24887	0.66292
2908.19506	0.67926
2906.14125	0.69363
2904.08744	0.70834
2902.03363	0.72400
2899.97982	0.73975
2897.92601	0.75423
2895.87220	0.76610
2893.81839	0.77481
2891.76458	0.78051
2889.71077	0.78314
2887.65696	0.78312
2885.60315	0.78131
2883.54934	0.77765
2881.49553	0.77185
2879.44172	0.76527
2877.38791	0.76076
2875.33410	0.76004
2873.28029	0.76110
2871.22648	0.76053
2869.17267	0.75784
2867.11886	0.75693
2865.06505	0.76434
2863.01124	0.78286
2860.95743	0.80691
2858.90362	0.82801
2856.84981	0.84207
2854.79600	0.84947
2852.74219	0.85178
2850.68838	0.85001
2848.63457	0.84393
2846.58076	0.83277
2844.52695	0.81664
2842.47314	0.79741
2840.41933	0.77926
2838.36552	0.76874
2836.31171	0.77202
2834.25790	0.78960
2832.20409	0.81455
2830.15028	0.83823
2828.09647	0.85631
2826.04266	0.86879
2823.98885	0.87726
2821.93504	0.88324
2819.88123	0.88785
2817.82742	0.89154
2815.77361	0.89453
2813.71980	0.89705
2811.66599	0.89902
2809.61218	0.90074
2807.55837	0.90271
2805.50456	0.90480
2803.45075	0.90686
2801.39693	0.90898
2799.34312	0.91086
2797.28931	0.91219
2795.23550	0.91320
2793.18169	0.91430
2791.12788	0.91547
2789.07407	0.91667
2787.02026	0.91797
2784.96645	0.91926
2782.91264	0.92026
2780.85883	0.92107
2778.80502	0.92199
2776.75121	0.92284
2774.69740	0.92342
2772.64359	0.92391
2770.58978	0.92445
2768.53597	0.92496
2766.48216	0.92531
2764.42835	0.92559
2762.37454	0.92602
2760.32073	0.92674
2758.26692	0.92746
2756.21311	0.92791
2754.15930	0.92825
2752.10549	0.92843
2750.05168	0.92857
2747.99787	0.92878
2745.94406	0.92885
2743.89025	0.92883
2741.83644	0.92892
2739.78263	0.92887
2737.72882	0.92859
2735.67501	0.92834
2733.62120	0.92814
2731.56739	0.92770
2729.51358	0.92713
2727.45977	0.92678
2725.40596	0.92658
2723.35215	0.92639
2721.29834	0.92653
2719.24453	0.92720
2717.19072	0.92817
2715.13691	0.92930
2713.08310	0.93031
2711.02929	0.93106
2708.97548	0.93180
2706.92167	0.93251
2704.86786	0.93289
2702.81405	0.93315
2700.76024	0.93368
2698.70643	0.93422
2696.65262	0.93445
2694.59881	0.93463
2692.54500	0.93490
2690.49119	0.93501
2688.43738	0.93492
2686.38357	0.93487
2684.32976	0.93497
2682.27595	0.93528
2680.22214	0.93559
2678.16833	0.93578
2676.11452	0.93585
2674.06071	0.93580
2672.00690	0.93588
2669.95309	0.93614
2667.89928	0.93635
2665.84547	0.93650
2663.79166	0.93670
2661.73785	0.93680
2659.68404	0.93675
2657.63023	0.93676
2655.57642	0.93702
2653.52261	0.93742
2651.46880	0.93769
2649.41499	0.93779
2647.36118	0.93794
2645.30737	0.93827
2643.25356	0.93865
2641.19975	0.93891
2639.14594	0.93901
2637.09213	0.93914
2635.03832	0.93937
2632.98451	0.93958
2630.93070	0.93967
2628.87689	0.93956
2626.82308	0.93953
2624.76927	0.93997
2622.71546	0.94038
2620.66165	0.94018
2618.60784	0.93971
2616.55403	0.93958
2614.50022	0.94005
2612.44641	0.94058
2610.39260	0.94067
2608.33879	0.94075
2606.28498	0.94107
2604.23117	0.94141
2602.17736	0.94187
2600.12355	0.94236
2598.06974	0.94258
2596.01593	0.94265
2593.96212	0.94292
2591.90831	0.94333
2589.85450	0.94334
2587.80069	0.94272
2585.74688	0.94215
2583.69307	0.94211
2581.63926	0.94234
2579.58545	0.94260
2577.53164	0.94296
2575.47783	0.94332
2573.42402	0.94361
2571.37021	0.94380
2569.31640	0.94385
2567.26259	0.94387
2565.20878	0.94405
2563.15497	0.94434
2561.10116	0.94450
2559.04735	0.94442
2556.99354	0.94426
2554.93973	0.94426
2552.88592	0.94438
2550.83211	0.94438
2548.77830	0.94430
2546.72449	0.94438
2544.67068	0.94458
2542.61687	0.94491
2540.56306	0.94545
2538.50925	0.94577
2536.45544	0.94555
2534.40163	0.94521
2532.34782	0.94519
2530.29401	0.94519
2528.24020	0.94495
2526.18639	0.94483
2524.13258	0.94507
2522.07877	0.94551
2520.02496	0.94581
2517.97115	0.94595
2515.91734	0.94629
2513.86353	0.94664
2511.80972	0.94676
2509.75591	0.94689
2507.70210	0.94693
2505.64828	0.94693
2503.59447	0.94713
2501.54066	0.94717
2499.48685	0.94684
2497.43304	0.94660
2495.37923	0.94664
2493.32542	0.94673
2491.27161	0.94681
2489.21780	0.94716
2487.16399	0.94753
2485.11018	0.94742
2483.05637	0.94724
2481.00256	0.94741
2478.94875	0.94753
2476.89494	0.94717
2474.84113	0.94693
2472.78732	0.94738
2470.73351	0.94771
2468.67970	0.94747
2466.62589	0.94747
2464.57208	0.94785
2462.51827	0.94803
2460.46446	0.94780
2458.41065	0.94752
2456.35684	0.94758
2454.30303	0.94764
2452.24922	0.94771
2450.19541	0.94798
2448.14160	0.94769
2446.08779	0.94683
2444.03398	0.94672
2441.98017	0.94750
2439.92636	0.94789
2437.87255	0.94760
2435.81874	0.94740
2433.76493	0.94740
2431.71112	0.94737
2429.65731	0.94751
2427.60350	0.94772
2425.54969	0.94793
2423.49588	0.94809
2421.44207	0.94804
2419.38826	0.94816
2417.33445	0.94858
2415.28064	0.94873
2413.22683	0.94842
2411.17302	0.94831
2409.11921	0.94841
2407.06540	0.94816
2405.01159	0.94784
2402.95778	0.94777
2400.90397	0.94788
2398.85016	0.94811
2396.79635	0.94817
2394.74254	0.94794
2392.68873	0.94771
2390.63492	0.94768
2388.58111	0.94781
2386.52730	0.94809
2384.47349	0.94852
2382.41968	0.94879
2380.36587	0.94884
2378.31206	0.94877
2376.25825	0.94851
2374.20444	0.94835
2372.15063	0.94845
2370.09682	0.94825
2368.04301	0.94779
2365.98920	0.94792
2363.93539	0.94832
2361.88158	0.94843
2359.82777	0.94894
2357.77396	0.94956
2355.72015	0.94947
2353.66634	0.94909
2351.61253	0.94873
2349.55872	0.94869
2347.50491	0.94905
2345.45110	0.94923
2343.39729	0.94918
2341.34348	0.94921
2339.28967	0.94911
2337.23586	0.94916
2335.18205	0.94931
2333.12824	0.94897
2331.07443	0.94823
2329.02062	0.94757
2326.96681	0.94702
2324.91300	0.94664
2322.85919	0.94683
2320.80538	0.94771
2318.75157	0.94866
2316.69776	0.94901
2314.64395	0.94880
2312.59014	0.94835
2310.53633	0.94826
2308.48252	0.94861
2306.42871	0.94866
2304.37490	0.94845
2302.32109	0.94822
2300.26728	0.94790
2298.21347	0.94788
2296.15966	0.94814
2294.10585	0.94831
2292.05204	0.94834
2289.99823	0.94845
2287.94442	0.94871
2285.89061	0.94874
2283.83680	0.94862
2281.78299	0.94849
2279.72918	0.94824
2277.67537	0.94825
2275.62156	0.94868
2273.56775	0.94904
2271.51394	0.94915
2269.46013	0.94944
2267.40632	0.94982
2265.35251	0.94971
2263.29870	0.94925
2261.24489	0.94868
2259.19108	0.94804
2257.13727	0.94783
2255.08346	0.94820
2253.02965	0.94863
2250.97584	0.94885
2248.92203	0.94913
2246.86822	0.94955
2244.81441	0.94969
2242.76060	0.94953
2240.70679	0.94939
2238.65298	0.94913
2236.59917	0.94856
2234.54536	0.94836
2232.49155	0.94882
2230.43774	0.94930
2228.38393	0.94942
2226.33012	0.94932
2224.27631	0.94922
2222.22250	0.94916
2220.16869	0.94874
2218.11488	0.94828
2216.06107	0.94867
2214.00726	0.94948
2211.95344	0.95060
2209.89963	0.95171
2207.84582	0.95137
2205.79201	0.95027
2203.73820	0.95028
2201.68439	0.95104
2199.63058	0.95070
2197.57677	0.94947
2195.52296	0.94903
2193.46915	0.94894
2191.41534	0.94857
2189.36153	0.94869
2187.30772	0.94916
2185.25391	0.94914
2183.20010	0.94908
2181.14629	0.94930
2179.09248	0.94932
2177.03867	0.94925
2174.98486	0.94899
2172.93105	0.94918
2170.87724	0.95044
2168.82343	0.95053
2166.76962	0.94870
2164.71581	0.94783
2162.66200	0.94877
2160.60819	0.95005
2158.55438	0.95172
2156.50057	0.95208
2154.44676	0.95044
2152.39295	0.95029
2150.33914	0.95198
2148.28533	0.95257
2146.23152	0.95151
2144.17771	0.95070
2142.12390	0.95093
2140.07009	0.95120
2138.01628	0.95095
2135.96247	0.95101
2133.90866	0.95098
2131.85485	0.95019
2129.80104	0.94978
2127.74723	0.95010
2125.69342	0.95036
2123.63961	0.94999
2121.58580	0.94929
2119.53199	0.94875
2117.47818	0.94832
2115.42437	0.94801
2113.37056	0.94812
2111.31675	0.94851
2109.26294	0.94832
2107.20913	0.94753
2105.15532	0.94716
2103.10151	0.94767
2101.04770	0.94839
2098.99389	0.94841
2096.94008	0.94788
2094.88627	0.94772
2092.83246	0.94790
2090.77865	0.94786
2088.72484	0.94759
2086.67103	0.94691
2084.61722	0.94591
2082.56341	0.94535
2080.50960	0.94567
2078.45579	0.94645
2076.40198	0.94663
2074.34817	0.94635
2072.29436	0.94659
2070.24055	0.94685
2068.18674	0.94671
2066.13293	0.94739
2064.07912	0.94871
2062.02531	0.94897
2059.97150	0.94843
2057.91769	0.94801
2055.86388	0.94796
2053.81007	0.94859
2051.75626	0.94944
2049.70245	0.95015
2047.64864	0.95123
2045.59483	0.95246
2043.54102	0.95273
2041.48721	0.95204
2039.43340	0.95063
2037.37959	0.94924
2035.32578	0.94916
2033.27197	0.95006
2031.21816	0.95142
2029.16435	0.95233
2027.11054	0.95181
2025.05673	0.95114
2023.00292	0.95036
2020.94911	0.94893
2018.89530	0.94822
2016.84149	0.94855
2014.78768	0.94980
2012.73387	0.95111
2010.68006	0.95086
2008.62625	0.94988
2006.57244	0.94958
2004.51863	0.94919
2002.46482	0.94837
2000.41101	0.94846
1998.35720	0.94968
1996.30339	0.95027
1994.24958	0.95006
1992.19577	0.94996
1990.14196	0.94969
1988.08815	0.94953
1986.03434	0.94946
1983.98053	0.94927
1981.92672	0.94937
1979.87291	0.95004
1977.81910	0.95069
1975.76529	0.95076
1973.71148	0.95125
1971.65767	0.95201
1969.60386	0.95224
1967.55005	0.95230
1965.49624	0.95230
1963.44243	0.95157
1961.38862	0.95043
1959.33481	0.95018
1957.28100	0.95003
1955.22719	0.94907
1953.17338	0.94869
1951.11957	0.94889
1949.06576	0.94831
1947.01195	0.94752
1944.95814	0.94784
1942.90433	0.94808
1940.85052	0.94657
1938.79671	0.94536
1936.74290	0.94580
1934.68909	0.94631
1932.63528	0.94631
1930.58147	0.94655
1928.52766	0.94672
1926.47385	0.94635
1924.42004	0.94608
1922.36623	0.94590
1920.31242	0.94538
1918.25861	0.94521
1916.20479	0.94533
1914.15098	0.94503
1912.09717	0.94458
1910.04336	0.94441
1907.98955	0.94455
1905.93574	0.94468
1903.88193	0.94444
1901.82812	0.94397
1899.77431	0.94356
1897.72050	0.94332
1895.66669	0.94332
1893.61288	0.94321
1891.55907	0.94284
1889.50526	0.94231
1887.45145	0.94170
1885.39764	0.94153
1883.34383	0.94206
1881.29002	0.94259
1879.23621	0.94234
1877.18240	0.94166
1875.12859	0.94108
1873.07478	0.94039
1871.02097	0.93996
1868.96716	0.94022
1866.91335	0.94034
1864.85954	0.93997
1862.80573	0.93953
1860.75192	0.93899
1858.69811	0.93842
1856.64430	0.93808
1854.59049	0.93804
1852.53668	0.93809
1850.48287	0.93817
1848.42906	0.93820
1846.37525	0.93794
1844.32144	0.93753
1842.26763	0.93713
1840.21382	0.93667
1838.16001	0.93611
1836.10620	0.93547
1834.05239	0.93487
1831.99858	0.93461
1829.94477	0.93479
1827.89096	0.93489
1825.83715	0.93464
1823.78334	0.93440
1821.72953	0.93415
1819.67572	0.93345
1817.62191	0.93245
1815.56810	0.93171
1813.51429	0.93133
1811.46048	0.93102
1809.40667	0.93070
1807.35286	0.93028
1805.29905	0.92960
1803.24524	0.92887
1801.19143	0.92817
1799.13762	0.92744
1797.08381	0.92669
1795.03000	0.92572
1792.97619	0.92427
1790.92238	0.92277
1788.86857	0.92169
1786.81476	0.92075
1784.76095	0.91988
1782.70714	0.91890
1780.65333	0.91729
1778.59952	0.91531
1776.54571	0.91376
1774.49190	0.91248
1772.43809	0.91060
1770.38428	0.90822
1768.33047	0.90634
1766.27666	0.90496
1764.22285	0.90370
1762.16904	0.90227
1760.11523	0.90086
1758.06142	0.89968
1756.00761	0.89857
1753.95380	0.89759
1751.89999	0.89646
1749.84618	0.89475
1747.79237	0.89281
1745.73856	0.89094
1743.68475	0.88896
1741.63094	0.88678
1739.57713	0.88456
1737.52332	0.88279
1735.46951	0.88126
1733.41570	0.87917
1731.36189	0.87706
1729.30808	0.87501
1727.25427	0.87256
1725.20046	0.86970
1723.14665	0.86647
1721.09284	0.86348
1719.03903	0.86064
1716.98522	0.85718
1714.93141	0.85362
1712.87760	0.85051
1710.82379	0.84774
1708.76998	0.84553
1706.71617	0.84424
1704.66236	0.84397
1702.60855	0.84420
1700.55474	0.84456
1698.50093	0.84492
1696.44712	0.84526
1694.39331	0.84546
1692.33950	0.84546
1690.28569	0.84549
1688.23188	0.84554
1686.17807	0.84557
1684.12426	0.84556
1682.07045	0.84520
1680.01664	0.84456
1677.96283	0.84385
1675.90902	0.84302
1673.85521	0.84225
1671.80140	0.84150
1669.74759	0.84017
1667.69378	0.83852
1665.63997	0.83722
1663.58616	0.83578
1661.53235	0.83415
1659.47854	0.83288
1657.42473	0.83190
1655.37092	0.83089
1653.31711	0.82893
1651.26330	0.82690
1649.20949	0.82609
1647.15568	0.82526
1645.10187	0.82435
1643.04806	0.82392
1640.99425	0.82368
1638.94044	0.82360
1636.88663	0.82394
1634.83282	0.82507
1632.77901	0.82647
1630.72520	0.82776
1628.67139	0.82938
1626.61758	0.83140
1624.56377	0.83375
1622.50996	0.83663
1620.45614	0.83937
1618.40233	0.84231
1616.34852	0.84646
1614.29471	0.85021
1612.24090	0.85301
1610.18709	0.85604
1608.13328	0.85953
1606.07947	0.86312
1604.02566	0.86648
1601.97185	0.86968
1599.91804	0.87276
1597.86423	0.87562
1595.81042	0.87835
1593.75661	0.88105
1591.70280	0.88353
1589.64899	0.88576
1587.59518	0.88790
1585.54137	0.88993
1583.48756	0.89168
1581.43375	0.89317
1579.37994	0.89455
1577.32613	0.89623
1575.27232	0.89811
1573.21851	0.89928
1571.16470	0.90033
1569.11089	0.90177
1567.05708	0.90305
1565.00327	0.90412
1562.94946	0.90488
1560.89565	0.90544
1558.84184	0.90674
1556.78803	0.90770
1554.73422	0.90789
1552.68041	0.90833
1550.62660	0.90900
1548.57279	0.90952
1546.51898	0.90986
1544.46517	0.91031
1542.41136	0.91103
1540.35755	0.91193
1538.30374	0.91248
1536.24993	0.91266
1534.19612	0.91300
1532.14231	0.91356
1530.08850	0.91395
1528.03469	0.91429
1525.98088	0.91475
1523.92707	0.91508
1521.87326	0.91523
1519.81945	0.91524
1517.76564	0.91537
1515.71183	0.91583
1513.65802	0.91626
1511.60421	0.91651
1509.55040	0.91670
1507.49659	0.91689
1505.44278	0.91699
1503.38897	0.91689
1501.33516	0.91668
1499.28135	0.91636
1497.22754	0.91589
1495.17373	0.91530
1493.11992	0.91471
1491.06611	0.91402
1489.01230	0.91296
1486.95849	0.91142
1484.90468	0.90970
1482.85087	0.90761
1480.79706	0.90475
1478.74325	0.90098
1476.68944	0.89570
1474.63563	0.88764
1472.58182	0.87395
1470.52801	0.85598
1468.47420	0.83794
1466.42039	0.81726
1464.36658	0.79385
1462.31277	0.77663
1460.25896	0.76748
1458.20515	0.76143
1456.15134	0.75723
1454.09753	0.75641
1452.04372	0.75881
1449.98991	0.76682
1447.93610	0.78397
1445.88229	0.80646
1443.82848	0.82578
1441.77467	0.83910
1439.72086	0.84610
1437.66705	0.84858
1435.61324	0.85134
1433.55943	0.85856
1431.50562	0.86849
1429.45181	0.87738
1427.39800	0.88242
1425.34419	0.88488
1423.29038	0.88644
1421.23657	0.88750
1419.18276	0.88822
1417.12895	0.88851
1415.07514	0.88867
1413.02133	0.88893
1410.96752	0.88931
1408.91371	0.88966
1406.85990	0.88994
1404.80609	0.89009
1402.75228	0.89020
1400.69847	0.89020
1398.64466	0.88988
1396.59085	0.88906
1394.53704	0.88733
1392.48323	0.88456
1390.42942	0.88067
1388.37561	0.87391
1386.32180	0.86143
1384.26799	0.84143
1382.21418	0.80984
1380.16037	0.76187
1378.10656	0.70792
1376.05275	0.67979
1373.99894	0.70173
1371.94513	0.75241
1369.89132	0.79544
1367.83751	0.82211
1365.78370	0.83462
1363.72989	0.83764
1361.67608	0.83502
1359.62227	0.83159
1357.56846	0.83257
1355.51465	0.83920
1353.46084	0.84813
1351.40703	0.85567
1349.35322	0.86112
1347.29941	0.86504
1345.24560	0.86778
1343.19179	0.86969
1341.13798	0.87099
1339.08417	0.87193
1337.03036	0.87240
1334.97655	0.87229
1332.92274	0.87169
1330.86893	0.87098
1328.81512	0.87095
1326.76130	0.87184
1324.70749	0.87327
1322.65368	0.87458
1320.59987	0.87536
1318.54606	0.87584
1316.49225	0.87614
1314.43844	0.87616
1312.38463	0.87582
1310.33082	0.87481
1308.27701	0.87262
1306.22320	0.86937
1304.16939	0.86675
1302.11558	0.86622
1300.06177	0.86684
1298.00796	0.86693
1295.95415	0.86642
1293.90034	0.86618
1291.84653	0.86645
1289.79272	0.86689
1287.73891	0.86709
1285.68510	0.86687
1283.63129	0.86631
1281.57748	0.86564
1279.52367	0.86499
1277.46986	0.86414
1275.41605	0.86302
1273.36224	0.86165
1271.30843	0.86006
1269.25462	0.85840
1267.20081	0.85665
1265.14700	0.85463
1263.09319	0.85223
1261.03938	0.84923
1258.98557	0.84546
1256.93176	0.84139
1254.87795	0.83832
1252.82414	0.83683
1250.77033	0.83582
1248.71652	0.83428
1246.66271	0.83214
1244.60890	0.82944
1242.55509	0.82618
1240.50128	0.82259
1238.44747	0.81881
1236.39366	0.81482
1234.33985	0.81075
1232.28604	0.80671
1230.23223	0.80253
1228.17842	0.79811
1226.12461	0.79363
1224.07080	0.78916
1222.01699	0.78473
1219.96318	0.78066
1217.90937	0.77723
1215.85556	0.77434
1213.80175	0.77159
1211.74794	0.76902
1209.69413	0.76685
1207.64032	0.76474
1205.58651	0.76252
1203.53270	0.76057
1201.47889	0.75877
1199.42508	0.75676
1197.37127	0.75475
1195.31746	0.75294
1193.26365	0.75129
1191.20984	0.74988
1189.15603	0.74842
1187.10222	0.74677
1185.04841	0.74526
1182.99460	0.74386
1180.94079	0.74231
1178.88698	0.74049
1176.83317	0.73793
1174.77936	0.73381
1172.72555	0.72740
1170.67174	0.71914
1168.61793	0.71191
1166.56412	0.70924
1164.51031	0.71168
1162.45650	0.71673
1160.40269	0.72187
1158.34888	0.72611
1156.29507	0.72927
1154.24126	0.73148
1152.18745	0.73351
1150.13364	0.73620
1148.07983	0.73950
1146.02602	0.74286
1143.97221	0.74597
1141.91840	0.74882
1139.86459	0.75126
1137.81078	0.75316
1135.75697	0.75457
1133.70316	0.75577
1131.64935	0.75711
1129.59554	0.75848
1127.54173	0.75959
1125.48792	0.76047
1123.43411	0.76131
1121.38030	0.76198
1119.32649	0.76240
1117.27268	0.76280
1115.21887	0.76318
1113.16506	0.76344
1111.11125	0.76355
1109.05744	0.76317
1107.00363	0.76214
1104.94982	0.76076
1102.89601	0.75993
1100.84220	0.76022
1098.78839	0.76139
1096.73458	0.76282
1094.68077	0.76441
1092.62696	0.76617
1090.57315	0.76741
1088.51934	0.76818
1086.46553	0.76912
1084.41172	0.77025
1082.35791	0.77141
1080.30410	0.77247
1078.25029	0.77334
1076.19648	0.77386
1074.14267	0.77378
1072.08886	0.77310
1070.03505	0.77203
1067.98124	0.77038
1065.92743	0.76792
1063.87362	0.76474
1061.81981	0.76063
1059.76600	0.75520
1057.71219	0.74877
1055.65838	0.74187
1053.60457	0.73477
1051.55076	0.72769
1049.49695	0.72049
1047.44314	0.71310
1045.38933	0.70605
1043.33552	0.70050
1041.28171	0.69743
1039.22790	0.69694
1037.17409	0.69892
1035.12028	0.70330
1033.06647	0.70960
1031.01265	0.71706
1028.95884	0.72507
1026.90503	0.73296
1024.85122	0.74026
1022.79741	0.74701
1020.74360	0.75312
1018.68979	0.75843
1016.63598	0.76311
1014.58217	0.76722
1012.52836	0.77063
1010.47455	0.77342
1008.42074	0.77579
1006.36693	0.77716
1004.31312	0.77609
1002.25931	0.77086
1000.20550	0.76165
998.15169	0.75443
996.09788	0.75694
994.04407	0.76822
991.99026	0.78048
989.93645	0.78919
987.88264	0.79439
985.82883	0.79731
983.77502	0.79866
981.72121	0.79791
979.66740	0.79394
977.61359	0.78574
975.55978	0.77402
973.50597	0.76460
971.45216	0.76530
969.39835	0.77613
967.34454	0.78920
965.29073	0.79860
963.23692	0.80390
961.18311	0.80695
959.12930	0.80942
957.07549	0.81179
955.02168	0.81367
952.96787	0.81495
950.91406	0.81577
948.86025	0.81610
946.80644	0.81602
944.75263	0.81576
942.69882	0.81539
940.64501	0.81515
938.59120	0.81576
936.53739	0.81717
934.48358	0.81834
932.42977	0.81866
930.37596	0.81864
928.32215	0.81868
926.26834	0.81834
924.21453	0.81750
922.16072	0.81664
920.10691	0.81573
918.05310	0.81462
915.99929	0.81333
913.94548	0.81188
911.89167	0.81037
909.83786	0.80882
907.78405	0.80717
905.73024	0.80496
903.67643	0.80127
901.62262	0.79633
899.56881	0.79223
897.51500	0.79127
895.46119	0.79338
893.40738	0.79628
891.35357	0.79828
889.29976	0.79914
887.24595	0.79915
885.19214	0.79887
883.13833	0.79912
881.08452	0.79986
879.03071	0.80033
876.97690	0.80049
874.92309	0.80072
872.86928	0.80092
870.81547	0.80104
868.76166	0.80118
866.70785	0.80156
864.65404	0.80212
862.60023	0.80217
860.54642	0.80177
858.49261	0.80156
856.43880	0.80134
854.38499	0.80068
852.33118	0.79959
850.27737	0.79821
848.22356	0.79568
846.16975	0.78923
844.11594	0.77692
842.06213	0.76459
840.00832	0.76271
837.95451	0.77104
835.90070	0.77969
833.84689	0.78406
831.79308	0.78594
829.73927	0.78695
827.68546	0.78720
825.63165	0.78669
823.57784	0.78586
821.52403	0.78498
819.47022	0.78383
817.41641	0.78170
815.36260	0.77794
813.30879	0.77275
811.25498	0.76746
809.20117	0.76389
807.14736	0.76285
805.09355	0.76382
803.03974	0.76594
800.98593	0.76786
798.93212	0.76826
796.87831	0.76742
794.82450	0.76622
792.77069	0.76546
790.71688	0.76550
788.66307	0.76546
786.60926	0.76469
784.55545	0.76369
782.50164	0.76286
780.44783	0.76201
778.39402	0.76098
776.34021	0.75998
774.28640	0.75881
772.23259	0.75739
770.17878	0.75638
768.12497	0.75568
766.07116	0.75464
764.01735	0.75312
761.96354	0.75140
759.90973	0.75014
757.85592	0.74959
755.80211	0.74909
753.74830	0.74822
751.69449	0.74721
749.64068	0.74639
747.58687	0.74552
745.53306	0.74444
743.47925	0.74341
741.42544	0.74232
739.37163	0.74106
737.31781	0.73984
735.26400	0.73867
733.21019	0.73770
731.15638	0.73693
729.10257	0.73620
727.04876	0.73542
724.99495	0.73438
722.94114	0.73330
720.88733	0.73232
718.83352	0.73104
716.77971	0.72952
714.72590	0.72796
712.67209	0.72646
710.61828	0.72528
708.56447	0.72409
706.51066	0.72235
704.45685	0.72032
702.40304	0.71879
700.34923	0.71767
698.29542	0.71622
696.24161	0.71448
694.18780	0.71273
692.13399	0.71096
690.08018	0.70968
688.02637	0.70897
685.97256	0.70790
683.91875	0.70629
681.86494	0.70480
679.81113	0.70354
677.75732	0.70215
675.70351	0.70082
673.64970	0.69971
671.59589	0.69852
669.54208	0.69667
667.48827	0.69376
665.43446	0.69195
663.38065	0.69135
661.32684	0.69093
659.27303	0.68975
657.21922	0.68783
655.16541	0.68580
653.11160	0.68429
651.05779	0.68401
649.00398	0.68360
646.95017	0.68161
644.89636	0.67879
642.84255	0.67639
640.78874	0.67506
638.73493	0.67455
636.68112	0.67398
634.62731	0.67253
632.57350	0.67032
630.51969	0.66799
628.46588	0.66595
626.41207	0.66437
624.35826	0.66274
622.30445	0.66049
620.25064	0.65763
618.19683	0.65503
616.14302	0.65356
614.08921	0.65256
612.03540	0.65138
609.98159	0.64950
607.92778	0.64677
605.87397	0.64392
603.82016	0.64136
601.76635	0.63954
599.71254	0.63811
597.65873	0.63667
595.60492	0.63557
593.55111	0.63420
591.49730	0.63202
589.44349	0.63024
587.38968	0.63014
585.33587	0.63090
583.28206	0.63157
581.22825	0.63293
579.17444	0.63545
577.12063	0.63818
575.06682	0.63986
573.01301	0.63991
570.95920	0.63975
568.90539	0.64040
566.85158	0.64075
564.79777	0.64067
562.74396	0.64116
560.69015	0.64203
558.63634	0.64226
556.58253	0.64206
554.52872	0.64236
552.47491	0.64263
550.42110	0.64234
548.36729	0.64152
546.31348	0.64016
544.25967	0.63962
542.20586	0.64020
540.15205	0.64017
538.09824	0.63918
536.04443	0.63777
533.99062	0.63649
531.93681	0.63571
529.88300	0.63528
527.82919	0.63539
525.77538	0.63576
523.72157	0.63586
521.66776	0.63639
519.61395	0.63789
517.56014	0.63967
515.50633	0.64083
513.45252	0.64159
511.39871	0.64270
509.34490	0.64479
507.29109	0.64637
505.23728	0.64617
503.18347	0.64660
501.12966	0.64812
499.07585	0.64848
497.02204	0.64789
494.96823	0.64719
492.91442	0.64719
490.86061	0.64800
488.80680	0.64802
486.75299	0.64765
484.69918	0.64733
482.64537	0.64590
480.59156	0.64369
478.53775	0.64135
476.48394	0.63939
474.43013	0.63802
472.37632	0.63647
470.32251	0.63457
468.26870	0.63394
466.21489	0.63446
464.16108	0.63334
462.10727	0.63112
460.05346	0.63010
457.99965	0.62957
455.94584	0.62991
453.89203	0.63172
451.83822	0.63352
449.78441	0.63540
447.73060	0.63854
445.67679	0.64242
443.62298	0.64493
441.56916	0.64563
439.51535	0.64483
437.46154	0.64432
435.40773	0.64570
433.35392	0.64570
431.30011	0.64428
429.24630	0.64514
427.19249	0.64751
425.13868	0.64955
423.08487	0.65258
421.03106	0.65759
418.97725	0.66048
416.92344	0.65860
414.86963	0.65835
412.81582	0.65889
410.76201	0.65701
408.70820	0.65648
406.65439	0.65815
404.60058	0.65866
402.54677	0.65718
400.49296	0.65409
398.43915	0.65471
