3996.70104	0.98306
3994.64724	0.98324
3992.59344	0.98348
3990.53964	0.98306
3988.48583	0.98273
3986.43203	0.98296
3984.37823	0.98290
3982.32442	0.98273
3980.27062	0.98290
3978.21682	0.98307
3976.16301	0.98301
3974.10921	0.98252
3972.05541	0.98177
3970.00160	0.98158
3967.94780	0.98231
3965.89400	0.98310
3963.84019	0.98313
3961.78639	0.98267
3959.73259	0.98232
3957.67878	0.98232
3955.62498	0.98260
3953.57118	0.98316
3951.51737	0.98375
3949.46357	0.98343
3947.40977	0.98246
3945.35596	0.98224
3943.30216	0.98275
3941.24836	0.98309
3939.19455	0.98283
3937.14075	0.98243
3935.08695	0.98244
3933.03315	0.98270
3930.97934	0.98283
3928.92554	0.98272
3926.87174	0.98259
3924.81793	0.98248
3922.76413	0.98233
3920.71033	0.98251
3918.65652	0.98297
3916.60272	0.98299
3914.54892	0.98255
3912.49511	0.98225
3910.44131	0.98238
3908.38751	0.98270
3906.33370	0.98279
3904.27990	0.98300
3902.22610	0.98324
3900.17229	0.98288
3898.11849	0.98254
3896.06469	0.98262
3894.01088	0.98275
3891.95708	0.98279
3889.90328	0.98310
3887.84947	0.98320
3885.79567	0.98294
3883.74187	0.98342
3881.68807	0.98398
3879.63426	0.98354
3877.58046	0.98296
3875.52666	0.98285
3873.47285	0.98276
3871.41905	0.98235
3869.36525	0.98219
3867.31144	0.98233
3865.25764	0.98230
3863.20384	0.98257
3861.15003	0.98288
3859.09623	0.98284
3857.04243	0.98320
3854.98862	0.98336
3852.93482	0.98201
3850.88102	0.98137
3848.82721	0.98171
3846.77341	0.98204
3844.71961	0.98255
3842.66580	0.98284
3840.61200	0.98243
3838.55820	0.98212
3836.50439	0.98231
3834.45059	0.98254
3832.39679	0.98266
3830.34298	0.98261
3828.28918	0.98233
3826.23538	0.98201
3824.18158	0.98189
3822.12777	0.98192
3820.07397	0.98220
3818.02017	0.98249
3815.96636	0.98251
3813.91256	0.98254
3811.85876	0.98276
3809.80495	0.98305
3807.75115	0.98308
3805.69735	0.98291
3803.64354	0.98311
3801.58974	0.98338
3799.53594	0.98345
3797.48213	0.98361
3795.42833	0.98365
3793.37453	0.98312
3791.32072	0.98243
3789.26692	0.98243
3787.21312	0.98300
3785.15931	0.98326
3783.10551	0.98292
3781.05171	0.98245
3778.99790	0.98251
3776.94410	0.98305
3774.89030	0.98339
3772.83650	0.98354
3770.78269	0.98373
3768.72889	0.98362
3766.67509	0.98305
3764.62128	0.98273
3762.56748	0.98295
3760.51368	0.98325
3758.45987	0.98347
3756.40607	0.98393
3754.35227	0.98463
3752.29846	0.98493
3750.24466	0.98433
3748.19086	0.98389
3746.13705	0.98429
3744.08325	0.98439
3742.02945	0.98320
3739.97564	0.98241
3737.92184	0.98285
3735.86804	0.98377
3733.81423	0.98403
3731.76043	0.98426
3729.70663	0.98443
3727.65282	0.98375
3725.59902	0.98268
3723.54522	0.98260
3721.49141	0.98364
3719.43761	0.98434
3717.38381	0.98389
3715.33001	0.98291
3713.27620	0.98184
3711.22240	0.98097
3709.16860	0.98113
3707.11479	0.98181
3705.06099	0.98210
3703.00719	0.98186
3700.95338	0.98139
3698.89958	0.98151
3696.84578	0.98217
3694.79197	0.98247
3692.73817	0.98199
3690.68437	0.98150
3688.63056	0.98197
3686.57676	0.98257
3684.52296	0.98268
3682.46915	0.98249
3680.41535	0.98216
3678.36155	0.98212
3676.30774	0.98240
3674.25394	0.98257
3672.20014	0.98255
3670.14633	0.98213
3668.09253	0.98164
3666.03873	0.98176
3663.98492	0.98168
3661.93112	0.98108
3659.87732	0.98090
3657.82352	0.98118
3655.76971	0.98106
3653.71591	0.98092
3651.66211	0.98094
3649.60830	0.98043
3647.55450	0.98032
3645.50070	0.98089
3643.44689	0.98088
3641.39309	0.98054
3639.33929	0.98067
3637.28548	0.98094
3635.23168	0.98070
3633.17788	0.98000
3631.12407	0.97919
3629.07027	0.97876
3627.01647	0.97895
3624.96266	0.97897
3622.90886	0.97908
3620.85506	0.97954
3618.80125	0.97972
3616.74745	0.97956
3614.69365	0.97972
3612.63984	0.97999
3610.58604	0.97977
3608.53224	0.97922
3606.47844	0.97887
3604.42463	0.97877
3602.37083	0.97863
3600.31703	0.97831
3598.26322	0.97822
3596.20942	0.97861
3594.15562	0.97884
3592.10181	0.97882
3590.04801	0.97898
3587.99421	0.97879
3585.94040	0.97813
3583.88660	0.97803
3581.83280	0.97851
3579.77899	0.97877
3577.72519	0.97853
3575.67139	0.97796
3573.61758	0.97752
3571.56378	0.97780
3569.50998	0.97835
3567.45617	0.97815
3565.40237	0.97757
3563.34857	0.97767
3561.29476	0.97794
3559.24096	0.97766
3557.18716	0.97702
3555.13335	0.97661
3553.07955	0.97658
3551.02575	0.97632
3548.97195	0.97578
3546.91814	0.97576
3544.86434	0.97614
3542.81054	0.97633
3540.75673	0.97638
3538.70293	0.97626
3536.64913	0.97628
3534.59532	0.97634
3532.54152	0.97609
3530.48772	0.97614
3528.43391	0.97652
3526.38011	0.97672
3524.32631	0.97679
3522.27250	0.97640
3520.21870	0.97589
3518.16490	0.97605
3516.11109	0.97649
3514.05729	0.97660
3512.00349	0.97639
3509.94968	0.97612
3507.89588	0.97618
3505.84208	0.97653
3503.78827	0.97664
3501.73447	0.97638
3499.68067	0.97571
3497.62687	0.97488
3495.57306	0.97469
3493.51926	0.97544
3491.46546	0.97603
3489.41165	0.97568
3487.35785	0.97536
3485.30405	0.97575
3483.25024	0.97632
3481.19644	0.97624
3479.14264	0.97532
3477.08883	0.97470
3475.03503	0.97498
3472.98123	0.97539
3470.92742	0.97545
3468.87362	0.97501
3466.81982	0.97445
3464.76601	0.97484
3462.71221	0.97578
3460.65841	0.97609
3458.60460	0.97588
3456.55080	0.97551
3454.49700	0.97505
3452.44319	0.97498
3450.38939	0.97517
3448.33559	0.97530
3446.28178	0.97547
3444.22798	0.97559
3442.17418	0.97556
3440.12038	0.97562
3438.06657	0.97585
3436.01277	0.97587
3433.95897	0.97554
3431.90516	0.97503
3429.85136	0.97487
3427.79756	0.97528
3425.74375	0.97544
3423.68995	0.97480
3421.63615	0.97415
3419.58234	0.97386
3417.52854	0.97336
3415.47474	0.97272
3413.42093	0.97266
3411.36713	0.97343
3409.31333	0.97410
3407.25952	0.97402
3405.20572	0.97395
3403.15192	0.97403
3401.09811	0.97388
3399.04431	0.97421
3396.99051	0.97504
3394.93670	0.97507
3392.88290	0.97423
3390.82910	0.97342
3388.77529	0.97311
3386.72149	0.97329
3384.66769	0.97349
3382.61389	0.97342
3380.56008	0.97341
3378.50628	0.97368
3376.45248	0.97400
3374.39867	0.97425
3372.34487	0.97437
3370.29107	0.97440
3368.23726	0.97452
3366.18346	0.97433
3364.12966	0.97363
3362.07585	0.97344
3360.02205	0.97387
3357.96825	0.97406
3355.91444	0.97407
3353.86064	0.97395
3351.80684	0.97376
3349.75303	0.97382
3347.69923	0.97391
3345.64543	0.97394
3343.59162	0.97424
3341.53782	0.97455
3339.48402	0.97449
3337.43021	0.97436
3335.37641	0.97434
3333.32261	0.97446
3331.26881	0.97477
3329.21500	0.97497
3327.16120	0.97488
3325.10740	0.97485
3323.05359	0.97500
3320.99979	0.97526
3318.94599	0.97552
3316.89218	0.97533
3314.83838	0.97491
3312.78458	0.97494
3310.73077	0.97529
3308.67697	0.97568
3306.62317	0.97588
3304.56936	0.97563
3302.51556	0.97523
3300.46176	0.97506
3298.40795	0.97511
3296.35415	0.97507
3294.30035	0.97498
3292.24654	0.97501
3290.19274	0.97485
3288.13894	0.97501
3286.08513	0.97580
3284.03133	0.97593
3281.97753	0.97500
3279.92372	0.97438
3277.86992	0.97478
3275.81612	0.97548
3273.76232	0.97591
3271.70851	0.97614
3269.65471	0.97572
3267.60091	0.97517
3265.54710	0.97557
3263.49330	0.97578
3261.43950	0.97507
3259.38569	0.97454
3257.33189	0.97489
3255.27809	0.97589
3253.22428	0.97679
3251.17048	0.97694
3249.11668	0.97672
3247.06287	0.97676
3245.00907	0.97698
3242.95527	0.97720
3240.90146	0.97727
3238.84766	0.97697
3236.79386	0.97635
3234.74005	0.97600
3232.68625	0.97610
3230.63245	0.97639
3228.57864	0.97669
3226.52484	0.97671
3224.47104	0.97664
3222.41724	0.97698
3220.36343	0.97739
3218.30963	0.97739
3216.25583	0.97727
3214.20202	0.97740
3212.14822	0.97775
3210.09442	0.97833
3208.04061	0.97880
3205.98681	0.97878
3203.93301	0.97844
3201.87920	0.97795
3199.82540	0.97763
3197.77160	0.97776
3195.71779	0.97801
3193.66399	0.97809
3191.61019	0.97792
3189.55638	0.97747
3187.50258	0.97705
3185.44878	0.97712
3183.39497	0.97751
3181.34117	0.97783
3179.28737	0.97813
3177.23356	0.97847
3175.17976	0.97850
3173.12596	0.97832
3171.07215	0.97846
3169.01835	0.97856
3166.96455	0.97828
3164.91075	0.97834
3162.85694	0.97883
3160.80314	0.97903
3158.74934	0.97910
3156.69553	0.97939
3154.64173	0.97950
3152.58793	0.97953
3150.53412	0.97967
3148.48032	0.97976
3146.42652	0.97985
3144.37271	0.98000
3142.31891	0.97957
3140.26511	0.97862
3138.21130	0.97851
3136.15750	0.97907
3134.10370	0.97913
3132.04989	0.97883
3129.99609	0.97866
3127.94229	0.97867
3125.88848	0.97869
3123.83468	0.97870
3121.78088	0.97884
3119.72707	0.97907
3117.67327	0.97940
3115.61947	0.97969
3113.56566	0.97948
3111.51186	0.97883
3109.45806	0.97881
3107.40426	0.97955
3105.35045	0.97996
3103.29665	0.97992
3101.24285	0.97961
3099.18904	0.97872
3097.13524	0.97770
3095.08144	0.97724
3093.02763	0.97744
3090.97383	0.97786
3088.92003	0.97793
3086.86622	0.97768
3084.81242	0.97782
3082.75862	0.97814
3080.70481	0.97807
3078.65101	0.97785
3076.59721	0.97763
3074.54340	0.97752
3072.48960	0.97754
3070.43580	0.97736
3068.38199	0.97724
3066.32819	0.97758
3064.27439	0.97790
3062.22058	0.97801
3060.16678	0.97810
3058.11298	0.97815
3056.05918	0.97802
3054.00537	0.97756
3051.95157	0.97713
3049.89777	0.97697
3047.84396	0.97683
3045.79016	0.97679
3043.73636	0.97694
3041.68255	0.97724
3039.62875	0.97747
3037.57495	0.97733
3035.52114	0.97700
3033.46734	0.97694
3031.41354	0.97700
3029.35973	0.97702
3027.30593	0.97712
3025.25213	0.97712
3023.19832	0.97696
3021.14452	0.97677
3019.09072	0.97671
3017.03691	0.97697
3014.98311	0.97721
3012.92931	0.97708
3010.87550	0.97691
3008.82170	0.97683
3006.76790	0.97658
3004.71409	0.97629
3002.66029	0.97627
3000.60649	0.97678
2998.55269	0.97727
2996.49888	0.97694
2994.44508	0.97649
2992.39128	0.97649
2990.33747	0.97623
2988.28367	0.97564
2986.22987	0.97518
2984.17606	0.97492
2982.12226	0.97481
2980.06846	0.97444
2978.01465	0.97377
2975.96085	0.97321
2973.90705	0.97270
2971.85324	0.97232
2969.79944	0.97236
2967.74564	0.97222
2965.69183	0.97102
2963.63803	0.96907
2961.58423	0.96720
2959.53042	0.96579
2957.47662	0.96438
2955.42282	0.96235
2953.36901	0.96005
2951.31521	0.95764
2949.26141	0.95454
2947.20761	0.95056
2945.15380	0.94529
2943.10000	0.93808
2941.04620	0.92882
2938.99239	0.91745
2936.93859	0.90406
2934.88479	0.88896
2932.83098	0.87166
2930.77718	0.85070
2928.72338	0.82518
2926.66957	0.79445
2924.61577	0.75714
2922.56197	0.71312
2920.50816	0.66543
2918.45436	0.61940
2916.40056	0.58252
2914.34675	0.56382
2912.29295	0.56723
2910.23915	0.58735
2908.18534	0.61445
2906.13154	0.64174
2904.07774	0.66653
2902.02393	0.68761
2899.97013	0.70514
2897.91633	0.72027
2895.86252	0.73365
2893.80872	0.74633
2891.75492	0.75944
2889.70112	0.77334
2887.64731	0.78795
2885.59351	0.80270
2883.53971	0.81743
2881.48590	0.83256
2879.43210	0.84803
2877.37830	0.86361
2875.32449	0.87823
2873.27069	0.88987
2871.21689	0.89774
2869.16308	0.90242
2867.10928	0.90379
2865.05548	0.90111
2863.00167	0.89402
2860.94787	0.88143
2858.89407	0.86043
2856.84026	0.82683
2854.78646	0.77626
2852.73266	0.70876
2850.67885	0.63687
2848.62505	0.58586
2846.57125	0.57637
2844.51744	0.60664
2842.46364	0.65806
2840.40984	0.71249
2838.35603	0.75979
2836.30223	0.79707
2834.24843	0.82550
2832.19463	0.84721
2830.14082	0.86403
2828.08702	0.87764
2826.03322	0.88882
2823.97941	0.89772
2821.92561	0.90495
2819.87181	0.91116
2817.81800	0.91650
2815.76420	0.92115
2813.71040	0.92512
2811.65659	0.92821
2809.60279	0.93110
2807.54899	0.93419
2805.49518	0.93677
2803.44138	0.93888
2801.38758	0.94107
2799.33377	0.94304
2797.27997	0.94446
2795.22617	0.94562
2793.17236	0.94702
2791.11856	0.94881
2789.06476	0.95069
2787.01095	0.95246
2784.95715	0.95381
2782.90335	0.95447
2780.84955	0.95526
2778.79574	0.95672
2776.74194	0.95798
2774.68814	0.95878
2772.63433	0.95949
2770.58053	0.96014
2768.52673	0.96079
2766.47292	0.96151
2764.41912	0.96219
2762.36532	0.96258
2760.31151	0.96278
2758.25771	0.96300
2756.20391	0.96332
2754.15010	0.96394
2752.09630	0.96454
2750.04250	0.96479
2747.98869	0.96497
2745.93489	0.96509
2743.88109	0.96501
2741.82728	0.96502
2739.77348	0.96524
2737.71968	0.96544
2735.66587	0.96589
2733.61207	0.96636
2731.55827	0.96634
2729.50446	0.96629
2727.45066	0.96651
2725.39686	0.96687
2723.34306	0.96725
2721.28925	0.96757
2719.23545	0.96802
2717.18165	0.96851
2715.12784	0.96864
2713.07404	0.96874
2711.02024	0.96903
2708.96643	0.96890
2706.91263	0.96856
2704.85883	0.96885
2702.80502	0.96957
2700.75122	0.96997
2698.69742	0.96991
2696.64361	0.96977
2694.58981	0.96976
2692.53601	0.96981
2690.48220	0.97002
2688.42840	0.97050
2686.37460	0.97097
2684.32079	0.97098
2682.26699	0.97084
2680.21319	0.97111
2678.15938	0.97139
2676.10558	0.97108
2674.05178	0.97031
2671.99797	0.96958
2669.94417	0.96924
2667.89037	0.96908
2665.83657	0.96875
2663.78276	0.96842
2661.72896	0.96818
2659.67516	0.96804
2657.62135	0.96810
2655.56755	0.96826
2653.51375	0.96847
2651.45994	0.96864
2649.40614	0.96876
2647.35234	0.96885
2645.29853	0.96884
2643.24473	0.96880
2641.19093	0.96878
2639.13712	0.96860
2637.08332	0.96820
2635.02952	0.96798
2632.97571	0.96828
2630.92191	0.96896
2628.86811	0.96983
2626.81430	0.97041
2624.76050	0.97059
2622.70670	0.97102
2620.65289	0.97180
2618.59909	0.97246
2616.54529	0.97286
2614.49149	0.97291
2612.43768	0.97245
2610.38388	0.97196
2608.33008	0.97220
2606.27627	0.97286
2604.22247	0.97324
2602.16867	0.97331
2600.11486	0.97359
2598.06106	0.97412
2596.00726	0.97433
2593.95345	0.97472
2591.89965	0.97571
2589.84585	0.97623
2587.79204	0.97571
2585.73824	0.97515
2583.68444	0.97522
2581.63063	0.97571
2579.57683	0.97642
2577.52303	0.97664
2575.46922	0.97627
2573.41542	0.97618
2571.36162	0.97615
2569.30781	0.97585
2567.25401	0.97617
2565.20021	0.97723
2563.14640	0.97767
2561.09260	0.97697
2559.03880	0.97585
2556.98500	0.97525
2554.93119	0.97579
2552.87739	0.97661
2550.82359	0.97683
2548.76978	0.97680
2546.71598	0.97660
2544.66218	0.97641
2542.60837	0.97684
2540.55457	0.97731
2538.50077	0.97718
2536.44696	0.97727
2534.39316	0.97781
2532.33936	0.97833
2530.28555	0.97877
2528.23175	0.97876
2526.17795	0.97816
2524.12414	0.97758
2522.07034	0.97756
2520.01654	0.97771
2517.96273	0.97796
2515.90893	0.97869
2513.85513	0.97933
2511.80132	0.97916
2509.74752	0.97879
2507.69372	0.97897
2505.63992	0.97908
2503.58611	0.97865
2501.53231	0.97817
2499.47851	0.97808
2497.42470	0.97864
2495.37090	0.97956
2493.31710	0.97982
2491.26329	0.97916
2489.20949	0.97863
2487.15569	0.97885
2485.10188	0.97945
2483.04808	0.97975
2480.99428	0.97983
2478.94047	0.97988
2476.88667	0.97958
2474.83287	0.97916
2472.77906	0.97918
2470.72526	0.97940
2468.67146	0.97931
2466.61765	0.97924
2464.56385	0.97971
2462.51005	0.98019
2460.45624	0.97992
2458.40244	0.97944
2456.34864	0.97924
2454.29483	0.97903
2452.24103	0.97909
2450.18723	0.97956
2448.13343	0.97970
2446.07962	0.97934
2444.02582	0.97948
2441.97202	0.97997
2439.91821	0.97990
2437.86441	0.97989
2435.81061	0.98019
2433.75680	0.98007
2431.70300	0.97976
2429.64920	0.97980
2427.59539	0.97997
2425.54159	0.98002
2423.48779	0.97984
2421.43398	0.97942
2419.38018	0.97932
2417.32638	0.97943
2415.27257	0.97901
2413.21877	0.97851
2411.16497	0.97857
2409.11116	0.97874
2407.05736	0.97895
2405.00356	0.97928
2402.94975	0.97907
2400.89595	0.97867
2398.84215	0.97896
2396.78834	0.97953
2394.73454	0.97977
2392.68074	0.97988
2390.62694	0.98011
2388.57313	0.98034
2386.51933	0.98061
2384.46553	0.98072
2382.41172	0.98043
2380.35792	0.98014
2378.30412	0.98022
2376.25031	0.98029
2374.19651	0.98025
2372.14271	0.98048
2370.08890	0.98068
2368.03510	0.98113
2365.98130	0.98182
2363.92749	0.98125
2361.87369	0.98028
2359.81989	0.97989
2357.76608	0.97877
2355.71228	0.97760
2353.65848	0.97740
2351.60467	0.97747
2349.55087	0.97738
2347.49707	0.97745
2345.44326	0.97779
2343.38946	0.97764
2341.33566	0.97669
2339.28186	0.97615
2337.22805	0.97617
2335.17425	0.97587
2333.12045	0.97505
2331.06664	0.97387
2329.01284	0.97349
2326.95904	0.97437
2324.90523	0.97524
2322.85143	0.97584
2320.79763	0.97697
2318.74382	0.97820
2316.69002	0.97833
2314.63622	0.97728
2312.58241	0.97601
2310.52861	0.97573
2308.47481	0.97709
2306.42100	0.97904
2304.36720	0.97983
2302.31340	0.97915
2300.25959	0.97813
2298.20579	0.97801
2296.15199	0.97827
2294.09818	0.97767
2292.04438	0.97722
2289.99058	0.97775
2287.93677	0.97789
2285.88297	0.97733
2283.82917	0.97750
2281.77537	0.97833
2279.72156	0.97879
2277.66776	0.97883
2275.61396	0.97882
2273.56015	0.97935
2271.50635	0.98021
2269.45255	0.98054
2267.39874	0.98074
2265.34494	0.98104
2263.29114	0.98090
2261.23733	0.98087
2259.18353	0.98099
2257.12973	0.98070
2255.07592	0.98041
2253.02212	0.98034
2250.96832	0.98011
2248.91451	0.98024
2246.86071	0.98105
2244.80691	0.98113
2242.75310	0.98083
2240.69930	0.98079
2238.64550	0.98034
2236.59169	0.97974
2234.53789	0.97907
2232.48409	0.97893
2230.43029	0.97976
2228.37648	0.97944
2226.32268	0.97818
2224.26888	0.97913
2222.21507	0.98068
2220.16127	0.98127
2218.10747	0.98207
2216.05366	0.98182
2213.99986	0.98106
2211.94606	0.98118
2209.89225	0.98075
2207.83845	0.97990
2205.78465	0.98034
2203.73084	0.98208
2201.67704	0.98349
2199.62324	0.98209
2197.56943	0.97917
2195.51563	0.97810
2193.46183	0.97867
2191.40802	0.97889
2189.35422	0.97836
2187.30042	0.97928
2185.24661	0.98161
2183.19281	0.98212
2181.13901	0.98130
2179.08520	0.98036
2177.03140	0.97906
2174.97760	0.97946
2172.92380	0.98129
2170.86999	0.98257
2168.81619	0.98304
2166.76239	0.98261
2164.70858	0.98210
2162.65478	0.98205
2160.60098	0.98289
2158.54717	0.98423
2156.49337	0.98394
2154.43957	0.98288
2152.38576	0.98298
2150.33196	0.98326
2148.27816	0.98272
2146.22435	0.98162
2144.17055	0.98078
2142.11675	0.98087
2140.06294	0.98050
2138.00914	0.98002
2135.95534	0.98127
2133.90153	0.98378
2131.84773	0.98550
2129.79393	0.98534
2127.74012	0.98427
2125.68632	0.98316
2123.63252	0.98248
2121.57871	0.98203
2119.52491	0.98155
2117.47111	0.98175
2115.41731	0.98196
2113.36350	0.98116
2111.30970	0.98040
2109.25590	0.98127
2107.20209	0.98295
2105.14829	0.98334
2103.09449	0.98258
2101.04068	0.98143
2098.98688	0.97984
2096.93308	0.97869
2094.87927	0.97859
2092.82547	0.97934
2090.77167	0.98050
2088.71786	0.98147
2086.66406	0.98195
2084.61026	0.98156
2082.55645	0.98093
2080.50265	0.98130
2078.44885	0.98163
2076.39504	0.98085
2074.34124	0.97933
2072.28744	0.97759
2070.23363	0.97687
2068.17983	0.97837
2066.12603	0.98052
2064.07223	0.98130
2062.01842	0.98167
2059.96462	0.98150
2057.91082	0.98009
2055.85701	0.97891
2053.80321	0.97964
2051.74941	0.98199
2049.69560	0.98322
2047.64180	0.98199
2045.58800	0.98129
2043.53419	0.98326
2041.48039	0.98378
2039.42659	0.98081
2037.37278	0.97802
2035.31898	0.97765
2033.26518	0.97926
2031.21137	0.98049
2029.15757	0.98066
2027.10377	0.98101
2025.04996	0.98147
2022.99616	0.98163
2020.94236	0.98195
2018.88855	0.98089
2016.83475	0.97848
2014.78095	0.97940
2012.72714	0.98287
2010.67334	0.98367
2008.61954	0.98273
2006.56574	0.98267
2004.51193	0.98174
2002.45813	0.98000
2000.40433	0.97939
1998.35052	0.98000
1996.29672	0.98046
1994.24292	0.98001
1992.18911	0.98015
1990.13531	0.98117
1988.08151	0.98119
1986.02770	0.98082
1983.97390	0.98190
1981.92010	0.98202
1979.86629	0.98020
1977.81249	0.97993
1975.75869	0.98091
1973.70488	0.98160
1971.65108	0.98242
1969.59728	0.98255
1967.54347	0.98267
1965.48967	0.98385
1963.43587	0.98380
1961.38206	0.98225
1959.32826	0.98103
1957.27446	0.98024
1955.22066	0.98019
1953.16685	0.98148
1951.11305	0.98294
1949.05925	0.98265
1947.00544	0.98173
1944.95164	0.98206
1942.89784	0.98294
1940.84403	0.98337
1938.79023	0.98310
1936.73643	0.98261
1934.68262	0.98202
1932.62882	0.98041
1930.57502	0.97914
1928.52121	0.97971
1926.46741	0.98079
1924.41361	0.98114
1922.35980	0.98044
1920.30600	0.97945
1918.25220	0.97932
1916.19839	0.98003
1914.14459	0.98107
1912.09079	0.98124
1910.03698	0.98012
1907.98318	0.97952
1905.92938	0.97923
1903.87557	0.97832
1901.82177	0.97794
1899.76797	0.97857
1897.71417	0.97966
1895.66036	0.98065
1893.60656	0.98125
1891.55276	0.98145
1889.49895	0.98145
1887.44515	0.98148
1885.39135	0.98129
1883.33754	0.98071
1881.28374	0.97974
1879.22994	0.97952
1877.17613	0.98077
1875.12233	0.98166
1873.06853	0.98114
1871.01472	0.98070
1868.96092	0.98065
1866.90712	0.98030
1864.85331	0.98026
1862.79951	0.98069
1860.74571	0.98078
1858.69190	0.98059
1856.63810	0.98079
1854.58430	0.98096
1852.53049	0.98077
1850.47669	0.98034
1848.42289	0.97978
1846.36908	0.97952
1844.31528	0.97949
1842.26148	0.97973
1840.20768	0.98035
1838.15387	0.98076
1836.10007	0.98069
1834.04627	0.98023
1831.99246	0.97963
1829.93866	0.97948
1827.88486	0.97959
1825.83105	0.97949
1823.77725	0.97933
1821.72345	0.97927
1819.66964	0.97934
1817.61584	0.97948
1815.56204	0.97957
1813.50823	0.97933
1811.45443	0.97890
1809.40063	0.97867
1807.34682	0.97848
1805.29302	0.97816
1803.23922	0.97771
1801.18541	0.97728
1799.13161	0.97740
1797.07781	0.97787
1795.02400	0.97807
1792.97020	0.97793
1790.91640	0.97751
1788.86260	0.97704
1786.80879	0.97654
1784.75499	0.97602
1782.70119	0.97556
1780.64738	0.97521
1778.59358	0.97517
1776.53978	0.97548
1774.48597	0.97593
1772.43217	0.97589
1770.37837	0.97515
1768.32456	0.97485
1766.27076	0.97497
1764.21696	0.97497
1762.16315	0.97507
1760.10935	0.97504
1758.05555	0.97421
1756.00174	0.97338
1753.94794	0.97340
1751.89414	0.97368
1749.84033	0.97313
1747.78653	0.97166
1745.73273	0.97045
1743.67892	0.97002
1741.62512	0.96994
1739.57132	0.96964
1737.51751	0.96930
1735.46371	0.96903
1733.40991	0.96846
1731.35611	0.96788
1729.30230	0.96754
1727.24850	0.96724
1725.19470	0.96670
1723.14089	0.96566
1721.08709	0.96448
1719.03329	0.96297
1716.97948	0.96080
1714.92568	0.95981
1712.87188	0.96041
1710.81807	0.96153
1708.76427	0.96264
1706.71047	0.96366
1704.65666	0.96487
1702.60286	0.96599
1700.54906	0.96647
1698.49525	0.96665
1696.44145	0.96759
1694.38765	0.96859
1692.33384	0.96871
1690.28004	0.96874
1688.22624	0.96930
1686.17243	0.97007
1684.11863	0.97050
1682.06483	0.97043
1680.01103	0.97039
1677.95722	0.97058
1675.90342	0.97072
1673.84962	0.97038
1671.79581	0.96978
1669.74201	0.96907
1667.68821	0.96877
1665.63440	0.96910
1663.58060	0.96951
1661.52680	0.96934
1659.47299	0.96877
1657.41919	0.96865
1655.36539	0.96915
1653.31158	0.96939
1651.25778	0.96844
1649.20398	0.96781
1647.15017	0.96736
1645.09637	0.96652
1643.04257	0.96605
1640.98876	0.96613
1638.93496	0.96638
1636.88116	0.96682
1634.82735	0.96735
1632.77355	0.96742
1630.71975	0.96757
1628.66594	0.96791
1626.61214	0.96774
1624.55834	0.96707
1622.50454	0.96686
1620.45073	0.96701
1618.39693	0.96699
1616.34313	0.96695
1614.28932	0.96713
1612.23552	0.96739
1610.18172	0.96757
1608.12791	0.96750
1606.07411	0.96748
1604.02031	0.96789
1601.96650	0.96819
1599.91270	0.96806
1597.85890	0.96808
1595.80509	0.96840
1593.75129	0.96846
1591.69749	0.96826
1589.64368	0.96836
1587.58988	0.96886
1585.53608	0.96940
1583.48227	0.96960
1581.42847	0.96968
1579.37467	0.97004
1577.32086	0.97047
1575.26706	0.97068
1573.21326	0.97085
1571.15945	0.97099
1569.10565	0.97112
1567.05185	0.97141
1564.99805	0.97178
1562.94424	0.97207
1560.89044	0.97230
1558.83664	0.97228
1556.78283	0.97194
1554.72903	0.97171
1552.67523	0.97148
1550.62142	0.97133
1548.56762	0.97135
1546.51382	0.97156
1544.46001	0.97180
1542.40621	0.97165
1540.35241	0.97076
1538.29860	0.97049
1536.24480	0.97100
1534.19100	0.97134
1532.13719	0.97145
1530.08339	0.97149
1528.02959	0.97159
1525.97578	0.97167
1523.92198	0.97170
1521.86818	0.97156
1519.81437	0.97101
1517.76057	0.97057
1515.70677	0.97070
1513.65297	0.97096
1511.59916	0.97092
1509.54536	0.97066
1507.49156	0.97003
1505.43775	0.96916
1503.38395	0.96863
1501.33015	0.96834
1499.27634	0.96795
1497.22254	0.96747
1495.16874	0.96710
1493.11493	0.96679
1491.06113	0.96621
1489.00733	0.96528
1486.95352	0.96393
1484.89972	0.96170
1482.84592	0.95812
1480.79211	0.95182
1478.73831	0.93783
1476.68451	0.90176
1474.63070	0.83372
1472.57690	0.77165
1470.52310	0.77639
1468.46929	0.81384
1466.41549	0.83644
1464.36169	0.82885
1462.30788	0.82042
1460.25408	0.84057
1458.20028	0.88198
1456.14648	0.91717
1454.09267	0.93031
1452.03887	0.93627
1449.98507	0.94042
1447.93126	0.94313
1445.87746	0.94475
1443.82366	0.94566
1441.76985	0.94644
1439.71605	0.94748
1437.66225	0.94845
1435.60844	0.94897
1433.55464	0.94961
1431.50084	0.95076
1429.44703	0.95175
1427.39323	0.95243
1425.33943	0.95316
1423.28562	0.95401
1421.23182	0.95476
1419.17802	0.95543
1417.12421	0.95578
1415.07041	0.95580
1413.01661	0.95598
1410.96280	0.95642
1408.90900	0.95697
1406.85520	0.95766
1404.80139	0.95841
1402.74759	0.95880
1400.69379	0.95914
1398.63999	0.95980
1396.58618	0.96043
1394.53238	0.96076
1392.47858	0.96116
1390.42477	0.96159
1388.37097	0.96176
1386.31717	0.96142
1384.26336	0.96089
1382.20956	0.96062
1380.15576	0.96050
1378.10195	0.96025
1376.04815	0.95960
1373.99435	0.95880
1371.94054	0.95832
1369.88674	0.95801
1367.83294	0.95799
1365.77913	0.95835
1363.72533	0.95868
1361.67153	0.95907
1359.61772	0.95982
1357.56392	0.96055
1355.51012	0.96076
1353.45631	0.96068
1351.40251	0.96095
1349.34871	0.96123
1347.29491	0.96120
1345.24110	0.96134
1343.18730	0.96189
1341.13350	0.96258
1339.07969	0.96307
1337.02589	0.96315
1334.97209	0.96309
1332.91828	0.96336
1330.86448	0.96380
1328.81068	0.96387
1326.75687	0.96362
1324.70307	0.96352
1322.64927	0.96346
1320.59546	0.96317
1318.54166	0.96266
1316.48786	0.96217
1314.43405	0.96171
1312.38025	0.96127
1310.32645	0.96102
1308.27264	0.96105
1306.21884	0.96120
1304.16504	0.96114
1302.11123	0.96078
1300.05743	0.96059
1298.00363	0.96070
1295.94982	0.96076
1293.89602	0.96060
1291.84222	0.96044
1289.78842	0.96036
1287.73461	0.96014
1285.68081	0.95976
1283.62701	0.95949
1281.57320	0.95957
1279.51940	0.95988
1277.46560	0.95980
1275.41179	0.95955
1273.35799	0.95969
1271.30419	0.95965
1269.25038	0.95922
1267.19658	0.95903
1265.14278	0.95901
1263.08897	0.95886
1261.03517	0.95868
1258.98137	0.95855
1256.92756	0.95844
1254.87376	0.95824
1252.81996	0.95815
1250.76615	0.95805
1248.71235	0.95752
1246.65855	0.95690
1244.60474	0.95645
1242.55094	0.95604
1240.49714	0.95570
1238.44334	0.95539
1236.38953	0.95527
1234.33573	0.95537
1232.28193	0.95536
1230.22812	0.95506
1228.17432	0.95441
1226.12052	0.95360
1224.06671	0.95302
1222.01291	0.95277
1219.95911	0.95250
1217.90530	0.95187
1215.85150	0.95113
1213.79770	0.95061
1211.74389	0.95001
1209.69009	0.94908
1207.63629	0.94811
1205.58248	0.94722
1203.52868	0.94641
1201.47488	0.94569
1199.42107	0.94459
1197.36727	0.94299
1195.31347	0.94145
1193.25966	0.94011
1191.20586	0.93857
1189.15206	0.93686
1187.09825	0.93521
1185.04445	0.93360
1182.99065	0.93192
1180.93685	0.93019
1178.88304	0.92837
1176.82924	0.92634
1174.77544	0.92432
1172.72163	0.92270
1170.66783	0.92140
1168.61403	0.92024
1166.56022	0.91923
1164.50642	0.91832
1162.45262	0.91759
1160.39881	0.91713
1158.34501	0.91656
1156.29121	0.91566
1154.23740	0.91488
1152.18360	0.91415
1150.12980	0.91325
1148.07599	0.91253
1146.02219	0.91173
1143.96839	0.91091
1141.91458	0.91049
1139.86078	0.90993
1137.80698	0.90893
1135.75317	0.90792
1133.69937	0.90715
1131.64557	0.90654
1129.59176	0.90573
1127.53796	0.90470
1125.48416	0.90383
1123.43036	0.90326
1121.37655	0.90289
1119.32275	0.90255
1117.26895	0.90221
1115.21514	0.90173
1113.16134	0.90095
1111.10754	0.90031
1109.05373	0.89992
1106.99993	0.89954
1104.94613	0.89895
1102.89232	0.89793
1100.83852	0.89695
1098.78472	0.89650
1096.73091	0.89633
1094.67711	0.89617
1092.62331	0.89615
1090.56950	0.89642
1088.51570	0.89691
1086.46190	0.89765
1084.40809	0.89844
1082.35429	0.89891
1080.30049	0.89935
1078.24668	0.90012
1076.19288	0.90099
1074.13908	0.90181
1072.08528	0.90268
1070.03147	0.90357
1067.97767	0.90384
1065.92387	0.90331
1063.87006	0.90283
1061.81626	0.90263
1059.76246	0.90223
1057.70865	0.90153
1055.65485	0.90080
1053.60105	0.90020
1051.54724	0.89971
1049.49344	0.89949
1047.43964	0.89938
1045.38583	0.89872
1043.33203	0.89774
1041.27823	0.89721
1039.22442	0.89680
1037.17062	0.89643
1035.11682	0.89691
1033.06301	0.89780
1031.00921	0.89799
1028.95541	0.89767
1026.90160	0.89770
1024.84780	0.89808
1022.79400	0.89873
1020.74019	0.89980
1018.68639	0.90065
1016.63259	0.90070
1014.57879	0.90041
1012.52498	0.90045
1010.47118	0.90074
1008.41738	0.90099
1006.36357	0.90127
1004.30977	0.90180
1002.25597	0.90243
1000.20216	0.90287
998.14836	0.90345
996.09456	0.90446
994.04075	0.90547
991.98695	0.90642
989.93315	0.90774
987.87934	0.90922
985.82554	0.91059
983.77174	0.91224
981.71793	0.91414
979.66413	0.91588
977.61033	0.91736
975.55652	0.91883
973.50272	0.92064
971.44892	0.92244
969.39511	0.92384
967.34131	0.92543
965.28751	0.92725
963.23371	0.92845
961.17990	0.92928
959.12610	0.93031
957.07230	0.93152
955.01849	0.93290
952.96469	0.93416
950.91089	0.93522
948.85708	0.93634
946.80328	0.93744
944.74948	0.93824
942.69567	0.93882
940.64187	0.93913
938.58807	0.93959
936.53426	0.94067
934.48046	0.94192
932.42666	0.94295
930.37285	0.94376
928.31905	0.94417
926.26525	0.94427
924.21144	0.94472
922.15764	0.94560
920.10384	0.94603
918.05003	0.94539
915.99623	0.94438
913.94243	0.94393
911.88862	0.94382
909.83482	0.94366
907.78102	0.94396
905.72722	0.94535
903.67341	0.94730
901.61961	0.94904
899.56581	0.95050
897.51200	0.95157
895.45820	0.95228
893.40440	0.95300
891.35059	0.95374
889.29679	0.95472
887.24299	0.95579
885.18918	0.95594
883.13538	0.95499
881.08158	0.95358
879.02777	0.95249
876.97397	0.95212
874.92017	0.95208
872.86636	0.95196
870.81256	0.95275
868.75876	0.95484
866.70495	0.95664
864.65115	0.95745
862.59735	0.95803
860.54354	0.95906
858.48974	0.96004
856.43594	0.96022
854.38213	0.96030
852.32833	0.96086
850.27453	0.96149
848.22073	0.96222
846.16692	0.96233
844.11312	0.96105
842.05932	0.96016
840.00551	0.96086
837.95171	0.96175
835.89791	0.96181
833.84410	0.96130
831.79030	0.96094
829.73650	0.96127
827.68269	0.96160
825.62889	0.96115
823.57509	0.96071
821.52128	0.96071
819.46748	0.96056
817.41368	0.96053
815.35987	0.96069
813.30607	0.96018
811.25227	0.95871
809.19846	0.95637
807.14466	0.95369
805.09086	0.95151
803.03705	0.94931
800.98325	0.94675
798.92945	0.94492
796.87565	0.94402
794.82184	0.94346
792.76804	0.94403
790.71424	0.94560
788.66043	0.94643
786.60663	0.94633
784.55283	0.94593
782.49902	0.94544
780.44522	0.94525
778.39142	0.94539
776.33761	0.94615
774.28381	0.94737
772.23001	0.94834
770.17620	0.94919
768.12240	0.94939
766.06860	0.94850
764.01479	0.94847
761.96099	0.94981
759.90719	0.95073
757.85338	0.95098
755.79958	0.95142
753.74578	0.95175
751.69197	0.95149
749.63817	0.95092
747.58437	0.95044
745.53056	0.94999
743.47676	0.94922
741.42296	0.94860
739.36916	0.94729
737.31535	0.94119
735.26155	0.92171
733.20775	0.88134
731.15394	0.84111
729.10014	0.83702
727.04634	0.86014
724.99253	0.87116
722.93873	0.84864
720.88493	0.79443
718.83112	0.74167
716.77732	0.73276
714.72352	0.77277
712.66971	0.83107
710.61591	0.87641
708.56211	0.90238
706.50830	0.91650
704.45450	0.92464
702.40070	0.92946
700.34689	0.93207
698.29309	0.93354
696.23929	0.93481
694.18548	0.93644
692.13168	0.93870
690.07788	0.94064
688.02408	0.94148
685.97027	0.94219
683.91647	0.94350
681.86267	0.94440
679.80886	0.94459
677.75506	0.94508
675.70126	0.94525
673.64745	0.94473
671.59365	0.94521
669.53985	0.94704
667.48604	0.94790
665.43224	0.94658
663.37844	0.94523
661.32463	0.94467
659.27083	0.94422
657.21703	0.94305
655.16322	0.94188
653.10942	0.94134
651.05562	0.94069
649.00181	0.93994
646.94801	0.94040
644.89421	0.94195
642.84040	0.94278
640.78660	0.94237
638.73280	0.94197
636.67899	0.94232
634.62519	0.94315
632.57139	0.94351
630.51759	0.94303
628.46378	0.94241
626.40998	0.94256
624.35618	0.94369
622.30237	0.94366
620.24857	0.94097
618.19477	0.93844
616.14096	0.93792
614.08716	0.93774
612.03336	0.93686
609.97955	0.93483
607.92575	0.93229
605.87195	0.93065
603.81814	0.92961
601.76434	0.92885
599.71054	0.92874
597.65673	0.92868
595.60293	0.92838
593.54913	0.92870
591.49532	0.92936
589.44152	0.92971
587.38772	0.92984
585.33391	0.92999
583.28011	0.92985
581.22631	0.92923
579.17250	0.92928
577.11870	0.93061
575.06490	0.93239
573.01110	0.93278
570.95729	0.93155
568.90349	0.93043
566.84969	0.93107
564.79588	0.93373
562.74208	0.93611
560.68828	0.93671
558.63447	0.93647
556.58067	0.93602
554.52687	0.93510
552.47306	0.93444
550.41926	0.93536
548.36546	0.93646
546.31165	0.93522
544.25785	0.93217
542.20405	0.92944
540.15024	0.92854
538.09644	0.92900
536.04264	0.92852
533.98883	0.92740
531.93503	0.92658
529.88123	0.92533
527.82742	0.92526
525.77362	0.92683
523.71982	0.92705
521.66602	0.92559
519.61221	0.92386
517.55841	0.92266
515.50461	0.92360
513.45080	0.92629
511.39700	0.92748
509.34320	0.92617
507.28939	0.92415
505.23559	0.92369
503.18179	0.92530
501.12798	0.92616
499.07418	0.92500
497.02038	0.92437
494.96657	0.92458
492.91277	0.92437
490.85897	0.92493
488.80516	0.92459
486.75136	0.92165
484.69756	0.91736
482.64375	0.91160
480.58995	0.90678
478.53615	0.90446
476.48234	0.90245
474.42854	0.90036
472.37474	0.89863
470.32093	0.89650
468.26713	0.89379
466.21333	0.89261
464.15953	0.89473
462.10572	0.89611
460.05192	0.89427
457.99812	0.89473
455.94431	0.89953
453.89051	0.90284
451.83671	0.90458
449.78290	0.90834
447.72910	0.91155
445.67530	0.91147
443.62149	0.91017
441.56769	0.90831
439.51389	0.90781
437.46008	0.90914
435.40628	0.90801
433.35248	0.90538
431.29867	0.90455
429.24487	0.90450
427.19107	0.90532
425.13726	0.90757
423.08346	0.91055
421.02966	0.91187
418.97585	0.91097
416.92205	0.91268
414.86825	0.91676
412.81445	0.91899
410.76064	0.91973
408.70684	0.92282
406.65304	0.92336
404.59923	0.91691
402.54543	0.91052
400.49163	0.90824
398.43782	0.90818
