3996.70104	0.97387
3994.64724	0.97340
3992.59344	0.97252
3990.53964	0.97229
3988.48583	0.97277
3986.43203	0.97327
3984.37823	0.97357
3982.32442	0.97400
3980.27062	0.97451
3978.21682	0.97459
3976.16301	0.97415
3974.10921	0.97371
3972.05541	0.97369
3970.00160	0.97403
3967.94780	0.97445
3965.89400	0.97449
3963.84019	0.97422
3961.78639	0.97408
3959.73259	0.97384
3957.67878	0.97341
3955.62498	0.97342
3953.57118	0.97342
3951.51737	0.97298
3949.46357	0.97293
3947.40977	0.97332
3945.35596	0.97368
3943.30216	0.97402
3941.24836	0.97409
3939.19455	0.97393
3937.14075	0.97391
3935.08695	0.97404
3933.03315	0.97395
3930.97934	0.97347
3928.92554	0.97351
3926.87174	0.97418
3924.81793	0.97469
3922.76413	0.97509
3920.71033	0.97546
3918.65652	0.97525
3916.60272	0.97471
3914.54892	0.97430
3912.49511	0.97390
3910.44131	0.97385
3908.38751	0.97420
3906.33370	0.97421
3904.27990	0.97370
3902.22610	0.97352
3900.17229	0.97364
3898.11849	0.97342
3896.06469	0.97303
3894.01088	0.97297
3891.95708	0.97340
3889.90328	0.97386
3887.84947	0.97432
3885.79567	0.97467
3883.74187	0.97473
3881.68807	0.97476
3879.63426	0.97461
3877.58046	0.97448
3875.52666	0.97460
3873.47285	0.97462
3871.41905	0.97438
3869.36525	0.97423
3867.31144	0.97434
3865.25764	0.97428
3863.20384	0.97364
3861.15003	0.97328
3859.09623	0.97375
3857.04243	0.97409
3854.98862	0.97369
3852.93482	0.97277
3850.88102	0.97224
3848.82721	0.97262
3846.77341	0.97345
3844.71961	0.97396
3842.66580	0.97396
3840.61200	0.97397
3838.55820	0.97410
3836.50439	0.97445
3834.45059	0.97519
3832.39679	0.97554
3830.34298	0.97500
3828.28918	0.97415
3826.23538	0.97358
3824.18158	0.97380
3822.12777	0.97418
3820.07397	0.97338
3818.02017	0.97237
3815.96636	0.97248
3813.91256	0.97338
3811.85876	0.97412
3809.80495	0.97472
3807.75115	0.97496
3805.69735	0.97465
3803.64354	0.97460
3801.58974	0.97489
3799.53594	0.97519
3797.48213	0.97522
3795.42833	0.97468
3793.37453	0.97420
3791.32072	0.97431
3789.26692	0.97458
3787.21312	0.97479
3785.15931	0.97529
3783.10551	0.97549
3781.05171	0.97504
3778.99790	0.97496
3776.94410	0.97553
3774.89030	0.97569
3772.83650	0.97530
3770.78269	0.97489
3768.72889	0.97461
3766.67509	0.97419
3764.62128	0.97385
3762.56748	0.97412
3760.51368	0.97435
3758.45987	0.97405
3756.40607	0.97406
3754.35227	0.97455
3752.29846	0.97538
3750.24466	0.97601
3748.19086	0.97632
3746.13705	0.97746
3744.08325	0.97785
3742.02945	0.97663
3739.97564	0.97598
3737.92184	0.97609
3735.86804	0.97656
3733.81423	0.97641
3731.76043	0.97550
3729.70663	0.97509
3727.65282	0.97499
3725.59902	0.97496
3723.54522	0.97476
3721.49141	0.97373
3719.43761	0.97267
3717.38381	0.97216
3715.33001	0.97164
3713.27620	0.97060
3711.22240	0.96813
3709.16860	0.96531
3707.11479	0.96382
3705.06099	0.96262
3703.00719	0.96070
3700.95338	0.95853
3698.89958	0.95708
3696.84578	0.95623
3694.79197	0.95562
3692.73817	0.95555
3690.68437	0.95650
3688.63056	0.95766
3686.57676	0.95882
3684.52296	0.96041
3682.46915	0.96160
3680.41535	0.96184
3678.36155	0.96146
3676.30774	0.96053
3674.25394	0.95964
3672.20014	0.95963
3670.14633	0.95896
3668.09253	0.95788
3666.03873	0.95774
3663.98492	0.95771
3661.93112	0.95727
3659.87732	0.95659
3657.82352	0.95581
3655.76971	0.95500
3653.71591	0.95454
3651.66211	0.95405
3649.60830	0.95280
3647.55450	0.95180
3645.50070	0.95210
3643.44689	0.95260
3641.39309	0.95250
3639.33929	0.95213
3637.28548	0.95201
3635.23168	0.95161
3633.17788	0.95040
3631.12407	0.94885
3629.07027	0.94682
3627.01647	0.94526
3624.96266	0.94476
3622.90886	0.94433
3620.85506	0.94444
3618.80125	0.94486
3616.74745	0.94480
3614.69365	0.94487
3612.63984	0.94534
3610.58604	0.94610
3608.53224	0.94652
3606.47844	0.94631
3604.42463	0.94649
3602.37083	0.94685
3600.31703	0.94619
3598.26322	0.94509
3596.20942	0.94486
3594.15562	0.94500
3592.10181	0.94506
3590.04801	0.94534
3587.99421	0.94508
3585.94040	0.94406
3583.88660	0.94406
3581.83280	0.94488
3579.77899	0.94545
3577.72519	0.94530
3575.67139	0.94459
3573.61758	0.94373
3571.56378	0.94315
3569.50998	0.94311
3567.45617	0.94273
3565.40237	0.94148
3563.34857	0.94051
3561.29476	0.94004
3559.24096	0.93984
3557.18716	0.93967
3555.13335	0.93932
3553.07955	0.93883
3551.02575	0.93847
3548.97195	0.93847
3546.91814	0.93849
3544.86434	0.93784
3542.81054	0.93656
3540.75673	0.93556
3538.70293	0.93502
3536.64913	0.93454
3534.59532	0.93414
3532.54152	0.93437
3530.48772	0.93512
3528.43391	0.93531
3526.38011	0.93468
3524.32631	0.93418
3522.27250	0.93395
3520.21870	0.93363
3518.16490	0.93325
3516.11109	0.93267
3514.05729	0.93182
3512.00349	0.93132
3509.94968	0.93118
3507.89588	0.93078
3505.84208	0.93053
3503.78827	0.93083
3501.73447	0.93136
3499.68067	0.93172
3497.62687	0.93142
3495.57306	0.93038
3493.51926	0.92960
3491.46546	0.92948
3489.41165	0.92936
3487.35785	0.92898
3485.30405	0.92886
3483.25024	0.92906
3481.19644	0.92895
3479.14264	0.92844
3477.08883	0.92788
3475.03503	0.92751
3472.98123	0.92743
3470.92742	0.92707
3468.87362	0.92618
3466.81982	0.92540
3464.76601	0.92517
3462.71221	0.92513
3460.65841	0.92481
3458.60460	0.92418
3456.55080	0.92378
3454.49700	0.92370
3452.44319	0.92321
3450.38939	0.92249
3448.33559	0.92209
3446.28178	0.92173
3444.22798	0.92132
3442.17418	0.92106
3440.12038	0.92084
3438.06657	0.92026
3436.01277	0.91934
3433.95897	0.91874
3431.90516	0.91842
3429.85136	0.91812
3427.79756	0.91801
3425.74375	0.91803
3423.68995	0.91764
3421.63615	0.91657
3419.58234	0.91539
3417.52854	0.91482
3415.47474	0.91479
3413.42093	0.91474
3411.36713	0.91439
3409.31333	0.91403
3407.25952	0.91406
3405.20572	0.91390
3403.15192	0.91296
3401.09811	0.91226
3399.04431	0.91211
3396.99051	0.91181
3394.93670	0.91171
3392.88290	0.91218
3390.82910	0.91224
3388.77529	0.91158
3386.72149	0.91148
3384.66769	0.91230
3382.61389	0.91277
3380.56008	0.91245
3378.50628	0.91225
3376.45248	0.91251
3374.39867	0.91279
3372.34487	0.91284
3370.29107	0.91254
3368.23726	0.91212
3366.18346	0.91202
3364.12966	0.91187
3362.07585	0.91137
3360.02205	0.91125
3357.96825	0.91165
3355.91444	0.91199
3353.86064	0.91235
3351.80684	0.91273
3349.75303	0.91259
3347.69923	0.91222
3345.64543	0.91222
3343.59162	0.91232
3341.53782	0.91244
3339.48402	0.91286
3337.43021	0.91319
3335.37641	0.91302
3333.32261	0.91301
3331.26881	0.91323
3329.21500	0.91298
3327.16120	0.91279
3325.10740	0.91311
3323.05359	0.91314
3320.99979	0.91306
3318.94599	0.91350
3316.89218	0.91378
3314.83838	0.91363
3312.78458	0.91353
3310.73077	0.91362
3308.67697	0.91397
3306.62317	0.91459
3304.56936	0.91514
3302.51556	0.91530
3300.46176	0.91530
3298.40795	0.91517
3296.35415	0.91481
3294.30035	0.91461
3292.24654	0.91488
3290.19274	0.91545
3288.13894	0.91601
3286.08513	0.91636
3284.03133	0.91647
3281.97753	0.91635
3279.92372	0.91630
3277.86992	0.91672
3275.81612	0.91720
3273.76232	0.91724
3271.70851	0.91730
3269.65471	0.91766
3267.60091	0.91809
3265.54710	0.91840
3263.49330	0.91837
3261.43950	0.91803
3259.38569	0.91778
3257.33189	0.91795
3255.27809	0.91839
3253.22428	0.91880
3251.17048	0.91901
3249.11668	0.91882
3247.06287	0.91858
3245.00907	0.91894
3242.95527	0.91970
3240.90146	0.92040
3238.84766	0.92086
3236.79386	0.92085
3234.74005	0.92041
3232.68625	0.92025
3230.63245	0.92064
3228.57864	0.92114
3226.52484	0.92151
3224.47104	0.92197
3222.41724	0.92233
3220.36343	0.92247
3218.30963	0.92304
3216.25583	0.92387
3214.20202	0.92407
3212.14822	0.92401
3210.09442	0.92418
3208.04061	0.92410
3205.98681	0.92403
3203.93301	0.92451
3201.87920	0.92508
3199.82540	0.92503
3197.77160	0.92492
3195.71779	0.92547
3193.66399	0.92597
3191.61019	0.92600
3189.55638	0.92635
3187.50258	0.92712
3185.44878	0.92756
3183.39497	0.92767
3181.34117	0.92789
3179.28737	0.92828
3177.23356	0.92878
3175.17976	0.92943
3173.12596	0.93010
3171.07215	0.93052
3169.01835	0.93084
3166.96455	0.93136
3164.91075	0.93180
3162.85694	0.93207
3160.80314	0.93227
3158.74934	0.93233
3156.69553	0.93245
3154.64173	0.93278
3152.58793	0.93312
3150.53412	0.93355
3148.48032	0.93423
3146.42652	0.93452
3144.37271	0.93447
3142.31891	0.93503
3140.26511	0.93587
3138.21130	0.93612
3136.15750	0.93616
3134.10370	0.93661
3132.04989	0.93698
3129.99609	0.93713
3127.94229	0.93767
3125.88848	0.93835
3123.83468	0.93867
3121.78088	0.93871
3119.72707	0.93867
3117.67327	0.93876
3115.61947	0.93930
3113.56566	0.93995
3111.51186	0.94003
3109.45806	0.93992
3107.40426	0.94018
3105.35045	0.94057
3103.29665	0.94098
3101.24285	0.94132
3099.18904	0.94124
3097.13524	0.94134
3095.08144	0.94231
3093.02763	0.94305
3090.97383	0.94266
3088.92003	0.94254
3086.86622	0.94336
3084.81242	0.94410
3082.75862	0.94434
3080.70481	0.94415
3078.65101	0.94385
3076.59721	0.94405
3074.54340	0.94460
3072.48960	0.94495
3070.43580	0.94508
3068.38199	0.94539
3066.32819	0.94587
3064.27439	0.94628
3062.22058	0.94663
3060.16678	0.94668
3058.11298	0.94638
3056.05918	0.94628
3054.00537	0.94668
3051.95157	0.94726
3049.89777	0.94764
3047.84396	0.94812
3045.79016	0.94884
3043.73636	0.94893
3041.68255	0.94867
3039.62875	0.94895
3037.57495	0.94912
3035.52114	0.94913
3033.46734	0.94964
3031.41354	0.95010
3029.35973	0.95011
3027.30593	0.95028
3025.25213	0.95066
3023.19832	0.95066
3021.14452	0.95050
3019.09072	0.95064
3017.03691	0.95076
3014.98311	0.95073
3012.92931	0.95110
3010.87550	0.95173
3008.82170	0.95210
3006.76790	0.95223
3004.71409	0.95235
3002.66029	0.95258
3000.60649	0.95307
2998.55269	0.95362
2996.49888	0.95385
2994.44508	0.95405
2992.39128	0.95436
2990.33747	0.95435
2988.28367	0.95385
2986.22987	0.95353
2984.17606	0.95354
2982.12226	0.95333
2980.06846	0.95313
2978.01465	0.95289
2975.96085	0.95199
2973.90705	0.95097
2971.85324	0.95043
2969.79944	0.94966
2967.74564	0.94856
2965.69183	0.94775
2963.63803	0.94666
2961.58423	0.94492
2959.53042	0.94346
2957.47662	0.94231
2955.42282	0.94061
2953.36901	0.93859
2951.31521	0.93697
2949.26141	0.93534
2947.20761	0.93297
2945.15380	0.93016
2943.10000	0.92725
2941.04620	0.92413
2938.99239	0.92101
2936.93859	0.91806
2934.88479	0.91507
2932.83098	0.91214
2930.77718	0.90963
2928.72338	0.90759
2926.66957	0.90599
2924.61577	0.90503
2922.56197	0.90460
2920.50816	0.90474
2918.45436	0.90595
2916.40056	0.90791
2914.34675	0.90979
2912.29295	0.91169
2910.23915	0.91393
2908.18534	0.91610
2906.13154	0.91795
2904.07774	0.91954
2902.02393	0.92105
2899.97013	0.92276
2897.91633	0.92471
2895.86252	0.92684
2893.80872	0.92871
2891.75492	0.93009
2889.70112	0.93144
2887.64731	0.93317
2885.59351	0.93508
2883.53971	0.93637
2881.48590	0.93698
2879.43210	0.93764
2877.37830	0.93826
2875.32449	0.93822
2873.27069	0.93755
2871.21689	0.93669
2869.16308	0.93564
2867.10928	0.93413
2865.05548	0.93221
2863.00167	0.92987
2860.94787	0.92678
2858.89407	0.92334
2856.84026	0.92051
2854.78646	0.91842
2852.73266	0.91702
2850.67885	0.91693
2848.62505	0.91845
2846.57125	0.92138
2844.51744	0.92521
2842.46364	0.92913
2840.40984	0.93264
2838.35603	0.93593
2836.30223	0.93883
2834.24843	0.94079
2832.19463	0.94218
2830.14082	0.94356
2828.08702	0.94458
2826.03322	0.94498
2823.97941	0.94574
2821.92561	0.94701
2819.87181	0.94767
2817.81800	0.94775
2815.76420	0.94813
2813.71040	0.94882
2811.65659	0.94953
2809.60279	0.94999
2807.54899	0.94992
2805.49518	0.94975
2803.44138	0.95017
2801.38758	0.95089
2799.33377	0.95128
2797.27997	0.95155
2795.22617	0.95207
2793.17236	0.95244
2791.11856	0.95258
2789.06476	0.95285
2787.01095	0.95321
2784.95715	0.95352
2782.90335	0.95373
2780.84955	0.95355
2778.79574	0.95315
2776.74194	0.95323
2774.68814	0.95380
2772.63433	0.95421
2770.58053	0.95412
2768.52673	0.95391
2766.47292	0.95391
2764.41912	0.95415
2762.36532	0.95471
2760.31151	0.95522
2758.25771	0.95508
2756.20391	0.95474
2754.15010	0.95478
2752.09630	0.95477
2750.04250	0.95487
2747.98869	0.95539
2745.93489	0.95569
2743.88109	0.95577
2741.82728	0.95601
2739.77348	0.95601
2737.71968	0.95575
2735.66587	0.95578
2733.61207	0.95600
2731.55827	0.95601
2729.50446	0.95571
2727.45066	0.95540
2725.39686	0.95543
2723.34306	0.95562
2721.28925	0.95581
2719.23545	0.95605
2717.18165	0.95613
2715.12784	0.95616
2713.07404	0.95619
2711.02024	0.95589
2708.96643	0.95560
2706.91263	0.95591
2704.85883	0.95637
2702.80502	0.95640
2700.75122	0.95619
2698.69742	0.95613
2696.64361	0.95625
2694.58981	0.95641
2692.53601	0.95658
2690.48220	0.95665
2688.42840	0.95649
2686.37460	0.95629
2684.32079	0.95626
2682.26699	0.95645
2680.21319	0.95680
2678.15938	0.95711
2676.10558	0.95719
2674.05178	0.95731
2671.99797	0.95758
2669.94417	0.95761
2667.89037	0.95756
2665.83657	0.95770
2663.78276	0.95747
2661.72896	0.95700
2659.67516	0.95712
2657.62135	0.95747
2655.56755	0.95733
2653.51375	0.95711
2651.45994	0.95724
2649.40614	0.95747
2647.35234	0.95757
2645.29853	0.95747
2643.24473	0.95712
2641.19093	0.95692
2639.13712	0.95718
2637.08332	0.95746
2635.02952	0.95768
2632.97571	0.95822
2630.92191	0.95857
2628.86811	0.95812
2626.81430	0.95766
2624.76050	0.95787
2622.70670	0.95833
2620.65289	0.95857
2618.59909	0.95844
2616.54529	0.95830
2614.49149	0.95885
2612.43768	0.95979
2610.38388	0.96012
2608.33008	0.95978
2606.27627	0.95953
2604.22247	0.95947
2602.16867	0.95913
2600.11486	0.95912
2598.06106	0.95971
2596.00726	0.95984
2593.95345	0.95969
2591.89965	0.96006
2589.84585	0.96039
2587.79204	0.96004
2585.73824	0.95959
2583.68444	0.95952
2581.63063	0.95939
2579.57683	0.95906
2577.52303	0.95924
2575.46922	0.96000
2573.41542	0.96049
2571.36162	0.96045
2569.30781	0.95997
2567.25401	0.95929
2565.20021	0.95948
2563.14640	0.96036
2561.09260	0.96067
2559.03880	0.96072
2556.98500	0.96103
2554.93119	0.96114
2552.87739	0.96152
2550.82359	0.96228
2548.76978	0.96218
2546.71598	0.96156
2544.66218	0.96144
2542.60837	0.96140
2540.55457	0.96100
2538.50077	0.96065
2536.44696	0.96048
2534.39316	0.96036
2532.33936	0.96049
2530.28555	0.96110
2528.23175	0.96182
2526.17795	0.96199
2524.12414	0.96147
2522.07034	0.96093
2520.01654	0.96082
2517.96273	0.96089
2515.90893	0.96094
2513.85513	0.96109
2511.80132	0.96156
2509.74752	0.96217
2507.69372	0.96219
2505.63992	0.96202
2503.58611	0.96234
2501.53231	0.96208
2499.47851	0.96117
2497.42470	0.96105
2495.37090	0.96203
2493.31710	0.96307
2491.26329	0.96321
2489.20949	0.96269
2487.15569	0.96225
2485.10188	0.96209
2483.04808	0.96202
2480.99428	0.96163
2478.94047	0.96115
2476.88667	0.96129
2474.83287	0.96198
2472.77906	0.96259
2470.72526	0.96263
2468.67146	0.96232
2466.61765	0.96236
2464.56385	0.96249
2462.51005	0.96219
2460.45624	0.96179
2458.40244	0.96171
2456.34864	0.96163
2454.29483	0.96127
2452.24103	0.96103
2450.18723	0.96118
2448.13343	0.96152
2446.07962	0.96192
2444.02582	0.96243
2441.97202	0.96288
2439.91821	0.96293
2437.86441	0.96248
2435.81061	0.96154
2433.75680	0.96080
2431.70300	0.96088
2429.64920	0.96148
2427.59539	0.96228
2425.54159	0.96262
2423.48779	0.96216
2421.43398	0.96150
2419.38018	0.96102
2417.32638	0.96100
2415.27257	0.96145
2413.21877	0.96184
2411.16497	0.96168
2409.11116	0.96126
2407.05736	0.96147
2405.00356	0.96229
2402.94975	0.96280
2400.89595	0.96258
2398.84215	0.96185
2396.78834	0.96132
2394.73454	0.96145
2392.68074	0.96191
2390.62694	0.96212
2388.57313	0.96207
2386.51933	0.96216
2384.46553	0.96231
2382.41172	0.96212
2380.35792	0.96150
2378.30412	0.96101
2376.25031	0.96102
2374.19651	0.96115
2372.14271	0.96158
2370.08890	0.96179
2368.03510	0.96190
2365.98130	0.96286
2363.92749	0.96332
2361.87369	0.96245
2359.81989	0.96157
2357.76608	0.96083
2355.71228	0.95996
2353.65848	0.96027
2351.60467	0.96109
2349.55087	0.96091
2347.49707	0.96039
2345.44326	0.96043
2343.38946	0.96098
2341.33566	0.96157
2339.28186	0.96186
2337.22805	0.96167
2335.17425	0.96129
2333.12045	0.96114
2331.06664	0.96115
2329.01284	0.96063
2326.95904	0.95917
2324.90523	0.95815
2322.85143	0.95895
2320.79763	0.96029
2318.74382	0.96031
2316.69002	0.95964
2314.63622	0.95917
2312.58241	0.95891
2310.52861	0.95935
2308.47481	0.96018
2306.42100	0.96061
2304.36720	0.96055
2302.31340	0.96038
2300.25959	0.96079
2298.20579	0.96135
2296.15199	0.96139
2294.09818	0.96135
2292.04438	0.96127
2289.99058	0.96088
2287.93677	0.96095
2285.88297	0.96146
2283.82917	0.96154
2281.77537	0.96181
2279.72156	0.96221
2277.66776	0.96204
2275.61396	0.96202
2273.56015	0.96242
2271.50635	0.96290
2269.45255	0.96315
2267.39874	0.96267
2265.34494	0.96239
2263.29114	0.96287
2261.23733	0.96302
2259.18353	0.96220
2257.12973	0.96092
2255.07592	0.96053
2253.02212	0.96102
2250.96832	0.96194
2248.91451	0.96382
2246.86071	0.96536
2244.80691	0.96505
2242.75310	0.96372
2240.69930	0.96258
2238.64550	0.96186
2236.59169	0.96177
2234.53789	0.96190
2232.48409	0.96121
2230.43029	0.96043
2228.37648	0.96063
2226.32268	0.96111
2224.26888	0.96088
2222.21507	0.96052
2220.16127	0.96120
2218.10747	0.96178
2216.05366	0.96123
2213.99986	0.96145
2211.94606	0.96298
2209.89225	0.96420
2207.83845	0.96407
2205.78465	0.96365
2203.73084	0.96442
2201.67704	0.96477
2199.62324	0.96388
2197.56943	0.96355
2195.51563	0.96453
2193.46183	0.96632
2191.40802	0.96812
2189.35422	0.96863
2187.30042	0.96757
2185.24661	0.96572
2183.19281	0.96409
2181.13901	0.96407
2179.08520	0.96427
2177.03140	0.96379
2174.97760	0.96400
2172.92380	0.96334
2170.86999	0.96196
2168.81619	0.96367
2166.76239	0.96723
2164.70858	0.96761
2162.65478	0.96369
2160.60098	0.96045
2158.54717	0.96214
2156.49337	0.96550
2154.43957	0.96644
2152.38576	0.96511
2150.33196	0.96306
2148.27816	0.96165
2146.22435	0.96206
2144.17055	0.96346
2142.11675	0.96394
2140.06294	0.96370
2138.00914	0.96327
2135.95534	0.96252
2133.90153	0.96239
2131.84773	0.96309
2129.79393	0.96338
2127.74012	0.96351
2125.68632	0.96440
2123.63252	0.96540
2121.57871	0.96570
2119.52491	0.96595
2117.47111	0.96592
2115.41731	0.96478
2113.36350	0.96393
2111.30970	0.96406
2109.25590	0.96437
2107.20209	0.96434
2105.14829	0.96342
2103.09449	0.96231
2101.04068	0.96228
2098.98688	0.96251
2096.93308	0.96215
2094.87927	0.96208
2092.82547	0.96274
2090.77167	0.96349
2088.71786	0.96361
2086.66406	0.96337
2084.61026	0.96325
2082.55645	0.96310
2080.50265	0.96265
2078.44885	0.96190
2076.39504	0.96124
2074.34124	0.96127
2072.28744	0.96223
2070.23363	0.96268
2068.17983	0.96182
2066.12603	0.96118
2064.07223	0.96235
2062.01842	0.96466
2059.96462	0.96545
2057.91082	0.96383
2055.85701	0.96212
2053.80321	0.96167
2051.74941	0.96169
2049.69560	0.96219
2047.64180	0.96276
2045.58800	0.96290
2043.53419	0.96348
2041.48039	0.96392
2039.42659	0.96444
2037.37278	0.96487
2035.31898	0.96253
2033.26518	0.95979
2031.21137	0.96082
2029.15757	0.96285
2027.10377	0.96355
2025.04996	0.96457
2022.99616	0.96501
2020.94236	0.96387
2018.88855	0.96283
2016.83475	0.96354
2014.78095	0.96658
2012.72714	0.96950
2010.67334	0.96885
2008.61954	0.96515
2006.56574	0.96253
2004.51193	0.96395
2002.45813	0.96758
2000.40433	0.96905
1998.35052	0.96857
1996.29672	0.96952
1994.24292	0.97020
1992.18911	0.96816
1990.13531	0.96552
1988.08151	0.96371
1986.02770	0.96278
1983.97390	0.96224
1981.92010	0.96113
1979.86629	0.96145
1977.81249	0.96416
1975.75869	0.96582
1973.70488	0.96625
1971.65108	0.96891
1969.59728	0.97136
1967.54347	0.96916
1965.48967	0.96601
1963.43587	0.96701
1961.38206	0.96911
1959.32826	0.96681
1957.27446	0.96294
1955.22066	0.96299
1953.16685	0.96428
1951.11305	0.96414
1949.05925	0.96515
1947.00544	0.96692
1944.95164	0.96724
1942.89784	0.96716
1940.84403	0.96739
1938.79023	0.96740
1936.73643	0.96712
1934.68262	0.96636
1932.62882	0.96534
1930.57502	0.96482
1928.52121	0.96530
1926.46741	0.96640
1924.41361	0.96753
1922.35980	0.96794
1920.30600	0.96661
1918.25220	0.96420
1916.19839	0.96310
1914.14459	0.96330
1912.09079	0.96346
1910.03698	0.96419
1907.98318	0.96522
1905.92938	0.96588
1903.87557	0.96660
1901.82177	0.96698
1899.76797	0.96640
1897.71417	0.96555
1895.66036	0.96536
1893.60656	0.96523
1891.55276	0.96464
1889.49895	0.96475
1887.44515	0.96538
1885.39135	0.96541
1883.33754	0.96518
1881.28374	0.96494
1879.22994	0.96456
1877.17613	0.96479
1875.12233	0.96583
1873.06853	0.96622
1871.01472	0.96585
1868.96092	0.96581
1866.90712	0.96605
1864.85331	0.96616
1862.79951	0.96590
1860.74571	0.96531
1858.69190	0.96502
1856.63810	0.96492
1854.58430	0.96465
1852.53049	0.96457
1850.47669	0.96479
1848.42289	0.96549
1846.36908	0.96639
1844.31528	0.96664
1842.26148	0.96665
1840.20768	0.96659
1838.15387	0.96583
1836.10007	0.96519
1834.04627	0.96548
1831.99246	0.96587
1829.93866	0.96609
1827.88486	0.96655
1825.83105	0.96685
1823.77725	0.96657
1821.72345	0.96643
1819.66964	0.96692
1817.61584	0.96714
1815.56204	0.96688
1813.50823	0.96688
1811.45443	0.96698
1809.40063	0.96693
1807.34682	0.96692
1805.29302	0.96659
1803.23922	0.96605
1801.18541	0.96585
1799.13161	0.96577
1797.07781	0.96540
1795.02400	0.96523
1792.97020	0.96563
1790.91640	0.96601
1788.86260	0.96631
1786.80879	0.96658
1784.75499	0.96620
1782.70119	0.96569
1780.64738	0.96610
1778.59358	0.96676
1776.53978	0.96672
1774.48597	0.96638
1772.43217	0.96634
1770.37837	0.96625
1768.32456	0.96618
1766.27076	0.96666
1764.21696	0.96706
1762.16315	0.96660
1760.10935	0.96594
1758.05555	0.96552
1756.00174	0.96474
1753.94794	0.96422
1751.89414	0.96366
1749.84033	0.96161
1747.78653	0.95867
1745.73273	0.95529
1743.67892	0.95015
1741.62512	0.94296
1739.57132	0.93465
1737.51751	0.92763
1735.46371	0.92105
1733.40991	0.91259
1731.35611	0.90732
1729.30230	0.90518
1727.24850	0.90429
1725.19470	0.90498
1723.14089	0.90674
1721.08709	0.90884
1719.03329	0.91107
1716.97948	0.91276
1714.92568	0.91322
1712.87188	0.91350
1710.81807	0.91388
1708.76427	0.91421
1706.71047	0.91462
1704.65666	0.91536
1702.60286	0.91620
1700.54906	0.91706
1698.49525	0.91846
1696.44145	0.92014
1694.38765	0.92113
1692.33384	0.92161
1690.28004	0.92190
1688.22624	0.92188
1686.17243	0.92183
1684.11863	0.92160
1682.06483	0.92144
1680.01103	0.92150
1677.95722	0.92160
1675.90342	0.92137
1673.84962	0.92075
1671.79581	0.92065
1669.74201	0.92006
1667.68821	0.91819
1665.63440	0.91729
1663.58060	0.91725
1661.52680	0.91652
1659.47299	0.91535
1657.41919	0.91484
1655.36539	0.91465
1653.31158	0.91276
1651.25778	0.91085
1649.20398	0.91085
1647.15017	0.91032
1645.09637	0.90928
1643.04257	0.90850
1640.98876	0.90736
1638.93496	0.90625
1636.88116	0.90485
1634.82735	0.90177
1632.77355	0.89967
1630.71975	0.89930
1628.66594	0.89891
1626.61214	0.89798
1624.55834	0.89734
1622.50454	0.89702
1620.45073	0.89695
1618.39693	0.89734
1616.34313	0.89812
1614.28932	0.89901
1612.23552	0.89987
1610.18172	0.90080
1608.12791	0.90153
1606.07411	0.90213
1604.02031	0.90324
1601.96650	0.90463
1599.91270	0.90575
1597.85890	0.90704
1595.80509	0.90876
1593.75129	0.91016
1591.69749	0.91105
1589.64368	0.91216
1587.58988	0.91342
1585.53608	0.91430
1583.48227	0.91522
1581.42847	0.91664
1579.37467	0.91809
1577.32086	0.91933
1575.26706	0.92044
1573.21326	0.92127
1571.15945	0.92235
1569.10565	0.92378
1567.05185	0.92437
1564.99805	0.92452
1562.94424	0.92537
1560.89044	0.92622
1558.83664	0.92531
1556.78283	0.92496
1554.72903	0.92577
1552.67523	0.92580
1550.62142	0.92567
1548.56762	0.92594
1546.51382	0.92613
1544.46001	0.92607
1542.40621	0.92639
1540.35241	0.92730
1538.29860	0.92824
1536.24480	0.92947
1534.19100	0.93083
1532.13719	0.93178
1530.08339	0.93256
1528.02959	0.93322
1525.97578	0.93303
1523.92198	0.93205
1521.86818	0.93023
1519.81437	0.92768
1517.76057	0.92581
1515.70677	0.92496
1513.65297	0.92554
1511.59916	0.92725
1509.54536	0.92955
1507.49156	0.93272
1505.43775	0.93588
1503.38395	0.93741
1501.33015	0.93848
1499.27634	0.93937
1497.22254	0.94023
1495.16874	0.94151
1493.11493	0.94263
1491.06113	0.94300
1489.00733	0.94325
1486.95352	0.94397
1484.89972	0.94440
1482.84592	0.94448
1480.79211	0.94441
1478.73831	0.94382
1476.68451	0.94271
1474.63070	0.94128
1472.57690	0.93758
1470.52310	0.93202
1468.46929	0.92771
1466.41549	0.92401
1464.36169	0.92076
1462.30788	0.91930
1460.25408	0.91899
1458.20028	0.91806
1456.14648	0.91654
1454.09267	0.91660
1452.03887	0.91730
1449.98507	0.91777
1447.93126	0.91798
1445.87746	0.91791
1443.82366	0.91740
1441.76985	0.91682
1439.71605	0.91675
1437.66225	0.91668
1435.60844	0.91646
1433.55464	0.91713
1431.50084	0.91812
1429.44703	0.91905
1427.39323	0.92028
1425.33943	0.92143
1423.28562	0.92188
1421.23182	0.92196
1419.17802	0.92196
1417.12421	0.92164
1415.07041	0.92179
1413.01661	0.92264
1410.96280	0.92347
1408.90900	0.92412
1406.85520	0.92517
1404.80139	0.92620
1402.74759	0.92654
1400.69379	0.92682
1398.63999	0.92738
1396.58618	0.92755
1394.53238	0.92724
1392.47858	0.92715
1390.42477	0.92699
1388.37097	0.92639
1386.31717	0.92568
1384.26336	0.92508
1382.20956	0.92461
1380.15576	0.92441
1378.10195	0.92394
1376.04815	0.92291
1373.99435	0.92228
1371.94054	0.92231
1369.88674	0.92196
1367.83294	0.92131
1365.77913	0.92113
1363.72533	0.92103
1361.67153	0.92055
1359.61772	0.92048
1357.56392	0.92082
1355.51012	0.92100
1353.45631	0.92131
1351.40251	0.92161
1349.34871	0.92118
1347.29491	0.92063
1345.24110	0.92073
1343.18730	0.92106
1341.13350	0.92117
1339.07969	0.92120
1337.02589	0.92133
1334.97209	0.92169
1332.91828	0.92230
1330.86448	0.92287
1328.81068	0.92298
1326.75687	0.92284
1324.70307	0.92275
1322.64927	0.92253
1320.59546	0.92227
1318.54166	0.92242
1316.48786	0.92273
1314.43405	0.92256
1312.38025	0.92221
1310.32645	0.92225
1308.27264	0.92217
1306.21884	0.92182
1304.16504	0.92173
1302.11123	0.92159
1300.05743	0.92128
1298.00363	0.92127
1295.94982	0.92113
1293.89602	0.92059
1291.84222	0.92020
1289.78842	0.91981
1287.73461	0.91893
1285.68081	0.91807
1283.62701	0.91735
1281.57320	0.91625
1279.51940	0.91502
1277.46560	0.91411
1275.41179	0.91314
1273.35799	0.91193
1271.30419	0.91108
1269.25038	0.91079
1267.19658	0.91058
1265.14278	0.91035
1263.08897	0.90997
1261.03517	0.90901
1258.98137	0.90771
1256.92756	0.90660
1254.87376	0.90561
1252.81996	0.90466
1250.76615	0.90398
1248.71235	0.90324
1246.65855	0.90232
1244.60474	0.90213
1242.55094	0.90263
1240.49714	0.90268
1238.44334	0.90237
1236.38953	0.90232
1234.33573	0.90198
1232.28193	0.90127
1230.22812	0.90116
1228.17432	0.90158
1226.12052	0.90164
1224.06671	0.90139
1222.01291	0.90118
1219.95911	0.90089
1217.90530	0.90077
1215.85150	0.90067
1213.79770	0.89994
1211.74389	0.89896
1209.69009	0.89853
1207.63629	0.89813
1205.58248	0.89706
1203.52868	0.89597
1201.47488	0.89497
1199.42107	0.89340
1197.36727	0.89177
1195.31347	0.89072
1193.25966	0.88946
1191.20586	0.88766
1189.15206	0.88584
1187.09825	0.88371
1185.04445	0.88114
1182.99065	0.87866
1180.93685	0.87601
1178.88304	0.87287
1176.82924	0.86970
1174.77544	0.86622
1172.72163	0.86180
1170.66783	0.85733
1168.61403	0.85379
1166.56022	0.85104
1164.50642	0.84930
1162.45262	0.84881
1160.39881	0.84860
1158.34501	0.84818
1156.29121	0.84836
1154.23740	0.84910
1152.18360	0.84912
1150.12980	0.84855
1148.07599	0.84840
1146.02219	0.84825
1143.96839	0.84797
1141.91458	0.84829
1139.86078	0.84853
1137.80698	0.84795
1135.75317	0.84723
1133.69937	0.84652
1131.64557	0.84509
1129.59176	0.84328
1127.53796	0.84154
1125.48416	0.83910
1123.43036	0.83582
1121.37655	0.83233
1119.32275	0.82829
1117.26895	0.82360
1115.21514	0.81915
1113.16134	0.81502
1111.10754	0.81112
1109.05373	0.80787
1106.99993	0.80456
1104.94613	0.80053
1102.89232	0.79709
1100.83852	0.79505
1098.78472	0.79322
1096.73091	0.79171
1094.67711	0.79194
1092.62331	0.79315
1090.56950	0.79380
1088.51570	0.79404
1086.46190	0.79400
1084.40809	0.79322
1082.35429	0.79233
1080.30049	0.79199
1078.24668	0.79130
1076.19288	0.78986
1074.13908	0.78834
1072.08528	0.78642
1070.03147	0.78385
1067.97767	0.78128
1065.92387	0.77870
1063.87006	0.77574
1061.81626	0.77252
1059.76246	0.76882
1057.70865	0.76437
1055.65485	0.75961
1053.60105	0.75485
1051.54724	0.74962
1049.49344	0.74378
1047.43964	0.73786
1045.38583	0.73183
1043.33203	0.72574
1041.27823	0.72012
1039.22442	0.71477
1037.17062	0.70937
1035.11682	0.70481
1033.06301	0.70161
1031.00921	0.69893
1028.95541	0.69687
1026.90160	0.69628
1024.84780	0.69641
1022.79400	0.69644
1020.74019	0.69674
1018.68639	0.69690
1016.63259	0.69615
1014.57879	0.69495
1012.52498	0.69339
1010.47118	0.69085
1008.41738	0.68832
1006.36357	0.68705
1004.30977	0.68632
1002.25597	0.68619
1000.20216	0.68813
998.14836	0.69179
996.09456	0.69579
994.04075	0.70049
991.98695	0.70612
989.93315	0.71141
987.87934	0.71653
985.82554	0.72242
983.77174	0.72828
981.71793	0.73369
979.66413	0.73957
977.61033	0.74574
975.55652	0.75133
973.50272	0.75688
971.44892	0.76266
969.39511	0.76781
967.34131	0.77243
965.28751	0.77719
963.23371	0.78133
961.17990	0.78471
959.12610	0.78862
957.07230	0.79254
955.01849	0.79544
952.96469	0.79826
950.91089	0.80149
948.85708	0.80439
946.80328	0.80722
944.74948	0.81015
942.69567	0.81157
940.64187	0.81182
938.58807	0.81334
936.53426	0.81576
934.48046	0.81749
932.42666	0.81892
930.37285	0.81968
928.31905	0.81920
926.26525	0.81916
924.21144	0.81991
922.15764	0.81905
920.10384	0.81637
918.05003	0.81401
915.99623	0.81210
913.94243	0.81007
911.88862	0.80946
909.83482	0.81098
907.78102	0.81336
905.72722	0.81677
903.67341	0.82174
901.61961	0.82645
899.56581	0.83005
897.51200	0.83381
895.45820	0.83723
893.40440	0.83998
891.35059	0.84315
889.29679	0.84563
887.24299	0.84640
885.18918	0.84797
883.13538	0.85116
881.08158	0.85325
879.02777	0.85437
876.97397	0.85634
874.92017	0.85792
872.86636	0.85868
870.81256	0.86050
868.75876	0.86281
866.70495	0.86429
864.65115	0.86585
862.59735	0.86736
860.54354	0.86813
858.48974	0.86944
856.43594	0.87185
854.38213	0.87361
852.32833	0.87439
850.27453	0.87557
848.22073	0.87662
846.16692	0.87638
844.11312	0.87555
842.05932	0.87416
840.00551	0.87083
837.95171	0.86685
835.89791	0.86465
833.84410	0.86361
831.79030	0.86353
829.73650	0.86515
827.68269	0.86667
825.62889	0.86740
823.57509	0.86913
821.52128	0.87043
819.46748	0.86926
817.41368	0.86840
815.35987	0.86934
813.30607	0.86948
811.25227	0.86930
809.19846	0.87008
807.14466	0.86978
805.09086	0.86861
803.03705	0.86842
800.98325	0.86802
798.92945	0.86637
796.87565	0.86586
794.82184	0.86673
792.76804	0.86622
790.71424	0.86532
788.66043	0.86575
786.60663	0.86592
784.55283	0.86574
782.49902	0.86667
780.44522	0.86691
778.39142	0.86522
776.33761	0.86458
774.28381	0.86551
772.23001	0.86536
770.17620	0.86504
768.12240	0.86584
766.06860	0.86553
764.01479	0.86423
761.96099	0.86374
759.90719	0.86293
757.85338	0.86164
755.79958	0.86137
753.74578	0.86078
751.69197	0.85905
749.63817	0.85862
747.58437	0.85895
745.53056	0.85760
743.47676	0.85665
741.42296	0.85789
739.36916	0.85838
737.31535	0.85728
735.26155	0.85729
733.20775	0.85791
731.15394	0.85671
729.10014	0.85509
727.04634	0.85453
724.99253	0.85287
722.93873	0.85088
720.88493	0.85122
718.83112	0.85204
716.77732	0.85227
714.72352	0.85357
712.66971	0.85390
710.61591	0.85191
708.56211	0.85065
706.50830	0.84977
704.45450	0.84703
702.40070	0.84441
700.34689	0.84278
698.29309	0.84020
696.23929	0.83778
694.18548	0.83742
692.13168	0.83700
690.07788	0.83534
688.02408	0.83521
685.97027	0.83597
683.91647	0.83452
681.86267	0.83311
679.80886	0.83365
677.75506	0.83275
675.70126	0.83053
673.64745	0.82987
671.59365	0.82898
669.53985	0.82762
667.48604	0.82939
665.43224	0.83082
663.37844	0.82986
661.32463	0.83019
659.27083	0.83253
657.21703	0.83339
655.16322	0.83319
653.10942	0.83426
651.05562	0.83367
649.00181	0.83138
646.94801	0.83200
644.89421	0.83320
642.84040	0.83155
640.78660	0.83122
638.73280	0.83271
636.67899	0.83137
634.62519	0.82917
632.57139	0.82950
630.51759	0.82925
628.46378	0.82795
626.40998	0.82879
624.35618	0.82844
622.30237	0.82499
620.24857	0.82349
618.19477	0.82357
616.14096	0.82189
614.08716	0.82175
612.03336	0.82266
609.97955	0.81826
607.92575	0.81201
605.87195	0.80979
603.81814	0.80765
601.76434	0.80442
599.71054	0.80456
597.65673	0.80496
595.60293	0.80269
593.54913	0.80357
591.49532	0.80658
589.44152	0.80477
587.38772	0.80206
585.33391	0.80309
583.28011	0.80207
581.22631	0.79772
579.17250	0.79702
577.11870	0.79709
575.06490	0.79243
573.01110	0.78957
570.95729	0.79048
568.90349	0.78771
566.84969	0.78428
564.79588	0.78531
562.74208	0.78308
560.68828	0.77666
558.63447	0.77459
556.58067	0.77426
554.52687	0.76951
552.47306	0.76538
550.41926	0.76337
548.36546	0.75759
546.31165	0.75171
544.25785	0.74908
542.20405	0.74299
540.15024	0.73542
538.09644	0.73293
536.04264	0.73074
533.98883	0.72633
531.93503	0.72517
529.88123	0.72468
527.82742	0.72062
525.77362	0.72011
523.71982	0.72429
521.66602	0.72385
519.61221	0.72201
517.55841	0.72650
515.50461	0.73050
513.45080	0.73134
511.39700	0.73672
509.34320	0.74230
507.28939	0.74075
505.23559	0.74069
503.18179	0.74543
501.12798	0.74627
499.07418	0.74695
497.02038	0.75152
494.96657	0.75129
492.91277	0.74785
490.85897	0.75048
488.80516	0.75171
486.75136	0.74420
484.69756	0.73946
482.64375	0.74074
480.58995	0.73449
478.53615	0.72379
476.48234	0.71795
474.42854	0.70880
472.37474	0.69450
470.32093	0.68805
468.26713	0.68492
466.21333	0.67823
464.15953	0.67737
462.10572	0.68280
460.05192	0.68326
457.99812	0.68247
455.94431	0.68952
453.89051	0.69470
451.83671	0.69677
449.78290	0.70418
447.72910	0.70979
445.67530	0.70713
443.62149	0.70689
441.56769	0.70688
439.51389	0.69982
437.46008	0.69866
435.40628	0.70352
433.35248	0.69947
431.29867	0.69506
429.24487	0.69897
427.19107	0.69625
425.13726	0.68682
423.08346	0.69106
421.02966	0.70037
418.97585	0.69324
416.92205	0.69323
414.86825	0.70545
412.81445	0.70707
410.76064	0.70565
408.70684	0.71785
406.65304	0.72701
404.59923	0.72334
402.54543	0.72648
400.49163	0.72899
398.43782	0.71526
