3996.70104	0.95225
3994.64724	0.95197
3992.59344	0.95194
3990.53964	0.95223
3988.48583	0.95276
3986.43203	0.95332
3984.37823	0.95338
3982.32442	0.95286
3980.27062	0.95240
3978.21682	0.95253
3976.16301	0.95308
3974.10921	0.95329
3972.05541	0.95291
3970.00160	0.95244
3967.94780	0.95242
3965.89400	0.95294
3963.84019	0.95337
3961.78639	0.95325
3959.73259	0.95303
3957.67878	0.95298
3955.62498	0.95299
3953.57118	0.95298
3951.51737	0.95296
3949.46357	0.95283
3947.40977	0.95271
3945.35596	0.95257
3943.30216	0.95206
3941.24836	0.95201
3939.19455	0.95294
3937.14075	0.95370
3935.08695	0.95376
3933.03315	0.95352
3930.97934	0.95333
3928.92554	0.95348
3926.87174	0.95362
3924.81793	0.95346
3922.76413	0.95321
3920.71033	0.95283
3918.65652	0.95263
3916.60272	0.95279
3914.54892	0.95301
3912.49511	0.95331
3910.44131	0.95385
3908.38751	0.95444
3906.33370	0.95467
3904.27990	0.95455
3902.22610	0.95446
3900.17229	0.95425
3898.11849	0.95393
3896.06469	0.95382
3894.01088	0.95382
3891.95708	0.95393
3889.90328	0.95406
3887.84947	0.95397
3885.79567	0.95379
3883.74187	0.95365
3881.68807	0.95341
3879.63426	0.95361
3877.58046	0.95450
3875.52666	0.95469
3873.47285	0.95410
3871.41905	0.95387
3869.36525	0.95379
3867.31144	0.95348
3865.25764	0.95301
3863.20384	0.95255
3861.15003	0.95273
3859.09623	0.95337
3857.04243	0.95382
3854.98862	0.95368
3852.93482	0.95316
3850.88102	0.95326
3848.82721	0.95325
3846.77341	0.95291
3844.71961	0.95307
3842.66580	0.95370
3840.61200	0.95417
3838.55820	0.95448
3836.50439	0.95452
3834.45059	0.95420
3832.39679	0.95405
3830.34298	0.95426
3828.28918	0.95443
3826.23538	0.95438
3824.18158	0.95433
3822.12777	0.95435
3820.07397	0.95431
3818.02017	0.95427
3815.96636	0.95392
3813.91256	0.95385
3811.85876	0.95442
3809.80495	0.95446
3807.75115	0.95365
3805.69735	0.95293
3803.64354	0.95258
3801.58974	0.95236
3799.53594	0.95313
3797.48213	0.95438
3795.42833	0.95483
3793.37453	0.95455
3791.32072	0.95453
3789.26692	0.95476
3787.21312	0.95472
3785.15931	0.95474
3783.10551	0.95506
3781.05171	0.95542
3778.99790	0.95555
3776.94410	0.95539
3774.89030	0.95508
3772.83650	0.95484
3770.78269	0.95516
3768.72889	0.95567
3766.67509	0.95536
3764.62128	0.95475
3762.56748	0.95446
3760.51368	0.95429
3758.45987	0.95437
3756.40607	0.95449
3754.35227	0.95455
3752.29846	0.95528
3750.24466	0.95620
3748.19086	0.95577
3746.13705	0.95486
3744.08325	0.95426
3742.02945	0.95445
3739.97564	0.95532
3737.92184	0.95569
3735.86804	0.95509
3733.81423	0.95517
3731.76043	0.95575
3729.70663	0.95589
3727.65282	0.95582
3725.59902	0.95556
3723.54522	0.95531
3721.49141	0.95496
3719.43761	0.95446
3717.38381	0.95425
3715.33001	0.95439
3713.27620	0.95437
3711.22240	0.95376
3709.16860	0.95281
3707.11479	0.95192
3705.06099	0.95142
3703.00719	0.95074
3700.95338	0.94940
3698.89958	0.94864
3696.84578	0.94850
3694.79197	0.94830
3692.73817	0.94853
3690.68437	0.94909
3688.63056	0.94930
3686.57676	0.94971
3684.52296	0.95014
3682.46915	0.95049
3680.41535	0.95089
3678.36155	0.95098
3676.30774	0.95050
3674.25394	0.94976
3672.20014	0.94950
3670.14633	0.94937
3668.09253	0.94894
3666.03873	0.94854
3663.98492	0.94835
3661.93112	0.94823
3659.87732	0.94793
3657.82352	0.94734
3655.76971	0.94676
3653.71591	0.94656
3651.66211	0.94650
3649.60830	0.94649
3647.55450	0.94633
3645.50070	0.94612
3643.44689	0.94621
3641.39309	0.94622
3639.33929	0.94573
3637.28548	0.94477
3635.23168	0.94399
3633.17788	0.94412
3631.12407	0.94498
3629.07027	0.94545
3627.01647	0.94489
3624.96266	0.94411
3622.90886	0.94317
3620.85506	0.94218
3618.80125	0.94149
3616.74745	0.94163
3614.69365	0.94242
3612.63984	0.94308
3610.58604	0.94365
3608.53224	0.94440
3606.47844	0.94480
3604.42463	0.94461
3602.37083	0.94408
3600.31703	0.94371
3598.26322	0.94384
3596.20942	0.94388
3594.15562	0.94340
3592.10181	0.94304
3590.04801	0.94297
3587.99421	0.94266
3585.94040	0.94259
3583.88660	0.94296
3581.83280	0.94321
3579.77899	0.94338
3577.72519	0.94318
3575.67139	0.94256
3573.61758	0.94233
3571.56378	0.94273
3569.50998	0.94348
3567.45617	0.94420
3565.40237	0.94392
3563.34857	0.94319
3561.29476	0.94262
3559.24096	0.94197
3557.18716	0.94162
3555.13335	0.94200
3553.07955	0.94248
3551.02575	0.94219
3548.97195	0.94171
3546.91814	0.94157
3544.86434	0.94107
3542.81054	0.94042
3540.75673	0.94036
3538.70293	0.94066
3536.64913	0.94085
3534.59532	0.94109
3532.54152	0.94133
3530.48772	0.94101
3528.43391	0.94014
3526.38011	0.93939
3524.32631	0.93918
3522.27250	0.93921
3520.21870	0.93945
3518.16490	0.93987
3516.11109	0.94007
3514.05729	0.93997
3512.00349	0.93980
3509.94968	0.93968
3507.89588	0.93977
3505.84208	0.94018
3503.78827	0.94027
3501.73447	0.93944
3499.68067	0.93872
3497.62687	0.93920
3495.57306	0.93984
3493.51926	0.93956
3491.46546	0.93909
3489.41165	0.93887
3487.35785	0.93872
3485.30405	0.93872
3483.25024	0.93889
3481.19644	0.93890
3479.14264	0.93839
3477.08883	0.93763
3475.03503	0.93747
3472.98123	0.93827
3470.92742	0.93889
3468.87362	0.93832
3466.81982	0.93744
3464.76601	0.93724
3462.71221	0.93725
3460.65841	0.93700
3458.60460	0.93636
3456.55080	0.93561
3454.49700	0.93557
3452.44319	0.93605
3450.38939	0.93622
3448.33559	0.93619
3446.28178	0.93638
3444.22798	0.93679
3442.17418	0.93671
3440.12038	0.93577
3438.06657	0.93484
3436.01277	0.93445
3433.95897	0.93479
3431.90516	0.93582
3429.85136	0.93634
3427.79756	0.93605
3425.74375	0.93594
3423.68995	0.93616
3421.63615	0.93635
3419.58234	0.93631
3417.52854	0.93593
3415.47474	0.93528
3413.42093	0.93479
3411.36713	0.93508
3409.31333	0.93570
3407.25952	0.93564
3405.20572	0.93504
3403.15192	0.93463
3401.09811	0.93456
3399.04431	0.93484
3396.99051	0.93534
3394.93670	0.93561
3392.88290	0.93540
3390.82910	0.93494
3388.77529	0.93475
3386.72149	0.93483
3384.66769	0.93476
3382.61389	0.93439
3380.56008	0.93394
3378.50628	0.93399
3376.45248	0.93436
3374.39867	0.93476
3372.34487	0.93510
3370.29107	0.93477
3368.23726	0.93419
3366.18346	0.93421
3364.12966	0.93453
3362.07585	0.93496
3360.02205	0.93546
3357.96825	0.93574
3355.91444	0.93559
3353.86064	0.93523
3351.80684	0.93508
3349.75303	0.93505
3347.69923	0.93489
3345.64543	0.93463
3343.59162	0.93461
3341.53782	0.93491
3339.48402	0.93503
3337.43021	0.93481
3335.37641	0.93458
3333.32261	0.93475
3331.26881	0.93556
3329.21500	0.93625
3327.16120	0.93615
3325.10740	0.93585
3323.05359	0.93583
3320.99979	0.93605
3318.94599	0.93644
3316.89218	0.93675
3314.83838	0.93664
3312.78458	0.93629
3310.73077	0.93611
3308.67697	0.93603
3306.62317	0.93582
3304.56936	0.93573
3302.51556	0.93601
3300.46176	0.93623
3298.40795	0.93632
3296.35415	0.93682
3294.30035	0.93739
3292.24654	0.93730
3290.19274	0.93682
3288.13894	0.93643
3286.08513	0.93642
3284.03133	0.93674
3281.97753	0.93691
3279.92372	0.93704
3277.86992	0.93770
3275.81612	0.93859
3273.76232	0.93882
3271.70851	0.93840
3269.65471	0.93776
3267.60091	0.93738
3265.54710	0.93768
3263.49330	0.93815
3261.43950	0.93806
3259.38569	0.93765
3257.33189	0.93740
3255.27809	0.93722
3253.22428	0.93734
3251.17048	0.93811
3249.11668	0.93871
3247.06287	0.93839
3245.00907	0.93813
3242.95527	0.93850
3240.90146	0.93885
3238.84766	0.93903
3236.79386	0.93921
3234.74005	0.93947
3232.68625	0.93947
3230.63245	0.93930
3228.57864	0.93946
3226.52484	0.93963
3224.47104	0.93977
3222.41724	0.94005
3220.36343	0.94011
3218.30963	0.93983
3216.25583	0.93938
3214.20202	0.93917
3212.14822	0.93954
3210.09442	0.93998
3208.04061	0.94020
3205.98681	0.94070
3203.93301	0.94161
3201.87920	0.94244
3199.82540	0.94264
3197.77160	0.94240
3195.71779	0.94215
3193.66399	0.94189
3191.61019	0.94172
3189.55638	0.94180
3187.50258	0.94213
3185.44878	0.94259
3183.39497	0.94299
3181.34117	0.94317
3179.28737	0.94291
3177.23356	0.94255
3175.17976	0.94268
3173.12596	0.94287
3171.07215	0.94264
3169.01835	0.94249
3166.96455	0.94285
3164.91075	0.94338
3162.85694	0.94375
3160.80314	0.94388
3158.74934	0.94404
3156.69553	0.94434
3154.64173	0.94448
3152.58793	0.94439
3150.53412	0.94437
3148.48032	0.94468
3146.42652	0.94521
3144.37271	0.94580
3142.31891	0.94617
3140.26511	0.94604
3138.21130	0.94610
3136.15750	0.94634
3134.10370	0.94612
3132.04989	0.94576
3129.99609	0.94560
3127.94229	0.94605
3125.88848	0.94698
3123.83468	0.94724
3121.78088	0.94692
3119.72707	0.94677
3117.67327	0.94658
3115.61947	0.94633
3113.56566	0.94579
3111.51186	0.94470
3109.45806	0.94393
3107.40426	0.94399
3105.35045	0.94405
3103.29665	0.94370
3101.24285	0.94354
3099.18904	0.94391
3097.13524	0.94445
3095.08144	0.94465
3093.02763	0.94429
3090.97383	0.94312
3088.92003	0.94091
3086.86622	0.93823
3084.81242	0.93588
3082.75862	0.93432
3080.70481	0.93410
3078.65101	0.93530
3076.59721	0.93711
3074.54340	0.93850
3072.48960	0.93922
3070.43580	0.93906
3068.38199	0.93771
3066.32819	0.93545
3064.27439	0.93281
3062.22058	0.93040
3060.16678	0.92875
3058.11298	0.92872
3056.05918	0.93060
3054.00537	0.93311
3051.95157	0.93511
3049.89777	0.93684
3047.84396	0.93842
3045.79016	0.93935
3043.73636	0.93958
3041.68255	0.93935
3039.62875	0.93834
3037.57495	0.93622
3035.52114	0.93323
3033.46734	0.92884
3031.41354	0.92244
3029.35973	0.91505
3027.30593	0.90892
3025.25213	0.90624
3023.19832	0.90832
3021.14452	0.91452
3019.09072	0.92228
3017.03691	0.92901
3014.98311	0.93364
3012.92931	0.93675
3010.87550	0.93898
3008.82170	0.94017
3006.76790	0.94038
3004.71409	0.94007
3002.66029	0.93959
3000.60649	0.93933
2998.55269	0.93987
2996.49888	0.94145
2994.44508	0.94364
2992.39128	0.94551
2990.33747	0.94624
2988.28367	0.94629
2986.22987	0.94679
2984.17606	0.94766
2982.12226	0.94797
2980.06846	0.94772
2978.01465	0.94756
2975.96085	0.94743
2973.90705	0.94717
2971.85324	0.94703
2969.79944	0.94697
2967.74564	0.94670
2965.69183	0.94633
2963.63803	0.94605
2961.58423	0.94536
2959.53042	0.94420
2957.47662	0.94350
2955.42282	0.94322
2953.36901	0.94241
2951.31521	0.94080
2949.26141	0.93876
2947.20761	0.93684
2945.15380	0.93515
2943.10000	0.93299
2941.04620	0.93021
2938.99239	0.92718
2936.93859	0.92372
2934.88479	0.91982
2932.83098	0.91589
2930.77718	0.91209
2928.72338	0.90835
2926.66957	0.90504
2924.61577	0.90232
2922.56197	0.90024
2920.50816	0.89921
2918.45436	0.89930
2916.40056	0.90030
2914.34675	0.90194
2912.29295	0.90391
2910.23915	0.90618
2908.18534	0.90869
2906.13154	0.91151
2904.07774	0.91472
2902.02393	0.91781
2899.97013	0.92060
2897.91633	0.92344
2895.86252	0.92614
2893.80872	0.92803
2891.75492	0.92913
2889.70112	0.93016
2887.64731	0.93117
2885.59351	0.93227
2883.53971	0.93383
2881.48590	0.93523
2879.43210	0.93597
2877.37830	0.93646
2875.32449	0.93690
2873.27069	0.93730
2871.21689	0.93769
2869.16308	0.93806
2867.10928	0.93829
2865.05548	0.93805
2863.00167	0.93738
2860.94787	0.93638
2858.89407	0.93497
2856.84026	0.93330
2854.78646	0.93171
2852.73266	0.93036
2850.67885	0.92927
2848.62505	0.92852
2846.57125	0.92847
2844.51744	0.92972
2842.46364	0.93226
2840.40984	0.93522
2838.35603	0.93793
2836.30223	0.94016
2834.24843	0.94182
2832.19463	0.94327
2830.14082	0.94483
2828.08702	0.94623
2826.03322	0.94723
2823.97941	0.94775
2821.92561	0.94800
2819.87181	0.94821
2817.81800	0.94832
2815.76420	0.94856
2813.71040	0.94892
2811.65659	0.94889
2809.60279	0.94867
2807.54899	0.94890
2805.49518	0.94919
2803.44138	0.94913
2801.38758	0.94917
2799.33377	0.94942
2797.27997	0.94963
2795.22617	0.94975
2793.17236	0.94980
2791.11856	0.94996
2789.06476	0.95026
2787.01095	0.95043
2784.95715	0.95046
2782.90335	0.95044
2780.84955	0.95052
2778.79574	0.95077
2776.74194	0.95091
2774.68814	0.95103
2772.63433	0.95131
2770.58053	0.95145
2768.52673	0.95143
2766.47292	0.95147
2764.41912	0.95176
2762.36532	0.95225
2760.31151	0.95253
2758.25771	0.95244
2756.20391	0.95203
2754.15010	0.95164
2752.09630	0.95177
2750.04250	0.95222
2747.98869	0.95261
2745.93489	0.95290
2743.88109	0.95263
2741.82728	0.95196
2739.77348	0.95162
2737.71968	0.95160
2735.66587	0.95173
2733.61207	0.95203
2731.55827	0.95223
2729.50446	0.95222
2727.45066	0.95226
2725.39686	0.95228
2723.34306	0.95221
2721.28925	0.95239
2719.23545	0.95266
2717.18165	0.95246
2715.12784	0.95198
2713.07404	0.95198
2711.02024	0.95259
2708.96643	0.95323
2706.91263	0.95337
2704.85883	0.95286
2702.80502	0.95243
2700.75122	0.95275
2698.69742	0.95331
2696.64361	0.95322
2694.58981	0.95279
2692.53601	0.95285
2690.48220	0.95316
2688.42840	0.95337
2686.37460	0.95373
2684.32079	0.95416
2682.26699	0.95424
2680.21319	0.95400
2678.15938	0.95374
2676.10558	0.95340
2674.05178	0.95299
2671.99797	0.95301
2669.94417	0.95344
2667.89037	0.95366
2665.83657	0.95359
2663.78276	0.95338
2661.72896	0.95301
2659.67516	0.95291
2657.62135	0.95328
2655.56755	0.95350
2653.51375	0.95332
2651.45994	0.95325
2649.40614	0.95357
2647.35234	0.95386
2645.29853	0.95380
2643.24473	0.95372
2641.19093	0.95375
2639.13712	0.95351
2637.08332	0.95301
2635.02952	0.95293
2632.97571	0.95342
2630.92191	0.95370
2628.86811	0.95360
2626.81430	0.95390
2624.76050	0.95467
2622.70670	0.95527
2620.65289	0.95556
2618.59909	0.95539
2616.54529	0.95516
2614.49149	0.95539
2612.43768	0.95543
2610.38388	0.95517
2608.33008	0.95520
2606.27627	0.95511
2604.22247	0.95453
2602.16867	0.95398
2600.11486	0.95392
2598.06106	0.95447
2596.00726	0.95518
2593.95345	0.95547
2591.89965	0.95530
2589.84585	0.95521
2587.79204	0.95583
2585.73824	0.95654
2583.68444	0.95638
2581.63063	0.95568
2579.57683	0.95521
2577.52303	0.95524
2575.46922	0.95553
2573.41542	0.95556
2571.36162	0.95542
2569.30781	0.95569
2567.25401	0.95608
2565.20021	0.95590
2563.14640	0.95582
2561.09260	0.95620
2559.03880	0.95623
2556.98500	0.95588
2554.93119	0.95558
2552.87739	0.95547
2550.82359	0.95571
2548.76978	0.95591
2546.71598	0.95586
2544.66218	0.95616
2542.60837	0.95663
2540.55457	0.95672
2538.50077	0.95653
2536.44696	0.95612
2534.39316	0.95592
2532.33936	0.95653
2530.28555	0.95746
2528.23175	0.95772
2526.17795	0.95743
2524.12414	0.95709
2522.07034	0.95662
2520.01654	0.95661
2517.96273	0.95722
2515.90893	0.95750
2513.85513	0.95750
2511.80132	0.95754
2509.74752	0.95739
2507.69372	0.95714
2505.63992	0.95700
2503.58611	0.95690
2501.53231	0.95667
2499.47851	0.95657
2497.42470	0.95717
2495.37090	0.95796
2493.31710	0.95841
2491.26329	0.95855
2489.20949	0.95818
2487.15569	0.95780
2485.10188	0.95781
2483.04808	0.95763
2480.99428	0.95706
2478.94047	0.95665
2476.88667	0.95684
2474.83287	0.95735
2472.77906	0.95733
2470.72526	0.95702
2468.67146	0.95718
2466.61765	0.95729
2464.56385	0.95714
2462.51005	0.95726
2460.45624	0.95746
2458.40244	0.95778
2456.34864	0.95819
2454.29483	0.95815
2452.24103	0.95772
2450.18723	0.95753
2448.13343	0.95785
2446.07962	0.95833
2444.02582	0.95869
2441.97202	0.95921
2439.91821	0.95939
2437.86441	0.95856
2435.81061	0.95766
2433.75680	0.95768
2431.70300	0.95839
2429.64920	0.95886
2427.59539	0.95847
2425.54159	0.95801
2423.48779	0.95851
2421.43398	0.95939
2419.38018	0.95959
2417.32638	0.95896
2415.27257	0.95829
2413.21877	0.95816
2411.16497	0.95818
2409.11116	0.95832
2407.05736	0.95884
2405.00356	0.95950
2402.94975	0.95973
2400.89595	0.95945
2398.84215	0.95917
2396.78834	0.95910
2394.73454	0.95900
2392.68074	0.95875
2390.62694	0.95850
2388.57313	0.95845
2386.51933	0.95907
2384.46553	0.96004
2382.41172	0.96042
2380.35792	0.96022
2378.30412	0.95980
2376.25031	0.95920
2374.19651	0.95855
2372.14271	0.95803
2370.08890	0.95818
2368.03510	0.95939
2365.98130	0.95955
2363.92749	0.95805
2361.87369	0.95754
2359.81989	0.95763
2357.76608	0.95703
2355.71228	0.95725
2353.65848	0.95818
2351.60467	0.95890
2349.55087	0.95945
2347.49707	0.95970
2345.44326	0.95985
2343.38946	0.95981
2341.33566	0.95905
2339.28186	0.95789
2337.22805	0.95707
2335.17425	0.95664
2333.12045	0.95656
2331.06664	0.95728
2329.01284	0.95803
2326.95904	0.95745
2324.90523	0.95589
2322.85143	0.95526
2320.79763	0.95625
2318.74382	0.95723
2316.69002	0.95760
2314.63622	0.95822
2312.58241	0.95884
2310.52861	0.95858
2308.47481	0.95798
2306.42100	0.95784
2304.36720	0.95805
2302.31340	0.95829
2300.25959	0.95814
2298.20579	0.95759
2296.15199	0.95761
2294.09818	0.95822
2292.04438	0.95804
2289.99058	0.95745
2287.93677	0.95766
2285.88297	0.95806
2283.82917	0.95813
2281.77537	0.95807
2279.72156	0.95835
2277.66776	0.95929
2275.61396	0.95989
2273.56015	0.96013
2271.50635	0.96045
2269.45255	0.96045
2267.39874	0.96028
2265.34494	0.96043
2263.29114	0.96020
2261.23733	0.95912
2259.18353	0.95852
2257.12973	0.95910
2255.07592	0.96000
2253.02212	0.95992
2250.96832	0.95931
2248.91451	0.95948
2246.86071	0.96016
2244.80691	0.96032
2242.75310	0.95945
2240.69930	0.95848
2238.64550	0.95858
2236.59169	0.95942
2234.53789	0.96009
2232.48409	0.96070
2230.43029	0.96116
2228.37648	0.96131
2226.32268	0.96119
2224.26888	0.96046
2222.21507	0.95929
2220.16127	0.95831
2218.10747	0.95816
2216.05366	0.95883
2213.99986	0.95960
2211.94606	0.95936
2209.89225	0.95879
2207.83845	0.95896
2205.78465	0.95918
2203.73084	0.95977
2201.67704	0.96136
2199.62324	0.96248
2197.56943	0.96187
2195.51563	0.96144
2193.46183	0.96242
2191.40802	0.96286
2189.35422	0.96164
2187.30042	0.96094
2185.24661	0.96274
2183.19281	0.96502
2181.13901	0.96533
2179.08520	0.96397
2177.03140	0.96279
2174.97760	0.96268
2172.92380	0.96298
2170.86999	0.96323
2168.81619	0.96230
2166.76239	0.96029
2164.70858	0.96000
2162.65478	0.96163
2160.60098	0.96361
2158.54717	0.96798
2156.49337	0.97274
2154.43957	0.97164
2152.38576	0.96735
2150.33196	0.96493
2148.27816	0.96339
2146.22435	0.96110
2144.17055	0.96010
2142.11675	0.96259
2140.06294	0.96568
2138.00914	0.96598
2135.95534	0.96560
2133.90153	0.96637
2131.84773	0.96644
2129.79393	0.96540
2127.74012	0.96463
2125.68632	0.96437
2123.63252	0.96419
2121.57871	0.96364
2119.52491	0.96253
2117.47111	0.96160
2115.41731	0.96158
2113.36350	0.96228
2111.30970	0.96322
2109.25590	0.96330
2107.20209	0.96171
2105.14829	0.96023
2103.09449	0.96031
2101.04068	0.96069
2098.98688	0.96084
2096.93308	0.96174
2094.87927	0.96316
2092.82547	0.96444
2090.77167	0.96511
2088.71786	0.96512
2086.66406	0.96510
2084.61026	0.96499
2082.55645	0.96466
2080.50265	0.96389
2078.44885	0.96294
2076.39504	0.96278
2074.34124	0.96276
2072.28744	0.96211
2070.23363	0.96174
2068.17983	0.96244
2066.12603	0.96380
2064.07223	0.96475
2062.01842	0.96536
2059.96462	0.96641
2057.91082	0.96652
2055.85701	0.96467
2053.80321	0.96282
2051.74941	0.96225
2049.69560	0.96241
2047.64180	0.96134
2045.58800	0.95897
2043.53419	0.95947
2041.48039	0.96191
2039.42659	0.96229
2037.37278	0.96250
2035.31898	0.96383
2033.26518	0.96343
2031.21137	0.96157
2029.15757	0.96047
2027.10377	0.96008
2025.04996	0.96113
2022.99616	0.96254
2020.94236	0.96278
2018.88855	0.96418
2016.83475	0.96740
2014.78095	0.97006
2012.72714	0.97058
2010.67334	0.96948
2008.61954	0.96833
2006.56574	0.96736
2004.51193	0.96595
2002.45813	0.96572
2000.40433	0.96728
1998.35052	0.96755
1996.29672	0.96596
1994.24292	0.96415
1992.18911	0.96269
1990.13531	0.96273
1988.08151	0.96347
1986.02770	0.96352
1983.97390	0.96444
1981.92010	0.96544
1979.86629	0.96382
1977.81249	0.96165
1975.75869	0.96324
1973.70488	0.96696
1971.65108	0.96787
1969.59728	0.96635
1967.54347	0.96564
1965.48967	0.96519
1963.43587	0.96311
1961.38206	0.96192
1959.32826	0.96230
1957.27446	0.96199
1955.22066	0.96166
1953.16685	0.96122
1951.11305	0.96060
1949.05925	0.95990
1947.00544	0.95869
1944.95164	0.95884
1942.89784	0.96058
1940.84403	0.96186
1938.79023	0.96204
1936.73643	0.96111
1934.68262	0.95999
1932.62882	0.96028
1930.57502	0.96166
1928.52121	0.96315
1926.46741	0.96422
1924.41361	0.96460
1922.35980	0.96423
1920.30600	0.96350
1918.25220	0.96380
1916.19839	0.96458
1914.14459	0.96451
1912.09079	0.96433
1910.03698	0.96430
1907.98318	0.96398
1905.92938	0.96327
1903.87557	0.96263
1901.82177	0.96236
1899.76797	0.96266
1897.71417	0.96415
1895.66036	0.96560
1893.60656	0.96517
1891.55276	0.96355
1889.49895	0.96246
1887.44515	0.96191
1885.39135	0.96081
1883.33754	0.95987
1881.28374	0.96006
1879.22994	0.96075
1877.17613	0.96100
1875.12233	0.96060
1873.06853	0.95989
1871.01472	0.95939
1868.96092	0.95923
1866.90712	0.95933
1864.85331	0.95989
1862.79951	0.96063
1860.74571	0.96091
1858.69190	0.96102
1856.63810	0.96156
1854.58430	0.96243
1852.53049	0.96332
1850.47669	0.96389
1848.42289	0.96403
1846.36908	0.96412
1844.31528	0.96428
1842.26148	0.96438
1840.20768	0.96460
1838.15387	0.96459
1836.10007	0.96453
1834.04627	0.96522
1831.99246	0.96596
1829.93866	0.96557
1827.88486	0.96475
1825.83105	0.96448
1823.77725	0.96423
1821.72345	0.96371
1819.66964	0.96343
1817.61584	0.96312
1815.56204	0.96234
1813.50823	0.96172
1811.45443	0.96125
1809.40063	0.96047
1807.34682	0.96005
1805.29302	0.96008
1803.23922	0.95985
1801.18541	0.95922
1799.13161	0.95907
1797.07781	0.95980
1795.02400	0.96063
1792.97020	0.96106
1790.91640	0.96130
1788.86260	0.96152
1786.80879	0.96182
1784.75499	0.96223
1782.70119	0.96271
1780.64738	0.96333
1778.59358	0.96355
1776.53978	0.96315
1774.48597	0.96290
1772.43217	0.96329
1770.37837	0.96365
1768.32456	0.96351
1766.27076	0.96329
1764.21696	0.96307
1762.16315	0.96268
1760.10935	0.96238
1758.05555	0.96228
1756.00174	0.96196
1753.94794	0.96156
1751.89414	0.96101
1749.84033	0.96017
1747.78653	0.95999
1745.73273	0.96050
1743.67892	0.96090
1741.62512	0.96087
1739.57132	0.96049
1737.51751	0.95995
1735.46371	0.95950
1733.40991	0.95964
1731.35611	0.95990
1729.30230	0.95950
1727.24850	0.95894
1725.19470	0.95848
1723.14089	0.95819
1721.08709	0.95824
1719.03329	0.95814
1716.97948	0.95797
1714.92568	0.95844
1712.87188	0.95907
1710.81807	0.95957
1708.76427	0.96001
1706.71047	0.96008
1704.65666	0.95981
1702.60286	0.95952
1700.54906	0.95892
1698.49525	0.95811
1696.44145	0.95721
1694.38765	0.95621
1692.33384	0.95572
1690.28004	0.95543
1688.22624	0.95501
1686.17243	0.95447
1684.11863	0.95315
1682.06483	0.95144
1680.01103	0.95055
1677.95722	0.95026
1675.90342	0.94987
1673.84962	0.94884
1671.79581	0.94792
1669.74201	0.94744
1667.68821	0.94691
1665.63440	0.94613
1663.58060	0.94540
1661.52680	0.94499
1659.47299	0.94491
1657.41919	0.94478
1655.36539	0.94428
1653.31158	0.94340
1651.25778	0.94316
1649.20398	0.94333
1647.15017	0.94342
1645.09637	0.94374
1643.04257	0.94415
1640.98876	0.94446
1638.93496	0.94469
1636.88116	0.94448
1634.82735	0.94370
1632.77355	0.94346
1630.71975	0.94366
1628.66594	0.94383
1626.61214	0.94392
1624.55834	0.94383
1622.50454	0.94374
1620.45073	0.94410
1618.39693	0.94452
1616.34313	0.94439
1614.28932	0.94372
1612.23552	0.94262
1610.18172	0.94048
1608.12791	0.93610
1606.07411	0.92884
1604.02031	0.92032
1601.96650	0.91447
1599.91270	0.91474
1597.85890	0.92028
1595.80509	0.92735
1593.75129	0.93297
1591.69749	0.93660
1589.64368	0.93852
1587.58988	0.93854
1585.53608	0.93722
1583.48227	0.93626
1581.42847	0.93738
1579.37467	0.94018
1577.32086	0.94326
1575.26706	0.94585
1573.21326	0.94728
1571.15945	0.94792
1569.10565	0.94854
1567.05185	0.94935
1564.99805	0.94975
1562.94424	0.94963
1560.89044	0.94934
1558.83664	0.94907
1556.78283	0.94923
1554.72903	0.94938
1552.67523	0.94939
1550.62142	0.94948
1548.56762	0.94963
1546.51382	0.94970
1544.46001	0.94957
1542.40621	0.94916
1540.35241	0.94807
1538.29860	0.94762
1536.24480	0.94849
1534.19100	0.94937
1532.13719	0.94976
1530.08339	0.95023
1528.02959	0.95120
1525.97578	0.95180
1523.92198	0.95149
1521.86818	0.95104
1519.81437	0.95082
1517.76057	0.95061
1515.70677	0.95053
1513.65297	0.95072
1511.59916	0.95090
1509.54536	0.95093
1507.49156	0.95067
1505.43775	0.94942
1503.38395	0.94770
1501.33015	0.94473
1499.27634	0.93643
1497.22254	0.91418
1495.16874	0.88211
1493.11493	0.86344
1491.06113	0.86865
1489.00733	0.89328
1486.95352	0.91468
1484.89972	0.92557
1482.84592	0.93204
1480.79211	0.93633
1478.73831	0.93861
1476.68451	0.93975
1474.63070	0.94049
1472.57690	0.94082
1470.52310	0.94110
1468.46929	0.94159
1466.41549	0.94180
1464.36169	0.94117
1462.30788	0.94004
1460.25408	0.93790
1458.20028	0.92750
1456.14648	0.89820
1454.09267	0.87093
1452.03887	0.85981
1449.98507	0.86406
1447.93126	0.87743
1445.87746	0.89046
1443.82366	0.90045
1441.76985	0.90887
1439.71605	0.91557
1437.66225	0.92131
1435.60844	0.92687
1433.55464	0.93102
1431.50084	0.93424
1429.44703	0.93694
1427.39323	0.93888
1425.33943	0.94039
1423.28562	0.94167
1421.23182	0.94262
1419.17802	0.94341
1417.12421	0.94420
1415.07041	0.94489
1413.01661	0.94538
1410.96280	0.94583
1408.90900	0.94651
1406.85520	0.94734
1404.80139	0.94809
1402.74759	0.94855
1400.69379	0.94888
1398.63999	0.94916
1396.58618	0.94925
1394.53238	0.94923
1392.47858	0.94899
1390.42477	0.94820
1388.37097	0.94690
1386.31717	0.94540
1384.26336	0.94417
1382.20956	0.94322
1380.15576	0.94228
1378.10195	0.94140
1376.04815	0.94058
1373.99435	0.93991
1371.94054	0.93992
1369.88674	0.94040
1367.83294	0.94071
1365.77913	0.94069
1363.72533	0.94078
1361.67153	0.94150
1359.61772	0.94252
1357.56392	0.94328
1355.51012	0.94374
1353.45631	0.94408
1351.40251	0.94437
1349.34871	0.94462
1347.29491	0.94484
1345.24110	0.94506
1343.18730	0.94547
1341.13350	0.94626
1339.07969	0.94709
1337.02589	0.94736
1334.97209	0.94706
1332.91828	0.94653
1330.86448	0.94600
1328.81068	0.94569
1326.75687	0.94563
1324.70307	0.94596
1322.64927	0.94659
1320.59546	0.94698
1318.54166	0.94692
1316.48786	0.94671
1314.43405	0.94648
1312.38025	0.94651
1310.32645	0.94694
1308.27264	0.94742
1306.21884	0.94789
1304.16504	0.94834
1302.11123	0.94865
1300.05743	0.94894
1298.00363	0.94936
1295.94982	0.94968
1293.89602	0.94962
1291.84222	0.94947
1289.78842	0.94954
1287.73461	0.94976
1285.68081	0.94984
1283.62701	0.94943
1281.57320	0.94875
1279.51940	0.94835
1277.46560	0.94818
1275.41179	0.94805
1273.35799	0.94800
1271.30419	0.94803
1269.25038	0.94801
1267.19658	0.94786
1265.14278	0.94792
1263.08897	0.94849
1261.03517	0.94918
1258.98137	0.94949
1256.92756	0.94941
1254.87376	0.94926
1252.81996	0.94918
1250.76615	0.94928
1248.71235	0.94948
1246.65855	0.94940
1244.60474	0.94900
1242.55094	0.94864
1240.49714	0.94838
1238.44334	0.94806
1236.38953	0.94786
1234.33573	0.94800
1232.28193	0.94809
1230.22812	0.94792
1228.17432	0.94759
1226.12052	0.94703
1224.06671	0.94636
1222.01291	0.94580
1219.95911	0.94533
1217.90530	0.94462
1215.85150	0.94345
1213.79770	0.94211
1211.74389	0.94095
1209.69009	0.93987
1207.63629	0.93869
1205.58248	0.93725
1203.52868	0.93532
1201.47488	0.93318
1199.42107	0.93118
1197.36727	0.92934
1195.31347	0.92763
1193.25966	0.92596
1191.20586	0.92421
1189.15206	0.92228
1187.09825	0.91978
1185.04445	0.91648
1182.99065	0.91302
1180.93685	0.91055
1178.88304	0.90982
1176.82924	0.91010
1174.77544	0.90992
1172.72163	0.90876
1170.66783	0.90694
1168.61403	0.90487
1166.56022	0.90302
1164.50642	0.90186
1162.45262	0.90103
1160.39881	0.89947
1158.34501	0.89696
1156.29121	0.89440
1154.23740	0.89277
1152.18360	0.89246
1150.12980	0.89315
1148.07599	0.89389
1146.02219	0.89382
1143.96839	0.89326
1141.91458	0.89253
1139.86078	0.89136
1137.80698	0.88991
1135.75317	0.88867
1133.69937	0.88752
1131.64557	0.88598
1129.59176	0.88412
1127.53796	0.88200
1125.48416	0.87937
1123.43036	0.87607
1121.37655	0.87233
1119.32275	0.86865
1117.26895	0.86499
1115.21514	0.86100
1113.16134	0.85707
1111.10754	0.85378
1109.05373	0.85106
1106.99993	0.84843
1104.94613	0.84577
1102.89232	0.84341
1100.83852	0.84140
1098.78472	0.83939
1096.73091	0.83748
1094.67711	0.83594
1092.62331	0.83458
1090.56950	0.83328
1088.51570	0.83218
1086.46190	0.83109
1084.40809	0.82949
1082.35429	0.82735
1080.30049	0.82526
1078.24668	0.82342
1076.19288	0.82121
1074.13908	0.81818
1072.08528	0.81484
1070.03147	0.81187
1067.97767	0.80953
1065.92387	0.80808
1063.87006	0.80703
1061.81626	0.80543
1059.76246	0.80316
1057.70865	0.80082
1055.65485	0.79876
1053.60105	0.79632
1051.54724	0.79310
1049.49344	0.78957
1047.43964	0.78570
1045.38583	0.78118
1043.33203	0.77606
1041.27823	0.77047
1039.22442	0.76457
1037.17062	0.75838
1035.11682	0.75103
1033.06301	0.74219
1031.00921	0.73350
1028.95541	0.72713
1026.90160	0.72465
1024.84780	0.72588
1022.79400	0.72848
1020.74019	0.73046
1018.68639	0.73196
1016.63259	0.73316
1014.57879	0.73341
1012.52498	0.73309
1010.47118	0.73304
1008.41738	0.73287
1006.36357	0.73248
1004.30977	0.73277
1002.25597	0.73477
1000.20216	0.73872
998.14836	0.74329
996.09456	0.74751
994.04075	0.75205
991.98695	0.75694
989.93315	0.76154
987.87934	0.76609
985.82554	0.77091
983.77174	0.77580
981.71793	0.78089
979.66413	0.78684
977.61033	0.79362
975.55652	0.80036
973.50272	0.80665
971.44892	0.81258
969.39511	0.81798
967.34131	0.82273
965.28751	0.82712
963.23371	0.83162
961.17990	0.83679
959.12610	0.84210
957.07230	0.84652
955.01849	0.85015
952.96469	0.85329
950.91089	0.85606
948.85708	0.85822
946.80328	0.85972
944.74948	0.86141
942.69567	0.86324
940.64187	0.86477
938.58807	0.86660
936.53426	0.86875
934.48046	0.87064
932.42666	0.87275
930.37285	0.87523
928.31905	0.87726
926.26525	0.87860
924.21144	0.87925
922.15764	0.87921
920.10384	0.87891
918.05003	0.87779
915.99623	0.87527
913.94243	0.87214
911.88862	0.86927
909.83482	0.86705
907.78102	0.86605
905.72722	0.86750
903.67341	0.87187
901.61961	0.87829
899.56581	0.88553
897.51200	0.89214
895.45820	0.89715
893.40440	0.90088
891.35059	0.90390
889.29679	0.90608
887.24299	0.90798
885.18918	0.91008
883.13538	0.91176
881.08158	0.91277
879.02777	0.91356
876.97397	0.91447
874.92017	0.91582
872.86636	0.91780
870.81256	0.91976
868.75876	0.92155
866.70495	0.92309
864.65115	0.92337
862.59735	0.92296
860.54354	0.92374
858.48974	0.92567
856.43594	0.92736
854.38213	0.92855
852.32833	0.92934
850.27453	0.92952
848.22073	0.92882
846.16692	0.92751
844.11312	0.92609
842.05932	0.92484
840.00551	0.92418
837.95171	0.92447
835.89791	0.92546
833.84410	0.92635
831.79030	0.92704
829.73650	0.92765
827.68269	0.92850
825.62889	0.92972
823.57509	0.93018
821.52128	0.92959
819.46748	0.92949
817.41368	0.93012
815.35987	0.93014
813.30607	0.92912
811.25227	0.92698
809.19846	0.92384
807.14466	0.92004
805.09086	0.91540
803.03705	0.91033
800.98325	0.90588
798.92945	0.90346
796.87565	0.90333
794.82184	0.90395
792.76804	0.90426
790.71424	0.90412
788.66043	0.90331
786.60663	0.90194
784.55283	0.89962
782.49902	0.89552
780.44522	0.89054
778.39142	0.88602
776.33761	0.88108
774.28381	0.87447
772.23001	0.86656
770.17620	0.85759
768.12240	0.84710
766.06860	0.83559
764.01479	0.82352
761.96099	0.81074
759.90719	0.79873
757.85338	0.78999
755.79958	0.78540
753.74578	0.78447
751.69197	0.78629
749.63817	0.78946
747.58437	0.79481
745.53056	0.80506
743.47676	0.81993
741.42296	0.83617
739.36916	0.85127
737.31535	0.86447
735.26155	0.87612
733.20775	0.88595
731.15394	0.89353
729.10014	0.89966
727.04634	0.90478
724.99253	0.90843
722.93873	0.91062
720.88493	0.91192
718.83112	0.91249
716.77732	0.91211
714.72352	0.91013
712.66971	0.90451
710.61591	0.89204
708.56211	0.86795
706.50830	0.82787
704.45450	0.77089
702.40070	0.69971
700.34689	0.62084
698.29309	0.54968
696.23929	0.51805
694.18548	0.55311
692.13168	0.63589
690.07788	0.71705
688.02408	0.77119
685.97027	0.80377
683.91647	0.82426
681.86267	0.83748
679.80886	0.84690
677.75506	0.85434
675.70126	0.85947
673.64745	0.86252
671.59365	0.86442
669.53985	0.86563
667.48604	0.86735
665.43224	0.87022
663.37844	0.87327
661.32463	0.87650
659.27083	0.87928
657.21703	0.88020
655.16322	0.87915
653.10942	0.87808
651.05562	0.87881
649.00181	0.88053
646.94801	0.88158
644.89421	0.88214
642.84040	0.88309
640.78660	0.88486
638.73280	0.88594
636.67899	0.88548
634.62519	0.88531
632.57139	0.88620
630.51759	0.88677
628.46378	0.88584
626.40998	0.88426
624.35618	0.88332
622.30237	0.88224
620.24857	0.88091
618.19477	0.88066
616.14096	0.88084
614.08716	0.87989
612.03336	0.87852
609.97955	0.87789
607.92575	0.87680
605.87195	0.87472
603.81814	0.87257
601.76434	0.87052
599.71054	0.86904
597.65673	0.86817
595.60293	0.86685
593.54913	0.86609
591.49532	0.86679
589.44152	0.86590
587.38772	0.86291
585.33391	0.86021
583.28011	0.85795
581.22631	0.85589
579.17250	0.85358
577.11870	0.85040
575.06490	0.84685
573.01110	0.84342
570.95729	0.83961
568.90349	0.83524
566.84969	0.83066
564.79588	0.82631
562.74208	0.82209
560.68828	0.81701
558.63447	0.81066
556.58067	0.80369
554.52687	0.79811
552.47306	0.79352
550.41926	0.78648
548.36546	0.77656
546.31165	0.76583
544.25785	0.75437
542.20405	0.74290
540.15024	0.73396
538.09644	0.72812
536.04264	0.72602
533.98883	0.72872
531.93503	0.73479
529.88123	0.74235
527.82742	0.75006
525.77362	0.75685
523.71982	0.76233
521.66602	0.76771
519.61221	0.77362
517.55841	0.77973
515.50461	0.78607
513.45080	0.79067
511.39700	0.79370
509.34320	0.79775
507.28939	0.80126
505.23559	0.80301
503.18179	0.80525
501.12798	0.80719
499.07418	0.80754
497.02038	0.80749
494.96657	0.80638
492.91277	0.80254
490.85897	0.79672
488.80516	0.79079
486.75136	0.78338
484.69756	0.77272
482.64375	0.76178
480.58995	0.75229
478.53615	0.74234
476.48234	0.73301
474.42854	0.72482
472.37474	0.71689
470.32093	0.71292
468.26713	0.71354
466.21333	0.71563
464.15953	0.71751
462.10572	0.72002
460.05192	0.72622
457.99812	0.73482
455.94431	0.74050
453.89051	0.74406
451.83671	0.74950
449.78290	0.75547
447.72910	0.75774
445.67530	0.75862
443.62149	0.76264
441.56769	0.76727
439.51389	0.77047
437.46008	0.77091
435.40628	0.76442
433.35248	0.75492
431.29867	0.75088
429.24487	0.75424
427.19107	0.75959
425.13726	0.76075
423.08346	0.75991
421.02966	0.76209
418.97585	0.76657
416.92205	0.76870
414.86825	0.77136
412.81445	0.77883
410.76064	0.78788
408.70684	0.79391
406.65304	0.79453
404.59923	0.79398
402.54543	0.79850
400.49163	0.80081
398.43782	0.79512
