3996.70104	0.98437
3994.64724	0.98430
3992.59344	0.98415
3990.53964	0.98429
3988.48583	0.98453
3986.43203	0.98453
3984.37823	0.98472
3982.32442	0.98482
3980.27062	0.98462
3978.21682	0.98453
3976.16301	0.98432
3974.10921	0.98418
3972.05541	0.98439
3970.00160	0.98435
3967.94780	0.98393
3965.89400	0.98373
3963.84019	0.98392
3961.78639	0.98425
3959.73259	0.98467
3957.67878	0.98507
3955.62498	0.98506
3953.57118	0.98473
3951.51737	0.98480
3949.46357	0.98488
3947.40977	0.98421
3945.35596	0.98381
3943.30216	0.98424
3941.24836	0.98430
3939.19455	0.98372
3937.14075	0.98357
3935.08695	0.98394
3933.03315	0.98432
3930.97934	0.98447
3928.92554	0.98458
3926.87174	0.98506
3924.81793	0.98540
3922.76413	0.98508
3920.71033	0.98468
3918.65652	0.98440
3916.60272	0.98431
3914.54892	0.98475
3912.49511	0.98512
3910.44131	0.98493
3908.38751	0.98467
3906.33370	0.98462
3904.27990	0.98454
3902.22610	0.98458
3900.17229	0.98455
3898.11849	0.98441
3896.06469	0.98443
3894.01088	0.98448
3891.95708	0.98486
3889.90328	0.98563
3887.84947	0.98587
3885.79567	0.98530
3883.74187	0.98420
3881.68807	0.98315
3879.63426	0.98303
3877.58046	0.98382
3875.52666	0.98463
3873.47285	0.98515
3871.41905	0.98511
3869.36525	0.98454
3867.31144	0.98431
3865.25764	0.98474
3863.20384	0.98549
3861.15003	0.98581
3859.09623	0.98552
3857.04243	0.98503
3854.98862	0.98458
3852.93482	0.98384
3850.88102	0.98368
3848.82721	0.98381
3846.77341	0.98353
3844.71961	0.98320
3842.66580	0.98338
3840.61200	0.98424
3838.55820	0.98520
3836.50439	0.98490
3834.45059	0.98375
3832.39679	0.98359
3830.34298	0.98475
3828.28918	0.98563
3826.23538	0.98542
3824.18158	0.98494
3822.12777	0.98460
3820.07397	0.98436
3818.02017	0.98449
3815.96636	0.98472
3813.91256	0.98488
3811.85876	0.98490
3809.80495	0.98481
3807.75115	0.98458
3805.69735	0.98448
3803.64354	0.98478
3801.58974	0.98515
3799.53594	0.98528
3797.48213	0.98537
3795.42833	0.98541
3793.37453	0.98520
3791.32072	0.98501
3789.26692	0.98466
3787.21312	0.98392
3785.15931	0.98376
3783.10551	0.98464
3781.05171	0.98522
3778.99790	0.98492
3776.94410	0.98446
3774.89030	0.98413
3772.83650	0.98387
3770.78269	0.98394
3768.72889	0.98434
3766.67509	0.98475
3764.62128	0.98494
3762.56748	0.98480
3760.51368	0.98469
3758.45987	0.98490
3756.40607	0.98526
3754.35227	0.98592
3752.29846	0.98730
3750.24466	0.98818
3748.19086	0.98738
3746.13705	0.98654
3744.08325	0.98596
3742.02945	0.98526
3739.97564	0.98473
3737.92184	0.98432
3735.86804	0.98393
3733.81423	0.98383
3731.76043	0.98344
3729.70663	0.98279
3727.65282	0.98234
3725.59902	0.98211
3723.54522	0.98162
3721.49141	0.98014
3719.43761	0.97779
3717.38381	0.97532
3715.33001	0.97311
3713.27620	0.97045
3711.22240	0.96610
3709.16860	0.96096
3707.11479	0.95587
3705.06099	0.95032
3703.00719	0.94421
3700.95338	0.93851
3698.89958	0.93521
3696.84578	0.93429
3694.79197	0.93537
3692.73817	0.93814
3690.68437	0.94149
3688.63056	0.94446
3686.57676	0.94696
3684.52296	0.94916
3682.46915	0.95066
3680.41535	0.95107
3678.36155	0.95121
3676.30774	0.95138
3674.25394	0.95020
3672.20014	0.94874
3670.14633	0.94722
3668.09253	0.94551
3666.03873	0.94486
3663.98492	0.94439
3661.93112	0.94336
3659.87732	0.94204
3657.82352	0.94074
3655.76971	0.93944
3653.71591	0.93928
3651.66211	0.94046
3649.60830	0.93977
3647.55450	0.93565
3645.50070	0.93358
3643.44689	0.93361
3641.39309	0.93364
3639.33929	0.93287
3637.28548	0.93165
3635.23168	0.93072
3633.17788	0.92997
3631.12407	0.92887
3629.07027	0.92662
3627.01647	0.92323
3624.96266	0.92040
3622.90886	0.91835
3620.85506	0.91745
3618.80125	0.91869
3616.74745	0.92175
3614.69365	0.92471
3612.63984	0.92679
3610.58604	0.92783
3608.53224	0.92829
3606.47844	0.92836
3604.42463	0.92804
3602.37083	0.92787
3600.31703	0.92823
3598.26322	0.92911
3596.20942	0.92967
3594.15562	0.92918
3592.10181	0.92870
3590.04801	0.92875
3587.99421	0.92880
3585.94040	0.92865
3583.88660	0.92826
3581.83280	0.92789
3579.77899	0.92801
3577.72519	0.92831
3575.67139	0.92798
3573.61758	0.92731
3571.56378	0.92700
3569.50998	0.92702
3567.45617	0.92675
3565.40237	0.92592
3563.34857	0.92501
3561.29476	0.92422
3559.24096	0.92361
3557.18716	0.92321
3555.13335	0.92303
3553.07955	0.92281
3551.02575	0.92232
3548.97195	0.92226
3546.91814	0.92274
3544.86434	0.92254
3542.81054	0.92152
3540.75673	0.92095
3538.70293	0.92095
3536.64913	0.92060
3534.59532	0.92012
3532.54152	0.92042
3530.48772	0.92090
3528.43391	0.92073
3526.38011	0.92025
3524.32631	0.91982
3522.27250	0.91931
3520.21870	0.91897
3518.16490	0.91902
3516.11109	0.91924
3514.05729	0.91943
3512.00349	0.91928
3509.94968	0.91886
3507.89588	0.91882
3505.84208	0.91883
3503.78827	0.91857
3501.73447	0.91876
3499.68067	0.91880
3497.62687	0.91807
3495.57306	0.91728
3493.51926	0.91687
3491.46546	0.91657
3489.41165	0.91613
3487.35785	0.91565
3485.30405	0.91526
3483.25024	0.91503
3481.19644	0.91476
3479.14264	0.91414
3477.08883	0.91346
3475.03503	0.91320
3472.98123	0.91327
3470.92742	0.91299
3468.87362	0.91215
3466.81982	0.91146
3464.76601	0.91136
3462.71221	0.91127
3460.65841	0.91100
3458.60460	0.91094
3456.55080	0.91095
3454.49700	0.91048
3452.44319	0.90958
3450.38939	0.90905
3448.33559	0.90913
3446.28178	0.90879
3444.22798	0.90770
3442.17418	0.90679
3440.12038	0.90649
3438.06657	0.90659
3436.01277	0.90647
3433.95897	0.90560
3431.90516	0.90480
3429.85136	0.90472
3427.79756	0.90487
3425.74375	0.90481
3423.68995	0.90422
3421.63615	0.90337
3419.58234	0.90311
3417.52854	0.90333
3415.47474	0.90317
3413.42093	0.90248
3411.36713	0.90194
3409.31333	0.90173
3407.25952	0.90136
3405.20572	0.90080
3403.15192	0.90066
3401.09811	0.90096
3399.04431	0.90071
3396.99051	0.89993
3394.93670	0.89982
3392.88290	0.90047
3390.82910	0.90088
3388.77529	0.90074
3386.72149	0.90054
3384.66769	0.90048
3382.61389	0.90040
3380.56008	0.90067
3378.50628	0.90129
3376.45248	0.90168
3374.39867	0.90201
3372.34487	0.90241
3370.29107	0.90254
3368.23726	0.90244
3366.18346	0.90256
3364.12966	0.90294
3362.07585	0.90295
3360.02205	0.90263
3357.96825	0.90280
3355.91444	0.90344
3353.86064	0.90373
3351.80684	0.90357
3349.75303	0.90368
3347.69923	0.90407
3345.64543	0.90420
3343.59162	0.90433
3341.53782	0.90454
3339.48402	0.90449
3337.43021	0.90458
3335.37641	0.90524
3333.32261	0.90592
3331.26881	0.90608
3329.21500	0.90615
3327.16120	0.90634
3325.10740	0.90637
3323.05359	0.90639
3320.99979	0.90640
3318.94599	0.90650
3316.89218	0.90711
3314.83838	0.90787
3312.78458	0.90823
3310.73077	0.90861
3308.67697	0.90926
3306.62317	0.90976
3304.56936	0.91025
3302.51556	0.91046
3300.46176	0.91002
3298.40795	0.91004
3296.35415	0.91079
3294.30035	0.91145
3292.24654	0.91167
3290.19274	0.91139
3288.13894	0.91108
3286.08513	0.91103
3284.03133	0.91122
3281.97753	0.91167
3279.92372	0.91212
3277.86992	0.91248
3275.81612	0.91290
3273.76232	0.91335
3271.70851	0.91375
3269.65471	0.91405
3267.60091	0.91400
3265.54710	0.91359
3263.49330	0.91346
3261.43950	0.91416
3259.38569	0.91526
3257.33189	0.91611
3255.27809	0.91656
3253.22428	0.91681
3251.17048	0.91690
3249.11668	0.91709
3247.06287	0.91774
3245.00907	0.91867
3242.95527	0.91927
3240.90146	0.91951
3238.84766	0.91977
3236.79386	0.91982
3234.74005	0.91990
3232.68625	0.92059
3230.63245	0.92133
3228.57864	0.92172
3226.52484	0.92210
3224.47104	0.92275
3222.41724	0.92340
3220.36343	0.92375
3218.30963	0.92417
3216.25583	0.92490
3214.20202	0.92528
3212.14822	0.92518
3210.09442	0.92535
3208.04061	0.92628
3205.98681	0.92760
3203.93301	0.92840
3201.87920	0.92828
3199.82540	0.92789
3197.77160	0.92818
3195.71779	0.92925
3193.66399	0.93011
3191.61019	0.93027
3189.55638	0.93036
3187.50258	0.93057
3185.44878	0.93095
3183.39497	0.93197
3181.34117	0.93326
3179.28737	0.93400
3177.23356	0.93406
3175.17976	0.93400
3173.12596	0.93438
3171.07215	0.93508
3169.01835	0.93574
3166.96455	0.93659
3164.91075	0.93791
3162.85694	0.93906
3160.80314	0.93928
3158.74934	0.93895
3156.69553	0.93899
3154.64173	0.93953
3152.58793	0.93993
3150.53412	0.94032
3148.48032	0.94132
3146.42652	0.94249
3144.37271	0.94308
3142.31891	0.94344
3140.26511	0.94393
3138.21130	0.94429
3136.15750	0.94447
3134.10370	0.94478
3132.04989	0.94529
3129.99609	0.94575
3127.94229	0.94595
3125.88848	0.94612
3123.83468	0.94625
3121.78088	0.94620
3119.72707	0.94662
3117.67327	0.94753
3115.61947	0.94820
3113.56566	0.94850
3111.51186	0.94873
3109.45806	0.94908
3107.40426	0.94952
3105.35045	0.94996
3103.29665	0.95044
3101.24285	0.95063
3099.18904	0.95074
3097.13524	0.95135
3095.08144	0.95189
3093.02763	0.95177
3090.97383	0.95161
3088.92003	0.95180
3086.86622	0.95215
3084.81242	0.95247
3082.75862	0.95266
3080.70481	0.95299
3078.65101	0.95347
3076.59721	0.95360
3074.54340	0.95345
3072.48960	0.95357
3070.43580	0.95397
3068.38199	0.95432
3066.32819	0.95451
3064.27439	0.95460
3062.22058	0.95496
3060.16678	0.95571
3058.11298	0.95651
3056.05918	0.95706
3054.00537	0.95711
3051.95157	0.95677
3049.89777	0.95655
3047.84396	0.95687
3045.79016	0.95750
3043.73636	0.95793
3041.68255	0.95802
3039.62875	0.95813
3037.57495	0.95832
3035.52114	0.95830
3033.46734	0.95834
3031.41354	0.95848
3029.35973	0.95853
3027.30593	0.95874
3025.25213	0.95922
3023.19832	0.95967
3021.14452	0.96010
3019.09072	0.96042
3017.03691	0.96048
3014.98311	0.96069
3012.92931	0.96082
3010.87550	0.96046
3008.82170	0.96004
3006.76790	0.95978
3004.71409	0.95967
3002.66029	0.95990
3000.60649	0.96007
2998.55269	0.95999
2996.49888	0.95988
2994.44508	0.95980
2992.39128	0.95955
2990.33747	0.95883
2988.28367	0.95784
2986.22987	0.95716
2984.17606	0.95671
2982.12226	0.95583
2980.06846	0.95425
2978.01465	0.95236
2975.96085	0.95043
2973.90705	0.94828
2971.85324	0.94590
2969.79944	0.94324
2967.74564	0.93986
2965.69183	0.93603
2963.63803	0.93239
2961.58423	0.92921
2959.53042	0.92648
2957.47662	0.92406
2955.42282	0.92213
2953.36901	0.92087
2951.31521	0.91940
2949.26141	0.91664
2947.20761	0.91216
2945.15380	0.90570
2943.10000	0.89676
2941.04620	0.88507
2938.99239	0.87082
2936.93859	0.85402
2934.88479	0.83454
2932.83098	0.81277
2930.77718	0.78880
2928.72338	0.76199
2926.66957	0.73186
2924.61577	0.69814
2922.56197	0.66131
2920.50816	0.62373
2918.45436	0.59071
2916.40056	0.57054
2914.34675	0.57032
2912.29295	0.58958
2910.23915	0.61979
2908.18534	0.65168
2906.13154	0.68020
2904.07774	0.70383
2902.02393	0.72301
2899.97013	0.73886
2897.91633	0.75245
2895.86252	0.76497
2893.80872	0.77755
2891.75492	0.79056
2889.70112	0.80379
2887.64731	0.81687
2885.59351	0.82962
2883.53971	0.84196
2881.48590	0.85371
2879.43210	0.86433
2877.37830	0.87305
2875.32449	0.87973
2873.27069	0.88438
2871.21689	0.88688
2869.16308	0.88731
2867.10928	0.88512
2865.05548	0.87915
2863.00167	0.86831
2860.94787	0.85138
2858.89407	0.82676
2856.84026	0.79252
2854.78646	0.74709
2852.73266	0.69206
2850.67885	0.63852
2848.62505	0.60771
2846.57125	0.61513
2844.51744	0.65549
2842.46364	0.70999
2840.40984	0.76255
2838.35603	0.80573
2836.30223	0.83848
2834.24843	0.86303
2832.19463	0.88174
2830.14082	0.89591
2828.08702	0.90672
2826.03322	0.91524
2823.97941	0.92211
2821.92561	0.92767
2819.87181	0.93244
2817.81800	0.93685
2815.76420	0.94051
2813.71040	0.94329
2811.65659	0.94567
2809.60279	0.94799
2807.54899	0.95019
2805.49518	0.95186
2803.44138	0.95296
2801.38758	0.95400
2799.33377	0.95519
2797.27997	0.95644
2795.22617	0.95761
2793.17236	0.95876
2791.11856	0.96001
2789.06476	0.96134
2787.01095	0.96246
2784.95715	0.96324
2782.90335	0.96409
2780.84955	0.96513
2778.79574	0.96588
2776.74194	0.96654
2774.68814	0.96738
2772.63433	0.96804
2770.58053	0.96838
2768.52673	0.96847
2766.47292	0.96859
2764.41912	0.96884
2762.36532	0.96916
2760.31151	0.96972
2758.25771	0.97020
2756.20391	0.97033
2754.15010	0.97047
2752.09630	0.97070
2750.04250	0.97087
2747.98869	0.97102
2745.93489	0.97117
2743.88109	0.97149
2741.82728	0.97189
2739.77348	0.97215
2737.71968	0.97217
2735.66587	0.97198
2733.61207	0.97204
2731.55827	0.97245
2729.50446	0.97271
2727.45066	0.97258
2725.39686	0.97239
2723.34306	0.97270
2721.28925	0.97328
2719.23545	0.97370
2717.18165	0.97414
2715.12784	0.97454
2713.07404	0.97467
2711.02024	0.97471
2708.96643	0.97477
2706.91263	0.97477
2704.85883	0.97474
2702.80502	0.97459
2700.75122	0.97433
2698.69742	0.97446
2696.64361	0.97479
2694.58981	0.97495
2692.53601	0.97514
2690.48220	0.97531
2688.42840	0.97539
2686.37460	0.97552
2684.32079	0.97564
2682.26699	0.97555
2680.21319	0.97527
2678.15938	0.97500
2676.10558	0.97483
2674.05178	0.97474
2671.99797	0.97476
2669.94417	0.97489
2667.89037	0.97517
2665.83657	0.97543
2663.78276	0.97529
2661.72896	0.97488
2659.67516	0.97471
2657.62135	0.97482
2655.56755	0.97498
2653.51375	0.97503
2651.45994	0.97496
2649.40614	0.97500
2647.35234	0.97517
2645.29853	0.97529
2643.24473	0.97532
2641.19093	0.97536
2639.13712	0.97545
2637.08332	0.97543
2635.02952	0.97530
2632.97571	0.97518
2630.92191	0.97530
2628.86811	0.97583
2626.81430	0.97665
2624.76050	0.97735
2622.70670	0.97768
2620.65289	0.97793
2618.59909	0.97810
2616.54529	0.97818
2614.49149	0.97838
2612.43768	0.97856
2610.38388	0.97861
2608.33008	0.97868
2606.27627	0.97910
2604.22247	0.97943
2602.16867	0.97928
2600.11486	0.97917
2598.06106	0.97938
2596.00726	0.97974
2593.95345	0.98006
2591.89965	0.98041
2589.84585	0.98091
2587.79204	0.98138
2585.73824	0.98140
2583.68444	0.98070
2581.63063	0.97974
2579.57683	0.97955
2577.52303	0.98023
2575.46922	0.98088
2573.41542	0.98125
2571.36162	0.98138
2569.30781	0.98157
2567.25401	0.98209
2565.20021	0.98248
2563.14640	0.98247
2561.09260	0.98240
2559.03880	0.98250
2556.98500	0.98273
2554.93119	0.98285
2552.87739	0.98271
2550.82359	0.98240
2548.76978	0.98205
2546.71598	0.98225
2544.66218	0.98283
2542.60837	0.98263
2540.55457	0.98227
2538.50077	0.98273
2536.44696	0.98318
2534.39316	0.98293
2532.33936	0.98236
2530.28555	0.98219
2528.23175	0.98262
2526.17795	0.98311
2524.12414	0.98349
2522.07034	0.98408
2520.01654	0.98430
2517.96273	0.98385
2515.90893	0.98380
2513.85513	0.98397
2511.80132	0.98388
2509.74752	0.98421
2507.69372	0.98480
2505.63992	0.98464
2503.58611	0.98366
2501.53231	0.98310
2499.47851	0.98388
2497.42470	0.98497
2495.37090	0.98490
2493.31710	0.98422
2491.26329	0.98412
2489.20949	0.98442
2487.15569	0.98462
2485.10188	0.98478
2483.04808	0.98476
2480.99428	0.98444
2478.94047	0.98419
2476.88667	0.98419
2474.83287	0.98421
2472.77906	0.98436
2470.72526	0.98455
2468.67146	0.98499
2466.61765	0.98578
2464.56385	0.98609
2462.51005	0.98566
2460.45624	0.98508
2458.40244	0.98462
2456.34864	0.98447
2454.29483	0.98452
2452.24103	0.98419
2450.18723	0.98412
2448.13343	0.98541
2446.07962	0.98667
2444.02582	0.98615
2441.97202	0.98483
2439.91821	0.98448
2437.86441	0.98485
2435.81061	0.98494
2433.75680	0.98459
2431.70300	0.98435
2429.64920	0.98459
2427.59539	0.98513
2425.54159	0.98552
2423.48779	0.98572
2421.43398	0.98590
2419.38018	0.98577
2417.32638	0.98540
2415.27257	0.98524
2413.21877	0.98535
2411.16497	0.98541
2409.11116	0.98497
2407.05736	0.98448
2405.00356	0.98474
2402.94975	0.98544
2400.89595	0.98590
2398.84215	0.98609
2396.78834	0.98629
2394.73454	0.98616
2392.68074	0.98553
2390.62694	0.98496
2388.57313	0.98463
2386.51933	0.98448
2384.46553	0.98449
2382.41172	0.98440
2380.35792	0.98381
2378.30412	0.98300
2376.25031	0.98289
2374.19651	0.98347
2372.14271	0.98359
2370.08890	0.98323
2368.03510	0.98386
2365.98130	0.98467
2363.92749	0.98374
2361.87369	0.98239
2359.81989	0.98193
2357.76608	0.98227
2355.71228	0.98331
2353.65848	0.98358
2351.60467	0.98294
2349.55087	0.98281
2347.49707	0.98274
2345.44326	0.98222
2343.38946	0.98261
2341.33566	0.98404
2339.28186	0.98437
2337.22805	0.98333
2335.17425	0.98239
2333.12045	0.98199
2331.06664	0.98180
2329.01284	0.98166
2326.95904	0.98140
2324.90523	0.98058
2322.85143	0.97982
2320.79763	0.98041
2318.74382	0.98199
2316.69002	0.98321
2314.63622	0.98377
2312.58241	0.98413
2310.52861	0.98429
2308.47481	0.98405
2306.42100	0.98349
2304.36720	0.98298
2302.31340	0.98284
2300.25959	0.98295
2298.20579	0.98290
2296.15199	0.98257
2294.09818	0.98283
2292.04438	0.98351
2289.99058	0.98358
2287.93677	0.98336
2285.88297	0.98324
2283.82917	0.98306
2281.77537	0.98299
2279.72156	0.98362
2277.66776	0.98423
2275.61396	0.98350
2273.56015	0.98287
2271.50635	0.98337
2269.45255	0.98360
2267.39874	0.98364
2265.34494	0.98419
2263.29114	0.98447
2261.23733	0.98427
2259.18353	0.98447
2257.12973	0.98532
2255.07592	0.98589
2253.02212	0.98560
2250.96832	0.98512
2248.91451	0.98507
2246.86071	0.98481
2244.80691	0.98397
2242.75310	0.98339
2240.69930	0.98333
2238.64550	0.98369
2236.59169	0.98359
2234.53789	0.98274
2232.48409	0.98237
2230.43029	0.98203
2228.37648	0.98191
2226.32268	0.98290
2224.26888	0.98371
2222.21507	0.98384
2220.16127	0.98392
2218.10747	0.98448
2216.05366	0.98581
2213.99986	0.98717
2211.94606	0.98762
2209.89225	0.98667
2207.83845	0.98530
2205.78465	0.98505
2203.73084	0.98606
2201.67704	0.98679
2199.62324	0.98541
2197.56943	0.98422
2195.51563	0.98512
2193.46183	0.98430
2191.40802	0.98186
2189.35422	0.98293
2187.30042	0.98646
2185.24661	0.98720
2183.19281	0.98550
2181.13901	0.98568
2179.08520	0.98674
2177.03140	0.98667
2174.97760	0.98803
2172.92380	0.98963
2170.86999	0.98879
2168.81619	0.98817
2166.76239	0.98969
2164.70858	0.98928
2162.65478	0.98488
2160.60098	0.98264
2158.54717	0.98556
2156.49337	0.98783
2154.43957	0.98791
2152.38576	0.98869
2150.33196	0.98895
2148.27816	0.98787
2146.22435	0.98778
2144.17055	0.98917
2142.11675	0.99025
2140.06294	0.98893
2138.00914	0.98573
2135.95534	0.98486
2133.90153	0.98735
2131.84773	0.98948
2129.79393	0.98933
2127.74012	0.98811
2125.68632	0.98752
2123.63252	0.98731
2121.57871	0.98696
2119.52491	0.98690
2117.47111	0.98657
2115.41731	0.98575
2113.36350	0.98532
2111.30970	0.98542
2109.25590	0.98576
2107.20209	0.98634
2105.14829	0.98729
2103.09449	0.98862
2101.04068	0.98902
2098.98688	0.98795
2096.93308	0.98742
2094.87927	0.98840
2092.82547	0.98902
2090.77167	0.98839
2088.71786	0.98791
2086.66406	0.98783
2084.61026	0.98750
2082.55645	0.98662
2080.50265	0.98600
2078.44885	0.98648
2076.39504	0.98670
2074.34124	0.98591
2072.28744	0.98516
2070.23363	0.98528
2068.17983	0.98672
2066.12603	0.98909
2064.07223	0.99019
2062.01842	0.98924
2059.96462	0.98793
2057.91082	0.98687
2055.85701	0.98563
2053.80321	0.98481
2051.74941	0.98504
2049.69560	0.98558
2047.64180	0.98615
2045.58800	0.98642
2043.53419	0.98520
2041.48039	0.98327
2039.42659	0.98275
2037.37278	0.98349
2035.31898	0.98513
2033.26518	0.98755
2031.21137	0.98747
2029.15757	0.98537
2027.10377	0.98661
2025.04996	0.98981
2022.99616	0.99049
2020.94236	0.98996
2018.88855	0.98966
2016.83475	0.98853
2014.78095	0.98679
2012.72714	0.98508
2010.67334	0.98472
2008.61954	0.98653
2006.56574	0.98856
2004.51193	0.98961
2002.45813	0.99041
2000.40433	0.99080
1998.35052	0.98966
1996.29672	0.98770
1994.24292	0.98667
1992.18911	0.98657
1990.13531	0.98667
1988.08151	0.98624
1986.02770	0.98508
1983.97390	0.98409
1981.92010	0.98382
1979.86629	0.98378
1977.81249	0.98387
1975.75869	0.98546
1973.70488	0.98952
1971.65108	0.99342
1969.59728	0.99364
1967.54347	0.99078
1965.48967	0.98791
1963.43587	0.98582
1961.38206	0.98405
1959.32826	0.98466
1957.27446	0.98733
1955.22066	0.98796
1953.16685	0.98643
1951.11305	0.98577
1949.05925	0.98655
1947.00544	0.98758
1944.95164	0.98833
1942.89784	0.98793
1940.84403	0.98603
1938.79023	0.98450
1936.73643	0.98434
1934.68262	0.98504
1932.62882	0.98581
1930.57502	0.98637
1928.52121	0.98710
1926.46741	0.98820
1924.41361	0.98943
1922.35980	0.98963
1920.30600	0.98825
1918.25220	0.98679
1916.19839	0.98623
1914.14459	0.98631
1912.09079	0.98675
1910.03698	0.98710
1907.98318	0.98691
1905.92938	0.98672
1903.87557	0.98653
1901.82177	0.98627
1899.76797	0.98618
1897.71417	0.98596
1895.66036	0.98615
1893.60656	0.98710
1891.55276	0.98782
1889.49895	0.98745
1887.44515	0.98655
1885.39135	0.98615
1883.33754	0.98628
1881.28374	0.98650
1879.22994	0.98642
1877.17613	0.98615
1875.12233	0.98625
1873.06853	0.98684
1871.01472	0.98710
1868.96092	0.98663
1866.90712	0.98624
1864.85331	0.98640
1862.79951	0.98656
1860.74571	0.98637
1858.69190	0.98627
1856.63810	0.98631
1854.58430	0.98595
1852.53049	0.98551
1850.47669	0.98561
1848.42289	0.98622
1846.36908	0.98707
1844.31528	0.98755
1842.26148	0.98696
1840.20768	0.98626
1838.15387	0.98633
1836.10007	0.98672
1834.04627	0.98649
1831.99246	0.98589
1829.93866	0.98569
1827.88486	0.98590
1825.83105	0.98599
1823.77725	0.98580
1821.72345	0.98544
1819.66964	0.98539
1817.61584	0.98579
1815.56204	0.98588
1813.50823	0.98555
1811.45443	0.98546
1809.40063	0.98549
1807.34682	0.98523
1805.29302	0.98520
1803.23922	0.98585
1801.18541	0.98650
1799.13161	0.98646
1797.07781	0.98599
1795.02400	0.98537
1792.97020	0.98494
1790.91640	0.98501
1788.86260	0.98500
1786.80879	0.98464
1784.75499	0.98444
1782.70119	0.98456
1780.64738	0.98457
1778.59358	0.98449
1776.53978	0.98441
1774.48597	0.98413
1772.43217	0.98376
1770.37837	0.98330
1768.32456	0.98284
1766.27076	0.98257
1764.21696	0.98248
1762.16315	0.98254
1760.10935	0.98236
1758.05555	0.98173
1756.00174	0.98088
1753.94794	0.98004
1751.89414	0.97942
1749.84033	0.97897
1747.78653	0.97794
1745.73273	0.97674
1743.67892	0.97589
1741.62512	0.97528
1739.57132	0.97466
1737.51751	0.97395
1735.46371	0.97308
1733.40991	0.97180
1731.35611	0.97101
1729.30230	0.97057
1727.24850	0.97008
1725.19470	0.96974
1723.14089	0.96941
1721.08709	0.96902
1719.03329	0.96860
1716.97948	0.96790
1714.92568	0.96703
1712.87188	0.96633
1710.81807	0.96560
1708.76427	0.96490
1706.71047	0.96383
1704.65666	0.96204
1702.60286	0.96028
1700.54906	0.95854
1698.49525	0.95669
1696.44145	0.95493
1694.38765	0.95305
1692.33384	0.95125
1690.28004	0.94880
1688.22624	0.94583
1686.17243	0.94345
1684.11863	0.94081
1682.06483	0.93818
1680.01103	0.93618
1677.95722	0.93430
1675.90342	0.93223
1673.84962	0.92975
1671.79581	0.92734
1669.74201	0.92469
1667.68821	0.92216
1665.63440	0.92036
1663.58060	0.91852
1661.52680	0.91660
1659.47299	0.91526
1657.41919	0.91444
1655.36539	0.91389
1653.31158	0.91301
1651.25778	0.91208
1649.20398	0.91190
1647.15017	0.91179
1645.09637	0.91127
1643.04257	0.91090
1640.98876	0.91093
1638.93496	0.91119
1636.88116	0.91139
1634.82735	0.91141
1632.77355	0.91173
1630.71975	0.91254
1628.66594	0.91353
1626.61214	0.91439
1624.55834	0.91546
1622.50454	0.91691
1620.45073	0.91833
1618.39693	0.92015
1616.34313	0.92264
1614.28932	0.92478
1612.23552	0.92672
1610.18172	0.92866
1608.12791	0.92999
1606.07411	0.93085
1604.02031	0.93172
1601.96650	0.93262
1599.91270	0.93367
1597.85890	0.93492
1595.80509	0.93620
1593.75129	0.93735
1591.69749	0.93832
1589.64368	0.93912
1587.58988	0.93984
1585.53608	0.94054
1583.48227	0.94089
1581.42847	0.94091
1579.37467	0.94129
1577.32086	0.94208
1575.26706	0.94240
1573.21326	0.94223
1571.15945	0.94243
1569.10565	0.94319
1567.05185	0.94372
1564.99805	0.94379
1562.94424	0.94402
1560.89044	0.94476
1558.83664	0.94524
1556.78283	0.94430
1554.72903	0.94378
1552.67523	0.94391
1550.62142	0.94391
1548.56762	0.94317
1546.51382	0.94233
1544.46001	0.94204
1542.40621	0.94235
1540.35241	0.94296
1538.29860	0.94376
1536.24480	0.94459
1534.19100	0.94581
1532.13719	0.94734
1530.08339	0.94849
1528.02959	0.94962
1525.97578	0.95112
1523.92198	0.95235
1521.86818	0.95293
1519.81437	0.95369
1517.76057	0.95479
1515.70677	0.95556
1513.65297	0.95595
1511.59916	0.95637
1509.54536	0.95717
1507.49156	0.95851
1505.43775	0.95936
1503.38395	0.95947
1501.33015	0.95947
1499.27634	0.95939
1497.22254	0.95939
1495.16874	0.95912
1493.11493	0.95881
1491.06113	0.95867
1489.00733	0.95794
1486.95352	0.95611
1484.89972	0.95405
1482.84592	0.95154
1480.79211	0.94710
1478.73831	0.93815
1476.68451	0.91709
1474.63070	0.87666
1472.57690	0.83279
1470.52310	0.81862
1468.46929	0.82120
1466.41549	0.82041
1464.36169	0.81410
1462.30788	0.81554
1460.25408	0.83063
1458.20028	0.85459
1456.14648	0.87670
1454.09267	0.88796
1452.03887	0.89596
1449.98507	0.90306
1447.93126	0.90859
1445.87746	0.91237
1443.82366	0.91481
1441.76985	0.91679
1439.71605	0.91868
1437.66225	0.92062
1435.60844	0.92274
1433.55464	0.92502
1431.50084	0.92771
1429.44703	0.93064
1427.39323	0.93299
1425.33943	0.93484
1423.28562	0.93670
1421.23182	0.93829
1419.17802	0.93944
1417.12421	0.94034
1415.07041	0.94105
1413.01661	0.94170
1410.96280	0.94241
1408.90900	0.94323
1406.85520	0.94422
1404.80139	0.94525
1402.74759	0.94600
1400.69379	0.94660
1398.63999	0.94739
1396.58618	0.94821
1394.53238	0.94844
1392.47858	0.94826
1390.42477	0.94836
1388.37097	0.94857
1386.31717	0.94813
1384.26336	0.94663
1382.20956	0.94393
1380.15576	0.94029
1378.10195	0.93755
1376.04815	0.93748
1373.99435	0.93940
1371.94054	0.94078
1369.88674	0.94122
1367.83294	0.94189
1365.77913	0.94310
1363.72533	0.94464
1361.67153	0.94607
1359.61772	0.94703
1357.56392	0.94779
1355.51012	0.94856
1353.45631	0.94930
1351.40251	0.94987
1349.34871	0.95037
1347.29491	0.95122
1345.24110	0.95233
1343.18730	0.95332
1341.13350	0.95407
1339.07969	0.95460
1337.02589	0.95491
1334.97209	0.95516
1332.91828	0.95541
1330.86448	0.95559
1328.81068	0.95569
1326.75687	0.95571
1324.70307	0.95561
1322.64927	0.95513
1320.59546	0.95426
1318.54166	0.95364
1316.48786	0.95339
1314.43405	0.95303
1312.38025	0.95269
1310.32645	0.95271
1308.27264	0.95292
1306.21884	0.95295
1304.16504	0.95278
1302.11123	0.95264
1300.05743	0.95272
1298.00363	0.95279
1295.94982	0.95262
1293.89602	0.95253
1291.84222	0.95284
1289.78842	0.95329
1287.73461	0.95346
1285.68081	0.95333
1283.62701	0.95302
1281.57320	0.95256
1279.51940	0.95212
1277.46560	0.95179
1275.41179	0.95168
1273.35799	0.95181
1271.30419	0.95154
1269.25038	0.95030
1267.19658	0.94883
1265.14278	0.94772
1263.08897	0.94686
1261.03517	0.94663
1258.98137	0.94683
1256.92756	0.94664
1254.87376	0.94615
1252.81996	0.94557
1250.76615	0.94483
1248.71235	0.94402
1246.65855	0.94309
1244.60474	0.94230
1242.55094	0.94193
1240.49714	0.94161
1238.44334	0.94066
1236.38953	0.93936
1234.33573	0.93866
1232.28193	0.93864
1230.22812	0.93849
1228.17432	0.93800
1226.12052	0.93769
1224.06671	0.93750
1222.01291	0.93694
1219.95911	0.93615
1217.90530	0.93533
1215.85150	0.93447
1213.79770	0.93364
1211.74389	0.93271
1209.69009	0.93168
1207.63629	0.93066
1205.58248	0.92949
1203.52868	0.92815
1201.47488	0.92677
1199.42107	0.92542
1197.36727	0.92406
1195.31347	0.92248
1193.25966	0.92064
1191.20586	0.91903
1189.15206	0.91754
1187.09825	0.91556
1185.04445	0.91315
1182.99065	0.91045
1180.93685	0.90722
1178.88304	0.90369
1176.82924	0.90023
1174.77544	0.89695
1172.72163	0.89395
1170.66783	0.89114
1168.61403	0.88803
1166.56022	0.88467
1164.50642	0.88173
1162.45262	0.87943
1160.39881	0.87737
1158.34501	0.87503
1156.29121	0.87245
1154.23740	0.86985
1152.18360	0.86703
1150.12980	0.86421
1148.07599	0.86172
1146.02219	0.85910
1143.96839	0.85611
1141.91458	0.85300
1139.86078	0.84991
1137.80698	0.84634
1135.75317	0.84182
1133.69937	0.83682
1131.64557	0.83169
1129.59176	0.82615
1127.53796	0.81961
1125.48416	0.81167
1123.43036	0.80260
1121.37655	0.79313
1119.32275	0.78414
1117.26895	0.77583
1115.21514	0.76767
1113.16134	0.75981
1111.10754	0.75265
1109.05373	0.74618
1106.99993	0.74027
1104.94613	0.73471
1102.89232	0.72956
1100.83852	0.72549
1098.78472	0.72250
1096.73091	0.71992
1094.67711	0.71746
1092.62331	0.71509
1090.56950	0.71284
1088.51570	0.71052
1086.46190	0.70800
1084.40809	0.70544
1082.35429	0.70282
1080.30049	0.69983
1078.24668	0.69661
1076.19288	0.69354
1074.13908	0.69019
1072.08528	0.68601
1070.03147	0.68128
1067.97767	0.67634
1065.92387	0.67102
1063.87006	0.66511
1061.81626	0.65845
1059.76246	0.65101
1057.70865	0.64308
1055.65485	0.63492
1053.60105	0.62608
1051.54724	0.61611
1049.49344	0.60551
1047.43964	0.59496
1045.38583	0.58460
1043.33203	0.57464
1041.27823	0.56525
1039.22442	0.55641
1037.17062	0.54846
1035.11682	0.54179
1033.06301	0.53658
1031.00921	0.53296
1028.95541	0.53129
1026.90160	0.53146
1024.84780	0.53276
1022.79400	0.53464
1020.74019	0.53661
1018.68639	0.53800
1016.63259	0.53850
1014.57879	0.53833
1012.52498	0.53768
1010.47118	0.53678
1008.41738	0.53661
1006.36357	0.53813
1004.30977	0.54162
1002.25597	0.54727
1000.20216	0.55515
998.14836	0.56518
996.09456	0.57689
994.04075	0.58911
991.98695	0.60158
989.93315	0.61469
987.87934	0.62793
985.82554	0.64075
983.77174	0.65324
981.71793	0.66573
979.66413	0.67831
977.61033	0.69078
975.55652	0.70280
973.50272	0.71406
971.44892	0.72448
969.39511	0.73409
967.34131	0.74322
965.28751	0.75198
963.23371	0.76006
961.17990	0.76695
959.12610	0.77244
957.07230	0.77735
955.01849	0.78239
952.96469	0.78716
950.91089	0.79114
948.85708	0.79431
946.80328	0.79698
944.74948	0.79933
942.69567	0.80117
940.64187	0.80262
938.58807	0.80400
936.53426	0.80521
934.48046	0.80619
932.42666	0.80718
930.37285	0.80812
928.31905	0.80842
926.26525	0.80773
924.21144	0.80571
922.15764	0.80251
920.10384	0.79927
918.05003	0.79615
915.99623	0.79259
913.94243	0.78974
911.88862	0.78963
909.83482	0.79323
907.78102	0.79998
905.72722	0.80839
903.67341	0.81738
901.61961	0.82611
899.56581	0.83397
897.51200	0.84104
895.45820	0.84725
893.40440	0.85246
891.35059	0.85650
889.29679	0.85941
887.24299	0.86183
885.18918	0.86383
883.13538	0.86500
881.08158	0.86518
879.02777	0.86453
876.97397	0.86429
874.92017	0.86631
872.86636	0.87083
870.81256	0.87604
868.75876	0.88027
866.70495	0.88357
864.65115	0.88652
862.59735	0.88940
860.54354	0.89224
858.48974	0.89483
856.43594	0.89723
854.38213	0.89923
852.32833	0.90081
850.27453	0.90226
848.22073	0.90314
846.16692	0.90340
844.11312	0.90345
842.05932	0.90335
840.00551	0.90309
837.95171	0.90269
835.89791	0.90208
833.84410	0.90118
831.79030	0.89980
829.73650	0.89807
827.68269	0.89721
825.62889	0.89742
823.57509	0.89702
821.52128	0.89618
819.46748	0.89627
817.41368	0.89653
815.35987	0.89592
813.30607	0.89462
811.25227	0.89286
809.19846	0.89068
807.14466	0.88806
805.09086	0.88548
803.03705	0.88331
800.98325	0.88113
798.92945	0.87885
796.87565	0.87694
794.82184	0.87617
792.76804	0.87685
790.71424	0.87779
788.66043	0.87796
786.60663	0.87756
784.55283	0.87675
782.49902	0.87546
780.44522	0.87455
778.39142	0.87484
776.33761	0.87540
774.28381	0.87549
772.23001	0.87579
770.17620	0.87611
768.12240	0.87496
766.06860	0.87268
764.01479	0.87087
761.96099	0.86915
759.90719	0.86710
757.85338	0.86536
755.79958	0.86373
753.74578	0.86226
751.69197	0.86139
749.63817	0.86061
747.58437	0.85971
745.53056	0.85928
743.47676	0.85928
741.42296	0.85936
739.36916	0.85926
737.31535	0.85706
735.26155	0.84757
733.20775	0.82515
731.15394	0.79855
729.10014	0.78831
727.04634	0.79308
724.99253	0.79142
722.93873	0.77106
720.88493	0.73581
718.83112	0.70984
716.77732	0.71632
714.72352	0.74785
712.66971	0.78187
710.61591	0.80465
708.56211	0.81551
706.50830	0.81871
704.45450	0.81805
702.40070	0.81634
700.34689	0.81477
698.29309	0.81305
696.23929	0.81147
694.18548	0.81078
692.13168	0.81058
690.07788	0.81029
688.02408	0.81049
685.97027	0.81164
683.91647	0.81299
681.86267	0.81422
679.80886	0.81565
677.75506	0.81699
675.70126	0.81781
673.64745	0.81844
671.59365	0.81925
669.53985	0.82031
667.48604	0.82252
665.43224	0.82517
663.37844	0.82692
661.32463	0.82786
659.27083	0.82804
657.21703	0.82789
655.16322	0.82807
653.10942	0.82827
651.05562	0.82822
649.00181	0.82864
646.94801	0.82953
644.89421	0.82979
642.84040	0.82902
640.78660	0.82744
638.73280	0.82593
636.67899	0.82569
634.62519	0.82645
632.57139	0.82729
630.51759	0.82713
628.46378	0.82535
626.40998	0.82366
624.35618	0.82346
622.30237	0.82343
620.24857	0.82222
618.19477	0.81975
616.14096	0.81671
614.08716	0.81403
612.03336	0.81186
609.97955	0.81004
607.92575	0.80794
605.87195	0.80433
603.81814	0.80009
601.76434	0.79766
599.71054	0.79708
597.65673	0.79641
595.60293	0.79459
593.54913	0.79216
591.49532	0.78989
589.44152	0.78784
587.38772	0.78520
585.33391	0.78207
583.28011	0.77908
581.22631	0.77541
579.17250	0.77128
577.11870	0.76764
575.06490	0.76466
573.01110	0.76194
570.95729	0.75880
568.90349	0.75556
566.84969	0.75159
564.79588	0.74541
562.74208	0.73882
560.68828	0.73383
558.63447	0.72931
556.58067	0.72532
554.52687	0.72250
552.47306	0.71825
550.41926	0.71196
548.36546	0.70553
546.31165	0.69792
544.25785	0.68924
542.20405	0.68106
540.15024	0.67360
538.09644	0.66875
536.04264	0.66645
533.98883	0.66340
531.93503	0.66039
529.88123	0.66035
527.82742	0.66184
525.77362	0.66177
523.71982	0.66183
521.66602	0.66471
519.61221	0.66969
517.55841	0.67619
515.50461	0.68329
513.45080	0.68943
511.39700	0.69474
509.34320	0.70082
507.28939	0.70768
505.23559	0.71192
503.18179	0.71245
501.12798	0.71169
499.07418	0.71062
497.02038	0.70905
494.96657	0.70828
492.91277	0.70768
490.85897	0.70475
488.80516	0.69976
486.75136	0.69387
484.69756	0.68660
482.64375	0.67773
480.58995	0.66690
478.53615	0.65277
476.48234	0.63813
474.42854	0.62405
472.37474	0.60679
470.32093	0.59159
468.26713	0.58489
466.21333	0.58523
464.15953	0.59025
462.10572	0.59869
460.05192	0.60829
457.99812	0.61637
455.94431	0.62205
453.89051	0.62789
451.83671	0.63550
449.78290	0.64194
447.72910	0.64654
445.67530	0.64999
443.62149	0.64982
441.56769	0.64818
439.51389	0.64938
437.46008	0.64930
435.40628	0.64362
433.35248	0.63786
431.29867	0.63833
429.24487	0.64257
427.19107	0.64592
425.13726	0.64833
423.08346	0.64981
421.02966	0.64955
418.97585	0.65554
416.92205	0.67010
414.86825	0.67969
412.81445	0.68716
410.76064	0.69824
408.70684	0.70969
406.65304	0.71798
404.59923	0.72422
402.54543	0.72622
400.49163	0.72562
398.43782	0.73265
