3996.70104	0.94805
3994.64724	0.94756
3992.59344	0.94719
3990.53964	0.94674
3988.48583	0.94659
3986.43203	0.94736
3984.37823	0.94837
3982.32442	0.94873
3980.27062	0.94875
3978.21682	0.94880
3976.16301	0.94874
3974.10921	0.94853
3972.05541	0.94812
3970.00160	0.94766
3967.94780	0.94752
3965.89400	0.94732
3963.84019	0.94695
3961.78639	0.94725
3959.73259	0.94804
3957.67878	0.94807
3955.62498	0.94753
3953.57118	0.94744
3951.51737	0.94773
3949.46357	0.94785
3947.40977	0.94802
3945.35596	0.94845
3943.30216	0.94843
3941.24836	0.94808
3939.19455	0.94826
3937.14075	0.94862
3935.08695	0.94890
3933.03315	0.94941
3930.97934	0.94938
3928.92554	0.94879
3926.87174	0.94910
3924.81793	0.94983
3922.76413	0.94946
3920.71033	0.94853
3918.65652	0.94817
3916.60272	0.94826
3914.54892	0.94837
3912.49511	0.94852
3910.44131	0.94867
3908.38751	0.94871
3906.33370	0.94879
3904.27990	0.94899
3902.22610	0.94860
3900.17229	0.94819
3898.11849	0.94871
3896.06469	0.94930
3894.01088	0.94938
3891.95708	0.94898
3889.90328	0.94859
3887.84947	0.94847
3885.79567	0.94829
3883.74187	0.94789
3881.68807	0.94783
3879.63426	0.94839
3877.58046	0.94879
3875.52666	0.94857
3873.47285	0.94788
3871.41905	0.94744
3869.36525	0.94757
3867.31144	0.94813
3865.25764	0.94924
3863.20384	0.94990
3861.15003	0.94885
3859.09623	0.94767
3857.04243	0.94767
3854.98862	0.94861
3852.93482	0.94972
3850.88102	0.94963
3848.82721	0.94896
3846.77341	0.94875
3844.71961	0.94915
3842.66580	0.94952
3840.61200	0.94917
3838.55820	0.94873
3836.50439	0.94885
3834.45059	0.94913
3832.39679	0.94956
3830.34298	0.94993
3828.28918	0.94973
3826.23538	0.94935
3824.18158	0.94939
3822.12777	0.94946
3820.07397	0.94863
3818.02017	0.94790
3815.96636	0.94815
3813.91256	0.94844
3811.85876	0.94876
3809.80495	0.94952
3807.75115	0.94970
3805.69735	0.94863
3803.64354	0.94795
3801.58974	0.94861
3799.53594	0.94958
3797.48213	0.94973
3795.42833	0.94944
3793.37453	0.94937
3791.32072	0.94932
3789.26692	0.94903
3787.21312	0.94913
3785.15931	0.94967
3783.10551	0.94995
3781.05171	0.95017
3778.99790	0.95045
3776.94410	0.94999
3774.89030	0.94902
3772.83650	0.94866
3770.78269	0.94942
3768.72889	0.95023
3766.67509	0.94981
3764.62128	0.94908
3762.56748	0.94930
3760.51368	0.95014
3758.45987	0.95066
3756.40607	0.95047
3754.35227	0.95031
3752.29846	0.95062
3750.24466	0.94989
3748.19086	0.94821
3746.13705	0.94797
3744.08325	0.94920
3742.02945	0.95017
3739.97564	0.95060
3737.92184	0.95096
3735.86804	0.95087
3733.81423	0.95019
3731.76043	0.95006
3729.70663	0.95051
3727.65282	0.95111
3725.59902	0.95216
3723.54522	0.95299
3721.49141	0.95250
3719.43761	0.95166
3717.38381	0.95128
3715.33001	0.95044
3713.27620	0.94869
3711.22240	0.94741
3709.16860	0.94775
3707.11479	0.94758
3705.06099	0.94646
3703.00719	0.94578
3700.95338	0.94532
3698.89958	0.94414
3696.84578	0.94293
3694.79197	0.94204
3692.73817	0.94163
3690.68437	0.94231
3688.63056	0.94381
3686.57676	0.94453
3684.52296	0.94456
3682.46915	0.94445
3680.41535	0.94441
3678.36155	0.94432
3676.30774	0.94356
3674.25394	0.94314
3672.20014	0.94422
3670.14633	0.94491
3668.09253	0.94407
3666.03873	0.94326
3663.98492	0.94293
3661.93112	0.94266
3659.87732	0.94271
3657.82352	0.94284
3655.76971	0.94230
3653.71591	0.94187
3651.66211	0.94232
3649.60830	0.94233
3647.55450	0.94061
3645.50070	0.93929
3643.44689	0.93908
3641.39309	0.93944
3639.33929	0.93959
3637.28548	0.93967
3635.23168	0.94051
3633.17788	0.94130
3631.12407	0.94092
3629.07027	0.93954
3627.01647	0.93802
3624.96266	0.93704
3622.90886	0.93646
3620.85506	0.93594
3618.80125	0.93528
3616.74745	0.93526
3614.69365	0.93587
3612.63984	0.93622
3610.58604	0.93636
3608.53224	0.93676
3606.47844	0.93718
3604.42463	0.93718
3602.37083	0.93711
3600.31703	0.93723
3598.26322	0.93711
3596.20942	0.93680
3594.15562	0.93660
3592.10181	0.93633
3590.04801	0.93619
3587.99421	0.93665
3585.94040	0.93734
3583.88660	0.93722
3581.83280	0.93672
3579.77899	0.93655
3577.72519	0.93635
3575.67139	0.93565
3573.61758	0.93504
3571.56378	0.93506
3569.50998	0.93523
3567.45617	0.93566
3565.40237	0.93635
3563.34857	0.93594
3561.29476	0.93476
3559.24096	0.93377
3557.18716	0.93337
3555.13335	0.93326
3553.07955	0.93302
3551.02575	0.93269
3548.97195	0.93257
3546.91814	0.93289
3544.86434	0.93356
3542.81054	0.93405
3540.75673	0.93395
3538.70293	0.93352
3536.64913	0.93324
3534.59532	0.93302
3532.54152	0.93282
3530.48772	0.93269
3528.43391	0.93228
3526.38011	0.93182
3524.32631	0.93184
3522.27250	0.93205
3520.21870	0.93239
3518.16490	0.93251
3516.11109	0.93202
3514.05729	0.93159
3512.00349	0.93160
3509.94968	0.93190
3507.89588	0.93244
3505.84208	0.93281
3503.78827	0.93275
3501.73447	0.93240
3499.68067	0.93205
3497.62687	0.93179
3495.57306	0.93162
3493.51926	0.93149
3491.46546	0.93119
3489.41165	0.93111
3487.35785	0.93142
3485.30405	0.93145
3483.25024	0.93135
3481.19644	0.93133
3479.14264	0.93090
3477.08883	0.93029
3475.03503	0.92999
3472.98123	0.92985
3470.92742	0.92996
3468.87362	0.93032
3466.81982	0.93051
3464.76601	0.93049
3462.71221	0.93000
3460.65841	0.92933
3458.60460	0.92904
3456.55080	0.92852
3454.49700	0.92783
3452.44319	0.92788
3450.38939	0.92847
3448.33559	0.92872
3446.28178	0.92842
3444.22798	0.92796
3442.17418	0.92764
3440.12038	0.92776
3438.06657	0.92839
3436.01277	0.92899
3433.95897	0.92892
3431.90516	0.92825
3429.85136	0.92777
3427.79756	0.92777
3425.74375	0.92783
3423.68995	0.92777
3421.63615	0.92769
3419.58234	0.92762
3417.52854	0.92768
3415.47474	0.92805
3413.42093	0.92821
3411.36713	0.92786
3409.31333	0.92736
3407.25952	0.92694
3405.20572	0.92692
3403.15192	0.92748
3401.09811	0.92771
3399.04431	0.92691
3396.99051	0.92638
3394.93670	0.92683
3392.88290	0.92695
3390.82910	0.92646
3388.77529	0.92652
3386.72149	0.92716
3384.66769	0.92742
3382.61389	0.92735
3380.56008	0.92727
3378.50628	0.92679
3376.45248	0.92646
3374.39867	0.92691
3372.34487	0.92742
3370.29107	0.92744
3368.23726	0.92712
3366.18346	0.92672
3364.12966	0.92640
3362.07585	0.92626
3360.02205	0.92633
3357.96825	0.92658
3355.91444	0.92704
3353.86064	0.92755
3351.80684	0.92746
3349.75303	0.92679
3347.69923	0.92651
3345.64543	0.92665
3343.59162	0.92658
3341.53782	0.92638
3339.48402	0.92652
3337.43021	0.92684
3335.37641	0.92684
3333.32261	0.92698
3331.26881	0.92742
3329.21500	0.92739
3327.16120	0.92743
3325.10740	0.92815
3323.05359	0.92880
3320.99979	0.92898
3318.94599	0.92874
3316.89218	0.92860
3314.83838	0.92874
3312.78458	0.92857
3310.73077	0.92793
3308.67697	0.92713
3306.62317	0.92695
3304.56936	0.92772
3302.51556	0.92861
3300.46176	0.92916
3298.40795	0.92958
3296.35415	0.92972
3294.30035	0.92948
3292.24654	0.92942
3290.19274	0.92941
3288.13894	0.92914
3286.08513	0.92902
3284.03133	0.92911
3281.97753	0.92911
3279.92372	0.92903
3277.86992	0.92911
3275.81612	0.92919
3273.76232	0.92918
3271.70851	0.92929
3269.65471	0.92941
3267.60091	0.92944
3265.54710	0.92948
3263.49330	0.92977
3261.43950	0.93020
3259.38569	0.93019
3257.33189	0.92984
3255.27809	0.92984
3253.22428	0.93008
3251.17048	0.93009
3249.11668	0.92989
3247.06287	0.92983
3245.00907	0.93004
3242.95527	0.93036
3240.90146	0.93065
3238.84766	0.93069
3236.79386	0.93081
3234.74005	0.93135
3232.68625	0.93175
3230.63245	0.93163
3228.57864	0.93122
3226.52484	0.93102
3224.47104	0.93117
3222.41724	0.93137
3220.36343	0.93182
3218.30963	0.93249
3216.25583	0.93252
3214.20202	0.93182
3212.14822	0.93131
3210.09442	0.93152
3208.04061	0.93207
3205.98681	0.93249
3203.93301	0.93270
3201.87920	0.93275
3199.82540	0.93285
3197.77160	0.93317
3195.71779	0.93364
3193.66399	0.93388
3191.61019	0.93361
3189.55638	0.93353
3187.50258	0.93406
3185.44878	0.93448
3183.39497	0.93411
3181.34117	0.93350
3179.28737	0.93353
3177.23356	0.93415
3175.17976	0.93480
3173.12596	0.93514
3171.07215	0.93508
3169.01835	0.93484
3166.96455	0.93468
3164.91075	0.93474
3162.85694	0.93491
3160.80314	0.93488
3158.74934	0.93475
3156.69553	0.93467
3154.64173	0.93453
3152.58793	0.93459
3150.53412	0.93507
3148.48032	0.93569
3146.42652	0.93596
3144.37271	0.93601
3142.31891	0.93641
3140.26511	0.93687
3138.21130	0.93707
3136.15750	0.93718
3134.10370	0.93697
3132.04989	0.93665
3129.99609	0.93671
3127.94229	0.93702
3125.88848	0.93754
3123.83468	0.93817
3121.78088	0.93864
3119.72707	0.93891
3117.67327	0.93890
3115.61947	0.93848
3113.56566	0.93792
3111.51186	0.93768
3109.45806	0.93743
3107.40426	0.93665
3105.35045	0.93575
3103.29665	0.93539
3101.24285	0.93570
3099.18904	0.93609
3097.13524	0.93606
3095.08144	0.93593
3093.02763	0.93587
3090.97383	0.93520
3088.92003	0.93379
3086.86622	0.93208
3084.81242	0.93022
3082.75862	0.92879
3080.70481	0.92868
3078.65101	0.92967
3076.59721	0.93093
3074.54340	0.93161
3072.48960	0.93166
3070.43580	0.93159
3068.38199	0.93082
3066.32819	0.92855
3064.27439	0.92553
3062.22058	0.92335
3060.16678	0.92256
3058.11298	0.92301
3056.05918	0.92438
3054.00537	0.92613
3051.95157	0.92827
3049.89777	0.93042
3047.84396	0.93175
3045.79016	0.93229
3043.73636	0.93264
3041.68255	0.93287
3039.62875	0.93225
3037.57495	0.93055
3035.52114	0.92808
3033.46734	0.92475
3031.41354	0.91999
3029.35973	0.91380
3027.30593	0.90798
3025.25213	0.90479
3023.19832	0.90550
3021.14452	0.90986
3019.09072	0.91557
3017.03691	0.92071
3014.98311	0.92519
3012.92931	0.92871
3010.87550	0.93057
3008.82170	0.93094
3006.76790	0.93057
3004.71409	0.93024
3002.66029	0.93021
3000.60649	0.93031
2998.55269	0.93105
2996.49888	0.93272
2994.44508	0.93443
2992.39128	0.93561
2990.33747	0.93656
2988.28367	0.93747
2986.22987	0.93803
2984.17606	0.93807
2982.12226	0.93780
2980.06846	0.93751
2978.01465	0.93752
2975.96085	0.93756
2973.90705	0.93731
2971.85324	0.93714
2969.79944	0.93694
2967.74564	0.93629
2965.69183	0.93564
2963.63803	0.93499
2961.58423	0.93372
2959.53042	0.93210
2957.47662	0.93090
2955.42282	0.93014
2953.36901	0.92950
2951.31521	0.92889
2949.26141	0.92815
2947.20761	0.92697
2945.15380	0.92522
2943.10000	0.92281
2941.04620	0.91982
2938.99239	0.91645
2936.93859	0.91286
2934.88479	0.90906
2932.83098	0.90457
2930.77718	0.89953
2928.72338	0.89466
2926.66957	0.89009
2924.61577	0.88567
2922.56197	0.88167
2920.50816	0.87882
2918.45436	0.87779
2916.40056	0.87888
2914.34675	0.88169
2912.29295	0.88541
2910.23915	0.88909
2908.18534	0.89253
2906.13154	0.89606
2904.07774	0.89930
2902.02393	0.90206
2899.97013	0.90496
2897.91633	0.90809
2895.86252	0.91073
2893.80872	0.91268
2891.75492	0.91456
2889.70112	0.91654
2887.64731	0.91819
2885.59351	0.91914
2883.53971	0.91982
2881.48590	0.92071
2879.43210	0.92173
2877.37830	0.92260
2875.32449	0.92294
2873.27069	0.92312
2871.21689	0.92377
2869.16308	0.92449
2867.10928	0.92464
2865.05548	0.92412
2863.00167	0.92309
2860.94787	0.92156
2858.89407	0.91942
2856.84026	0.91653
2854.78646	0.91309
2852.73266	0.90986
2850.67885	0.90774
2848.62505	0.90752
2846.57125	0.90927
2844.51744	0.91244
2842.46364	0.91636
2840.40984	0.92005
2838.35603	0.92304
2836.30223	0.92575
2834.24843	0.92804
2832.19463	0.92963
2830.14082	0.93082
2828.08702	0.93178
2826.03322	0.93259
2823.97941	0.93342
2821.92561	0.93401
2819.87181	0.93418
2817.81800	0.93422
2815.76420	0.93427
2813.71040	0.93444
2811.65659	0.93466
2809.60279	0.93482
2807.54899	0.93507
2805.49518	0.93547
2803.44138	0.93596
2801.38758	0.93654
2799.33377	0.93687
2797.27997	0.93672
2795.22617	0.93663
2793.17236	0.93680
2791.11856	0.93681
2789.06476	0.93673
2787.01095	0.93682
2784.95715	0.93716
2782.90335	0.93765
2780.84955	0.93786
2778.79574	0.93783
2776.74194	0.93800
2774.68814	0.93827
2772.63433	0.93838
2770.58053	0.93850
2768.52673	0.93872
2766.47292	0.93883
2764.41912	0.93888
2762.36532	0.93898
2760.31151	0.93905
2758.25771	0.93904
2756.20391	0.93902
2754.15010	0.93916
2752.09630	0.93941
2750.04250	0.93944
2747.98869	0.93935
2745.93489	0.93943
2743.88109	0.93949
2741.82728	0.93943
2739.77348	0.93937
2737.71968	0.93936
2735.66587	0.93953
2733.61207	0.93975
2731.55827	0.93978
2729.50446	0.93973
2727.45066	0.93967
2725.39686	0.93949
2723.34306	0.93941
2721.28925	0.93963
2719.23545	0.93994
2717.18165	0.94003
2715.12784	0.93995
2713.07404	0.93986
2711.02024	0.93986
2708.96643	0.93990
2706.91263	0.93986
2704.85883	0.94002
2702.80502	0.94050
2700.75122	0.94076
2698.69742	0.94050
2696.64361	0.94021
2694.58981	0.94043
2692.53601	0.94069
2690.48220	0.94051
2688.42840	0.94024
2686.37460	0.94031
2684.32079	0.94058
2682.26699	0.94070
2680.21319	0.94078
2678.15938	0.94082
2676.10558	0.94066
2674.05178	0.94043
2671.99797	0.94034
2669.94417	0.94045
2667.89037	0.94064
2665.83657	0.94060
2663.78276	0.94041
2661.72896	0.94034
2659.67516	0.94050
2657.62135	0.94079
2655.56755	0.94089
2653.51375	0.94076
2651.45994	0.94065
2649.40614	0.94047
2647.35234	0.94029
2645.29853	0.94043
2643.24473	0.94050
2641.19093	0.94012
2639.13712	0.93974
2637.08332	0.93965
2635.02952	0.93978
2632.97571	0.94026
2630.92191	0.94091
2628.86811	0.94140
2626.81430	0.94145
2624.76050	0.94113
2622.70670	0.94115
2620.65289	0.94165
2618.59909	0.94213
2616.54529	0.94240
2614.49149	0.94235
2612.43768	0.94200
2610.38388	0.94179
2608.33008	0.94190
2606.27627	0.94208
2604.22247	0.94237
2602.16867	0.94271
2600.11486	0.94262
2598.06106	0.94224
2596.00726	0.94221
2593.95345	0.94243
2591.89965	0.94260
2589.84585	0.94286
2587.79204	0.94305
2585.73824	0.94298
2583.68444	0.94285
2581.63063	0.94278
2579.57683	0.94277
2577.52303	0.94291
2575.46922	0.94352
2573.41542	0.94423
2571.36162	0.94416
2569.30781	0.94331
2567.25401	0.94276
2565.20021	0.94298
2563.14640	0.94312
2561.09260	0.94256
2559.03880	0.94186
2556.98500	0.94177
2554.93119	0.94226
2552.87739	0.94300
2550.82359	0.94371
2548.76978	0.94406
2546.71598	0.94404
2544.66218	0.94387
2542.60837	0.94377
2540.55457	0.94380
2538.50077	0.94368
2536.44696	0.94346
2534.39316	0.94337
2532.33936	0.94341
2530.28555	0.94376
2528.23175	0.94381
2526.17795	0.94294
2524.12414	0.94247
2522.07034	0.94345
2520.01654	0.94438
2517.96273	0.94383
2515.90893	0.94279
2513.85513	0.94279
2511.80132	0.94324
2509.74752	0.94314
2507.69372	0.94306
2505.63992	0.94344
2503.58611	0.94374
2501.53231	0.94362
2499.47851	0.94371
2497.42470	0.94415
2495.37090	0.94414
2493.31710	0.94364
2491.26329	0.94342
2489.20949	0.94366
2487.15569	0.94394
2485.10188	0.94396
2483.04808	0.94379
2480.99428	0.94379
2478.94047	0.94429
2476.88667	0.94479
2474.83287	0.94480
2472.77906	0.94465
2470.72526	0.94429
2468.67146	0.94412
2466.61765	0.94486
2464.56385	0.94566
2462.51005	0.94549
2460.45624	0.94501
2458.40244	0.94472
2456.34864	0.94437
2454.29483	0.94421
2452.24103	0.94447
2450.18723	0.94459
2448.13343	0.94447
2446.07962	0.94439
2444.02582	0.94412
2441.97202	0.94392
2439.91821	0.94409
2437.86441	0.94417
2435.81061	0.94390
2433.75680	0.94362
2431.70300	0.94370
2429.64920	0.94374
2427.59539	0.94365
2425.54159	0.94413
2423.48779	0.94485
2421.43398	0.94495
2419.38018	0.94479
2417.32638	0.94501
2415.27257	0.94535
2413.21877	0.94530
2411.16497	0.94483
2409.11116	0.94433
2407.05736	0.94420
2405.00356	0.94443
2402.94975	0.94479
2400.89595	0.94501
2398.84215	0.94498
2396.78834	0.94488
2394.73454	0.94482
2392.68074	0.94467
2390.62694	0.94475
2388.57313	0.94498
2386.51933	0.94493
2384.46553	0.94483
2382.41172	0.94476
2380.35792	0.94491
2378.30412	0.94537
2376.25031	0.94543
2374.19651	0.94518
2372.14271	0.94508
2370.08890	0.94514
2368.03510	0.94533
2365.98130	0.94541
2363.92749	0.94505
2361.87369	0.94449
2359.81989	0.94430
2357.76608	0.94430
2355.71228	0.94461
2353.65848	0.94481
2351.60467	0.94455
2349.55087	0.94450
2347.49707	0.94469
2345.44326	0.94470
2343.38946	0.94443
2341.33566	0.94389
2339.28186	0.94344
2337.22805	0.94376
2335.17425	0.94432
2333.12045	0.94435
2331.06664	0.94423
2329.01284	0.94408
2326.95904	0.94362
2324.90523	0.94317
2322.85143	0.94311
2320.79763	0.94322
2318.74382	0.94344
2316.69002	0.94390
2314.63622	0.94410
2312.58241	0.94361
2310.52861	0.94321
2308.47481	0.94361
2306.42100	0.94424
2304.36720	0.94412
2302.31340	0.94369
2300.25959	0.94387
2298.20579	0.94430
2296.15199	0.94448
2294.09818	0.94411
2292.04438	0.94308
2289.99058	0.94252
2287.93677	0.94299
2285.88297	0.94326
2283.82917	0.94326
2281.77537	0.94392
2279.72156	0.94491
2277.66776	0.94565
2275.61396	0.94582
2273.56015	0.94530
2271.50635	0.94446
2269.45255	0.94385
2267.39874	0.94378
2265.34494	0.94480
2263.29114	0.94644
2261.23733	0.94687
2259.18353	0.94610
2257.12973	0.94541
2255.07592	0.94525
2253.02212	0.94533
2250.96832	0.94491
2248.91451	0.94446
2246.86071	0.94448
2244.80691	0.94430
2242.75310	0.94433
2240.69930	0.94471
2238.64550	0.94532
2236.59169	0.94662
2234.53789	0.94759
2232.48409	0.94757
2230.43029	0.94659
2228.37648	0.94547
2226.32268	0.94548
2224.26888	0.94662
2222.21507	0.94798
2220.16127	0.94862
2218.10747	0.94934
2216.05366	0.95003
2213.99986	0.94950
2211.94606	0.94919
2209.89225	0.95008
2207.83845	0.95081
2205.78465	0.95011
2203.73084	0.94835
2201.67704	0.94723
2199.62324	0.94768
2197.56943	0.94811
2195.51563	0.94680
2193.46183	0.94518
2191.40802	0.94544
2189.35422	0.94763
2187.30042	0.94966
2185.24661	0.94979
2183.19281	0.94963
2181.13901	0.95014
2179.08520	0.94971
2177.03140	0.94824
2174.97760	0.94708
2172.92380	0.94724
2170.86999	0.94951
2168.81619	0.95269
2166.76239	0.95255
2164.70858	0.94921
2162.65478	0.94725
2160.60098	0.94706
2158.54717	0.94808
2156.49337	0.95053
2154.43957	0.95224
2152.38576	0.95138
2150.33196	0.94839
2148.27816	0.94645
2146.22435	0.94657
2144.17055	0.94762
2142.11675	0.94916
2140.06294	0.95012
2138.00914	0.95017
2135.95534	0.94987
2133.90153	0.95023
2131.84773	0.95112
2129.79393	0.95111
2127.74012	0.95026
2125.68632	0.94966
2123.63252	0.94943
2121.57871	0.94938
2119.52491	0.94967
2117.47111	0.94985
2115.41731	0.94944
2113.36350	0.94864
2111.30970	0.94781
2109.25590	0.94702
2107.20209	0.94633
2105.14829	0.94629
2103.09449	0.94702
2101.04068	0.94775
2098.98688	0.94752
2096.93308	0.94696
2094.87927	0.94727
2092.82547	0.94762
2090.77167	0.94734
2088.71786	0.94721
2086.66406	0.94751
2084.61026	0.94835
2082.55645	0.94964
2080.50265	0.94980
2078.44885	0.94819
2076.39504	0.94626
2074.34124	0.94545
2072.28744	0.94582
2070.23363	0.94707
2068.17983	0.94842
2066.12603	0.94814
2064.07223	0.94668
2062.01842	0.94605
2059.96462	0.94689
2057.91082	0.94814
2055.85701	0.94831
2053.80321	0.94807
2051.74941	0.94905
2049.69560	0.95071
2047.64180	0.95090
2045.58800	0.94933
2043.53419	0.94881
2041.48039	0.95032
2039.42659	0.95096
2037.37278	0.94864
2035.31898	0.94586
2033.26518	0.94726
2031.21137	0.95167
2029.15757	0.95292
2027.10377	0.95038
2025.04996	0.94905
2022.99616	0.94953
2020.94236	0.94978
2018.88855	0.95103
2016.83475	0.95325
2014.78095	0.95361
2012.72714	0.95156
2010.67334	0.94991
2008.61954	0.94965
2006.56574	0.94964
2004.51193	0.94951
2002.45813	0.94904
2000.40433	0.94906
1998.35052	0.94962
1996.29672	0.95014
1994.24292	0.95089
1992.18911	0.95105
1990.13531	0.95017
1988.08151	0.94905
1986.02770	0.94754
1983.97390	0.94583
1981.92010	0.94566
1979.86629	0.94688
1977.81249	0.94760
1975.75869	0.94827
1973.70488	0.94952
1971.65108	0.95084
1969.59728	0.95234
1967.54347	0.95395
1965.48967	0.95427
1963.43587	0.95245
1961.38206	0.94961
1959.32826	0.94741
1957.27446	0.94666
1955.22066	0.94647
1953.16685	0.94642
1951.11305	0.94674
1949.05925	0.94630
1947.00544	0.94529
1944.95164	0.94575
1942.89784	0.94713
1940.84403	0.94743
1938.79023	0.94673
1936.73643	0.94629
1934.68262	0.94669
1932.62882	0.94698
1930.57502	0.94638
1928.52121	0.94583
1926.46741	0.94664
1924.41361	0.94791
1922.35980	0.94811
1920.30600	0.94796
1918.25220	0.94827
1916.19839	0.94864
1914.14459	0.94884
1912.09079	0.94889
1910.03698	0.94859
1907.98318	0.94800
1905.92938	0.94796
1903.87557	0.94812
1901.82177	0.94782
1899.76797	0.94805
1897.71417	0.94910
1895.66036	0.94963
1893.60656	0.94908
1891.55276	0.94828
1889.49895	0.94759
1887.44515	0.94704
1885.39135	0.94668
1883.33754	0.94639
1881.28374	0.94583
1879.22994	0.94505
1877.17613	0.94443
1875.12233	0.94377
1873.06853	0.94353
1871.01472	0.94437
1868.96092	0.94510
1866.90712	0.94439
1864.85331	0.94384
1862.79951	0.94441
1860.74571	0.94512
1858.69190	0.94604
1856.63810	0.94719
1854.58430	0.94763
1852.53049	0.94774
1850.47669	0.94828
1848.42289	0.94849
1846.36908	0.94783
1844.31528	0.94728
1842.26148	0.94742
1840.20768	0.94779
1838.15387	0.94792
1836.10007	0.94773
1834.04627	0.94738
1831.99246	0.94721
1829.93866	0.94748
1827.88486	0.94767
1825.83105	0.94735
1823.77725	0.94653
1821.72345	0.94582
1819.66964	0.94564
1817.61584	0.94579
1815.56204	0.94602
1813.50823	0.94586
1811.45443	0.94522
1809.40063	0.94480
1807.34682	0.94488
1805.29302	0.94463
1803.23922	0.94401
1801.18541	0.94386
1799.13161	0.94405
1797.07781	0.94402
1795.02400	0.94430
1792.97020	0.94498
1790.91640	0.94509
1788.86260	0.94481
1786.80879	0.94469
1784.75499	0.94454
1782.70119	0.94454
1780.64738	0.94470
1778.59358	0.94493
1776.53978	0.94528
1774.48597	0.94555
1772.43217	0.94566
1770.37837	0.94534
1768.32456	0.94485
1766.27076	0.94477
1764.21696	0.94472
1762.16315	0.94408
1760.10935	0.94346
1758.05555	0.94347
1756.00174	0.94305
1753.94794	0.94206
1751.89414	0.94089
1749.84033	0.93934
1747.78653	0.93781
1745.73273	0.93658
1743.67892	0.93550
1741.62512	0.93491
1739.57132	0.93525
1737.51751	0.93611
1735.46371	0.93686
1733.40991	0.93775
1731.35611	0.93872
1729.30230	0.93921
1727.24850	0.93939
1725.19470	0.93962
1723.14089	0.94000
1721.08709	0.94063
1719.03329	0.94148
1716.97948	0.94200
1714.92568	0.94214
1712.87188	0.94222
1710.81807	0.94206
1708.76427	0.94198
1706.71047	0.94218
1704.65666	0.94208
1702.60286	0.94163
1700.54906	0.94144
1698.49525	0.94134
1696.44145	0.94038
1694.38765	0.93926
1692.33384	0.93889
1690.28004	0.93890
1688.22624	0.93891
1686.17243	0.93886
1684.11863	0.93830
1682.06483	0.93722
1680.01103	0.93646
1677.95722	0.93587
1675.90342	0.93526
1673.84962	0.93471
1671.79581	0.93409
1669.74201	0.93303
1667.68821	0.93203
1665.63440	0.93165
1663.58060	0.93163
1661.52680	0.93164
1659.47299	0.93135
1657.41919	0.93082
1655.36539	0.93018
1653.31158	0.92942
1651.25778	0.92934
1649.20398	0.92990
1647.15017	0.93034
1645.09637	0.93031
1643.04257	0.93042
1640.98876	0.93060
1638.93496	0.93039
1636.88116	0.92994
1634.82735	0.92985
1632.77355	0.93004
1630.71975	0.93010
1628.66594	0.92993
1626.61214	0.92969
1624.55834	0.92924
1622.50454	0.92853
1620.45073	0.92849
1618.39693	0.92914
1616.34313	0.92967
1614.28932	0.92955
1612.23552	0.92896
1610.18172	0.92730
1608.12791	0.92353
1606.07411	0.91747
1604.02031	0.91003
1601.96650	0.90366
1599.91270	0.90209
1597.85890	0.90565
1595.80509	0.91119
1593.75129	0.91603
1591.69749	0.91940
1589.64368	0.92131
1587.58988	0.92138
1585.53608	0.91940
1583.48227	0.91699
1581.42847	0.91643
1579.37467	0.91755
1577.32086	0.91908
1575.26706	0.92047
1573.21326	0.92180
1571.15945	0.92361
1569.10565	0.92577
1567.05185	0.92700
1564.99805	0.92755
1562.94424	0.92824
1560.89044	0.92940
1558.83664	0.93040
1556.78283	0.92976
1554.72903	0.92936
1552.67523	0.92935
1550.62142	0.92898
1548.56762	0.92824
1546.51382	0.92757
1544.46001	0.92684
1542.40621	0.92578
1540.35241	0.92489
1538.29860	0.92551
1536.24480	0.92680
1534.19100	0.92850
1532.13719	0.93045
1530.08339	0.93174
1528.02959	0.93295
1525.97578	0.93445
1523.92198	0.93571
1521.86818	0.93651
1519.81437	0.93704
1517.76057	0.93735
1515.70677	0.93707
1513.65297	0.93650
1511.59916	0.93655
1509.54536	0.93745
1507.49156	0.93812
1505.43775	0.93710
1503.38395	0.93580
1501.33015	0.93373
1499.27634	0.92774
1497.22254	0.90950
1495.16874	0.88038
1493.11493	0.86092
1491.06113	0.86129
1489.00733	0.88115
1486.95352	0.90026
1484.89972	0.90976
1482.84592	0.91508
1480.79211	0.91849
1478.73831	0.92066
1476.68451	0.92200
1474.63070	0.92229
1472.57690	0.92128
1470.52310	0.92027
1468.46929	0.91995
1466.41549	0.91984
1464.36169	0.91986
1462.30788	0.91971
1460.25408	0.91836
1458.20028	0.91023
1456.14648	0.88508
1454.09267	0.86044
1452.03887	0.84821
1449.98507	0.84886
1447.93126	0.85892
1445.87746	0.86982
1443.82366	0.87819
1441.76985	0.88533
1439.71605	0.89090
1437.66225	0.89562
1435.60844	0.90094
1433.55464	0.90563
1431.50084	0.90933
1429.44703	0.91213
1427.39323	0.91391
1425.33943	0.91525
1423.28562	0.91642
1421.23182	0.91735
1419.17802	0.91818
1417.12421	0.91906
1415.07041	0.92006
1413.01661	0.92112
1410.96280	0.92223
1408.90900	0.92349
1406.85520	0.92461
1404.80139	0.92546
1402.74759	0.92624
1400.69379	0.92708
1398.63999	0.92791
1396.58618	0.92851
1394.53238	0.92881
1392.47858	0.92891
1390.42477	0.92869
1388.37097	0.92796
1386.31717	0.92681
1384.26336	0.92556
1382.20956	0.92442
1380.15576	0.92356
1378.10195	0.92299
1376.04815	0.92236
1373.99435	0.92143
1371.94054	0.92067
1369.88674	0.92055
1367.83294	0.92096
1365.77913	0.92165
1363.72533	0.92245
1361.67153	0.92304
1359.61772	0.92336
1357.56392	0.92361
1355.51012	0.92398
1353.45631	0.92441
1351.40251	0.92457
1349.34871	0.92457
1347.29491	0.92489
1345.24110	0.92554
1343.18730	0.92626
1341.13350	0.92697
1339.07969	0.92755
1337.02589	0.92768
1334.97209	0.92732
1332.91828	0.92673
1330.86448	0.92607
1328.81068	0.92559
1326.75687	0.92565
1324.70307	0.92613
1322.64927	0.92639
1320.59546	0.92636
1318.54166	0.92648
1316.48786	0.92659
1314.43405	0.92652
1312.38025	0.92643
1310.32645	0.92654
1308.27264	0.92696
1306.21884	0.92767
1304.16504	0.92828
1302.11123	0.92855
1300.05743	0.92861
1298.00363	0.92864
1295.94982	0.92897
1293.89602	0.92959
1291.84222	0.92979
1289.78842	0.92952
1287.73461	0.92938
1285.68081	0.92953
1283.62701	0.92980
1281.57320	0.92992
1279.51940	0.92985
1277.46560	0.92981
1275.41179	0.92986
1273.35799	0.92989
1271.30419	0.92994
1269.25038	0.93011
1267.19658	0.93038
1265.14278	0.93058
1263.08897	0.93071
1261.03517	0.93086
1258.98137	0.93098
1256.92756	0.93104
1254.87376	0.93088
1252.81996	0.93050
1250.76615	0.93033
1248.71235	0.93045
1246.65855	0.93046
1244.60474	0.93014
1242.55094	0.92973
1240.49714	0.92938
1238.44334	0.92918
1236.38953	0.92912
1234.33573	0.92900
1232.28193	0.92881
1230.22812	0.92857
1228.17432	0.92837
1226.12052	0.92815
1224.06671	0.92744
1222.01291	0.92650
1219.95911	0.92584
1217.90530	0.92532
1215.85150	0.92482
1213.79770	0.92393
1211.74389	0.92261
1209.69009	0.92144
1207.63629	0.92016
1205.58248	0.91847
1203.52868	0.91658
1201.47488	0.91458
1199.42107	0.91265
1197.36727	0.91105
1195.31347	0.90957
1193.25966	0.90781
1191.20586	0.90587
1189.15206	0.90380
1187.09825	0.90119
1185.04445	0.89781
1182.99065	0.89403
1180.93685	0.89098
1178.88304	0.88939
1176.82924	0.88878
1174.77544	0.88813
1172.72163	0.88684
1170.66783	0.88509
1168.61403	0.88347
1166.56022	0.88204
1164.50642	0.88044
1162.45262	0.87903
1160.39881	0.87772
1158.34501	0.87555
1156.29121	0.87273
1154.23740	0.87070
1152.18360	0.87026
1150.12980	0.87086
1148.07599	0.87164
1146.02219	0.87199
1143.96839	0.87184
1141.91458	0.87135
1139.86078	0.87061
1137.80698	0.86997
1135.75317	0.86956
1133.69937	0.86886
1131.64557	0.86731
1129.59176	0.86540
1127.53796	0.86382
1125.48416	0.86192
1123.43036	0.85914
1121.37655	0.85589
1119.32275	0.85237
1117.26895	0.84853
1115.21514	0.84455
1113.16134	0.84056
1111.10754	0.83679
1109.05373	0.83357
1106.99993	0.83091
1104.94613	0.82835
1102.89232	0.82601
1100.83852	0.82428
1098.78472	0.82260
1096.73091	0.82048
1094.67711	0.81832
1092.62331	0.81656
1090.56950	0.81520
1088.51570	0.81403
1086.46190	0.81275
1084.40809	0.81117
1082.35429	0.80933
1080.30049	0.80741
1078.24668	0.80536
1076.19288	0.80292
1074.13908	0.80018
1072.08528	0.79743
1070.03147	0.79478
1067.97767	0.79224
1065.92387	0.78989
1063.87006	0.78809
1061.81626	0.78659
1059.76246	0.78475
1057.70865	0.78281
1055.65485	0.78093
1053.60105	0.77868
1051.54724	0.77604
1049.49344	0.77291
1047.43964	0.76890
1045.38583	0.76417
1043.33203	0.75924
1041.27823	0.75440
1039.22442	0.74939
1037.17062	0.74364
1035.11682	0.73666
1033.06301	0.72819
1031.00921	0.71902
1028.95541	0.71134
1026.90160	0.70753
1024.84780	0.70777
1022.79400	0.70932
1020.74019	0.71014
1018.68639	0.71056
1016.63259	0.71110
1014.57879	0.71143
1012.52498	0.71091
1010.47118	0.71000
1008.41738	0.70952
1006.36357	0.70922
1004.30977	0.70911
1002.25597	0.71016
1000.20216	0.71300
998.14836	0.71681
996.09456	0.72052
994.04075	0.72410
991.98695	0.72765
989.93315	0.73103
987.87934	0.73466
985.82554	0.73874
983.77174	0.74302
981.71793	0.74761
979.66413	0.75299
977.61033	0.75925
975.55652	0.76595
973.50272	0.77264
971.44892	0.77885
969.39511	0.78422
967.34131	0.78872
965.28751	0.79272
963.23371	0.79708
961.17990	0.80220
959.12610	0.80730
957.07230	0.81161
955.01849	0.81515
952.96469	0.81833
950.91089	0.82144
948.85708	0.82425
946.80328	0.82654
944.74948	0.82867
942.69567	0.83073
940.64187	0.83274
938.58807	0.83503
936.53426	0.83731
934.48046	0.83917
932.42666	0.84118
930.37285	0.84364
928.31905	0.84581
926.26525	0.84733
924.21144	0.84839
922.15764	0.84908
920.10384	0.84906
918.05003	0.84805
915.99623	0.84636
913.94243	0.84408
911.88862	0.84140
909.83482	0.83909
907.78102	0.83824
905.72722	0.83967
903.67341	0.84343
901.61961	0.84896
899.56581	0.85534
897.51200	0.86163
895.45820	0.86720
893.40440	0.87201
891.35059	0.87610
889.29679	0.87907
887.24299	0.88092
885.18918	0.88239
883.13538	0.88347
881.08158	0.88374
879.02777	0.88402
876.97397	0.88497
874.92017	0.88647
872.86636	0.88849
870.81256	0.89083
868.75876	0.89312
866.70495	0.89528
864.65115	0.89713
862.59735	0.89860
860.54354	0.90015
858.48974	0.90181
856.43594	0.90317
854.38213	0.90421
852.32833	0.90492
850.27453	0.90489
848.22073	0.90343
846.16692	0.90133
844.11312	0.90068
842.05932	0.90086
840.00551	0.90051
837.95171	0.90065
835.89791	0.90156
833.84410	0.90258
831.79030	0.90344
829.73650	0.90392
827.68269	0.90453
825.62889	0.90536
823.57509	0.90608
821.52128	0.90658
819.46748	0.90720
817.41368	0.90828
815.35987	0.90888
813.30607	0.90802
811.25227	0.90569
809.19846	0.90246
807.14466	0.89902
805.09086	0.89528
803.03705	0.89091
800.98325	0.88684
798.92945	0.88485
796.87565	0.88464
794.82184	0.88468
792.76804	0.88423
790.71424	0.88311
788.66043	0.88203
786.60663	0.88105
784.55283	0.87914
782.49902	0.87588
780.44522	0.87129
778.39142	0.86655
776.33761	0.86199
774.28381	0.85594
772.23001	0.84806
770.17620	0.83846
768.12240	0.82738
766.06860	0.81598
764.01479	0.80430
761.96099	0.79215
759.90719	0.78062
757.85338	0.77174
755.79958	0.76678
753.74578	0.76549
751.69197	0.76631
749.63817	0.76729
747.58437	0.76948
745.53056	0.77633
743.47676	0.78891
741.42296	0.80455
739.36916	0.81987
737.31535	0.83344
735.26155	0.84560
733.20775	0.85689
731.15394	0.86673
729.10014	0.87368
727.04634	0.87782
724.99253	0.88094
722.93873	0.88447
720.88493	0.88840
718.83112	0.89206
716.77732	0.89465
714.72352	0.89444
712.66971	0.89004
710.61591	0.87959
708.56211	0.85840
706.50830	0.82199
704.45450	0.76955
702.40070	0.70402
700.34689	0.63070
698.29309	0.56121
696.23929	0.51986
694.18548	0.53027
692.13168	0.58592
690.07788	0.65416
688.02408	0.70990
685.97027	0.74691
683.91647	0.77013
681.86267	0.78645
679.80886	0.79823
677.75506	0.80611
675.70126	0.81207
673.64745	0.81733
671.59365	0.82108
669.53985	0.82376
667.48604	0.82820
665.43224	0.83252
663.37844	0.83481
661.32463	0.83675
659.27083	0.83863
657.21703	0.83961
655.16322	0.83991
653.10942	0.84012
651.05562	0.84045
649.00181	0.84156
646.94801	0.84352
644.89421	0.84493
642.84040	0.84563
640.78660	0.84720
638.73280	0.85006
636.67899	0.85239
634.62519	0.85296
632.57139	0.85182
630.51759	0.84956
628.46378	0.84769
626.40998	0.84739
624.35618	0.84786
622.30237	0.84764
620.24857	0.84727
618.19477	0.84714
616.14096	0.84638
614.08716	0.84457
612.03336	0.84210
609.97955	0.84072
607.92575	0.84032
605.87195	0.83856
603.81814	0.83623
601.76434	0.83551
599.71054	0.83548
597.65673	0.83412
595.60293	0.83126
593.54913	0.82842
591.49532	0.82665
589.44152	0.82585
587.38772	0.82553
585.33391	0.82547
583.28011	0.82599
581.22631	0.82549
579.17250	0.82189
577.11870	0.81714
575.06490	0.81392
573.01110	0.81186
570.95729	0.80970
568.90349	0.80649
566.84969	0.80136
564.79588	0.79427
562.74208	0.78727
560.68828	0.78340
558.63447	0.78103
556.58067	0.77611
554.52687	0.76914
552.47306	0.76189
550.41926	0.75401
548.36546	0.74485
546.31165	0.73492
544.25785	0.72476
542.20405	0.71388
540.15024	0.70317
538.09644	0.69460
536.04264	0.69017
533.98883	0.69135
531.93503	0.69654
529.88123	0.70268
527.82742	0.70786
525.77362	0.71251
523.71982	0.71942
521.66602	0.72833
519.61221	0.73553
517.55841	0.73982
515.50461	0.74359
513.45080	0.74797
511.39700	0.75238
509.34320	0.75591
507.28939	0.75802
505.23559	0.76044
503.18179	0.76433
501.12798	0.76716
499.07418	0.76793
497.02038	0.76805
494.96657	0.76613
492.91277	0.76193
490.85897	0.75806
488.80516	0.75371
486.75136	0.74644
484.69756	0.73666
482.64375	0.72612
480.58995	0.71521
478.53615	0.70429
476.48234	0.69506
474.42854	0.68724
472.37474	0.67910
470.32093	0.67204
468.26713	0.66801
466.21333	0.66659
464.15953	0.66790
462.10572	0.67135
460.05192	0.67604
457.99812	0.68206
455.94431	0.68683
453.89051	0.69118
451.83671	0.69746
449.78290	0.70260
447.72910	0.70392
445.67530	0.70277
443.62149	0.70282
441.56769	0.70525
439.51389	0.70666
437.46008	0.70613
435.40628	0.70690
433.35248	0.70752
431.29867	0.70426
429.24487	0.69991
427.19107	0.69891
425.13726	0.70290
423.08346	0.71027
421.02966	0.71551
418.97585	0.71536
416.92205	0.71334
414.86825	0.71493
412.81445	0.72109
410.76064	0.72980
408.70684	0.73683
406.65304	0.73979
404.59923	0.73887
402.54543	0.73389
400.49163	0.72400
398.43782	0.71789
