3996.70104	0.98029
3994.64724	0.98060
3992.59344	0.98060
3990.53964	0.98054
3988.48583	0.98076
3986.43203	0.98093
3984.37823	0.98045
3982.32442	0.97985
3980.27062	0.98008
3978.21682	0.98076
3976.16301	0.98078
3974.10921	0.98021
3972.05541	0.98024
3970.00160	0.98073
3967.94780	0.98059
3965.89400	0.98006
3963.84019	0.97984
3961.78639	0.97979
3959.73259	0.97992
3957.67878	0.98030
3955.62498	0.98032
3953.57118	0.97991
3951.51737	0.97960
3949.46357	0.97961
3947.40977	0.97961
3945.35596	0.97956
3943.30216	0.97963
3941.24836	0.97963
3939.19455	0.97964
3937.14075	0.97952
3935.08695	0.97915
3933.03315	0.97876
3930.97934	0.97874
3928.92554	0.97946
3926.87174	0.98041
3924.81793	0.98071
3922.76413	0.98022
3920.71033	0.97967
3918.65652	0.97990
3916.60272	0.98057
3914.54892	0.98080
3912.49511	0.98082
3910.44131	0.98094
3908.38751	0.98102
3906.33370	0.98081
3904.27990	0.98022
3902.22610	0.97987
3900.17229	0.98001
3898.11849	0.98004
3896.06469	0.97993
3894.01088	0.98018
3891.95708	0.98080
3889.90328	0.98082
3887.84947	0.97990
3885.79567	0.97922
3883.74187	0.97950
3881.68807	0.97983
3879.63426	0.98014
3877.58046	0.98068
3875.52666	0.98072
3873.47285	0.98025
3871.41905	0.98009
3869.36525	0.98041
3867.31144	0.98079
3865.25764	0.98072
3863.20384	0.98017
3861.15003	0.97993
3859.09623	0.98025
3857.04243	0.98080
3854.98862	0.98114
3852.93482	0.98042
3850.88102	0.97964
3848.82721	0.97986
3846.77341	0.98025
3844.71961	0.98003
3842.66580	0.97919
3840.61200	0.97879
3838.55820	0.97996
3836.50439	0.98135
3834.45059	0.98154
3832.39679	0.98121
3830.34298	0.98047
3828.28918	0.97991
3826.23538	0.98011
3824.18158	0.98041
3822.12777	0.98039
3820.07397	0.98061
3818.02017	0.98114
3815.96636	0.98161
3813.91256	0.98131
3811.85876	0.98026
3809.80495	0.97941
3807.75115	0.97923
3805.69735	0.97983
3803.64354	0.98084
3801.58974	0.98170
3799.53594	0.98177
3797.48213	0.98112
3795.42833	0.98006
3793.37453	0.97933
3791.32072	0.97968
3789.26692	0.98024
3787.21312	0.97990
3785.15931	0.97957
3783.10551	0.98027
3781.05171	0.98093
3778.99790	0.98080
3776.94410	0.98061
3774.89030	0.98061
3772.83650	0.98043
3770.78269	0.98064
3768.72889	0.98168
3766.67509	0.98206
3764.62128	0.98144
3762.56748	0.98109
3760.51368	0.98127
3758.45987	0.98151
3756.40607	0.98166
3754.35227	0.98194
3752.29846	0.98222
3750.24466	0.98204
3748.19086	0.98186
3746.13705	0.98204
3744.08325	0.98195
3742.02945	0.98164
3739.97564	0.98182
3737.92184	0.98210
3735.86804	0.98191
3733.81423	0.98082
3731.76043	0.97975
3729.70663	0.97968
3727.65282	0.97969
3725.59902	0.97944
3723.54522	0.97976
3721.49141	0.98059
3719.43761	0.98104
3717.38381	0.98089
3715.33001	0.98092
3713.27620	0.98155
3711.22240	0.98175
3709.16860	0.98091
3707.11479	0.97983
3705.06099	0.97856
3703.00719	0.97722
3700.95338	0.97602
3698.89958	0.97518
3696.84578	0.97521
3694.79197	0.97568
3692.73817	0.97566
3690.68437	0.97565
3688.63056	0.97620
3686.57676	0.97604
3684.52296	0.97555
3682.46915	0.97608
3680.41535	0.97708
3678.36155	0.97728
3676.30774	0.97759
3674.25394	0.97844
3672.20014	0.97807
3670.14633	0.97698
3668.09253	0.97678
3666.03873	0.97686
3663.98492	0.97626
3661.93112	0.97587
3659.87732	0.97618
3657.82352	0.97643
3655.76971	0.97603
3653.71591	0.97530
3651.66211	0.97482
3649.60830	0.97466
3647.55450	0.97506
3645.50070	0.97526
3643.44689	0.97470
3641.39309	0.97380
3639.33929	0.97301
3637.28548	0.97273
3635.23168	0.97252
3633.17788	0.97205
3631.12407	0.97198
3629.07027	0.97213
3627.01647	0.97230
3624.96266	0.97274
3622.90886	0.97275
3620.85506	0.97184
3618.80125	0.97054
3616.74745	0.97028
3614.69365	0.97090
3612.63984	0.97106
3610.58604	0.97066
3608.53224	0.97098
3606.47844	0.97198
3604.42463	0.97237
3602.37083	0.97219
3600.31703	0.97216
3598.26322	0.97212
3596.20942	0.97190
3594.15562	0.97190
3592.10181	0.97198
3590.04801	0.97192
3587.99421	0.97192
3585.94040	0.97231
3583.88660	0.97255
3581.83280	0.97207
3579.77899	0.97161
3577.72519	0.97190
3575.67139	0.97225
3573.61758	0.97243
3571.56378	0.97236
3569.50998	0.97143
3567.45617	0.97024
3565.40237	0.97028
3563.34857	0.97092
3561.29476	0.97097
3559.24096	0.97059
3557.18716	0.97041
3555.13335	0.97084
3553.07955	0.97145
3551.02575	0.97123
3548.97195	0.97087
3546.91814	0.97113
3544.86434	0.97132
3542.81054	0.97102
3540.75673	0.97044
3538.70293	0.97012
3536.64913	0.97047
3534.59532	0.97073
3532.54152	0.97047
3530.48772	0.97025
3528.43391	0.97025
3526.38011	0.97025
3524.32631	0.96995
3522.27250	0.96972
3520.21870	0.97005
3518.16490	0.97015
3516.11109	0.96980
3514.05729	0.96946
3512.00349	0.96915
3509.94968	0.96925
3507.89588	0.96985
3505.84208	0.96990
3503.78827	0.96921
3501.73447	0.96839
3499.68067	0.96791
3497.62687	0.96801
3495.57306	0.96824
3493.51926	0.96836
3491.46546	0.96857
3489.41165	0.96864
3487.35785	0.96843
3485.30405	0.96831
3483.25024	0.96830
3481.19644	0.96808
3479.14264	0.96794
3477.08883	0.96802
3475.03503	0.96782
3472.98123	0.96746
3470.92742	0.96747
3468.87362	0.96755
3466.81982	0.96756
3464.76601	0.96774
3462.71221	0.96782
3460.65841	0.96742
3458.60460	0.96684
3456.55080	0.96684
3454.49700	0.96724
3452.44319	0.96736
3450.38939	0.96717
3448.33559	0.96702
3446.28178	0.96697
3444.22798	0.96689
3442.17418	0.96672
3440.12038	0.96658
3438.06657	0.96666
3436.01277	0.96666
3433.95897	0.96634
3431.90516	0.96602
3429.85136	0.96599
3427.79756	0.96599
3425.74375	0.96588
3423.68995	0.96630
3421.63615	0.96672
3419.58234	0.96608
3417.52854	0.96564
3415.47474	0.96611
3413.42093	0.96631
3411.36713	0.96591
3409.31333	0.96575
3407.25952	0.96579
3405.20572	0.96564
3403.15192	0.96550
3401.09811	0.96540
3399.04431	0.96534
3396.99051	0.96516
3394.93670	0.96476
3392.88290	0.96442
3390.82910	0.96427
3388.77529	0.96453
3386.72149	0.96523
3384.66769	0.96587
3382.61389	0.96591
3380.56008	0.96550
3378.50628	0.96525
3376.45248	0.96533
3374.39867	0.96546
3372.34487	0.96541
3370.29107	0.96520
3368.23726	0.96495
3366.18346	0.96456
3364.12966	0.96423
3362.07585	0.96444
3360.02205	0.96498
3357.96825	0.96526
3355.91444	0.96536
3353.86064	0.96560
3351.80684	0.96597
3349.75303	0.96608
3347.69923	0.96564
3345.64543	0.96508
3343.59162	0.96485
3341.53782	0.96487
3339.48402	0.96483
3337.43021	0.96465
3335.37641	0.96443
3333.32261	0.96439
3331.26881	0.96473
3329.21500	0.96504
3327.16120	0.96510
3325.10740	0.96536
3323.05359	0.96598
3320.99979	0.96650
3318.94599	0.96643
3316.89218	0.96583
3314.83838	0.96528
3312.78458	0.96483
3310.73077	0.96445
3308.67697	0.96473
3306.62317	0.96526
3304.56936	0.96535
3302.51556	0.96552
3300.46176	0.96600
3298.40795	0.96615
3296.35415	0.96585
3294.30035	0.96570
3292.24654	0.96567
3290.19274	0.96545
3288.13894	0.96501
3286.08513	0.96436
3284.03133	0.96399
3281.97753	0.96445
3279.92372	0.96549
3277.86992	0.96615
3275.81612	0.96605
3273.76232	0.96575
3271.70851	0.96557
3269.65471	0.96562
3267.60091	0.96571
3265.54710	0.96562
3263.49330	0.96556
3261.43950	0.96558
3259.38569	0.96574
3257.33189	0.96595
3255.27809	0.96630
3253.22428	0.96676
3251.17048	0.96678
3249.11668	0.96643
3247.06287	0.96620
3245.00907	0.96587
3242.95527	0.96566
3240.90146	0.96616
3238.84766	0.96684
3236.79386	0.96698
3234.74005	0.96694
3232.68625	0.96708
3230.63245	0.96681
3228.57864	0.96609
3226.52484	0.96576
3224.47104	0.96613
3222.41724	0.96679
3220.36343	0.96738
3218.30963	0.96775
3216.25583	0.96779
3214.20202	0.96743
3212.14822	0.96712
3210.09442	0.96761
3208.04061	0.96862
3205.98681	0.96905
3203.93301	0.96867
3201.87920	0.96823
3199.82540	0.96821
3197.77160	0.96846
3195.71779	0.96858
3193.66399	0.96829
3191.61019	0.96788
3189.55638	0.96799
3187.50258	0.96854
3185.44878	0.96905
3183.39497	0.96953
3181.34117	0.96977
3179.28737	0.96950
3177.23356	0.96887
3175.17976	0.96870
3173.12596	0.96938
3171.07215	0.96983
3169.01835	0.96974
3166.96455	0.96974
3164.91075	0.97007
3162.85694	0.97082
3160.80314	0.97164
3158.74934	0.97186
3156.69553	0.97151
3154.64173	0.97109
3152.58793	0.97092
3150.53412	0.97088
3148.48032	0.97062
3146.42652	0.97031
3144.37271	0.97048
3142.31891	0.97111
3140.26511	0.97150
3138.21130	0.97157
3136.15750	0.97170
3134.10370	0.97170
3132.04989	0.97148
3129.99609	0.97146
3127.94229	0.97167
3125.88848	0.97174
3123.83468	0.97169
3121.78088	0.97134
3119.72707	0.97080
3117.67327	0.97084
3115.61947	0.97160
3113.56566	0.97237
3111.51186	0.97247
3109.45806	0.97209
3107.40426	0.97173
3105.35045	0.97150
3103.29665	0.97139
3101.24285	0.97153
3099.18904	0.97183
3097.13524	0.97217
3095.08144	0.97238
3093.02763	0.97229
3090.97383	0.97212
3088.92003	0.97203
3086.86622	0.97194
3084.81242	0.97181
3082.75862	0.97169
3080.70481	0.97192
3078.65101	0.97237
3076.59721	0.97259
3074.54340	0.97283
3072.48960	0.97299
3070.43580	0.97260
3068.38199	0.97193
3066.32819	0.97171
3064.27439	0.97184
3062.22058	0.97197
3060.16678	0.97228
3058.11298	0.97264
3056.05918	0.97276
3054.00537	0.97290
3051.95157	0.97323
3049.89777	0.97328
3047.84396	0.97301
3045.79016	0.97304
3043.73636	0.97342
3041.68255	0.97359
3039.62875	0.97352
3037.57495	0.97364
3035.52114	0.97384
3033.46734	0.97404
3031.41354	0.97443
3029.35973	0.97487
3027.30593	0.97496
3025.25213	0.97450
3023.19832	0.97382
3021.14452	0.97361
3019.09072	0.97382
3017.03691	0.97386
3014.98311	0.97388
3012.92931	0.97393
3010.87550	0.97374
3008.82170	0.97341
3006.76790	0.97324
3004.71409	0.97347
3002.66029	0.97382
3000.60649	0.97375
2998.55269	0.97330
2996.49888	0.97298
2994.44508	0.97294
2992.39128	0.97295
2990.33747	0.97300
2988.28367	0.97304
2986.22987	0.97292
2984.17606	0.97283
2982.12226	0.97260
2980.06846	0.97160
2978.01465	0.97020
2975.96085	0.96920
2973.90705	0.96848
2971.85324	0.96770
2969.79944	0.96672
2967.74564	0.96525
2965.69183	0.96337
2963.63803	0.96161
2961.58423	0.96009
2959.53042	0.95847
2957.47662	0.95704
2955.42282	0.95607
2953.36901	0.95512
2951.31521	0.95381
2949.26141	0.95214
2947.20761	0.94983
2945.15380	0.94624
2943.10000	0.94135
2941.04620	0.93543
2938.99239	0.92841
2936.93859	0.92027
2934.88479	0.91092
2932.83098	0.90012
2930.77718	0.88764
2928.72338	0.87323
2926.66957	0.85637
2924.61577	0.83621
2922.56197	0.81221
2920.50816	0.78589
2918.45436	0.76141
2916.40056	0.74489
2914.34675	0.74203
2912.29295	0.75320
2910.23915	0.77249
2908.18534	0.79280
2906.13154	0.81030
2904.07774	0.82421
2902.02393	0.83507
2899.97013	0.84391
2897.91633	0.85145
2895.86252	0.85802
2893.80872	0.86439
2891.75492	0.87096
2889.70112	0.87746
2887.64731	0.88402
2885.59351	0.89075
2883.53971	0.89752
2881.48590	0.90436
2879.43210	0.91083
2877.37830	0.91638
2875.32449	0.92062
2873.27069	0.92352
2871.21689	0.92564
2869.16308	0.92695
2867.10928	0.92703
2865.05548	0.92549
2863.00167	0.92147
2860.94787	0.91408
2858.89407	0.90242
2856.84026	0.88527
2854.78646	0.86025
2852.73266	0.82620
2850.67885	0.78919
2848.62505	0.76390
2846.57125	0.76305
2844.51744	0.78458
2842.46364	0.81557
2840.40984	0.84533
2838.35603	0.86948
2836.30223	0.88790
2834.24843	0.90205
2832.19463	0.91287
2830.14082	0.92100
2828.08702	0.92705
2826.03322	0.93156
2823.97941	0.93561
2821.92561	0.93951
2819.87181	0.94257
2817.81800	0.94479
2815.76420	0.94654
2813.71040	0.94795
2811.65659	0.94918
2809.60279	0.95043
2807.54899	0.95198
2805.49518	0.95364
2803.44138	0.95483
2801.38758	0.95559
2799.33377	0.95653
2797.27997	0.95746
2795.22617	0.95784
2793.17236	0.95816
2791.11856	0.95878
2789.06476	0.95918
2787.01095	0.95956
2784.95715	0.96032
2782.90335	0.96106
2780.84955	0.96164
2778.79574	0.96230
2776.74194	0.96308
2774.68814	0.96374
2772.63433	0.96419
2770.58053	0.96461
2768.52673	0.96471
2766.47292	0.96456
2764.41912	0.96481
2762.36532	0.96516
2760.31151	0.96540
2758.25771	0.96582
2756.20391	0.96625
2754.15010	0.96648
2752.09630	0.96646
2750.04250	0.96652
2747.98869	0.96691
2745.93489	0.96706
2743.88109	0.96672
2741.82728	0.96638
2739.77348	0.96653
2737.71968	0.96726
2735.66587	0.96801
2733.61207	0.96825
2731.55827	0.96803
2729.50446	0.96797
2727.45066	0.96813
2725.39686	0.96799
2723.34306	0.96770
2721.28925	0.96772
2719.23545	0.96794
2717.18165	0.96827
2715.12784	0.96876
2713.07404	0.96907
2711.02024	0.96905
2708.96643	0.96888
2706.91263	0.96888
2704.85883	0.96915
2702.80502	0.96946
2700.75122	0.96987
2698.69742	0.97012
2696.64361	0.96988
2694.58981	0.96961
2692.53601	0.96971
2690.48220	0.96994
2688.42840	0.96995
2686.37460	0.96981
2684.32079	0.96978
2682.26699	0.96968
2680.21319	0.96950
2678.15938	0.96954
2676.10558	0.96984
2674.05178	0.96999
2671.99797	0.96988
2669.94417	0.96972
2667.89037	0.96958
2665.83657	0.96933
2663.78276	0.96910
2661.72896	0.96920
2659.67516	0.96944
2657.62135	0.96946
2655.56755	0.96929
2653.51375	0.96914
2651.45994	0.96924
2649.40614	0.96960
2647.35234	0.96973
2645.29853	0.96961
2643.24473	0.96989
2641.19093	0.97048
2639.13712	0.97069
2637.08332	0.97065
2635.02952	0.97075
2632.97571	0.97079
2630.92191	0.97089
2628.86811	0.97117
2626.81430	0.97117
2624.76050	0.97078
2622.70670	0.97066
2620.65289	0.97117
2618.59909	0.97154
2616.54529	0.97149
2614.49149	0.97154
2612.43768	0.97149
2610.38388	0.97105
2608.33008	0.97080
2606.27627	0.97136
2604.22247	0.97250
2602.16867	0.97330
2600.11486	0.97324
2598.06106	0.97282
2596.00726	0.97305
2593.95345	0.97390
2591.89965	0.97443
2589.84585	0.97441
2587.79204	0.97397
2585.73824	0.97348
2583.68444	0.97365
2581.63063	0.97424
2579.57683	0.97449
2577.52303	0.97440
2575.46922	0.97406
2573.41542	0.97382
2571.36162	0.97414
2569.30781	0.97453
2567.25401	0.97496
2565.20021	0.97560
2563.14640	0.97554
2561.09260	0.97458
2559.03880	0.97386
2556.98500	0.97393
2554.93119	0.97416
2552.87739	0.97414
2550.82359	0.97415
2548.76978	0.97457
2546.71598	0.97500
2544.66218	0.97486
2542.60837	0.97436
2540.55457	0.97406
2538.50077	0.97431
2536.44696	0.97460
2534.39316	0.97443
2532.33936	0.97427
2530.28555	0.97441
2528.23175	0.97490
2526.17795	0.97530
2524.12414	0.97522
2522.07034	0.97524
2520.01654	0.97563
2517.96273	0.97588
2515.90893	0.97550
2513.85513	0.97488
2511.80132	0.97473
2509.74752	0.97495
2507.69372	0.97511
2505.63992	0.97522
2503.58611	0.97534
2501.53231	0.97506
2499.47851	0.97435
2497.42470	0.97415
2495.37090	0.97463
2493.31710	0.97473
2491.26329	0.97454
2489.20949	0.97478
2487.15569	0.97529
2485.10188	0.97605
2483.04808	0.97690
2480.99428	0.97703
2478.94047	0.97638
2476.88667	0.97601
2474.83287	0.97597
2472.77906	0.97561
2470.72526	0.97546
2468.67146	0.97568
2466.61765	0.97595
2464.56385	0.97645
2462.51005	0.97697
2460.45624	0.97737
2458.40244	0.97735
2456.34864	0.97640
2454.29483	0.97521
2452.24103	0.97494
2450.18723	0.97546
2448.13343	0.97545
2446.07962	0.97495
2444.02582	0.97523
2441.97202	0.97625
2439.91821	0.97688
2437.86441	0.97665
2435.81061	0.97622
2433.75680	0.97621
2431.70300	0.97633
2429.64920	0.97664
2427.59539	0.97702
2425.54159	0.97697
2423.48779	0.97680
2421.43398	0.97674
2419.38018	0.97674
2417.32638	0.97690
2415.27257	0.97730
2413.21877	0.97766
2411.16497	0.97748
2409.11116	0.97694
2407.05736	0.97666
2405.00356	0.97680
2402.94975	0.97712
2400.89595	0.97752
2398.84215	0.97765
2396.78834	0.97709
2394.73454	0.97613
2392.68074	0.97542
2390.62694	0.97532
2388.57313	0.97571
2386.51933	0.97638
2384.46553	0.97665
2382.41172	0.97624
2380.35792	0.97581
2378.30412	0.97568
2376.25031	0.97597
2374.19651	0.97680
2372.14271	0.97738
2370.08890	0.97705
2368.03510	0.97637
2365.98130	0.97596
2363.92749	0.97624
2361.87369	0.97728
2359.81989	0.97769
2357.76608	0.97691
2355.71228	0.97679
2353.65848	0.97804
2351.60467	0.97858
2349.55087	0.97760
2347.49707	0.97614
2345.44326	0.97506
2343.38946	0.97487
2341.33566	0.97479
2339.28186	0.97450
2337.22805	0.97462
2335.17425	0.97458
2333.12045	0.97499
2331.06664	0.97681
2329.01284	0.97750
2326.95904	0.97571
2324.90523	0.97388
2322.85143	0.97357
2320.79763	0.97435
2318.74382	0.97540
2316.69002	0.97613
2314.63622	0.97608
2312.58241	0.97589
2310.52861	0.97623
2308.47481	0.97621
2306.42100	0.97561
2304.36720	0.97565
2302.31340	0.97641
2300.25959	0.97714
2298.20579	0.97772
2296.15199	0.97817
2294.09818	0.97834
2292.04438	0.97790
2289.99058	0.97710
2287.93677	0.97692
2285.88297	0.97745
2283.82917	0.97786
2281.77537	0.97775
2279.72156	0.97714
2277.66776	0.97646
2275.61396	0.97631
2273.56015	0.97639
2271.50635	0.97648
2269.45255	0.97674
2267.39874	0.97690
2265.34494	0.97724
2263.29114	0.97733
2261.23733	0.97643
2259.18353	0.97566
2257.12973	0.97645
2255.07592	0.97775
2253.02212	0.97839
2250.96832	0.97888
2248.91451	0.97892
2246.86071	0.97857
2244.80691	0.97849
2242.75310	0.97799
2240.69930	0.97712
2238.64550	0.97708
2236.59169	0.97774
2234.53789	0.97795
2232.48409	0.97717
2230.43029	0.97611
2228.37648	0.97627
2226.32268	0.97735
2224.26888	0.97723
2222.21507	0.97604
2220.16127	0.97583
2218.10747	0.97700
2216.05366	0.97847
2213.99986	0.97968
2211.94606	0.98028
2209.89225	0.98025
2207.83845	0.97966
2205.78465	0.97795
2203.73084	0.97624
2201.67704	0.97617
2199.62324	0.97763
2197.56943	0.97962
2195.51563	0.98163
2193.46183	0.98330
2191.40802	0.98276
2189.35422	0.97995
2187.30042	0.97706
2185.24661	0.97676
2183.19281	0.98012
2181.13901	0.98296
2179.08520	0.98221
2177.03140	0.98032
2174.97760	0.97909
2172.92380	0.97845
2170.86999	0.97884
2168.81619	0.97964
2166.76239	0.97964
2164.70858	0.97793
2162.65478	0.97536
2160.60098	0.97573
2158.54717	0.97812
2156.49337	0.97894
2154.43957	0.97990
2152.38576	0.98126
2150.33196	0.98204
2148.27816	0.98223
2146.22435	0.98092
2144.17055	0.98004
2142.11675	0.98119
2140.06294	0.98147
2138.00914	0.97971
2135.95534	0.97901
2133.90153	0.98114
2131.84773	0.98263
2129.79393	0.98156
2127.74012	0.98010
2125.68632	0.97874
2123.63252	0.97752
2121.57871	0.97729
2119.52491	0.97726
2117.47111	0.97722
2115.41731	0.97781
2113.36350	0.97862
2111.30970	0.97954
2109.25590	0.98013
2107.20209	0.97930
2105.14829	0.97765
2103.09449	0.97717
2101.04068	0.97810
2098.98688	0.97906
2096.93308	0.97949
2094.87927	0.97908
2092.82547	0.97837
2090.77167	0.97857
2088.71786	0.97877
2086.66406	0.97783
2084.61026	0.97657
2082.55645	0.97597
2080.50265	0.97683
2078.44885	0.97902
2076.39504	0.98037
2074.34124	0.98011
2072.28744	0.98040
2070.23363	0.98060
2068.17983	0.97919
2066.12603	0.97835
2064.07223	0.97798
2062.01842	0.97668
2059.96462	0.97554
2057.91082	0.97515
2055.85701	0.97526
2053.80321	0.97535
2051.74941	0.97599
2049.69560	0.97723
2047.64180	0.97805
2045.58800	0.97955
2043.53419	0.98190
2041.48039	0.98230
2039.42659	0.97936
2037.37278	0.97572
2035.31898	0.97579
2033.26518	0.97951
2031.21137	0.98042
2029.15757	0.97678
2027.10377	0.97587
2025.04996	0.97832
2022.99616	0.97691
2020.94236	0.97287
2018.88855	0.97215
2016.83475	0.97401
2014.78095	0.97522
2012.72714	0.97605
2010.67334	0.97711
2008.61954	0.97703
2006.56574	0.97583
2004.51193	0.97571
2002.45813	0.97735
2000.40433	0.97927
1998.35052	0.98023
1996.29672	0.97947
1994.24292	0.97736
1992.18911	0.97598
1990.13531	0.97660
1988.08151	0.97853
1986.02770	0.98096
1983.97390	0.98258
1981.92010	0.98254
1979.86629	0.98291
1977.81249	0.98448
1975.75869	0.98502
1973.70488	0.98494
1971.65108	0.98639
1969.59728	0.98691
1967.54347	0.98455
1965.48967	0.98330
1963.43587	0.98268
1961.38206	0.98001
1959.32826	0.97846
1957.27446	0.97919
1955.22066	0.98029
1953.16685	0.98092
1951.11305	0.98091
1949.05925	0.98029
1947.00544	0.97838
1944.95164	0.97585
1942.89784	0.97494
1940.84403	0.97626
1938.79023	0.97807
1936.73643	0.97879
1934.68262	0.97865
1932.62882	0.97864
1930.57502	0.97808
1928.52121	0.97731
1926.46741	0.97770
1924.41361	0.97851
1922.35980	0.97900
1920.30600	0.97896
1918.25220	0.97820
1916.19839	0.97757
1914.14459	0.97754
1912.09079	0.97752
1910.03698	0.97744
1907.98318	0.97736
1905.92938	0.97703
1903.87557	0.97696
1901.82177	0.97704
1899.76797	0.97678
1897.71417	0.97640
1895.66036	0.97614
1893.60656	0.97633
1891.55276	0.97643
1889.49895	0.97603
1887.44515	0.97566
1885.39135	0.97534
1883.33754	0.97539
1881.28374	0.97592
1879.22994	0.97615
1877.17613	0.97615
1875.12233	0.97676
1873.06853	0.97805
1871.01472	0.97907
1868.96092	0.97924
1866.90712	0.97892
1864.85331	0.97814
1862.79951	0.97704
1860.74571	0.97674
1858.69190	0.97712
1856.63810	0.97727
1854.58430	0.97758
1852.53049	0.97803
1850.47669	0.97840
1848.42289	0.97893
1846.36908	0.97878
1844.31528	0.97762
1842.26148	0.97664
1840.20768	0.97638
1838.15387	0.97672
1836.10007	0.97687
1834.04627	0.97647
1831.99246	0.97605
1829.93866	0.97546
1827.88486	0.97521
1825.83105	0.97586
1823.77725	0.97638
1821.72345	0.97606
1819.66964	0.97580
1817.61584	0.97629
1815.56204	0.97668
1813.50823	0.97656
1811.45443	0.97664
1809.40063	0.97711
1807.34682	0.97741
1805.29302	0.97734
1803.23922	0.97685
1801.18541	0.97604
1799.13161	0.97565
1797.07781	0.97584
1795.02400	0.97563
1792.97020	0.97483
1790.91640	0.97446
1788.86260	0.97457
1786.80879	0.97452
1784.75499	0.97420
1782.70119	0.97353
1780.64738	0.97269
1778.59358	0.97238
1776.53978	0.97255
1774.48597	0.97240
1772.43217	0.97203
1770.37837	0.97208
1768.32456	0.97235
1766.27076	0.97263
1764.21696	0.97257
1762.16315	0.97209
1760.10935	0.97161
1758.05555	0.97115
1756.00174	0.97073
1753.94794	0.97055
1751.89414	0.97045
1749.84033	0.96991
1747.78653	0.96860
1745.73273	0.96688
1743.67892	0.96514
1741.62512	0.96357
1739.57132	0.96186
1737.51751	0.96027
1735.46371	0.95967
1733.40991	0.95991
1731.35611	0.95999
1729.30230	0.95934
1727.24850	0.95718
1725.19470	0.95362
1723.14089	0.94966
1721.08709	0.94644
1719.03329	0.94420
1716.97948	0.94228
1714.92568	0.94083
1712.87188	0.94078
1710.81807	0.94212
1708.76427	0.94432
1706.71047	0.94695
1704.65666	0.94927
1702.60286	0.95056
1700.54906	0.95183
1698.49525	0.95372
1696.44145	0.95564
1694.38765	0.95717
1692.33384	0.95784
1690.28004	0.95820
1688.22624	0.95842
1686.17243	0.95859
1684.11863	0.95888
1682.06483	0.95889
1680.01103	0.95864
1677.95722	0.95848
1675.90342	0.95836
1673.84962	0.95801
1671.79581	0.95740
1669.74201	0.95671
1667.68821	0.95620
1665.63440	0.95588
1663.58060	0.95545
1661.52680	0.95475
1659.47299	0.95412
1657.41919	0.95374
1655.36539	0.95359
1653.31158	0.95338
1651.25778	0.95306
1649.20398	0.95293
1647.15017	0.95271
1645.09637	0.95232
1643.04257	0.95216
1640.98876	0.95229
1638.93496	0.95247
1636.88116	0.95254
1634.82735	0.95209
1632.77355	0.95140
1630.71975	0.95085
1628.66594	0.95023
1626.61214	0.94982
1624.55834	0.95011
1622.50454	0.95057
1620.45073	0.95039
1618.39693	0.95002
1616.34313	0.95002
1614.28932	0.95026
1612.23552	0.95042
1610.18172	0.95039
1608.12791	0.95032
1606.07411	0.95050
1604.02031	0.95088
1601.96650	0.95133
1599.91270	0.95160
1597.85890	0.95166
1595.80509	0.95163
1593.75129	0.95144
1591.69749	0.95130
1589.64368	0.95132
1587.58988	0.95140
1585.53608	0.95144
1583.48227	0.95120
1581.42847	0.95068
1579.37467	0.95035
1577.32086	0.95039
1575.26706	0.95037
1573.21326	0.95031
1571.15945	0.95065
1569.10565	0.95135
1567.05185	0.95196
1564.99805	0.95237
1562.94424	0.95237
1560.89044	0.95225
1558.83664	0.95336
1556.78283	0.95430
1554.72903	0.95379
1552.67523	0.95325
1550.62142	0.95305
1548.56762	0.95298
1546.51382	0.95288
1544.46001	0.95271
1542.40621	0.95248
1540.35241	0.95276
1538.29860	0.95426
1536.24480	0.95548
1534.19100	0.95639
1532.13719	0.95731
1530.08339	0.95789
1528.02959	0.95828
1525.97578	0.95867
1523.92198	0.95905
1521.86818	0.95943
1519.81437	0.95979
1517.76057	0.96005
1515.70677	0.96003
1513.65297	0.95974
1511.59916	0.95971
1509.54536	0.96012
1507.49156	0.95985
1505.43775	0.95856
1503.38395	0.95836
1501.33015	0.95865
1499.27634	0.95850
1497.22254	0.95766
1495.16874	0.95691
1493.11493	0.95670
1491.06113	0.95654
1489.00733	0.95604
1486.95352	0.95519
1484.89972	0.95416
1482.84592	0.95274
1480.79211	0.95045
1478.73831	0.94585
1476.68451	0.93382
1474.63070	0.91011
1472.57690	0.88737
1470.52310	0.88525
1468.46929	0.89097
1466.41549	0.88950
1464.36169	0.87883
1462.30788	0.87356
1460.25408	0.88201
1458.20028	0.89852
1456.14648	0.91256
1454.09267	0.91887
1452.03887	0.92296
1449.98507	0.92635
1447.93126	0.92883
1445.87746	0.93046
1443.82366	0.93156
1441.76985	0.93249
1439.71605	0.93345
1437.66225	0.93434
1435.60844	0.93469
1433.55464	0.93491
1431.50084	0.93562
1429.44703	0.93648
1427.39323	0.93705
1425.33943	0.93726
1423.28562	0.93721
1421.23182	0.93708
1419.17802	0.93714
1417.12421	0.93709
1415.07041	0.93696
1413.01661	0.93726
1410.96280	0.93785
1408.90900	0.93858
1406.85520	0.93978
1404.80139	0.94155
1402.74759	0.94344
1400.69379	0.94522
1398.63999	0.94684
1396.58618	0.94795
1394.53238	0.94887
1392.47858	0.94973
1390.42477	0.95005
1388.37097	0.95006
1386.31717	0.95000
1384.26336	0.94960
1382.20956	0.94881
1380.15576	0.94774
1378.10195	0.94674
1376.04815	0.94629
1373.99435	0.94638
1371.94054	0.94643
1369.88674	0.94668
1367.83294	0.94738
1365.77913	0.94789
1363.72533	0.94833
1361.67153	0.94916
1359.61772	0.95002
1357.56392	0.95050
1355.51012	0.95057
1353.45631	0.95063
1351.40251	0.95102
1349.34871	0.95150
1347.29491	0.95186
1345.24110	0.95228
1343.18730	0.95274
1341.13350	0.95300
1339.07969	0.95336
1337.02589	0.95404
1334.97209	0.95445
1332.91828	0.95435
1330.86448	0.95398
1328.81068	0.95345
1326.75687	0.95291
1324.70307	0.95257
1322.64927	0.95223
1320.59546	0.95174
1318.54166	0.95147
1316.48786	0.95170
1314.43405	0.95218
1312.38025	0.95253
1310.32645	0.95250
1308.27264	0.95232
1306.21884	0.95222
1304.16504	0.95182
1302.11123	0.95126
1300.05743	0.95105
1298.00363	0.95111
1295.94982	0.95119
1293.89602	0.95127
1291.84222	0.95131
1289.78842	0.95095
1287.73461	0.95016
1285.68081	0.94963
1283.62701	0.94942
1281.57320	0.94908
1279.51940	0.94853
1277.46560	0.94773
1275.41179	0.94689
1273.35799	0.94634
1271.30419	0.94622
1269.25038	0.94656
1267.19658	0.94685
1265.14278	0.94689
1263.08897	0.94696
1261.03517	0.94703
1258.98137	0.94704
1256.92756	0.94702
1254.87376	0.94698
1252.81996	0.94688
1250.76615	0.94673
1248.71235	0.94662
1246.65855	0.94663
1244.60474	0.94656
1242.55094	0.94611
1240.49714	0.94558
1238.44334	0.94532
1236.38953	0.94496
1234.33573	0.94437
1232.28193	0.94396
1230.22812	0.94372
1228.17432	0.94337
1226.12052	0.94295
1224.06671	0.94239
1222.01291	0.94149
1219.95911	0.94053
1217.90530	0.93983
1215.85150	0.93892
1213.79770	0.93776
1211.74389	0.93687
1209.69009	0.93599
1207.63629	0.93465
1205.58248	0.93296
1203.52868	0.93127
1201.47488	0.92974
1199.42107	0.92831
1197.36727	0.92683
1195.31347	0.92516
1193.25966	0.92313
1191.20586	0.92086
1189.15206	0.91870
1187.09825	0.91672
1185.04445	0.91454
1182.99065	0.91187
1180.93685	0.90889
1178.88304	0.90603
1176.82924	0.90375
1174.77544	0.90185
1172.72163	0.89981
1170.66783	0.89759
1168.61403	0.89534
1166.56022	0.89324
1164.50642	0.89142
1162.45262	0.89035
1160.39881	0.89024
1158.34501	0.89027
1156.29121	0.88982
1154.23740	0.88884
1152.18360	0.88752
1150.12980	0.88636
1148.07599	0.88560
1146.02219	0.88481
1143.96839	0.88349
1141.91458	0.88202
1139.86078	0.88092
1137.80698	0.87995
1135.75317	0.87864
1133.69937	0.87712
1131.64557	0.87555
1129.59176	0.87383
1127.53796	0.87207
1125.48416	0.87006
1123.43036	0.86756
1121.37655	0.86473
1119.32275	0.86173
1117.26895	0.85883
1115.21514	0.85614
1113.16134	0.85341
1111.10754	0.85072
1109.05373	0.84837
1106.99993	0.84616
1104.94613	0.84371
1102.89232	0.84094
1100.83852	0.83827
1098.78472	0.83591
1096.73091	0.83378
1094.67711	0.83181
1092.62331	0.83031
1090.56950	0.82961
1088.51570	0.82919
1086.46190	0.82867
1084.40809	0.82819
1082.35429	0.82769
1080.30049	0.82743
1078.24668	0.82788
1076.19288	0.82855
1074.13908	0.82874
1072.08528	0.82849
1070.03147	0.82777
1067.97767	0.82638
1065.92387	0.82464
1063.87006	0.82286
1061.81626	0.82104
1059.76246	0.81910
1057.70865	0.81704
1055.65485	0.81520
1053.60105	0.81333
1051.54724	0.81080
1049.49344	0.80770
1047.43964	0.80454
1045.38583	0.80170
1043.33203	0.79923
1041.27823	0.79700
1039.22442	0.79473
1037.17062	0.79216
1035.11682	0.78972
1033.06301	0.78802
1031.00921	0.78737
1028.95541	0.78731
1026.90160	0.78688
1024.84780	0.78635
1022.79400	0.78642
1020.74019	0.78664
1018.68639	0.78621
1016.63259	0.78518
1014.57879	0.78445
1012.52498	0.78445
1010.47118	0.78443
1008.41738	0.78438
1006.36357	0.78517
1004.30977	0.78672
1002.25597	0.78861
1000.20216	0.79053
998.14836	0.79245
996.09456	0.79479
994.04075	0.79749
991.98695	0.80027
989.93315	0.80316
987.87934	0.80646
985.82554	0.81061
983.77174	0.81534
981.71793	0.82017
979.66413	0.82536
977.61033	0.83091
975.55652	0.83593
973.50272	0.84037
971.44892	0.84503
969.39511	0.84984
967.34131	0.85434
965.28751	0.85854
963.23371	0.86250
961.17990	0.86607
959.12610	0.86927
957.07230	0.87230
955.01849	0.87515
952.96469	0.87762
950.91089	0.87965
948.85708	0.88135
946.80328	0.88284
944.74948	0.88425
942.69567	0.88608
940.64187	0.88830
938.58807	0.89024
936.53426	0.89167
934.48046	0.89280
932.42666	0.89418
930.37285	0.89585
928.31905	0.89726
926.26525	0.89845
924.21144	0.89955
922.15764	0.90028
920.10384	0.90063
918.05003	0.90108
915.99623	0.90171
913.94243	0.90211
911.88862	0.90245
909.83482	0.90304
907.78102	0.90423
905.72722	0.90640
903.67341	0.90873
901.61961	0.91049
899.56581	0.91234
897.51200	0.91443
895.45820	0.91583
893.40440	0.91673
891.35059	0.91802
889.29679	0.91957
887.24299	0.92075
885.18918	0.92117
883.13538	0.92128
881.08158	0.92152
879.02777	0.92149
876.97397	0.92155
874.92017	0.92252
872.86636	0.92414
870.81256	0.92552
868.75876	0.92610
866.70495	0.92624
864.65115	0.92675
862.59735	0.92817
860.54354	0.93020
858.48974	0.93166
856.43594	0.93205
854.38213	0.93217
852.32833	0.93309
850.27453	0.93458
848.22073	0.93558
846.16692	0.93591
844.11312	0.93571
842.05932	0.93496
840.00551	0.93416
837.95171	0.93374
835.89791	0.93333
833.84410	0.93273
831.79030	0.93214
829.73650	0.93161
827.68269	0.93157
825.62889	0.93203
823.57509	0.93200
821.52128	0.93143
819.46748	0.93088
817.41368	0.93032
815.35987	0.92974
813.30607	0.92924
811.25227	0.92867
809.19846	0.92714
807.14466	0.92351
805.09086	0.91818
803.03705	0.91318
800.98325	0.90974
798.92945	0.90764
796.87565	0.90664
794.82184	0.90717
792.76804	0.90886
790.71424	0.91019
788.66043	0.91061
786.60663	0.91056
784.55283	0.90993
782.49902	0.90830
780.44522	0.90634
778.39142	0.90553
776.33761	0.90653
774.28381	0.90890
772.23001	0.91150
770.17620	0.91327
768.12240	0.91371
766.06860	0.91297
764.01479	0.91191
761.96099	0.91141
759.90719	0.91177
757.85338	0.91244
755.79958	0.91284
753.74578	0.91350
751.69197	0.91476
749.63817	0.91585
747.58437	0.91619
745.53056	0.91567
743.47676	0.91514
741.42296	0.91492
739.36916	0.91442
737.31535	0.91284
735.26155	0.90663
733.20775	0.89023
731.15394	0.86843
729.10014	0.85877
727.04634	0.86496
724.99253	0.87031
722.93873	0.86075
720.88493	0.83761
718.83112	0.82187
716.77732	0.83112
714.72352	0.85462
712.66971	0.87487
710.61591	0.88731
708.56211	0.89504
706.50830	0.90069
704.45450	0.90387
702.40070	0.90449
700.34689	0.90411
698.29309	0.90403
696.23929	0.90452
694.18548	0.90469
692.13168	0.90462
690.07788	0.90511
688.02408	0.90619
685.97027	0.90781
683.91647	0.90908
681.86267	0.90913
679.80886	0.90845
677.75506	0.90730
675.70126	0.90628
673.64745	0.90630
671.59365	0.90675
669.53985	0.90591
667.48604	0.90430
665.43224	0.90532
663.37844	0.90722
661.32463	0.90786
659.27083	0.90660
657.21703	0.90441
655.16322	0.90280
653.10942	0.90199
651.05562	0.90169
649.00181	0.90189
646.94801	0.90194
644.89421	0.90170
642.84040	0.90252
640.78660	0.90499
638.73280	0.90682
636.67899	0.90644
634.62519	0.90584
632.57139	0.90560
630.51759	0.90490
628.46378	0.90476
626.40998	0.90548
624.35618	0.90604
622.30237	0.90568
620.24857	0.90380
618.19477	0.90045
616.14096	0.89708
614.08716	0.89525
612.03336	0.89457
609.97955	0.89325
607.92575	0.89084
605.87195	0.88863
603.81814	0.88748
601.76434	0.88695
599.71054	0.88572
597.65673	0.88324
595.60293	0.88104
593.54913	0.88055
591.49532	0.88059
589.44152	0.87907
587.38772	0.87644
585.33391	0.87514
583.28011	0.87627
581.22631	0.87834
579.17250	0.87935
577.11870	0.88015
575.06490	0.88188
573.01110	0.88191
570.95729	0.87905
568.90349	0.87623
566.84969	0.87525
564.79588	0.87485
562.74208	0.87412
560.68828	0.87201
558.63447	0.86902
556.58067	0.86741
554.52687	0.86629
552.47306	0.86435
550.41926	0.86257
548.36546	0.86092
546.31165	0.85828
544.25785	0.85502
542.20405	0.85229
540.15024	0.85070
538.09644	0.84919
536.04264	0.84626
533.98883	0.84372
531.93503	0.84313
529.88123	0.84354
527.82742	0.84431
525.77362	0.84398
523.71982	0.84265
521.66602	0.84316
519.61221	0.84567
517.55841	0.84859
515.50461	0.85039
513.45080	0.84981
511.39700	0.84850
509.34320	0.84852
507.28939	0.84935
505.23559	0.85046
503.18179	0.85178
501.12798	0.85193
499.07418	0.85145
497.02038	0.85155
494.96657	0.85016
492.91277	0.84662
490.85897	0.84381
488.80516	0.84091
486.75136	0.83579
484.69756	0.83070
482.64375	0.82683
480.58995	0.82194
478.53615	0.81399
476.48234	0.80578
474.42854	0.80090
472.37474	0.79763
470.32093	0.79495
468.26713	0.79233
466.21333	0.78895
464.15953	0.78594
462.10572	0.78471
460.05192	0.78672
457.99812	0.79259
455.94431	0.79968
453.89051	0.80368
451.83671	0.80489
449.78290	0.80700
447.72910	0.81220
445.67530	0.81708
443.62149	0.81803
441.56769	0.81961
439.51389	0.82397
437.46008	0.82525
435.40628	0.82202
433.35248	0.81983
431.29867	0.82119
429.24487	0.82182
427.19107	0.81989
425.13726	0.81920
423.08346	0.82191
421.02966	0.82755
418.97585	0.83396
416.92205	0.83393
414.86825	0.83225
412.81445	0.83790
410.76064	0.84699
408.70684	0.84989
406.65304	0.84699
404.59923	0.84683
402.54543	0.85107
400.49163	0.84855
398.43782	0.83426
