3996.70104	0.95536
3994.64724	0.95521
3992.59344	0.95510
3990.53964	0.95536
3988.48583	0.95549
3986.43203	0.95526
3984.37823	0.95522
3982.32442	0.95563
3980.27062	0.95591
3978.21682	0.95567
3976.16301	0.95551
3974.10921	0.95578
3972.05541	0.95582
3970.00160	0.95549
3967.94780	0.95529
3965.89400	0.95515
3963.84019	0.95502
3961.78639	0.95542
3959.73259	0.95624
3957.67878	0.95642
3955.62498	0.95583
3953.57118	0.95541
3951.51737	0.95510
3949.46357	0.95459
3947.40977	0.95468
3945.35596	0.95542
3943.30216	0.95606
3941.24836	0.95624
3939.19455	0.95599
3937.14075	0.95549
3935.08695	0.95504
3933.03315	0.95504
3930.97934	0.95558
3928.92554	0.95649
3926.87174	0.95729
3924.81793	0.95729
3922.76413	0.95661
3920.71033	0.95597
3918.65652	0.95562
3916.60272	0.95575
3914.54892	0.95630
3912.49511	0.95682
3910.44131	0.95712
3908.38751	0.95701
3906.33370	0.95649
3904.27990	0.95604
3902.22610	0.95606
3900.17229	0.95642
3898.11849	0.95666
3896.06469	0.95664
3894.01088	0.95642
3891.95708	0.95611
3889.90328	0.95613
3887.84947	0.95639
3885.79567	0.95649
3883.74187	0.95684
3881.68807	0.95733
3879.63426	0.95730
3877.58046	0.95703
3875.52666	0.95690
3873.47285	0.95702
3871.41905	0.95692
3869.36525	0.95643
3867.31144	0.95604
3865.25764	0.95572
3863.20384	0.95568
3861.15003	0.95608
3859.09623	0.95660
3857.04243	0.95725
3854.98862	0.95812
3852.93482	0.95857
3850.88102	0.95795
3848.82721	0.95703
3846.77341	0.95643
3844.71961	0.95627
3842.66580	0.95622
3840.61200	0.95644
3838.55820	0.95728
3836.50439	0.95832
3834.45059	0.95878
3832.39679	0.95825
3830.34298	0.95709
3828.28918	0.95656
3826.23538	0.95698
3824.18158	0.95750
3822.12777	0.95802
3820.07397	0.95881
3818.02017	0.95937
3815.96636	0.95914
3813.91256	0.95838
3811.85876	0.95781
3809.80495	0.95721
3807.75115	0.95682
3805.69735	0.95708
3803.64354	0.95703
3801.58974	0.95648
3799.53594	0.95640
3797.48213	0.95678
3795.42833	0.95694
3793.37453	0.95685
3791.32072	0.95680
3789.26692	0.95683
3787.21312	0.95710
3785.15931	0.95748
3783.10551	0.95782
3781.05171	0.95831
3778.99790	0.95859
3776.94410	0.95821
3774.89030	0.95774
3772.83650	0.95754
3770.78269	0.95713
3768.72889	0.95683
3766.67509	0.95736
3764.62128	0.95799
3762.56748	0.95805
3760.51368	0.95767
3758.45987	0.95723
3756.40607	0.95693
3754.35227	0.95679
3752.29846	0.95753
3750.24466	0.95911
3748.19086	0.95989
3746.13705	0.95956
3744.08325	0.95846
3742.02945	0.95801
3739.97564	0.95811
3737.92184	0.95716
3735.86804	0.95535
3733.81423	0.95524
3731.76043	0.95666
3729.70663	0.95780
3727.65282	0.95828
3725.59902	0.95811
3723.54522	0.95832
3721.49141	0.95907
3719.43761	0.95877
3717.38381	0.95756
3715.33001	0.95621
3713.27620	0.95452
3711.22240	0.95286
3709.16860	0.95204
3707.11479	0.95187
3705.06099	0.95150
3703.00719	0.95017
3700.95338	0.94826
3698.89958	0.94733
3696.84578	0.94739
3694.79197	0.94772
3692.73817	0.94832
3690.68437	0.94903
3688.63056	0.94929
3686.57676	0.94895
3684.52296	0.94815
3682.46915	0.94765
3680.41535	0.94840
3678.36155	0.94935
3676.30774	0.94885
3674.25394	0.94760
3672.20014	0.94719
3670.14633	0.94710
3668.09253	0.94628
3666.03873	0.94504
3663.98492	0.94430
3661.93112	0.94379
3659.87732	0.94330
3657.82352	0.94345
3655.76971	0.94368
3653.71591	0.94352
3651.66211	0.94320
3649.60830	0.94242
3647.55450	0.94137
3645.50070	0.94045
3643.44689	0.93965
3641.39309	0.93913
3639.33929	0.93875
3637.28548	0.93800
3635.23168	0.93689
3633.17788	0.93581
3631.12407	0.93463
3629.07027	0.93376
3627.01647	0.93393
3624.96266	0.93371
3622.90886	0.93290
3620.85506	0.93278
3618.80125	0.93330
3616.74745	0.93368
3614.69365	0.93437
3612.63984	0.93522
3610.58604	0.93561
3608.53224	0.93571
3606.47844	0.93564
3604.42463	0.93562
3602.37083	0.93603
3600.31703	0.93663
3598.26322	0.93660
3596.20942	0.93587
3594.15562	0.93535
3592.10181	0.93583
3590.04801	0.93724
3587.99421	0.93862
3585.94040	0.93850
3583.88660	0.93757
3581.83280	0.93704
3579.77899	0.93683
3577.72519	0.93684
3575.67139	0.93691
3573.61758	0.93677
3571.56378	0.93676
3569.50998	0.93688
3567.45617	0.93667
3565.40237	0.93609
3563.34857	0.93567
3561.29476	0.93565
3559.24096	0.93579
3557.18716	0.93569
3555.13335	0.93533
3553.07955	0.93478
3551.02575	0.93431
3548.97195	0.93464
3546.91814	0.93532
3544.86434	0.93544
3542.81054	0.93498
3540.75673	0.93475
3538.70293	0.93507
3536.64913	0.93514
3534.59532	0.93470
3532.54152	0.93471
3530.48772	0.93531
3528.43391	0.93534
3526.38011	0.93466
3524.32631	0.93440
3522.27250	0.93458
3520.21870	0.93461
3518.16490	0.93439
3516.11109	0.93455
3514.05729	0.93505
3512.00349	0.93495
3509.94968	0.93459
3507.89588	0.93486
3505.84208	0.93539
3503.78827	0.93555
3501.73447	0.93527
3499.68067	0.93512
3497.62687	0.93526
3495.57306	0.93530
3493.51926	0.93505
3491.46546	0.93459
3489.41165	0.93439
3487.35785	0.93442
3485.30405	0.93408
3483.25024	0.93358
3481.19644	0.93355
3479.14264	0.93396
3477.08883	0.93446
3475.03503	0.93466
3472.98123	0.93429
3470.92742	0.93383
3468.87362	0.93372
3466.81982	0.93353
3464.76601	0.93338
3462.71221	0.93395
3460.65841	0.93439
3458.60460	0.93380
3456.55080	0.93294
3454.49700	0.93245
3452.44319	0.93234
3450.38939	0.93230
3448.33559	0.93205
3446.28178	0.93198
3444.22798	0.93234
3442.17418	0.93256
3440.12038	0.93227
3438.06657	0.93189
3436.01277	0.93206
3433.95897	0.93260
3431.90516	0.93261
3429.85136	0.93203
3427.79756	0.93166
3425.74375	0.93169
3423.68995	0.93166
3421.63615	0.93131
3419.58234	0.93059
3417.52854	0.92998
3415.47474	0.93042
3413.42093	0.93152
3411.36713	0.93196
3409.31333	0.93140
3407.25952	0.93064
3405.20572	0.93069
3403.15192	0.93122
3401.09811	0.93149
3399.04431	0.93164
3396.99051	0.93188
3394.93670	0.93232
3392.88290	0.93256
3390.82910	0.93253
3388.77529	0.93265
3386.72149	0.93258
3384.66769	0.93250
3382.61389	0.93258
3380.56008	0.93225
3378.50628	0.93187
3376.45248	0.93196
3374.39867	0.93204
3372.34487	0.93207
3370.29107	0.93244
3368.23726	0.93266
3366.18346	0.93249
3364.12966	0.93214
3362.07585	0.93172
3360.02205	0.93155
3357.96825	0.93184
3355.91444	0.93249
3353.86064	0.93320
3351.80684	0.93364
3349.75303	0.93371
3347.69923	0.93353
3345.64543	0.93348
3343.59162	0.93370
3341.53782	0.93393
3339.48402	0.93397
3337.43021	0.93370
3335.37641	0.93336
3333.32261	0.93338
3331.26881	0.93362
3329.21500	0.93365
3327.16120	0.93343
3325.10740	0.93330
3323.05359	0.93364
3320.99979	0.93406
3318.94599	0.93389
3316.89218	0.93372
3314.83838	0.93424
3312.78458	0.93479
3310.73077	0.93480
3308.67697	0.93458
3306.62317	0.93417
3304.56936	0.93425
3302.51556	0.93528
3300.46176	0.93596
3298.40795	0.93598
3296.35415	0.93595
3294.30035	0.93586
3292.24654	0.93603
3290.19274	0.93656
3288.13894	0.93672
3286.08513	0.93617
3284.03133	0.93552
3281.97753	0.93551
3279.92372	0.93596
3277.86992	0.93618
3275.81612	0.93643
3273.76232	0.93713
3271.70851	0.93757
3269.65471	0.93729
3267.60091	0.93693
3265.54710	0.93671
3263.49330	0.93658
3261.43950	0.93684
3259.38569	0.93736
3257.33189	0.93775
3255.27809	0.93803
3253.22428	0.93828
3251.17048	0.93803
3249.11668	0.93748
3247.06287	0.93726
3245.00907	0.93712
3242.95527	0.93715
3240.90146	0.93767
3238.84766	0.93831
3236.79386	0.93877
3234.74005	0.93895
3232.68625	0.93913
3230.63245	0.93953
3228.57864	0.93950
3226.52484	0.93907
3224.47104	0.93905
3222.41724	0.93964
3220.36343	0.94009
3218.30963	0.94001
3216.25583	0.94001
3214.20202	0.94051
3212.14822	0.94109
3210.09442	0.94127
3208.04061	0.94107
3205.98681	0.94095
3203.93301	0.94101
3201.87920	0.94111
3199.82540	0.94128
3197.77160	0.94120
3195.71779	0.94098
3193.66399	0.94114
3191.61019	0.94145
3189.55638	0.94166
3187.50258	0.94192
3185.44878	0.94214
3183.39497	0.94201
3181.34117	0.94187
3179.28737	0.94201
3177.23356	0.94242
3175.17976	0.94301
3173.12596	0.94300
3171.07215	0.94249
3169.01835	0.94275
3166.96455	0.94341
3164.91075	0.94357
3162.85694	0.94358
3160.80314	0.94390
3158.74934	0.94450
3156.69553	0.94482
3154.64173	0.94475
3152.58793	0.94471
3150.53412	0.94471
3148.48032	0.94496
3146.42652	0.94550
3144.37271	0.94587
3142.31891	0.94583
3140.26511	0.94522
3138.21130	0.94478
3136.15750	0.94532
3134.10370	0.94591
3132.04989	0.94556
3129.99609	0.94487
3127.94229	0.94489
3125.88848	0.94553
3123.83468	0.94605
3121.78088	0.94633
3119.72707	0.94614
3117.67327	0.94568
3115.61947	0.94565
3113.56566	0.94611
3111.51186	0.94642
3109.45806	0.94613
3107.40426	0.94564
3105.35045	0.94523
3103.29665	0.94492
3101.24285	0.94469
3099.18904	0.94476
3097.13524	0.94554
3095.08144	0.94618
3093.02763	0.94584
3090.97383	0.94490
3088.92003	0.94366
3086.86622	0.94230
3084.81242	0.94115
3082.75862	0.94037
3080.70481	0.94027
3078.65101	0.94109
3076.59721	0.94221
3074.54340	0.94297
3072.48960	0.94313
3070.43580	0.94257
3068.38199	0.94156
3066.32819	0.94039
3064.27439	0.93907
3062.22058	0.93739
3060.16678	0.93604
3058.11298	0.93619
3056.05918	0.93746
3054.00537	0.93868
3051.95157	0.94001
3049.89777	0.94179
3047.84396	0.94344
3045.79016	0.94455
3043.73636	0.94495
3041.68255	0.94462
3039.62875	0.94365
3037.57495	0.94208
3035.52114	0.93994
3033.46734	0.93690
3031.41354	0.93281
3029.35973	0.92812
3027.30593	0.92404
3025.25213	0.92214
3023.19832	0.92339
3021.14452	0.92747
3019.09072	0.93267
3017.03691	0.93718
3014.98311	0.94048
3012.92931	0.94274
3010.87550	0.94400
3008.82170	0.94455
3006.76790	0.94460
3004.71409	0.94429
3002.66029	0.94430
3000.60649	0.94498
2998.55269	0.94567
2996.49888	0.94643
2994.44508	0.94766
2992.39128	0.94869
2990.33747	0.94906
2988.28367	0.94914
2986.22987	0.94931
2984.17606	0.94958
2982.12226	0.94981
2980.06846	0.94999
2978.01465	0.95007
2975.96085	0.95001
2973.90705	0.94976
2971.85324	0.94941
2969.79944	0.94910
2967.74564	0.94872
2965.69183	0.94822
2963.63803	0.94787
2961.58423	0.94750
2959.53042	0.94679
2957.47662	0.94593
2955.42282	0.94511
2953.36901	0.94431
2951.31521	0.94365
2949.26141	0.94319
2947.20761	0.94261
2945.15380	0.94149
2943.10000	0.93987
2941.04620	0.93779
2938.99239	0.93525
2936.93859	0.93281
2934.88479	0.93062
2932.83098	0.92789
2930.77718	0.92455
2928.72338	0.92141
2926.66957	0.91893
2924.61577	0.91713
2922.56197	0.91609
2920.50816	0.91568
2918.45436	0.91574
2916.40056	0.91655
2914.34675	0.91805
2912.29295	0.91962
2910.23915	0.92119
2908.18534	0.92295
2906.13154	0.92482
2904.07774	0.92709
2902.02393	0.92956
2899.97013	0.93154
2897.91633	0.93311
2895.86252	0.93457
2893.80872	0.93604
2891.75492	0.93761
2889.70112	0.93878
2887.64731	0.93948
2885.59351	0.94027
2883.53971	0.94118
2881.48590	0.94173
2879.43210	0.94204
2877.37830	0.94238
2875.32449	0.94279
2873.27069	0.94335
2871.21689	0.94394
2869.16308	0.94425
2867.10928	0.94422
2865.05548	0.94402
2863.00167	0.94348
2860.94787	0.94249
2858.89407	0.94142
2856.84026	0.94035
2854.78646	0.93933
2852.73266	0.93860
2850.67885	0.93805
2848.62505	0.93780
2846.57125	0.93818
2844.51744	0.93907
2842.46364	0.94046
2840.40984	0.94237
2838.35603	0.94436
2836.30223	0.94594
2834.24843	0.94750
2832.19463	0.94905
2830.14082	0.94977
2828.08702	0.94978
2826.03322	0.94969
2823.97941	0.94984
2821.92561	0.95046
2819.87181	0.95127
2817.81800	0.95166
2815.76420	0.95143
2813.71040	0.95098
2811.65659	0.95085
2809.60279	0.95133
2807.54899	0.95222
2805.49518	0.95294
2803.44138	0.95323
2801.38758	0.95318
2799.33377	0.95281
2797.27997	0.95246
2795.22617	0.95238
2793.17236	0.95252
2791.11856	0.95284
2789.06476	0.95308
2787.01095	0.95283
2784.95715	0.95255
2782.90335	0.95296
2780.84955	0.95372
2778.79574	0.95429
2776.74194	0.95461
2774.68814	0.95441
2772.63433	0.95389
2770.58053	0.95379
2768.52673	0.95410
2766.47292	0.95435
2764.41912	0.95438
2762.36532	0.95426
2760.31151	0.95416
2758.25771	0.95440
2756.20391	0.95499
2754.15010	0.95533
2752.09630	0.95507
2750.04250	0.95471
2747.98869	0.95478
2745.93489	0.95508
2743.88109	0.95516
2741.82728	0.95501
2739.77348	0.95506
2737.71968	0.95543
2735.66587	0.95553
2733.61207	0.95511
2731.55827	0.95477
2729.50446	0.95477
2727.45066	0.95469
2725.39686	0.95462
2723.34306	0.95492
2721.28925	0.95528
2719.23545	0.95551
2717.18165	0.95555
2715.12784	0.95521
2713.07404	0.95478
2711.02024	0.95478
2708.96643	0.95541
2706.91263	0.95583
2704.85883	0.95560
2702.80502	0.95548
2700.75122	0.95577
2698.69742	0.95599
2696.64361	0.95574
2694.58981	0.95524
2692.53601	0.95514
2690.48220	0.95534
2688.42840	0.95541
2686.37460	0.95556
2684.32079	0.95598
2682.26699	0.95630
2680.21319	0.95613
2678.15938	0.95582
2676.10558	0.95592
2674.05178	0.95627
2671.99797	0.95646
2669.94417	0.95655
2667.89037	0.95656
2665.83657	0.95645
2663.78276	0.95641
2661.72896	0.95642
2659.67516	0.95635
2657.62135	0.95617
2655.56755	0.95597
2653.51375	0.95583
2651.45994	0.95578
2649.40614	0.95602
2647.35234	0.95650
2645.29853	0.95673
2643.24473	0.95649
2641.19093	0.95615
2639.13712	0.95619
2637.08332	0.95650
2635.02952	0.95657
2632.97571	0.95633
2630.92191	0.95646
2628.86811	0.95691
2626.81430	0.95708
2624.76050	0.95711
2622.70670	0.95702
2620.65289	0.95679
2618.59909	0.95685
2616.54529	0.95716
2614.49149	0.95767
2612.43768	0.95837
2610.38388	0.95867
2608.33008	0.95848
2606.27627	0.95821
2604.22247	0.95786
2602.16867	0.95754
2600.11486	0.95796
2598.06106	0.95880
2596.00726	0.95869
2593.95345	0.95789
2591.89965	0.95769
2589.84585	0.95831
2587.79204	0.95875
2585.73824	0.95846
2583.68444	0.95793
2581.63063	0.95783
2579.57683	0.95838
2577.52303	0.95885
2575.46922	0.95878
2573.41542	0.95873
2571.36162	0.95904
2569.30781	0.95966
2567.25401	0.96015
2565.20021	0.95979
2563.14640	0.95911
2561.09260	0.95910
2559.03880	0.95964
2556.98500	0.96006
2554.93119	0.95991
2552.87739	0.95925
2550.82359	0.95903
2548.76978	0.95943
2546.71598	0.95948
2544.66218	0.95922
2542.60837	0.95924
2540.55457	0.95917
2538.50077	0.95902
2536.44696	0.95925
2534.39316	0.95982
2532.33936	0.96054
2530.28555	0.96079
2528.23175	0.96035
2526.17795	0.96013
2524.12414	0.96040
2522.07034	0.96047
2520.01654	0.96023
2517.96273	0.96012
2515.90893	0.96032
2513.85513	0.96069
2511.80132	0.96099
2509.74752	0.96112
2507.69372	0.96107
2505.63992	0.96087
2503.58611	0.96037
2501.53231	0.95993
2499.47851	0.96003
2497.42470	0.95992
2495.37090	0.95959
2493.31710	0.95947
2491.26329	0.95940
2489.20949	0.95977
2487.15569	0.96034
2485.10188	0.96034
2483.04808	0.96008
2480.99428	0.96039
2478.94047	0.96078
2476.88667	0.96052
2474.83287	0.96017
2472.77906	0.96003
2470.72526	0.95998
2468.67146	0.96043
2466.61765	0.96119
2464.56385	0.96127
2462.51005	0.96029
2460.45624	0.95943
2458.40244	0.95966
2456.34864	0.96016
2454.29483	0.96002
2452.24103	0.95936
2450.18723	0.95899
2448.13343	0.95930
2446.07962	0.96000
2444.02582	0.96069
2441.97202	0.96109
2439.91821	0.96095
2437.86441	0.96040
2435.81061	0.96013
2433.75680	0.96045
2431.70300	0.96057
2429.64920	0.96043
2427.59539	0.96069
2425.54159	0.96113
2423.48779	0.96171
2421.43398	0.96203
2419.38018	0.96129
2417.32638	0.96052
2415.27257	0.96077
2413.21877	0.96129
2411.16497	0.96163
2409.11116	0.96181
2407.05736	0.96170
2405.00356	0.96178
2402.94975	0.96216
2400.89595	0.96247
2398.84215	0.96254
2396.78834	0.96219
2394.73454	0.96167
2392.68074	0.96145
2390.62694	0.96122
2388.57313	0.96075
2386.51933	0.96063
2384.46553	0.96104
2382.41172	0.96122
2380.35792	0.96094
2378.30412	0.96100
2376.25031	0.96159
2374.19651	0.96189
2372.14271	0.96166
2370.08890	0.96159
2368.03510	0.96108
2365.98130	0.95971
2363.92749	0.95965
2361.87369	0.96126
2359.81989	0.96212
2357.76608	0.96138
2355.71228	0.96095
2353.65848	0.96159
2351.60467	0.96163
2349.55087	0.96115
2347.49707	0.96104
2345.44326	0.96098
2343.38946	0.96091
2341.33566	0.96127
2339.28186	0.96142
2337.22805	0.96092
2335.17425	0.96046
2333.12045	0.96043
2331.06664	0.96051
2329.01284	0.96077
2326.95904	0.96096
2324.90523	0.96076
2322.85143	0.96059
2320.79763	0.96097
2318.74382	0.96182
2316.69002	0.96236
2314.63622	0.96204
2312.58241	0.96103
2310.52861	0.96036
2308.47481	0.96045
2306.42100	0.96058
2304.36720	0.96044
2302.31340	0.96002
2300.25959	0.95987
2298.20579	0.96050
2296.15199	0.96099
2294.09818	0.96096
2292.04438	0.96110
2289.99058	0.96134
2287.93677	0.96163
2285.88297	0.96183
2283.82917	0.96148
2281.77537	0.96107
2279.72156	0.96131
2277.66776	0.96189
2275.61396	0.96257
2273.56015	0.96333
2271.50635	0.96347
2269.45255	0.96282
2267.39874	0.96262
2265.34494	0.96335
2263.29114	0.96373
2261.23733	0.96320
2259.18353	0.96267
2257.12973	0.96233
2255.07592	0.96192
2253.02212	0.96189
2250.96832	0.96204
2248.91451	0.96184
2246.86071	0.96185
2244.80691	0.96305
2242.75310	0.96495
2240.69930	0.96558
2238.64550	0.96499
2236.59169	0.96482
2234.53789	0.96520
2232.48409	0.96509
2230.43029	0.96472
2228.37648	0.96496
2226.32268	0.96539
2224.26888	0.96574
2222.21507	0.96640
2220.16127	0.96702
2218.10747	0.96678
2216.05366	0.96642
2213.99986	0.96630
2211.94606	0.96547
2209.89225	0.96489
2207.83845	0.96507
2205.78465	0.96538
2203.73084	0.96636
2201.67704	0.96622
2199.62324	0.96364
2197.56943	0.96215
2195.51563	0.96252
2193.46183	0.96260
2191.40802	0.96403
2189.35422	0.96774
2187.30042	0.96921
2185.24661	0.96557
2183.19281	0.96113
2181.13901	0.95986
2179.08520	0.96112
2177.03140	0.96403
2174.97760	0.96764
2172.92380	0.96857
2170.86999	0.96557
2168.81619	0.96316
2166.76239	0.96502
2164.70858	0.96825
2162.65478	0.96699
2160.60098	0.96348
2158.54717	0.96455
2156.49337	0.96861
2154.43957	0.97157
2152.38576	0.97268
2150.33196	0.97237
2148.27816	0.97114
2146.22435	0.96930
2144.17055	0.96773
2142.11675	0.96719
2140.06294	0.96783
2138.00914	0.96814
2135.95534	0.96812
2133.90153	0.96939
2131.84773	0.97005
2129.79393	0.96922
2127.74012	0.96838
2125.68632	0.96733
2123.63252	0.96679
2121.57871	0.96681
2119.52491	0.96592
2117.47111	0.96446
2115.41731	0.96360
2113.36350	0.96388
2111.30970	0.96491
2109.25590	0.96563
2107.20209	0.96553
2105.14829	0.96485
2103.09449	0.96431
2101.04068	0.96470
2098.98688	0.96579
2096.93308	0.96614
2094.87927	0.96547
2092.82547	0.96509
2090.77167	0.96590
2088.71786	0.96692
2086.66406	0.96664
2084.61026	0.96564
2082.55645	0.96517
2080.50265	0.96501
2078.44885	0.96489
2076.39504	0.96501
2074.34124	0.96492
2072.28744	0.96479
2070.23363	0.96537
2068.17983	0.96648
2066.12603	0.96733
2064.07223	0.96728
2062.01842	0.96680
2059.96462	0.96696
2057.91082	0.96732
2055.85701	0.96758
2053.80321	0.96830
2051.74941	0.96802
2049.69560	0.96664
2047.64180	0.96746
2045.58800	0.97046
2043.53419	0.97108
2041.48039	0.96812
2039.42659	0.96531
2037.37278	0.96443
2035.31898	0.96415
2033.26518	0.96391
2031.21137	0.96447
2029.15757	0.96462
2027.10377	0.96229
2025.04996	0.96184
2022.99616	0.96660
2020.94236	0.97073
2018.88855	0.97053
2016.83475	0.96939
2014.78095	0.96991
2012.72714	0.97167
2010.67334	0.97184
2008.61954	0.96890
2006.56574	0.96752
2004.51193	0.96976
2002.45813	0.97069
2000.40433	0.96918
1998.35052	0.96837
1996.29672	0.96867
1994.24292	0.96862
1992.18911	0.96741
1990.13531	0.96578
1988.08151	0.96601
1986.02770	0.96774
1983.97390	0.96778
1981.92010	0.96567
1979.86629	0.96438
1977.81249	0.96540
1975.75869	0.96810
1973.70488	0.97148
1971.65108	0.97422
1969.59728	0.97383
1967.54347	0.96999
1965.48967	0.96721
1963.43587	0.96720
1961.38206	0.96773
1959.32826	0.96791
1957.27446	0.96762
1955.22066	0.96679
1953.16685	0.96574
1951.11305	0.96496
1949.05925	0.96393
1947.00544	0.96298
1944.95164	0.96375
1942.89784	0.96505
1940.84403	0.96500
1938.79023	0.96460
1936.73643	0.96477
1934.68262	0.96504
1932.62882	0.96496
1930.57502	0.96549
1928.52121	0.96665
1926.46741	0.96670
1924.41361	0.96544
1922.35980	0.96442
1920.30600	0.96478
1918.25220	0.96660
1916.19839	0.96809
1914.14459	0.96779
1912.09079	0.96709
1910.03698	0.96714
1907.98318	0.96772
1905.92938	0.96775
1903.87557	0.96689
1901.82177	0.96632
1899.76797	0.96614
1897.71417	0.96599
1895.66036	0.96593
1893.60656	0.96560
1891.55276	0.96494
1889.49895	0.96477
1887.44515	0.96524
1885.39135	0.96503
1883.33754	0.96435
1881.28374	0.96399
1879.22994	0.96345
1877.17613	0.96327
1875.12233	0.96408
1873.06853	0.96463
1871.01472	0.96455
1868.96092	0.96460
1866.90712	0.96449
1864.85331	0.96388
1862.79951	0.96366
1860.74571	0.96427
1858.69190	0.96504
1856.63810	0.96548
1854.58430	0.96581
1852.53049	0.96616
1850.47669	0.96630
1848.42289	0.96634
1846.36908	0.96665
1844.31528	0.96713
1842.26148	0.96749
1840.20768	0.96770
1838.15387	0.96747
1836.10007	0.96682
1834.04627	0.96644
1831.99246	0.96640
1829.93866	0.96652
1827.88486	0.96669
1825.83105	0.96648
1823.77725	0.96586
1821.72345	0.96539
1819.66964	0.96521
1817.61584	0.96487
1815.56204	0.96427
1813.50823	0.96386
1811.45443	0.96373
1809.40063	0.96327
1807.34682	0.96263
1805.29302	0.96243
1803.23922	0.96273
1801.18541	0.96323
1799.13161	0.96350
1797.07781	0.96346
1795.02400	0.96333
1792.97020	0.96304
1790.91640	0.96291
1788.86260	0.96340
1786.80879	0.96402
1784.75499	0.96444
1782.70119	0.96456
1780.64738	0.96445
1778.59358	0.96445
1776.53978	0.96480
1774.48597	0.96534
1772.43217	0.96554
1770.37837	0.96514
1768.32456	0.96472
1766.27076	0.96459
1764.21696	0.96466
1762.16315	0.96491
1760.10935	0.96496
1758.05555	0.96450
1756.00174	0.96394
1753.94794	0.96364
1751.89414	0.96328
1749.84033	0.96248
1747.78653	0.96167
1745.73273	0.96134
1743.67892	0.96123
1741.62512	0.96107
1739.57132	0.96106
1737.51751	0.96131
1735.46371	0.96141
1733.40991	0.96109
1731.35611	0.96081
1729.30230	0.96085
1727.24850	0.96117
1725.19470	0.96172
1723.14089	0.96210
1721.08709	0.96202
1719.03329	0.96166
1716.97948	0.96175
1714.92568	0.96219
1712.87188	0.96194
1710.81807	0.96140
1708.76427	0.96109
1706.71047	0.96072
1704.65666	0.96041
1702.60286	0.96035
1700.54906	0.95999
1698.49525	0.95969
1696.44145	0.95974
1694.38765	0.95917
1692.33384	0.95815
1690.28004	0.95719
1688.22624	0.95621
1686.17243	0.95533
1684.11863	0.95499
1682.06483	0.95481
1680.01103	0.95408
1677.95722	0.95330
1675.90342	0.95222
1673.84962	0.95081
1671.79581	0.94989
1669.74201	0.94908
1667.68821	0.94837
1665.63440	0.94798
1663.58060	0.94745
1661.52680	0.94684
1659.47299	0.94649
1657.41919	0.94632
1655.36539	0.94612
1653.31158	0.94545
1651.25778	0.94488
1649.20398	0.94507
1647.15017	0.94562
1645.09637	0.94628
1643.04257	0.94674
1640.98876	0.94706
1638.93496	0.94725
1636.88116	0.94707
1634.82735	0.94672
1632.77355	0.94692
1630.71975	0.94736
1628.66594	0.94768
1626.61214	0.94781
1624.55834	0.94807
1622.50454	0.94852
1620.45073	0.94893
1618.39693	0.94926
1616.34313	0.94928
1614.28932	0.94920
1612.23552	0.94887
1610.18172	0.94735
1608.12791	0.94412
1606.07411	0.93934
1604.02031	0.93380
1601.96650	0.92961
1599.91270	0.92949
1597.85890	0.93351
1595.80509	0.93887
1593.75129	0.94309
1591.69749	0.94573
1589.64368	0.94714
1587.58988	0.94728
1585.53608	0.94635
1583.48227	0.94557
1581.42847	0.94633
1579.37467	0.94826
1577.32086	0.95019
1575.26706	0.95152
1573.21326	0.95230
1571.15945	0.95276
1569.10565	0.95306
1567.05185	0.95351
1564.99805	0.95398
1562.94424	0.95437
1560.89044	0.95462
1558.83664	0.95422
1556.78283	0.95377
1554.72903	0.95374
1552.67523	0.95327
1550.62142	0.95262
1548.56762	0.95231
1546.51382	0.95215
1544.46001	0.95196
1542.40621	0.95202
1540.35241	0.95208
1538.29860	0.95181
1536.24480	0.95183
1534.19100	0.95201
1532.13719	0.95210
1530.08339	0.95206
1528.02959	0.95195
1525.97578	0.95184
1523.92198	0.95187
1521.86818	0.95170
1519.81437	0.95121
1517.76057	0.95105
1515.70677	0.95094
1513.65297	0.95042
1511.59916	0.94996
1509.54536	0.94988
1507.49156	0.94950
1505.43775	0.94825
1503.38395	0.94700
1501.33015	0.94493
1499.27634	0.93914
1497.22254	0.92314
1495.16874	0.89930
1493.11493	0.88494
1491.06113	0.88829
1489.00733	0.90641
1486.95352	0.92242
1484.89972	0.93042
1482.84592	0.93456
1480.79211	0.93685
1478.73831	0.93822
1476.68451	0.93911
1474.63070	0.93952
1472.57690	0.93963
1470.52310	0.93983
1468.46929	0.94022
1466.41549	0.94056
1464.36169	0.94050
1462.30788	0.94009
1460.25408	0.93880
1458.20028	0.93160
1456.14648	0.91047
1454.09267	0.89015
1452.03887	0.88197
1449.98507	0.88585
1447.93126	0.89673
1445.87746	0.90682
1443.82366	0.91406
1441.76985	0.91996
1439.71605	0.92490
1437.66225	0.92928
1435.60844	0.93328
1433.55464	0.93624
1431.50084	0.93866
1429.44703	0.94077
1427.39323	0.94212
1425.33943	0.94309
1423.28562	0.94400
1421.23182	0.94460
1419.17802	0.94528
1417.12421	0.94625
1415.07041	0.94705
1413.01661	0.94784
1410.96280	0.94873
1408.90900	0.94965
1406.85520	0.95059
1404.80139	0.95138
1402.74759	0.95199
1400.69379	0.95259
1398.63999	0.95312
1396.58618	0.95355
1394.53238	0.95398
1392.47858	0.95408
1390.42477	0.95379
1388.37097	0.95335
1386.31717	0.95268
1384.26336	0.95188
1382.20956	0.95108
1380.15576	0.95012
1378.10195	0.94915
1376.04815	0.94851
1373.99435	0.94826
1371.94054	0.94851
1369.88674	0.94898
1367.83294	0.94937
1365.77913	0.94985
1363.72533	0.95049
1361.67153	0.95090
1359.61772	0.95099
1357.56392	0.95123
1355.51012	0.95181
1353.45631	0.95250
1351.40251	0.95302
1349.34871	0.95334
1347.29491	0.95337
1345.24110	0.95331
1343.18730	0.95362
1341.13350	0.95421
1339.07969	0.95445
1337.02589	0.95443
1334.97209	0.95469
1332.91828	0.95485
1330.86448	0.95434
1328.81068	0.95351
1326.75687	0.95324
1324.70307	0.95365
1322.64927	0.95411
1320.59546	0.95435
1318.54166	0.95452
1316.48786	0.95453
1314.43405	0.95430
1312.38025	0.95403
1310.32645	0.95404
1308.27264	0.95433
1306.21884	0.95473
1304.16504	0.95520
1302.11123	0.95570
1300.05743	0.95603
1298.00363	0.95616
1295.94982	0.95617
1293.89602	0.95595
1291.84222	0.95555
1289.78842	0.95537
1287.73461	0.95548
1285.68081	0.95551
1283.62701	0.95515
1281.57320	0.95470
1279.51940	0.95457
1277.46560	0.95470
1275.41179	0.95491
1273.35799	0.95497
1271.30419	0.95471
1269.25038	0.95442
1267.19658	0.95446
1265.14278	0.95460
1263.08897	0.95445
1261.03517	0.95417
1258.98137	0.95413
1256.92756	0.95406
1254.87376	0.95377
1252.81996	0.95364
1250.76615	0.95347
1248.71235	0.95284
1246.65855	0.95211
1244.60474	0.95154
1242.55094	0.95122
1240.49714	0.95120
1238.44334	0.95105
1236.38953	0.95047
1234.33573	0.94985
1232.28193	0.94953
1230.22812	0.94926
1228.17432	0.94878
1226.12052	0.94813
1224.06671	0.94731
1222.01291	0.94620
1219.95911	0.94479
1217.90530	0.94313
1215.85150	0.94141
1213.79770	0.93951
1211.74389	0.93726
1209.69009	0.93493
1207.63629	0.93255
1205.58248	0.93018
1203.52868	0.92773
1201.47488	0.92491
1199.42107	0.92197
1197.36727	0.91913
1195.31347	0.91626
1193.25966	0.91327
1191.20586	0.91008
1189.15206	0.90676
1187.09825	0.90324
1185.04445	0.89924
1182.99065	0.89508
1180.93685	0.89157
1178.88304	0.88904
1176.82924	0.88697
1174.77544	0.88451
1172.72163	0.88167
1170.66783	0.87879
1168.61403	0.87567
1166.56022	0.87237
1164.50642	0.86939
1162.45262	0.86735
1160.39881	0.86595
1158.34501	0.86392
1156.29121	0.86112
1154.23740	0.85857
1152.18360	0.85692
1150.12980	0.85604
1148.07599	0.85516
1146.02219	0.85367
1143.96839	0.85183
1141.91458	0.85011
1139.86078	0.84820
1137.80698	0.84599
1135.75317	0.84384
1133.69937	0.84154
1131.64557	0.83870
1129.59176	0.83522
1127.53796	0.83143
1125.48416	0.82738
1123.43036	0.82244
1121.37655	0.81654
1119.32275	0.81011
1117.26895	0.80347
1115.21514	0.79706
1113.16134	0.79111
1111.10754	0.78535
1109.05373	0.77985
1106.99993	0.77504
1104.94613	0.77100
1102.89232	0.76735
1100.83852	0.76380
1098.78472	0.76039
1096.73091	0.75705
1094.67711	0.75369
1092.62331	0.75087
1090.56950	0.74870
1088.51570	0.74654
1086.46190	0.74427
1084.40809	0.74201
1082.35429	0.73984
1080.30049	0.73751
1078.24668	0.73460
1076.19288	0.73129
1074.13908	0.72775
1072.08528	0.72389
1070.03147	0.71980
1067.97767	0.71563
1065.92387	0.71122
1063.87006	0.70644
1061.81626	0.70175
1059.76246	0.69743
1057.70865	0.69294
1055.65485	0.68751
1053.60105	0.68081
1051.54724	0.67319
1049.49344	0.66506
1047.43964	0.65617
1045.38583	0.64625
1043.33203	0.63570
1041.27823	0.62488
1039.22442	0.61373
1037.17062	0.60256
1035.11682	0.59163
1033.06301	0.58061
1031.00921	0.57001
1028.95541	0.56143
1026.90160	0.55568
1024.84780	0.55219
1022.79400	0.54999
1020.74019	0.54834
1018.68639	0.54653
1016.63259	0.54389
1014.57879	0.54066
1012.52498	0.53738
1010.47118	0.53415
1008.41738	0.53111
1006.36357	0.52882
1004.30977	0.52763
1002.25597	0.52759
1000.20216	0.52921
998.14836	0.53279
996.09456	0.53754
994.04075	0.54261
991.98695	0.54796
989.93315	0.55389
987.87934	0.56062
985.82554	0.56824
983.77174	0.57654
981.71793	0.58561
979.66413	0.59621
977.61033	0.60847
975.55652	0.62165
973.50272	0.63512
971.44892	0.64843
969.39511	0.66115
967.34131	0.67296
965.28751	0.68403
963.23371	0.69468
961.17990	0.70490
959.12610	0.71450
957.07230	0.72294
955.01849	0.73013
952.96469	0.73659
950.91089	0.74270
948.85708	0.74819
946.80328	0.75267
944.74948	0.75661
942.69567	0.76064
940.64187	0.76495
938.58807	0.76927
936.53426	0.77348
934.48046	0.77773
932.42666	0.78166
930.37285	0.78500
928.31905	0.78777
926.26525	0.78978
924.21144	0.79095
922.15764	0.79152
920.10384	0.79160
918.05003	0.79055
915.99623	0.78832
913.94243	0.78602
911.88862	0.78450
909.83482	0.78445
907.78102	0.78682
905.72722	0.79217
903.67341	0.80038
901.61961	0.81048
899.56581	0.82082
897.51200	0.82968
895.45820	0.83681
893.40440	0.84303
891.35059	0.84846
889.29679	0.85294
887.24299	0.85642
885.18918	0.85891
883.13538	0.86091
881.08158	0.86260
879.02777	0.86410
876.97397	0.86631
874.92017	0.86945
872.86636	0.87300
870.81256	0.87665
868.75876	0.87972
866.70495	0.88186
864.65115	0.88352
862.59735	0.88537
860.54354	0.88760
858.48974	0.88994
856.43594	0.89220
854.38213	0.89484
852.32833	0.89721
850.27453	0.89776
848.22073	0.89697
846.16692	0.89605
844.11312	0.89487
842.05932	0.89341
840.00551	0.89268
837.95171	0.89239
835.89791	0.89163
833.84410	0.89109
831.79030	0.89099
829.73650	0.89084
827.68269	0.89086
825.62889	0.89136
823.57509	0.89246
821.52128	0.89394
819.46748	0.89528
817.41368	0.89588
815.35987	0.89554
813.30607	0.89462
811.25227	0.89294
809.19846	0.88933
807.14466	0.88285
805.09086	0.87448
803.03705	0.86704
800.98325	0.86228
798.92945	0.86021
796.87565	0.86100
794.82184	0.86358
792.76804	0.86533
790.71424	0.86553
788.66043	0.86505
786.60663	0.86378
784.55283	0.86135
782.49902	0.85833
780.44522	0.85501
778.39142	0.85148
776.33761	0.84827
774.28381	0.84504
772.23001	0.84036
770.17620	0.83307
768.12240	0.82275
766.06860	0.81062
764.01479	0.79844
761.96099	0.78649
759.90719	0.77557
757.85338	0.76768
755.79958	0.76401
753.74578	0.76378
751.69197	0.76484
749.63817	0.76658
747.58437	0.77072
745.53056	0.77886
743.47676	0.79103
741.42296	0.80546
739.36916	0.81949
737.31535	0.83138
735.26155	0.84139
733.20775	0.85026
731.15394	0.85741
729.10014	0.86185
727.04634	0.86391
724.99253	0.86561
722.93873	0.86797
720.88493	0.87045
718.83112	0.87306
716.77732	0.87494
714.72352	0.87414
712.66971	0.86978
710.61591	0.85988
708.56211	0.83947
706.50830	0.80433
704.45450	0.75328
702.40070	0.68874
700.34689	0.61765
698.29309	0.55452
696.23929	0.52732
694.18548	0.55945
692.13168	0.63279
690.07788	0.70282
688.02408	0.74726
685.97027	0.77176
683.91647	0.78664
681.86267	0.79651
679.80886	0.80316
677.75506	0.80786
675.70126	0.81111
673.64745	0.81331
671.59365	0.81444
669.53985	0.81526
667.48604	0.81746
665.43224	0.82007
663.37844	0.82181
661.32463	0.82291
659.27083	0.82336
657.21703	0.82242
655.16322	0.81953
653.10942	0.81619
651.05562	0.81402
649.00181	0.81337
646.94801	0.81421
644.89421	0.81586
642.84040	0.81722
640.78660	0.81830
638.73280	0.82041
636.67899	0.82377
634.62519	0.82633
632.57139	0.82660
630.51759	0.82584
628.46378	0.82542
626.40998	0.82511
624.35618	0.82459
622.30237	0.82288
620.24857	0.81955
618.19477	0.81592
616.14096	0.81290
614.08716	0.81100
612.03336	0.80948
609.97955	0.80630
607.92575	0.80139
605.87195	0.79657
603.81814	0.79335
601.76434	0.79074
599.71054	0.78643
597.65673	0.78065
595.60293	0.77595
593.54913	0.77354
591.49532	0.77202
589.44152	0.77051
587.38772	0.76942
585.33391	0.76854
583.28011	0.76737
581.22631	0.76568
579.17250	0.76306
577.11870	0.75949
575.06490	0.75582
573.01110	0.75237
570.95729	0.74800
568.90349	0.74192
566.84969	0.73443
564.79588	0.72618
562.74208	0.71815
560.68828	0.71092
558.63447	0.70357
556.58067	0.69426
554.52687	0.68456
552.47306	0.67674
550.41926	0.66860
548.36546	0.65779
546.31165	0.64498
544.25785	0.63182
542.20405	0.61777
540.15024	0.60350
538.09644	0.59157
536.04264	0.58267
533.98883	0.57820
531.93503	0.57888
529.88123	0.58243
527.82742	0.58652
525.77362	0.59090
523.71982	0.59639
521.66602	0.60268
519.61221	0.60909
517.55841	0.61578
515.50461	0.62304
513.45080	0.63047
511.39700	0.63749
509.34320	0.64384
507.28939	0.64955
505.23559	0.65458
503.18179	0.65974
501.12798	0.66382
499.07418	0.66290
497.02038	0.65788
494.96657	0.65326
492.91277	0.64973
490.85897	0.64445
488.80516	0.63499
486.75136	0.62004
484.69756	0.60228
482.64375	0.58463
480.58995	0.56490
478.53615	0.54297
476.48234	0.52360
474.42854	0.50931
472.37474	0.49624
470.32093	0.48357
468.26713	0.47604
466.21333	0.47412
464.15953	0.47701
462.10572	0.48342
460.05192	0.49136
457.99812	0.50261
455.94431	0.51505
453.89051	0.52466
451.83671	0.53448
449.78290	0.54558
447.72910	0.55566
445.67530	0.56327
443.62149	0.56562
441.56769	0.56281
439.51389	0.56011
437.46008	0.55794
435.40628	0.55501
433.35248	0.55124
431.29867	0.54844
429.24487	0.54945
427.19107	0.55195
425.13726	0.55331
423.08346	0.55298
421.02966	0.55450
418.97585	0.56218
416.92205	0.57084
414.86825	0.57839
412.81445	0.58800
410.76064	0.59728
408.70684	0.60426
406.65304	0.61144
404.59923	0.61796
402.54543	0.61912
400.49163	0.61423
398.43782	0.60751
