3996.70104	0.99443
3994.64724	0.99486
3992.59344	0.99495
3990.53964	0.99484
3988.48583	0.99488
3986.43203	0.99503
3984.37823	0.99532
3982.32442	0.99579
3980.27062	0.99602
3978.21682	0.99591
3976.16301	0.99572
3974.10921	0.99548
3972.05541	0.99513
3970.00160	0.99451
3967.94780	0.99423
3965.89400	0.99508
3963.84019	0.99579
3961.78639	0.99543
3959.73259	0.99502
3957.67878	0.99469
3955.62498	0.99455
3953.57118	0.99479
3951.51737	0.99462
3949.46357	0.99423
3947.40977	0.99455
3945.35596	0.99504
3943.30216	0.99503
3941.24836	0.99450
3939.19455	0.99399
3937.14075	0.99420
3935.08695	0.99437
3933.03315	0.99382
3930.97934	0.99372
3928.92554	0.99467
3926.87174	0.99545
3924.81793	0.99530
3922.76413	0.99488
3920.71033	0.99480
3918.65652	0.99486
3916.60272	0.99491
3914.54892	0.99506
3912.49511	0.99513
3910.44131	0.99499
3908.38751	0.99486
3906.33370	0.99449
3904.27990	0.99384
3902.22610	0.99416
3900.17229	0.99540
3898.11849	0.99567
3896.06469	0.99489
3894.01088	0.99444
3891.95708	0.99512
3889.90328	0.99599
3887.84947	0.99567
3885.79567	0.99440
3883.74187	0.99336
3881.68807	0.99354
3879.63426	0.99427
3877.58046	0.99424
3875.52666	0.99396
3873.47285	0.99450
3871.41905	0.99549
3869.36525	0.99588
3867.31144	0.99565
3865.25764	0.99554
3863.20384	0.99522
3861.15003	0.99478
3859.09623	0.99485
3857.04243	0.99513
3854.98862	0.99539
3852.93482	0.99531
3850.88102	0.99469
3848.82721	0.99421
3846.77341	0.99396
3844.71961	0.99412
3842.66580	0.99478
3840.61200	0.99537
3838.55820	0.99556
3836.50439	0.99531
3834.45059	0.99470
3832.39679	0.99449
3830.34298	0.99448
3828.28918	0.99411
3826.23538	0.99430
3824.18158	0.99515
3822.12777	0.99545
3820.07397	0.99521
3818.02017	0.99521
3815.96636	0.99487
3813.91256	0.99433
3811.85876	0.99456
3809.80495	0.99501
3807.75115	0.99504
3805.69735	0.99503
3803.64354	0.99500
3801.58974	0.99469
3799.53594	0.99425
3797.48213	0.99402
3795.42833	0.99425
3793.37453	0.99468
3791.32072	0.99492
3789.26692	0.99490
3787.21312	0.99495
3785.15931	0.99558
3783.10551	0.99620
3781.05171	0.99609
3778.99790	0.99560
3776.94410	0.99530
3774.89030	0.99541
3772.83650	0.99571
3770.78269	0.99581
3768.72889	0.99552
3766.67509	0.99519
3764.62128	0.99518
3762.56748	0.99507
3760.51368	0.99455
3758.45987	0.99437
3756.40607	0.99512
3754.35227	0.99583
3752.29846	0.99551
3750.24466	0.99506
3748.19086	0.99538
3746.13705	0.99535
3744.08325	0.99559
3742.02945	0.99631
3739.97564	0.99588
3737.92184	0.99455
3735.86804	0.99326
3733.81423	0.99279
3731.76043	0.99351
3729.70663	0.99404
3727.65282	0.99394
3725.59902	0.99417
3723.54522	0.99460
3721.49141	0.99464
3719.43761	0.99466
3717.38381	0.99513
3715.33001	0.99529
3713.27620	0.99413
3711.22240	0.99300
3709.16860	0.99337
3707.11479	0.99385
3705.06099	0.99371
3703.00719	0.99330
3700.95338	0.99326
3698.89958	0.99304
3696.84578	0.99237
3694.79197	0.99200
3692.73817	0.99222
3690.68437	0.99303
3688.63056	0.99378
3686.57676	0.99350
3684.52296	0.99299
3682.46915	0.99274
3680.41535	0.99256
3678.36155	0.99245
3676.30774	0.99212
3674.25394	0.99157
3672.20014	0.99184
3670.14633	0.99339
3668.09253	0.99476
3666.03873	0.99455
3663.98492	0.99389
3661.93112	0.99332
3659.87732	0.99272
3657.82352	0.99225
3655.76971	0.99211
3653.71591	0.99194
3651.66211	0.99135
3649.60830	0.99072
3647.55450	0.99108
3645.50070	0.99199
3643.44689	0.99239
3641.39309	0.99206
3639.33929	0.99140
3637.28548	0.99124
3635.23168	0.99138
3633.17788	0.99124
3631.12407	0.99127
3629.07027	0.99142
3627.01647	0.99066
3624.96266	0.98963
3622.90886	0.98897
3620.85506	0.98868
3618.80125	0.98886
3616.74745	0.98925
3614.69365	0.98959
3612.63984	0.98983
3610.58604	0.99003
3608.53224	0.99021
3606.47844	0.99001
3604.42463	0.98936
3602.37083	0.98882
3600.31703	0.98891
3598.26322	0.98927
3596.20942	0.98967
3594.15562	0.98989
3592.10181	0.98946
3590.04801	0.98872
3587.99421	0.98826
3585.94040	0.98817
3583.88660	0.98762
3581.83280	0.98687
3579.77899	0.98666
3577.72519	0.98672
3575.67139	0.98666
3573.61758	0.98657
3571.56378	0.98621
3569.50998	0.98570
3567.45617	0.98561
3565.40237	0.98549
3563.34857	0.98501
3561.29476	0.98500
3559.24096	0.98545
3557.18716	0.98542
3555.13335	0.98488
3553.07955	0.98449
3551.02575	0.98433
3548.97195	0.98390
3546.91814	0.98335
3544.86434	0.98312
3542.81054	0.98306
3540.75673	0.98313
3538.70293	0.98338
3536.64913	0.98338
3534.59532	0.98302
3532.54152	0.98296
3530.48772	0.98318
3528.43391	0.98306
3526.38011	0.98259
3524.32631	0.98220
3522.27250	0.98218
3520.21870	0.98214
3518.16490	0.98182
3516.11109	0.98160
3514.05729	0.98155
3512.00349	0.98124
3509.94968	0.98088
3507.89588	0.98067
3505.84208	0.98017
3503.78827	0.97972
3501.73447	0.97979
3499.68067	0.97988
3497.62687	0.97984
3495.57306	0.97995
3493.51926	0.97996
3491.46546	0.97975
3489.41165	0.97956
3487.35785	0.97934
3485.30405	0.97905
3483.25024	0.97871
3481.19644	0.97867
3479.14264	0.97895
3477.08883	0.97883
3475.03503	0.97835
3472.98123	0.97802
3470.92742	0.97808
3468.87362	0.97830
3466.81982	0.97820
3464.76601	0.97806
3462.71221	0.97805
3460.65841	0.97802
3458.60460	0.97781
3456.55080	0.97748
3454.49700	0.97725
3452.44319	0.97704
3450.38939	0.97666
3448.33559	0.97625
3446.28178	0.97606
3444.22798	0.97599
3442.17418	0.97579
3440.12038	0.97557
3438.06657	0.97558
3436.01277	0.97570
3433.95897	0.97558
3431.90516	0.97535
3429.85136	0.97535
3427.79756	0.97526
3425.74375	0.97499
3423.68995	0.97501
3421.63615	0.97512
3419.58234	0.97490
3417.52854	0.97459
3415.47474	0.97423
3413.42093	0.97356
3411.36713	0.97275
3409.31333	0.97261
3407.25952	0.97335
3405.20572	0.97384
3403.15192	0.97323
3401.09811	0.97239
3399.04431	0.97245
3396.99051	0.97302
3394.93670	0.97301
3392.88290	0.97245
3390.82910	0.97205
3388.77529	0.97190
3386.72149	0.97180
3384.66769	0.97159
3382.61389	0.97137
3380.56008	0.97122
3378.50628	0.97106
3376.45248	0.97079
3374.39867	0.97008
3372.34487	0.96916
3370.29107	0.96891
3368.23726	0.96898
3366.18346	0.96837
3364.12966	0.96777
3362.07585	0.96771
3360.02205	0.96747
3357.96825	0.96713
3355.91444	0.96706
3353.86064	0.96709
3351.80684	0.96732
3349.75303	0.96775
3347.69923	0.96826
3345.64543	0.96874
3343.59162	0.96900
3341.53782	0.96905
3339.48402	0.96885
3337.43021	0.96886
3335.37641	0.96939
3333.32261	0.96949
3331.26881	0.96903
3329.21500	0.96903
3327.16120	0.96973
3325.10740	0.97054
3323.05359	0.97064
3320.99979	0.97005
3318.94599	0.96974
3316.89218	0.96985
3314.83838	0.96975
3312.78458	0.96951
3310.73077	0.96946
3308.67697	0.96927
3306.62317	0.96902
3304.56936	0.96939
3302.51556	0.96983
3300.46176	0.96976
3298.40795	0.96959
3296.35415	0.96942
3294.30035	0.96919
3292.24654	0.96929
3290.19274	0.96938
3288.13894	0.96926
3286.08513	0.96949
3284.03133	0.96965
3281.97753	0.96926
3279.92372	0.96896
3277.86992	0.96922
3275.81612	0.96964
3273.76232	0.96982
3271.70851	0.96985
3269.65471	0.97000
3267.60091	0.96997
3265.54710	0.96929
3263.49330	0.96879
3261.43950	0.96914
3259.38569	0.96947
3257.33189	0.96918
3255.27809	0.96898
3253.22428	0.96909
3251.17048	0.96901
3249.11668	0.96886
3247.06287	0.96869
3245.00907	0.96855
3242.95527	0.96869
3240.90146	0.96921
3238.84766	0.96975
3236.79386	0.96970
3234.74005	0.96915
3232.68625	0.96888
3230.63245	0.96899
3228.57864	0.96845
3226.52484	0.96768
3224.47104	0.96784
3222.41724	0.96816
3220.36343	0.96792
3218.30963	0.96775
3216.25583	0.96805
3214.20202	0.96833
3212.14822	0.96828
3210.09442	0.96808
3208.04061	0.96781
3205.98681	0.96752
3203.93301	0.96764
3201.87920	0.96820
3199.82540	0.96854
3197.77160	0.96842
3195.71779	0.96795
3193.66399	0.96763
3191.61019	0.96758
3189.55638	0.96741
3187.50258	0.96745
3185.44878	0.96756
3183.39497	0.96752
3181.34117	0.96742
3179.28737	0.96694
3177.23356	0.96635
3175.17976	0.96640
3173.12596	0.96695
3171.07215	0.96720
3169.01835	0.96734
3166.96455	0.96795
3164.91075	0.96853
3162.85694	0.96877
3160.80314	0.96921
3158.74934	0.96985
3156.69553	0.97024
3154.64173	0.97028
3152.58793	0.96992
3150.53412	0.96942
3148.48032	0.96902
3146.42652	0.96883
3144.37271	0.96913
3142.31891	0.96941
3140.26511	0.96930
3138.21130	0.96942
3136.15750	0.96974
3134.10370	0.96986
3132.04989	0.97022
3129.99609	0.97060
3127.94229	0.97040
3125.88848	0.96980
3123.83468	0.96943
3121.78088	0.96994
3119.72707	0.97107
3117.67327	0.97175
3115.61947	0.97158
3113.56566	0.97106
3111.51186	0.97067
3109.45806	0.97064
3107.40426	0.97082
3105.35045	0.97107
3103.29665	0.97119
3101.24285	0.97109
3099.18904	0.97108
3097.13524	0.97106
3095.08144	0.97100
3093.02763	0.97098
3090.97383	0.97090
3088.92003	0.97092
3086.86622	0.97119
3084.81242	0.97161
3082.75862	0.97189
3080.70481	0.97207
3078.65101	0.97230
3076.59721	0.97240
3074.54340	0.97259
3072.48960	0.97279
3070.43580	0.97284
3068.38199	0.97282
3066.32819	0.97265
3064.27439	0.97268
3062.22058	0.97296
3060.16678	0.97301
3058.11298	0.97289
3056.05918	0.97286
3054.00537	0.97303
3051.95157	0.97303
3049.89777	0.97281
3047.84396	0.97304
3045.79016	0.97351
3043.73636	0.97362
3041.68255	0.97367
3039.62875	0.97386
3037.57495	0.97401
3035.52114	0.97392
3033.46734	0.97352
3031.41354	0.97353
3029.35973	0.97444
3027.30593	0.97535
3025.25213	0.97541
3023.19832	0.97499
3021.14452	0.97470
3019.09072	0.97460
3017.03691	0.97465
3014.98311	0.97470
3012.92931	0.97475
3010.87550	0.97481
3008.82170	0.97467
3006.76790	0.97451
3004.71409	0.97432
3002.66029	0.97403
3000.60649	0.97375
2998.55269	0.97382
2996.49888	0.97435
2994.44508	0.97485
2992.39128	0.97515
2990.33747	0.97543
2988.28367	0.97532
2986.22987	0.97473
2984.17606	0.97444
2982.12226	0.97483
2980.06846	0.97522
2978.01465	0.97539
2975.96085	0.97550
2973.90705	0.97536
2971.85324	0.97503
2969.79944	0.97472
2967.74564	0.97450
2965.69183	0.97431
2963.63803	0.97384
2961.58423	0.97336
2959.53042	0.97339
2957.47662	0.97341
2955.42282	0.97297
2953.36901	0.97287
2951.31521	0.97349
2949.26141	0.97405
2947.20761	0.97401
2945.15380	0.97362
2943.10000	0.97324
2941.04620	0.97261
2938.99239	0.97171
2936.93859	0.97090
2934.88479	0.97027
2932.83098	0.96995
2930.77718	0.96993
2928.72338	0.96971
2926.66957	0.96889
2924.61577	0.96758
2922.56197	0.96627
2920.50816	0.96549
2918.45436	0.96538
2916.40056	0.96563
2914.34675	0.96636
2912.29295	0.96796
2910.23915	0.96987
2908.18534	0.97093
2906.13154	0.97121
2904.07774	0.97169
2902.02393	0.97265
2899.97013	0.97361
2897.91633	0.97428
2895.86252	0.97457
2893.80872	0.97465
2891.75492	0.97489
2889.70112	0.97513
2887.64731	0.97522
2885.59351	0.97557
2883.53971	0.97601
2881.48590	0.97598
2879.43210	0.97570
2877.37830	0.97559
2875.32449	0.97568
2873.27069	0.97600
2871.21689	0.97633
2869.16308	0.97640
2867.10928	0.97659
2865.05548	0.97686
2863.00167	0.97661
2860.94787	0.97599
2858.89407	0.97536
2856.84026	0.97485
2854.78646	0.97445
2852.73266	0.97385
2850.67885	0.97317
2848.62505	0.97285
2846.57125	0.97324
2844.51744	0.97451
2842.46364	0.97606
2840.40984	0.97710
2838.35603	0.97763
2836.30223	0.97816
2834.24843	0.97879
2832.19463	0.97905
2830.14082	0.97909
2828.08702	0.97934
2826.03322	0.97984
2823.97941	0.98039
2821.92561	0.98074
2819.87181	0.98082
2817.81800	0.98072
2815.76420	0.98066
2813.71040	0.98071
2811.65659	0.98068
2809.60279	0.98066
2807.54899	0.98078
2805.49518	0.98111
2803.44138	0.98167
2801.38758	0.98219
2799.33377	0.98240
2797.27997	0.98246
2795.22617	0.98240
2793.17236	0.98205
2791.11856	0.98180
2789.06476	0.98193
2787.01095	0.98211
2784.95715	0.98221
2782.90335	0.98238
2780.84955	0.98273
2778.79574	0.98305
2776.74194	0.98298
2774.68814	0.98270
2772.63433	0.98268
2770.58053	0.98292
2768.52673	0.98326
2766.47292	0.98348
2764.41912	0.98343
2762.36532	0.98335
2760.31151	0.98338
2758.25771	0.98341
2756.20391	0.98350
2754.15010	0.98361
2752.09630	0.98370
2750.04250	0.98389
2747.98869	0.98408
2745.93489	0.98406
2743.88109	0.98406
2741.82728	0.98425
2739.77348	0.98426
2737.71968	0.98410
2735.66587	0.98410
2733.61207	0.98428
2731.55827	0.98487
2729.50446	0.98563
2727.45066	0.98569
2725.39686	0.98516
2723.34306	0.98486
2721.28925	0.98492
2719.23545	0.98508
2717.18165	0.98519
2715.12784	0.98531
2713.07404	0.98564
2711.02024	0.98599
2708.96643	0.98601
2706.91263	0.98551
2704.85883	0.98485
2702.80502	0.98468
2700.75122	0.98503
2698.69742	0.98547
2696.64361	0.98583
2694.58981	0.98598
2692.53601	0.98594
2690.48220	0.98588
2688.42840	0.98579
2686.37460	0.98561
2684.32079	0.98554
2682.26699	0.98571
2680.21319	0.98578
2678.15938	0.98592
2676.10558	0.98641
2674.05178	0.98667
2671.99797	0.98652
2669.94417	0.98642
2667.89037	0.98650
2665.83657	0.98643
2663.78276	0.98616
2661.72896	0.98611
2659.67516	0.98634
2657.62135	0.98646
2655.56755	0.98629
2653.51375	0.98606
2651.45994	0.98588
2649.40614	0.98586
2647.35234	0.98601
2645.29853	0.98597
2643.24473	0.98597
2641.19093	0.98621
2639.13712	0.98630
2637.08332	0.98609
2635.02952	0.98604
2632.97571	0.98643
2630.92191	0.98684
2628.86811	0.98676
2626.81430	0.98636
2624.76050	0.98619
2622.70670	0.98650
2620.65289	0.98684
2618.59909	0.98706
2616.54529	0.98745
2614.49149	0.98771
2612.43768	0.98775
2610.38388	0.98797
2608.33008	0.98810
2606.27627	0.98761
2604.22247	0.98661
2602.16867	0.98565
2600.11486	0.98521
2598.06106	0.98555
2596.00726	0.98614
2593.95345	0.98636
2591.89965	0.98672
2589.84585	0.98750
2587.79204	0.98812
2585.73824	0.98833
2583.68444	0.98814
2581.63063	0.98794
2579.57683	0.98808
2577.52303	0.98819
2575.46922	0.98835
2573.41542	0.98848
2571.36162	0.98806
2569.30781	0.98773
2567.25401	0.98812
2565.20021	0.98848
2563.14640	0.98826
2561.09260	0.98808
2559.03880	0.98816
2556.98500	0.98836
2554.93119	0.98881
2552.87739	0.98901
2550.82359	0.98836
2548.76978	0.98770
2546.71598	0.98765
2544.66218	0.98760
2542.60837	0.98742
2540.55457	0.98750
2538.50077	0.98812
2536.44696	0.98894
2534.39316	0.98894
2532.33936	0.98811
2530.28555	0.98771
2528.23175	0.98808
2526.17795	0.98857
2524.12414	0.98908
2522.07034	0.98951
2520.01654	0.98957
2517.96273	0.98931
2515.90893	0.98876
2513.85513	0.98839
2511.80132	0.98844
2509.74752	0.98851
2507.69372	0.98883
2505.63992	0.98928
2503.58611	0.98929
2501.53231	0.98902
2499.47851	0.98869
2497.42470	0.98853
2495.37090	0.98846
2493.31710	0.98809
2491.26329	0.98800
2489.20949	0.98860
2487.15569	0.98909
2485.10188	0.98908
2483.04808	0.98898
2480.99428	0.98908
2478.94047	0.98936
2476.88667	0.98943
2474.83287	0.98948
2472.77906	0.99000
2470.72526	0.99041
2468.67146	0.99045
2466.61765	0.99022
2464.56385	0.98935
2462.51005	0.98894
2460.45624	0.98960
2458.40244	0.98974
2456.34864	0.98906
2454.29483	0.98864
2452.24103	0.98851
2450.18723	0.98809
2448.13343	0.98795
2446.07962	0.98850
2444.02582	0.98885
2441.97202	0.98908
2439.91821	0.98992
2437.86441	0.99056
2435.81061	0.99008
2433.75680	0.98927
2431.70300	0.98910
2429.64920	0.98935
2427.59539	0.98918
2425.54159	0.98893
2423.48779	0.98941
2421.43398	0.98978
2419.38018	0.98957
2417.32638	0.98950
2415.27257	0.98951
2413.21877	0.98933
2411.16497	0.98916
2409.11116	0.98915
2407.05736	0.98916
2405.00356	0.98922
2402.94975	0.98961
2400.89595	0.99000
2398.84215	0.99003
2396.78834	0.99004
2394.73454	0.99009
2392.68074	0.99005
2390.62694	0.99020
2388.57313	0.99031
2386.51933	0.99027
2384.46553	0.99055
2382.41172	0.99128
2380.35792	0.99186
2378.30412	0.99153
2376.25031	0.98991
2374.19651	0.98764
2372.14271	0.98642
2370.08890	0.98645
2368.03510	0.98632
2365.98130	0.98640
2363.92749	0.98716
2361.87369	0.98729
2359.81989	0.98705
2357.76608	0.98794
2355.71228	0.98933
2353.65848	0.99000
2351.60467	0.99023
2349.55087	0.99010
2347.49707	0.98906
2345.44326	0.98758
2343.38946	0.98694
2341.33566	0.98721
2339.28186	0.98781
2337.22805	0.98861
2335.17425	0.98858
2333.12045	0.98689
2331.06664	0.98563
2329.01284	0.98655
2326.95904	0.98778
2324.90523	0.98771
2322.85143	0.98708
2320.79763	0.98719
2318.74382	0.98763
2316.69002	0.98749
2314.63622	0.98714
2312.58241	0.98762
2310.52861	0.98882
2308.47481	0.98944
2306.42100	0.98911
2304.36720	0.98854
2302.31340	0.98812
2300.25959	0.98798
2298.20579	0.98834
2296.15199	0.98844
2294.09818	0.98760
2292.04438	0.98696
2289.99058	0.98739
2287.93677	0.98850
2285.88297	0.98911
2283.82917	0.98844
2281.77537	0.98799
2279.72156	0.98881
2277.66776	0.98932
2275.61396	0.98887
2273.56015	0.98923
2271.50635	0.99042
2269.45255	0.99019
2267.39874	0.98905
2265.34494	0.98861
2263.29114	0.98837
2261.23733	0.98806
2259.18353	0.98821
2257.12973	0.98900
2255.07592	0.98972
2253.02212	0.98931
2250.96832	0.98820
2248.91451	0.98807
2246.86071	0.98842
2244.80691	0.98802
2242.75310	0.98762
2240.69930	0.98756
2238.64550	0.98824
2236.59169	0.98980
2234.53789	0.99100
2232.48409	0.99096
2230.43029	0.98897
2228.37648	0.98660
2226.32268	0.98775
2224.26888	0.99121
2222.21507	0.99227
2220.16127	0.99137
2218.10747	0.99106
2216.05366	0.99081
2213.99986	0.98888
2211.94606	0.98613
2209.89225	0.98593
2207.83845	0.98846
2205.78465	0.99105
2203.73084	0.99230
2201.67704	0.99185
2199.62324	0.99002
2197.56943	0.98802
2195.51563	0.98755
2193.46183	0.98883
2191.40802	0.98941
2189.35422	0.98796
2187.30042	0.98664
2185.24661	0.98740
2183.19281	0.98919
2181.13901	0.99028
2179.08520	0.99092
2177.03140	0.99113
2174.97760	0.99089
2172.92380	0.99162
2170.86999	0.99208
2168.81619	0.99112
2166.76239	0.99031
2164.70858	0.98890
2162.65478	0.98683
2160.60098	0.98707
2158.54717	0.99038
2156.49337	0.99351
2154.43957	0.99348
2152.38576	0.99096
2150.33196	0.98892
2148.27816	0.98967
2146.22435	0.99089
2144.17055	0.98996
2142.11675	0.98893
2140.06294	0.98945
2138.00914	0.99075
2135.95534	0.99215
2133.90153	0.99328
2131.84773	0.99273
2129.79393	0.99064
2127.74012	0.98950
2125.68632	0.98993
2123.63252	0.99059
2121.57871	0.99046
2119.52491	0.98973
2117.47111	0.98902
2115.41731	0.98877
2113.36350	0.98921
2111.30970	0.98976
2109.25590	0.99008
2107.20209	0.99013
2105.14829	0.98971
2103.09449	0.98945
2101.04068	0.98997
2098.98688	0.98998
2096.93308	0.98909
2094.87927	0.98901
2092.82547	0.98975
2090.77167	0.99014
2088.71786	0.98982
2086.66406	0.98957
2084.61026	0.99045
2082.55645	0.99169
2080.50265	0.99127
2078.44885	0.98971
2076.39504	0.98961
2074.34124	0.99017
2072.28744	0.98982
2070.23363	0.98934
2068.17983	0.98893
2066.12603	0.98857
2064.07223	0.98895
2062.01842	0.99077
2059.96462	0.99296
2057.91082	0.99343
2055.85701	0.99202
2053.80321	0.98966
2051.74941	0.98765
2049.69560	0.98728
2047.64180	0.98791
2045.58800	0.98911
2043.53419	0.99178
2041.48039	0.99416
2039.42659	0.99335
2037.37278	0.99041
2035.31898	0.98868
2033.26518	0.98847
2031.21137	0.98749
2029.15757	0.98636
2027.10377	0.98718
2025.04996	0.98948
2022.99616	0.99150
2020.94236	0.99223
2018.88855	0.99228
2016.83475	0.99184
2014.78095	0.99050
2012.72714	0.98978
2010.67334	0.98979
2008.61954	0.98889
2006.56574	0.98892
2004.51193	0.99037
2002.45813	0.99068
2000.40433	0.98941
1998.35052	0.98765
1996.29672	0.98811
1994.24292	0.99095
1992.18911	0.99252
1990.13531	0.99161
1988.08151	0.98937
1986.02770	0.98842
1983.97390	0.99018
1981.92010	0.99096
1979.86629	0.98876
1977.81249	0.98828
1975.75869	0.99125
1973.70488	0.99271
1971.65108	0.99256
1969.59728	0.99327
1967.54347	0.99385
1965.48967	0.99335
1963.43587	0.99235
1961.38206	0.99279
1959.32826	0.99433
1957.27446	0.99389
1955.22066	0.99242
1953.16685	0.99168
1951.11305	0.99052
1949.05925	0.98958
1947.00544	0.98990
1944.95164	0.99093
1942.89784	0.99242
1940.84403	0.99372
1938.79023	0.99402
1936.73643	0.99346
1934.68262	0.99194
1932.62882	0.99014
1930.57502	0.98990
1928.52121	0.99115
1926.46741	0.99230
1924.41361	0.99264
1922.35980	0.99262
1920.30600	0.99283
1918.25220	0.99296
1916.19839	0.99280
1914.14459	0.99328
1912.09079	0.99412
1910.03698	0.99447
1907.98318	0.99462
1905.92938	0.99404
1903.87557	0.99267
1901.82177	0.99189
1899.76797	0.99195
1897.71417	0.99240
1895.66036	0.99280
1893.60656	0.99272
1891.55276	0.99277
1889.49895	0.99347
1887.44515	0.99399
1885.39135	0.99357
1883.33754	0.99229
1881.28374	0.99164
1879.22994	0.99260
1877.17613	0.99350
1875.12233	0.99324
1873.06853	0.99320
1871.01472	0.99363
1868.96092	0.99307
1866.90712	0.99194
1864.85331	0.99149
1862.79951	0.99168
1860.74571	0.99219
1858.69190	0.99243
1856.63810	0.99238
1854.58430	0.99231
1852.53049	0.99248
1850.47669	0.99281
1848.42289	0.99277
1846.36908	0.99267
1844.31528	0.99291
1842.26148	0.99301
1840.20768	0.99258
1838.15387	0.99180
1836.10007	0.99164
1834.04627	0.99247
1831.99246	0.99322
1829.93866	0.99359
1827.88486	0.99374
1825.83105	0.99345
1823.77725	0.99328
1821.72345	0.99369
1819.66964	0.99378
1817.61584	0.99321
1815.56204	0.99275
1813.50823	0.99269
1811.45443	0.99268
1809.40063	0.99257
1807.34682	0.99242
1805.29302	0.99224
1803.23922	0.99206
1801.18541	0.99204
1799.13161	0.99231
1797.07781	0.99232
1795.02400	0.99181
1792.97020	0.99145
1790.91640	0.99120
1788.86260	0.99079
1786.80879	0.99099
1784.75499	0.99215
1782.70119	0.99306
1780.64738	0.99291
1778.59358	0.99249
1776.53978	0.99214
1774.48597	0.99188
1772.43217	0.99183
1770.37837	0.99178
1768.32456	0.99171
1766.27076	0.99163
1764.21696	0.99160
1762.16315	0.99190
1760.10935	0.99201
1758.05555	0.99150
1756.00174	0.99112
1753.94794	0.99099
1751.89414	0.99051
1749.84033	0.99012
1747.78653	0.99044
1745.73273	0.99068
1743.67892	0.99067
1741.62512	0.99067
1739.57132	0.99051
1737.51751	0.99018
1735.46371	0.98979
1733.40991	0.98950
1731.35611	0.98943
1729.30230	0.98927
1727.24850	0.98914
1725.19470	0.98914
1723.14089	0.98886
1721.08709	0.98830
1719.03329	0.98796
1716.97948	0.98789
1714.92568	0.98790
1712.87188	0.98796
1710.81807	0.98770
1708.76427	0.98710
1706.71047	0.98638
1704.65666	0.98552
1702.60286	0.98461
1700.54906	0.98394
1698.49525	0.98365
1696.44145	0.98335
1694.38765	0.98256
1692.33384	0.98126
1690.28004	0.98000
1688.22624	0.97901
1686.17243	0.97810
1684.11863	0.97739
1682.06483	0.97669
1680.01103	0.97565
1677.95722	0.97464
1675.90342	0.97346
1673.84962	0.97200
1671.79581	0.97065
1669.74201	0.96931
1667.68821	0.96772
1665.63440	0.96595
1663.58060	0.96371
1661.52680	0.96123
1659.47299	0.95965
1657.41919	0.95883
1655.36539	0.95822
1653.31158	0.95876
1651.25778	0.95984
1649.20398	0.95939
1647.15017	0.95847
1645.09637	0.95768
1643.04257	0.95682
1640.98876	0.95583
1638.93496	0.95457
1636.88116	0.95311
1634.82735	0.95201
1632.77355	0.95115
1630.71975	0.95042
1628.66594	0.95061
1626.61214	0.95185
1624.55834	0.95340
1622.50454	0.95476
1620.45073	0.95514
1618.39693	0.95520
1616.34313	0.95624
1614.28932	0.95737
1612.23552	0.95761
1610.18172	0.95743
1608.12791	0.95743
1606.07411	0.95783
1604.02031	0.95815
1601.96650	0.95838
1599.91270	0.95865
1597.85890	0.95882
1595.80509	0.95919
1593.75129	0.95983
1591.69749	0.96036
1589.64368	0.96080
1587.58988	0.96140
1585.53608	0.96220
1583.48227	0.96292
1581.42847	0.96350
1579.37467	0.96400
1577.32086	0.96472
1575.26706	0.96595
1573.21326	0.96658
1571.15945	0.96658
1569.10565	0.96682
1567.05185	0.96745
1564.99805	0.96805
1562.94424	0.96820
1560.89044	0.96812
1558.83664	0.96870
1556.78283	0.96930
1554.72903	0.96917
1552.67523	0.96887
1550.62142	0.96865
1548.56762	0.96869
1546.51382	0.96872
1544.46001	0.96875
1542.40621	0.96923
1540.35241	0.97024
1538.29860	0.97043
1536.24480	0.96984
1534.19100	0.96960
1532.13719	0.96984
1530.08339	0.96989
1528.02959	0.96993
1525.97578	0.97034
1523.92198	0.97077
1521.86818	0.97114
1519.81437	0.97148
1517.76057	0.97180
1515.70677	0.97222
1513.65297	0.97234
1511.59916	0.97223
1509.54536	0.97216
1507.49156	0.97278
1505.43775	0.97418
1503.38395	0.97468
1501.33015	0.97478
1499.27634	0.97497
1497.22254	0.97543
1495.16874	0.97606
1493.11493	0.97636
1491.06113	0.97670
1489.00733	0.97720
1486.95352	0.97742
1484.89972	0.97763
1482.84592	0.97778
1480.79211	0.97771
1478.73831	0.97742
1476.68451	0.97693
1474.63070	0.97612
1472.57690	0.97439
1470.52310	0.97241
1468.46929	0.97164
1466.41549	0.97194
1464.36169	0.97275
1462.30788	0.97337
1460.25408	0.97358
1458.20028	0.97350
1456.14648	0.97322
1454.09267	0.97277
1452.03887	0.97234
1449.98507	0.97190
1447.93126	0.97152
1445.87746	0.97135
1443.82366	0.97096
1441.76985	0.97025
1439.71605	0.96967
1437.66225	0.96935
1435.60844	0.96899
1433.55464	0.96833
1431.50084	0.96733
1429.44703	0.96620
1427.39323	0.96527
1425.33943	0.96452
1423.28562	0.96404
1421.23182	0.96409
1419.17802	0.96495
1417.12421	0.96630
1415.07041	0.96709
1413.01661	0.96699
1410.96280	0.96667
1408.90900	0.96732
1406.85520	0.96884
1404.80139	0.97034
1402.74759	0.97125
1400.69379	0.97153
1398.63999	0.97173
1396.58618	0.97232
1394.53238	0.97289
1392.47858	0.97289
1390.42477	0.97256
1388.37097	0.97262
1386.31717	0.97320
1384.26336	0.97350
1382.20956	0.97335
1380.15576	0.97331
1378.10195	0.97369
1376.04815	0.97415
1373.99435	0.97434
1371.94054	0.97446
1369.88674	0.97484
1367.83294	0.97527
1365.77913	0.97539
1363.72533	0.97556
1361.67153	0.97589
1359.61772	0.97606
1357.56392	0.97618
1355.51012	0.97631
1353.45631	0.97622
1351.40251	0.97612
1349.34871	0.97627
1347.29491	0.97638
1345.24110	0.97631
1343.18730	0.97653
1341.13350	0.97717
1339.07969	0.97774
1337.02589	0.97773
1334.97209	0.97716
1332.91828	0.97663
1330.86448	0.97662
1328.81068	0.97697
1326.75687	0.97714
1324.70307	0.97692
1322.64927	0.97670
1320.59546	0.97690
1318.54166	0.97753
1316.48786	0.97807
1314.43405	0.97829
1312.38025	0.97851
1310.32645	0.97868
1308.27264	0.97864
1306.21884	0.97849
1304.16504	0.97824
1302.11123	0.97814
1300.05743	0.97830
1298.00363	0.97848
1295.94982	0.97833
1293.89602	0.97798
1291.84222	0.97785
1289.78842	0.97784
1287.73461	0.97765
1285.68081	0.97755
1283.62701	0.97777
1281.57320	0.97789
1279.51940	0.97773
1277.46560	0.97771
1275.41179	0.97804
1273.35799	0.97853
1271.30419	0.97896
1269.25038	0.97910
1267.19658	0.97894
1265.14278	0.97877
1263.08897	0.97876
1261.03517	0.97863
1258.98137	0.97848
1256.92756	0.97847
1254.87376	0.97833
1252.81996	0.97822
1250.76615	0.97840
1248.71235	0.97860
1246.65855	0.97833
1244.60474	0.97759
1242.55094	0.97705
1240.49714	0.97700
1238.44334	0.97716
1236.38953	0.97716
1234.33573	0.97693
1232.28193	0.97654
1230.22812	0.97599
1228.17432	0.97542
1226.12052	0.97521
1224.06671	0.97533
1222.01291	0.97533
1219.95911	0.97512
1217.90530	0.97504
1215.85150	0.97485
1213.79770	0.97423
1211.74389	0.97356
1209.69009	0.97303
1207.63629	0.97236
1205.58248	0.97160
1203.52868	0.97095
1201.47488	0.97025
1199.42107	0.96950
1197.36727	0.96873
1195.31347	0.96757
1193.25966	0.96633
1191.20586	0.96551
1189.15206	0.96484
1187.09825	0.96401
1185.04445	0.96329
1182.99065	0.96265
1180.93685	0.96158
1178.88304	0.96022
1176.82924	0.95891
1174.77544	0.95757
1172.72163	0.95626
1170.66783	0.95488
1168.61403	0.95305
1166.56022	0.95112
1164.50642	0.94950
1162.45262	0.94793
1160.39881	0.94619
1158.34501	0.94449
1156.29121	0.94298
1154.23740	0.94177
1152.18360	0.94058
1150.12980	0.93903
1148.07599	0.93742
1146.02219	0.93597
1143.96839	0.93434
1141.91458	0.93249
1139.86078	0.93074
1137.80698	0.92920
1135.75317	0.92789
1133.69937	0.92688
1131.64557	0.92576
1129.59176	0.92413
1127.53796	0.92241
1125.48416	0.92124
1123.43036	0.92034
1121.37655	0.91896
1119.32275	0.91714
1117.26895	0.91543
1115.21514	0.91422
1113.16134	0.91325
1111.10754	0.91188
1109.05373	0.91016
1106.99993	0.90845
1104.94613	0.90696
1102.89232	0.90592
1100.83852	0.90489
1098.78472	0.90338
1096.73091	0.90196
1094.67711	0.90096
1092.62331	0.90007
1090.56950	0.89924
1088.51570	0.89861
1086.46190	0.89811
1084.40809	0.89758
1082.35429	0.89741
1080.30049	0.89760
1078.24668	0.89765
1076.19288	0.89774
1074.13908	0.89847
1072.08528	0.89966
1070.03147	0.90047
1067.97767	0.90087
1065.92387	0.90149
1063.87006	0.90229
1061.81626	0.90289
1059.76246	0.90340
1057.70865	0.90423
1055.65485	0.90536
1053.60105	0.90627
1051.54724	0.90689
1049.49344	0.90757
1047.43964	0.90827
1045.38583	0.90905
1043.33203	0.91001
1041.27823	0.91056
1039.22442	0.91047
1037.17062	0.91087
1035.11682	0.91192
1033.06301	0.91215
1031.00921	0.91137
1028.95541	0.91040
1026.90160	0.90956
1024.84780	0.90859
1022.79400	0.90699
1020.74019	0.90485
1018.68639	0.90274
1016.63259	0.90087
1014.57879	0.89910
1012.52498	0.89697
1010.47118	0.89414
1008.41738	0.89103
1006.36357	0.88826
1004.30977	0.88564
1002.25597	0.88309
1000.20216	0.88084
998.14836	0.87855
996.09456	0.87606
994.04075	0.87378
991.98695	0.87189
989.93315	0.87020
987.87934	0.86890
985.82554	0.86822
983.77174	0.86756
981.71793	0.86663
979.66413	0.86611
977.61033	0.86638
975.55652	0.86730
973.50272	0.86888
971.44892	0.87164
969.39511	0.87575
967.34131	0.88064
965.28751	0.88577
963.23371	0.89114
961.17990	0.89644
959.12610	0.90101
957.07230	0.90487
955.01849	0.90848
952.96469	0.91179
950.91089	0.91445
948.85708	0.91687
946.80328	0.91968
944.74948	0.92264
942.69567	0.92517
940.64187	0.92688
938.58807	0.92806
936.53426	0.92942
934.48046	0.93122
932.42666	0.93308
930.37285	0.93433
928.31905	0.93535
926.26525	0.93641
924.21144	0.93699
922.15764	0.93738
920.10384	0.93773
918.05003	0.93789
915.99623	0.93795
913.94243	0.93802
911.88862	0.93783
909.83482	0.93701
907.78102	0.93589
905.72722	0.93472
903.67341	0.93337
901.61961	0.93200
899.56581	0.93102
897.51200	0.93098
895.45820	0.93180
893.40440	0.93276
891.35059	0.93351
889.29679	0.93424
887.24299	0.93513
885.18918	0.93630
883.13538	0.93740
881.08158	0.93768
879.02777	0.93741
876.97397	0.93775
874.92017	0.93862
872.86636	0.93896
870.81256	0.93891
868.75876	0.93898
866.70495	0.93917
864.65115	0.93954
862.59735	0.93969
860.54354	0.93929
858.48974	0.93853
856.43594	0.93768
854.38213	0.93680
852.32833	0.93600
850.27453	0.93516
848.22073	0.93397
846.16692	0.93280
844.11312	0.93215
842.05932	0.93162
840.00551	0.93026
837.95171	0.92858
835.89791	0.92809
833.84410	0.92847
831.79030	0.92880
829.73650	0.92920
827.68269	0.92906
825.62889	0.92774
823.57509	0.92607
821.52128	0.92500
819.46748	0.92429
817.41368	0.92303
815.35987	0.92143
813.30607	0.92035
811.25227	0.91967
809.19846	0.91882
807.14466	0.91762
805.09086	0.91622
803.03705	0.91477
800.98325	0.91386
798.92945	0.91340
796.87565	0.91271
794.82184	0.91275
792.76804	0.91383
790.71424	0.91416
788.66043	0.91352
786.60663	0.91338
784.55283	0.91398
782.49902	0.91455
780.44522	0.91484
778.39142	0.91535
776.33761	0.91599
774.28381	0.91581
772.23001	0.91545
770.17620	0.91593
768.12240	0.91669
766.06860	0.91688
764.01479	0.91597
761.96099	0.91447
759.90719	0.91343
757.85338	0.91293
755.79958	0.91250
753.74578	0.91237
751.69197	0.91268
749.63817	0.91294
747.58437	0.91345
745.53056	0.91429
743.47676	0.91437
741.42296	0.91371
739.36916	0.91313
737.31535	0.91282
735.26155	0.91278
733.20775	0.91293
731.15394	0.91305
729.10014	0.91306
727.04634	0.91292
724.99253	0.91232
722.93873	0.91107
720.88493	0.90998
718.83112	0.90952
716.77732	0.90931
714.72352	0.90891
712.66971	0.90789
710.61591	0.90632
708.56211	0.90477
706.50830	0.90335
704.45450	0.90208
702.40070	0.90119
700.34689	0.90052
698.29309	0.89964
696.23929	0.89839
694.18548	0.89727
692.13168	0.89628
690.07788	0.89540
688.02408	0.89506
685.97027	0.89506
683.91647	0.89564
681.86267	0.89627
679.80886	0.89578
677.75506	0.89516
675.70126	0.89499
673.64745	0.89450
671.59365	0.89436
669.53985	0.89514
667.48604	0.89534
665.43224	0.89436
663.37844	0.89370
661.32463	0.89372
659.27083	0.89394
657.21703	0.89342
655.16322	0.89208
653.10942	0.89088
651.05562	0.89041
649.00181	0.89067
646.94801	0.89079
644.89421	0.88991
642.84040	0.88864
640.78660	0.88748
638.73280	0.88719
636.67899	0.88767
634.62519	0.88735
632.57139	0.88662
630.51759	0.88637
628.46378	0.88622
626.40998	0.88538
624.35618	0.88308
622.30237	0.88057
620.24857	0.87965
618.19477	0.87922
616.14096	0.87786
614.08716	0.87595
612.03336	0.87410
609.97955	0.87242
607.92575	0.87092
605.87195	0.86968
603.81814	0.86788
601.76434	0.86545
599.71054	0.86358
597.65673	0.86223
595.60293	0.86140
593.54913	0.86134
591.49532	0.86063
589.44152	0.85822
587.38772	0.85491
585.33391	0.85264
583.28011	0.85222
581.22631	0.85197
579.17250	0.85129
577.11870	0.85050
575.06490	0.84931
573.01110	0.84875
570.95729	0.84905
568.90349	0.84887
566.84969	0.84757
564.79588	0.84536
562.74208	0.84247
560.68828	0.84050
558.63447	0.84074
556.58067	0.84181
554.52687	0.84143
552.47306	0.83870
550.41926	0.83590
548.36546	0.83524
546.31165	0.83550
544.25785	0.83511
542.20405	0.83343
540.15024	0.83034
538.09644	0.82787
536.04264	0.82732
533.98883	0.82645
531.93503	0.82481
529.88123	0.82369
527.82742	0.82261
525.77362	0.82196
523.71982	0.82216
521.66602	0.82219
519.61221	0.82241
517.55841	0.82365
515.50461	0.82583
513.45080	0.82789
511.39700	0.82773
509.34320	0.82623
507.28939	0.82754
505.23559	0.83079
503.18179	0.83154
501.12798	0.83141
499.07418	0.83262
497.02038	0.83207
494.96657	0.83013
492.91277	0.82996
490.85897	0.83048
488.80516	0.82979
486.75136	0.82871
484.69756	0.82808
482.64375	0.82808
480.58995	0.82764
478.53615	0.82421
476.48234	0.81945
474.42854	0.81824
472.37474	0.82018
470.32093	0.82061
468.26713	0.81867
466.21333	0.81725
464.15953	0.81790
462.10572	0.82017
460.05192	0.82369
457.99812	0.82714
455.94431	0.82691
453.89051	0.82490
451.83671	0.82621
449.78290	0.82696
447.72910	0.82260
445.67530	0.81922
443.62149	0.82133
441.56769	0.82238
439.51389	0.81955
437.46008	0.81742
435.40628	0.81498
433.35248	0.81166
431.29867	0.81074
429.24487	0.81122
427.19107	0.80898
425.13726	0.80487
423.08346	0.80441
421.02966	0.80834
418.97585	0.81407
416.92205	0.81758
414.86825	0.81718
412.81445	0.81231
410.76064	0.80649
408.70684	0.80551
406.65304	0.80659
404.59923	0.80993
402.54543	0.81677
400.49163	0.82072
398.43782	0.81972
