3996.71440	0.98384
3994.66059	0.98372
3992.60678	0.98343
3990.55297	0.98325
3988.49916	0.98340
3986.44535	0.98347
3984.39154	0.98338
3982.33773	0.98334
3980.28391	0.98335
3978.23010	0.98354
3976.17629	0.98361
3974.12248	0.98333
3972.06867	0.98322
3970.01486	0.98350
3967.96105	0.98378
3965.90724	0.98379
3963.85343	0.98360
3961.79962	0.98358
3959.74581	0.98401
3957.69200	0.98443
3955.63819	0.98436
3953.58438	0.98407
3951.53057	0.98414
3949.47676	0.98443
3947.42295	0.98444
3945.36914	0.98432
3943.31533	0.98428
3941.26152	0.98408
3939.20771	0.98376
3937.15390	0.98359
3935.10009	0.98370
3933.04628	0.98410
3930.99247	0.98446
3928.93866	0.98445
3926.88485	0.98428
3924.83104	0.98397
3922.77723	0.98363
3920.72342	0.98346
3918.66961	0.98322
3916.61580	0.98313
3914.56199	0.98347
3912.50818	0.98376
3910.45437	0.98366
3908.40056	0.98333
3906.34675	0.98321
3904.29294	0.98338
3902.23913	0.98351
3900.18532	0.98347
3898.13151	0.98366
3896.07770	0.98383
3894.02389	0.98375
3891.97008	0.98372
3889.91627	0.98369
3887.86246	0.98342
3885.80865	0.98327
3883.75484	0.98341
3881.70103	0.98376
3879.64722	0.98416
3877.59341	0.98402
3875.53960	0.98361
3873.48579	0.98357
3871.43198	0.98382
3869.37817	0.98400
3867.32436	0.98394
3865.27055	0.98371
3863.21674	0.98366
3861.16293	0.98389
3859.10912	0.98412
3857.05531	0.98430
3855.00150	0.98450
3852.94769	0.98409
3850.89388	0.98330
3848.84007	0.98315
3846.78626	0.98329
3844.73245	0.98322
3842.67864	0.98301
3840.62483	0.98304
3838.57102	0.98312
3836.51721	0.98323
3834.46340	0.98343
3832.40959	0.98332
3830.35578	0.98294
3828.30197	0.98267
3826.24816	0.98259
3824.19435	0.98236
3822.14054	0.98184
3820.08673	0.98183
3818.03292	0.98246
3815.97911	0.98291
3813.92530	0.98268
3811.87149	0.98223
3809.81768	0.98210
3807.76387	0.98237
3805.71006	0.98258
3803.65625	0.98243
3801.60244	0.98230
3799.54863	0.98236
3797.49482	0.98216
3795.44101	0.98187
3793.38720	0.98205
3791.33339	0.98243
3789.27958	0.98264
3787.22577	0.98272
3785.17196	0.98270
3783.11815	0.98255
3781.06434	0.98242
3779.01053	0.98241
3776.95672	0.98237
3774.90291	0.98213
3772.84910	0.98191
3770.79529	0.98197
3768.74148	0.98205
3766.68767	0.98184
3764.63386	0.98156
3762.58005	0.98133
3760.52624	0.98123
3758.47243	0.98141
3756.41862	0.98162
3754.36481	0.98157
3752.31100	0.98158
3750.25719	0.98203
3748.20338	0.98209
3746.14957	0.98169
3744.09576	0.98148
3742.04195	0.98133
3739.98814	0.98110
3737.93433	0.98124
3735.88052	0.98158
3733.82671	0.98124
3731.77290	0.98072
3729.71909	0.98038
3727.66528	0.98003
3725.61147	0.97999
3723.55766	0.97997
3721.50385	0.97955
3719.45004	0.97902
3717.39623	0.97860
3715.34242	0.97852
3713.28861	0.97889
3711.23480	0.97898
3709.18099	0.97820
3707.12718	0.97747
3705.07337	0.97677
3703.01956	0.97602
3700.96575	0.97580
3698.91194	0.97555
3696.85813	0.97483
3694.80432	0.97435
3692.75051	0.97443
3690.69670	0.97439
3688.64289	0.97375
3686.58907	0.97291
3684.53526	0.97215
3682.48145	0.97144
3680.42764	0.97074
3678.37383	0.97004
3676.32002	0.96902
3674.26621	0.96775
3672.21240	0.96674
3670.15859	0.96525
3668.10478	0.96356
3666.05097	0.96261
3663.99716	0.96177
3661.94335	0.96067
3659.88954	0.95939
3657.83573	0.95794
3655.78192	0.95627
3653.72811	0.95504
3651.67430	0.95447
3649.62049	0.95343
3647.56668	0.95120
3645.51287	0.94930
3643.45906	0.94784
3641.40525	0.94625
3639.35144	0.94476
3637.29763	0.94367
3635.24382	0.94254
3633.19001	0.94103
3631.13620	0.93974
3629.08239	0.93853
3627.02858	0.93657
3624.97477	0.93481
3622.92096	0.93359
3620.86715	0.93221
3618.81334	0.93018
3616.75953	0.92843
3614.70572	0.92747
3612.65191	0.92651
3610.59810	0.92542
3608.54429	0.92440
3606.49048	0.92314
3604.43667	0.92167
3602.38286	0.92015
3600.32905	0.91865
3598.27524	0.91752
3596.22143	0.91673
3594.16762	0.91556
3592.11381	0.91399
3590.06000	0.91262
3588.00619	0.91121
3585.95238	0.90967
3583.89857	0.90863
3581.84476	0.90773
3579.79095	0.90634
3577.73714	0.90495
3575.68333	0.90398
3573.62952	0.90283
3571.57571	0.90135
3569.52190	0.90012
3567.46809	0.89884
3565.41428	0.89728
3563.36047	0.89606
3561.30666	0.89492
3559.25285	0.89370
3557.19904	0.89275
3555.14523	0.89195
3553.09142	0.89092
3551.03761	0.88966
3548.98380	0.88837
3546.92999	0.88708
3544.87618	0.88572
3542.82237	0.88454
3540.76856	0.88361
3538.71475	0.88256
3536.66094	0.88131
3534.60713	0.88034
3532.55332	0.87955
3530.49951	0.87858
3528.44570	0.87761
3526.39189	0.87664
3524.33808	0.87557
3522.28427	0.87442
3520.23046	0.87325
3518.17665	0.87209
3516.12284	0.87071
3514.06903	0.86941
3512.01522	0.86851
3509.96141	0.86764
3507.90760	0.86653
3505.85379	0.86539
3503.79998	0.86448
3501.74617	0.86379
3499.69236	0.86303
3497.63855	0.86228
3495.58474	0.86151
3493.53093	0.86048
3491.47712	0.85950
3489.42331	0.85870
3487.36950	0.85776
3485.31569	0.85669
3483.26188	0.85580
3481.20807	0.85510
3479.15426	0.85428
3477.10045	0.85330
3475.04664	0.85243
3472.99283	0.85173
3470.93902	0.85107
3468.88521	0.85048
3466.83140	0.84979
3464.77759	0.84894
3462.72378	0.84827
3460.66997	0.84764
3458.61616	0.84669
3456.56235	0.84570
3454.50854	0.84494
3452.45473	0.84419
3450.40092	0.84372
3448.34711	0.84366
3446.29330	0.84329
3444.23949	0.84241
3442.18568	0.84161
3440.13187	0.84109
3438.07806	0.84063
3436.02425	0.84016
3433.97044	0.83965
3431.91663	0.83903
3429.86282	0.83837
3427.80901	0.83783
3425.75520	0.83745
3423.70139	0.83716
3421.64758	0.83694
3419.59377	0.83671
3417.53996	0.83641
3415.48615	0.83595
3413.43234	0.83537
3411.37853	0.83504
3409.32472	0.83486
3407.27091	0.83460
3405.21710	0.83444
3403.16329	0.83426
3401.10948	0.83397
3399.05567	0.83389
3397.00186	0.83399
3394.94805	0.83398
3392.89424	0.83390
3390.84042	0.83387
3388.78661	0.83383
3386.73280	0.83384
3384.67899	0.83406
3382.62518	0.83441
3380.57137	0.83464
3378.51756	0.83461
3376.46375	0.83443
3374.40994	0.83422
3372.35613	0.83412
3370.30232	0.83423
3368.24851	0.83446
3366.19470	0.83464
3364.14089	0.83474
3362.08708	0.83506
3360.03327	0.83558
3357.97946	0.83599
3355.92565	0.83616
3353.87184	0.83614
3351.81803	0.83621
3349.76422	0.83653
3347.71041	0.83685
3345.65660	0.83716
3343.60279	0.83761
3341.54898	0.83786
3339.49517	0.83796
3337.44136	0.83818
3335.38755	0.83843
3333.33374	0.83881
3331.27993	0.83951
3329.22612	0.84026
3327.17231	0.84072
3325.11850	0.84084
3323.06469	0.84093
3321.01088	0.84105
3318.95707	0.84116
3316.90326	0.84161
3314.84945	0.84240
3312.79564	0.84301
3310.74183	0.84325
3308.68802	0.84342
3306.63421	0.84375
3304.58040	0.84410
3302.52659	0.84439
3300.47278	0.84475
3298.41897	0.84499
3296.36516	0.84499
3294.31135	0.84515
3292.25754	0.84562
3290.20373	0.84594
3288.14992	0.84597
3286.09611	0.84587
3284.04230	0.84598
3281.98849	0.84663
3279.93468	0.84746
3277.88087	0.84794
3275.82706	0.84799
3273.77325	0.84812
3271.71944	0.84843
3269.66563	0.84868
3267.61182	0.84912
3265.55801	0.84946
3263.50420	0.84958
3261.45039	0.85000
3259.39658	0.85048
3257.34277	0.85062
3255.28896	0.85091
3253.23515	0.85156
3251.18134	0.85219
3249.12753	0.85265
3247.07372	0.85285
3245.01991	0.85284
3242.96610	0.85314
3240.91229	0.85371
3238.85848	0.85407
3236.80467	0.85429
3234.75086	0.85453
3232.69705	0.85496
3230.64324	0.85554
3228.58943	0.85592
3226.53562	0.85610
3224.48181	0.85640
3222.42800	0.85687
3220.37419	0.85729
3218.32038	0.85760
3216.26657	0.85797
3214.21276	0.85843
3212.15895	0.85899
3210.10514	0.85971
3208.05133	0.86047
3205.99752	0.86114
3203.94371	0.86165
3201.88990	0.86200
3199.83609	0.86247
3197.78228	0.86315
3195.72847	0.86391
3193.67466	0.86475
3191.62085	0.86545
3189.56704	0.86592
3187.51323	0.86642
3185.45942	0.86698
3183.40561	0.86757
3181.35180	0.86843
3179.29799	0.86941
3177.24418	0.87002
3175.19037	0.87049
3173.13656	0.87118
3171.08275	0.87185
3169.02894	0.87250
3166.97513	0.87322
3164.92132	0.87397
3162.86751	0.87462
3160.81370	0.87516
3158.75989	0.87578
3156.70608	0.87645
3154.65227	0.87705
3152.59846	0.87762
3150.54465	0.87813
3148.49084	0.87857
3146.43703	0.87920
3144.38322	0.88009
3142.32941	0.88095
3140.27560	0.88176
3138.22179	0.88265
3136.16798	0.88351
3134.11417	0.88400
3132.06036	0.88425
3130.00655	0.88481
3127.95274	0.88567
3125.89893	0.88642
3123.84512	0.88702
3121.79131	0.88761
3119.73750	0.88839
3117.68369	0.88913
3115.62988	0.88955
3113.57607	0.88997
3111.52226	0.89081
3109.46845	0.89178
3107.41464	0.89246
3105.36083	0.89293
3103.30702	0.89319
3101.25321	0.89339
3099.19940	0.89387
3097.14559	0.89449
3095.09177	0.89510
3093.03796	0.89564
3090.98415	0.89622
3088.93034	0.89701
3086.87653	0.89788
3084.82272	0.89840
3082.76891	0.89861
3080.71510	0.89891
3078.66129	0.89963
3076.60748	0.90047
3074.55367	0.90092
3072.49986	0.90127
3070.44605	0.90184
3068.39224	0.90234
3066.33843	0.90266
3064.28462	0.90307
3062.23081	0.90368
3060.17700	0.90430
3058.12319	0.90466
3056.06938	0.90484
3054.01557	0.90514
3051.96176	0.90550
3049.90795	0.90602
3047.85414	0.90687
3045.80033	0.90745
3043.74652	0.90769
3041.69271	0.90814
3039.63890	0.90869
3037.58509	0.90911
3035.53128	0.90946
3033.47747	0.90974
3031.42366	0.91002
3029.36985	0.91036
3027.31604	0.91067
3025.26223	0.91102
3023.20842	0.91154
3021.15461	0.91195
3019.10080	0.91215
3017.04699	0.91226
3014.99318	0.91233
3012.93937	0.91248
3010.88556	0.91267
3008.83175	0.91268
3006.77794	0.91245
3004.72413	0.91229
3002.67032	0.91236
3000.61651	0.91239
2998.56270	0.91213
2996.50889	0.91164
2994.45508	0.91101
2992.40127	0.91007
2990.34746	0.90875
2988.29365	0.90714
2986.23984	0.90525
2984.18603	0.90298
2982.13222	0.89972
2980.07841	0.89488
2978.02460	0.88859
2975.97079	0.88057
2973.91698	0.86982
2971.86317	0.85544
2969.80936	0.83685
2967.75555	0.81387
2965.70174	0.78703
2963.64793	0.75860
2961.59412	0.73544
2959.54031	0.72517
2957.48650	0.72459
2955.43269	0.72025
2953.37888	0.70487
2951.32507	0.68679
2949.27126	0.68185
2947.21745	0.69751
2945.16364	0.72704
2943.10983	0.75784
2941.05602	0.78092
2939.00221	0.79298
2936.94840	0.79424
2934.89459	0.78590
2932.84078	0.76904
2930.78697	0.74542
2928.73316	0.71810
2926.67935	0.69074
2924.62554	0.66607
2922.57173	0.64388
2920.51792	0.62279
2918.46411	0.60681
2916.41030	0.60555
2914.35649	0.62284
2912.30268	0.64948
2910.24887	0.67304
2908.19506	0.69001
2906.14125	0.70441
2904.08744	0.71992
2902.03363	0.73670
2899.97982	0.75305
2897.92601	0.76771
2895.87220	0.77981
2893.81839	0.78821
2891.76458	0.79242
2889.71077	0.79355
2887.65696	0.79324
2885.60315	0.79215
2883.54934	0.78997
2881.49553	0.78645
2879.44172	0.78261
2877.38791	0.78078
2875.33410	0.78195
2873.28029	0.78392
2871.22648	0.78342
2869.17267	0.77958
2867.11886	0.77581
2865.06505	0.77888
2863.01124	0.79253
2860.95743	0.81216
2858.90362	0.82922
2856.84981	0.83846
2854.79600	0.83927
2852.74219	0.83389
2850.68838	0.82657
2848.63457	0.82086
2846.58076	0.81549
2844.52695	0.80572
2842.47314	0.79054
2840.41933	0.77572
2838.36552	0.76978
2836.31171	0.77812
2834.25790	0.79867
2832.20409	0.82318
2830.15028	0.84427
2828.09647	0.85953
2826.04266	0.87002
2823.98885	0.87760
2821.93504	0.88330
2819.88123	0.88773
2817.82742	0.89128
2815.77361	0.89393
2813.71980	0.89593
2811.66599	0.89769
2809.61218	0.89947
2807.55837	0.90141
2805.50456	0.90340
2803.45075	0.90537
2801.39693	0.90745
2799.34312	0.90923
2797.28931	0.91026
2795.23550	0.91090
2793.18169	0.91172
2791.12788	0.91278
2789.07407	0.91397
2787.02026	0.91533
2784.96645	0.91674
2782.91264	0.91786
2780.85883	0.91864
2778.80502	0.91933
2776.75121	0.91987
2774.69740	0.92027
2772.64359	0.92090
2770.58978	0.92162
2768.53597	0.92202
2766.48216	0.92236
2764.42835	0.92279
2762.37454	0.92302
2760.32073	0.92321
2758.26692	0.92365
2756.21311	0.92417
2754.15930	0.92455
2752.10549	0.92474
2750.05168	0.92491
2747.99787	0.92513
2745.94406	0.92526
2743.89025	0.92526
2741.83644	0.92511
2739.78263	0.92492
2737.72882	0.92487
2735.67501	0.92477
2733.62120	0.92444
2731.56739	0.92396
2729.51358	0.92357
2727.45977	0.92331
2725.40596	0.92290
2723.35215	0.92237
2721.29834	0.92220
2719.24453	0.92274
2717.19072	0.92375
2715.13691	0.92486
2713.08310	0.92579
2711.02929	0.92635
2708.97548	0.92674
2706.92167	0.92729
2704.86786	0.92794
2702.81405	0.92851
2700.76024	0.92881
2698.70643	0.92885
2696.65262	0.92886
2694.59881	0.92907
2692.54500	0.92939
2690.49119	0.92949
2688.43738	0.92941
2686.38357	0.92942
2684.32976	0.92953
2682.27595	0.92968
2680.22214	0.92984
2678.16833	0.92995
2676.11452	0.93004
2674.06071	0.93013
2672.00690	0.93021
2669.95309	0.93036
2667.89928	0.93051
2665.84547	0.93054
2663.79166	0.93042
2661.73785	0.93030
2659.68404	0.93025
2657.63023	0.93026
2655.57642	0.93055
2653.52261	0.93118
2651.46880	0.93163
2649.41499	0.93160
2647.36118	0.93154
2645.30737	0.93187
2643.25356	0.93231
2641.19975	0.93257
2639.14594	0.93277
2637.09213	0.93287
2635.03832	0.93276
2632.98451	0.93272
2630.93070	0.93284
2628.87689	0.93296
2626.82308	0.93308
2624.76927	0.93316
2622.71546	0.93306
2620.66165	0.93298
2618.60784	0.93311
2616.55403	0.93337
2614.50022	0.93374
2612.44641	0.93413
2610.39260	0.93439
2608.33879	0.93454
2606.28498	0.93462
2604.23117	0.93486
2602.17736	0.93544
2600.12355	0.93596
2598.06974	0.93598
2596.01593	0.93564
2593.96212	0.93545
2591.90831	0.93547
2589.85450	0.93542
2587.80069	0.93535
2585.74688	0.93514
2583.69307	0.93475
2581.63926	0.93461
2579.58545	0.93498
2577.53164	0.93568
2575.47783	0.93620
2573.42402	0.93643
2571.37021	0.93659
2569.31640	0.93660
2567.26259	0.93645
2565.20878	0.93658
2563.15497	0.93711
2561.10116	0.93741
2559.04735	0.93715
2556.99354	0.93704
2554.93973	0.93723
2552.88592	0.93707
2550.83211	0.93692
2548.77830	0.93729
2546.72449	0.93784
2544.67068	0.93827
2542.61687	0.93814
2540.56306	0.93755
2538.50925	0.93738
2536.45544	0.93770
2534.40163	0.93792
2532.34782	0.93788
2530.29401	0.93780
2528.24020	0.93766
2526.18639	0.93766
2524.13258	0.93800
2522.07877	0.93817
2520.02496	0.93799
2517.97115	0.93800
2515.91734	0.93824
2513.86353	0.93848
2511.80972	0.93865
2509.75591	0.93869
2507.70210	0.93875
2505.64828	0.93867
2503.59447	0.93835
2501.54066	0.93825
2499.48685	0.93868
2497.43304	0.93907
2495.37923	0.93892
2493.32542	0.93859
2491.27161	0.93850
2489.21780	0.93869
2487.16399	0.93886
2485.11018	0.93865
2483.05637	0.93837
2481.00256	0.93845
2478.94875	0.93885
2476.89494	0.93950
2474.84113	0.94011
2472.78732	0.94027
2470.73351	0.93994
2468.67970	0.93946
2466.62589	0.93927
2464.57208	0.93947
2462.51827	0.93958
2460.46446	0.93926
2458.41065	0.93890
2456.35684	0.93874
2454.30303	0.93873
2452.24922	0.93888
2450.19541	0.93902
2448.14160	0.93908
2446.08779	0.93917
2444.03398	0.93914
2441.98017	0.93893
2439.92636	0.93892
2437.87255	0.93933
2435.81874	0.93982
2433.76493	0.93979
2431.71112	0.93927
2429.65731	0.93870
2427.60350	0.93853
2425.54969	0.93876
2423.49588	0.93891
2421.44207	0.93894
2419.38826	0.93887
2417.33445	0.93874
2415.28064	0.93882
2413.22683	0.93905
2411.17302	0.93917
2409.11921	0.93908
2407.06540	0.93897
2405.01159	0.93899
2402.95778	0.93898
2400.90397	0.93892
2398.85016	0.93913
2396.79635	0.93940
2394.74254	0.93927
2392.68873	0.93905
2390.63492	0.93901
2388.58111	0.93895
2386.52730	0.93897
2384.47349	0.93908
2382.41968	0.93925
2380.36587	0.93939
2378.31206	0.93923
2376.25825	0.93888
2374.20444	0.93875
2372.15063	0.93897
2370.09682	0.93926
2368.04301	0.93933
2365.98920	0.93917
2363.93539	0.93914
2361.88158	0.93954
2359.82777	0.93986
2357.77396	0.93983
2355.72015	0.93975
2353.66634	0.93934
2351.61253	0.93876
2349.55872	0.93833
2347.50491	0.93791
2345.45110	0.93751
2343.39729	0.93727
2341.34348	0.93734
2339.28967	0.93773
2337.23586	0.93793
2335.18205	0.93782
2333.12824	0.93792
2331.07443	0.93818
2329.02062	0.93796
2326.96681	0.93755
2324.91300	0.93707
2322.85919	0.93655
2320.80538	0.93676
2318.75157	0.93734
2316.69776	0.93735
2314.64395	0.93706
2312.59014	0.93684
2310.53633	0.93688
2308.48252	0.93713
2306.42871	0.93732
2304.37490	0.93717
2302.32109	0.93674
2300.26728	0.93652
2298.21347	0.93676
2296.15966	0.93733
2294.10585	0.93781
2292.05204	0.93779
2289.99823	0.93725
2287.94442	0.93664
2285.89061	0.93657
2283.83680	0.93717
2281.78299	0.93792
2279.72918	0.93831
2277.67537	0.93819
2275.62156	0.93784
2273.56775	0.93789
2271.51394	0.93781
2269.46013	0.93710
2267.40632	0.93660
2265.35251	0.93640
2263.29870	0.93621
2261.24489	0.93661
2259.19108	0.93761
2257.13727	0.93850
2255.08346	0.93858
2253.02965	0.93779
2250.97584	0.93690
2248.92203	0.93658
2246.86822	0.93719
2244.81441	0.93794
2242.76060	0.93821
2240.70679	0.93848
2238.65298	0.93836
2236.59917	0.93775
2234.54536	0.93726
2232.49155	0.93705
2230.43774	0.93691
2228.38393	0.93618
2226.33012	0.93540
2224.27631	0.93606
2222.22250	0.93773
2220.16869	0.93852
2218.11488	0.93811
2216.06107	0.93790
2214.00726	0.93812
2211.95344	0.93791
2209.89963	0.93762
2207.84582	0.93799
2205.79201	0.93898
2203.73820	0.93999
2201.68439	0.94030
2199.63058	0.93950
2197.57677	0.93834
2195.52296	0.93793
2193.46915	0.93829
2191.41534	0.93870
2189.36153	0.93807
2187.30772	0.93615
2185.25391	0.93478
2183.20010	0.93500
2181.14629	0.93586
2179.09248	0.93756
2177.03867	0.93949
2174.98486	0.93891
2172.93105	0.93578
2170.87724	0.93349
2168.82343	0.93435
2166.76962	0.93693
2164.71581	0.93785
2162.66200	0.93619
2160.60819	0.93559
2158.55438	0.93823
2156.50057	0.94153
2154.44676	0.94350
2152.39295	0.94371
2150.33914	0.94200
2148.28533	0.93970
2146.23152	0.93908
2144.17771	0.93942
2142.12390	0.93881
2140.07009	0.93837
2138.01628	0.93895
2135.96247	0.93883
2133.90866	0.93787
2131.85485	0.93732
2129.80104	0.93686
2127.74723	0.93606
2125.69342	0.93584
2123.63961	0.93657
2121.58580	0.93699
2119.53199	0.93665
2117.47818	0.93593
2115.42437	0.93553
2113.37056	0.93553
2111.31675	0.93521
2109.26294	0.93520
2107.20913	0.93580
2105.15532	0.93598
2103.10151	0.93574
2101.04770	0.93556
2098.99389	0.93532
2096.94008	0.93542
2094.88627	0.93595
2092.83246	0.93630
2090.77865	0.93666
2088.72484	0.93678
2086.67103	0.93587
2084.61722	0.93489
2082.56341	0.93547
2080.50960	0.93677
2078.45579	0.93719
2076.40198	0.93705
2074.34817	0.93693
2072.29436	0.93646
2070.24055	0.93591
2068.18674	0.93622
2066.13293	0.93732
2064.07912	0.93800
2062.02531	0.93742
2059.97150	0.93640
2057.91769	0.93576
2055.86388	0.93513
2053.81007	0.93413
2051.75626	0.93304
2049.70245	0.93327
2047.64864	0.93488
2045.59483	0.93595
2043.54102	0.93647
2041.48721	0.93709
2039.43340	0.93723
2037.37959	0.93673
2035.32578	0.93651
2033.27197	0.93687
2031.21816	0.93644
2029.16435	0.93593
2027.11054	0.93747
2025.05673	0.93923
2023.00292	0.93851
2020.94911	0.93645
2018.89530	0.93514
2016.84149	0.93592
2014.78768	0.93835
2012.73387	0.93917
2010.68006	0.93793
2008.62625	0.93727
2006.57244	0.93699
2004.51863	0.93673
2002.46482	0.93786
2000.41101	0.93852
1998.35720	0.93681
1996.30339	0.93503
1994.24958	0.93493
1992.19577	0.93546
1990.14196	0.93585
1988.08815	0.93610
1986.03434	0.93585
1983.98053	0.93500
1981.92672	0.93406
1979.87291	0.93345
1977.81910	0.93365
1975.76529	0.93516
1973.71148	0.93592
1971.65767	0.93450
1969.60386	0.93363
1967.55005	0.93435
1965.49624	0.93524
1963.44243	0.93593
1961.38862	0.93645
1959.33481	0.93617
1957.28100	0.93449
1955.22719	0.93276
1953.17338	0.93258
1951.11957	0.93327
1949.06576	0.93358
1947.01195	0.93290
1944.95814	0.93141
1942.90433	0.93045
1940.85052	0.93089
1938.79671	0.93181
1936.74290	0.93173
1934.68909	0.93063
1932.63528	0.93012
1930.58147	0.93018
1928.52766	0.92968
1926.47385	0.92934
1924.42004	0.92992
1922.36623	0.93052
1920.31242	0.93024
1918.25861	0.92969
1916.20479	0.92937
1914.15098	0.92907
1912.09717	0.92938
1910.04336	0.92963
1907.98955	0.92849
1905.93574	0.92706
1903.88193	0.92635
1901.82812	0.92626
1899.77431	0.92652
1897.72050	0.92643
1895.66669	0.92567
1893.61288	0.92483
1891.55907	0.92438
1889.50526	0.92440
1887.45145	0.92466
1885.39764	0.92441
1883.34383	0.92341
1881.29002	0.92255
1879.23621	0.92240
1877.18240	0.92269
1875.12859	0.92302
1873.07478	0.92299
1871.02097	0.92274
1868.96716	0.92233
1866.91335	0.92149
1864.85954	0.92060
1862.80573	0.92017
1860.75192	0.92004
1858.69811	0.91979
1856.64430	0.91933
1854.59049	0.91866
1852.53668	0.91800
1850.48287	0.91777
1848.42906	0.91783
1846.37525	0.91776
1844.32144	0.91747
1842.26763	0.91695
1840.21382	0.91635
1838.16001	0.91584
1836.10620	0.91563
1834.05239	0.91558
1831.99858	0.91524
1829.94477	0.91453
1827.89096	0.91383
1825.83715	0.91341
1823.78334	0.91317
1821.72953	0.91286
1819.67572	0.91248
1817.62191	0.91206
1815.56810	0.91140
1813.51429	0.91077
1811.46048	0.91064
1809.40667	0.91062
1807.35286	0.91010
1805.29905	0.90901
1803.24524	0.90795
1801.19143	0.90741
1799.13762	0.90712
1797.08381	0.90668
1795.03000	0.90607
1792.97619	0.90512
1790.92238	0.90368
1788.86857	0.90242
1786.81476	0.90165
1784.76095	0.90120
1782.70714	0.90096
1780.65333	0.90044
1778.59952	0.89944
1776.54571	0.89846
1774.49190	0.89775
1772.43809	0.89707
1770.38428	0.89607
1768.33047	0.89479
1766.27666	0.89368
1764.22285	0.89289
1762.16904	0.89190
1760.11523	0.89085
1758.06142	0.89027
1756.00761	0.88979
1753.95380	0.88918
1751.89999	0.88836
1749.84618	0.88719
1747.79237	0.88610
1745.73856	0.88516
1743.68475	0.88423
1741.63094	0.88330
1739.57713	0.88213
1737.52332	0.88119
1735.46951	0.88065
1733.41570	0.87973
1731.36189	0.87855
1729.30808	0.87736
1727.25427	0.87582
1725.20046	0.87396
1723.14665	0.87204
1721.09284	0.87072
1719.03903	0.86965
1716.98522	0.86764
1714.93141	0.86526
1712.87760	0.86353
1710.82379	0.86248
1708.76998	0.86209
1706.71617	0.86201
1704.66236	0.86196
1702.60855	0.86210
1700.55474	0.86189
1698.50093	0.86129
1696.44712	0.86126
1694.39331	0.86137
1692.33950	0.86153
1690.28569	0.86162
1688.23188	0.86137
1686.17807	0.86093
1684.12426	0.86037
1682.07045	0.85994
1680.01664	0.85968
1677.96283	0.85929
1675.90902	0.85831
1673.85521	0.85695
1671.80140	0.85599
1669.74759	0.85516
1667.69378	0.85422
1665.63997	0.85340
1663.58616	0.85233
1661.53235	0.85093
1659.47854	0.84982
1657.42473	0.84906
1655.37092	0.84839
1653.31711	0.84690
1651.26330	0.84510
1649.20949	0.84422
1647.15568	0.84336
1645.10187	0.84268
1643.04806	0.84255
1640.99425	0.84254
1638.94044	0.84259
1636.88663	0.84276
1634.83282	0.84305
1632.77901	0.84389
1630.72520	0.84520
1628.67139	0.84661
1626.61758	0.84798
1624.56377	0.84954
1622.50996	0.85156
1620.45614	0.85382
1618.40233	0.85630
1616.34852	0.85931
1614.29471	0.86188
1612.24090	0.86382
1610.18709	0.86592
1608.13328	0.86838
1606.07947	0.87101
1604.02566	0.87359
1601.97185	0.87603
1599.91804	0.87816
1597.86423	0.88000
1595.81042	0.88196
1593.75661	0.88416
1591.70280	0.88618
1589.64899	0.88779
1587.59518	0.88909
1585.54137	0.89023
1583.48756	0.89144
1581.43375	0.89296
1579.37994	0.89455
1577.32613	0.89586
1575.27232	0.89670
1573.21851	0.89730
1571.16470	0.89811
1569.11089	0.89912
1567.05708	0.90008
1565.00327	0.90097
1562.94946	0.90162
1560.89565	0.90196
1558.84184	0.90225
1556.78803	0.90289
1554.73422	0.90377
1552.68041	0.90440
1550.62660	0.90460
1548.57279	0.90475
1546.51898	0.90522
1544.46517	0.90617
1542.41136	0.90725
1540.35755	0.90770
1538.30374	0.90755
1536.24993	0.90747
1534.19612	0.90736
1532.14231	0.90737
1530.08850	0.90775
1528.03469	0.90828
1525.98088	0.90870
1523.92707	0.90907
1521.87326	0.90932
1519.81945	0.90918
1517.76564	0.90895
1515.71183	0.90890
1513.65802	0.90897
1511.60421	0.90912
1509.55040	0.90935
1507.49659	0.90941
1505.44278	0.90925
1503.38897	0.90944
1501.33516	0.90964
1499.28135	0.90928
1497.22754	0.90832
1495.17373	0.90768
1493.11992	0.90777
1491.06611	0.90800
1489.01230	0.90748
1486.95849	0.90615
1484.90468	0.90472
1482.85087	0.90311
1480.79706	0.90099
1478.74325	0.89805
1476.68944	0.89317
1474.63563	0.88454
1472.58182	0.87106
1470.52801	0.85652
1468.47420	0.84316
1466.42039	0.82638
1464.36658	0.80569
1462.31277	0.79074
1460.25896	0.78363
1458.20515	0.77835
1456.15134	0.77304
1454.09753	0.77090
1452.04372	0.77065
1449.98991	0.77360
1447.93610	0.78528
1445.88229	0.80535
1443.82848	0.82543
1441.77467	0.84045
1439.72086	0.84880
1437.66705	0.85136
1435.61324	0.85222
1433.55943	0.85775
1431.50562	0.86714
1429.45181	0.87583
1427.39800	0.88087
1425.34419	0.88357
1423.29038	0.88524
1421.23657	0.88619
1419.18276	0.88674
1417.12895	0.88703
1415.07514	0.88740
1413.02133	0.88776
1410.96752	0.88789
1408.91371	0.88783
1406.85990	0.88783
1404.80609	0.88787
1402.75228	0.88804
1400.69847	0.88824
1398.64466	0.88818
1396.59085	0.88767
1394.53704	0.88662
1392.48323	0.88508
1390.42942	0.88302
1388.37561	0.87927
1386.32180	0.87156
1384.26799	0.85797
1382.21418	0.83473
1380.16037	0.79532
1378.10656	0.74217
1376.05275	0.70263
1373.99894	0.71048
1371.94513	0.75580
1369.89132	0.79947
1367.83751	0.82695
1365.78370	0.83930
1363.72989	0.84163
1361.67608	0.83781
1359.62227	0.83309
1357.56846	0.83312
1355.51465	0.83919
1353.46084	0.84778
1351.40703	0.85501
1349.35322	0.86013
1347.29941	0.86363
1345.24560	0.86594
1343.19179	0.86760
1341.13798	0.86885
1339.08417	0.86955
1337.03036	0.86985
1334.97655	0.86972
1332.92274	0.86884
1330.86893	0.86759
1328.81512	0.86692
1326.76130	0.86718
1324.70749	0.86827
1322.65368	0.86965
1320.59987	0.87055
1318.54606	0.87082
1316.49225	0.87103
1314.43844	0.87126
1312.38463	0.87104
1310.33082	0.86996
1308.27701	0.86738
1306.22320	0.86352
1304.16939	0.86100
1302.11558	0.86143
1300.06177	0.86300
1298.00796	0.86366
1295.95415	0.86338
1293.90034	0.86322
1291.84653	0.86364
1289.79272	0.86419
1287.73891	0.86473
1285.68510	0.86518
1283.63129	0.86514
1281.57748	0.86463
1279.52367	0.86402
1277.46986	0.86343
1275.41605	0.86277
1273.36224	0.86196
1271.30843	0.86084
1269.25462	0.85937
1267.20081	0.85779
1265.14700	0.85612
1263.09319	0.85404
1261.03938	0.85129
1258.98557	0.84760
1256.93176	0.84331
1254.87795	0.84013
1252.82414	0.83897
1250.77033	0.83856
1248.71652	0.83758
1246.66271	0.83566
1244.60890	0.83295
1242.55509	0.82985
1240.50128	0.82655
1238.44747	0.82303
1236.39366	0.81940
1234.33985	0.81568
1232.28604	0.81168
1230.23223	0.80743
1228.17842	0.80307
1226.12461	0.79880
1224.07080	0.79479
1222.01699	0.79086
1219.96318	0.78705
1217.90937	0.78360
1215.85556	0.78066
1213.80175	0.77844
1211.74794	0.77666
1209.69413	0.77487
1207.64032	0.77302
1205.58651	0.77101
1203.53270	0.76888
1201.47889	0.76696
1199.42508	0.76537
1197.37127	0.76401
1195.31746	0.76272
1193.26365	0.76133
1191.20984	0.75991
1189.15603	0.75870
1187.10222	0.75787
1185.04841	0.75737
1182.99460	0.75678
1180.94079	0.75582
1178.88698	0.75443
1176.83317	0.75257
1174.77936	0.74969
1172.72555	0.74424
1170.67174	0.73559
1168.61793	0.72708
1166.56412	0.72401
1164.51031	0.72753
1162.45650	0.73425
1160.40269	0.74104
1158.34888	0.74672
1156.29507	0.75104
1154.24126	0.75412
1152.18745	0.75651
1150.13364	0.75939
1148.07983	0.76336
1146.02602	0.76774
1143.97221	0.77167
1141.91840	0.77480
1139.86459	0.77725
1137.81078	0.77932
1135.75697	0.78137
1133.70316	0.78354
1131.64935	0.78569
1129.59554	0.78746
1127.54173	0.78873
1125.48792	0.78986
1123.43411	0.79114
1121.38030	0.79261
1119.32649	0.79416
1117.27268	0.79542
1115.21887	0.79624
1113.16506	0.79682
1111.11125	0.79746
1109.05744	0.79812
1107.00363	0.79821
1104.94982	0.79758
1102.89601	0.79715
1100.84220	0.79779
1098.78839	0.79961
1096.73458	0.80202
1094.68077	0.80426
1092.62696	0.80595
1090.57315	0.80704
1088.51934	0.80774
1086.46553	0.80840
1084.41172	0.80932
1082.35791	0.81056
1080.30410	0.81159
1078.25029	0.81177
1076.19648	0.81106
1074.14267	0.80996
1072.08886	0.80897
1070.03505	0.80802
1067.98124	0.80645
1065.92743	0.80349
1063.87362	0.79897
1061.81981	0.79331
1059.76600	0.78719
1057.71219	0.78108
1055.65838	0.77490
1053.60457	0.76853
1051.55076	0.76246
1049.49695	0.75732
1047.44314	0.75347
1045.38933	0.75113
1043.33552	0.75042
1041.28171	0.75109
1039.22790	0.75239
1037.17409	0.75409
1035.12028	0.75679
1033.06647	0.76111
1031.01265	0.76644
1028.95884	0.77160
1026.90503	0.77627
1024.85122	0.78051
1022.79741	0.78431
1020.74360	0.78804
1018.68979	0.79194
1016.63598	0.79552
1014.58217	0.79824
1012.52836	0.80035
1010.47455	0.80232
1008.42074	0.80401
1006.36693	0.80477
1004.31312	0.80303
1002.25931	0.79594
1000.20550	0.78338
998.15169	0.77346
996.09788	0.77586
994.04407	0.78861
991.99026	0.80208
989.93645	0.81130
987.88264	0.81663
985.82883	0.81945
983.77502	0.82084
981.72121	0.82081
979.66740	0.81820
977.61359	0.81137
975.55978	0.79975
973.50597	0.78827
971.45216	0.78684
969.39835	0.79765
967.34454	0.81165
965.29073	0.82149
963.23692	0.82702
961.18311	0.83013
959.12930	0.83216
957.07549	0.83388
955.02168	0.83552
952.96787	0.83680
950.91406	0.83741
948.86025	0.83731
946.80644	0.83674
944.75263	0.83621
942.69882	0.83598
940.64501	0.83599
938.59120	0.83623
936.53739	0.83653
934.48358	0.83671
932.42977	0.83674
930.37596	0.83654
928.32215	0.83630
926.26834	0.83635
924.21453	0.83604
922.16072	0.83448
920.10691	0.83242
918.05310	0.83108
915.99929	0.83011
913.94548	0.82862
911.89167	0.82659
909.83786	0.82424
907.78405	0.82134
905.73024	0.81762
903.67643	0.81262
901.62262	0.80661
899.56881	0.80177
897.51500	0.80045
895.46119	0.80209
893.40738	0.80431
891.35357	0.80589
889.29976	0.80670
887.24595	0.80681
885.19214	0.80636
883.13833	0.80597
881.08452	0.80645
879.03071	0.80767
876.97690	0.80902
874.92309	0.80996
872.86928	0.81032
870.81547	0.81032
868.76166	0.81067
866.70785	0.81202
864.65404	0.81372
862.60023	0.81483
860.54642	0.81531
858.49261	0.81538
856.43880	0.81558
854.38499	0.81623
852.33118	0.81689
850.27737	0.81720
848.22356	0.81599
846.16975	0.81037
844.11594	0.79740
842.06213	0.78093
840.00832	0.77523
837.95451	0.78559
835.90070	0.79940
833.84689	0.80700
831.79308	0.80951
829.73927	0.81051
827.68546	0.81168
825.63165	0.81261
823.57784	0.81256
821.52403	0.81160
819.47022	0.81013
817.41641	0.80817
815.36260	0.80570
813.30879	0.80219
811.25498	0.79713
809.20117	0.79244
807.14736	0.79142
805.09355	0.79416
803.03974	0.79786
800.98593	0.80074
798.93212	0.80208
796.87831	0.80158
794.82450	0.80033
792.77069	0.79958
790.71688	0.79924
788.66307	0.79928
786.60926	0.79944
784.55545	0.79886
782.50164	0.79754
780.44783	0.79613
778.39402	0.79526
776.34021	0.79528
774.28640	0.79539
772.23259	0.79467
770.17878	0.79337
768.12497	0.79178
766.07116	0.79006
764.01735	0.78902
761.96354	0.78892
759.90973	0.78851
757.85592	0.78700
755.80211	0.78513
753.74830	0.78370
751.69449	0.78315
749.64068	0.78324
747.58687	0.78291
745.53306	0.78155
743.47925	0.77959
741.42544	0.77754
739.37163	0.77599
737.31781	0.77535
735.26400	0.77473
733.21019	0.77269
731.15638	0.76908
729.10257	0.76597
727.04876	0.76510
724.99495	0.76535
722.94114	0.76424
720.88733	0.76124
718.83352	0.75817
716.77971	0.75676
714.72590	0.75722
712.67209	0.75846
710.61828	0.75925
708.56447	0.75923
706.51066	0.75828
704.45685	0.75648
702.40304	0.75483
700.34923	0.75403
698.29542	0.75334
696.24161	0.75231
694.18780	0.75094
692.13399	0.74909
690.08018	0.74739
688.02637	0.74674
685.97256	0.74731
683.91875	0.74803
681.86494	0.74729
679.81113	0.74485
677.75732	0.74203
675.70351	0.73995
673.64970	0.73941
671.59589	0.74029
669.54208	0.74069
667.48827	0.73763
665.43446	0.73387
663.38065	0.73211
661.32684	0.73189
659.27303	0.73252
657.21922	0.73225
655.16541	0.73009
653.11160	0.72706
651.05779	0.72546
649.00398	0.72600
646.95017	0.72683
644.89636	0.72669
642.84255	0.72540
640.78874	0.72276
638.73493	0.71968
636.68112	0.71803
634.62731	0.71791
632.57350	0.71773
630.51969	0.71685
628.46588	0.71487
626.41207	0.71221
624.35826	0.71056
622.30445	0.70955
620.25064	0.70770
618.19683	0.70508
616.14302	0.70156
614.08921	0.69759
612.03540	0.69515
609.98159	0.69443
607.92778	0.69360
605.87397	0.69101
603.82016	0.68637
601.76635	0.68158
599.71254	0.67843
597.65873	0.67648
595.60492	0.67517
593.55111	0.67387
591.49730	0.67118
589.44349	0.66738
587.38968	0.66488
585.33587	0.66529
583.28206	0.66781
581.22825	0.67026
579.17444	0.67125
577.12063	0.67132
575.06682	0.67197
573.01301	0.67452
570.95920	0.67845
568.90539	0.68200
566.85158	0.68388
564.79777	0.68387
562.74396	0.68335
560.69015	0.68416
558.63634	0.68668
556.58253	0.68899
554.52872	0.68956
552.47491	0.68828
550.42110	0.68614
548.36729	0.68590
546.31348	0.68814
544.25967	0.69103
542.20586	0.69264
540.15205	0.69130
538.09824	0.68865
536.04443	0.68779
533.99062	0.68841
531.93681	0.68939
529.88300	0.69053
527.82919	0.69069
525.77538	0.68889
523.72157	0.68718
521.66776	0.68837
519.61395	0.69189
517.56014	0.69465
515.50633	0.69435
513.45252	0.69232
511.39871	0.69097
509.34490	0.69190
507.29109	0.69523
505.23728	0.69795
503.18347	0.69750
501.12966	0.69456
499.07585	0.69156
497.02204	0.69146
494.96823	0.69511
492.91442	0.69953
490.86061	0.70098
488.80680	0.69854
486.75299	0.69453
484.69918	0.69280
482.64537	0.69466
480.59156	0.69752
478.53775	0.69818
476.48394	0.69544
474.43013	0.69125
472.37632	0.68873
470.32251	0.68988
468.26870	0.69250
466.21489	0.69245
464.16108	0.68910
462.10727	0.68371
460.05346	0.67871
457.99965	0.67803
455.94584	0.68143
453.89203	0.68519
451.83822	0.68736
449.78441	0.68572
447.73060	0.68054
445.67679	0.67809
443.62298	0.68278
441.56916	0.68823
439.51535	0.68791
437.46154	0.68322
435.40773	0.67831
433.35392	0.67835
431.30011	0.68389
429.24630	0.68987
427.19249	0.69055
425.13868	0.68474
423.08487	0.67805
421.03106	0.67730
418.97725	0.68660
416.92344	0.69791
414.86963	0.70022
412.81582	0.69636
410.76201	0.68964
408.70820	0.68228
406.65439	0.68101
404.60058	0.68883
402.54677	0.69744
400.49296	0.69797
398.43915	0.68818
