3996.71440	0.99009
3994.66059	0.99019
3992.60678	0.99006
3990.55297	0.98987
3988.49916	0.98966
3986.44535	0.98960
3984.39154	0.98958
3982.33773	0.98944
3980.28391	0.98944
3978.23010	0.98964
3976.17629	0.98979
3974.12248	0.98985
3972.06867	0.99003
3970.01486	0.99019
3967.96105	0.98988
3965.90724	0.98960
3963.85343	0.98979
3961.79962	0.98999
3959.74581	0.98995
3957.69200	0.98984
3955.63819	0.98988
3953.58438	0.99005
3951.53057	0.98990
3949.47676	0.98955
3947.42295	0.98957
3945.36914	0.98972
3943.31533	0.98977
3941.26152	0.98981
3939.20771	0.98973
3937.15390	0.98967
3935.10009	0.98964
3933.04628	0.98952
3930.99247	0.98955
3928.93866	0.98981
3926.88485	0.98983
3924.83104	0.98966
3922.77723	0.98964
3920.72342	0.98964
3918.66961	0.98952
3916.61580	0.98944
3914.56199	0.98961
3912.50818	0.98978
3910.45437	0.98949
3908.40056	0.98911
3906.34675	0.98910
3904.29294	0.98931
3902.23913	0.98949
3900.18532	0.98968
3898.13151	0.98972
3896.07770	0.98945
3894.02389	0.98923
3891.97008	0.98923
3889.91627	0.98925
3887.86246	0.98938
3885.80865	0.98965
3883.75484	0.98981
3881.70103	0.99007
3879.64722	0.99057
3877.59341	0.99067
3875.53960	0.99037
3873.48579	0.98997
3871.43198	0.98966
3869.37817	0.98978
3867.32436	0.98995
3865.27055	0.98993
3863.21674	0.99006
3861.16293	0.99004
3859.10912	0.98983
3857.05531	0.98973
3855.00150	0.98957
3852.94769	0.98943
3850.89388	0.98977
3848.84007	0.99012
3846.78626	0.99021
3844.73245	0.99007
3842.67864	0.98985
3840.62483	0.98977
3838.57102	0.98974
3836.51721	0.98961
3834.46340	0.98962
3832.40959	0.98995
3830.35578	0.99018
3828.30197	0.99000
3826.24816	0.98989
3824.19435	0.99007
3822.14054	0.99037
3820.08673	0.99052
3818.03292	0.99040
3815.97911	0.99036
3813.92530	0.99040
3811.87149	0.99049
3809.81768	0.99066
3807.76387	0.99072
3805.71006	0.99050
3803.65625	0.99022
3801.60244	0.99009
3799.54863	0.99001
3797.49482	0.98991
3795.44101	0.98997
3793.38720	0.99009
3791.33339	0.99001
3789.27958	0.98988
3787.22577	0.98993
3785.17196	0.99024
3783.11815	0.99062
3781.06434	0.99081
3779.01053	0.99083
3776.95672	0.99082
3774.90291	0.99071
3772.84910	0.99053
3770.79529	0.99046
3768.74148	0.99036
3766.68767	0.99015
3764.63386	0.98984
3762.58005	0.98944
3760.52624	0.98967
3758.47243	0.99091
3756.41862	0.99184
3754.36481	0.99176
3752.31100	0.99120
3750.25719	0.99060
3748.20338	0.99048
3746.14957	0.99068
3744.09576	0.99051
3742.04195	0.98995
3739.98814	0.98985
3737.93433	0.99023
3735.88052	0.99053
3733.82671	0.99093
3731.77290	0.99127
3729.71909	0.99080
3727.66528	0.99011
3725.61147	0.98985
3723.55766	0.98991
3721.50385	0.98994
3719.45004	0.98964
3717.39623	0.98932
3715.34242	0.98945
3713.28861	0.98967
3711.23480	0.98934
3709.18099	0.98864
3707.12718	0.98800
3705.07337	0.98718
3703.01956	0.98634
3700.96575	0.98584
3698.91194	0.98540
3696.85813	0.98497
3694.80432	0.98495
3692.75051	0.98548
3690.69670	0.98618
3688.64289	0.98670
3686.58907	0.98710
3684.53526	0.98745
3682.48145	0.98752
3680.42764	0.98718
3678.37383	0.98661
3676.32002	0.98611
3674.26621	0.98603
3672.21240	0.98604
3670.15859	0.98586
3668.10478	0.98583
3666.05097	0.98602
3663.99716	0.98610
3661.94335	0.98579
3659.88954	0.98509
3657.83573	0.98451
3655.78192	0.98428
3653.72811	0.98406
3651.67430	0.98389
3649.62049	0.98406
3647.56668	0.98418
3645.51287	0.98401
3643.45906	0.98358
3641.40525	0.98308
3639.35144	0.98290
3637.29763	0.98292
3635.24382	0.98275
3633.19001	0.98232
3631.13620	0.98189
3629.08239	0.98144
3627.02858	0.98070
3624.97477	0.98021
3622.92096	0.98019
3620.86715	0.98008
3618.81334	0.97983
3616.75953	0.97998
3614.70572	0.98021
3612.65191	0.97999
3610.59810	0.97950
3608.54429	0.97911
3606.49048	0.97859
3604.43667	0.97803
3602.38286	0.97792
3600.32905	0.97828
3598.27524	0.97867
3596.22143	0.97884
3594.16762	0.97867
3592.11381	0.97811
3590.06000	0.97742
3588.00619	0.97708
3585.95238	0.97722
3583.89857	0.97720
3581.84476	0.97699
3579.79095	0.97699
3577.73714	0.97701
3575.68333	0.97675
3573.62952	0.97667
3571.57571	0.97694
3569.52190	0.97696
3567.46809	0.97643
3565.41428	0.97575
3563.36047	0.97536
3561.30666	0.97506
3559.25285	0.97472
3557.19904	0.97456
3555.14523	0.97430
3553.09142	0.97370
3551.03761	0.97343
3548.98380	0.97368
3546.92999	0.97368
3544.87618	0.97325
3542.82237	0.97285
3540.76856	0.97249
3538.71475	0.97185
3536.66094	0.97104
3534.60713	0.97063
3532.55332	0.97061
3530.49951	0.97041
3528.44570	0.96974
3526.39189	0.96909
3524.33808	0.96884
3522.28427	0.96862
3520.23046	0.96811
3518.17665	0.96752
3516.12284	0.96710
3514.06903	0.96685
3512.01522	0.96664
3509.96141	0.96631
3507.90760	0.96564
3505.85379	0.96474
3503.79998	0.96389
3501.74617	0.96323
3499.69236	0.96255
3497.63855	0.96179
3495.58474	0.96094
3493.53093	0.96011
3491.47712	0.95957
3489.42331	0.95905
3487.36950	0.95822
3485.31569	0.95735
3483.26188	0.95664
3481.20807	0.95599
3479.15426	0.95531
3477.10045	0.95491
3475.04664	0.95494
3472.99283	0.95478
3470.93902	0.95389
3468.88521	0.95281
3466.83140	0.95222
3464.77759	0.95199
3462.72378	0.95153
3460.66997	0.95103
3458.61616	0.95072
3456.56235	0.95015
3454.50854	0.94955
3452.45473	0.94939
3450.40092	0.94951
3448.34711	0.94961
3446.29330	0.94933
3444.23949	0.94889
3442.18568	0.94858
3440.13187	0.94831
3438.07806	0.94824
3436.02425	0.94824
3433.97044	0.94787
3431.91663	0.94746
3429.86282	0.94739
3427.80901	0.94735
3425.75520	0.94715
3423.70139	0.94707
3421.64758	0.94712
3419.59377	0.94705
3417.53996	0.94675
3415.48615	0.94645
3413.43234	0.94640
3411.37853	0.94660
3409.32472	0.94684
3407.27091	0.94692
3405.21710	0.94675
3403.16329	0.94647
3401.10948	0.94630
3399.05567	0.94619
3397.00186	0.94587
3394.94805	0.94554
3392.89424	0.94562
3390.84042	0.94583
3388.78661	0.94570
3386.73280	0.94536
3384.67899	0.94505
3382.62518	0.94473
3380.57137	0.94446
3378.51756	0.94430
3376.46375	0.94401
3374.40994	0.94369
3372.35613	0.94366
3370.30232	0.94383
3368.24851	0.94387
3366.19470	0.94357
3364.14089	0.94309
3362.08708	0.94266
3360.03327	0.94243
3357.97946	0.94225
3355.92565	0.94196
3353.87184	0.94169
3351.81803	0.94175
3349.76422	0.94198
3347.71041	0.94186
3345.65660	0.94156
3343.60279	0.94156
3341.54898	0.94189
3339.49517	0.94230
3337.44136	0.94245
3335.38755	0.94226
3333.33374	0.94207
3331.27993	0.94228
3329.22612	0.94287
3327.17231	0.94352
3325.11850	0.94375
3323.06469	0.94376
3321.01088	0.94390
3318.95707	0.94413
3316.90326	0.94435
3314.84945	0.94440
3312.79564	0.94432
3310.74183	0.94434
3308.68802	0.94435
3306.63421	0.94425
3304.58040	0.94431
3302.52659	0.94451
3300.47278	0.94467
3298.41897	0.94488
3296.36516	0.94516
3294.31135	0.94543
3292.25754	0.94559
3290.20373	0.94545
3288.14992	0.94516
3286.09611	0.94507
3284.04230	0.94519
3281.98849	0.94556
3279.93468	0.94598
3277.88087	0.94610
3275.82706	0.94601
3273.77325	0.94597
3271.71944	0.94624
3269.66563	0.94664
3267.61182	0.94666
3265.55801	0.94650
3263.50420	0.94668
3261.45039	0.94701
3259.39658	0.94721
3257.34277	0.94722
3255.28896	0.94709
3253.23515	0.94705
3251.18134	0.94709
3249.12753	0.94717
3247.07372	0.94733
3245.01991	0.94749
3242.96610	0.94770
3240.91229	0.94792
3238.85848	0.94803
3236.80467	0.94810
3234.75086	0.94800
3232.69705	0.94771
3230.64324	0.94759
3228.58943	0.94778
3226.53562	0.94816
3224.48181	0.94849
3222.42800	0.94860
3220.37419	0.94865
3218.32038	0.94873
3216.26657	0.94877
3214.21276	0.94881
3212.15895	0.94891
3210.10514	0.94903
3208.05133	0.94921
3205.99752	0.94935
3203.94371	0.94930
3201.88990	0.94931
3199.83609	0.94967
3197.78228	0.95007
3195.72847	0.95040
3193.67466	0.95090
3191.62085	0.95147
3189.56704	0.95190
3187.51323	0.95206
3185.45942	0.95207
3183.40561	0.95243
3181.35180	0.95298
3179.29799	0.95330
3177.24418	0.95337
3175.19037	0.95320
3173.13656	0.95331
3171.08275	0.95411
3169.02894	0.95494
3166.97513	0.95528
3164.92132	0.95540
3162.86751	0.95558
3160.81370	0.95587
3158.75989	0.95628
3156.70608	0.95657
3154.65227	0.95678
3152.59846	0.95702
3150.54465	0.95716
3148.49084	0.95741
3146.43703	0.95771
3144.38322	0.95800
3142.32941	0.95847
3140.27560	0.95877
3138.22179	0.95876
3136.16798	0.95886
3134.11417	0.95911
3132.06036	0.95930
3130.00655	0.95949
3127.95274	0.95980
3125.89893	0.96013
3123.84512	0.96043
3121.79131	0.96064
3119.73750	0.96060
3117.68369	0.96053
3115.62988	0.96063
3113.57607	0.96065
3111.52226	0.96066
3109.46845	0.96080
3107.41464	0.96111
3105.36083	0.96140
3103.30702	0.96131
3101.25321	0.96096
3099.19940	0.96088
3097.14559	0.96123
3095.09177	0.96146
3093.03796	0.96129
3090.98415	0.96104
3088.93034	0.96093
3086.87653	0.96086
3084.82272	0.96068
3082.76891	0.96059
3080.71510	0.96077
3078.66129	0.96101
3076.60748	0.96106
3074.55367	0.96085
3072.49986	0.96076
3070.44605	0.96098
3068.39224	0.96109
3066.33843	0.96095
3064.28462	0.96085
3062.23081	0.96089
3060.17700	0.96087
3058.12319	0.96073
3056.06938	0.96071
3054.01557	0.96098
3051.96176	0.96122
3049.90795	0.96132
3047.85414	0.96143
3045.80033	0.96153
3043.74652	0.96160
3041.69271	0.96142
3039.63890	0.96102
3037.58509	0.96099
3035.53128	0.96135
3033.47747	0.96157
3031.42366	0.96143
3029.36985	0.96124
3027.31604	0.96131
3025.26223	0.96144
3023.20842	0.96146
3021.15461	0.96149
3019.10080	0.96143
3017.04699	0.96120
3014.99318	0.96080
3012.93937	0.96042
3010.88556	0.96033
3008.83175	0.96051
3006.77794	0.96066
3004.72413	0.96061
3002.67032	0.96042
3000.61651	0.96018
2998.56270	0.95993
2996.50889	0.95964
2994.45508	0.95915
2992.40127	0.95849
2990.34746	0.95790
2988.29365	0.95731
2986.23984	0.95654
2984.18603	0.95541
2982.13222	0.95396
2980.07841	0.95226
2978.02460	0.95025
2975.97079	0.94803
2973.91698	0.94548
2971.86317	0.94227
2969.80936	0.93838
2967.75555	0.93410
2965.70174	0.92967
2963.64793	0.92513
2961.59412	0.92090
2959.54031	0.91724
2957.48650	0.91379
2955.43269	0.91050
2953.37888	0.90764
2951.32507	0.90497
2949.27126	0.90173
2947.21745	0.89680
2945.16364	0.88905
2943.10983	0.87793
2941.05602	0.86361
2939.00221	0.84665
2936.94840	0.82715
2934.89459	0.80449
2932.84078	0.77816
2930.78697	0.74831
2928.73316	0.71448
2926.67935	0.67581
2924.62554	0.63205
2922.57173	0.58381
2920.51792	0.53396
2918.46411	0.48952
2916.41030	0.46135
2914.35649	0.45867
2912.30268	0.48088
2910.24887	0.51739
2908.19506	0.55667
2906.14125	0.59218
2904.08744	0.62170
2902.03363	0.64556
2899.97982	0.66538
2897.92601	0.68275
2895.87220	0.69879
2893.81839	0.71456
2891.76458	0.73081
2889.71077	0.74740
2887.65696	0.76392
2885.60315	0.77996
2883.54934	0.79517
2881.49553	0.80943
2879.44172	0.82276
2877.38791	0.83478
2875.33410	0.84455
2873.28029	0.85142
2871.22648	0.85540
2869.17267	0.85663
2867.11886	0.85480
2865.06505	0.84876
2863.01124	0.83658
2860.95743	0.81642
2858.90362	0.78616
2856.84981	0.74263
2854.79600	0.68351
2852.74219	0.61259
2850.68838	0.54617
2848.63457	0.50972
2846.58076	0.51916
2844.52695	0.56672
2842.47314	0.63097
2840.41933	0.69419
2838.36552	0.74761
2836.31171	0.78923
2834.25790	0.82080
2832.20409	0.84484
2830.15028	0.86335
2828.09647	0.87777
2826.04266	0.88921
2823.98885	0.89846
2821.93504	0.90605
2819.88123	0.91254
2817.82742	0.91815
2815.77361	0.92286
2813.71980	0.92686
2811.66599	0.93030
2809.61218	0.93338
2807.55837	0.93638
2805.50456	0.93913
2803.45075	0.94143
2801.39693	0.94338
2799.34312	0.94518
2797.28931	0.94699
2795.23550	0.94870
2793.18169	0.95033
2791.12788	0.95185
2789.07407	0.95319
2787.02026	0.95468
2784.96645	0.95629
2782.91264	0.95754
2780.85883	0.95837
2778.80502	0.95899
2776.75121	0.95976
2774.69740	0.96076
2772.64359	0.96171
2770.58978	0.96252
2768.53597	0.96320
2766.48216	0.96383
2764.42835	0.96438
2762.37454	0.96484
2760.32073	0.96529
2758.26692	0.96567
2756.21311	0.96588
2754.15930	0.96605
2752.10549	0.96636
2750.05168	0.96671
2747.99787	0.96694
2745.94406	0.96708
2743.89025	0.96725
2741.83644	0.96751
2739.78263	0.96782
2737.72882	0.96797
2735.67501	0.96789
2733.62120	0.96789
2731.56739	0.96821
2729.51358	0.96856
2727.45977	0.96875
2725.40596	0.96893
2723.35215	0.96923
2721.29834	0.96977
2719.24453	0.97029
2717.19072	0.97052
2715.13691	0.97067
2713.08310	0.97091
2711.02929	0.97115
2708.97548	0.97140
2706.92167	0.97182
2704.86786	0.97211
2702.81405	0.97206
2700.76024	0.97210
2698.70643	0.97232
2696.65262	0.97235
2694.59881	0.97226
2692.54500	0.97247
2690.49119	0.97280
2688.43738	0.97285
2686.38357	0.97268
2684.32976	0.97253
2682.27595	0.97254
2680.22214	0.97264
2678.16833	0.97272
2676.11452	0.97280
2674.06071	0.97283
2672.00690	0.97274
2669.95309	0.97252
2667.89928	0.97228
2665.84547	0.97214
2663.79166	0.97215
2661.73785	0.97212
2659.68404	0.97197
2657.63023	0.97182
2655.57642	0.97181
2653.52261	0.97198
2651.46880	0.97230
2649.41499	0.97257
2647.36118	0.97261
2645.30737	0.97244
2643.25356	0.97225
2641.19975	0.97233
2639.14594	0.97260
2637.09213	0.97273
2635.03832	0.97277
2632.98451	0.97286
2630.93070	0.97309
2628.87689	0.97335
2626.82308	0.97345
2624.76927	0.97362
2622.71546	0.97418
2620.66165	0.97494
2618.60784	0.97560
2616.55403	0.97613
2614.50022	0.97655
2612.44641	0.97686
2610.39260	0.97712
2608.33879	0.97739
2606.28498	0.97764
2604.23117	0.97793
2602.17736	0.97833
2600.12355	0.97869
2598.06974	0.97885
2596.01593	0.97895
2593.96212	0.97914
2591.90831	0.97949
2589.85450	0.98004
2587.80069	0.98040
2585.74688	0.98038
2583.69307	0.98044
2581.63926	0.98067
2579.58545	0.98065
2577.53164	0.98037
2575.47783	0.98024
2573.42402	0.98042
2571.37021	0.98064
2569.31640	0.98087
2567.26259	0.98114
2565.20878	0.98123
2563.15497	0.98142
2561.10116	0.98192
2559.04735	0.98226
2556.99354	0.98232
2554.93973	0.98236
2552.88592	0.98224
2550.83211	0.98202
2548.77830	0.98220
2546.72449	0.98264
2544.67068	0.98259
2542.61687	0.98239
2540.56306	0.98266
2538.50925	0.98301
2536.45544	0.98336
2534.40163	0.98376
2532.34782	0.98399
2530.29401	0.98396
2528.24020	0.98378
2526.18639	0.98360
2524.13258	0.98351
2522.07877	0.98374
2520.02496	0.98436
2517.97115	0.98496
2515.91734	0.98518
2513.86353	0.98500
2511.80972	0.98486
2509.75591	0.98518
2507.70210	0.98556
2505.64828	0.98545
2503.59447	0.98501
2501.54066	0.98490
2499.48685	0.98514
2497.43304	0.98508
2495.37923	0.98483
2493.32542	0.98491
2491.27161	0.98526
2489.21780	0.98566
2487.16399	0.98613
2485.11018	0.98671
2483.05637	0.98706
2481.00256	0.98679
2478.94875	0.98620
2476.89494	0.98583
2474.84113	0.98566
2472.78732	0.98555
2470.73351	0.98573
2468.67970	0.98614
2466.62589	0.98633
2464.57208	0.98628
2462.51827	0.98649
2460.46446	0.98682
2458.41065	0.98677
2456.35684	0.98672
2454.30303	0.98685
2452.24922	0.98672
2450.19541	0.98656
2448.14160	0.98690
2446.08779	0.98745
2444.03398	0.98766
2441.98017	0.98771
2439.92636	0.98761
2437.87255	0.98719
2435.81874	0.98689
2433.76493	0.98696
2431.71112	0.98720
2429.65731	0.98747
2427.60350	0.98767
2425.54969	0.98779
2423.49588	0.98773
2421.44207	0.98747
2419.38826	0.98739
2417.33445	0.98769
2415.28064	0.98796
2413.22683	0.98786
2411.17302	0.98783
2409.11921	0.98807
2407.06540	0.98818
2405.01159	0.98833
2402.95778	0.98872
2400.90397	0.98892
2398.85016	0.98874
2396.79635	0.98843
2394.74254	0.98827
2392.68873	0.98827
2390.63492	0.98830
2388.58111	0.98831
2386.52730	0.98823
2384.47349	0.98812
2382.41968	0.98803
2380.36587	0.98799
2378.31206	0.98796
2376.25825	0.98764
2374.20444	0.98733
2372.15063	0.98745
2370.09682	0.98756
2368.04301	0.98719
2365.98920	0.98672
2363.93539	0.98684
2361.88158	0.98721
2359.82777	0.98752
2357.77396	0.98801
2355.72015	0.98821
2353.66634	0.98739
2351.61253	0.98648
2349.55872	0.98633
2347.50491	0.98647
2345.45110	0.98682
2343.39729	0.98743
2341.34348	0.98746
2339.28967	0.98687
2337.23586	0.98617
2335.18205	0.98560
2333.12824	0.98548
2331.07443	0.98548
2329.02062	0.98498
2326.96681	0.98416
2324.91300	0.98370
2322.85919	0.98388
2320.80538	0.98435
2318.75157	0.98477
2316.69776	0.98505
2314.64395	0.98543
2312.59014	0.98593
2310.53633	0.98613
2308.48252	0.98630
2306.42871	0.98662
2304.37490	0.98664
2302.32109	0.98640
2300.26728	0.98632
2298.21347	0.98641
2296.15966	0.98659
2294.10585	0.98670
2292.05204	0.98669
2289.99823	0.98692
2287.94442	0.98700
2285.89061	0.98649
2283.83680	0.98624
2281.78299	0.98655
2279.72918	0.98661
2277.67537	0.98697
2275.62156	0.98798
2273.56775	0.98867
2271.51394	0.98904
2269.46013	0.98947
2267.40632	0.98989
2265.35251	0.99036
2263.29870	0.99059
2261.24489	0.99003
2259.19108	0.98910
2257.13727	0.98889
2255.08346	0.98981
2253.02965	0.99098
2250.97584	0.99114
2248.92203	0.99060
2246.86822	0.99037
2244.81441	0.99020
2242.76060	0.98935
2240.70679	0.98883
2238.65298	0.98964
2236.59917	0.99047
2234.54536	0.99037
2232.49155	0.98947
2230.43774	0.98850
2228.38393	0.98890
2226.33012	0.98998
2224.27631	0.99036
2222.22250	0.99074
2220.16869	0.99134
2218.11488	0.99132
2216.06107	0.99117
2214.00726	0.99140
2211.95344	0.99118
2209.89963	0.99102
2207.84582	0.99170
2205.79201	0.99232
2203.73820	0.99209
2201.68439	0.99106
2199.63058	0.98992
2197.57677	0.98926
2195.52296	0.98897
2193.46915	0.98903
2191.41534	0.98908
2189.36153	0.98870
2187.30772	0.98784
2185.25391	0.98694
2183.20010	0.98760
2181.14629	0.98963
2179.09248	0.99086
2177.03867	0.99150
2174.98486	0.99315
2172.93105	0.99487
2170.87724	0.99368
2168.82343	0.99016
2166.76962	0.98846
2164.71581	0.98919
2162.66200	0.99029
2160.60819	0.99186
2158.55438	0.99377
2156.50057	0.99463
2154.44676	0.99416
2152.39295	0.99284
2150.33914	0.99146
2148.28533	0.99123
2146.23152	0.99258
2144.17771	0.99405
2142.12390	0.99416
2140.07009	0.99366
2138.01628	0.99374
2135.96247	0.99357
2133.90866	0.99272
2131.85485	0.99196
2129.80104	0.99167
2127.74723	0.99189
2125.69342	0.99222
2123.63961	0.99236
2121.58580	0.99223
2119.53199	0.99135
2117.47818	0.99015
2115.42437	0.98967
2113.37056	0.98967
2111.31675	0.98935
2109.26294	0.98912
2107.20913	0.98926
2105.15532	0.98923
2103.10151	0.98888
2101.04770	0.98891
2098.99389	0.98958
2096.94008	0.98984
2094.88627	0.98955
2092.83246	0.98943
2090.77865	0.98938
2088.72484	0.98948
2086.67103	0.98985
2084.61722	0.99028
2082.56341	0.99042
2080.50960	0.98997
2078.45579	0.98911
2076.40198	0.98854
2074.34817	0.98883
2072.29436	0.98964
2070.24055	0.99021
2068.18674	0.99011
2066.13293	0.99003
2064.07912	0.99065
2062.02531	0.99069
2059.97150	0.98959
2057.91769	0.98891
2055.86388	0.98932
2053.81007	0.98979
2051.75626	0.98953
2049.70245	0.98902
2047.64864	0.98906
2045.59483	0.98950
2043.54102	0.98965
2041.48721	0.98919
2039.43340	0.98872
2037.37959	0.98894
2035.32578	0.98890
2033.27197	0.98901
2031.21816	0.99010
2029.16435	0.99049
2027.11054	0.99028
2025.05673	0.99059
2023.00292	0.99035
2020.94911	0.98964
2018.89530	0.98988
2016.84149	0.99040
2014.78768	0.98997
2012.73387	0.98940
2010.68006	0.98984
2008.62625	0.99154
2006.57244	0.99417
2004.51863	0.99578
2002.46482	0.99506
2000.41101	0.99368
1998.35720	0.99277
1996.30339	0.99140
1994.24958	0.98949
1992.19577	0.98883
1990.14196	0.98970
1988.08815	0.98993
1986.03434	0.98958
1983.98053	0.98960
1981.92672	0.98880
1979.87291	0.98856
1977.81910	0.99052
1975.76529	0.99181
1973.71148	0.99100
1971.65767	0.98994
1969.60386	0.99026
1967.55005	0.99117
1965.49624	0.99075
1963.44243	0.99012
1961.38862	0.99147
1959.33481	0.99300
1957.28100	0.99241
1955.22719	0.99114
1953.17338	0.99065
1951.11957	0.99115
1949.06576	0.99208
1947.01195	0.99161
1944.95814	0.98970
1942.90433	0.98912
1940.85052	0.99044
1938.79671	0.99115
1936.74290	0.99060
1934.68909	0.99029
1932.63528	0.99079
1930.58147	0.99126
1928.52766	0.99147
1926.47385	0.99118
1924.42004	0.99065
1922.36623	0.99078
1920.31242	0.99094
1918.25861	0.99052
1916.20479	0.99044
1914.15098	0.99106
1912.09717	0.99146
1910.04336	0.99134
1907.98955	0.99092
1905.93574	0.99040
1903.88193	0.99006
1901.82812	0.98960
1899.77431	0.98887
1897.72050	0.98847
1895.66669	0.98867
1893.61288	0.98891
1891.55907	0.98877
1889.50526	0.98868
1887.45145	0.98890
1885.39764	0.98924
1883.34383	0.98950
1881.29002	0.98954
1879.23621	0.98949
1877.18240	0.98965
1875.12859	0.98997
1873.07478	0.99009
1871.02097	0.99000
1868.96716	0.98995
1866.91335	0.98970
1864.85954	0.98943
1862.80573	0.98947
1860.75192	0.98960
1858.69811	0.98962
1856.64430	0.98957
1854.59049	0.98973
1852.53668	0.99020
1850.48287	0.99059
1848.42906	0.99058
1846.37525	0.99039
1844.32144	0.99018
1842.26763	0.98963
1840.21382	0.98908
1838.16001	0.98908
1836.10620	0.98931
1834.05239	0.98928
1831.99858	0.98910
1829.94477	0.98897
1827.89096	0.98876
1825.83715	0.98864
1823.78334	0.98877
1821.72953	0.98884
1819.67572	0.98887
1817.62191	0.98902
1815.56810	0.98896
1813.51429	0.98847
1811.46048	0.98798
1809.40667	0.98785
1807.35286	0.98780
1805.29905	0.98750
1803.24524	0.98702
1801.19143	0.98667
1799.13762	0.98638
1797.08381	0.98574
1795.03000	0.98503
1792.97619	0.98469
1790.92238	0.98438
1788.86857	0.98364
1786.81476	0.98274
1784.76095	0.98232
1782.70714	0.98237
1780.65333	0.98227
1778.59952	0.98183
1776.54571	0.98133
1774.49190	0.98090
1772.43809	0.98030
1770.38428	0.97955
1768.33047	0.97898
1766.27666	0.97863
1764.22285	0.97854
1762.16904	0.97843
1760.11523	0.97796
1758.06142	0.97720
1756.00761	0.97627
1753.95380	0.97514
1751.89999	0.97364
1749.84618	0.97187
1747.79237	0.97015
1745.73856	0.96838
1743.68475	0.96651
1741.63094	0.96441
1739.57713	0.96244
1737.52332	0.96132
1735.46951	0.96061
1733.41570	0.95941
1731.36189	0.95800
1729.30808	0.95618
1727.25427	0.95360
1725.20046	0.95048
1723.14665	0.94715
1721.09284	0.94440
1719.03903	0.94200
1716.98522	0.93940
1714.93141	0.93742
1712.87760	0.93641
1710.82379	0.93624
1708.76998	0.93693
1706.71617	0.93804
1704.66236	0.93911
1702.60855	0.93986
1700.55474	0.94007
1698.50093	0.93960
1696.44712	0.93877
1694.39331	0.93753
1692.33950	0.93619
1690.28569	0.93454
1688.23188	0.93256
1686.17807	0.93053
1684.12426	0.92734
1682.07045	0.92390
1680.01664	0.92162
1677.96283	0.91963
1675.90902	0.91714
1673.85521	0.91434
1671.80140	0.91224
1669.74759	0.91011
1667.69378	0.90802
1665.63997	0.90681
1663.58616	0.90574
1661.53235	0.90458
1659.47854	0.90397
1657.42473	0.90388
1655.37092	0.90400
1653.31711	0.90390
1651.26330	0.90389
1649.20949	0.90421
1647.15568	0.90416
1645.10187	0.90351
1643.04806	0.90318
1640.99425	0.90321
1638.94044	0.90307
1636.88663	0.90251
1634.83282	0.90207
1632.77901	0.90222
1630.72520	0.90242
1628.67139	0.90267
1626.61758	0.90331
1624.56377	0.90435
1622.50996	0.90589
1620.45614	0.90768
1618.40233	0.90942
1616.34852	0.91139
1614.29471	0.91340
1612.24090	0.91527
1610.18709	0.91707
1608.13328	0.91865
1606.07947	0.91994
1604.02566	0.92109
1601.97185	0.92213
1599.91804	0.92307
1597.86423	0.92412
1595.81042	0.92524
1593.75661	0.92639
1591.70280	0.92767
1589.64899	0.92898
1587.59518	0.93033
1585.54137	0.93208
1583.48756	0.93410
1581.43375	0.93588
1579.37994	0.93742
1577.32613	0.93898
1575.27232	0.94059
1573.21851	0.94195
1571.16470	0.94326
1569.11089	0.94483
1567.05708	0.94633
1565.00327	0.94748
1562.94946	0.94847
1560.89565	0.94938
1558.84184	0.95032
1556.78803	0.95086
1554.73422	0.95127
1552.68041	0.95179
1550.62660	0.95225
1548.57279	0.95254
1546.51898	0.95271
1544.46517	0.95299
1542.41136	0.95347
1540.35755	0.95391
1538.30374	0.95431
1536.24993	0.95471
1534.19612	0.95515
1532.14231	0.95555
1530.08850	0.95567
1528.03469	0.95573
1525.98088	0.95581
1523.92707	0.95573
1521.87326	0.95543
1519.81945	0.95527
1517.76564	0.95525
1515.71183	0.95509
1513.65802	0.95484
1511.60421	0.95473
1509.55040	0.95481
1507.49659	0.95466
1505.44278	0.95407
1503.38897	0.95358
1501.33516	0.95314
1499.28135	0.95239
1497.22754	0.95113
1495.17373	0.94963
1493.11992	0.94842
1491.06611	0.94701
1489.01230	0.94475
1486.95849	0.94213
1484.90468	0.93945
1482.85087	0.93571
1480.79706	0.92938
1478.74325	0.91681
1476.68944	0.88675
1474.63563	0.83023
1472.58182	0.77129
1470.52801	0.75362
1468.47420	0.76117
1466.42039	0.76535
1464.36658	0.76429
1462.31277	0.77309
1460.25896	0.79531
1458.20515	0.82274
1456.15134	0.84517
1454.09753	0.85832
1452.04372	0.86847
1449.98991	0.87736
1447.93610	0.88430
1445.88229	0.88923
1443.82848	0.89277
1441.77467	0.89599
1439.72086	0.89912
1437.66705	0.90220
1435.61324	0.90537
1433.55943	0.90842
1431.50562	0.91165
1429.45181	0.91497
1427.39800	0.91771
1425.34419	0.91978
1423.29038	0.92133
1421.23657	0.92222
1419.18276	0.92270
1417.12895	0.92314
1415.07514	0.92368
1413.02133	0.92428
1410.96752	0.92514
1408.91371	0.92651
1406.85990	0.92839
1404.80609	0.93074
1402.75228	0.93311
1400.69847	0.93519
1398.64466	0.93718
1396.59085	0.93890
1394.53704	0.94017
1392.48323	0.94126
1390.42942	0.94220
1388.37561	0.94294
1386.32180	0.94300
1384.26799	0.94163
1382.21418	0.93859
1380.16037	0.93463
1378.10656	0.93181
1376.05275	0.93163
1373.99894	0.93342
1371.94513	0.93523
1369.89132	0.93637
1367.83751	0.93739
1365.78370	0.93865
1363.72989	0.94010
1361.67608	0.94157
1359.62227	0.94257
1357.56846	0.94304
1355.51465	0.94340
1353.46084	0.94378
1351.40703	0.94403
1349.35322	0.94449
1347.29941	0.94546
1345.24560	0.94653
1343.19179	0.94739
1341.13798	0.94807
1339.08417	0.94887
1337.03036	0.94996
1334.97655	0.95097
1332.92274	0.95168
1330.86893	0.95206
1328.81512	0.95212
1326.76130	0.95195
1324.70749	0.95172
1322.65368	0.95136
1320.59987	0.95066
1318.54606	0.94988
1316.49225	0.94947
1314.43844	0.94916
1312.38463	0.94869
1310.33082	0.94812
1308.27701	0.94752
1306.22320	0.94714
1304.16939	0.94710
1302.11558	0.94716
1300.06177	0.94716
1298.00796	0.94719
1295.95415	0.94730
1293.90034	0.94748
1291.84653	0.94775
1289.79272	0.94800
1287.73891	0.94803
1285.68510	0.94778
1283.63129	0.94736
1281.57748	0.94681
1279.52367	0.94618
1277.46986	0.94562
1275.41605	0.94514
1273.36224	0.94455
1271.30843	0.94379
1269.25462	0.94297
1267.20081	0.94215
1265.14700	0.94135
1263.09319	0.94049
1261.03938	0.93947
1258.98557	0.93837
1256.93176	0.93727
1254.87795	0.93648
1252.82414	0.93627
1250.77033	0.93645
1248.71652	0.93671
1246.66271	0.93701
1244.60890	0.93738
1242.55509	0.93750
1240.50128	0.93729
1238.44747	0.93670
1236.39366	0.93555
1234.33985	0.93398
1232.28604	0.93191
1230.23223	0.92947
1228.17842	0.92717
1226.12461	0.92499
1224.07080	0.92276
1222.01699	0.92066
1219.96318	0.91883
1217.90937	0.91719
1215.85556	0.91576
1213.80175	0.91466
1211.74794	0.91372
1209.69413	0.91255
1207.64032	0.91082
1205.58651	0.90831
1203.53270	0.90504
1201.47889	0.90124
1199.42508	0.89700
1197.37127	0.89249
1195.31746	0.88813
1193.26365	0.88426
1191.20984	0.88059
1189.15603	0.87662
1187.10222	0.87257
1185.04841	0.86898
1182.99460	0.86624
1180.94079	0.86457
1178.88698	0.86352
1176.83317	0.86241
1174.77936	0.86082
1172.72555	0.85866
1170.67174	0.85626
1168.61793	0.85383
1166.56412	0.85140
1164.51031	0.84906
1162.45650	0.84650
1160.40269	0.84363
1158.34888	0.84073
1156.29507	0.83760
1154.24126	0.83416
1152.18745	0.83111
1150.13364	0.82923
1148.07983	0.82844
1146.02602	0.82798
1143.97221	0.82732
1141.91840	0.82630
1139.86459	0.82511
1137.81078	0.82403
1135.75697	0.82302
1133.70316	0.82187
1131.64935	0.82019
1129.59554	0.81790
1127.54173	0.81551
1125.48792	0.81327
1123.43411	0.81096
1121.38030	0.80839
1119.32649	0.80552
1117.27268	0.80248
1115.21887	0.79946
1113.16506	0.79720
1111.11125	0.79647
1109.05744	0.79740
1107.00363	0.79977
1104.94982	0.80295
1102.89601	0.80603
1100.84220	0.80904
1098.78839	0.81255
1096.73458	0.81633
1094.68077	0.81996
1092.62696	0.82348
1090.57315	0.82682
1088.51934	0.82969
1086.46553	0.83210
1084.41172	0.83393
1082.35791	0.83492
1080.30410	0.83510
1078.25029	0.83454
1076.19648	0.83392
1074.14267	0.83416
1072.08886	0.83545
1070.03505	0.83758
1067.98124	0.84003
1065.92743	0.84221
1063.87362	0.84405
1061.81981	0.84585
1059.76600	0.84757
1057.71219	0.84844
1055.65838	0.84812
1053.60457	0.84734
1051.55076	0.84661
1049.49695	0.84574
1047.44314	0.84471
1045.38933	0.84375
1043.33552	0.84287
1041.28171	0.84222
1039.22790	0.84225
1037.17409	0.84282
1035.12028	0.84343
1033.06647	0.84428
1031.01265	0.84564
1028.95884	0.84702
1026.90503	0.84834
1024.85122	0.85031
1022.79741	0.85293
1020.74360	0.85534
1018.68979	0.85723
1016.63598	0.85923
1014.58217	0.86184
1012.52836	0.86469
1010.47455	0.86737
1008.42074	0.87010
1006.36693	0.87318
1004.31312	0.87655
1002.25931	0.87992
1000.20550	0.88290
998.15169	0.88518
996.09788	0.88681
994.04407	0.88846
991.99026	0.89069
989.93645	0.89410
987.88264	0.89915
985.82883	0.90491
983.77502	0.90992
981.72121	0.91378
979.66740	0.91686
977.61359	0.91963
975.55978	0.92226
973.50597	0.92459
971.45216	0.92668
969.39835	0.92864
967.34454	0.93013
965.29073	0.93065
963.23692	0.93035
961.18311	0.93037
959.12930	0.93187
957.07549	0.93450
955.02168	0.93697
952.96787	0.93850
950.91406	0.93924
948.86025	0.93970
946.80644	0.94025
944.75263	0.94098
942.69882	0.94164
940.64501	0.94199
938.59120	0.94226
936.53739	0.94248
934.48358	0.94246
932.42977	0.94218
930.37596	0.94166
928.32215	0.94109
926.26834	0.94059
924.21453	0.93996
922.16072	0.93929
920.10691	0.93882
918.05310	0.93852
915.99929	0.93828
913.94548	0.93766
911.89167	0.93631
909.83786	0.93535
907.78405	0.93626
905.73024	0.93890
903.67643	0.94204
901.62262	0.94465
899.56881	0.94640
897.51500	0.94764
895.46119	0.94866
893.40738	0.94957
891.35357	0.95051
889.29976	0.95144
887.24595	0.95206
885.19214	0.95202
883.13833	0.95152
881.08452	0.95047
879.03071	0.94822
876.97690	0.94489
874.92309	0.94233
872.86928	0.94312
870.81547	0.94705
868.76166	0.95099
866.70785	0.95303
864.65404	0.95382
862.60023	0.95428
860.54642	0.95445
858.49261	0.95439
856.43880	0.95441
854.38499	0.95479
852.33118	0.95515
850.27737	0.95526
848.22356	0.95543
846.16975	0.95548
844.11594	0.95518
842.06213	0.95451
840.00832	0.95350
837.95451	0.95228
835.90070	0.95136
833.84689	0.95110
831.79308	0.95121
829.73927	0.95140
827.68546	0.95159
825.63165	0.95176
823.57784	0.95135
821.52403	0.95031
819.47022	0.94968
817.41641	0.94965
815.36260	0.94920
813.30879	0.94801
811.25498	0.94665
809.20117	0.94547
807.14736	0.94454
805.09355	0.94337
803.03974	0.94122
800.98593	0.93887
798.93212	0.93776
796.87831	0.93757
794.82450	0.93720
792.77069	0.93668
790.71688	0.93592
788.66307	0.93467
786.60926	0.93370
784.55545	0.93294
782.50164	0.93152
780.44783	0.93030
778.39402	0.93021
776.34021	0.93067
774.28640	0.93085
772.23259	0.93030
770.17878	0.92927
768.12497	0.92786
766.07116	0.92603
764.01735	0.92498
761.96354	0.92491
759.90973	0.92444
757.85592	0.92311
755.80211	0.92169
753.74830	0.92052
751.69449	0.91881
749.64068	0.91639
747.58687	0.91403
745.53306	0.91186
743.47925	0.90974
741.42544	0.90739
739.37163	0.90394
737.31781	0.89810
735.26400	0.88634
733.21019	0.86321
731.15638	0.83454
729.10257	0.81881
727.04876	0.81783
724.99495	0.81247
722.94114	0.78881
720.88733	0.74964
718.83352	0.71882
716.77971	0.72197
714.72590	0.75555
712.67209	0.79530
710.61828	0.82362
708.56447	0.83931
706.51066	0.84698
704.45685	0.85079
702.40304	0.85331
700.34923	0.85513
698.29542	0.85596
696.24161	0.85551
694.18780	0.85458
692.13399	0.85415
690.08018	0.85413
688.02637	0.85397
685.97256	0.85339
683.91875	0.85281
681.86494	0.85255
679.81113	0.85198
677.75732	0.85143
675.70351	0.85167
673.64970	0.85215
671.59589	0.85232
669.54208	0.85249
667.48827	0.85212
665.43446	0.85090
663.38065	0.84966
661.32684	0.84837
659.27303	0.84674
657.21922	0.84503
655.16541	0.84409
653.11160	0.84350
651.05779	0.84239
649.00398	0.84110
646.95017	0.84031
644.89636	0.83948
642.84255	0.83842
640.78874	0.83802
638.73493	0.83745
636.68112	0.83638
634.62731	0.83574
632.57350	0.83492
630.51969	0.83225
628.46588	0.82692
626.41207	0.81967
624.35826	0.81220
622.30445	0.80661
620.25064	0.80377
618.19683	0.80360
616.14302	0.80726
614.08921	0.81436
612.03540	0.82142
609.98159	0.82642
607.92778	0.83012
605.87397	0.83354
603.82016	0.83666
601.76635	0.83877
599.71254	0.84019
597.65873	0.84159
595.60492	0.84300
593.55111	0.84484
591.49730	0.84663
589.44349	0.84729
587.38968	0.84742
585.33587	0.84725
583.28206	0.84631
581.22825	0.84564
579.17444	0.84561
577.12063	0.84537
575.06682	0.84577
573.01301	0.84695
570.95920	0.84727
568.90539	0.84617
566.85158	0.84471
564.79777	0.84431
562.74396	0.84452
560.69015	0.84369
558.63634	0.84183
556.58253	0.83982
554.52872	0.83781
552.47491	0.83634
550.42110	0.83572
548.36729	0.83562
546.31348	0.83604
544.25967	0.83576
542.20586	0.83434
540.15205	0.83318
538.09824	0.83279
536.04443	0.83299
533.99062	0.83368
531.93681	0.83397
529.88300	0.83322
527.82919	0.83286
525.77538	0.83430
523.72157	0.83594
521.66776	0.83659
519.61395	0.83804
517.56014	0.84132
515.50633	0.84530
513.45252	0.84816
511.39871	0.84966
509.34490	0.85114
507.29109	0.85338
505.23728	0.85594
503.18347	0.85827
501.12966	0.85980
499.07585	0.86015
497.02204	0.86028
494.96823	0.86115
492.91442	0.86242
490.86061	0.86359
488.80680	0.86489
486.75299	0.86494
484.69918	0.86220
482.64537	0.85903
480.59156	0.85697
478.53775	0.85408
476.48394	0.84971
474.43013	0.84545
472.37632	0.84211
470.32251	0.83988
468.26870	0.83895
466.21489	0.83954
464.16108	0.84217
462.10727	0.84549
460.05346	0.84715
457.99965	0.84884
455.94584	0.85296
453.89203	0.85644
451.83822	0.85757
449.78441	0.85809
447.73060	0.85925
445.67679	0.86007
443.62298	0.85940
441.56916	0.85723
439.51535	0.85352
437.46154	0.84939
435.40773	0.84655
433.35392	0.84516
431.30011	0.84439
429.24630	0.84287
427.19249	0.84194
425.13868	0.84510
423.08487	0.85084
421.03106	0.85689
418.97725	0.86386
416.92344	0.86904
414.86963	0.87220
412.81582	0.87445
410.76201	0.87458
408.70820	0.87251
406.65439	0.87067
404.60058	0.87252
402.54677	0.87784
400.49296	0.88103
398.43915	0.87997
