3996.71440	0.98236
3994.66059	0.98237
3992.60678	0.98223
3990.55297	0.98192
3988.49916	0.98186
3986.44535	0.98228
3984.39154	0.98249
3982.33773	0.98232
3980.28391	0.98221
3978.23010	0.98221
3976.17629	0.98242
3974.12248	0.98261
3972.06867	0.98228
3970.01486	0.98185
3967.96105	0.98192
3965.90724	0.98217
3963.85343	0.98223
3961.79962	0.98208
3959.74581	0.98196
3957.69200	0.98195
3955.63819	0.98165
3953.58438	0.98129
3951.53057	0.98145
3949.47676	0.98189
3947.42295	0.98193
3945.36914	0.98161
3943.31533	0.98151
3941.26152	0.98182
3939.20771	0.98210
3937.15390	0.98208
3935.10009	0.98170
3933.04628	0.98140
3930.99247	0.98156
3928.93866	0.98175
3926.88485	0.98181
3924.83104	0.98205
3922.77723	0.98219
3920.72342	0.98210
3918.66961	0.98214
3916.61580	0.98213
3914.56199	0.98184
3912.50818	0.98163
3910.45437	0.98170
3908.40056	0.98170
3906.34675	0.98140
3904.29294	0.98126
3902.23913	0.98165
3900.18532	0.98202
3898.13151	0.98173
3896.07770	0.98117
3894.02389	0.98097
3891.97008	0.98125
3889.91627	0.98152
3887.86246	0.98150
3885.80865	0.98148
3883.75484	0.98161
3881.70103	0.98185
3879.64722	0.98202
3877.59341	0.98190
3875.53960	0.98172
3873.48579	0.98156
3871.43198	0.98154
3869.37817	0.98167
3867.32436	0.98152
3865.27055	0.98133
3863.21674	0.98143
3861.16293	0.98151
3859.10912	0.98176
3857.05531	0.98203
3855.00150	0.98179
3852.94769	0.98157
3850.89388	0.98172
3848.84007	0.98160
3846.78626	0.98155
3844.73245	0.98175
3842.67864	0.98207
3840.62483	0.98205
3838.57102	0.98154
3836.51721	0.98118
3834.46340	0.98124
3832.40959	0.98150
3830.35578	0.98165
3828.30197	0.98166
3826.24816	0.98172
3824.19435	0.98180
3822.14054	0.98205
3820.08673	0.98219
3818.03292	0.98178
3815.97911	0.98152
3813.92530	0.98159
3811.87149	0.98164
3809.81768	0.98165
3807.76387	0.98164
3805.71006	0.98173
3803.65625	0.98197
3801.60244	0.98222
3799.54863	0.98213
3797.49482	0.98193
3795.44101	0.98198
3793.38720	0.98197
3791.33339	0.98186
3789.27958	0.98190
3787.22577	0.98193
3785.17196	0.98175
3783.11815	0.98152
3781.06434	0.98150
3779.01053	0.98171
3776.95672	0.98172
3774.90291	0.98145
3772.84910	0.98131
3770.79529	0.98170
3768.74148	0.98230
3766.68767	0.98228
3764.63386	0.98192
3762.58005	0.98186
3760.52624	0.98194
3758.47243	0.98186
3756.41862	0.98171
3754.36481	0.98167
3752.31100	0.98173
3750.25719	0.98190
3748.20338	0.98225
3746.14957	0.98260
3744.09576	0.98281
3742.04195	0.98286
3739.98814	0.98262
3737.93433	0.98234
3735.88052	0.98240
3733.82671	0.98257
3731.77290	0.98268
3729.71909	0.98273
3727.66528	0.98262
3725.61147	0.98248
3723.55766	0.98245
3721.50385	0.98217
3719.45004	0.98174
3717.39623	0.98180
3715.34242	0.98203
3713.28861	0.98214
3711.23480	0.98224
3709.18099	0.98189
3707.12718	0.98153
3705.07337	0.98134
3703.01956	0.98091
3700.96575	0.98051
3698.91194	0.98032
3696.85813	0.98012
3694.80432	0.98015
3692.75051	0.98052
3690.69670	0.98102
3688.64289	0.98123
3686.58907	0.98094
3684.53526	0.98063
3682.48145	0.98048
3680.42764	0.98055
3678.37383	0.98072
3676.32002	0.98070
3674.26621	0.98055
3672.21240	0.98021
3670.15859	0.97984
3668.10478	0.98015
3666.05097	0.98063
3663.99716	0.98063
3661.94335	0.98033
3659.88954	0.98004
3657.83573	0.97997
3655.78192	0.98004
3653.72811	0.98002
3651.67430	0.97965
3649.62049	0.97893
3647.56668	0.97911
3645.51287	0.97989
3643.45906	0.98010
3641.40525	0.98006
3639.35144	0.98010
3637.29763	0.98004
3635.24382	0.97987
3633.19001	0.97961
3631.13620	0.97921
3629.08239	0.97895
3627.02858	0.97896
3624.97477	0.97886
3622.92096	0.97870
3620.86715	0.97865
3618.81334	0.97894
3616.75953	0.97939
3614.70572	0.97948
3612.65191	0.97907
3610.59810	0.97859
3608.54429	0.97859
3606.49048	0.97884
3604.43667	0.97887
3602.38286	0.97892
3600.32905	0.97923
3598.27524	0.97948
3596.22143	0.97950
3594.16762	0.97964
3592.11381	0.98000
3590.06000	0.98015
3588.00619	0.98018
3585.95238	0.98043
3583.89857	0.98045
3581.84476	0.98021
3579.79095	0.98012
3577.73714	0.98011
3575.68333	0.98020
3573.62952	0.98035
3571.57571	0.98014
3569.52190	0.97976
3567.46809	0.97993
3565.41428	0.98028
3563.36047	0.98006
3561.30666	0.97991
3559.25285	0.98011
3557.19904	0.98023
3555.14523	0.98025
3553.09142	0.98018
3551.03761	0.97996
3548.98380	0.97996
3546.92999	0.98002
3544.87618	0.97974
3542.82237	0.97961
3540.76856	0.97971
3538.71475	0.97961
3536.66094	0.97927
3534.60713	0.97893
3532.55332	0.97886
3530.49951	0.97909
3528.44570	0.97927
3526.39189	0.97938
3524.33808	0.97969
3522.28427	0.97986
3520.23046	0.97951
3518.17665	0.97916
3516.12284	0.97929
3514.06903	0.97970
3512.01522	0.98002
3509.96141	0.98006
3507.90760	0.97995
3505.85379	0.97995
3503.79998	0.98004
3501.74617	0.98005
3499.69236	0.98005
3497.63855	0.98009
3495.58474	0.97997
3493.53093	0.97989
3491.47712	0.98020
3489.42331	0.98043
3487.36950	0.98020
3485.31569	0.98006
3483.26188	0.98028
3481.20807	0.98039
3479.15426	0.98033
3477.10045	0.98024
3475.04664	0.98011
3472.99283	0.98003
3470.93902	0.98008
3468.88521	0.98024
3466.83140	0.98035
3464.77759	0.98041
3462.72378	0.98062
3460.66997	0.98104
3458.61616	0.98133
3456.56235	0.98121
3454.50854	0.98085
3452.45473	0.98039
3450.40092	0.97999
3448.34711	0.98000
3446.29330	0.98029
3444.23949	0.98029
3442.18568	0.98029
3440.13187	0.98063
3438.07806	0.98091
3436.02425	0.98105
3433.97044	0.98114
3431.91663	0.98119
3429.86282	0.98128
3427.80901	0.98131
3425.75520	0.98111
3423.70139	0.98067
3421.64758	0.98048
3419.59377	0.98071
3417.53996	0.98093
3415.48615	0.98119
3413.43234	0.98148
3411.37853	0.98150
3409.32472	0.98132
3407.27091	0.98104
3405.21710	0.98082
3403.16329	0.98093
3401.10948	0.98123
3399.05567	0.98134
3397.00186	0.98125
3394.94805	0.98105
3392.89424	0.98089
3390.84042	0.98087
3388.78661	0.98092
3386.73280	0.98103
3384.67899	0.98101
3382.62518	0.98094
3380.57137	0.98092
3378.51756	0.98087
3376.46375	0.98104
3374.40994	0.98144
3372.35613	0.98158
3370.30232	0.98145
3368.24851	0.98135
3366.19470	0.98132
3364.14089	0.98151
3362.08708	0.98182
3360.03327	0.98180
3357.97946	0.98144
3355.92565	0.98117
3353.87184	0.98134
3351.81803	0.98168
3349.76422	0.98170
3347.71041	0.98154
3345.65660	0.98142
3343.60279	0.98134
3341.54898	0.98165
3339.49517	0.98214
3337.44136	0.98199
3335.38755	0.98158
3333.33374	0.98176
3331.27993	0.98208
3329.22612	0.98203
3327.17231	0.98218
3325.11850	0.98252
3323.06469	0.98260
3321.01088	0.98258
3318.95707	0.98253
3316.90326	0.98242
3314.84945	0.98222
3312.79564	0.98201
3310.74183	0.98180
3308.68802	0.98163
3306.63421	0.98172
3304.58040	0.98197
3302.52659	0.98215
3300.47278	0.98232
3298.41897	0.98228
3296.36516	0.98206
3294.31135	0.98210
3292.25754	0.98229
3290.20373	0.98226
3288.14992	0.98212
3286.09611	0.98201
3284.04230	0.98193
3281.98849	0.98182
3279.93468	0.98172
3277.88087	0.98183
3275.82706	0.98211
3273.77325	0.98230
3271.71944	0.98196
3269.66563	0.98146
3267.61182	0.98140
3265.55801	0.98150
3263.50420	0.98156
3261.45039	0.98159
3259.39658	0.98165
3257.34277	0.98166
3255.28896	0.98164
3253.23515	0.98188
3251.18134	0.98205
3249.12753	0.98188
3247.07372	0.98190
3245.01991	0.98223
3242.96610	0.98233
3240.91229	0.98215
3238.85848	0.98201
3236.80467	0.98213
3234.75086	0.98239
3232.69705	0.98246
3230.64324	0.98224
3228.58943	0.98214
3226.53562	0.98241
3224.48181	0.98270
3222.42800	0.98283
3220.37419	0.98273
3218.32038	0.98260
3216.26657	0.98272
3214.21276	0.98286
3212.15895	0.98273
3210.10514	0.98254
3208.05133	0.98261
3205.99752	0.98284
3203.94371	0.98280
3201.88990	0.98263
3199.83609	0.98260
3197.78228	0.98249
3195.72847	0.98253
3193.67466	0.98296
3191.62085	0.98326
3189.56704	0.98332
3187.51323	0.98338
3185.45942	0.98333
3183.40561	0.98308
3181.35180	0.98281
3179.29799	0.98267
3177.24418	0.98259
3175.19037	0.98241
3173.13656	0.98220
3171.08275	0.98229
3169.02894	0.98259
3166.97513	0.98270
3164.92132	0.98264
3162.86751	0.98256
3160.81370	0.98258
3158.75989	0.98270
3156.70608	0.98267
3154.65227	0.98244
3152.59846	0.98231
3150.54465	0.98250
3148.49084	0.98278
3146.43703	0.98280
3144.38322	0.98267
3142.32941	0.98252
3140.27560	0.98245
3138.22179	0.98256
3136.16798	0.98269
3134.11417	0.98274
3132.06036	0.98297
3130.00655	0.98327
3127.95274	0.98321
3125.89893	0.98289
3123.84512	0.98262
3121.79131	0.98251
3119.73750	0.98256
3117.68369	0.98275
3115.62988	0.98305
3113.57607	0.98324
3111.52226	0.98319
3109.46845	0.98300
3107.41464	0.98288
3105.36083	0.98284
3103.30702	0.98256
3101.25321	0.98206
3099.19940	0.98183
3097.14559	0.98201
3095.09177	0.98235
3093.03796	0.98234
3090.98415	0.98190
3088.93034	0.98152
3086.87653	0.98146
3084.82272	0.98169
3082.76891	0.98194
3080.71510	0.98194
3078.66129	0.98171
3076.60748	0.98150
3074.55367	0.98147
3072.49986	0.98158
3070.44605	0.98179
3068.39224	0.98209
3066.33843	0.98229
3064.28462	0.98224
3062.23081	0.98209
3060.17700	0.98202
3058.12319	0.98203
3056.06938	0.98209
3054.01557	0.98210
3051.96176	0.98201
3049.90795	0.98198
3047.85414	0.98199
3045.80033	0.98192
3043.74652	0.98173
3041.69271	0.98158
3039.63890	0.98156
3037.58509	0.98155
3035.53128	0.98176
3033.47747	0.98208
3031.42366	0.98199
3029.36985	0.98177
3027.31604	0.98180
3025.26223	0.98183
3023.20842	0.98185
3021.15461	0.98195
3019.10080	0.98189
3017.04699	0.98182
3014.99318	0.98188
3012.93937	0.98184
3010.88556	0.98176
3008.83175	0.98188
3006.77794	0.98217
3004.72413	0.98229
3002.67032	0.98218
3000.61651	0.98210
2998.56270	0.98210
2996.50889	0.98221
2994.45508	0.98231
2992.40127	0.98224
2990.34746	0.98209
2988.29365	0.98203
2986.23984	0.98190
2984.18603	0.98150
2982.13222	0.98108
2980.07841	0.98098
2978.02460	0.98114
2975.97079	0.98125
2973.91698	0.98118
2971.86317	0.98106
2969.80936	0.98107
2967.75555	0.98119
2965.70174	0.98101
2963.64793	0.98014
2961.59412	0.97891
2959.54031	0.97799
2957.48650	0.97730
2955.43269	0.97630
2953.37888	0.97481
2951.32507	0.97298
2949.27126	0.97068
2947.21745	0.96764
2945.16364	0.96401
2943.10983	0.95968
2941.05602	0.95407
2939.00221	0.94701
2936.94840	0.93851
2934.89459	0.92849
2932.84078	0.91665
2930.78697	0.90248
2928.73316	0.88544
2926.67935	0.86480
2924.62554	0.83956
2922.57173	0.80957
2920.51792	0.77664
2918.46411	0.74449
2916.41030	0.71915
2914.35649	0.70718
2912.30268	0.71035
2910.24887	0.72423
2908.19506	0.74272
2906.14125	0.76147
2904.08744	0.77804
2902.03363	0.79168
2899.97982	0.80276
2897.92601	0.81214
2895.87220	0.82058
2893.81839	0.82876
2891.76458	0.83707
2889.71077	0.84553
2887.65696	0.85442
2885.60315	0.86364
2883.54934	0.87281
2881.49553	0.88213
2879.44172	0.89185
2877.38791	0.90174
2875.33410	0.91087
2873.28029	0.91828
2871.22648	0.92362
2869.17267	0.92700
2867.11886	0.92843
2865.06505	0.92758
2863.01124	0.92394
2860.95743	0.91651
2858.90362	0.90357
2856.84981	0.88282
2854.79600	0.85120
2852.74219	0.80726
2850.68838	0.75783
2848.63457	0.72060
2846.58076	0.71197
2844.52695	0.73182
2842.47314	0.76625
2840.41933	0.80159
2838.36552	0.83136
2836.31171	0.85454
2834.25790	0.87227
2832.20409	0.88592
2830.15028	0.89641
2828.09647	0.90453
2826.04266	0.91116
2823.98885	0.91670
2821.93504	0.92124
2819.88123	0.92505
2817.82742	0.92849
2815.77361	0.93166
2813.71980	0.93437
2811.66599	0.93657
2809.61218	0.93840
2807.55837	0.93994
2805.50456	0.94142
2803.45075	0.94306
2801.39693	0.94461
2799.34312	0.94579
2797.28931	0.94682
2795.23550	0.94800
2793.18169	0.94920
2791.12788	0.95032
2789.07407	0.95133
2787.02026	0.95214
2784.96645	0.95296
2782.91264	0.95397
2780.85883	0.95500
2778.80502	0.95585
2776.75121	0.95650
2774.69740	0.95700
2772.64359	0.95746
2770.58978	0.95791
2768.53597	0.95842
2766.48216	0.95908
2764.42835	0.95967
2762.37454	0.95988
2760.32073	0.96000
2758.26692	0.96041
2756.21311	0.96089
2754.15930	0.96124
2752.10549	0.96146
2750.05168	0.96162
2747.99787	0.96182
2745.94406	0.96201
2743.89025	0.96218
2741.83644	0.96236
2739.78263	0.96252
2737.72882	0.96269
2735.67501	0.96291
2733.62120	0.96306
2731.56739	0.96309
2729.51358	0.96324
2727.45977	0.96366
2725.40596	0.96399
2723.35215	0.96393
2721.29834	0.96378
2719.24453	0.96395
2717.19072	0.96431
2715.13691	0.96467
2713.08310	0.96493
2711.02929	0.96501
2708.97548	0.96509
2706.92167	0.96537
2704.86786	0.96560
2702.81405	0.96554
2700.76024	0.96537
2698.70643	0.96542
2696.65262	0.96556
2694.59881	0.96574
2692.54500	0.96615
2690.49119	0.96648
2688.43738	0.96646
2686.38357	0.96642
2684.32976	0.96651
2682.27595	0.96662
2680.22214	0.96662
2678.16833	0.96640
2676.11452	0.96629
2674.06071	0.96639
2672.00690	0.96642
2669.95309	0.96636
2667.89928	0.96613
2665.84547	0.96582
2663.79166	0.96564
2661.73785	0.96556
2659.68404	0.96558
2657.63023	0.96562
2655.57642	0.96555
2653.52261	0.96553
2651.46880	0.96571
2649.41499	0.96594
2647.36118	0.96591
2645.30737	0.96555
2643.25356	0.96537
2641.19975	0.96542
2639.14594	0.96523
2637.09213	0.96495
2635.03832	0.96500
2632.98451	0.96522
2630.93070	0.96535
2628.87689	0.96549
2626.82308	0.96581
2624.76927	0.96622
2622.71546	0.96655
2620.66165	0.96687
2618.60784	0.96705
2616.55403	0.96691
2614.50022	0.96690
2612.44641	0.96721
2610.39260	0.96757
2608.33879	0.96776
2606.28498	0.96799
2604.23117	0.96839
2602.17736	0.96879
2600.12355	0.96904
2598.06974	0.96893
2596.01593	0.96865
2593.96212	0.96860
2591.90831	0.96868
2589.85450	0.96864
2587.80069	0.96858
2585.74688	0.96888
2583.69307	0.96942
2581.63926	0.96973
2579.58545	0.96972
2577.53164	0.96985
2575.47783	0.97016
2573.42402	0.97035
2571.37021	0.97031
2569.31640	0.96999
2567.26259	0.96975
2565.20878	0.96981
2563.15497	0.96989
2561.10116	0.96986
2559.04735	0.96988
2556.99354	0.97019
2554.93973	0.97071
2552.88592	0.97101
2550.83211	0.97086
2548.77830	0.97046
2546.72449	0.97026
2544.67068	0.97038
2542.61687	0.97053
2540.56306	0.97069
2538.50925	0.97096
2536.45544	0.97134
2534.40163	0.97159
2532.34782	0.97163
2530.29401	0.97158
2528.24020	0.97129
2526.18639	0.97093
2524.13258	0.97081
2522.07877	0.97094
2520.02496	0.97109
2517.97115	0.97111
2515.91734	0.97140
2513.86353	0.97185
2511.80972	0.97164
2509.75591	0.97099
2507.70210	0.97083
2505.64828	0.97121
2503.59447	0.97171
2501.54066	0.97211
2499.48685	0.97229
2497.43304	0.97229
2495.37923	0.97211
2493.32542	0.97181
2491.27161	0.97152
2489.21780	0.97134
2487.16399	0.97134
2485.11018	0.97142
2483.05637	0.97149
2481.00256	0.97151
2478.94875	0.97143
2476.89494	0.97134
2474.84113	0.97148
2472.78732	0.97172
2470.73351	0.97163
2468.67970	0.97138
2466.62589	0.97152
2464.57208	0.97159
2462.51827	0.97145
2460.46446	0.97162
2458.41065	0.97183
2456.35684	0.97180
2454.30303	0.97181
2452.24922	0.97198
2450.19541	0.97223
2448.14160	0.97220
2446.08779	0.97167
2444.03398	0.97126
2441.98017	0.97154
2439.92636	0.97202
2437.87255	0.97212
2435.81874	0.97188
2433.76493	0.97161
2431.71112	0.97170
2429.65731	0.97197
2427.60350	0.97177
2425.54969	0.97132
2423.49588	0.97099
2421.44207	0.97086
2419.38826	0.97120
2417.33445	0.97173
2415.28064	0.97192
2413.22683	0.97195
2411.17302	0.97206
2409.11921	0.97215
2407.06540	0.97205
2405.01159	0.97177
2402.95778	0.97172
2400.90397	0.97204
2398.85016	0.97213
2396.79635	0.97173
2394.74254	0.97139
2392.68873	0.97138
2390.63492	0.97155
2388.58111	0.97179
2386.52730	0.97196
2384.47349	0.97191
2382.41968	0.97172
2380.36587	0.97152
2378.31206	0.97136
2376.25825	0.97128
2374.20444	0.97158
2372.15063	0.97223
2370.09682	0.97243
2368.04301	0.97185
2365.98920	0.97123
2363.93539	0.97067
2361.88158	0.96998
2359.82777	0.97015
2357.77396	0.97102
2355.72015	0.97082
2353.66634	0.96990
2351.61253	0.96960
2349.55872	0.96971
2347.50491	0.96970
2345.45110	0.96936
2343.39729	0.96918
2341.34348	0.96933
2339.28967	0.96915
2337.23586	0.96879
2335.18205	0.96881
2333.12824	0.96942
2331.07443	0.96981
2329.02062	0.96906
2326.96681	0.96789
2324.91300	0.96731
2322.85919	0.96737
2320.80538	0.96775
2318.75157	0.96855
2316.69776	0.96945
2314.64395	0.96960
2312.59014	0.96893
2310.53633	0.96838
2308.48252	0.96869
2306.42871	0.96950
2304.37490	0.96985
2302.32109	0.96953
2300.26728	0.96925
2298.21347	0.96922
2296.15966	0.96908
2294.10585	0.96885
2292.05204	0.96898
2289.99823	0.96949
2287.94442	0.96964
2285.89061	0.96933
2283.83680	0.96915
2281.78299	0.96918
2279.72918	0.96932
2277.67537	0.96949
2275.62156	0.96960
2273.56775	0.96995
2271.51394	0.97031
2269.46013	0.97007
2267.40632	0.96993
2265.35251	0.97060
2263.29870	0.97129
2261.24489	0.97111
2259.19108	0.97040
2257.13727	0.97009
2255.08346	0.97060
2253.02965	0.97084
2250.97584	0.97034
2248.92203	0.97013
2246.86822	0.97039
2244.81441	0.97041
2242.76060	0.97012
2240.70679	0.96989
2238.65298	0.96973
2236.59917	0.96957
2234.54536	0.96927
2232.49155	0.96915
2230.43774	0.96951
2228.38393	0.96975
2226.33012	0.96977
2224.27631	0.96999
2222.22250	0.97080
2220.16869	0.97235
2218.11488	0.97318
2216.06107	0.97243
2214.00726	0.97158
2211.95344	0.97123
2209.89963	0.97142
2207.84582	0.97239
2205.79201	0.97253
2203.73820	0.97064
2201.68439	0.96853
2199.63058	0.96844
2197.57677	0.96978
2195.52296	0.97091
2193.46915	0.97138
2191.41534	0.97127
2189.36153	0.97082
2187.30772	0.97037
2185.25391	0.96999
2183.20010	0.97006
2181.14629	0.97057
2179.09248	0.97110
2177.03867	0.97168
2174.98486	0.97227
2172.93105	0.97267
2170.87724	0.97270
2168.82343	0.97227
2166.76962	0.97106
2164.71581	0.96996
2162.66200	0.96976
2160.60819	0.97006
2158.55438	0.97146
2156.50057	0.97325
2154.44676	0.97398
2152.39295	0.97367
2150.33914	0.97272
2148.28533	0.97178
2146.23152	0.97178
2144.17771	0.97249
2142.12390	0.97295
2140.07009	0.97341
2138.01628	0.97399
2135.96247	0.97413
2133.90866	0.97388
2131.85485	0.97386
2129.80104	0.97383
2127.74723	0.97343
2125.69342	0.97302
2123.63961	0.97242
2121.58580	0.97169
2119.53199	0.97128
2117.47818	0.97091
2115.42437	0.97058
2113.37056	0.97036
2111.31675	0.97044
2109.26294	0.97124
2107.20913	0.97156
2105.15532	0.97081
2103.10151	0.97053
2101.04770	0.97115
2098.99389	0.97178
2096.94008	0.97204
2094.88627	0.97177
2092.83246	0.97145
2090.77865	0.97172
2088.72484	0.97207
2086.67103	0.97208
2084.61722	0.97200
2082.56341	0.97180
2080.50960	0.97124
2078.45579	0.97034
2076.40198	0.96983
2074.34817	0.97007
2072.29436	0.97029
2070.24055	0.97015
2068.18674	0.96997
2066.13293	0.96967
2064.07912	0.96923
2062.02531	0.96912
2059.97150	0.96970
2057.91769	0.97065
2055.86388	0.97118
2053.81007	0.97050
2051.75626	0.96934
2049.70245	0.96920
2047.64864	0.96904
2045.59483	0.96809
2043.54102	0.96816
2041.48721	0.96914
2039.43340	0.96959
2037.37959	0.96964
2035.32578	0.97015
2033.27197	0.97095
2031.21816	0.97123
2029.16435	0.97167
2027.11054	0.97212
2025.05673	0.97244
2023.00292	0.97369
2020.94911	0.97468
2018.89530	0.97417
2016.84149	0.97245
2014.78768	0.97080
2012.73387	0.97048
2010.68006	0.97073
2008.62625	0.97120
2006.57244	0.97198
2004.51863	0.97147
2002.46482	0.97005
2000.41101	0.96991
1998.35720	0.97042
1996.30339	0.96951
1994.24958	0.96734
1992.19577	0.96620
1990.14196	0.96756
1988.08815	0.96965
1986.03434	0.97045
1983.98053	0.96975
1981.92672	0.96824
1979.87291	0.96739
1977.81910	0.96843
1975.76529	0.97019
1973.71148	0.97094
1971.65767	0.97160
1969.60386	0.97324
1967.55005	0.97430
1965.49624	0.97334
1963.44243	0.97185
1961.38862	0.97136
1959.33481	0.97172
1957.28100	0.97220
1955.22719	0.97244
1953.17338	0.97214
1951.11957	0.97128
1949.06576	0.97060
1947.01195	0.97015
1944.95814	0.96961
1942.90433	0.96953
1940.85052	0.97003
1938.79671	0.97024
1936.74290	0.96988
1934.68909	0.96955
1932.63528	0.96969
1930.58147	0.96994
1928.52766	0.96980
1926.47385	0.96952
1924.42004	0.96943
1922.36623	0.96940
1920.31242	0.96936
1918.25861	0.96945
1916.20479	0.97013
1914.15098	0.97095
1912.09717	0.97073
1910.04336	0.96967
1907.98955	0.96884
1905.93574	0.96855
1903.88193	0.96862
1901.82812	0.96879
1899.77431	0.96861
1897.72050	0.96823
1895.66669	0.96811
1893.61288	0.96809
1891.55907	0.96826
1889.50526	0.96887
1887.45145	0.96912
1885.39764	0.96894
1883.34383	0.96901
1881.29002	0.96894
1879.23621	0.96865
1877.18240	0.96856
1875.12859	0.96865
1873.07478	0.96876
1871.02097	0.96867
1868.96716	0.96851
1866.91335	0.96852
1864.85954	0.96836
1862.80573	0.96814
1860.75192	0.96821
1858.69811	0.96839
1856.64430	0.96840
1854.59049	0.96830
1852.53668	0.96814
1850.48287	0.96808
1848.42906	0.96818
1846.37525	0.96829
1844.32144	0.96843
1842.26763	0.96850
1840.21382	0.96838
1838.16001	0.96848
1836.10620	0.96863
1834.05239	0.96842
1831.99858	0.96819
1829.94477	0.96822
1827.89096	0.96832
1825.83715	0.96804
1823.78334	0.96762
1821.72953	0.96766
1819.67572	0.96784
1817.62191	0.96771
1815.56810	0.96757
1813.51429	0.96758
1811.46048	0.96738
1809.40667	0.96699
1807.35286	0.96672
1805.29905	0.96649
1803.24524	0.96624
1801.19143	0.96599
1799.13762	0.96576
1797.08381	0.96552
1795.03000	0.96539
1792.97619	0.96548
1790.92238	0.96547
1788.86857	0.96513
1786.81476	0.96475
1784.76095	0.96455
1782.70714	0.96448
1780.65333	0.96436
1778.59952	0.96413
1776.54571	0.96387
1774.49190	0.96365
1772.43809	0.96348
1770.38428	0.96335
1768.33047	0.96325
1766.27666	0.96313
1764.22285	0.96313
1762.16904	0.96317
1760.11523	0.96306
1758.06142	0.96274
1756.00761	0.96239
1753.95380	0.96226
1751.89999	0.96224
1749.84618	0.96200
1747.79237	0.96132
1745.73856	0.96063
1743.68475	0.96022
1741.63094	0.95988
1739.57713	0.95938
1737.52332	0.95890
1735.46951	0.95893
1733.41570	0.95964
1731.36189	0.96021
1729.30808	0.96035
1727.25427	0.96016
1725.20046	0.95963
1723.14665	0.95887
1721.09284	0.95795
1719.03903	0.95682
1716.98522	0.95557
1714.93141	0.95439
1712.87760	0.95346
1710.82379	0.95313
1708.76998	0.95350
1706.71617	0.95428
1704.66236	0.95488
1702.60855	0.95512
1700.55474	0.95575
1698.50093	0.95654
1696.44712	0.95700
1694.39331	0.95757
1692.33950	0.95813
1690.28569	0.95877
1688.23188	0.95946
1686.17807	0.95992
1684.12426	0.96022
1682.07045	0.96049
1680.01664	0.96073
1677.96283	0.96097
1675.90902	0.96120
1673.85521	0.96132
1671.80140	0.96134
1669.74759	0.96150
1667.69378	0.96155
1665.63997	0.96129
1663.58616	0.96107
1661.53235	0.96099
1659.47854	0.96108
1657.42473	0.96126
1655.37092	0.96134
1653.31711	0.96161
1651.26330	0.96211
1649.20949	0.96219
1647.15568	0.96198
1645.10187	0.96163
1643.04806	0.96140
1640.99425	0.96134
1638.94044	0.96132
1636.88663	0.96135
1634.83282	0.96171
1632.77901	0.96214
1630.72520	0.96240
1628.67139	0.96263
1626.61758	0.96292
1624.56377	0.96326
1622.50996	0.96355
1620.45614	0.96372
1618.40233	0.96399
1616.34852	0.96454
1614.29471	0.96507
1612.24090	0.96537
1610.18709	0.96554
1608.13328	0.96566
1606.07947	0.96587
1604.02566	0.96624
1601.97185	0.96655
1599.91804	0.96658
1597.86423	0.96666
1595.81042	0.96705
1593.75661	0.96731
1591.70280	0.96713
1589.64899	0.96683
1587.59518	0.96670
1585.54137	0.96660
1583.48756	0.96633
1581.43375	0.96598
1579.37994	0.96574
1577.32613	0.96564
1575.27232	0.96532
1573.21851	0.96482
1571.16470	0.96433
1569.11089	0.96384
1567.05708	0.96344
1565.00327	0.96298
1562.94946	0.96237
1560.89565	0.96185
1558.84184	0.96207
1556.78803	0.96254
1554.73422	0.96226
1552.68041	0.96157
1550.62660	0.96104
1548.57279	0.96091
1546.51898	0.96089
1544.46517	0.96099
1542.41136	0.96137
1540.35755	0.96159
1538.30374	0.96115
1536.24993	0.96073
1534.19612	0.96067
1532.14231	0.96087
1530.08850	0.96094
1528.03469	0.96090
1525.98088	0.96082
1523.92707	0.96075
1521.87326	0.96073
1519.81945	0.96072
1517.76564	0.96075
1515.71183	0.96089
1513.65802	0.96093
1511.60421	0.96077
1509.55040	0.96046
1507.49659	0.96000
1505.44278	0.95990
1503.38897	0.96000
1501.33516	0.96005
1499.28135	0.96010
1497.22754	0.96007
1495.17373	0.95989
1493.11992	0.95984
1491.06611	0.96009
1489.01230	0.96035
1486.95849	0.96010
1484.90468	0.95964
1482.85087	0.95888
1480.79706	0.95670
1478.74325	0.95016
1476.68944	0.93028
1474.63563	0.88851
1472.58182	0.84629
1470.52801	0.84486
1468.47420	0.86596
1466.42039	0.87834
1464.36658	0.87090
1462.31277	0.86147
1460.25896	0.87046
1458.20515	0.89494
1456.15134	0.91783
1454.09753	0.92705
1452.04372	0.93122
1449.98991	0.93433
1447.93610	0.93672
1445.88229	0.93836
1443.82848	0.93935
1441.77467	0.94000
1439.72086	0.94058
1437.66705	0.94146
1435.61324	0.94263
1433.55943	0.94348
1431.50562	0.94447
1429.45181	0.94576
1427.39800	0.94672
1425.34419	0.94742
1423.29038	0.94813
1421.23657	0.94857
1419.18276	0.94890
1417.12895	0.94929
1415.07514	0.94961
1413.02133	0.94988
1410.96752	0.95006
1408.91371	0.95022
1406.85990	0.95037
1404.80609	0.95054
1402.75228	0.95075
1400.69847	0.95091
1398.64466	0.95108
1396.59085	0.95150
1394.53704	0.95194
1392.48323	0.95201
1390.42942	0.95187
1388.37561	0.95171
1386.32180	0.95157
1384.26799	0.95143
1382.21418	0.95119
1380.16037	0.95081
1378.10656	0.95034
1376.05275	0.94992
1373.99894	0.94961
1371.94513	0.94932
1369.89132	0.94911
1367.83751	0.94908
1365.78370	0.94925
1363.72989	0.94964
1361.67608	0.95017
1359.62227	0.95049
1357.56846	0.95040
1355.51465	0.95015
1353.46084	0.95007
1351.40703	0.95023
1349.35322	0.95044
1347.29941	0.95056
1345.24560	0.95065
1343.19179	0.95077
1341.13798	0.95085
1339.08417	0.95095
1337.03036	0.95116
1334.97655	0.95138
1332.92274	0.95157
1330.86893	0.95167
1328.81512	0.95162
1326.76130	0.95143
1324.70749	0.95134
1322.65368	0.95142
1320.59987	0.95140
1318.54606	0.95117
1316.49225	0.95090
1314.43844	0.95059
1312.38463	0.95036
1310.33082	0.95024
1308.27701	0.94990
1306.22320	0.94942
1304.16939	0.94920
1302.11558	0.94911
1300.06177	0.94893
1298.00796	0.94876
1295.95415	0.94871
1293.90034	0.94875
1291.84653	0.94872
1289.79272	0.94860
1287.73891	0.94856
1285.68510	0.94887
1283.63129	0.94942
1281.57748	0.94978
1279.52367	0.94989
1277.46986	0.95010
1275.41605	0.95054
1273.36224	0.95092
1271.30843	0.95113
1269.25462	0.95133
1267.20081	0.95142
1265.14700	0.95123
1263.09319	0.95066
1261.03938	0.94986
1258.98557	0.94933
1256.93176	0.94927
1254.87795	0.94929
1252.82414	0.94913
1250.77033	0.94874
1248.71652	0.94832
1246.66271	0.94809
1244.60890	0.94788
1242.55509	0.94760
1240.50128	0.94731
1238.44747	0.94710
1236.39366	0.94702
1234.33985	0.94695
1232.28604	0.94673
1230.23223	0.94637
1228.17842	0.94605
1226.12461	0.94580
1224.07080	0.94566
1222.01699	0.94562
1219.96318	0.94545
1217.90937	0.94516
1215.85556	0.94488
1213.80175	0.94461
1211.74794	0.94449
1209.69413	0.94454
1207.64032	0.94451
1205.58651	0.94446
1203.53270	0.94437
1201.47889	0.94397
1199.42508	0.94348
1197.37127	0.94325
1195.31746	0.94319
1193.26365	0.94304
1191.20984	0.94284
1189.15603	0.94264
1187.10222	0.94230
1185.04841	0.94197
1182.99460	0.94168
1180.94079	0.94136
1178.88698	0.94109
1176.83317	0.94089
1174.77936	0.94064
1172.72555	0.94026
1170.67174	0.93979
1168.61793	0.93949
1166.56412	0.93958
1164.51031	0.93985
1162.45650	0.93973
1160.40269	0.93928
1158.34888	0.93919
1156.29507	0.93954
1154.24126	0.93963
1152.18745	0.93927
1150.13364	0.93903
1148.07983	0.93908
1146.02602	0.93900
1143.97221	0.93867
1141.91840	0.93835
1139.86459	0.93827
1137.81078	0.93830
1135.75697	0.93819
1133.70316	0.93777
1131.64935	0.93713
1129.59554	0.93659
1127.54173	0.93637
1125.48792	0.93618
1123.43411	0.93570
1121.38030	0.93500
1119.32649	0.93412
1117.27268	0.93322
1115.21887	0.93244
1113.16506	0.93164
1111.11125	0.93064
1109.05744	0.92956
1107.00363	0.92847
1104.94982	0.92754
1102.89601	0.92697
1100.84220	0.92645
1098.78839	0.92572
1096.73458	0.92490
1094.68077	0.92398
1092.62696	0.92294
1090.57315	0.92182
1088.51934	0.92087
1086.46553	0.92037
1084.41172	0.92004
1082.35791	0.91951
1080.30410	0.91881
1078.25029	0.91801
1076.19648	0.91729
1074.14267	0.91667
1072.08886	0.91603
1070.03505	0.91528
1067.98124	0.91436
1065.92743	0.91345
1063.87362	0.91279
1061.81981	0.91243
1059.76600	0.91185
1057.71219	0.91065
1055.65838	0.90913
1053.60457	0.90762
1051.55076	0.90630
1049.49695	0.90513
1047.44314	0.90400
1045.38933	0.90307
1043.33552	0.90220
1041.28171	0.90124
1039.22790	0.90055
1037.17409	0.90018
1035.12028	0.90008
1033.06647	0.90023
1031.01265	0.90035
1028.95884	0.90054
1026.90503	0.90135
1024.85122	0.90290
1022.79741	0.90480
1020.74360	0.90661
1018.68979	0.90768
1016.63598	0.90775
1014.58217	0.90718
1012.52836	0.90618
1010.47455	0.90506
1008.42074	0.90437
1006.36693	0.90432
1004.31312	0.90451
1002.25931	0.90491
1000.20550	0.90595
998.15169	0.90745
996.09788	0.90877
994.04407	0.90981
991.99026	0.91096
989.93645	0.91229
987.88264	0.91376
985.82883	0.91550
983.77502	0.91740
981.72121	0.91911
979.66740	0.92038
977.61359	0.92133
975.55978	0.92221
973.50597	0.92322
971.45216	0.92434
969.39835	0.92514
967.34454	0.92572
965.29073	0.92650
963.23692	0.92720
961.18311	0.92760
959.12930	0.92787
957.07549	0.92807
955.02168	0.92816
952.96787	0.92829
950.91406	0.92854
948.86025	0.92869
946.80644	0.92870
944.75263	0.92872
942.69882	0.92877
940.64501	0.92876
938.59120	0.92853
936.53739	0.92824
934.48358	0.92820
932.42977	0.92811
930.37596	0.92786
928.32215	0.92772
926.26834	0.92751
924.21453	0.92707
922.16072	0.92657
920.10691	0.92604
918.05310	0.92513
915.99929	0.92358
913.94548	0.92182
911.89167	0.92040
909.83786	0.91936
907.78405	0.91904
905.73024	0.91999
903.67643	0.92174
901.62262	0.92354
899.56881	0.92502
897.51500	0.92607
895.46119	0.92679
893.40738	0.92731
891.35357	0.92777
889.29976	0.92832
887.24595	0.92872
885.19214	0.92890
883.13833	0.92915
881.08452	0.92915
879.03071	0.92890
876.97690	0.92883
874.92309	0.92896
872.86928	0.92926
870.81547	0.92972
868.76166	0.93008
866.70785	0.93024
864.65404	0.93053
862.60023	0.93091
860.54642	0.93113
858.49261	0.93153
856.43880	0.93200
854.38499	0.93221
852.33118	0.93237
850.27737	0.93234
848.22356	0.93204
846.16975	0.93182
844.11594	0.93180
842.06213	0.93198
840.00832	0.93224
837.95451	0.93210
835.90070	0.93168
833.84689	0.93148
831.79308	0.93166
829.73927	0.93217
827.68546	0.93250
825.63165	0.93250
823.57784	0.93263
821.52403	0.93265
819.47022	0.93228
817.41641	0.93184
815.36260	0.93152
813.30879	0.93118
811.25498	0.93107
809.20117	0.93128
807.14736	0.93153
805.09355	0.93146
803.03974	0.93103
800.98593	0.93076
798.93212	0.93070
796.87831	0.93054
794.82450	0.93019
792.77069	0.92968
790.71688	0.92955
788.66307	0.93009
786.60926	0.93059
784.55545	0.93035
782.50164	0.92970
780.44783	0.92924
778.39402	0.92894
776.34021	0.92894
774.28640	0.92932
772.23259	0.92967
770.17878	0.93003
768.12497	0.93047
766.07116	0.93058
764.01735	0.92989
761.96354	0.92897
759.90973	0.92878
757.85592	0.92922
755.80211	0.92980
753.74830	0.93041
751.69449	0.93081
749.64068	0.93085
747.58687	0.93050
745.53306	0.93017
743.47925	0.93039
741.42544	0.93054
739.37163	0.93008
737.31781	0.92819
735.26400	0.91937
733.21019	0.89619
731.15638	0.86835
729.10257	0.86071
727.04876	0.87391
724.99495	0.88356
722.94114	0.87247
720.88733	0.83894
718.83352	0.80328
716.77971	0.79310
714.72590	0.81138
712.67209	0.84122
710.61828	0.86567
708.56447	0.87996
706.51066	0.88771
704.45685	0.89262
702.40304	0.89603
700.34923	0.89849
698.29542	0.90050
696.24161	0.90162
694.18780	0.90240
692.13399	0.90374
690.08018	0.90463
688.02637	0.90463
685.97256	0.90460
683.91875	0.90468
681.86494	0.90492
679.81113	0.90543
677.75732	0.90574
675.70351	0.90584
673.64970	0.90648
671.59589	0.90752
669.54208	0.90788
667.48827	0.90750
665.43446	0.90769
663.38065	0.90806
661.32684	0.90825
659.27303	0.90828
657.21922	0.90781
655.16541	0.90685
653.11160	0.90616
651.05779	0.90646
649.00398	0.90694
646.95017	0.90702
644.89636	0.90715
642.84255	0.90683
640.78874	0.90608
638.73493	0.90535
636.68112	0.90481
634.62731	0.90497
632.57350	0.90541
630.51969	0.90546
628.46588	0.90522
626.41207	0.90499
624.35826	0.90516
622.30445	0.90528
620.25064	0.90473
618.19683	0.90418
616.14302	0.90374
614.08921	0.90313
612.03540	0.90306
609.98159	0.90309
607.92778	0.90236
605.87397	0.90170
603.82016	0.90178
601.76635	0.90191
599.71254	0.90121
597.65873	0.89958
595.60492	0.89791
593.55111	0.89706
591.49730	0.89631
589.44349	0.89511
587.38968	0.89425
585.33587	0.89399
583.28206	0.89381
581.22825	0.89325
579.17444	0.89228
577.12063	0.89120
575.06682	0.88967
573.01301	0.88773
570.95920	0.88629
568.90539	0.88520
566.85158	0.88440
564.79777	0.88419
562.74396	0.88384
560.69015	0.88343
558.63634	0.88339
556.58253	0.88347
554.52872	0.88306
552.47491	0.88138
550.42110	0.87915
548.36729	0.87758
546.31348	0.87679
544.25967	0.87618
542.20586	0.87464
540.15205	0.87315
538.09824	0.87343
536.04443	0.87417
533.99062	0.87346
531.93681	0.87133
529.88300	0.86992
527.82919	0.87063
525.77538	0.87223
523.72157	0.87302
521.66776	0.87329
519.61395	0.87459
517.56014	0.87618
515.50633	0.87600
513.45252	0.87560
511.39871	0.87676
509.34490	0.87894
507.29109	0.88081
505.23728	0.88038
503.18347	0.87831
501.12966	0.87765
499.07585	0.87816
497.02204	0.87783
494.96823	0.87772
492.91442	0.87850
490.86061	0.87781
488.80680	0.87528
486.75299	0.87275
484.69918	0.87096
482.64537	0.87020
480.59156	0.86940
478.53775	0.86654
476.48394	0.86289
474.43013	0.86041
472.37632	0.85902
470.32251	0.85904
468.26870	0.85905
466.21489	0.85756
464.16108	0.85559
462.10727	0.85428
460.05346	0.85443
457.99965	0.85780
455.94584	0.86358
453.89203	0.86692
451.83822	0.86711
449.78441	0.86665
447.73060	0.86684
445.67679	0.86762
443.62298	0.86810
441.56916	0.86758
439.51535	0.86615
437.46154	0.86441
435.40773	0.86277
433.35392	0.86081
431.30011	0.85910
429.24630	0.85986
427.19249	0.86334
425.13868	0.86646
423.08487	0.86799
421.03106	0.86977
418.97725	0.86952
416.92344	0.86743
414.86963	0.86884
412.81582	0.87036
410.76201	0.87041
408.70820	0.87274
406.65439	0.87681
404.60058	0.87885
402.54677	0.87628
400.49296	0.87115
398.43915	0.86949
