3996.70104	0.95454
3994.64724	0.95480
3992.59344	0.95483
3990.53964	0.95515
3988.48583	0.95543
3986.43203	0.95525
3984.37823	0.95511
3982.32442	0.95504
3980.27062	0.95464
3978.21682	0.95447
3976.16301	0.95484
3974.10921	0.95532
3972.05541	0.95534
3970.00160	0.95488
3967.94780	0.95476
3965.89400	0.95500
3963.84019	0.95516
3961.78639	0.95513
3959.73259	0.95485
3957.67878	0.95485
3955.62498	0.95516
3953.57118	0.95519
3951.51737	0.95516
3949.46357	0.95539
3947.40977	0.95573
3945.35596	0.95587
3943.30216	0.95573
3941.24836	0.95548
3939.19455	0.95511
3937.14075	0.95469
3935.08695	0.95464
3933.03315	0.95514
3930.97934	0.95546
3928.92554	0.95522
3926.87174	0.95507
3924.81793	0.95519
3922.76413	0.95530
3920.71033	0.95502
3918.65652	0.95471
3916.60272	0.95514
3914.54892	0.95577
3912.49511	0.95598
3910.44131	0.95570
3908.38751	0.95545
3906.33370	0.95601
3904.27990	0.95712
3902.22610	0.95777
3900.17229	0.95725
3898.11849	0.95601
3896.06469	0.95504
3894.01088	0.95448
3891.95708	0.95440
3889.90328	0.95471
3887.84947	0.95475
3885.79567	0.95465
3883.74187	0.95484
3881.68807	0.95536
3879.63426	0.95628
3877.58046	0.95683
3875.52666	0.95691
3873.47285	0.95721
3871.41905	0.95744
3869.36525	0.95679
3867.31144	0.95586
3865.25764	0.95528
3863.20384	0.95472
3861.15003	0.95479
3859.09623	0.95520
3857.04243	0.95535
3854.98862	0.95589
3852.93482	0.95667
3850.88102	0.95649
3848.82721	0.95637
3846.77341	0.95639
3844.71961	0.95584
3842.66580	0.95508
3840.61200	0.95499
3838.55820	0.95568
3836.50439	0.95667
3834.45059	0.95739
3832.39679	0.95755
3830.34298	0.95706
3828.28918	0.95649
3826.23538	0.95633
3824.18158	0.95667
3822.12777	0.95719
3820.07397	0.95724
3818.02017	0.95673
3815.96636	0.95629
3813.91256	0.95619
3811.85876	0.95615
3809.80495	0.95623
3807.75115	0.95667
3805.69735	0.95685
3803.64354	0.95642
3801.58974	0.95638
3799.53594	0.95702
3797.48213	0.95724
3795.42833	0.95701
3793.37453	0.95686
3791.32072	0.95645
3789.26692	0.95592
3787.21312	0.95619
3785.15931	0.95730
3783.10551	0.95797
3781.05171	0.95769
3778.99790	0.95741
3776.94410	0.95736
3774.89030	0.95715
3772.83650	0.95694
3770.78269	0.95673
3768.72889	0.95635
3766.67509	0.95604
3764.62128	0.95614
3762.56748	0.95639
3760.51368	0.95664
3758.45987	0.95709
3756.40607	0.95783
3754.35227	0.95875
3752.29846	0.95937
3750.24466	0.95937
3748.19086	0.95955
3746.13705	0.96000
3744.08325	0.95990
3742.02945	0.95919
3739.97564	0.95872
3737.92184	0.95869
3735.86804	0.95864
3733.81423	0.95775
3731.76043	0.95679
3729.70663	0.95645
3727.65282	0.95655
3725.59902	0.95724
3723.54522	0.95773
3721.49141	0.95731
3719.43761	0.95633
3717.38381	0.95567
3715.33001	0.95610
3713.27620	0.95627
3711.22240	0.95438
3709.16860	0.95204
3707.11479	0.95078
3705.06099	0.94970
3703.00719	0.94794
3700.95338	0.94568
3698.89958	0.94413
3696.84578	0.94350
3694.79197	0.94345
3692.73817	0.94377
3690.68437	0.94437
3688.63056	0.94505
3686.57676	0.94536
3684.52296	0.94582
3682.46915	0.94642
3680.41535	0.94649
3678.36155	0.94624
3676.30774	0.94613
3674.25394	0.94568
3672.20014	0.94442
3670.14633	0.94292
3668.09253	0.94256
3666.03873	0.94285
3663.98492	0.94239
3661.93112	0.94153
3659.87732	0.94120
3657.82352	0.94102
3655.76971	0.94042
3653.71591	0.93993
3651.66211	0.93964
3649.60830	0.93922
3647.55450	0.93865
3645.50070	0.93777
3643.44689	0.93680
3641.39309	0.93614
3639.33929	0.93589
3637.28548	0.93573
3635.23168	0.93522
3633.17788	0.93441
3631.12407	0.93363
3629.07027	0.93270
3627.01647	0.93152
3624.96266	0.93045
3622.90886	0.92940
3620.85506	0.92848
3618.80125	0.92791
3616.74745	0.92823
3614.69365	0.92949
3612.63984	0.93115
3610.58604	0.93265
3608.53224	0.93370
3606.47844	0.93394
3604.42463	0.93347
3602.37083	0.93300
3600.31703	0.93295
3598.26322	0.93290
3596.20942	0.93278
3594.15562	0.93311
3592.10181	0.93354
3590.04801	0.93366
3587.99421	0.93341
3585.94040	0.93295
3583.88660	0.93297
3581.83280	0.93306
3579.77899	0.93286
3577.72519	0.93282
3575.67139	0.93283
3573.61758	0.93294
3571.56378	0.93334
3569.50998	0.93368
3567.45617	0.93349
3565.40237	0.93266
3563.34857	0.93177
3561.29476	0.93091
3559.24096	0.93034
3557.18716	0.93055
3555.13335	0.93135
3553.07955	0.93187
3551.02575	0.93164
3548.97195	0.93154
3546.91814	0.93204
3544.86434	0.93240
3542.81054	0.93199
3540.75673	0.93126
3538.70293	0.93094
3536.64913	0.93129
3534.59532	0.93154
3532.54152	0.93116
3530.48772	0.93052
3528.43391	0.93025
3526.38011	0.93047
3524.32631	0.93090
3522.27250	0.93157
3520.21870	0.93185
3518.16490	0.93153
3516.11109	0.93133
3514.05729	0.93118
3512.00349	0.93082
3509.94968	0.93038
3507.89588	0.93029
3505.84208	0.93083
3503.78827	0.93153
3501.73447	0.93163
3499.68067	0.93122
3497.62687	0.93079
3495.57306	0.93050
3493.51926	0.93060
3491.46546	0.93065
3489.41165	0.93042
3487.35785	0.93033
3485.30405	0.93026
3483.25024	0.92995
3481.19644	0.92944
3479.14264	0.92906
3477.08883	0.92901
3475.03503	0.92897
3472.98123	0.92897
3470.92742	0.92929
3468.87362	0.92991
3466.81982	0.93044
3464.76601	0.93027
3462.71221	0.92941
3460.65841	0.92862
3458.60460	0.92849
3456.55080	0.92861
3454.49700	0.92836
3452.44319	0.92801
3450.38939	0.92789
3448.33559	0.92779
3446.28178	0.92748
3444.22798	0.92707
3442.17418	0.92705
3440.12038	0.92725
3438.06657	0.92709
3436.01277	0.92660
3433.95897	0.92626
3431.90516	0.92667
3429.85136	0.92748
3427.79756	0.92752
3425.74375	0.92714
3423.68995	0.92733
3421.63615	0.92778
3419.58234	0.92775
3417.52854	0.92702
3415.47474	0.92609
3413.42093	0.92602
3411.36713	0.92669
3409.31333	0.92707
3407.25952	0.92686
3405.20572	0.92634
3403.15192	0.92586
3401.09811	0.92565
3399.04431	0.92563
3396.99051	0.92577
3394.93670	0.92629
3392.88290	0.92716
3390.82910	0.92777
3388.77529	0.92774
3386.72149	0.92748
3384.66769	0.92749
3382.61389	0.92752
3380.56008	0.92723
3378.50628	0.92679
3376.45248	0.92652
3374.39867	0.92653
3372.34487	0.92697
3370.29107	0.92771
3368.23726	0.92809
3366.18346	0.92793
3364.12966	0.92770
3362.07585	0.92761
3360.02205	0.92779
3357.96825	0.92810
3355.91444	0.92821
3353.86064	0.92812
3351.80684	0.92770
3349.75303	0.92724
3347.69923	0.92763
3345.64543	0.92833
3343.59162	0.92834
3341.53782	0.92837
3339.48402	0.92872
3337.43021	0.92870
3335.37641	0.92851
3333.32261	0.92879
3331.26881	0.92945
3329.21500	0.92961
3327.16120	0.92914
3325.10740	0.92904
3323.05359	0.92943
3320.99979	0.92957
3318.94599	0.92946
3316.89218	0.92950
3314.83838	0.92973
3312.78458	0.93011
3310.73077	0.93061
3308.67697	0.93095
3306.62317	0.93088
3304.56936	0.93070
3302.51556	0.93090
3300.46176	0.93118
3298.40795	0.93091
3296.35415	0.93067
3294.30035	0.93101
3292.24654	0.93128
3290.19274	0.93115
3288.13894	0.93152
3286.08513	0.93247
3284.03133	0.93286
3281.97753	0.93278
3279.92372	0.93280
3277.86992	0.93258
3275.81612	0.93222
3273.76232	0.93221
3271.70851	0.93243
3269.65471	0.93284
3267.60091	0.93312
3265.54710	0.93287
3263.49330	0.93267
3261.43950	0.93305
3259.38569	0.93360
3257.33189	0.93396
3255.27809	0.93440
3253.22428	0.93474
3251.17048	0.93455
3249.11668	0.93459
3247.06287	0.93508
3245.00907	0.93493
3242.95527	0.93441
3240.90146	0.93440
3238.84766	0.93478
3236.79386	0.93520
3234.74005	0.93567
3232.68625	0.93615
3230.63245	0.93662
3228.57864	0.93699
3226.52484	0.93698
3224.47104	0.93709
3222.41724	0.93744
3220.36343	0.93722
3218.30963	0.93700
3216.25583	0.93751
3214.20202	0.93772
3212.14822	0.93731
3210.09442	0.93730
3208.04061	0.93782
3205.98681	0.93849
3203.93301	0.93882
3201.87920	0.93851
3199.82540	0.93811
3197.77160	0.93796
3195.71779	0.93812
3193.66399	0.93846
3191.61019	0.93899
3189.55638	0.93968
3187.50258	0.94014
3185.44878	0.94024
3183.39497	0.94020
3181.34117	0.94023
3179.28737	0.94053
3177.23356	0.94096
3175.17976	0.94121
3173.12596	0.94135
3171.07215	0.94132
3169.01835	0.94097
3166.96455	0.94049
3164.91075	0.94031
3162.85694	0.94063
3160.80314	0.94113
3158.74934	0.94149
3156.69553	0.94180
3154.64173	0.94225
3152.58793	0.94276
3150.53412	0.94298
3148.48032	0.94293
3146.42652	0.94300
3144.37271	0.94317
3142.31891	0.94341
3140.26511	0.94383
3138.21130	0.94426
3136.15750	0.94470
3134.10370	0.94518
3132.04989	0.94536
3129.99609	0.94512
3127.94229	0.94478
3125.88848	0.94460
3123.83468	0.94475
3121.78088	0.94522
3119.72707	0.94556
3117.67327	0.94541
3115.61947	0.94516
3113.56566	0.94513
3111.51186	0.94498
3109.45806	0.94442
3107.40426	0.94383
3105.35045	0.94343
3103.29665	0.94319
3101.24285	0.94326
3099.18904	0.94367
3097.13524	0.94435
3095.08144	0.94496
3093.02763	0.94483
3090.97383	0.94386
3088.92003	0.94234
3086.86622	0.94033
3084.81242	0.93807
3082.75862	0.93640
3080.70481	0.93624
3078.65101	0.93749
3076.59721	0.93885
3074.54340	0.93956
3072.48960	0.93973
3070.43580	0.93955
3068.38199	0.93901
3066.32819	0.93774
3064.27439	0.93570
3062.22058	0.93364
3060.16678	0.93231
3058.11298	0.93222
3056.05918	0.93354
3054.00537	0.93556
3051.95157	0.93764
3049.89777	0.93953
3047.84396	0.94082
3045.79016	0.94147
3043.73636	0.94178
3041.68255	0.94151
3039.62875	0.94051
3037.57495	0.93909
3035.52114	0.93699
3033.46734	0.93349
3031.41354	0.92852
3029.35973	0.92273
3027.30593	0.91766
3025.25213	0.91527
3023.19832	0.91674
3021.14452	0.92170
3019.09072	0.92789
3017.03691	0.93301
3014.98311	0.93695
3012.92931	0.94002
3010.87550	0.94165
3008.82170	0.94212
3006.76790	0.94241
3004.71409	0.94272
3002.66029	0.94291
3000.60649	0.94308
2998.55269	0.94344
2996.49888	0.94431
2994.44508	0.94570
2992.39128	0.94708
2990.33747	0.94790
2988.28367	0.94806
2986.22987	0.94815
2984.17606	0.94842
2982.12226	0.94852
2980.06846	0.94856
2978.01465	0.94884
2975.96085	0.94913
2973.90705	0.94901
2971.85324	0.94836
2969.79944	0.94757
2967.74564	0.94712
2965.69183	0.94682
2963.63803	0.94620
2961.58423	0.94546
2959.53042	0.94510
2957.47662	0.94496
2955.42282	0.94447
2953.36901	0.94353
2951.31521	0.94256
2949.26141	0.94148
2947.20761	0.93984
2945.15380	0.93780
2943.10000	0.93564
2941.04620	0.93329
2938.99239	0.93067
2936.93859	0.92773
2934.88479	0.92452
2932.83098	0.92091
2930.77718	0.91691
2928.72338	0.91317
2926.66957	0.91027
2924.61577	0.90813
2922.56197	0.90674
2920.50816	0.90646
2918.45436	0.90707
2916.40056	0.90819
2914.34675	0.90965
2912.29295	0.91157
2910.23915	0.91422
2908.18534	0.91706
2906.13154	0.91951
2904.07774	0.92186
2902.02393	0.92431
2899.97013	0.92678
2897.91633	0.92920
2895.86252	0.93153
2893.80872	0.93364
2891.75492	0.93522
2889.70112	0.93624
2887.64731	0.93696
2885.59351	0.93753
2883.53971	0.93824
2881.48590	0.93915
2879.43210	0.93996
2877.37830	0.94053
2875.32449	0.94109
2873.27069	0.94179
2871.21689	0.94248
2869.16308	0.94287
2867.10928	0.94269
2865.05548	0.94223
2863.00167	0.94174
2860.94787	0.94095
2858.89407	0.93963
2856.84026	0.93782
2854.78646	0.93582
2852.73266	0.93426
2850.67885	0.93367
2848.62505	0.93384
2846.57125	0.93439
2844.51744	0.93556
2842.46364	0.93765
2840.40984	0.94039
2838.35603	0.94319
2836.30223	0.94554
2834.24843	0.94721
2832.19463	0.94821
2830.14082	0.94879
2828.08702	0.94922
2826.03322	0.94971
2823.97941	0.95004
2821.92561	0.95022
2819.87181	0.95072
2817.81800	0.95122
2815.76420	0.95136
2813.71040	0.95159
2811.65659	0.95202
2809.60279	0.95212
2807.54899	0.95207
2805.49518	0.95234
2803.44138	0.95257
2801.38758	0.95253
2799.33377	0.95251
2797.27997	0.95248
2795.22617	0.95240
2793.17236	0.95249
2791.11856	0.95282
2789.06476	0.95304
2787.01095	0.95315
2784.95715	0.95330
2782.90335	0.95338
2780.84955	0.95347
2778.79574	0.95367
2776.74194	0.95379
2774.68814	0.95377
2772.63433	0.95378
2770.58053	0.95391
2768.52673	0.95421
2766.47292	0.95447
2764.41912	0.95431
2762.36532	0.95409
2760.31151	0.95436
2758.25771	0.95482
2756.20391	0.95500
2754.15010	0.95517
2752.09630	0.95538
2750.04250	0.95529
2747.98869	0.95533
2745.93489	0.95570
2743.88109	0.95556
2741.82728	0.95499
2739.77348	0.95471
2737.71968	0.95491
2735.66587	0.95533
2733.61207	0.95554
2731.55827	0.95538
2729.50446	0.95524
2727.45066	0.95553
2725.39686	0.95598
2723.34306	0.95608
2721.28925	0.95589
2719.23545	0.95570
2717.18165	0.95571
2715.12784	0.95555
2713.07404	0.95505
2711.02024	0.95496
2708.96643	0.95556
2706.91263	0.95602
2704.85883	0.95589
2702.80502	0.95565
2700.75122	0.95553
2698.69742	0.95542
2696.64361	0.95551
2694.58981	0.95601
2692.53601	0.95667
2690.48220	0.95700
2688.42840	0.95673
2686.37460	0.95630
2684.32079	0.95628
2682.26699	0.95657
2680.21319	0.95669
2678.15938	0.95658
2676.10558	0.95633
2674.05178	0.95610
2671.99797	0.95628
2669.94417	0.95659
2667.89037	0.95639
2665.83657	0.95608
2663.78276	0.95606
2661.72896	0.95605
2659.67516	0.95605
2657.62135	0.95615
2655.56755	0.95621
2653.51375	0.95606
2651.45994	0.95578
2649.40614	0.95575
2647.35234	0.95601
2645.29853	0.95625
2643.24473	0.95644
2641.19093	0.95657
2639.13712	0.95658
2637.08332	0.95667
2635.02952	0.95675
2632.97571	0.95670
2630.92191	0.95679
2628.86811	0.95685
2626.81430	0.95672
2624.76050	0.95680
2622.70670	0.95712
2620.65289	0.95741
2618.59909	0.95751
2616.54529	0.95764
2614.49149	0.95803
2612.43768	0.95809
2610.38388	0.95766
2608.33008	0.95735
2606.27627	0.95748
2604.22247	0.95799
2602.16867	0.95857
2600.11486	0.95897
2598.06106	0.95906
2596.00726	0.95862
2593.95345	0.95795
2591.89965	0.95787
2589.84585	0.95844
2587.79204	0.95872
2585.73824	0.95866
2583.68444	0.95920
2581.63063	0.95969
2579.57683	0.95913
2577.52303	0.95860
2575.46922	0.95889
2573.41542	0.95926
2571.36162	0.95929
2569.30781	0.95939
2567.25401	0.95962
2565.20021	0.95960
2563.14640	0.95952
2561.09260	0.95932
2559.03880	0.95884
2556.98500	0.95854
2554.93119	0.95849
2552.87739	0.95873
2550.82359	0.95965
2548.76978	0.96065
2546.71598	0.96062
2544.66218	0.95982
2542.60837	0.95933
2540.55457	0.95931
2538.50077	0.95947
2536.44696	0.95985
2534.39316	0.96036
2532.33936	0.96054
2530.28555	0.95978
2528.23175	0.95857
2526.17795	0.95816
2524.12414	0.95888
2522.07034	0.96021
2520.01654	0.96110
2517.96273	0.96092
2515.90893	0.96029
2513.85513	0.96005
2511.80132	0.96000
2509.74752	0.95975
2507.69372	0.95972
2505.63992	0.95999
2503.58611	0.96021
2501.53231	0.96041
2499.47851	0.96041
2497.42470	0.96005
2495.37090	0.95984
2493.31710	0.96016
2491.26329	0.96058
2489.20949	0.96087
2487.15569	0.96115
2485.10188	0.96119
2483.04808	0.96090
2480.99428	0.96046
2478.94047	0.96000
2476.88667	0.96003
2474.83287	0.96059
2472.77906	0.96095
2470.72526	0.96102
2468.67146	0.96102
2466.61765	0.96088
2464.56385	0.96086
2462.51005	0.96123
2460.45624	0.96192
2458.40244	0.96274
2456.34864	0.96304
2454.29483	0.96241
2452.24103	0.96171
2450.18723	0.96176
2448.13343	0.96205
2446.07962	0.96204
2444.02582	0.96168
2441.97202	0.96131
2439.91821	0.96124
2437.86441	0.96130
2435.81061	0.96138
2433.75680	0.96162
2431.70300	0.96187
2429.64920	0.96194
2427.59539	0.96196
2425.54159	0.96195
2423.48779	0.96184
2421.43398	0.96190
2419.38018	0.96228
2417.32638	0.96224
2415.27257	0.96183
2413.21877	0.96187
2411.16497	0.96197
2409.11116	0.96203
2407.05736	0.96220
2405.00356	0.96205
2402.94975	0.96198
2400.89595	0.96222
2398.84215	0.96224
2396.78834	0.96204
2394.73454	0.96208
2392.68074	0.96249
2390.62694	0.96265
2388.57313	0.96241
2386.51933	0.96223
2384.46553	0.96227
2382.41172	0.96258
2380.35792	0.96278
2378.30412	0.96273
2376.25031	0.96280
2374.19651	0.96298
2372.14271	0.96299
2370.08890	0.96259
2368.03510	0.96203
2365.98130	0.96218
2363.92749	0.96289
2361.87369	0.96307
2359.81989	0.96264
2357.76608	0.96161
2355.71228	0.96054
2353.65848	0.96042
2351.60467	0.96081
2349.55087	0.96096
2347.49707	0.96094
2345.44326	0.96109
2343.38946	0.96126
2341.33566	0.96103
2339.28186	0.96039
2337.22805	0.95989
2335.17425	0.95978
2333.12045	0.95968
2331.06664	0.95987
2329.01284	0.96038
2326.95904	0.96061
2324.90523	0.96066
2322.85143	0.96100
2320.79763	0.96155
2318.74382	0.96199
2316.69002	0.96188
2314.63622	0.96144
2312.58241	0.96114
2310.52861	0.96122
2308.47481	0.96190
2306.42100	0.96263
2304.36720	0.96290
2302.31340	0.96219
2300.25959	0.96085
2298.20579	0.96038
2296.15199	0.96058
2294.09818	0.96056
2292.04438	0.96094
2289.99058	0.96179
2287.93677	0.96217
2285.88297	0.96194
2283.82917	0.96184
2281.77537	0.96240
2279.72156	0.96284
2277.66776	0.96282
2275.61396	0.96310
2273.56015	0.96356
2271.50635	0.96349
2269.45255	0.96253
2267.39874	0.96111
2265.34494	0.96098
2263.29114	0.96304
2261.23733	0.96481
2259.18353	0.96436
2257.12973	0.96374
2255.07592	0.96383
2253.02212	0.96288
2250.96832	0.96234
2248.91451	0.96342
2246.86071	0.96418
2244.80691	0.96458
2242.75310	0.96510
2240.69930	0.96521
2238.64550	0.96460
2236.59169	0.96385
2234.53789	0.96412
2232.48409	0.96500
2230.43029	0.96529
2228.37648	0.96534
2226.32268	0.96611
2224.26888	0.96657
2222.21507	0.96557
2220.16127	0.96460
2218.10747	0.96439
2216.05366	0.96437
2213.99986	0.96511
2211.94606	0.96594
2209.89225	0.96599
2207.83845	0.96624
2205.78465	0.96672
2203.73084	0.96679
2201.67704	0.96732
2199.62324	0.96804
2197.56943	0.96682
2195.51563	0.96445
2193.46183	0.96372
2191.40802	0.96514
2189.35422	0.96657
2187.30042	0.96630
2185.24661	0.96547
2183.19281	0.96523
2181.13901	0.96486
2179.08520	0.96405
2177.03140	0.96407
2174.97760	0.96602
2172.92380	0.96847
2170.86999	0.97002
2168.81619	0.96972
2166.76239	0.96635
2164.70858	0.96334
2162.65478	0.96355
2160.60098	0.96556
2158.54717	0.96785
2156.49337	0.96832
2154.43957	0.96803
2152.38576	0.96780
2150.33196	0.96631
2148.27816	0.96485
2146.22435	0.96504
2144.17055	0.96611
2142.11675	0.96703
2140.06294	0.96690
2138.00914	0.96562
2135.95534	0.96509
2133.90153	0.96561
2131.84773	0.96625
2129.79393	0.96695
2127.74012	0.96717
2125.68632	0.96676
2123.63252	0.96631
2121.57871	0.96595
2119.52491	0.96567
2117.47111	0.96594
2115.41731	0.96611
2113.36350	0.96514
2111.30970	0.96467
2109.25590	0.96587
2107.20209	0.96679
2105.14829	0.96616
2103.09449	0.96524
2101.04068	0.96502
2098.98688	0.96506
2096.93308	0.96519
2094.87927	0.96562
2092.82547	0.96685
2090.77167	0.96791
2088.71786	0.96755
2086.66406	0.96712
2084.61026	0.96704
2082.55645	0.96647
2080.50265	0.96577
2078.44885	0.96555
2076.39504	0.96512
2074.34124	0.96440
2072.28744	0.96554
2070.23363	0.96738
2068.17983	0.96679
2066.12603	0.96590
2064.07223	0.96684
2062.01842	0.96757
2059.96462	0.96720
2057.91082	0.96696
2055.85701	0.96754
2053.80321	0.96794
2051.74941	0.96752
2049.69560	0.96736
2047.64180	0.96823
2045.58800	0.96901
2043.53419	0.96764
2041.48039	0.96557
2039.42659	0.96712
2037.37278	0.97090
2035.31898	0.97150
2033.26518	0.96924
2031.21137	0.96870
2029.15757	0.96979
2027.10377	0.96879
2025.04996	0.96635
2022.99616	0.96695
2020.94236	0.97046
2018.88855	0.97223
2016.83475	0.97159
2014.78095	0.97115
2012.72714	0.97073
2010.67334	0.97008
2008.61954	0.97020
2006.56574	0.97095
2004.51193	0.97099
2002.45813	0.96952
2000.40433	0.96888
1998.35052	0.97077
1996.29672	0.97317
1994.24292	0.97376
1992.18911	0.97221
1990.13531	0.97063
1988.08151	0.96984
1986.02770	0.96959
1983.97390	0.97004
1981.92010	0.96864
1979.86629	0.96453
1977.81249	0.96255
1975.75869	0.96516
1973.70488	0.96767
1971.65108	0.96821
1969.59728	0.96929
1967.54347	0.97047
1965.48967	0.96909
1963.43587	0.96584
1961.38206	0.96516
1959.32826	0.96724
1957.27446	0.96723
1955.22066	0.96428
1953.16685	0.96149
1951.11305	0.96142
1949.05925	0.96332
1947.00544	0.96440
1944.95164	0.96406
1942.89784	0.96342
1940.84403	0.96390
1938.79023	0.96542
1936.73643	0.96602
1934.68262	0.96568
1932.62882	0.96561
1930.57502	0.96589
1928.52121	0.96659
1926.46741	0.96754
1924.41361	0.96834
1922.35980	0.96873
1920.30600	0.96807
1918.25220	0.96661
1916.19839	0.96558
1914.14459	0.96521
1912.09079	0.96499
1910.03698	0.96529
1907.98318	0.96626
1905.92938	0.96664
1903.87557	0.96657
1901.82177	0.96638
1899.76797	0.96570
1897.71417	0.96557
1895.66036	0.96594
1893.60656	0.96564
1891.55276	0.96498
1889.49895	0.96437
1887.44515	0.96392
1885.39135	0.96379
1883.33754	0.96380
1881.28374	0.96389
1879.22994	0.96436
1877.17613	0.96491
1875.12233	0.96505
1873.06853	0.96489
1871.01472	0.96507
1868.96092	0.96541
1866.90712	0.96463
1864.85331	0.96337
1862.79951	0.96287
1860.74571	0.96342
1858.69190	0.96485
1856.63810	0.96610
1854.58430	0.96617
1852.53049	0.96564
1850.47669	0.96573
1848.42289	0.96629
1846.36908	0.96641
1844.31528	0.96633
1842.26148	0.96653
1840.20768	0.96648
1838.15387	0.96641
1836.10007	0.96684
1834.04627	0.96713
1831.99246	0.96679
1829.93866	0.96632
1827.88486	0.96609
1825.83105	0.96609
1823.77725	0.96633
1821.72345	0.96638
1819.66964	0.96609
1817.61584	0.96573
1815.56204	0.96531
1813.50823	0.96484
1811.45443	0.96442
1809.40063	0.96397
1807.34682	0.96329
1805.29302	0.96275
1803.23922	0.96281
1801.18541	0.96296
1799.13161	0.96307
1797.07781	0.96353
1795.02400	0.96408
1792.97020	0.96444
1790.91640	0.96460
1788.86260	0.96462
1786.80879	0.96462
1784.75499	0.96483
1782.70119	0.96511
1780.64738	0.96524
1778.59358	0.96517
1776.53978	0.96503
1774.48597	0.96513
1772.43217	0.96544
1770.37837	0.96563
1768.32456	0.96556
1766.27076	0.96530
1764.21696	0.96504
1762.16315	0.96502
1760.10935	0.96526
1758.05555	0.96531
1756.00174	0.96472
1753.94794	0.96366
1751.89414	0.96272
1749.84033	0.96219
1747.78653	0.96180
1745.73273	0.96141
1743.67892	0.96106
1741.62512	0.96084
1739.57132	0.96090
1737.51751	0.96114
1735.46371	0.96155
1733.40991	0.96170
1731.35611	0.96130
1729.30230	0.96121
1727.24850	0.96132
1725.19470	0.96133
1723.14089	0.96147
1721.08709	0.96188
1719.03329	0.96214
1716.97948	0.96188
1714.92568	0.96142
1712.87188	0.96131
1710.81807	0.96136
1708.76427	0.96133
1706.71047	0.96125
1704.65666	0.96101
1702.60286	0.96071
1700.54906	0.96060
1698.49525	0.96041
1696.44145	0.95923
1694.38765	0.95760
1692.33384	0.95673
1690.28004	0.95617
1688.22624	0.95533
1686.17243	0.95423
1684.11863	0.95306
1682.06483	0.95219
1680.01103	0.95116
1677.95722	0.94983
1675.90342	0.94841
1673.84962	0.94698
1671.79581	0.94603
1669.74201	0.94555
1667.68821	0.94477
1665.63440	0.94383
1663.58060	0.94296
1661.52680	0.94228
1659.47299	0.94199
1657.41919	0.94187
1655.36539	0.94179
1653.31158	0.94222
1651.25778	0.94296
1649.20398	0.94344
1647.15017	0.94375
1645.09637	0.94338
1643.04257	0.94315
1640.98876	0.94366
1638.93496	0.94450
1636.88116	0.94527
1634.82735	0.94591
1632.77355	0.94631
1630.71975	0.94659
1628.66594	0.94672
1626.61214	0.94678
1624.55834	0.94705
1622.50454	0.94729
1620.45073	0.94724
1618.39693	0.94731
1616.34313	0.94740
1614.28932	0.94710
1612.23552	0.94643
1610.18172	0.94483
1608.12791	0.94130
1606.07411	0.93561
1604.02031	0.92881
1601.96650	0.92372
1599.91270	0.92354
1597.85890	0.92809
1595.80509	0.93443
1593.75129	0.93972
1591.69749	0.94313
1589.64368	0.94492
1587.58988	0.94474
1585.53608	0.94314
1583.48227	0.94214
1581.42847	0.94323
1579.37467	0.94581
1577.32086	0.94871
1575.26706	0.95093
1573.21326	0.95174
1571.15945	0.95199
1569.10565	0.95230
1567.05185	0.95271
1564.99805	0.95310
1562.94424	0.95322
1560.89044	0.95286
1558.83664	0.95253
1556.78283	0.95283
1554.72903	0.95287
1552.67523	0.95284
1550.62142	0.95254
1548.56762	0.95183
1546.51382	0.95126
1544.46001	0.95063
1542.40621	0.95007
1540.35241	0.95074
1538.29860	0.95149
1536.24480	0.95113
1534.19100	0.95036
1532.13719	0.94976
1530.08339	0.94961
1528.02959	0.94952
1525.97578	0.94948
1523.92198	0.94966
1521.86818	0.94951
1519.81437	0.94897
1517.76057	0.94842
1515.70677	0.94787
1513.65297	0.94768
1511.59916	0.94745
1509.54536	0.94678
1507.49156	0.94527
1505.43775	0.94279
1503.38395	0.94107
1501.33015	0.93877
1499.27634	0.93192
1497.22254	0.91271
1495.16874	0.88427
1493.11493	0.86716
1491.06113	0.87076
1489.00733	0.89172
1486.95352	0.91002
1484.89972	0.91877
1482.84592	0.92323
1480.79211	0.92563
1478.73831	0.92675
1476.68451	0.92748
1474.63070	0.92829
1472.57690	0.92899
1470.52310	0.92943
1468.46929	0.92982
1466.41549	0.93004
1464.36169	0.92973
1462.30788	0.92868
1460.25408	0.92622
1458.20028	0.91688
1456.14648	0.89193
1454.09267	0.86865
1452.03887	0.85917
1449.98507	0.86312
1447.93126	0.87526
1445.87746	0.88683
1443.82366	0.89535
1441.76985	0.90258
1439.71605	0.90839
1437.66225	0.91334
1435.60844	0.91843
1433.55464	0.92237
1431.50084	0.92523
1429.44703	0.92748
1427.39323	0.92907
1425.33943	0.93040
1423.28562	0.93194
1421.23182	0.93355
1419.17802	0.93514
1417.12421	0.93682
1415.07041	0.93832
1413.01661	0.93993
1410.96280	0.94178
1408.90900	0.94321
1406.85520	0.94424
1404.80139	0.94551
1402.74759	0.94680
1400.69379	0.94786
1398.63999	0.94888
1396.58618	0.94981
1394.53238	0.95036
1392.47858	0.95023
1390.42477	0.94969
1388.37097	0.94917
1386.31717	0.94862
1384.26336	0.94792
1382.20956	0.94729
1380.15576	0.94682
1378.10195	0.94636
1376.04815	0.94574
1373.99435	0.94500
1371.94054	0.94470
1369.88674	0.94516
1367.83294	0.94576
1365.77913	0.94606
1363.72533	0.94644
1361.67153	0.94729
1359.61772	0.94823
1357.56392	0.94898
1355.51012	0.94957
1353.45631	0.94988
1351.40251	0.94983
1349.34871	0.94969
1347.29491	0.94988
1345.24110	0.95056
1343.18730	0.95154
1341.13350	0.95241
1339.07969	0.95280
1337.02589	0.95257
1334.97209	0.95206
1332.91828	0.95165
1330.86448	0.95132
1328.81068	0.95109
1326.75687	0.95111
1324.70307	0.95132
1322.64927	0.95169
1320.59546	0.95205
1318.54166	0.95205
1316.48786	0.95173
1314.43405	0.95153
1312.38025	0.95146
1310.32645	0.95145
1308.27264	0.95157
1306.21884	0.95193
1304.16504	0.95240
1302.11123	0.95286
1300.05743	0.95338
1298.00363	0.95379
1295.94982	0.95398
1293.89602	0.95402
1291.84222	0.95392
1289.78842	0.95376
1287.73461	0.95343
1285.68081	0.95303
1283.62701	0.95290
1281.57320	0.95311
1279.51940	0.95334
1277.46560	0.95330
1275.41179	0.95315
1273.35799	0.95303
1271.30419	0.95276
1269.25038	0.95237
1267.19658	0.95218
1265.14278	0.95248
1263.08897	0.95304
1261.03517	0.95310
1258.98137	0.95252
1256.92756	0.95200
1254.87376	0.95177
1252.81996	0.95153
1250.76615	0.95111
1248.71235	0.95056
1246.65855	0.95022
1244.60474	0.94996
1242.55094	0.94949
1240.49714	0.94921
1238.44334	0.94916
1236.38953	0.94883
1234.33573	0.94827
1232.28193	0.94787
1230.22812	0.94765
1228.17432	0.94710
1226.12052	0.94602
1224.06671	0.94487
1222.01291	0.94387
1219.95911	0.94277
1217.90530	0.94139
1215.85150	0.93985
1213.79770	0.93820
1211.74389	0.93618
1209.69009	0.93385
1207.63629	0.93154
1205.58248	0.92915
1203.52868	0.92645
1201.47488	0.92352
1199.42107	0.92059
1197.36727	0.91776
1195.31347	0.91487
1193.25966	0.91168
1191.20586	0.90847
1189.15206	0.90530
1187.09825	0.90174
1185.04445	0.89767
1182.99065	0.89338
1180.93685	0.88963
1178.88304	0.88709
1176.82924	0.88532
1174.77544	0.88343
1172.72163	0.88101
1170.66783	0.87816
1168.61403	0.87531
1166.56022	0.87283
1164.50642	0.87057
1162.45262	0.86860
1160.39881	0.86684
1158.34501	0.86450
1156.29121	0.86147
1154.23740	0.85875
1152.18360	0.85724
1150.12980	0.85676
1148.07599	0.85621
1146.02219	0.85500
1143.96839	0.85344
1141.91458	0.85179
1139.86078	0.84985
1137.80698	0.84752
1135.75317	0.84523
1133.69937	0.84321
1131.64557	0.84089
1129.59176	0.83764
1127.53796	0.83353
1125.48416	0.82879
1123.43036	0.82332
1121.37655	0.81732
1119.32275	0.81116
1117.26895	0.80476
1115.21514	0.79796
1113.16134	0.79099
1111.10754	0.78436
1109.05373	0.77878
1106.99993	0.77441
1104.94613	0.77039
1102.89232	0.76631
1100.83852	0.76257
1098.78472	0.75924
1096.73091	0.75600
1094.67711	0.75272
1092.62331	0.74980
1090.56950	0.74750
1088.51570	0.74533
1086.46190	0.74304
1084.40809	0.74053
1082.35429	0.73760
1080.30049	0.73444
1078.24668	0.73154
1076.19288	0.72861
1074.13908	0.72504
1072.08528	0.72097
1070.03147	0.71649
1067.97767	0.71169
1065.92387	0.70705
1063.87006	0.70267
1061.81626	0.69851
1059.76246	0.69458
1057.70865	0.69019
1055.65485	0.68485
1053.60105	0.67867
1051.54724	0.67163
1049.49344	0.66366
1047.43964	0.65508
1045.38583	0.64604
1043.33203	0.63592
1041.27823	0.62486
1039.22442	0.61410
1037.17062	0.60378
1035.11682	0.59288
1033.06301	0.58153
1031.00921	0.57097
1028.95541	0.56189
1026.90160	0.55504
1024.84780	0.55105
1022.79400	0.54883
1020.74019	0.54675
1018.68639	0.54452
1016.63259	0.54207
1014.57879	0.53921
1012.52498	0.53625
1010.47118	0.53329
1008.41738	0.53028
1006.36357	0.52775
1004.30977	0.52642
1002.25597	0.52661
1000.20216	0.52828
998.14836	0.53120
996.09456	0.53497
994.04075	0.53958
991.98695	0.54484
989.93315	0.55044
987.87934	0.55638
985.82554	0.56281
983.77174	0.57040
981.71793	0.57953
979.66413	0.58969
977.61033	0.60074
975.55652	0.61290
973.50272	0.62585
971.44892	0.63885
969.39511	0.65118
967.34131	0.66241
965.28751	0.67276
963.23371	0.68273
961.17990	0.69241
959.12610	0.70163
957.07230	0.71028
955.01849	0.71810
952.96469	0.72511
950.91089	0.73136
948.85708	0.73653
946.80328	0.74091
944.74948	0.74510
942.69567	0.74928
940.64187	0.75357
938.58807	0.75804
936.53426	0.76255
934.48046	0.76687
932.42666	0.77088
930.37285	0.77456
928.31905	0.77784
926.26525	0.78053
924.21144	0.78214
922.15764	0.78255
920.10384	0.78230
918.05003	0.78147
915.99623	0.77991
913.94243	0.77783
911.88862	0.77580
909.83482	0.77490
907.78102	0.77653
905.72722	0.78156
903.67341	0.78966
901.61961	0.79974
899.56581	0.81050
897.51200	0.82039
895.45820	0.82872
893.40440	0.83567
891.35059	0.84139
889.29679	0.84653
887.24299	0.85093
885.18918	0.85344
883.13538	0.85397
881.08158	0.85346
879.02777	0.85309
876.97397	0.85399
874.92017	0.85697
872.86636	0.86215
870.81256	0.86803
868.75876	0.87230
866.70495	0.87439
864.65115	0.87555
862.59735	0.87726
860.54354	0.88007
858.48974	0.88312
856.43594	0.88575
854.38213	0.88829
852.32833	0.89036
850.27453	0.89119
848.22073	0.89087
846.16692	0.88990
844.11312	0.88870
842.05932	0.88732
840.00551	0.88591
837.95171	0.88510
835.89791	0.88507
833.84410	0.88538
831.79030	0.88568
829.73650	0.88561
827.68269	0.88531
825.62889	0.88557
823.57509	0.88708
821.52128	0.88913
819.46748	0.89006
817.41368	0.89029
815.35987	0.89087
813.30607	0.89065
811.25227	0.88841
809.19846	0.88423
807.14466	0.87833
805.09086	0.87082
803.03705	0.86350
800.98325	0.85926
798.92945	0.85845
796.87565	0.85946
794.82184	0.86140
792.76804	0.86344
790.71424	0.86425
788.66043	0.86320
786.60663	0.86088
784.55283	0.85811
782.49902	0.85442
780.44522	0.84963
778.39142	0.84537
776.33761	0.84208
774.28381	0.83804
772.23001	0.83170
770.17620	0.82263
768.12240	0.81114
766.06860	0.79845
764.01479	0.78582
761.96099	0.77328
759.90719	0.76118
757.85338	0.75131
755.79958	0.74536
753.74578	0.74339
751.69197	0.74362
749.63817	0.74483
747.58437	0.74891
745.53056	0.75781
743.47676	0.77086
741.42296	0.78649
739.36916	0.80249
737.31535	0.81679
735.26155	0.82910
733.20775	0.83964
731.15394	0.84787
729.10014	0.85338
727.04634	0.85707
724.99253	0.86032
722.93873	0.86376
720.88493	0.86704
718.83112	0.86940
716.77732	0.87007
714.72352	0.86892
712.66971	0.86474
710.61591	0.85375
708.56211	0.83165
706.50830	0.79503
704.45450	0.74192
702.40070	0.67440
700.34689	0.59967
698.29309	0.53137
696.23929	0.49510
694.18548	0.51562
692.13168	0.58222
690.07788	0.65450
688.02408	0.70662
685.97027	0.73838
683.91647	0.75706
681.86267	0.76902
679.80886	0.77788
677.75506	0.78456
675.70126	0.78926
673.64745	0.79268
671.59365	0.79561
669.53985	0.79871
667.48604	0.80146
665.43224	0.80258
663.37844	0.80407
661.32463	0.80604
659.27083	0.80631
657.21703	0.80516
655.16322	0.80437
653.10942	0.80343
651.05562	0.80162
649.00181	0.79977
646.94801	0.79912
644.89421	0.80072
642.84040	0.80415
640.78660	0.80760
638.73280	0.80960
636.67899	0.81038
634.62519	0.81152
632.57139	0.81282
630.51759	0.81249
628.46378	0.81179
626.40998	0.81284
624.35618	0.81343
622.30237	0.81098
620.24857	0.80735
618.19477	0.80512
616.14096	0.80333
614.08716	0.80074
612.03336	0.79841
609.97955	0.79634
607.92575	0.79389
605.87195	0.79157
603.81814	0.78915
601.76434	0.78646
599.71054	0.78323
597.65673	0.77894
595.60293	0.77523
593.54913	0.77244
591.49532	0.76959
589.44152	0.76736
587.38772	0.76548
585.33391	0.76244
583.28011	0.75895
581.22631	0.75625
579.17250	0.75323
577.11870	0.74912
575.06490	0.74450
573.01110	0.73969
570.95729	0.73421
568.90349	0.72851
566.84969	0.72308
564.79588	0.71626
562.74208	0.70860
560.68828	0.70159
558.63447	0.69362
556.58067	0.68427
554.52687	0.67529
552.47306	0.66735
550.41926	0.65960
548.36546	0.65025
546.31165	0.63822
544.25785	0.62402
542.20405	0.60902
540.15024	0.59573
538.09644	0.58537
536.04264	0.57739
533.98883	0.57364
531.93503	0.57487
529.88123	0.57845
527.82742	0.58327
525.77362	0.58918
523.71982	0.59518
521.66602	0.60061
519.61221	0.60540
517.55841	0.61027
515.50461	0.61585
513.45080	0.62255
511.39700	0.63084
509.34320	0.63956
507.28939	0.64672
505.23559	0.65125
503.18179	0.65335
501.12798	0.65345
499.07418	0.65321
497.02038	0.65422
494.96657	0.65389
492.91277	0.64947
490.85897	0.64144
488.80516	0.63091
486.75136	0.61876
484.69756	0.60425
482.64375	0.58699
480.58995	0.56879
478.53615	0.55038
476.48234	0.53299
474.42854	0.51828
472.37474	0.50520
470.32093	0.49469
468.26713	0.48904
466.21333	0.48738
464.15953	0.48883
462.10572	0.49345
460.05192	0.50033
457.99812	0.50946
455.94431	0.51942
453.89051	0.52848
451.83671	0.53758
449.78290	0.54506
447.72910	0.55042
445.67530	0.55481
443.62149	0.55791
441.56769	0.55909
439.51389	0.55917
437.46008	0.55868
435.40628	0.55547
433.35248	0.54990
431.29867	0.54490
429.24487	0.54256
427.19107	0.54487
425.13726	0.55155
423.08346	0.55653
421.02966	0.55660
418.97585	0.55804
416.92205	0.56456
414.86825	0.57227
412.81445	0.58077
410.76064	0.59112
408.70684	0.60335
406.65304	0.61484
404.59923	0.62092
402.54543	0.62171
400.49163	0.62074
398.43782	0.61832
