3996.70104	0.96896
3994.64724	0.96911
3992.59344	0.96936
3990.53964	0.96933
3988.48583	0.96893
3986.43203	0.96872
3984.37823	0.96888
3982.32442	0.96918
3980.27062	0.96951
3978.21682	0.96949
3976.16301	0.96901
3974.10921	0.96876
3972.05541	0.96885
3970.00160	0.96882
3967.94780	0.96885
3965.89400	0.96913
3963.84019	0.96933
3961.78639	0.96948
3959.73259	0.96966
3957.67878	0.96964
3955.62498	0.96957
3953.57118	0.96973
3951.51737	0.96999
3949.46357	0.97012
3947.40977	0.96997
3945.35596	0.96969
3943.30216	0.96959
3941.24836	0.96964
3939.19455	0.96976
3937.14075	0.97001
3935.08695	0.97023
3933.03315	0.97027
3930.97934	0.96983
3928.92554	0.96924
3926.87174	0.96916
3924.81793	0.96958
3922.76413	0.96983
3920.71033	0.96948
3918.65652	0.96906
3916.60272	0.96920
3914.54892	0.96940
3912.49511	0.96892
3910.44131	0.96840
3908.38751	0.96870
3906.33370	0.96965
3904.27990	0.97072
3902.22610	0.97079
3900.17229	0.96984
3898.11849	0.96923
3896.06469	0.96869
3894.01088	0.96816
3891.95708	0.96839
3889.90328	0.96872
3887.84947	0.96853
3885.79567	0.96850
3883.74187	0.96883
3881.68807	0.96937
3879.63426	0.96983
3877.58046	0.96964
3875.52666	0.96971
3873.47285	0.97093
3871.41905	0.97168
3869.36525	0.97096
3867.31144	0.97022
3865.25764	0.96999
3863.20384	0.96980
3861.15003	0.96971
3859.09623	0.97012
3857.04243	0.97085
3854.98862	0.97152
3852.93482	0.97156
3850.88102	0.97102
3848.82721	0.97040
3846.77341	0.96984
3844.71961	0.96958
3842.66580	0.96972
3840.61200	0.96990
3838.55820	0.96996
3836.50439	0.97010
3834.45059	0.96998
3832.39679	0.96972
3830.34298	0.96960
3828.28918	0.96985
3826.23538	0.97027
3824.18158	0.97040
3822.12777	0.97033
3820.07397	0.97056
3818.02017	0.97111
3815.96636	0.97128
3813.91256	0.97097
3811.85876	0.97072
3809.80495	0.97058
3807.75115	0.97052
3805.69735	0.97053
3803.64354	0.97057
3801.58974	0.97070
3799.53594	0.97079
3797.48213	0.97067
3795.42833	0.97061
3793.37453	0.97090
3791.32072	0.97137
3789.26692	0.97149
3787.21312	0.97125
3785.15931	0.97108
3783.10551	0.97096
3781.05171	0.97100
3778.99790	0.97124
3776.94410	0.97131
3774.89030	0.97145
3772.83650	0.97167
3770.78269	0.97152
3768.72889	0.97116
3766.67509	0.97130
3764.62128	0.97142
3762.56748	0.97108
3760.51368	0.97108
3758.45987	0.97158
3756.40607	0.97195
3754.35227	0.97216
3752.29846	0.97229
3750.24466	0.97226
3748.19086	0.97227
3746.13705	0.97205
3744.08325	0.97130
3742.02945	0.97112
3739.97564	0.97205
3737.92184	0.97327
3735.86804	0.97336
3733.81423	0.97267
3731.76043	0.97289
3729.70663	0.97328
3727.65282	0.97313
3725.59902	0.97230
3723.54522	0.97152
3721.49141	0.97168
3719.43761	0.97177
3717.38381	0.97094
3715.33001	0.96996
3713.27620	0.96926
3711.22240	0.96807
3709.16860	0.96565
3707.11479	0.96286
3705.06099	0.96034
3703.00719	0.95808
3700.95338	0.95611
3698.89958	0.95487
3696.84578	0.95419
3694.79197	0.95399
3692.73817	0.95471
3690.68437	0.95621
3688.63056	0.95726
3686.57676	0.95714
3684.52296	0.95690
3682.46915	0.95716
3680.41535	0.95781
3678.36155	0.95832
3676.30774	0.95822
3674.25394	0.95782
3672.20014	0.95753
3670.14633	0.95713
3668.09253	0.95651
3666.03873	0.95594
3663.98492	0.95592
3661.93112	0.95613
3659.87732	0.95561
3657.82352	0.95473
3655.76971	0.95439
3653.71591	0.95395
3651.66211	0.95258
3649.60830	0.95149
3647.55450	0.95289
3645.50070	0.95389
3643.44689	0.95334
3641.39309	0.95253
3639.33929	0.95200
3637.28548	0.95136
3635.23168	0.95023
3633.17788	0.94894
3631.12407	0.94777
3629.07027	0.94605
3627.01647	0.94449
3624.96266	0.94431
3622.90886	0.94469
3620.85506	0.94492
3618.80125	0.94496
3616.74745	0.94506
3614.69365	0.94543
3612.63984	0.94607
3610.58604	0.94659
3608.53224	0.94734
3606.47844	0.94817
3604.42463	0.94820
3602.37083	0.94770
3600.31703	0.94740
3598.26322	0.94737
3596.20942	0.94752
3594.15562	0.94795
3592.10181	0.94822
3590.04801	0.94811
3587.99421	0.94771
3585.94040	0.94721
3583.88660	0.94732
3581.83280	0.94805
3579.77899	0.94872
3577.72519	0.94897
3575.67139	0.94858
3573.61758	0.94760
3571.56378	0.94705
3569.50998	0.94754
3567.45617	0.94828
3565.40237	0.94796
3563.34857	0.94731
3561.29476	0.94670
3559.24096	0.94572
3557.18716	0.94499
3555.13335	0.94518
3553.07955	0.94559
3551.02575	0.94552
3548.97195	0.94523
3546.91814	0.94516
3544.86434	0.94571
3542.81054	0.94633
3540.75673	0.94625
3538.70293	0.94574
3536.64913	0.94532
3534.59532	0.94498
3532.54152	0.94455
3530.48772	0.94395
3528.43391	0.94311
3526.38011	0.94263
3524.32631	0.94300
3522.27250	0.94376
3520.21870	0.94413
3518.16490	0.94401
3516.11109	0.94365
3514.05729	0.94349
3512.00349	0.94375
3509.94968	0.94393
3507.89588	0.94357
3505.84208	0.94309
3503.78827	0.94295
3501.73447	0.94293
3499.68067	0.94260
3497.62687	0.94214
3495.57306	0.94213
3493.51926	0.94264
3491.46546	0.94315
3489.41165	0.94314
3487.35785	0.94275
3485.30405	0.94264
3483.25024	0.94279
3481.19644	0.94267
3479.14264	0.94232
3477.08883	0.94185
3475.03503	0.94127
3472.98123	0.94108
3470.92742	0.94149
3468.87362	0.94160
3466.81982	0.94076
3464.76601	0.93980
3462.71221	0.93963
3460.65841	0.93982
3458.60460	0.94002
3456.55080	0.94026
3454.49700	0.94031
3452.44319	0.94020
3450.38939	0.93978
3448.33559	0.93906
3446.28178	0.93868
3444.22798	0.93870
3442.17418	0.93861
3440.12038	0.93833
3438.06657	0.93801
3436.01277	0.93777
3433.95897	0.93770
3431.90516	0.93776
3429.85136	0.93778
3427.79756	0.93774
3425.74375	0.93769
3423.68995	0.93735
3421.63615	0.93658
3419.58234	0.93583
3417.52854	0.93561
3415.47474	0.93556
3413.42093	0.93505
3411.36713	0.93427
3409.31333	0.93399
3407.25952	0.93423
3405.20572	0.93448
3403.15192	0.93479
3401.09811	0.93509
3399.04431	0.93506
3396.99051	0.93472
3394.93670	0.93426
3392.88290	0.93383
3390.82910	0.93365
3388.77529	0.93393
3386.72149	0.93424
3384.66769	0.93418
3382.61389	0.93397
3380.56008	0.93382
3378.50628	0.93369
3376.45248	0.93345
3374.39867	0.93321
3372.34487	0.93329
3370.29107	0.93370
3368.23726	0.93442
3366.18346	0.93502
3364.12966	0.93484
3362.07585	0.93447
3360.02205	0.93468
3357.96825	0.93487
3355.91444	0.93454
3353.86064	0.93411
3351.80684	0.93390
3349.75303	0.93402
3347.69923	0.93459
3345.64543	0.93539
3343.59162	0.93558
3341.53782	0.93514
3339.48402	0.93506
3337.43021	0.93536
3335.37641	0.93538
3333.32261	0.93538
3331.26881	0.93553
3329.21500	0.93565
3327.16120	0.93589
3325.10740	0.93595
3323.05359	0.93573
3320.99979	0.93565
3318.94599	0.93547
3316.89218	0.93500
3314.83838	0.93474
3312.78458	0.93496
3310.73077	0.93534
3308.67697	0.93589
3306.62317	0.93649
3304.56936	0.93643
3302.51556	0.93629
3300.46176	0.93699
3298.40795	0.93760
3296.35415	0.93759
3294.30035	0.93745
3292.24654	0.93734
3290.19274	0.93724
3288.13894	0.93701
3286.08513	0.93685
3284.03133	0.93711
3281.97753	0.93736
3279.92372	0.93752
3277.86992	0.93793
3275.81612	0.93832
3273.76232	0.93844
3271.70851	0.93867
3269.65471	0.93909
3267.60091	0.93931
3265.54710	0.93931
3263.49330	0.93931
3261.43950	0.93914
3259.38569	0.93906
3257.33189	0.93917
3255.27809	0.93888
3253.22428	0.93856
3251.17048	0.93859
3249.11668	0.93865
3247.06287	0.93895
3245.00907	0.93938
3242.95527	0.93956
3240.90146	0.93958
3238.84766	0.93968
3236.79386	0.94004
3234.74005	0.94055
3232.68625	0.94050
3230.63245	0.93996
3228.57864	0.94021
3226.52484	0.94142
3224.47104	0.94210
3222.41724	0.94172
3220.36343	0.94136
3218.30963	0.94138
3216.25583	0.94132
3214.20202	0.94151
3212.14822	0.94197
3210.09442	0.94207
3208.04061	0.94216
3205.98681	0.94250
3203.93301	0.94273
3201.87920	0.94300
3199.82540	0.94331
3197.77160	0.94341
3195.71779	0.94344
3193.66399	0.94376
3191.61019	0.94403
3189.55638	0.94397
3187.50258	0.94405
3185.44878	0.94451
3183.39497	0.94498
3181.34117	0.94498
3179.28737	0.94456
3177.23356	0.94438
3175.17976	0.94487
3173.12596	0.94548
3171.07215	0.94557
3169.01835	0.94529
3166.96455	0.94492
3164.91075	0.94501
3162.85694	0.94562
3160.80314	0.94615
3158.74934	0.94659
3156.69553	0.94712
3154.64173	0.94741
3152.58793	0.94739
3150.53412	0.94749
3148.48032	0.94771
3146.42652	0.94787
3144.37271	0.94823
3142.31891	0.94868
3140.26511	0.94895
3138.21130	0.94907
3136.15750	0.94897
3134.10370	0.94883
3132.04989	0.94901
3129.99609	0.94923
3127.94229	0.94929
3125.88848	0.94963
3123.83468	0.95018
3121.78088	0.95040
3119.72707	0.95046
3117.67327	0.95085
3115.61947	0.95136
3113.56566	0.95125
3111.51186	0.95066
3109.45806	0.95060
3107.40426	0.95101
3105.35045	0.95118
3103.29665	0.95111
3101.24285	0.95107
3099.18904	0.95096
3097.13524	0.95061
3095.08144	0.95044
3093.02763	0.95093
3090.97383	0.95149
3088.92003	0.95134
3086.86622	0.95043
3084.81242	0.94956
3082.75862	0.94947
3080.70481	0.94994
3078.65101	0.95041
3076.59721	0.95085
3074.54340	0.95137
3072.48960	0.95175
3070.43580	0.95188
3068.38199	0.95164
3066.32819	0.95088
3064.27439	0.94991
3062.22058	0.94943
3060.16678	0.94943
3058.11298	0.94949
3056.05918	0.95009
3054.00537	0.95129
3051.95157	0.95215
3049.89777	0.95241
3047.84396	0.95238
3045.79016	0.95224
3043.73636	0.95220
3041.68255	0.95274
3039.62875	0.95346
3037.57495	0.95351
3035.52114	0.95278
3033.46734	0.95162
3031.41354	0.95038
3029.35973	0.94898
3027.30593	0.94752
3025.25213	0.94690
3023.19832	0.94757
3021.14452	0.94900
3019.09072	0.95069
3017.03691	0.95221
3014.98311	0.95321
3012.92931	0.95392
3010.87550	0.95439
3008.82170	0.95447
3006.76790	0.95443
3004.71409	0.95446
3002.66029	0.95460
3000.60649	0.95498
2998.55269	0.95567
2996.49888	0.95617
2994.44508	0.95619
2992.39128	0.95615
2990.33747	0.95631
2988.28367	0.95647
2986.22987	0.95655
2984.17606	0.95668
2982.12226	0.95671
2980.06846	0.95679
2978.01465	0.95740
2975.96085	0.95830
2973.90705	0.95870
2971.85324	0.95847
2969.79944	0.95795
2967.74564	0.95748
2965.69183	0.95723
2963.63803	0.95713
2961.58423	0.95702
2959.53042	0.95674
2957.47662	0.95658
2955.42282	0.95670
2953.36901	0.95684
2951.31521	0.95669
2949.26141	0.95606
2947.20761	0.95540
2945.15380	0.95499
2943.10000	0.95435
2941.04620	0.95360
2938.99239	0.95326
2936.93859	0.95281
2934.88479	0.95171
2932.83098	0.95073
2930.77718	0.95009
2928.72338	0.94916
2926.66957	0.94801
2924.61577	0.94693
2922.56197	0.94593
2920.50816	0.94534
2918.45436	0.94533
2916.40056	0.94575
2914.34675	0.94654
2912.29295	0.94753
2910.23915	0.94822
2908.18534	0.94855
2906.13154	0.94914
2904.07774	0.95026
2902.02393	0.95132
2899.97013	0.95193
2897.91633	0.95242
2895.86252	0.95300
2893.80872	0.95344
2891.75492	0.95384
2889.70112	0.95440
2887.64731	0.95502
2885.59351	0.95557
2883.53971	0.95617
2881.48590	0.95657
2879.43210	0.95652
2877.37830	0.95649
2875.32449	0.95686
2873.27069	0.95713
2871.21689	0.95695
2869.16308	0.95679
2867.10928	0.95695
2865.05548	0.95729
2863.00167	0.95756
2860.94787	0.95763
2858.89407	0.95751
2856.84026	0.95710
2854.78646	0.95640
2852.73266	0.95577
2850.67885	0.95553
2848.62505	0.95567
2846.57125	0.95606
2844.51744	0.95649
2842.46364	0.95690
2840.40984	0.95735
2838.35603	0.95793
2836.30223	0.95848
2834.24843	0.95870
2832.19463	0.95894
2830.14082	0.95948
2828.08702	0.95984
2826.03322	0.95988
2823.97941	0.96012
2821.92561	0.96070
2819.87181	0.96094
2817.81800	0.96058
2815.76420	0.96041
2813.71040	0.96063
2811.65659	0.96068
2809.60279	0.96061
2807.54899	0.96065
2805.49518	0.96082
2803.44138	0.96109
2801.38758	0.96150
2799.33377	0.96199
2797.27997	0.96218
2795.22617	0.96212
2793.17236	0.96200
2791.11856	0.96178
2789.06476	0.96165
2787.01095	0.96176
2784.95715	0.96208
2782.90335	0.96241
2780.84955	0.96247
2778.79574	0.96254
2776.74194	0.96273
2774.68814	0.96259
2772.63433	0.96213
2770.58053	0.96207
2768.52673	0.96255
2766.47292	0.96287
2764.41912	0.96260
2762.36532	0.96220
2760.31151	0.96219
2758.25771	0.96231
2756.20391	0.96232
2754.15010	0.96240
2752.09630	0.96252
2750.04250	0.96265
2747.98869	0.96292
2745.93489	0.96337
2743.88109	0.96368
2741.82728	0.96359
2739.77348	0.96351
2737.71968	0.96374
2735.66587	0.96391
2733.61207	0.96376
2731.55827	0.96357
2729.50446	0.96345
2727.45066	0.96332
2725.39686	0.96330
2723.34306	0.96338
2721.28925	0.96343
2719.23545	0.96330
2717.18165	0.96319
2715.12784	0.96351
2713.07404	0.96383
2711.02024	0.96391
2708.96643	0.96388
2706.91263	0.96370
2704.85883	0.96351
2702.80502	0.96343
2700.75122	0.96359
2698.69742	0.96384
2696.64361	0.96398
2694.58981	0.96426
2692.53601	0.96449
2690.48220	0.96434
2688.42840	0.96414
2686.37460	0.96417
2684.32079	0.96427
2682.26699	0.96428
2680.21319	0.96439
2678.15938	0.96451
2676.10558	0.96455
2674.05178	0.96470
2671.99797	0.96461
2669.94417	0.96419
2667.89037	0.96403
2665.83657	0.96429
2663.78276	0.96464
2661.72896	0.96463
2659.67516	0.96415
2657.62135	0.96372
2655.56755	0.96369
2653.51375	0.96391
2651.45994	0.96397
2649.40614	0.96388
2647.35234	0.96403
2645.29853	0.96443
2643.24473	0.96465
2641.19093	0.96454
2639.13712	0.96447
2637.08332	0.96452
2635.02952	0.96430
2632.97571	0.96427
2630.92191	0.96481
2628.86811	0.96536
2626.81430	0.96553
2624.76050	0.96519
2622.70670	0.96454
2620.65289	0.96444
2618.59909	0.96524
2616.54529	0.96581
2614.49149	0.96549
2612.43768	0.96519
2610.38388	0.96519
2608.33008	0.96479
2606.27627	0.96417
2604.22247	0.96427
2602.16867	0.96485
2600.11486	0.96522
2598.06106	0.96548
2596.00726	0.96572
2593.95345	0.96591
2591.89965	0.96607
2589.84585	0.96607
2587.79204	0.96585
2585.73824	0.96548
2583.68444	0.96522
2581.63063	0.96535
2579.57683	0.96557
2577.52303	0.96586
2575.46922	0.96666
2573.41542	0.96736
2571.36162	0.96716
2569.30781	0.96648
2567.25401	0.96629
2565.20021	0.96652
2563.14640	0.96637
2561.09260	0.96628
2559.03880	0.96684
2556.98500	0.96723
2554.93119	0.96694
2552.87739	0.96659
2550.82359	0.96636
2548.76978	0.96624
2546.71598	0.96641
2544.66218	0.96679
2542.60837	0.96713
2540.55457	0.96713
2538.50077	0.96714
2536.44696	0.96757
2534.39316	0.96774
2532.33936	0.96747
2530.28555	0.96740
2528.23175	0.96756
2526.17795	0.96776
2524.12414	0.96786
2522.07034	0.96756
2520.01654	0.96703
2517.96273	0.96659
2515.90893	0.96638
2513.85513	0.96652
2511.80132	0.96689
2509.74752	0.96709
2507.69372	0.96696
2505.63992	0.96678
2503.58611	0.96728
2501.53231	0.96832
2499.47851	0.96847
2497.42470	0.96745
2495.37090	0.96658
2493.31710	0.96652
2491.26329	0.96663
2489.20949	0.96642
2487.15569	0.96671
2485.10188	0.96769
2483.04808	0.96834
2480.99428	0.96858
2478.94047	0.96834
2476.88667	0.96787
2474.83287	0.96776
2472.77906	0.96806
2470.72526	0.96867
2468.67146	0.96912
2466.61765	0.96930
2464.56385	0.96913
2462.51005	0.96868
2460.45624	0.96870
2458.40244	0.96891
2456.34864	0.96843
2454.29483	0.96736
2452.24103	0.96673
2450.18723	0.96703
2448.13343	0.96751
2446.07962	0.96784
2444.02582	0.96811
2441.97202	0.96811
2439.91821	0.96778
2437.86441	0.96740
2435.81061	0.96739
2433.75680	0.96736
2431.70300	0.96694
2429.64920	0.96677
2427.59539	0.96702
2425.54159	0.96731
2423.48779	0.96760
2421.43398	0.96771
2419.38018	0.96742
2417.32638	0.96713
2415.27257	0.96735
2413.21877	0.96806
2411.16497	0.96853
2409.11116	0.96831
2407.05736	0.96808
2405.00356	0.96850
2402.94975	0.96906
2400.89595	0.96909
2398.84215	0.96908
2396.78834	0.96905
2394.73454	0.96844
2392.68074	0.96803
2390.62694	0.96841
2388.57313	0.96879
2386.51933	0.96842
2384.46553	0.96764
2382.41172	0.96755
2380.35792	0.96831
2378.30412	0.96882
2376.25031	0.96881
2374.19651	0.96907
2372.14271	0.96963
2370.08890	0.96989
2368.03510	0.96989
2365.98130	0.96978
2363.92749	0.96907
2361.87369	0.96826
2359.81989	0.96844
2357.76608	0.96892
2355.71228	0.96869
2353.65848	0.96787
2351.60467	0.96702
2349.55087	0.96659
2347.49707	0.96645
2345.44326	0.96638
2343.38946	0.96675
2341.33566	0.96764
2339.28186	0.96814
2337.22805	0.96772
2335.17425	0.96695
2333.12045	0.96690
2331.06664	0.96772
2329.01284	0.96839
2326.95904	0.96802
2324.90523	0.96691
2322.85143	0.96608
2320.79763	0.96625
2318.74382	0.96702
2316.69002	0.96756
2314.63622	0.96806
2312.58241	0.96849
2310.52861	0.96812
2308.47481	0.96775
2306.42100	0.96811
2304.36720	0.96843
2302.31340	0.96831
2300.25959	0.96828
2298.20579	0.96853
2296.15199	0.96841
2294.09818	0.96786
2292.04438	0.96750
2289.99058	0.96766
2287.93677	0.96829
2285.88297	0.96902
2283.82917	0.96905
2281.77537	0.96841
2279.72156	0.96813
2277.66776	0.96839
2275.61396	0.96816
2273.56015	0.96737
2271.50635	0.96752
2269.45255	0.96920
2267.39874	0.97105
2265.34494	0.97140
2263.29114	0.97063
2261.23733	0.97064
2259.18353	0.97130
2257.12973	0.97034
2255.07592	0.96824
2253.02212	0.96821
2250.96832	0.96974
2248.91451	0.97058
2246.86071	0.97006
2244.80691	0.96855
2242.75310	0.96768
2240.69930	0.96825
2238.64550	0.96965
2236.59169	0.97084
2234.53789	0.97086
2232.48409	0.96998
2230.43029	0.96944
2228.37648	0.96938
2226.32268	0.96994
2224.26888	0.97079
2222.21507	0.97065
2220.16127	0.97044
2218.10747	0.97031
2216.05366	0.96975
2213.99986	0.96946
2211.94606	0.96870
2209.89225	0.96833
2207.83845	0.97048
2205.78465	0.97283
2203.73084	0.97186
2201.67704	0.96976
2199.62324	0.96921
2197.56943	0.96870
2195.51563	0.96862
2193.46183	0.97013
2191.40802	0.97125
2189.35422	0.97100
2187.30042	0.97036
2185.24661	0.97051
2183.19281	0.97144
2181.13901	0.97169
2179.08520	0.97086
2177.03140	0.96938
2174.97760	0.96856
2172.92380	0.96960
2170.86999	0.97071
2168.81619	0.97147
2166.76239	0.97346
2164.70858	0.97520
2162.65478	0.97427
2160.60098	0.97140
2158.54717	0.97070
2156.49337	0.97229
2154.43957	0.97150
2152.38576	0.97003
2150.33196	0.97064
2148.27816	0.97112
2146.22435	0.97100
2144.17055	0.97207
2142.11675	0.97395
2140.06294	0.97487
2138.00914	0.97501
2135.95534	0.97553
2133.90153	0.97575
2131.84773	0.97499
2129.79393	0.97343
2127.74012	0.97140
2125.68632	0.97034
2123.63252	0.97041
2121.57871	0.96982
2119.52491	0.96884
2117.47111	0.96873
2115.41731	0.96939
2113.36350	0.97018
2111.30970	0.97042
2109.25590	0.97011
2107.20209	0.96967
2105.14829	0.97016
2103.09449	0.97207
2101.04068	0.97341
2098.98688	0.97260
2096.93308	0.97130
2094.87927	0.97117
2092.82547	0.97151
2090.77167	0.97182
2088.71786	0.97247
2086.66406	0.97352
2084.61026	0.97344
2082.55645	0.97170
2080.50265	0.97056
2078.44885	0.97076
2076.39504	0.97155
2074.34124	0.97241
2072.28744	0.97198
2070.23363	0.97090
2068.17983	0.97090
2066.12603	0.97125
2064.07223	0.97186
2062.01842	0.97275
2059.96462	0.97265
2057.91082	0.97197
2055.85701	0.97186
2053.80321	0.97203
2051.74941	0.97148
2049.69560	0.97041
2047.64180	0.97049
2045.58800	0.97247
2043.53419	0.97471
2041.48039	0.97464
2039.42659	0.97333
2037.37278	0.97273
2035.31898	0.97118
2033.26518	0.97024
2031.21137	0.97152
2029.15757	0.97216
2027.10377	0.97236
2025.04996	0.97318
2022.99616	0.97419
2020.94236	0.97556
2018.88855	0.97703
2016.83475	0.97779
2014.78095	0.97720
2012.72714	0.97596
2010.67334	0.97444
2008.61954	0.97256
2006.56574	0.97158
2004.51193	0.97135
2002.45813	0.97169
2000.40433	0.97459
1998.35052	0.97837
1996.29672	0.97911
1994.24292	0.97763
1992.18911	0.97663
1990.13531	0.97595
1988.08151	0.97524
1986.02770	0.97531
1983.97390	0.97560
1981.92010	0.97505
1979.86629	0.97464
1977.81249	0.97631
1975.75869	0.97836
1973.70488	0.97800
1971.65108	0.97677
1969.59728	0.97708
1967.54347	0.97767
1965.48967	0.97618
1963.43587	0.97418
1961.38206	0.97344
1959.32826	0.97378
1957.27446	0.97439
1955.22066	0.97474
1953.16685	0.97513
1951.11305	0.97518
1949.05925	0.97490
1947.00544	0.97478
1944.95164	0.97433
1942.89784	0.97336
1940.84403	0.97280
1938.79023	0.97312
1936.73643	0.97370
1934.68262	0.97397
1932.62882	0.97344
1930.57502	0.97201
1928.52121	0.97098
1926.46741	0.97193
1924.41361	0.97364
1922.35980	0.97389
1920.30600	0.97345
1918.25220	0.97345
1916.19839	0.97349
1914.14459	0.97341
1912.09079	0.97334
1910.03698	0.97357
1907.98318	0.97401
1905.92938	0.97372
1903.87557	0.97250
1901.82177	0.97158
1899.76797	0.97119
1897.71417	0.97091
1895.66036	0.97109
1893.60656	0.97164
1891.55276	0.97196
1889.49895	0.97192
1887.44515	0.97170
1885.39135	0.97123
1883.33754	0.97081
1881.28374	0.97121
1879.22994	0.97192
1877.17613	0.97202
1875.12233	0.97199
1873.06853	0.97222
1871.01472	0.97224
1868.96092	0.97198
1866.90712	0.97169
1864.85331	0.97145
1862.79951	0.97140
1860.74571	0.97159
1858.69190	0.97161
1856.63810	0.97141
1854.58430	0.97159
1852.53049	0.97196
1850.47669	0.97169
1848.42289	0.97116
1846.36908	0.97127
1844.31528	0.97161
1842.26148	0.97154
1840.20768	0.97165
1838.15387	0.97193
1836.10007	0.97237
1834.04627	0.97298
1831.99246	0.97313
1829.93866	0.97284
1827.88486	0.97263
1825.83105	0.97250
1823.77725	0.97268
1821.72345	0.97311
1819.66964	0.97300
1817.61584	0.97251
1815.56204	0.97206
1813.50823	0.97161
1811.45443	0.97173
1809.40063	0.97234
1807.34682	0.97254
1805.29302	0.97224
1803.23922	0.97186
1801.18541	0.97178
1799.13161	0.97190
1797.07781	0.97195
1795.02400	0.97195
1792.97020	0.97203
1790.91640	0.97233
1788.86260	0.97271
1786.80879	0.97294
1784.75499	0.97300
1782.70119	0.97297
1780.64738	0.97274
1778.59358	0.97239
1776.53978	0.97244
1774.48597	0.97280
1772.43217	0.97297
1770.37837	0.97265
1768.32456	0.97221
1766.27076	0.97192
1764.21696	0.97186
1762.16315	0.97206
1760.10935	0.97205
1758.05555	0.97172
1756.00174	0.97168
1753.94794	0.97194
1751.89414	0.97196
1749.84033	0.97131
1747.78653	0.97051
1745.73273	0.97019
1743.67892	0.97000
1741.62512	0.96971
1739.57132	0.96949
1737.51751	0.96939
1735.46371	0.96943
1733.40991	0.96958
1731.35611	0.96953
1729.30230	0.96910
1727.24850	0.96862
1725.19470	0.96843
1723.14089	0.96841
1721.08709	0.96850
1719.03329	0.96879
1716.97948	0.96892
1714.92568	0.96846
1712.87188	0.96788
1710.81807	0.96749
1708.76427	0.96723
1706.71047	0.96659
1704.65666	0.96554
1702.60286	0.96469
1700.54906	0.96376
1698.49525	0.96279
1696.44145	0.96216
1694.38765	0.96151
1692.33384	0.96055
1690.28004	0.95919
1688.22624	0.95796
1686.17243	0.95720
1684.11863	0.95613
1682.06483	0.95493
1680.01103	0.95405
1677.95722	0.95326
1675.90342	0.95239
1673.84962	0.95150
1671.79581	0.95094
1669.74201	0.94997
1667.68821	0.94841
1665.63440	0.94745
1663.58060	0.94687
1661.52680	0.94594
1659.47299	0.94497
1657.41919	0.94446
1655.36539	0.94418
1653.31158	0.94332
1651.25778	0.94201
1649.20398	0.94147
1647.15017	0.94142
1645.09637	0.94128
1643.04257	0.94102
1640.98876	0.94097
1638.93496	0.94109
1636.88116	0.94114
1634.82735	0.94087
1632.77355	0.94089
1630.71975	0.94127
1628.66594	0.94148
1626.61214	0.94127
1624.55834	0.94117
1622.50454	0.94160
1620.45073	0.94224
1618.39693	0.94300
1616.34313	0.94385
1614.28932	0.94427
1612.23552	0.94469
1610.18172	0.94530
1608.12791	0.94526
1606.07411	0.94422
1604.02031	0.94288
1601.96650	0.94190
1599.91270	0.94224
1597.85890	0.94417
1595.80509	0.94662
1593.75129	0.94868
1591.69749	0.95011
1589.64368	0.95088
1587.58988	0.95120
1585.53608	0.95134
1583.48227	0.95154
1581.42847	0.95209
1579.37467	0.95280
1577.32086	0.95361
1575.26706	0.95482
1573.21326	0.95555
1571.15945	0.95557
1569.10565	0.95558
1567.05185	0.95596
1564.99805	0.95637
1562.94424	0.95646
1560.89044	0.95634
1558.83664	0.95644
1556.78283	0.95670
1554.72903	0.95690
1552.67523	0.95705
1550.62142	0.95685
1548.56762	0.95648
1546.51382	0.95658
1544.46001	0.95700
1542.40621	0.95704
1540.35241	0.95730
1538.29860	0.95806
1536.24480	0.95813
1534.19100	0.95814
1532.13719	0.95898
1530.08339	0.96007
1528.02959	0.96066
1525.97578	0.96094
1523.92198	0.96145
1521.86818	0.96203
1519.81437	0.96213
1517.76057	0.96241
1515.70677	0.96299
1513.65297	0.96336
1511.59916	0.96379
1509.54536	0.96442
1507.49156	0.96474
1505.43775	0.96432
1503.38395	0.96432
1501.33015	0.96448
1499.27634	0.96331
1497.22254	0.95752
1495.16874	0.94775
1493.11493	0.94180
1491.06113	0.94322
1489.00733	0.95099
1486.95352	0.95782
1484.89972	0.96121
1482.84592	0.96310
1480.79211	0.96412
1478.73831	0.96439
1476.68451	0.96448
1474.63070	0.96476
1472.57690	0.96477
1470.52310	0.96435
1468.46929	0.96415
1466.41549	0.96422
1464.36169	0.96398
1462.30788	0.96323
1460.25408	0.96225
1458.20028	0.95906
1456.14648	0.94989
1454.09267	0.94127
1452.03887	0.93783
1449.98507	0.93928
1447.93126	0.94352
1445.87746	0.94749
1443.82366	0.95047
1441.76985	0.95291
1439.71605	0.95465
1437.66225	0.95591
1435.60844	0.95723
1433.55464	0.95828
1431.50084	0.95915
1429.44703	0.96005
1427.39323	0.96040
1425.33943	0.96040
1423.28562	0.96061
1421.23182	0.96076
1419.17802	0.96054
1417.12421	0.96051
1415.07041	0.96084
1413.01661	0.96106
1410.96280	0.96120
1408.90900	0.96150
1406.85520	0.96194
1404.80139	0.96224
1402.74759	0.96233
1400.69379	0.96243
1398.63999	0.96264
1396.58618	0.96267
1394.53238	0.96273
1392.47858	0.96310
1390.42477	0.96333
1388.37097	0.96316
1386.31717	0.96264
1384.26336	0.96218
1382.20956	0.96186
1380.15576	0.96151
1378.10195	0.96114
1376.04815	0.96094
1373.99435	0.96093
1371.94054	0.96091
1369.88674	0.96107
1367.83294	0.96150
1365.77913	0.96186
1363.72533	0.96219
1361.67153	0.96259
1359.61772	0.96285
1357.56392	0.96304
1355.51012	0.96336
1353.45631	0.96365
1351.40251	0.96388
1349.34871	0.96417
1347.29491	0.96448
1345.24110	0.96474
1343.18730	0.96487
1341.13350	0.96485
1339.07969	0.96493
1337.02589	0.96513
1334.97209	0.96517
1332.91828	0.96499
1330.86448	0.96479
1328.81068	0.96465
1326.75687	0.96453
1324.70307	0.96469
1322.64927	0.96504
1320.59546	0.96516
1318.54166	0.96517
1316.48786	0.96525
1314.43405	0.96532
1312.38025	0.96540
1310.32645	0.96552
1308.27264	0.96583
1306.21884	0.96626
1304.16504	0.96639
1302.11123	0.96623
1300.05743	0.96607
1298.00363	0.96606
1295.94982	0.96619
1293.89602	0.96644
1291.84222	0.96664
1289.78842	0.96655
1287.73461	0.96620
1285.68081	0.96610
1283.62701	0.96627
1281.57320	0.96623
1279.51940	0.96596
1277.46560	0.96560
1275.41179	0.96537
1273.35799	0.96557
1271.30419	0.96576
1269.25038	0.96547
1267.19658	0.96513
1265.14278	0.96499
1263.08897	0.96482
1261.03517	0.96465
1258.98137	0.96462
1256.92756	0.96456
1254.87376	0.96430
1252.81996	0.96383
1250.76615	0.96324
1248.71235	0.96296
1246.65855	0.96275
1244.60474	0.96203
1242.55094	0.96097
1240.49714	0.96034
1238.44334	0.96041
1236.38953	0.96049
1234.33573	0.96029
1232.28193	0.96000
1230.22812	0.95957
1228.17432	0.95908
1226.12052	0.95867
1224.06671	0.95818
1222.01291	0.95763
1219.95911	0.95721
1217.90530	0.95679
1215.85150	0.95607
1213.79770	0.95505
1211.74389	0.95391
1209.69009	0.95281
1207.63629	0.95192
1205.58248	0.95117
1203.52868	0.95031
1201.47488	0.94917
1199.42107	0.94796
1197.36727	0.94689
1195.31347	0.94549
1193.25966	0.94360
1191.20586	0.94180
1189.15206	0.94036
1187.09825	0.93872
1185.04445	0.93643
1182.99065	0.93394
1180.93685	0.93166
1178.88304	0.92971
1176.82924	0.92822
1174.77544	0.92686
1172.72163	0.92496
1170.66783	0.92239
1168.61403	0.91972
1166.56022	0.91753
1164.50642	0.91569
1162.45262	0.91372
1160.39881	0.91162
1158.34501	0.90949
1156.29121	0.90731
1154.23740	0.90517
1152.18360	0.90321
1150.12980	0.90141
1148.07599	0.89950
1146.02219	0.89712
1143.96839	0.89442
1141.91458	0.89188
1139.86078	0.88937
1137.80698	0.88677
1135.75317	0.88402
1133.69937	0.88049
1131.64557	0.87639
1129.59176	0.87220
1127.53796	0.86766
1125.48416	0.86273
1123.43036	0.85735
1121.37655	0.85142
1119.32275	0.84513
1117.26895	0.83904
1115.21514	0.83376
1113.16134	0.82908
1111.10754	0.82452
1109.05373	0.82045
1106.99993	0.81710
1104.94613	0.81398
1102.89232	0.81079
1100.83852	0.80774
1098.78472	0.80504
1096.73091	0.80259
1094.67711	0.80034
1092.62331	0.79849
1090.56950	0.79693
1088.51570	0.79538
1086.46190	0.79374
1084.40809	0.79174
1082.35429	0.78938
1080.30049	0.78695
1078.24668	0.78432
1076.19288	0.78105
1074.13908	0.77718
1072.08528	0.77284
1070.03147	0.76786
1067.97767	0.76245
1065.92387	0.75679
1063.87006	0.75104
1061.81626	0.74513
1059.76246	0.73833
1057.70865	0.73048
1055.65485	0.72197
1053.60105	0.71285
1051.54724	0.70336
1049.49344	0.69371
1047.43964	0.68369
1045.38583	0.67355
1043.33203	0.66376
1041.27823	0.65397
1039.22442	0.64409
1037.17062	0.63488
1035.11682	0.62640
1033.06301	0.61827
1031.00921	0.61103
1028.95541	0.60570
1026.90160	0.60289
1024.84780	0.60208
1022.79400	0.60178
1020.74019	0.60131
1018.68639	0.60055
1016.63259	0.59896
1014.57879	0.59648
1012.52498	0.59332
1010.47118	0.58984
1008.41738	0.58642
1006.36357	0.58341
1004.30977	0.58147
1002.25597	0.58133
1000.20216	0.58327
998.14836	0.58706
996.09456	0.59233
994.04075	0.59887
991.98695	0.60642
989.93315	0.61449
987.87934	0.62268
985.82554	0.63102
983.77174	0.63961
981.71793	0.64842
979.66413	0.65738
977.61033	0.66638
975.55652	0.67571
973.50272	0.68536
971.44892	0.69464
969.39511	0.70347
967.34131	0.71189
965.28751	0.71980
963.23371	0.72727
961.17990	0.73431
959.12610	0.74087
957.07230	0.74699
955.01849	0.75271
952.96469	0.75784
950.91089	0.76231
948.85708	0.76622
946.80328	0.76952
944.74948	0.77226
942.69567	0.77456
940.64187	0.77649
938.58807	0.77844
936.53426	0.78058
934.48046	0.78266
932.42666	0.78443
930.37285	0.78591
928.31905	0.78711
926.26525	0.78754
924.21144	0.78658
922.15764	0.78429
920.10384	0.78127
918.05003	0.77751
915.99623	0.77272
913.94243	0.76800
911.88862	0.76543
909.83482	0.76621
907.78102	0.76997
905.72722	0.77603
903.67341	0.78396
901.61961	0.79281
899.56581	0.80133
897.51200	0.80908
895.45820	0.81578
893.40440	0.82160
891.35059	0.82678
889.29679	0.83117
887.24299	0.83501
885.18918	0.83825
883.13538	0.84063
881.08158	0.84270
879.02777	0.84511
876.97397	0.84755
874.92017	0.84985
872.86636	0.85265
870.81256	0.85585
868.75876	0.85897
866.70495	0.86217
864.65115	0.86546
862.59735	0.86864
860.54354	0.87163
858.48974	0.87428
856.43594	0.87667
854.38213	0.87883
852.32833	0.88092
850.27453	0.88315
848.22073	0.88471
846.16692	0.88534
844.11312	0.88604
842.05932	0.88702
840.00551	0.88753
837.95171	0.88749
835.89791	0.88760
833.84410	0.88827
831.79030	0.88908
829.73650	0.88959
827.68269	0.89010
825.62889	0.89055
823.57509	0.89019
821.52128	0.88965
819.46748	0.89026
817.41368	0.89127
815.35987	0.89161
813.30607	0.89156
811.25227	0.89092
809.19846	0.88938
807.14466	0.88755
805.09086	0.88494
803.03705	0.88090
800.98325	0.87705
798.92945	0.87495
796.87565	0.87407
794.82184	0.87389
792.76804	0.87450
790.71424	0.87473
788.66043	0.87388
786.60663	0.87302
784.55283	0.87192
782.49902	0.86995
780.44522	0.86819
778.39142	0.86686
776.33761	0.86543
774.28381	0.86395
772.23001	0.86193
770.17620	0.85851
768.12240	0.85394
766.06860	0.84915
764.01479	0.84412
761.96099	0.83862
759.90719	0.83324
757.85338	0.82878
755.79958	0.82576
753.74578	0.82456
751.69197	0.82440
749.63817	0.82449
747.58437	0.82609
745.53056	0.83025
743.47676	0.83638
741.42296	0.84301
739.36916	0.84914
737.31535	0.85532
735.26155	0.86180
733.20775	0.86664
731.15394	0.86868
729.10014	0.86985
727.04634	0.87168
724.99253	0.87375
722.93873	0.87541
720.88493	0.87638
718.83112	0.87661
716.77732	0.87627
714.72352	0.87537
712.66971	0.87313
710.61591	0.86802
708.56211	0.85756
706.50830	0.83910
704.45450	0.81177
702.40070	0.77708
700.34689	0.73808
698.29309	0.70176
696.23929	0.68350
694.18548	0.69662
692.13168	0.73196
690.07788	0.76619
688.02408	0.78783
685.97027	0.79949
683.91647	0.80608
681.86267	0.81027
679.80886	0.81307
677.75506	0.81482
675.70126	0.81612
673.64745	0.81768
671.59365	0.81937
669.53985	0.82110
667.48604	0.82262
665.43224	0.82364
663.37844	0.82543
661.32463	0.82763
659.27083	0.82863
657.21703	0.82835
655.16322	0.82822
653.10942	0.82866
651.05562	0.82822
649.00181	0.82702
646.94801	0.82709
644.89421	0.82791
642.84040	0.82747
640.78660	0.82582
638.73280	0.82442
636.67899	0.82402
634.62519	0.82366
632.57139	0.82261
630.51759	0.82190
628.46378	0.82167
626.40998	0.82141
624.35618	0.82150
622.30237	0.82070
620.24857	0.81781
618.19477	0.81443
616.14096	0.81222
614.08716	0.81056
612.03336	0.80827
609.97955	0.80530
607.92575	0.80161
605.87195	0.79735
603.81814	0.79358
601.76434	0.79033
599.71054	0.78636
597.65673	0.78261
595.60293	0.78085
593.54913	0.77912
591.49532	0.77604
589.44152	0.77397
587.38772	0.77267
585.33391	0.76987
583.28011	0.76629
581.22631	0.76281
579.17250	0.75854
577.11870	0.75418
575.06490	0.75070
573.01110	0.74745
570.95729	0.74278
568.90349	0.73547
566.84969	0.72622
564.79588	0.71768
562.74208	0.71281
560.68828	0.71090
558.63447	0.70763
556.58067	0.70116
554.52687	0.69378
552.47306	0.68625
550.41926	0.67725
548.36546	0.66732
546.31165	0.65722
544.25785	0.64640
542.20405	0.63509
540.15024	0.62485
538.09644	0.61674
536.04264	0.61059
533.98883	0.60636
531.93503	0.60419
529.88123	0.60361
527.82742	0.60472
525.77362	0.60750
523.71982	0.61004
521.66602	0.61253
519.61221	0.61733
517.55841	0.62344
515.50461	0.62773
513.45080	0.63060
511.39700	0.63485
509.34320	0.64132
507.28939	0.64800
505.23559	0.65296
503.18179	0.65572
501.12798	0.65759
499.07418	0.65989
497.02038	0.66201
494.96657	0.66232
492.91277	0.65944
490.85897	0.65427
488.80516	0.64916
486.75136	0.64401
484.69756	0.63601
482.64375	0.62516
480.58995	0.61310
478.53615	0.59855
476.48234	0.58067
474.42854	0.56119
472.37474	0.54218
470.32093	0.52566
468.26713	0.51296
466.21333	0.50492
464.15953	0.50132
462.10572	0.50061
460.05192	0.50193
457.99812	0.50702
455.94431	0.51569
453.89051	0.52219
451.83671	0.52632
449.78290	0.53183
447.72910	0.53770
445.67530	0.53933
443.62149	0.53726
441.56769	0.53547
439.51389	0.53267
437.46008	0.52879
435.40628	0.52470
433.35248	0.51883
431.29867	0.51318
429.24487	0.50986
427.19107	0.50792
425.13726	0.50756
423.08346	0.50910
421.02966	0.51047
418.97585	0.51194
416.92205	0.51655
414.86825	0.52437
412.81445	0.53464
410.76064	0.54277
408.70684	0.54684
406.65304	0.55299
404.59923	0.56234
402.54543	0.56908
400.49163	0.57310
398.43782	0.58136
