3996.71440	0.98237
3994.66059	0.98221
3992.60678	0.98217
3990.55297	0.98238
3988.49916	0.98229
3986.44535	0.98189
3984.39154	0.98165
3982.33773	0.98166
3980.28391	0.98177
3978.23010	0.98186
3976.17629	0.98180
3974.12248	0.98179
3972.06867	0.98197
3970.01486	0.98208
3967.96105	0.98214
3965.90724	0.98211
3963.85343	0.98182
3961.79962	0.98158
3959.74581	0.98179
3957.69200	0.98215
3955.63819	0.98227
3953.58438	0.98231
3951.53057	0.98232
3949.47676	0.98214
3947.42295	0.98189
3945.36914	0.98194
3943.31533	0.98227
3941.26152	0.98240
3939.20771	0.98237
3937.15390	0.98235
3935.10009	0.98237
3933.04628	0.98242
3930.99247	0.98224
3928.93866	0.98193
3926.88485	0.98191
3924.83104	0.98209
3922.77723	0.98223
3920.72342	0.98247
3918.66961	0.98269
3916.61580	0.98242
3914.56199	0.98196
3912.50818	0.98174
3910.45437	0.98162
3908.40056	0.98176
3906.34675	0.98220
3904.29294	0.98256
3902.23913	0.98257
3900.18532	0.98237
3898.13151	0.98221
3896.07770	0.98227
3894.02389	0.98245
3891.97008	0.98244
3889.91627	0.98228
3887.86246	0.98232
3885.80865	0.98219
3883.75484	0.98196
3881.70103	0.98200
3879.64722	0.98194
3877.59341	0.98205
3875.53960	0.98235
3873.48579	0.98236
3871.43198	0.98221
3869.37817	0.98206
3867.32436	0.98227
3865.27055	0.98279
3863.21674	0.98285
3861.16293	0.98250
3859.10912	0.98242
3857.05531	0.98248
3855.00150	0.98243
3852.94769	0.98206
3850.89388	0.98175
3848.84007	0.98173
3846.78626	0.98184
3844.73245	0.98212
3842.67864	0.98237
3840.62483	0.98254
3838.57102	0.98261
3836.51721	0.98225
3834.46340	0.98204
3832.40959	0.98229
3830.35578	0.98248
3828.30197	0.98257
3826.24816	0.98270
3824.19435	0.98295
3822.14054	0.98336
3820.08673	0.98358
3818.03292	0.98367
3815.97911	0.98337
3813.92530	0.98248
3811.87149	0.98205
3809.81768	0.98221
3807.76387	0.98239
3805.71006	0.98249
3803.65625	0.98262
3801.60244	0.98241
3799.54863	0.98187
3797.49482	0.98154
3795.44101	0.98157
3793.38720	0.98191
3791.33339	0.98216
3789.27958	0.98219
3787.22577	0.98219
3785.17196	0.98231
3783.11815	0.98253
3781.06434	0.98272
3779.01053	0.98260
3776.95672	0.98223
3774.90291	0.98196
3772.84910	0.98199
3770.79529	0.98234
3768.74148	0.98266
3766.68767	0.98277
3764.63386	0.98273
3762.58005	0.98261
3760.52624	0.98255
3758.47243	0.98260
3756.41862	0.98284
3754.36481	0.98340
3752.31100	0.98400
3750.25719	0.98349
3748.20338	0.98263
3746.14957	0.98274
3744.09576	0.98289
3742.04195	0.98259
3739.98814	0.98273
3737.93433	0.98318
3735.88052	0.98302
3733.82671	0.98238
3731.77290	0.98215
3729.71909	0.98226
3727.66528	0.98237
3725.61147	0.98227
3723.55766	0.98229
3721.50385	0.98245
3719.45004	0.98269
3717.39623	0.98311
3715.34242	0.98320
3713.28861	0.98278
3711.23480	0.98231
3709.18099	0.98212
3707.12718	0.98182
3705.07337	0.98148
3703.01956	0.98130
3700.96575	0.98097
3698.91194	0.98061
3696.85813	0.98059
3694.80432	0.98081
3692.75051	0.98098
3690.69670	0.98111
3688.64289	0.98124
3686.58907	0.98129
3684.53526	0.98123
3682.48145	0.98108
3680.42764	0.98090
3678.37383	0.98089
3676.32002	0.98111
3674.26621	0.98109
3672.21240	0.98079
3670.15859	0.98050
3668.10478	0.98020
3666.05097	0.98000
3663.99716	0.98008
3661.94335	0.98024
3659.88954	0.98004
3657.83573	0.97964
3655.78192	0.97967
3653.72811	0.98030
3651.67430	0.98105
3649.62049	0.98119
3647.56668	0.98026
3645.51287	0.97921
3643.45906	0.97863
3641.40525	0.97838
3639.35144	0.97816
3637.29763	0.97786
3635.24382	0.97779
3633.19001	0.97821
3631.13620	0.97883
3629.08239	0.97858
3627.02858	0.97752
3624.97477	0.97710
3622.92096	0.97713
3620.86715	0.97715
3618.81334	0.97679
3616.75953	0.97631
3614.70572	0.97631
3612.65191	0.97667
3610.59810	0.97704
3608.54429	0.97669
3606.49048	0.97587
3604.43667	0.97586
3602.38286	0.97654
3600.32905	0.97695
3598.27524	0.97682
3596.22143	0.97651
3594.16762	0.97618
3592.11381	0.97599
3590.06000	0.97586
3588.00619	0.97522
3585.95238	0.97430
3583.89857	0.97403
3581.84476	0.97418
3579.79095	0.97415
3577.73714	0.97398
3575.68333	0.97407
3573.62952	0.97425
3571.57571	0.97431
3569.52190	0.97429
3567.46809	0.97396
3565.41428	0.97351
3563.36047	0.97350
3561.30666	0.97334
3559.25285	0.97273
3557.19904	0.97244
3555.14523	0.97279
3553.09142	0.97314
3551.03761	0.97297
3548.98380	0.97270
3546.92999	0.97251
3544.87618	0.97202
3542.82237	0.97147
3540.76856	0.97114
3538.71475	0.97094
3536.66094	0.97090
3534.60713	0.97097
3532.55332	0.97107
3530.49951	0.97121
3528.44570	0.97123
3526.39189	0.97112
3524.33808	0.97115
3522.28427	0.97102
3520.23046	0.97052
3518.17665	0.97026
3516.12284	0.97034
3514.06903	0.97032
3512.01522	0.97010
3509.96141	0.96977
3507.90760	0.96923
3505.85379	0.96884
3503.79998	0.96900
3501.74617	0.96920
3499.69236	0.96906
3497.63855	0.96895
3495.58474	0.96887
3493.53093	0.96848
3491.47712	0.96800
3489.42331	0.96780
3487.36950	0.96776
3485.31569	0.96778
3483.26188	0.96770
3481.20807	0.96742
3479.15426	0.96718
3477.10045	0.96712
3475.04664	0.96712
3472.99283	0.96711
3470.93902	0.96699
3468.88521	0.96668
3466.83140	0.96639
3464.77759	0.96623
3462.72378	0.96617
3460.66997	0.96609
3458.61616	0.96578
3456.56235	0.96563
3454.50854	0.96582
3452.45473	0.96585
3450.40092	0.96573
3448.34711	0.96572
3446.29330	0.96570
3444.23949	0.96558
3442.18568	0.96551
3440.13187	0.96549
3438.07806	0.96539
3436.02425	0.96534
3433.97044	0.96517
3431.91663	0.96484
3429.86282	0.96480
3427.80901	0.96506
3425.75520	0.96534
3423.70139	0.96554
3421.64758	0.96545
3419.59377	0.96513
3417.53996	0.96482
3415.48615	0.96459
3413.43234	0.96457
3411.37853	0.96473
3409.32472	0.96483
3407.27091	0.96496
3405.21710	0.96512
3403.16329	0.96488
3401.10948	0.96441
3399.05567	0.96433
3397.00186	0.96456
3394.94805	0.96466
3392.89424	0.96457
3390.84042	0.96454
3388.78661	0.96469
3386.73280	0.96482
3384.67899	0.96472
3382.62518	0.96458
3380.57137	0.96470
3378.51756	0.96487
3376.46375	0.96480
3374.40994	0.96453
3372.35613	0.96437
3370.30232	0.96454
3368.24851	0.96455
3366.19470	0.96422
3364.14089	0.96408
3362.08708	0.96416
3360.03327	0.96413
3357.97946	0.96405
3355.92565	0.96393
3353.87184	0.96367
3351.81803	0.96350
3349.76422	0.96355
3347.71041	0.96359
3345.65660	0.96364
3343.60279	0.96377
3341.54898	0.96375
3339.49517	0.96379
3337.44136	0.96403
3335.38755	0.96415
3333.33374	0.96418
3331.27993	0.96417
3329.22612	0.96397
3327.17231	0.96365
3325.11850	0.96333
3323.06469	0.96318
3321.01088	0.96328
3318.95707	0.96348
3316.90326	0.96356
3314.84945	0.96359
3312.79564	0.96361
3310.74183	0.96348
3308.68802	0.96329
3306.63421	0.96317
3304.58040	0.96321
3302.52659	0.96329
3300.47278	0.96323
3298.41897	0.96308
3296.36516	0.96286
3294.31135	0.96284
3292.25754	0.96316
3290.20373	0.96344
3288.14992	0.96342
3286.09611	0.96347
3284.04230	0.96364
3281.98849	0.96368
3279.93468	0.96353
3277.88087	0.96338
3275.82706	0.96327
3273.77325	0.96321
3271.71944	0.96346
3269.66563	0.96371
3267.61182	0.96364
3265.55801	0.96364
3263.50420	0.96389
3261.45039	0.96412
3259.39658	0.96430
3257.34277	0.96443
3255.28896	0.96429
3253.23515	0.96426
3251.18134	0.96472
3249.12753	0.96516
3247.07372	0.96521
3245.01991	0.96508
3242.96610	0.96508
3240.91229	0.96525
3238.85848	0.96535
3236.80467	0.96540
3234.75086	0.96563
3232.69705	0.96580
3230.64324	0.96579
3228.58943	0.96566
3226.53562	0.96547
3224.48181	0.96532
3222.42800	0.96540
3220.37419	0.96575
3218.32038	0.96608
3216.26657	0.96630
3214.21276	0.96646
3212.15895	0.96641
3210.10514	0.96642
3208.05133	0.96673
3205.99752	0.96698
3203.94371	0.96687
3201.88990	0.96671
3199.83609	0.96674
3197.78228	0.96692
3195.72847	0.96725
3193.67466	0.96750
3191.62085	0.96747
3189.56704	0.96738
3187.51323	0.96745
3185.45942	0.96766
3183.40561	0.96787
3181.35180	0.96798
3179.29799	0.96805
3177.24418	0.96822
3175.19037	0.96853
3173.13656	0.96888
3171.08275	0.96898
3169.02894	0.96870
3166.97513	0.96849
3164.92132	0.96851
3162.86751	0.96848
3160.81370	0.96853
3158.75989	0.96876
3156.70608	0.96892
3154.65227	0.96910
3152.59846	0.96945
3150.54465	0.96978
3148.49084	0.96969
3146.43703	0.96938
3144.38322	0.96946
3142.32941	0.96985
3140.27560	0.97014
3138.22179	0.97021
3136.16798	0.97009
3134.11417	0.96998
3132.06036	0.97015
3130.00655	0.97043
3127.95274	0.97050
3125.89893	0.97041
3123.84512	0.97045
3121.79131	0.97051
3119.73750	0.97036
3117.68369	0.97020
3115.62988	0.97016
3113.57607	0.97027
3111.52226	0.97042
3109.46845	0.97033
3107.41464	0.97025
3105.36083	0.97052
3103.30702	0.97089
3101.25321	0.97108
3099.19940	0.97093
3097.14559	0.97063
3095.09177	0.97056
3093.03796	0.97067
3090.98415	0.97070
3088.93034	0.97056
3086.87653	0.97059
3084.82272	0.97086
3082.76891	0.97091
3080.71510	0.97082
3078.66129	0.97080
3076.60748	0.97067
3074.55367	0.97058
3072.49986	0.97062
3070.44605	0.97050
3068.39224	0.97041
3066.33843	0.97056
3064.28462	0.97077
3062.23081	0.97093
3060.17700	0.97098
3058.12319	0.97076
3056.06938	0.97036
3054.01557	0.97010
3051.96176	0.97020
3049.90795	0.97061
3047.85414	0.97096
3045.80033	0.97107
3043.74652	0.97104
3041.69271	0.97101
3039.63890	0.97110
3037.58509	0.97114
3035.53128	0.97104
3033.47747	0.97091
3031.42366	0.97085
3029.36985	0.97086
3027.31604	0.97087
3025.26223	0.97094
3023.20842	0.97127
3021.15461	0.97161
3019.10080	0.97158
3017.04699	0.97138
3014.99318	0.97137
3012.93937	0.97138
3010.88556	0.97120
3008.83175	0.97105
3006.77794	0.97103
3004.72413	0.97097
3002.67032	0.97091
3000.61651	0.97091
2998.56270	0.97083
2996.50889	0.97055
2994.45508	0.97009
2992.40127	0.96966
2990.34746	0.96927
2988.29365	0.96881
2986.23984	0.96832
2984.18603	0.96765
2982.13222	0.96686
2980.07841	0.96631
2978.02460	0.96582
2975.97079	0.96499
2973.91698	0.96382
2971.86317	0.96241
2969.80936	0.96057
2967.75555	0.95844
2965.70174	0.95644
2963.64793	0.95463
2961.59412	0.95286
2959.54031	0.95120
2957.48650	0.94983
2955.43269	0.94914
2953.37888	0.94950
2951.32507	0.95058
2949.27126	0.95168
2947.21745	0.95242
2945.16364	0.95271
2943.10983	0.95248
2941.05602	0.95157
2939.00221	0.94980
2936.94840	0.94738
2934.89459	0.94471
2932.84078	0.94166
2930.78697	0.93814
2928.73316	0.93426
2926.67935	0.92988
2924.62554	0.92523
2922.57173	0.92091
2920.51792	0.91742
2918.46411	0.91555
2916.41030	0.91652
2914.35649	0.92072
2912.30268	0.92680
2910.24887	0.93274
2908.19506	0.93752
2906.14125	0.94130
2904.08744	0.94420
2902.03363	0.94617
2899.97982	0.94767
2897.92601	0.94899
2895.87220	0.95010
2893.81839	0.95132
2891.76458	0.95281
2889.71077	0.95413
2887.65696	0.95520
2885.60315	0.95618
2883.54934	0.95686
2881.49553	0.95713
2879.44172	0.95700
2877.38791	0.95649
2875.33410	0.95582
2873.28029	0.95539
2871.22648	0.95567
2869.17267	0.95635
2867.11886	0.95661
2865.06505	0.95606
2863.01124	0.95484
2860.95743	0.95314
2858.90362	0.95085
2856.84981	0.94744
2854.79600	0.94272
2852.74219	0.93798
2850.68838	0.93559
2848.63457	0.93718
2846.58076	0.94219
2844.52695	0.94851
2842.47314	0.95414
2840.41933	0.95816
2838.36552	0.96080
2836.31171	0.96269
2834.25790	0.96418
2832.20409	0.96538
2830.15028	0.96643
2828.09647	0.96733
2826.04266	0.96808
2823.98885	0.96865
2821.93504	0.96908
2819.88123	0.96950
2817.82742	0.96996
2815.77361	0.97042
2813.71980	0.97068
2811.66599	0.97063
2809.61218	0.97070
2807.55837	0.97121
2805.50456	0.97175
2803.45075	0.97205
2801.39693	0.97221
2799.34312	0.97223
2797.28931	0.97228
2795.23550	0.97252
2793.18169	0.97275
2791.12788	0.97274
2789.07407	0.97256
2787.02026	0.97241
2784.96645	0.97249
2782.91264	0.97283
2780.85883	0.97340
2778.80502	0.97384
2776.75121	0.97394
2774.69740	0.97386
2772.64359	0.97374
2770.58978	0.97372
2768.53597	0.97375
2766.48216	0.97374
2764.42835	0.97379
2762.37454	0.97394
2760.32073	0.97412
2758.26692	0.97417
2756.21311	0.97410
2754.15930	0.97400
2752.10549	0.97403
2750.05168	0.97415
2747.99787	0.97430
2745.94406	0.97459
2743.89025	0.97483
2741.83644	0.97479
2739.78263	0.97479
2737.72882	0.97493
2735.67501	0.97490
2733.62120	0.97486
2731.56739	0.97489
2729.51358	0.97470
2727.45977	0.97447
2725.40596	0.97447
2723.35215	0.97452
2721.29834	0.97457
2719.24453	0.97481
2717.19072	0.97510
2715.13691	0.97520
2713.08310	0.97512
2711.02929	0.97499
2708.97548	0.97493
2706.92167	0.97507
2704.86786	0.97536
2702.81405	0.97554
2700.76024	0.97553
2698.70643	0.97544
2696.65262	0.97530
2694.59881	0.97516
2692.54500	0.97512
2690.49119	0.97522
2688.43738	0.97524
2686.38357	0.97521
2684.32976	0.97529
2682.27595	0.97532
2680.22214	0.97534
2678.16833	0.97544
2676.11452	0.97549
2674.06071	0.97551
2672.00690	0.97568
2669.95309	0.97587
2667.89928	0.97581
2665.84547	0.97568
2663.79166	0.97562
2661.73785	0.97542
2659.68404	0.97515
2657.63023	0.97499
2655.57642	0.97498
2653.52261	0.97517
2651.46880	0.97541
2649.41499	0.97540
2647.36118	0.97528
2645.30737	0.97545
2643.25356	0.97584
2641.19975	0.97593
2639.14594	0.97556
2637.09213	0.97529
2635.03832	0.97534
2632.98451	0.97539
2630.93070	0.97546
2628.87689	0.97566
2626.82308	0.97585
2624.76927	0.97590
2622.71546	0.97587
2620.66165	0.97586
2618.60784	0.97598
2616.55403	0.97616
2614.50022	0.97599
2612.44641	0.97569
2610.39260	0.97584
2608.33879	0.97635
2606.28498	0.97667
2604.23117	0.97652
2602.17736	0.97647
2600.12355	0.97680
2598.06974	0.97692
2596.01593	0.97670
2593.96212	0.97672
2591.90831	0.97700
2589.85450	0.97700
2587.80069	0.97671
2585.74688	0.97651
2583.69307	0.97661
2581.63926	0.97692
2579.58545	0.97707
2577.53164	0.97695
2575.47783	0.97703
2573.42402	0.97727
2571.37021	0.97707
2569.31640	0.97687
2567.26259	0.97726
2565.20878	0.97774
2563.15497	0.97798
2561.10116	0.97792
2559.04735	0.97756
2556.99354	0.97737
2554.93973	0.97749
2552.88592	0.97764
2550.83211	0.97776
2548.77830	0.97787
2546.72449	0.97802
2544.67068	0.97801
2542.61687	0.97786
2540.56306	0.97811
2538.50925	0.97860
2536.45544	0.97868
2534.40163	0.97846
2532.34782	0.97820
2530.29401	0.97786
2528.24020	0.97770
2526.18639	0.97784
2524.13258	0.97813
2522.07877	0.97841
2520.02496	0.97852
2517.97115	0.97848
2515.91734	0.97843
2513.86353	0.97830
2511.80972	0.97818
2509.75591	0.97825
2507.70210	0.97818
2505.64828	0.97801
2503.59447	0.97786
2501.54066	0.97779
2499.48685	0.97803
2497.43304	0.97845
2495.37923	0.97881
2493.32542	0.97884
2491.27161	0.97853
2489.21780	0.97829
2487.16399	0.97813
2485.11018	0.97805
2483.05637	0.97824
2481.00256	0.97858
2478.94875	0.97861
2476.89494	0.97834
2474.84113	0.97826
2472.78732	0.97837
2470.73351	0.97825
2468.67970	0.97808
2466.62589	0.97817
2464.57208	0.97842
2462.51827	0.97868
2460.46446	0.97885
2458.41065	0.97877
2456.35684	0.97879
2454.30303	0.97909
2452.24922	0.97899
2450.19541	0.97855
2448.14160	0.97849
2446.08779	0.97871
2444.03398	0.97880
2441.98017	0.97867
2439.92636	0.97850
2437.87255	0.97857
2435.81874	0.97884
2433.76493	0.97911
2431.71112	0.97922
2429.65731	0.97914
2427.60350	0.97903
2425.54969	0.97891
2423.49588	0.97881
2421.44207	0.97884
2419.38826	0.97896
2417.33445	0.97913
2415.28064	0.97926
2413.22683	0.97909
2411.17302	0.97877
2409.11921	0.97866
2407.06540	0.97882
2405.01159	0.97911
2402.95778	0.97936
2400.90397	0.97964
2398.85016	0.97973
2396.79635	0.97945
2394.74254	0.97900
2392.68873	0.97868
2390.63492	0.97869
2388.58111	0.97891
2386.52730	0.97926
2384.47349	0.97960
2382.41968	0.97965
2380.36587	0.97951
2378.31206	0.97944
2376.25825	0.97952
2374.20444	0.97954
2372.15063	0.97927
2370.09682	0.97908
2368.04301	0.97946
2365.98920	0.97980
2363.93539	0.97982
2361.88158	0.98002
2359.82777	0.97982
2357.77396	0.97945
2355.72015	0.97968
2353.66634	0.97982
2351.61253	0.97949
2349.55872	0.97925
2347.50491	0.97923
2345.45110	0.97937
2343.39729	0.97941
2341.34348	0.97902
2339.28967	0.97859
2337.23586	0.97854
2335.18205	0.97884
2333.12824	0.97918
2331.07443	0.97919
2329.02062	0.97889
2326.96681	0.97818
2324.91300	0.97705
2322.85919	0.97645
2320.80538	0.97676
2318.75157	0.97711
2316.69776	0.97719
2314.64395	0.97724
2312.59014	0.97747
2310.53633	0.97784
2308.48252	0.97795
2306.42871	0.97778
2304.37490	0.97771
2302.32109	0.97783
2300.26728	0.97773
2298.21347	0.97742
2296.15966	0.97744
2294.10585	0.97757
2292.05204	0.97746
2289.99823	0.97753
2287.94442	0.97756
2285.89061	0.97730
2283.83680	0.97739
2281.78299	0.97804
2279.72918	0.97872
2277.67537	0.97910
2275.62156	0.97927
2273.56775	0.97897
2271.51394	0.97819
2269.46013	0.97774
2267.40632	0.97796
2265.35251	0.97848
2263.29870	0.97880
2261.24489	0.97877
2259.19108	0.97879
2257.13727	0.97925
2255.08346	0.98007
2253.02965	0.98050
2250.97584	0.98029
2248.92203	0.97990
2246.86822	0.97934
2244.81441	0.97892
2242.76060	0.97894
2240.70679	0.97901
2238.65298	0.97926
2236.59917	0.97998
2234.54536	0.98058
2232.49155	0.98074
2230.43774	0.98043
2228.38393	0.97984
2226.33012	0.97996
2224.27631	0.98053
2222.22250	0.98038
2220.16869	0.98002
2218.11488	0.97975
2216.06107	0.97900
2214.00726	0.97863
2211.95344	0.98005
2209.89963	0.98193
2207.84582	0.98180
2205.79201	0.98085
2203.73820	0.98137
2201.68439	0.98191
2199.63058	0.98082
2197.57677	0.97944
2195.52296	0.97970
2193.46915	0.98085
2191.41534	0.98041
2189.36153	0.97912
2187.30772	0.97930
2185.25391	0.97999
2183.20010	0.98035
2181.14629	0.98094
2179.09248	0.98077
2177.03867	0.98111
2174.98486	0.98328
2172.93105	0.98459
2170.87724	0.98370
2168.82343	0.98123
2166.76962	0.97895
2164.71581	0.97891
2162.66200	0.97951
2160.60819	0.98071
2158.55438	0.98401
2156.50057	0.98570
2154.44676	0.98463
2152.39295	0.98379
2150.33914	0.98318
2148.28533	0.98174
2146.23152	0.98149
2144.17771	0.98273
2142.12390	0.98265
2140.07009	0.98186
2138.01628	0.98205
2135.96247	0.98220
2133.90866	0.98224
2131.85485	0.98322
2129.80104	0.98405
2127.74723	0.98338
2125.69342	0.98223
2123.63961	0.98145
2121.58580	0.98099
2119.53199	0.98098
2117.47818	0.98080
2115.42437	0.98019
2113.37056	0.97969
2111.31675	0.97959
2109.26294	0.97976
2107.20913	0.98003
2105.15532	0.98031
2103.10151	0.98065
2101.04770	0.98126
2098.99389	0.98199
2096.94008	0.98206
2094.88627	0.98169
2092.83246	0.98183
2090.77865	0.98190
2088.72484	0.98138
2086.67103	0.98085
2084.61722	0.98063
2082.56341	0.98116
2080.50960	0.98214
2078.45579	0.98225
2076.40198	0.98173
2074.34817	0.98133
2072.29436	0.98053
2070.24055	0.97954
2068.18674	0.97929
2066.13293	0.97938
2064.07912	0.97915
2062.02531	0.97943
2059.97150	0.98064
2057.91769	0.98126
2055.86388	0.98075
2053.81007	0.98015
2051.75626	0.97977
2049.70245	0.97981
2047.64864	0.98069
2045.59483	0.98202
2043.54102	0.98255
2041.48721	0.98151
2039.43340	0.98029
2037.37959	0.98017
2035.32578	0.97987
2033.27197	0.97969
2031.21816	0.98170
2029.16435	0.98458
2027.11054	0.98561
2025.05673	0.98476
2023.00292	0.98383
2020.94911	0.98322
2018.89530	0.98148
2016.84149	0.97946
2014.78768	0.97980
2012.73387	0.98205
2010.68006	0.98347
2008.62625	0.98341
2006.57244	0.98342
2004.51863	0.98344
2002.46482	0.98290
2000.41101	0.98201
1998.35720	0.98116
1996.30339	0.98124
1994.24958	0.98224
1992.19577	0.98325
1990.14196	0.98353
1988.08815	0.98353
1986.03434	0.98336
1983.98053	0.98234
1981.92672	0.98118
1979.87291	0.98071
1977.81910	0.98088
1975.76529	0.98160
1973.71148	0.98250
1971.65767	0.98377
1969.60386	0.98547
1967.55005	0.98553
1965.49624	0.98371
1963.44243	0.98215
1961.38862	0.98155
1959.33481	0.98240
1957.28100	0.98347
1955.22719	0.98307
1953.17338	0.98250
1951.11957	0.98281
1949.06576	0.98306
1947.01195	0.98294
1944.95814	0.98302
1942.90433	0.98383
1940.85052	0.98452
1938.79671	0.98368
1936.74290	0.98232
1934.68909	0.98215
1932.63528	0.98283
1930.58147	0.98326
1928.52766	0.98329
1926.47385	0.98277
1924.42004	0.98188
1922.36623	0.98168
1920.31242	0.98222
1918.25861	0.98278
1916.20479	0.98339
1914.15098	0.98392
1912.09717	0.98350
1910.04336	0.98225
1907.98955	0.98154
1905.93574	0.98151
1903.88193	0.98149
1901.82812	0.98141
1899.77431	0.98134
1897.72050	0.98135
1895.66669	0.98165
1893.61288	0.98207
1891.55907	0.98229
1889.50526	0.98227
1887.45145	0.98188
1885.39764	0.98167
1883.34383	0.98202
1881.29002	0.98218
1879.23621	0.98186
1877.18240	0.98172
1875.12859	0.98219
1873.07478	0.98275
1871.02097	0.98282
1868.96716	0.98262
1866.91335	0.98242
1864.85954	0.98202
1862.80573	0.98177
1860.75192	0.98207
1858.69811	0.98216
1856.64430	0.98193
1854.59049	0.98213
1852.53668	0.98247
1850.48287	0.98249
1848.42906	0.98237
1846.37525	0.98226
1844.32144	0.98224
1842.26763	0.98218
1840.21382	0.98199
1838.16001	0.98183
1836.10620	0.98176
1834.05239	0.98199
1831.99858	0.98262
1829.94477	0.98311
1827.89096	0.98308
1825.83715	0.98266
1823.78334	0.98192
1821.72953	0.98146
1819.67572	0.98168
1817.62191	0.98215
1815.56810	0.98231
1813.51429	0.98208
1811.46048	0.98181
1809.40667	0.98169
1807.35286	0.98152
1805.29905	0.98146
1803.24524	0.98156
1801.19143	0.98155
1799.13762	0.98157
1797.08381	0.98177
1795.03000	0.98184
1792.97619	0.98158
1790.92238	0.98129
1788.86857	0.98120
1786.81476	0.98106
1784.76095	0.98072
1782.70714	0.98041
1780.65333	0.98005
1778.59952	0.97968
1776.54571	0.97966
1774.49190	0.97970
1772.43809	0.97947
1770.38428	0.97918
1768.33047	0.97886
1766.27666	0.97831
1764.22285	0.97750
1762.16904	0.97641
1760.11523	0.97520
1758.06142	0.97368
1756.00761	0.97155
1753.95380	0.96928
1751.89999	0.96668
1749.84618	0.96328
1747.79237	0.95954
1745.73856	0.95561
1743.68475	0.95157
1741.63094	0.94758
1739.57713	0.94312
1737.52332	0.93891
1735.46951	0.93483
1733.41570	0.92923
1731.36189	0.92407
1729.30808	0.91985
1727.25427	0.91575
1725.20046	0.91186
1723.14665	0.90825
1721.09284	0.90559
1719.03903	0.90358
1716.98522	0.90175
1714.93141	0.90157
1712.87760	0.90324
1710.82379	0.90623
1708.76998	0.91034
1706.71617	0.91526
1704.66236	0.92046
1702.60855	0.92510
1700.55474	0.92986
1698.50093	0.93367
1696.44712	0.93593
1694.39331	0.93792
1692.33950	0.93959
1690.28569	0.94096
1688.23188	0.94199
1686.17807	0.94279
1684.12426	0.94308
1682.07045	0.94264
1680.01664	0.94209
1677.96283	0.94163
1675.90902	0.94138
1673.85521	0.94127
1671.80140	0.94110
1669.74759	0.94028
1667.69378	0.93904
1665.63997	0.93828
1663.58616	0.93745
1661.53235	0.93619
1659.47854	0.93538
1657.42473	0.93529
1655.37092	0.93562
1653.31711	0.93535
1651.26330	0.93432
1649.20949	0.93403
1647.15568	0.93395
1645.10187	0.93389
1643.04806	0.93408
1640.99425	0.93441
1638.94044	0.93484
1636.88663	0.93518
1634.83282	0.93505
1632.77901	0.93503
1630.72520	0.93538
1628.67139	0.93594
1626.61758	0.93653
1624.56377	0.93690
1622.50996	0.93718
1620.45614	0.93776
1618.40233	0.93865
1616.34852	0.93944
1614.29471	0.93989
1612.24090	0.94049
1610.18709	0.94135
1608.13328	0.94204
1606.07947	0.94241
1604.02566	0.94271
1601.97185	0.94311
1599.91804	0.94371
1597.86423	0.94449
1595.81042	0.94552
1593.75661	0.94670
1591.70280	0.94759
1589.64899	0.94801
1587.59518	0.94812
1585.54137	0.94807
1583.48756	0.94808
1581.43375	0.94821
1579.37994	0.94837
1577.32613	0.94879
1575.27232	0.94949
1573.21851	0.95013
1571.16470	0.95083
1569.11089	0.95158
1567.05708	0.95205
1565.00327	0.95220
1562.94946	0.95231
1560.89565	0.95252
1558.84184	0.95245
1556.78803	0.95236
1554.73422	0.95259
1552.68041	0.95270
1550.62660	0.95259
1548.57279	0.95250
1546.51898	0.95279
1544.46517	0.95344
1542.41136	0.95400
1540.35755	0.95401
1538.30374	0.95382
1536.24993	0.95405
1534.19612	0.95452
1532.14231	0.95500
1530.08850	0.95548
1528.03469	0.95606
1525.98088	0.95672
1523.92707	0.95735
1521.87326	0.95789
1519.81945	0.95818
1517.76564	0.95831
1515.71183	0.95853
1513.65802	0.95899
1511.60421	0.95955
1509.55040	0.95983
1507.49659	0.95948
1505.44278	0.95905
1503.38897	0.95941
1501.33516	0.96007
1499.28135	0.96059
1497.22754	0.96049
1495.17373	0.95988
1493.11992	0.95983
1491.06611	0.96072
1489.01230	0.96192
1486.95849	0.96240
1484.90468	0.96227
1482.85087	0.96187
1480.79706	0.96123
1478.74325	0.96029
1476.68944	0.95886
1474.63563	0.95667
1472.58182	0.95304
1470.52801	0.94911
1468.47420	0.94694
1466.42039	0.94623
1464.36658	0.94617
1462.31277	0.94616
1460.25896	0.94585
1458.20515	0.94429
1456.15134	0.94114
1454.09753	0.93900
1452.04372	0.93842
1449.98991	0.93900
1447.93610	0.94034
1445.88229	0.94168
1443.82848	0.94275
1441.77467	0.94367
1439.72086	0.94448
1437.66705	0.94539
1435.61324	0.94634
1433.55943	0.94720
1431.50562	0.94820
1429.45181	0.94932
1427.39800	0.95023
1425.34419	0.95071
1423.29038	0.95075
1421.23657	0.95043
1419.18276	0.94956
1417.12895	0.94804
1415.07514	0.94601
1413.02133	0.94318
1410.96752	0.94009
1408.91371	0.93812
1406.85990	0.93795
1404.80609	0.93910
1402.75228	0.94058
1400.69847	0.94176
1398.64466	0.94253
1396.59085	0.94286
1394.53704	0.94301
1392.48323	0.94328
1390.42942	0.94369
1388.37561	0.94395
1386.32180	0.94376
1384.26799	0.94318
1382.21418	0.94238
1380.16037	0.94146
1378.10656	0.94075
1376.05275	0.94072
1373.99894	0.94149
1371.94513	0.94284
1369.89132	0.94450
1367.83751	0.94610
1365.78370	0.94733
1363.72989	0.94848
1361.67608	0.94947
1359.62227	0.94997
1357.56846	0.95039
1355.51465	0.95106
1353.46084	0.95182
1351.40703	0.95251
1349.35322	0.95304
1347.29941	0.95324
1345.24560	0.95326
1343.19179	0.95345
1341.13798	0.95377
1339.08417	0.95397
1337.03036	0.95403
1334.97655	0.95419
1332.92274	0.95440
1330.86893	0.95443
1328.81512	0.95426
1326.76130	0.95392
1324.70749	0.95325
1322.65368	0.95221
1320.59987	0.95106
1318.54606	0.94996
1316.49225	0.94904
1314.43844	0.94830
1312.38463	0.94760
1310.33082	0.94681
1308.27701	0.94585
1306.22320	0.94472
1304.16939	0.94344
1302.11558	0.94201
1300.06177	0.94042
1298.00796	0.93842
1295.95415	0.93585
1293.90034	0.93302
1291.84653	0.93007
1289.79272	0.92679
1287.73891	0.92316
1285.68510	0.91936
1283.63129	0.91536
1281.57748	0.91119
1279.52367	0.90707
1277.46986	0.90315
1275.41605	0.89942
1273.36224	0.89586
1271.30843	0.89259
1269.25462	0.88971
1267.20081	0.88723
1265.14700	0.88530
1263.09319	0.88401
1261.03938	0.88309
1258.98557	0.88213
1256.93176	0.88084
1254.87795	0.87916
1252.82414	0.87718
1250.77033	0.87518
1248.71652	0.87352
1246.66271	0.87260
1244.60890	0.87267
1242.55509	0.87379
1240.50128	0.87575
1238.44747	0.87790
1236.39366	0.87967
1234.33985	0.88087
1232.28604	0.88115
1230.23223	0.88055
1228.17842	0.87959
1226.12461	0.87833
1224.07080	0.87680
1222.01699	0.87553
1219.96318	0.87478
1217.90937	0.87451
1215.85556	0.87493
1213.80175	0.87644
1211.74794	0.87901
1209.69413	0.88205
1207.64032	0.88514
1205.58651	0.88824
1203.53270	0.89135
1201.47889	0.89437
1199.42508	0.89712
1197.37127	0.89946
1195.31746	0.90126
1193.26365	0.90227
1191.20984	0.90274
1189.15603	0.90296
1187.10222	0.90273
1185.04841	0.90199
1182.99460	0.90072
1180.94079	0.89904
1178.88698	0.89733
1176.83317	0.89570
1174.77936	0.89389
1172.72555	0.89179
1170.67174	0.88964
1168.61793	0.88765
1166.56412	0.88575
1164.51031	0.88396
1162.45650	0.88239
1160.40269	0.88101
1158.34888	0.87991
1156.29507	0.87938
1154.24126	0.87915
1152.18745	0.87881
1150.13364	0.87849
1148.07983	0.87830
1146.02602	0.87805
1143.97221	0.87762
1141.91840	0.87704
1139.86459	0.87649
1137.81078	0.87602
1135.75697	0.87512
1133.70316	0.87347
1131.64935	0.87162
1129.59554	0.86989
1127.54173	0.86791
1125.48792	0.86562
1123.43411	0.86327
1121.38030	0.86085
1119.32649	0.85851
1117.27268	0.85661
1115.21887	0.85520
1113.16506	0.85430
1111.11125	0.85343
1109.05744	0.85153
1107.00363	0.84863
1104.94982	0.84558
1102.89601	0.84275
1100.84220	0.84018
1098.78839	0.83826
1096.73458	0.83745
1094.68077	0.83773
1092.62696	0.83876
1090.57315	0.83994
1088.51934	0.84007
1086.46553	0.83804
1084.41172	0.83406
1082.35791	0.83015
1080.30410	0.82797
1078.25029	0.82720
1076.19648	0.82728
1074.14267	0.82814
1072.08886	0.82947
1070.03505	0.83072
1067.98124	0.83168
1065.92743	0.83258
1063.87362	0.83355
1061.81981	0.83458
1059.76600	0.83545
1057.71219	0.83601
1055.65838	0.83636
1053.60457	0.83655
1051.55076	0.83636
1049.49695	0.83553
1047.44314	0.83415
1045.38933	0.83269
1043.33552	0.83158
1041.28171	0.83101
1039.22790	0.83073
1037.17409	0.83040
1035.12028	0.82986
1033.06647	0.82911
1031.01265	0.82826
1028.95884	0.82739
1026.90503	0.82645
1024.85122	0.82523
1022.79741	0.82302
1020.74360	0.81907
1018.68979	0.81420
1016.63598	0.81086
1014.58217	0.81062
1012.52836	0.81257
1010.47455	0.81499
1008.42074	0.81706
1006.36693	0.81841
1004.31312	0.81901
1002.25931	0.81907
1000.20550	0.81891
998.15169	0.81889
996.09788	0.81922
994.04407	0.81992
991.99026	0.82075
989.93645	0.82159
987.88264	0.82247
985.82883	0.82355
983.77502	0.82481
981.72121	0.82587
979.66740	0.82670
977.61359	0.82752
975.55978	0.82836
973.50597	0.82946
971.45216	0.83071
969.39835	0.83185
967.34454	0.83316
965.29073	0.83498
963.23692	0.83729
961.18311	0.83975
959.12930	0.84215
957.07549	0.84451
955.02168	0.84680
952.96787	0.84902
950.91406	0.85099
948.86025	0.85266
946.80644	0.85415
944.75263	0.85550
942.69882	0.85683
940.64501	0.85813
938.59120	0.85917
936.53739	0.85989
934.48358	0.86042
932.42977	0.86123
930.37596	0.86248
928.32215	0.86365
926.26834	0.86435
924.21453	0.86470
922.16072	0.86483
920.10691	0.86477
918.05310	0.86490
915.99929	0.86535
913.94548	0.86602
911.89167	0.86707
909.83786	0.86859
907.78405	0.87056
905.73024	0.87226
903.67643	0.87303
901.62262	0.87370
899.56881	0.87510
897.51500	0.87689
895.46119	0.87808
893.40738	0.87831
891.35357	0.87808
889.29976	0.87796
887.24595	0.87799
885.19214	0.87776
883.13833	0.87698
881.08452	0.87552
879.03071	0.87314
876.97690	0.87046
874.92309	0.86869
872.86928	0.86821
870.81547	0.86893
868.76166	0.87073
866.70785	0.87314
864.65404	0.87581
862.60023	0.87808
860.54642	0.87917
858.49261	0.87927
856.43880	0.87961
854.38499	0.88072
852.33118	0.88181
850.27737	0.88229
848.22356	0.88187
846.16975	0.88108
844.11594	0.88100
842.06213	0.88104
840.00832	0.88025
837.95451	0.87920
835.90070	0.87867
833.84689	0.87895
831.79308	0.88017
829.73927	0.88172
827.68546	0.88311
825.63165	0.88461
823.57784	0.88611
821.52403	0.88757
819.47022	0.88918
817.41641	0.89070
815.36260	0.89154
813.30879	0.89206
811.25498	0.89301
809.20117	0.89356
807.14736	0.89325
805.09355	0.89311
803.03974	0.89345
800.98593	0.89318
798.93212	0.89195
796.87831	0.89081
794.82450	0.89077
792.77069	0.89212
790.71688	0.89385
788.66307	0.89491
786.60926	0.89561
784.55545	0.89589
782.50164	0.89520
780.44783	0.89407
778.39402	0.89322
776.34021	0.89277
774.28640	0.89266
772.23259	0.89290
770.17878	0.89304
768.12497	0.89285
766.07116	0.89267
764.01735	0.89266
761.96354	0.89277
759.90973	0.89348
757.85592	0.89526
755.80211	0.89716
753.74830	0.89825
751.69449	0.89889
749.64068	0.89959
747.58687	0.89998
745.53306	0.89972
743.47925	0.89885
741.42544	0.89663
739.37163	0.89219
737.31781	0.88490
735.26400	0.87447
733.21019	0.86231
731.15638	0.85142
729.10257	0.84447
727.04876	0.84330
724.99495	0.84810
722.94114	0.85569
720.88733	0.86221
718.83352	0.86615
716.77971	0.86786
714.72590	0.86834
712.67209	0.86866
710.61828	0.86898
708.56447	0.86832
706.51066	0.86606
704.45685	0.86274
702.40304	0.85952
700.34923	0.85761
698.29542	0.85784
696.24161	0.86030
694.18780	0.86464
692.13399	0.86955
690.08018	0.87321
688.02637	0.87564
685.97256	0.87808
683.91875	0.88042
681.86494	0.88144
679.81113	0.88142
677.75732	0.88136
675.70351	0.88130
673.64970	0.88128
671.59589	0.88153
669.54208	0.88186
667.48827	0.88188
665.43446	0.88203
663.38065	0.88250
661.32684	0.88297
659.27303	0.88309
657.21922	0.88269
655.16541	0.88133
653.11160	0.87932
651.05779	0.87886
649.00398	0.88002
646.95017	0.88037
644.89636	0.87954
642.84255	0.87842
640.78874	0.87711
638.73493	0.87505
636.68112	0.87194
634.62731	0.86925
632.57350	0.86870
630.51969	0.86982
628.46588	0.87116
626.41207	0.87168
624.35826	0.87146
622.30445	0.87144
620.25064	0.87212
618.19683	0.87298
616.14302	0.87321
614.08921	0.87276
612.03540	0.87218
609.98159	0.87154
607.92778	0.87064
605.87397	0.86943
603.82016	0.86719
601.76635	0.86419
599.71254	0.86186
597.65873	0.86081
595.60492	0.86021
593.55111	0.85866
591.49730	0.85638
589.44349	0.85550
587.38968	0.85706
585.33587	0.85859
583.28206	0.85795
581.22825	0.85682
579.17444	0.85714
577.12063	0.85840
575.06682	0.85926
573.01301	0.86017
570.95920	0.86185
568.90539	0.86249
566.85158	0.86147
564.79777	0.86069
562.74396	0.86029
560.69015	0.85943
558.63634	0.85825
556.58253	0.85794
554.52872	0.85865
552.47491	0.85856
550.42110	0.85709
548.36729	0.85485
546.31348	0.85200
544.25967	0.84975
542.20586	0.84898
540.15205	0.84833
538.09824	0.84674
536.04443	0.84516
533.99062	0.84490
531.93681	0.84542
529.88300	0.84520
527.82919	0.84404
525.77538	0.84264
523.72157	0.84230
521.66776	0.84268
519.61395	0.84132
517.56014	0.83873
515.50633	0.83776
513.45252	0.83809
511.39871	0.83778
509.34490	0.83632
507.29109	0.83476
505.23728	0.83396
503.18347	0.83357
501.12966	0.83307
499.07585	0.83206
497.02204	0.83030
494.96823	0.82932
492.91442	0.82998
490.86061	0.83049
488.80680	0.83002
486.75299	0.82771
484.69918	0.82366
482.64537	0.82120
480.59156	0.82038
478.53775	0.81826
476.48394	0.81392
474.43013	0.80825
472.37632	0.80357
470.32251	0.80174
468.26870	0.80170
466.21489	0.80200
464.16108	0.80174
462.10727	0.80068
460.05346	0.79967
457.99965	0.79899
455.94584	0.79916
453.89203	0.80106
451.83822	0.80229
449.78441	0.80074
447.73060	0.79922
445.67679	0.79905
443.62298	0.79890
441.56916	0.79850
439.51535	0.79807
437.46154	0.79851
435.40773	0.79961
433.35392	0.79965
431.30011	0.79742
429.24630	0.79463
427.19249	0.79479
425.13868	0.79663
423.08487	0.79726
421.03106	0.79837
418.97725	0.79893
416.92344	0.79543
414.86963	0.79273
412.81582	0.79248
410.76201	0.79275
408.70820	0.79468
406.65439	0.79831
404.60058	0.80048
402.54677	0.80112
400.49296	0.80087
398.43915	0.79688
