3996.71440	0.00531
3994.66059	0.00536
3992.60678	0.00553
3990.55297	0.00556
3988.49916	0.00540
3986.44535	0.00534
3984.39154	0.00550
3982.33773	0.00573
3980.28391	0.00578
3978.23010	0.00560
3976.17629	0.00538
3974.12248	0.00530
3972.06867	0.00533
3970.01486	0.00542
3967.96105	0.00552
3965.90724	0.00559
3963.85343	0.00565
3961.79962	0.00564
3959.74581	0.00546
3957.69200	0.00521
3955.63819	0.00509
3953.58438	0.00511
3951.53057	0.00524
3949.47676	0.00543
3947.42295	0.00560
3945.36914	0.00571
3943.31533	0.00572
3941.26152	0.00565
3939.20771	0.00561
3937.15390	0.00559
3935.10009	0.00552
3933.04628	0.00538
3930.99247	0.00533
3928.93866	0.00545
3926.88485	0.00556
3924.83104	0.00552
3922.77723	0.00541
3920.72342	0.00542
3918.66961	0.00557
3916.61580	0.00569
3914.56199	0.00572
3912.50818	0.00566
3910.45437	0.00567
3908.40056	0.00581
3906.34675	0.00591
3904.29294	0.00583
3902.23913	0.00567
3900.18532	0.00545
3898.13151	0.00532
3896.07770	0.00548
3894.02389	0.00575
3891.97008	0.00576
3889.91627	0.00552
3887.86246	0.00543
3885.80865	0.00554
3883.75484	0.00566
3881.70103	0.00570
3879.64722	0.00569
3877.59341	0.00567
3875.53960	0.00564
3873.48579	0.00566
3871.43198	0.00569
3869.37817	0.00555
3867.32436	0.00544
3865.27055	0.00567
3863.21674	0.00596
3861.16293	0.00590
3859.10912	0.00580
3857.05531	0.00580
3855.00150	0.00564
3852.94769	0.00534
3850.89388	0.00523
3848.84007	0.00525
3846.78626	0.00541
3844.73245	0.00553
3842.67864	0.00552
3840.62483	0.00555
3838.57102	0.00554
3836.51721	0.00543
3834.46340	0.00532
3832.40959	0.00526
3830.35578	0.00538
3828.30197	0.00555
3826.24816	0.00551
3824.19435	0.00540
3822.14054	0.00535
3820.08673	0.00525
3818.03292	0.00517
3815.97911	0.00518
3813.92530	0.00521
3811.87149	0.00533
3809.81768	0.00552
3807.76387	0.00564
3805.71006	0.00560
3803.65625	0.00549
3801.60244	0.00542
3799.54863	0.00538
3797.49482	0.00529
3795.44101	0.00514
3793.38720	0.00510
3791.33339	0.00521
3789.27958	0.00528
3787.22577	0.00522
3785.17196	0.00515
3783.11815	0.00512
3781.06434	0.00512
3779.01053	0.00518
3776.95672	0.00521
3774.90291	0.00511
3772.84910	0.00503
3770.79529	0.00514
3768.74148	0.00540
3766.68767	0.00552
3764.63386	0.00536
3762.58005	0.00509
3760.52624	0.00491
3758.47243	0.00488
3756.41862	0.00492
3754.36481	0.00500
3752.31100	0.00506
3750.25719	0.00515
3748.20338	0.00529
3746.14957	0.00538
3744.09576	0.00530
3742.04195	0.00511
3739.98814	0.00506
3737.93433	0.00510
3735.88052	0.00508
3733.82671	0.00514
3731.77290	0.00530
3729.71909	0.00531
3727.66528	0.00518
3725.61147	0.00504
3723.55766	0.00505
3721.50385	0.00522
3719.45004	0.00535
3717.39623	0.00532
3715.34242	0.00516
3713.28861	0.00503
3711.23480	0.00501
3709.18099	0.00508
3707.12718	0.00522
3705.07337	0.00549
3703.01956	0.00578
3700.96575	0.00589
3698.91194	0.00588
3696.85813	0.00586
3694.80432	0.00593
3692.75051	0.00608
3690.69670	0.00614
3688.64289	0.00603
3686.58907	0.00588
3684.53526	0.00584
3682.48145	0.00599
3680.42764	0.00610
3678.37383	0.00603
3676.32002	0.00601
3674.26621	0.00605
3672.21240	0.00599
3670.15859	0.00584
3668.10478	0.00575
3666.05097	0.00591
3663.99716	0.00607
3661.94335	0.00613
3659.88954	0.00625
3657.83573	0.00633
3655.78192	0.00630
3653.72811	0.00638
3651.67430	0.00659
3649.62049	0.00687
3647.56668	0.00705
3645.51287	0.00705
3643.45906	0.00701
3641.40525	0.00702
3639.35144	0.00694
3637.29763	0.00688
3635.24382	0.00704
3633.19001	0.00727
3631.13620	0.00739
3629.08239	0.00752
3627.02858	0.00756
3624.97477	0.00757
3622.92096	0.00767
3620.86715	0.00777
3618.81334	0.00773
3616.75953	0.00766
3614.70572	0.00766
3612.65191	0.00775
3610.59810	0.00796
3608.54429	0.00817
3606.49048	0.00826
3604.43667	0.00832
3602.38286	0.00832
3600.32905	0.00817
3598.27524	0.00812
3596.22143	0.00820
3594.16762	0.00812
3592.11381	0.00799
3590.06000	0.00800
3588.00619	0.00816
3585.95238	0.00838
3583.89857	0.00858
3581.84476	0.00867
3579.79095	0.00873
3577.73714	0.00877
3575.68333	0.00869
3573.62952	0.00856
3571.57571	0.00856
3569.52190	0.00861
3567.46809	0.00869
3565.41428	0.00893
3563.36047	0.00913
3561.30666	0.00919
3559.25285	0.00917
3557.19904	0.00912
3555.14523	0.00911
3553.09142	0.00929
3551.03761	0.00954
3548.98380	0.00964
3546.92999	0.00976
3544.87618	0.00999
3542.82237	0.01009
3540.76856	0.01009
3538.71475	0.01012
3536.66094	0.01018
3534.60713	0.01032
3532.55332	0.01046
3530.49951	0.01046
3528.44570	0.01034
3526.39189	0.01035
3524.33808	0.01049
3522.28427	0.01057
3520.23046	0.01057
3518.17665	0.01063
3516.12284	0.01074
3514.06903	0.01074
3512.01522	0.01070
3509.96141	0.01079
3507.90760	0.01104
3505.85379	0.01114
3503.79998	0.01101
3501.74617	0.01093
3499.69236	0.01098
3497.63855	0.01104
3495.58474	0.01119
3493.53093	0.01140
3491.47712	0.01153
3489.42331	0.01157
3487.36950	0.01159
3485.31569	0.01157
3483.26188	0.01154
3481.20807	0.01158
3479.15426	0.01172
3477.10045	0.01183
3475.04664	0.01185
3472.99283	0.01184
3470.93902	0.01186
3468.88521	0.01191
3466.83140	0.01202
3464.77759	0.01213
3462.72378	0.01217
3460.66997	0.01225
3458.61616	0.01239
3456.56235	0.01240
3454.50854	0.01230
3452.45473	0.01229
3450.40092	0.01237
3448.34711	0.01243
3446.29330	0.01234
3444.23949	0.01220
3442.18568	0.01227
3440.13187	0.01247
3438.07806	0.01252
3436.02425	0.01253
3433.97044	0.01264
3431.91663	0.01263
3429.86282	0.01247
3427.80901	0.01246
3425.75520	0.01260
3423.70139	0.01267
3421.64758	0.01264
3419.59377	0.01266
3417.53996	0.01272
3415.48615	0.01285
3413.43234	0.01298
3411.37853	0.01293
3409.32472	0.01276
3407.27091	0.01268
3405.21710	0.01277
3403.16329	0.01299
3401.10948	0.01308
3399.05567	0.01301
3397.00186	0.01299
3394.94805	0.01306
3392.89424	0.01303
3390.84042	0.01294
3388.78661	0.01300
3386.73280	0.01315
3384.67899	0.01324
3382.62518	0.01326
3380.57137	0.01322
3378.51756	0.01313
3376.46375	0.01304
3374.40994	0.01291
3372.35613	0.01280
3370.30232	0.01285
3368.24851	0.01298
3366.19470	0.01309
3364.14089	0.01314
3362.08708	0.01313
3360.03327	0.01313
3357.97946	0.01318
3355.92565	0.01323
3353.87184	0.01309
3351.81803	0.01289
3349.76422	0.01288
3347.71041	0.01292
3345.65660	0.01292
3343.60279	0.01296
3341.54898	0.01299
3339.49517	0.01294
3337.44136	0.01284
3335.38755	0.01285
3333.33374	0.01293
3331.27993	0.01292
3329.22612	0.01279
3327.17231	0.01273
3325.11850	0.01277
3323.06469	0.01290
3321.01088	0.01297
3318.95707	0.01291
3316.90326	0.01279
3314.84945	0.01272
3312.79564	0.01277
3310.74183	0.01281
3308.68802	0.01282
3306.63421	0.01284
3304.58040	0.01281
3302.52659	0.01273
3300.47278	0.01266
3298.41897	0.01269
3296.36516	0.01277
3294.31135	0.01277
3292.25754	0.01273
3290.20373	0.01276
3288.14992	0.01278
3286.09611	0.01284
3284.04230	0.01297
3281.98849	0.01305
3279.93468	0.01295
3277.88087	0.01275
3275.82706	0.01266
3273.77325	0.01268
3271.71944	0.01266
3269.66563	0.01266
3267.61182	0.01268
3265.55801	0.01271
3263.50420	0.01283
3261.45039	0.01294
3259.39658	0.01282
3257.34277	0.01263
3255.28896	0.01261
3253.23515	0.01261
3251.18134	0.01255
3249.12753	0.01249
3247.07372	0.01253
3245.01991	0.01263
3242.96610	0.01261
3240.91229	0.01244
3238.85848	0.01237
3236.80467	0.01244
3234.75086	0.01238
3232.69705	0.01231
3230.64324	0.01241
3228.58943	0.01254
3226.53562	0.01254
3224.48181	0.01243
3222.42800	0.01250
3220.37419	0.01269
3218.32038	0.01265
3216.26657	0.01242
3214.21276	0.01235
3212.15895	0.01245
3210.10514	0.01252
3208.05133	0.01252
3205.99752	0.01251
3203.94371	0.01252
3201.88990	0.01243
3199.83609	0.01222
3197.78228	0.01205
3195.72847	0.01202
3193.67466	0.01213
3191.62085	0.01223
3189.56704	0.01223
3187.51323	0.01216
3185.45942	0.01203
3183.40561	0.01190
3181.35180	0.01181
3179.29799	0.01189
3177.24418	0.01211
3175.19037	0.01227
3173.13656	0.01227
3171.08275	0.01214
3169.02894	0.01189
3166.97513	0.01175
3164.92132	0.01180
3162.86751	0.01188
3160.81370	0.01185
3158.75989	0.01178
3156.70608	0.01170
3154.65227	0.01162
3152.59846	0.01158
3150.54465	0.01161
3148.49084	0.01164
3146.43703	0.01172
3144.38322	0.01178
3142.32941	0.01175
3140.27560	0.01166
3138.22179	0.01156
3136.16798	0.01158
3134.11417	0.01167
3132.06036	0.01163
3130.00655	0.01160
3127.95274	0.01165
3125.89893	0.01171
3123.84512	0.01179
3121.79131	0.01180
3119.73750	0.01174
3117.68369	0.01168
3115.62988	0.01174
3113.57607	0.01180
3111.52226	0.01181
3109.46845	0.01184
3107.41464	0.01186
3105.36083	0.01187
3103.30702	0.01195
3101.25321	0.01202
3099.19940	0.01207
3097.14559	0.01214
3095.09177	0.01217
3093.03796	0.01223
3090.98415	0.01240
3088.93034	0.01260
3086.87653	0.01276
3084.82272	0.01278
3082.76891	0.01262
3080.71510	0.01252
3078.66129	0.01268
3076.60748	0.01284
3074.55367	0.01283
3072.49986	0.01274
3070.44605	0.01260
3068.39224	0.01250
3066.33843	0.01249
3064.28462	0.01247
3062.23081	0.01249
3060.17700	0.01265
3058.12319	0.01283
3056.06938	0.01294
3054.01557	0.01303
3051.96176	0.01305
3049.90795	0.01299
3047.85414	0.01299
3045.80033	0.01306
3043.74652	0.01315
3041.69271	0.01330
3039.63890	0.01349
3037.58509	0.01356
3035.53128	0.01345
3033.47747	0.01334
3031.42366	0.01339
3029.36985	0.01345
3027.31604	0.01338
3025.26223	0.01337
3023.20842	0.01353
3021.15461	0.01373
3019.10080	0.01385
3017.04699	0.01385
3014.99318	0.01381
3012.93937	0.01380
3010.88556	0.01381
3008.83175	0.01380
3006.77794	0.01391
3004.72413	0.01421
3002.67032	0.01451
3000.61651	0.01470
2998.56270	0.01478
2996.50889	0.01486
2994.45508	0.01508
2992.40127	0.01549
2990.34746	0.01595
2988.29365	0.01641
2986.23984	0.01691
2984.18603	0.01752
2982.13222	0.01826
2980.07841	0.01904
2978.02460	0.01997
2975.97079	0.02111
2973.91698	0.02235
2971.86317	0.02369
2969.80936	0.02534
2967.75555	0.02716
2965.70174	0.02886
2963.64793	0.03045
2961.59412	0.03200
2959.54031	0.03332
2957.48650	0.03443
2955.43269	0.03560
2953.37888	0.03691
2951.32507	0.03855
2949.27126	0.04092
2947.21745	0.04433
2945.16364	0.04894
2943.10983	0.05488
2941.05602	0.06227
2939.00221	0.07119
2936.94840	0.08158
2934.89459	0.09355
2932.84078	0.10761
2930.78697	0.12448
2928.73316	0.14492
2926.67935	0.17018
2924.62554	0.20242
2922.57173	0.24349
2920.51792	0.29247
2918.46411	0.34323
2916.41030	0.38235
2914.35649	0.39362
2912.30268	0.37316
2910.24887	0.33436
2908.19506	0.29344
2906.14125	0.25888
2904.08744	0.23236
2902.03363	0.21249
2899.97982	0.19714
2897.92601	0.18423
2895.87220	0.17250
2893.81839	0.16157
2891.76458	0.15101
2889.71077	0.14049
2887.65696	0.13013
2885.60315	0.12012
2883.54934	0.11050
2881.49553	0.10124
2879.44172	0.09243
2877.38791	0.08446
2875.33410	0.07780
2873.28029	0.07278
2871.22648	0.06951
2869.17267	0.06815
2867.11886	0.06888
2865.06505	0.07201
2863.01124	0.07822
2860.95743	0.08852
2858.90362	0.10449
2856.84981	0.12914
2854.79600	0.16727
2852.74219	0.22404
2850.68838	0.29577
2848.63457	0.35362
2846.58076	0.35644
2844.52695	0.30567
2842.47314	0.23982
2840.41933	0.18393
2838.36552	0.14289
2836.31171	0.11410
2834.25790	0.09402
2832.20409	0.07971
2830.15028	0.06914
2828.09647	0.06108
2826.04266	0.05478
2823.98885	0.04972
2821.93504	0.04565
2819.88123	0.04234
2817.82742	0.03960
2815.77361	0.03727
2813.71980	0.03517
2811.66599	0.03338
2809.61218	0.03193
2807.55837	0.03061
2805.50456	0.02933
2803.45075	0.02820
2801.39693	0.02727
2799.34312	0.02645
2797.28931	0.02559
2795.23550	0.02466
2793.18169	0.02377
2791.12788	0.02298
2789.07407	0.02226
2787.02026	0.02164
2784.96645	0.02103
2782.91264	0.02041
2780.85883	0.01989
2778.80502	0.01945
2776.75121	0.01900
2774.69740	0.01857
2772.64359	0.01818
2770.58978	0.01785
2768.53597	0.01763
2766.48216	0.01744
2764.42835	0.01713
2762.37454	0.01686
2760.32073	0.01674
2758.26692	0.01663
2756.21311	0.01645
2754.15930	0.01621
2752.10549	0.01602
2750.05168	0.01591
2747.99787	0.01589
2745.94406	0.01588
2743.89025	0.01578
2741.83644	0.01569
2739.78263	0.01568
2737.72882	0.01565
2735.67501	0.01556
2733.62120	0.01544
2731.56739	0.01525
2729.51358	0.01509
2727.45977	0.01494
2725.40596	0.01480
2723.35215	0.01470
2721.29834	0.01463
2719.24453	0.01451
2717.19072	0.01437
2715.13691	0.01426
2713.08310	0.01416
2711.02929	0.01409
2708.97548	0.01409
2706.92167	0.01410
2704.86786	0.01407
2702.81405	0.01397
2700.76024	0.01384
2698.70643	0.01373
2696.65262	0.01360
2694.59881	0.01349
2692.54500	0.01349
2690.49119	0.01357
2688.43738	0.01358
2686.38357	0.01353
2684.32976	0.01350
2682.27595	0.01349
2680.22214	0.01353
2678.16833	0.01361
2676.11452	0.01362
2674.06071	0.01363
2672.00690	0.01380
2669.95309	0.01409
2667.89928	0.01430
2665.84547	0.01435
2663.79166	0.01435
2661.73785	0.01439
2659.68404	0.01449
2657.63023	0.01452
2655.57642	0.01442
2653.52261	0.01426
2651.46880	0.01415
2649.41499	0.01417
2647.36118	0.01426
2645.30737	0.01427
2643.25356	0.01424
2641.19975	0.01426
2639.14594	0.01428
2637.09213	0.01426
2635.03832	0.01417
2632.98451	0.01400
2630.93070	0.01384
2628.87689	0.01379
2626.82308	0.01369
2624.76927	0.01337
2622.71546	0.01307
2620.66165	0.01297
2618.60784	0.01301
2616.55403	0.01296
2614.50022	0.01272
2612.44641	0.01248
2610.39260	0.01233
2608.33879	0.01223
2606.28498	0.01214
2604.23117	0.01202
2602.17736	0.01177
2600.12355	0.01148
2598.06974	0.01125
2596.01593	0.01119
2593.96212	0.01121
2591.90831	0.01115
2589.85450	0.01102
2587.80069	0.01081
2585.74688	0.01059
2583.69307	0.01048
2581.63926	0.01053
2579.58545	0.01065
2577.53164	0.01072
2575.47783	0.01067
2573.42402	0.01062
2571.37021	0.01053
2569.31640	0.01032
2567.26259	0.01015
2565.20878	0.01020
2563.15497	0.01031
2561.10116	0.01026
2559.04735	0.01007
2556.99354	0.00992
2554.93973	0.00985
2552.88592	0.00980
2550.83211	0.00984
2548.77830	0.00989
2546.72449	0.00978
2544.67068	0.00969
2542.61687	0.00969
2540.56306	0.00952
2538.50925	0.00930
2536.45544	0.00929
2534.40163	0.00933
2532.34782	0.00934
2530.29401	0.00936
2528.24020	0.00937
2526.18639	0.00937
2524.13258	0.00933
2522.07877	0.00917
2520.02496	0.00902
2517.97115	0.00898
2515.91734	0.00886
2513.86353	0.00864
2511.80972	0.00846
2509.75591	0.00827
2507.70210	0.00806
2505.64828	0.00800
2503.59447	0.00820
2501.54066	0.00846
2499.48685	0.00853
2497.43304	0.00838
2495.37923	0.00821
2493.32542	0.00816
2491.27161	0.00810
2489.21780	0.00792
2487.16399	0.00778
2485.11018	0.00772
2483.05637	0.00765
2481.00256	0.00764
2478.94875	0.00771
2476.89494	0.00787
2474.84113	0.00797
2472.78732	0.00790
2470.73351	0.00775
2468.67970	0.00746
2466.62589	0.00720
2464.57208	0.00726
2462.51827	0.00749
2460.46446	0.00749
2458.41065	0.00732
2456.35684	0.00725
2454.30303	0.00720
2452.24922	0.00714
2450.19541	0.00710
2448.14160	0.00714
2446.08779	0.00726
2444.03398	0.00736
2441.98017	0.00733
2439.92636	0.00722
2437.87255	0.00709
2435.81874	0.00702
2433.76493	0.00713
2431.71112	0.00720
2429.65731	0.00701
2427.60350	0.00689
2425.54969	0.00704
2423.49588	0.00716
2421.44207	0.00714
2419.38826	0.00718
2417.33445	0.00724
2415.28064	0.00713
2413.22683	0.00700
2411.17302	0.00701
2409.11921	0.00699
2407.06540	0.00690
2405.01159	0.00682
2402.95778	0.00671
2400.90397	0.00671
2398.85016	0.00689
2396.79635	0.00696
2394.74254	0.00679
2392.68873	0.00664
2390.63492	0.00665
2388.58111	0.00671
2386.52730	0.00675
2384.47349	0.00671
2382.41968	0.00671
2380.36587	0.00684
2378.31206	0.00691
2376.25825	0.00686
2374.20444	0.00685
2372.15063	0.00686
2370.09682	0.00681
2368.04301	0.00681
2365.98920	0.00683
2363.93539	0.00675
2361.88158	0.00678
2359.82777	0.00703
2357.77396	0.00727
2355.72015	0.00718
2353.66634	0.00706
2351.61253	0.00721
2349.55872	0.00733
2347.50491	0.00741
2345.45110	0.00760
2343.39729	0.00768
2341.34348	0.00763
2339.28967	0.00776
2337.23586	0.00783
2335.18205	0.00765
2333.12824	0.00758
2331.07443	0.00774
2329.02062	0.00784
2326.96681	0.00791
2324.91300	0.00811
2322.85919	0.00814
2320.80538	0.00783
2318.75157	0.00751
2316.69776	0.00738
2314.64395	0.00755
2312.59014	0.00785
2310.53633	0.00779
2308.48252	0.00746
2306.42871	0.00726
2304.37490	0.00729
2302.32109	0.00747
2300.26728	0.00758
2298.21347	0.00745
2296.15966	0.00726
2294.10585	0.00719
2292.05204	0.00725
2289.99823	0.00733
2287.94442	0.00747
2285.89061	0.00753
2283.83680	0.00740
2281.78299	0.00728
2279.72918	0.00722
2277.67537	0.00718
2275.62156	0.00704
2273.56775	0.00667
2271.51394	0.00623
2269.46013	0.00591
2267.40632	0.00563
2265.35251	0.00556
2263.29870	0.00580
2261.24489	0.00598
2259.19108	0.00595
2257.13727	0.00596
2255.08346	0.00606
2253.02965	0.00601
2250.97584	0.00586
2248.92203	0.00608
2246.86822	0.00642
2244.81441	0.00627
2242.76060	0.00578
2240.70679	0.00548
2238.65298	0.00554
2236.59917	0.00590
2234.54536	0.00620
2232.49155	0.00603
2230.43774	0.00568
2228.38393	0.00570
2226.33012	0.00588
2224.27631	0.00579
2222.22250	0.00569
2220.16869	0.00583
2218.11488	0.00614
2216.06107	0.00633
2214.00726	0.00615
2211.95344	0.00593
2209.89963	0.00604
2207.84582	0.00603
2205.79201	0.00548
2203.73820	0.00498
2201.68439	0.00490
2199.63058	0.00510
2197.57677	0.00569
2195.52296	0.00621
2193.46915	0.00630
2191.41534	0.00612
2189.36153	0.00550
2187.30772	0.00465
2185.25391	0.00455
2183.20010	0.00506
2181.14629	0.00517
2179.09248	0.00505
2177.03867	0.00507
2174.98486	0.00496
2172.93105	0.00479
2170.87724	0.00497
2168.82343	0.00543
2166.76962	0.00577
2164.71581	0.00613
2162.66200	0.00656
2160.60819	0.00588
2158.55438	0.00430
2156.50057	0.00359
2154.44676	0.00375
2152.39295	0.00405
2150.33914	0.00421
2148.28533	0.00412
2146.23152	0.00380
2144.17771	0.00363
2142.12390	0.00398
2140.07009	0.00454
2138.01628	0.00506
2135.96247	0.00528
2133.90866	0.00495
2131.85485	0.00467
2129.80104	0.00498
2127.74723	0.00536
2125.69342	0.00524
2123.63961	0.00515
2121.58580	0.00540
2119.53199	0.00540
2117.47818	0.00532
2115.42437	0.00563
2113.37056	0.00604
2111.31675	0.00619
2109.26294	0.00611
2107.20913	0.00591
2105.15532	0.00563
2103.10151	0.00545
2101.04770	0.00540
2098.99389	0.00522
2096.94008	0.00506
2094.88627	0.00527
2092.83246	0.00559
2090.77865	0.00552
2088.72484	0.00548
2086.67103	0.00565
2084.61722	0.00567
2082.56341	0.00553
2080.50960	0.00535
2078.45579	0.00533
2076.40198	0.00552
2074.34817	0.00565
2072.29436	0.00575
2070.24055	0.00598
2068.18674	0.00596
2066.13293	0.00565
2064.07912	0.00546
2062.02531	0.00550
2059.97150	0.00568
2057.91769	0.00592
2055.86388	0.00615
2053.81007	0.00607
2051.75626	0.00576
2049.70245	0.00557
2047.64864	0.00561
2045.59483	0.00581
2043.54102	0.00577
2041.48721	0.00554
2039.43340	0.00556
2037.37959	0.00587
2035.32578	0.00616
2033.27197	0.00600
2031.21816	0.00583
2029.16435	0.00600
2027.11054	0.00574
2025.05673	0.00512
2023.00292	0.00514
2020.94911	0.00560
2018.89530	0.00562
2016.84149	0.00549
2014.78768	0.00566
2012.73387	0.00569
2010.68006	0.00555
2008.62625	0.00513
2006.57244	0.00467
2004.51863	0.00486
2002.46482	0.00530
2000.41101	0.00536
1998.35720	0.00520
1996.30339	0.00515
1994.24958	0.00505
1992.19577	0.00507
1990.14196	0.00545
1988.08815	0.00545
1986.03434	0.00537
1983.98053	0.00609
1981.92672	0.00672
1979.87291	0.00634
1977.81910	0.00553
1975.76529	0.00471
1973.71148	0.00413
1971.65767	0.00421
1969.60386	0.00486
1967.55005	0.00503
1965.49624	0.00457
1963.44243	0.00485
1961.38862	0.00537
1959.33481	0.00503
1957.28100	0.00452
1955.22719	0.00453
1953.17338	0.00490
1951.11957	0.00532
1949.06576	0.00541
1947.01195	0.00498
1944.95814	0.00443
1942.90433	0.00452
1940.85052	0.00516
1938.79671	0.00556
1936.74290	0.00571
1934.68909	0.00590
1932.63528	0.00590
1930.58147	0.00561
1928.52766	0.00537
1926.47385	0.00539
1924.42004	0.00566
1922.36623	0.00599
1920.31242	0.00606
1918.25861	0.00596
1916.20479	0.00606
1914.15098	0.00638
1912.09717	0.00658
1910.04336	0.00645
1907.98955	0.00621
1905.93574	0.00613
1903.88193	0.00612
1901.82812	0.00615
1899.77431	0.00638
1897.72050	0.00660
1895.66669	0.00647
1893.61288	0.00623
1891.55907	0.00605
1889.50526	0.00593
1887.45145	0.00598
1885.39764	0.00615
1883.34383	0.00622
1881.29002	0.00615
1879.23621	0.00607
1877.18240	0.00614
1875.12859	0.00631
1873.07478	0.00639
1871.02097	0.00626
1868.96716	0.00601
1866.91335	0.00596
1864.85954	0.00619
1862.80573	0.00639
1860.75192	0.00635
1858.69811	0.00619
1856.64430	0.00619
1854.59049	0.00632
1852.53668	0.00638
1850.48287	0.00637
1848.42906	0.00637
1846.37525	0.00641
1844.32144	0.00643
1842.26763	0.00647
1840.21382	0.00654
1838.16001	0.00660
1836.10620	0.00659
1834.05239	0.00655
1831.99858	0.00653
1829.94477	0.00656
1827.89096	0.00664
1825.83715	0.00677
1823.78334	0.00699
1821.72953	0.00715
1819.67572	0.00716
1817.62191	0.00712
1815.56810	0.00727
1813.51429	0.00757
1811.46048	0.00782
1809.40667	0.00794
1807.35286	0.00803
1805.29905	0.00815
1803.24524	0.00840
1801.19143	0.00871
1799.13762	0.00908
1797.08381	0.00955
1795.03000	0.01002
1792.97619	0.01057
1790.92238	0.01131
1788.86857	0.01204
1786.81476	0.01262
1784.76095	0.01315
1782.70714	0.01377
1780.65333	0.01445
1778.59952	0.01499
1776.54571	0.01538
1774.49190	0.01588
1772.43809	0.01650
1770.38428	0.01698
1768.33047	0.01724
1766.27666	0.01746
1764.22285	0.01781
1762.16904	0.01837
1760.11523	0.01902
1758.06142	0.01969
1756.00761	0.02050
1753.95380	0.02143
1751.89999	0.02257
1749.84618	0.02426
1747.79237	0.02633
1745.73856	0.02847
1743.68475	0.03067
1741.63094	0.03292
1739.57713	0.03510
1737.52332	0.03674
1735.46951	0.03799
1733.41570	0.03940
1731.36189	0.04079
1729.30808	0.04271
1727.25427	0.04582
1725.20046	0.05013
1723.14665	0.05528
1721.09284	0.06002
1719.03903	0.06444
1716.98522	0.06951
1714.93141	0.07335
1712.87760	0.07476
1710.82379	0.07410
1708.76998	0.07170
1706.71617	0.06776
1704.66236	0.06281
1702.60855	0.05831
1700.55474	0.05364
1698.50093	0.04897
1696.44712	0.04451
1694.39331	0.03969
1692.33950	0.03611
1690.28569	0.03337
1688.23188	0.03097
1686.17807	0.02902
1684.12426	0.02718
1682.07045	0.02577
1680.01664	0.02486
1677.96283	0.02417
1675.90902	0.02355
1673.85521	0.02284
1671.80140	0.02226
1669.74759	0.02191
1667.69378	0.02173
1665.63997	0.02165
1663.58616	0.02154
1661.53235	0.02131
1659.47854	0.02099
1657.42473	0.02078
1655.37092	0.02067
1653.31711	0.02057
1651.26330	0.02042
1649.20949	0.02029
1647.15568	0.02019
1645.10187	0.02011
1643.04806	0.02005
1640.99425	0.02004
1638.94044	0.02009
1636.88663	0.02007
1634.83282	0.01999
1632.77901	0.01995
1630.72520	0.01992
1628.67139	0.01976
1626.61758	0.01948
1624.56377	0.01919
1622.50996	0.01889
1620.45614	0.01866
1618.40233	0.01844
1616.34852	0.01813
1614.29471	0.01788
1612.24090	0.01775
1610.18709	0.01761
1608.13328	0.01744
1606.07947	0.01726
1604.02566	0.01706
1601.97185	0.01689
1599.91804	0.01678
1597.86423	0.01673
1595.81042	0.01666
1593.75661	0.01650
1591.70280	0.01622
1589.64899	0.01596
1587.59518	0.01582
1585.54137	0.01573
1583.48756	0.01564
1581.43375	0.01555
1579.37994	0.01548
1577.32613	0.01546
1575.27232	0.01550
1573.21851	0.01554
1571.16470	0.01555
1569.11089	0.01555
1567.05708	0.01553
1565.00327	0.01545
1562.94946	0.01537
1560.89565	0.01534
1558.84184	0.01518
1556.78803	0.01486
1554.73422	0.01479
1552.68041	0.01488
1550.62660	0.01497
1548.57279	0.01503
1546.51898	0.01504
1544.46517	0.01500
1542.41136	0.01494
1540.35755	0.01489
1538.30374	0.01479
1536.24993	0.01469
1534.19612	0.01459
1532.14231	0.01445
1530.08850	0.01431
1528.03469	0.01418
1525.98088	0.01415
1523.92707	0.01427
1521.87326	0.01443
1519.81945	0.01455
1517.76564	0.01462
1515.71183	0.01449
1513.65802	0.01428
1511.60421	0.01419
1509.55040	0.01409
1507.49659	0.01399
1505.44278	0.01410
1503.38897	0.01432
1501.33516	0.01447
1499.28135	0.01456
1497.22754	0.01459
1495.17373	0.01465
1493.11992	0.01485
1491.06611	0.01535
1489.01230	0.01614
1486.95849	0.01697
1484.90468	0.01784
1482.85087	0.01932
1480.79706	0.02220
1478.74325	0.02876
1476.68944	0.04654
1474.63563	0.08182
1472.58182	0.11456
1470.52801	0.11350
1468.47420	0.10084
1466.42039	0.10021
1464.36658	0.11355
1462.31277	0.11855
1460.25896	0.10295
1458.20515	0.07807
1456.15134	0.05890
1454.09753	0.05049
1452.04372	0.04569
1449.98991	0.04199
1447.93610	0.03937
1445.88229	0.03776
1443.82848	0.03684
1441.77467	0.03615
1439.72086	0.03548
1437.66705	0.03474
1435.61324	0.03389
1433.55943	0.03306
1431.50562	0.03223
1429.45181	0.03143
1427.39800	0.03086
1425.34419	0.03064
1423.29038	0.03071
1421.23657	0.03103
1419.18276	0.03175
1417.12895	0.03279
1415.07514	0.03372
1413.02133	0.03440
1410.96752	0.03457
1408.91371	0.03409
1406.85990	0.03313
1404.80609	0.03182
1402.75228	0.03035
1400.69847	0.02898
1398.64466	0.02785
1396.59085	0.02700
1394.53704	0.02629
1392.48323	0.02572
1390.42942	0.02548
1388.37561	0.02560
1386.32180	0.02615
1384.26799	0.02724
1382.21418	0.02892
1380.16037	0.03080
1378.10656	0.03194
1376.05275	0.03195
1373.99894	0.03158
1371.94513	0.03148
1369.89132	0.03147
1367.83751	0.03124
1365.78370	0.03078
1363.72989	0.03027
1361.67608	0.02975
1359.62227	0.02924
1357.56846	0.02888
1355.51465	0.02869
1353.46084	0.02849
1351.40703	0.02814
1349.35322	0.02764
1347.29941	0.02704
1345.24560	0.02645
1343.19179	0.02600
1341.13798	0.02566
1339.08417	0.02536
1337.03036	0.02507
1334.97655	0.02484
1332.92274	0.02476
1330.86893	0.02485
1328.81512	0.02506
1326.76130	0.02539
1324.70749	0.02572
1322.65368	0.02611
1320.59987	0.02661
1318.54606	0.02718
1316.49225	0.02772
1314.43844	0.02824
1312.38463	0.02871
1310.33082	0.02903
1308.27701	0.02928
1306.22320	0.02958
1304.16939	0.02991
1302.11558	0.03015
1300.06177	0.03037
1298.00796	0.03066
1295.95415	0.03100
1293.90034	0.03130
1291.84653	0.03156
1289.79272	0.03182
1287.73891	0.03199
1285.68510	0.03202
1283.63129	0.03205
1281.57748	0.03210
1279.52367	0.03217
1277.46986	0.03231
1275.41605	0.03244
1273.36224	0.03253
1271.30843	0.03263
1269.25462	0.03287
1267.20081	0.03321
1265.14700	0.03348
1263.09319	0.03358
1261.03938	0.03361
1258.98557	0.03368
1256.93176	0.03383
1254.87795	0.03406
1252.82414	0.03429
1250.77033	0.03450
1248.71652	0.03481
1246.66271	0.03516
1244.60890	0.03532
1242.55509	0.03531
1240.50128	0.03523
1238.44747	0.03518
1236.39366	0.03523
1234.33985	0.03536
1232.28604	0.03549
1230.23223	0.03563
1228.17842	0.03581
1226.12461	0.03602
1224.07080	0.03628
1222.01699	0.03653
1219.96318	0.03673
1217.90937	0.03680
1215.85556	0.03671
1213.80175	0.03662
1211.74794	0.03667
1209.69413	0.03676
1207.64032	0.03680
1205.58651	0.03679
1203.53270	0.03677
1201.47889	0.03680
1199.42508	0.03696
1197.37127	0.03716
1195.31746	0.03730
1193.26365	0.03739
1191.20984	0.03747
1189.15603	0.03762
1187.10222	0.03791
1185.04841	0.03811
1182.99460	0.03823
1180.94079	0.03845
1178.88698	0.03873
1176.83317	0.03884
1174.77936	0.03879
1172.72555	0.03874
1170.67174	0.03865
1168.61793	0.03851
1166.56412	0.03835
1164.51031	0.03800
1162.45650	0.03736
1160.40269	0.03669
1158.34888	0.03613
1156.29507	0.03548
1154.24126	0.03473
1152.18745	0.03401
1150.13364	0.03337
1148.07983	0.03280
1146.02602	0.03232
1143.97221	0.03194
1141.91840	0.03175
1139.86459	0.03171
1137.81078	0.03168
1135.75697	0.03164
1133.70316	0.03172
1131.64935	0.03188
1129.59554	0.03204
1127.54173	0.03219
1125.48792	0.03242
1123.43411	0.03279
1121.38030	0.03316
1119.32649	0.03346
1117.27268	0.03370
1115.21887	0.03398
1113.16506	0.03440
1111.11125	0.03488
1109.05744	0.03519
1107.00363	0.03529
1104.94982	0.03532
1102.89601	0.03535
1100.84220	0.03540
1098.78839	0.03547
1096.73458	0.03551
1094.68077	0.03559
1092.62696	0.03583
1090.57315	0.03603
1088.51934	0.03614
1086.46553	0.03635
1084.41172	0.03663
1082.35791	0.03682
1080.30410	0.03692
1078.25029	0.03679
1076.19648	0.03651
1074.14267	0.03629
1072.08886	0.03618
1070.03505	0.03622
1067.98124	0.03646
1065.92743	0.03677
1063.87362	0.03689
1061.81981	0.03687
1059.76600	0.03687
1057.71219	0.03679
1055.65838	0.03668
1053.60457	0.03682
1051.55076	0.03710
1049.49695	0.03723
1047.44314	0.03733
1045.38933	0.03753
1043.33552	0.03777
1041.28171	0.03794
1039.22790	0.03804
1037.17409	0.03812
1035.12028	0.03821
1033.06647	0.03822
1031.01265	0.03802
1028.95884	0.03768
1026.90503	0.03736
1024.85122	0.03716
1022.79741	0.03707
1020.74360	0.03702
1018.68979	0.03689
1016.63598	0.03665
1014.58217	0.03630
1012.52836	0.03590
1010.47455	0.03562
1008.42074	0.03538
1006.36693	0.03507
1004.31312	0.03467
1002.25931	0.03414
1000.20550	0.03361
998.15169	0.03323
996.09788	0.03288
994.04407	0.03249
991.99026	0.03210
989.93645	0.03173
987.88264	0.03144
985.82883	0.03125
983.77502	0.03105
981.72121	0.03084
979.66740	0.03071
977.61359	0.03052
975.55978	0.03035
973.50597	0.03040
971.45216	0.03059
969.39835	0.03077
967.34454	0.03088
965.29073	0.03096
963.23692	0.03105
961.18311	0.03107
959.12930	0.03103
957.07549	0.03101
955.02168	0.03106
952.96787	0.03111
950.91406	0.03105
948.86025	0.03084
946.80644	0.03060
944.75263	0.03044
942.69882	0.03031
940.64501	0.03013
938.59120	0.02996
936.53739	0.02981
934.48358	0.02962
932.42977	0.02932
930.37596	0.02896
928.32215	0.02873
926.26834	0.02864
924.21453	0.02849
922.16072	0.02830
920.10691	0.02823
918.05310	0.02821
915.99929	0.02817
913.94548	0.02812
911.89167	0.02797
909.83786	0.02774
907.78405	0.02741
905.73024	0.02690
903.67643	0.02643
901.62262	0.02621
899.56881	0.02605
897.51500	0.02572
895.46119	0.02528
893.40738	0.02494
891.35357	0.02465
889.29976	0.02444
887.24595	0.02442
885.19214	0.02441
883.13833	0.02420
881.08452	0.02398
879.03071	0.02386
876.97690	0.02381
874.92309	0.02367
872.86928	0.02336
870.81547	0.02305
868.76166	0.02285
866.70785	0.02282
864.65404	0.02286
862.60023	0.02284
860.54642	0.02274
858.49261	0.02259
856.43880	0.02251
854.38499	0.02257
852.33118	0.02260
850.27737	0.02245
848.22356	0.02237
846.16975	0.02247
844.11594	0.02250
842.06213	0.02243
840.00832	0.02253
837.95451	0.02283
835.90070	0.02308
833.84689	0.02313
831.79308	0.02314
829.73927	0.02325
827.68546	0.02342
825.63165	0.02359
823.57784	0.02359
821.52403	0.02333
819.47022	0.02304
817.41641	0.02317
815.36260	0.02357
813.30879	0.02354
811.25498	0.02307
809.20117	0.02288
807.14736	0.02306
805.09355	0.02323
803.03974	0.02346
800.98593	0.02380
798.93212	0.02400
796.87831	0.02399
794.82450	0.02379
792.77069	0.02363
790.71688	0.02364
788.66307	0.02369
786.60926	0.02374
784.55545	0.02408
782.50164	0.02467
780.44783	0.02495
778.39402	0.02489
776.34021	0.02501
774.28640	0.02511
772.23259	0.02488
770.17878	0.02463
768.12497	0.02457
766.07116	0.02456
764.01735	0.02441
761.96354	0.02416
759.90973	0.02412
757.85592	0.02439
755.80211	0.02459
753.74830	0.02473
751.69449	0.02503
749.64068	0.02530
747.58687	0.02559
745.53306	0.02612
743.47925	0.02685
741.42544	0.02796
739.37163	0.02982
737.31781	0.03372
735.26400	0.04424
733.21019	0.06774
731.15638	0.09642
729.10257	0.10553
727.04876	0.09369
724.99495	0.08646
722.94114	0.09950
720.88733	0.12958
718.83352	0.14894
716.77971	0.13321
714.72590	0.09898
712.67209	0.07030
710.61828	0.05352
708.56447	0.04472
706.51066	0.03956
704.45685	0.03638
702.40304	0.03457
700.34923	0.03343
698.29542	0.03255
696.24161	0.03182
694.18780	0.03122
692.13399	0.03079
690.08018	0.03053
688.02637	0.03034
685.97256	0.03026
683.91875	0.03051
681.86494	0.03089
679.81113	0.03080
677.75732	0.03013
675.70351	0.02973
673.64970	0.02991
671.59589	0.03025
669.54208	0.03063
667.48827	0.03054
665.43446	0.03008
663.38065	0.02980
661.32684	0.02961
659.27303	0.02962
657.21922	0.02983
655.16541	0.03000
653.11160	0.02993
651.05779	0.02990
649.00398	0.03019
646.95017	0.03040
644.89636	0.03032
642.84255	0.03020
640.78874	0.03019
638.73493	0.03030
636.68112	0.03061
634.62731	0.03107
632.57350	0.03133
630.51969	0.03144
628.46588	0.03158
626.41207	0.03160
624.35826	0.03129
622.30445	0.03085
620.25064	0.03062
618.19683	0.03055
616.14302	0.03071
614.08921	0.03117
612.03540	0.03151
609.98159	0.03149
607.92778	0.03162
605.87397	0.03196
603.82016	0.03201
601.76635	0.03209
599.71254	0.03248
597.65873	0.03262
595.60492	0.03257
593.55111	0.03306
591.49730	0.03362
589.44349	0.03345
587.38968	0.03316
585.33587	0.03311
583.28206	0.03298
581.22825	0.03290
579.17444	0.03278
577.12063	0.03265
575.06682	0.03287
573.01301	0.03305
570.95920	0.03292
568.90539	0.03314
566.85158	0.03410
564.79777	0.03504
562.74396	0.03538
560.69015	0.03559
558.63634	0.03551
556.58253	0.03458
554.52872	0.03397
552.47491	0.03486
550.42110	0.03584
548.36729	0.03559
546.31348	0.03510
544.25967	0.03534
542.20586	0.03573
540.15205	0.03602
538.09824	0.03622
536.04443	0.03607
533.99062	0.03603
531.93681	0.03637
529.88300	0.03668
527.82919	0.03690
525.77538	0.03711
523.72157	0.03718
521.66776	0.03710
519.61395	0.03652
517.56014	0.03566
515.50633	0.03550
513.45252	0.03550
511.39871	0.03514
509.34490	0.03512
507.29109	0.03522
505.23728	0.03510
503.18347	0.03504
501.12966	0.03519
499.07585	0.03575
497.02204	0.03636
494.96823	0.03652
492.91442	0.03627
490.86061	0.03586
488.80680	0.03569
486.75299	0.03579
484.69918	0.03576
482.64537	0.03582
480.59156	0.03646
478.53775	0.03736
476.48394	0.03830
474.43013	0.03909
472.37632	0.03944
470.32251	0.03959
468.26870	0.03986
466.21489	0.04034
464.16108	0.04049
462.10727	0.03975
460.05346	0.03817
457.99965	0.03654
455.94584	0.03576
453.89203	0.03532
451.83822	0.03500
449.78441	0.03479
447.73060	0.03442
445.67679	0.03406
443.62298	0.03395
441.56916	0.03453
439.51535	0.03552
437.46154	0.03675
435.40773	0.03801
433.35392	0.03773
431.30011	0.03624
429.24630	0.03591
427.19249	0.03592
425.13868	0.03446
423.08487	0.03358
421.03106	0.03435
418.97725	0.03447
416.92344	0.03337
414.86963	0.03327
412.81582	0.03408
410.76201	0.03394
408.70820	0.03238
406.65439	0.03126
404.60058	0.03094
402.54677	0.03048
400.49296	0.03127
398.43915	0.03361
