3996.70104	0.95286
3994.64724	0.95341
3992.59344	0.95376
3990.53964	0.95333
3988.48583	0.95300
3986.43203	0.95314
3984.37823	0.95310
3982.32442	0.95300
3980.27062	0.95318
3978.21682	0.95323
3976.16301	0.95300
3974.10921	0.95299
3972.05541	0.95318
3970.00160	0.95346
3967.94780	0.95399
3965.89400	0.95432
3963.84019	0.95405
3961.78639	0.95353
3959.73259	0.95326
3957.67878	0.95342
3955.62498	0.95376
3953.57118	0.95404
3951.51737	0.95411
3949.46357	0.95388
3947.40977	0.95353
3945.35596	0.95335
3943.30216	0.95312
3941.24836	0.95272
3939.19455	0.95309
3937.14075	0.95399
3935.08695	0.95410
3933.03315	0.95362
3930.97934	0.95363
3928.92554	0.95412
3926.87174	0.95447
3924.81793	0.95452
3922.76413	0.95462
3920.71033	0.95472
3918.65652	0.95451
3916.60272	0.95419
3914.54892	0.95420
3912.49511	0.95447
3910.44131	0.95482
3908.38751	0.95497
3906.33370	0.95451
3904.27990	0.95389
3902.22610	0.95414
3900.17229	0.95439
3898.11849	0.95415
3896.06469	0.95414
3894.01088	0.95414
3891.95708	0.95407
3889.90328	0.95466
3887.84947	0.95554
3885.79567	0.95577
3883.74187	0.95569
3881.68807	0.95573
3879.63426	0.95545
3877.58046	0.95501
3875.52666	0.95482
3873.47285	0.95484
3871.41905	0.95491
3869.36525	0.95517
3867.31144	0.95550
3865.25764	0.95555
3863.20384	0.95538
3861.15003	0.95521
3859.09623	0.95503
3857.04243	0.95509
3854.98862	0.95544
3852.93482	0.95543
3850.88102	0.95556
3848.82721	0.95588
3846.77341	0.95593
3844.71961	0.95571
3842.66580	0.95522
3840.61200	0.95516
3838.55820	0.95578
3836.50439	0.95578
3834.45059	0.95550
3832.39679	0.95555
3830.34298	0.95575
3828.28918	0.95623
3826.23538	0.95644
3824.18158	0.95650
3822.12777	0.95689
3820.07397	0.95653
3818.02017	0.95603
3815.96636	0.95649
3813.91256	0.95677
3811.85876	0.95648
3809.80495	0.95619
3807.75115	0.95623
3805.69735	0.95660
3803.64354	0.95689
3801.58974	0.95699
3799.53594	0.95709
3797.48213	0.95720
3795.42833	0.95717
3793.37453	0.95687
3791.32072	0.95647
3789.26692	0.95651
3787.21312	0.95701
3785.15931	0.95701
3783.10551	0.95654
3781.05171	0.95675
3778.99790	0.95740
3776.94410	0.95747
3774.89030	0.95712
3772.83650	0.95698
3770.78269	0.95740
3768.72889	0.95776
3766.67509	0.95764
3764.62128	0.95766
3762.56748	0.95794
3760.51368	0.95830
3758.45987	0.95825
3756.40607	0.95785
3754.35227	0.95792
3752.29846	0.95834
3750.24466	0.95903
3748.19086	0.95998
3746.13705	0.96036
3744.08325	0.95964
3742.02945	0.95904
3739.97564	0.95876
3737.92184	0.95822
3735.86804	0.95811
3733.81423	0.95881
3731.76043	0.95942
3729.70663	0.95961
3727.65282	0.95941
3725.59902	0.95884
3723.54522	0.95867
3721.49141	0.95915
3719.43761	0.95922
3717.38381	0.95902
3715.33001	0.95906
3713.27620	0.95873
3711.22240	0.95723
3709.16860	0.95593
3707.11479	0.95562
3705.06099	0.95499
3703.00719	0.95366
3700.95338	0.95244
3698.89958	0.95174
3696.84578	0.95109
3694.79197	0.95079
3692.73817	0.95133
3690.68437	0.95258
3688.63056	0.95377
3686.57676	0.95398
3684.52296	0.95379
3682.46915	0.95384
3680.41535	0.95411
3678.36155	0.95434
3676.30774	0.95419
3674.25394	0.95364
3672.20014	0.95345
3670.14633	0.95295
3668.09253	0.95152
3666.03873	0.95043
3663.98492	0.94954
3661.93112	0.94821
3659.87732	0.94718
3657.82352	0.94738
3655.76971	0.94779
3653.71591	0.94678
3651.66211	0.94501
3649.60830	0.94405
3647.55450	0.94442
3645.50070	0.94441
3643.44689	0.94355
3641.39309	0.94223
3639.33929	0.94077
3637.28548	0.93929
3635.23168	0.93788
3633.17788	0.93665
3631.12407	0.93605
3629.07027	0.93567
3627.01647	0.93438
3624.96266	0.93321
3622.90886	0.93283
3620.85506	0.93272
3618.80125	0.93223
3616.74745	0.93155
3614.69365	0.93103
3612.63984	0.93067
3610.58604	0.93072
3608.53224	0.93096
3606.47844	0.93077
3604.42463	0.93001
3602.37083	0.92880
3600.31703	0.92765
3598.26322	0.92718
3596.20942	0.92722
3594.15562	0.92724
3592.10181	0.92704
3590.04801	0.92646
3587.99421	0.92517
3585.94040	0.92401
3583.88660	0.92359
3581.83280	0.92322
3579.77899	0.92249
3577.72519	0.92177
3575.67139	0.92137
3573.61758	0.92067
3571.56378	0.91991
3569.50998	0.91978
3567.45617	0.91914
3565.40237	0.91729
3563.34857	0.91581
3561.29476	0.91487
3559.24096	0.91416
3557.18716	0.91383
3555.13335	0.91361
3553.07955	0.91294
3551.02575	0.91172
3548.97195	0.91068
3546.91814	0.91018
3544.86434	0.90965
3542.81054	0.90867
3540.75673	0.90752
3538.70293	0.90637
3536.64913	0.90543
3534.59532	0.90483
3532.54152	0.90430
3530.48772	0.90370
3528.43391	0.90313
3526.38011	0.90270
3524.32631	0.90212
3522.27250	0.90101
3520.21870	0.89979
3518.16490	0.89890
3516.11109	0.89854
3514.05729	0.89842
3512.00349	0.89795
3509.94968	0.89728
3507.89588	0.89650
3505.84208	0.89550
3503.78827	0.89430
3501.73447	0.89315
3499.68067	0.89225
3497.62687	0.89143
3495.57306	0.89090
3493.51926	0.89068
3491.46546	0.88985
3489.41165	0.88839
3487.35785	0.88744
3485.30405	0.88746
3483.25024	0.88777
3481.19644	0.88747
3479.14264	0.88646
3477.08883	0.88526
3475.03503	0.88420
3472.98123	0.88330
3470.92742	0.88254
3468.87362	0.88222
3466.81982	0.88206
3464.76601	0.88133
3462.71221	0.87997
3460.65841	0.87877
3458.60460	0.87833
3456.55080	0.87790
3454.49700	0.87696
3452.44319	0.87593
3450.38939	0.87508
3448.33559	0.87458
3446.28178	0.87413
3444.22798	0.87316
3442.17418	0.87204
3440.12038	0.87139
3438.06657	0.87081
3436.01277	0.86987
3433.95897	0.86906
3431.90516	0.86869
3429.85136	0.86808
3427.79756	0.86704
3425.74375	0.86676
3423.68995	0.86697
3421.63615	0.86626
3419.58234	0.86484
3417.52854	0.86351
3415.47474	0.86232
3413.42093	0.86140
3411.36713	0.86100
3409.31333	0.86082
3407.25952	0.86047
3405.20572	0.85998
3403.15192	0.85929
3401.09811	0.85852
3399.04431	0.85804
3396.99051	0.85801
3394.93670	0.85794
3392.88290	0.85719
3390.82910	0.85598
3388.77529	0.85547
3386.72149	0.85586
3384.66769	0.85609
3382.61389	0.85568
3380.56008	0.85504
3378.50628	0.85432
3376.45248	0.85357
3374.39867	0.85327
3372.34487	0.85337
3370.29107	0.85316
3368.23726	0.85264
3366.18346	0.85240
3364.12966	0.85230
3362.07585	0.85207
3360.02205	0.85191
3357.96825	0.85183
3355.91444	0.85151
3353.86064	0.85097
3351.80684	0.85055
3349.75303	0.85012
3347.69923	0.84977
3345.64543	0.84962
3343.59162	0.84953
3341.53782	0.84941
3339.48402	0.84906
3337.43021	0.84886
3335.37641	0.84931
3333.32261	0.85003
3331.26881	0.85033
3329.21500	0.85025
3327.16120	0.85007
3325.10740	0.84983
3323.05359	0.84986
3320.99979	0.85006
3318.94599	0.85010
3316.89218	0.85026
3314.83838	0.85036
3312.78458	0.85016
3310.73077	0.84997
3308.67697	0.85014
3306.62317	0.85053
3304.56936	0.85060
3302.51556	0.85057
3300.46176	0.85058
3298.40795	0.85031
3296.35415	0.85014
3294.30035	0.85028
3292.24654	0.85062
3290.19274	0.85129
3288.13894	0.85181
3286.08513	0.85180
3284.03133	0.85176
3281.97753	0.85203
3279.92372	0.85240
3277.86992	0.85256
3275.81612	0.85270
3273.76232	0.85278
3271.70851	0.85263
3269.65471	0.85280
3267.60091	0.85340
3265.54710	0.85401
3263.49330	0.85447
3261.43950	0.85461
3259.38569	0.85448
3257.33189	0.85465
3255.27809	0.85527
3253.22428	0.85583
3251.17048	0.85609
3249.11668	0.85659
3247.06287	0.85758
3245.00907	0.85833
3242.95527	0.85854
3240.90146	0.85873
3238.84766	0.85911
3236.79386	0.85957
3234.74005	0.85989
3232.68625	0.86020
3230.63245	0.86054
3228.57864	0.86090
3226.52484	0.86144
3224.47104	0.86161
3222.41724	0.86159
3220.36343	0.86214
3218.30963	0.86273
3216.25583	0.86319
3214.20202	0.86376
3212.14822	0.86421
3210.09442	0.86478
3208.04061	0.86588
3205.98681	0.86694
3203.93301	0.86717
3201.87920	0.86673
3199.82540	0.86641
3197.77160	0.86681
3195.71779	0.86787
3193.66399	0.86902
3191.61019	0.86992
3189.55638	0.87068
3187.50258	0.87135
3185.44878	0.87207
3183.39497	0.87294
3181.34117	0.87364
3179.28737	0.87389
3177.23356	0.87395
3175.17976	0.87460
3173.12596	0.87572
3171.07215	0.87649
3169.01835	0.87695
3166.96455	0.87735
3164.91075	0.87787
3162.85694	0.87849
3160.80314	0.87904
3158.74934	0.87984
3156.69553	0.88092
3154.64173	0.88171
3152.58793	0.88218
3150.53412	0.88280
3148.48032	0.88334
3146.42652	0.88351
3144.37271	0.88399
3142.31891	0.88499
3140.26511	0.88583
3138.21130	0.88635
3136.15750	0.88686
3134.10370	0.88731
3132.04989	0.88763
3129.99609	0.88796
3127.94229	0.88862
3125.88848	0.88982
3123.83468	0.89092
3121.78088	0.89142
3119.72707	0.89190
3117.67327	0.89260
3115.61947	0.89334
3113.56566	0.89385
3111.51186	0.89398
3109.45806	0.89416
3107.40426	0.89466
3105.35045	0.89524
3103.29665	0.89572
3101.24285	0.89619
3099.18904	0.89694
3097.13524	0.89744
3095.08144	0.89744
3093.02763	0.89794
3090.97383	0.89897
3088.92003	0.89958
3086.86622	0.89972
3084.81242	0.89997
3082.75862	0.90054
3080.70481	0.90113
3078.65101	0.90155
3076.59721	0.90198
3074.54340	0.90260
3072.48960	0.90327
3070.43580	0.90386
3068.38199	0.90433
3066.32819	0.90448
3064.27439	0.90458
3062.22058	0.90492
3060.16678	0.90532
3058.11298	0.90569
3056.05918	0.90610
3054.00537	0.90655
3051.95157	0.90706
3049.89777	0.90752
3047.84396	0.90799
3045.79016	0.90863
3043.73636	0.90932
3041.68255	0.90970
3039.62875	0.90972
3037.57495	0.91000
3035.52114	0.91086
3033.46734	0.91176
3031.41354	0.91242
3029.35973	0.91281
3027.30593	0.91283
3025.25213	0.91290
3023.19832	0.91352
3021.14452	0.91432
3019.09072	0.91474
3017.03691	0.91503
3014.98311	0.91533
3012.92931	0.91515
3010.87550	0.91475
3008.82170	0.91504
3006.76790	0.91568
3004.71409	0.91584
3002.66029	0.91576
3000.60649	0.91592
2998.55269	0.91627
2996.49888	0.91655
2994.44508	0.91644
2992.39128	0.91596
2990.33747	0.91581
2988.28367	0.91607
2986.22987	0.91628
2984.17606	0.91636
2982.12226	0.91644
2980.06846	0.91653
2978.01465	0.91647
2975.96085	0.91613
2973.90705	0.91554
2971.85324	0.91491
2969.79944	0.91436
2967.74564	0.91382
2965.69183	0.91340
2963.63803	0.91323
2961.58423	0.91295
2959.53042	0.91256
2957.47662	0.91251
2955.42282	0.91231
2953.36901	0.91142
2951.31521	0.91056
2949.26141	0.91039
2947.20761	0.91055
2945.15380	0.91036
2943.10000	0.90965
2941.04620	0.90891
2938.99239	0.90849
2936.93859	0.90828
2934.88479	0.90846
2932.83098	0.90901
2930.77718	0.90931
2928.72338	0.90942
2926.66957	0.90925
2924.61577	0.90862
2922.56197	0.90835
2920.50816	0.90869
2918.45436	0.90903
2916.40056	0.90931
2914.34675	0.90988
2912.29295	0.91061
2910.23915	0.91114
2908.18534	0.91165
2906.13154	0.91234
2904.07774	0.91292
2902.02393	0.91337
2899.97013	0.91401
2897.91633	0.91448
2895.86252	0.91443
2893.80872	0.91437
2891.75492	0.91470
2889.70112	0.91496
2887.64731	0.91500
2885.59351	0.91493
2883.53971	0.91474
2881.48590	0.91493
2879.43210	0.91564
2877.37830	0.91622
2875.32449	0.91665
2873.27069	0.91722
2871.21689	0.91761
2869.16308	0.91774
2867.10928	0.91812
2865.05548	0.91876
2863.00167	0.91914
2860.94787	0.91922
2858.89407	0.91941
2856.84026	0.91972
2854.78646	0.91983
2852.73266	0.91981
2850.67885	0.91992
2848.62505	0.92023
2846.57125	0.92089
2844.51744	0.92175
2842.46364	0.92266
2840.40984	0.92353
2838.35603	0.92413
2836.30223	0.92447
2834.24843	0.92474
2832.19463	0.92521
2830.14082	0.92597
2828.08702	0.92672
2826.03322	0.92732
2823.97941	0.92755
2821.92561	0.92776
2819.87181	0.92862
2817.81800	0.92952
2815.76420	0.92992
2813.71040	0.93007
2811.65659	0.93023
2809.60279	0.93053
2807.54899	0.93079
2805.49518	0.93097
2803.44138	0.93106
2801.38758	0.93090
2799.33377	0.93087
2797.27997	0.93135
2795.22617	0.93190
2793.17236	0.93217
2791.11856	0.93250
2789.06476	0.93300
2787.01095	0.93327
2784.95715	0.93326
2782.90335	0.93331
2780.84955	0.93356
2778.79574	0.93397
2776.74194	0.93421
2774.68814	0.93395
2772.63433	0.93387
2770.58053	0.93441
2768.52673	0.93484
2766.47292	0.93492
2764.41912	0.93505
2762.36532	0.93534
2760.31151	0.93563
2758.25771	0.93568
2756.20391	0.93548
2754.15010	0.93521
2752.09630	0.93530
2750.04250	0.93570
2747.98869	0.93589
2745.93489	0.93597
2743.88109	0.93628
2741.82728	0.93645
2739.77348	0.93641
2737.71968	0.93662
2735.66587	0.93691
2733.61207	0.93694
2731.55827	0.93695
2729.50446	0.93708
2727.45066	0.93705
2725.39686	0.93705
2723.34306	0.93714
2721.28925	0.93696
2719.23545	0.93693
2717.18165	0.93744
2715.12784	0.93784
2713.07404	0.93762
2711.02024	0.93738
2708.96643	0.93779
2706.91263	0.93842
2704.85883	0.93878
2702.80502	0.93893
2700.75122	0.93896
2698.69742	0.93889
2696.64361	0.93876
2694.58981	0.93871
2692.53601	0.93887
2690.48220	0.93929
2688.42840	0.93983
2686.37460	0.94002
2684.32079	0.93974
2682.26699	0.93953
2680.21319	0.93974
2678.15938	0.93990
2676.10558	0.93975
2674.05178	0.93961
2671.99797	0.93970
2669.94417	0.93996
2667.89037	0.94033
2665.83657	0.94065
2663.78276	0.94074
2661.72896	0.94076
2659.67516	0.94079
2657.62135	0.94073
2655.56755	0.94053
2653.51375	0.94025
2651.45994	0.94019
2649.40614	0.94058
2647.35234	0.94112
2645.29853	0.94133
2643.24473	0.94131
2641.19093	0.94132
2639.13712	0.94154
2637.08332	0.94189
2635.02952	0.94214
2632.97571	0.94235
2630.92191	0.94228
2628.86811	0.94194
2626.81430	0.94184
2624.76050	0.94211
2622.70670	0.94237
2620.65289	0.94263
2618.59909	0.94328
2616.54529	0.94387
2614.49149	0.94367
2612.43768	0.94296
2610.38388	0.94248
2608.33008	0.94275
2606.27627	0.94350
2604.22247	0.94381
2602.16867	0.94372
2600.11486	0.94391
2598.06106	0.94448
2596.00726	0.94518
2593.95345	0.94555
2591.89965	0.94526
2589.84585	0.94467
2587.79204	0.94433
2585.73824	0.94454
2583.68444	0.94519
2581.63063	0.94604
2579.57683	0.94669
2577.52303	0.94667
2575.46922	0.94651
2573.41542	0.94681
2571.36162	0.94711
2569.30781	0.94687
2567.25401	0.94656
2565.20021	0.94674
2563.14640	0.94686
2561.09260	0.94668
2559.03880	0.94682
2556.98500	0.94735
2554.93119	0.94773
2552.87739	0.94734
2550.82359	0.94665
2548.76978	0.94650
2546.71598	0.94671
2544.66218	0.94716
2542.60837	0.94786
2540.55457	0.94832
2538.50077	0.94829
2536.44696	0.94804
2534.39316	0.94780
2532.33936	0.94744
2530.28555	0.94716
2528.23175	0.94741
2526.17795	0.94788
2524.12414	0.94823
2522.07034	0.94877
2520.01654	0.94933
2517.96273	0.94923
2515.90893	0.94863
2513.85513	0.94819
2511.80132	0.94793
2509.74752	0.94810
2507.69372	0.94881
2505.63992	0.94926
2503.58611	0.94939
2501.53231	0.94933
2499.47851	0.94843
2497.42470	0.94773
2495.37090	0.94849
2493.31710	0.94940
2491.26329	0.94931
2489.20949	0.94890
2487.15569	0.94919
2485.10188	0.94986
2483.04808	0.94989
2480.99428	0.94962
2478.94047	0.94942
2476.88667	0.94885
2474.83287	0.94863
2472.77906	0.94934
2470.72526	0.94998
2468.67146	0.94993
2466.61765	0.94985
2464.56385	0.95004
2462.51005	0.95002
2460.45624	0.94942
2458.40244	0.94887
2456.34864	0.94901
2454.29483	0.94937
2452.24103	0.94991
2450.18723	0.95025
2448.13343	0.94990
2446.07962	0.94969
2444.02582	0.94975
2441.97202	0.94981
2439.91821	0.94963
2437.86441	0.94908
2435.81061	0.94902
2433.75680	0.94958
2431.70300	0.95000
2429.64920	0.95039
2427.59539	0.95074
2425.54159	0.95063
2423.48779	0.95019
2421.43398	0.95013
2419.38018	0.95085
2417.32638	0.95134
2415.27257	0.95130
2413.21877	0.95129
2411.16497	0.95137
2409.11116	0.95180
2407.05736	0.95231
2405.00356	0.95217
2402.94975	0.95150
2400.89595	0.95100
2398.84215	0.95101
2396.78834	0.95139
2394.73454	0.95165
2392.68074	0.95151
2390.62694	0.95148
2388.57313	0.95211
2386.51933	0.95264
2384.46553	0.95216
2382.41172	0.95144
2380.35792	0.95138
2378.30412	0.95146
2376.25031	0.95148
2374.19651	0.95156
2372.14271	0.95087
2370.08890	0.94990
2368.03510	0.94995
2365.98130	0.95037
2363.92749	0.95023
2361.87369	0.95013
2359.81989	0.95067
2357.76608	0.95070
2355.71228	0.94998
2353.65848	0.94964
2351.60467	0.94992
2349.55087	0.95053
2347.49707	0.95112
2345.44326	0.95137
2343.38946	0.95135
2341.33566	0.95108
2339.28186	0.95071
2337.22805	0.95084
2335.17425	0.95138
2333.12045	0.95176
2331.06664	0.95147
2329.01284	0.95119
2326.95904	0.95095
2324.90523	0.94929
2322.85143	0.94784
2320.79763	0.94867
2318.74382	0.94992
2316.69002	0.95029
2314.63622	0.95082
2312.58241	0.95161
2310.52861	0.95195
2308.47481	0.95174
2306.42100	0.95142
2304.36720	0.95162
2302.31340	0.95241
2300.25959	0.95294
2298.20579	0.95233
2296.15199	0.95102
2294.09818	0.95048
2292.04438	0.95133
2289.99058	0.95241
2287.93677	0.95251
2285.88297	0.95206
2283.82917	0.95186
2281.77537	0.95147
2279.72156	0.95061
2277.66776	0.95046
2275.61396	0.95076
2273.56015	0.95065
2271.50635	0.95088
2269.45255	0.95131
2267.39874	0.95188
2265.34494	0.95261
2263.29114	0.95270
2261.23733	0.95267
2259.18353	0.95279
2257.12973	0.95231
2255.07592	0.95152
2253.02212	0.95189
2250.96832	0.95360
2248.91451	0.95502
2246.86071	0.95520
2244.80691	0.95498
2242.75310	0.95478
2240.69930	0.95428
2238.64550	0.95404
2236.59169	0.95393
2234.53789	0.95305
2232.48409	0.95204
2230.43029	0.95182
2228.37648	0.95225
2226.32268	0.95330
2224.26888	0.95491
2222.21507	0.95535
2220.16127	0.95451
2218.10747	0.95459
2216.05366	0.95543
2213.99986	0.95539
2211.94606	0.95523
2209.89225	0.95592
2207.83845	0.95595
2205.78465	0.95584
2203.73084	0.95657
2201.67704	0.95709
2199.62324	0.95754
2197.56943	0.95740
2195.51563	0.95699
2193.46183	0.95711
2191.40802	0.95795
2189.35422	0.96010
2187.30042	0.96067
2185.24661	0.95772
2183.19281	0.95509
2181.13901	0.95518
2179.08520	0.95602
2177.03140	0.95756
2174.97760	0.95991
2172.92380	0.96045
2170.86999	0.95939
2168.81619	0.95814
2166.76239	0.95631
2164.70858	0.95489
2162.65478	0.95482
2160.60098	0.95486
2158.54717	0.95442
2156.49337	0.95464
2154.43957	0.95697
2152.38576	0.95969
2150.33196	0.96033
2148.27816	0.96002
2146.22435	0.95997
2144.17055	0.96002
2142.11675	0.95978
2140.06294	0.95902
2138.00914	0.95754
2135.95534	0.95647
2133.90153	0.95703
2131.84773	0.95809
2129.79393	0.95894
2127.74012	0.95912
2125.68632	0.95810
2123.63252	0.95707
2121.57871	0.95683
2119.52491	0.95672
2117.47111	0.95626
2115.41731	0.95599
2113.36350	0.95570
2111.30970	0.95474
2109.25590	0.95423
2107.20209	0.95485
2105.14829	0.95574
2103.09449	0.95631
2101.04068	0.95702
2098.98688	0.95774
2096.93308	0.95686
2094.87927	0.95587
2092.82547	0.95657
2090.77167	0.95716
2088.71786	0.95675
2086.66406	0.95614
2084.61026	0.95579
2082.55645	0.95551
2080.50265	0.95534
2078.44885	0.95543
2076.39504	0.95517
2074.34124	0.95471
2072.28744	0.95553
2070.23363	0.95728
2068.17983	0.95826
2066.12603	0.95833
2064.07223	0.95792
2062.01842	0.95765
2059.96462	0.95800
2057.91082	0.95863
2055.85701	0.95915
2053.80321	0.95872
2051.74941	0.95699
2049.69560	0.95554
2047.64180	0.95636
2045.58800	0.95882
2043.53419	0.96018
2041.48039	0.95915
2039.42659	0.95799
2037.37278	0.95859
2035.31898	0.95935
2033.26518	0.96051
2031.21137	0.96400
2029.15757	0.96628
2027.10377	0.96412
2025.04996	0.96166
2022.99616	0.96079
2020.94236	0.95914
2018.88855	0.95843
2016.83475	0.95988
2014.78095	0.96107
2012.72714	0.96130
2010.67334	0.96107
2008.61954	0.96079
2006.56574	0.96152
2004.51193	0.96330
2002.45813	0.96427
2000.40433	0.96392
1998.35052	0.96414
1996.29672	0.96535
1994.24292	0.96615
1992.18911	0.96633
1990.13531	0.96572
1988.08151	0.96351
1986.02770	0.96117
1983.97390	0.95975
1981.92010	0.95837
1979.86629	0.95755
1977.81249	0.95809
1975.75869	0.95983
1973.70488	0.96207
1971.65108	0.96314
1969.59728	0.96255
1967.54347	0.96202
1965.48967	0.96234
1963.43587	0.96243
1961.38206	0.96217
1959.32826	0.96291
1957.27446	0.96480
1955.22066	0.96568
1953.16685	0.96457
1951.11305	0.96228
1949.05925	0.96042
1947.00544	0.96083
1944.95164	0.96254
1942.89784	0.96302
1940.84403	0.96254
1938.79023	0.96332
1936.73643	0.96441
1934.68262	0.96353
1932.62882	0.96229
1930.57502	0.96275
1928.52121	0.96362
1926.46741	0.96388
1924.41361	0.96416
1922.35980	0.96410
1920.30600	0.96302
1918.25220	0.96250
1916.19839	0.96330
1914.14459	0.96346
1912.09079	0.96253
1910.03698	0.96196
1907.98318	0.96204
1905.92938	0.96195
1903.87557	0.96162
1901.82177	0.96155
1899.76797	0.96209
1897.71417	0.96303
1895.66036	0.96329
1893.60656	0.96269
1891.55276	0.96259
1889.49895	0.96307
1887.44515	0.96342
1885.39135	0.96408
1883.33754	0.96454
1881.28374	0.96350
1879.22994	0.96166
1877.17613	0.96118
1875.12233	0.96224
1873.06853	0.96306
1871.01472	0.96290
1868.96092	0.96245
1866.90712	0.96209
1864.85331	0.96193
1862.79951	0.96238
1860.74571	0.96293
1858.69190	0.96281
1856.63810	0.96227
1854.58430	0.96204
1852.53049	0.96232
1850.47669	0.96250
1848.42289	0.96249
1846.36908	0.96264
1844.31528	0.96246
1842.26148	0.96219
1840.20768	0.96267
1838.15387	0.96347
1836.10007	0.96389
1834.04627	0.96360
1831.99246	0.96304
1829.93866	0.96284
1827.88486	0.96291
1825.83105	0.96332
1823.77725	0.96389
1821.72345	0.96407
1819.66964	0.96391
1817.61584	0.96358
1815.56204	0.96326
1813.50823	0.96313
1811.45443	0.96314
1809.40063	0.96307
1807.34682	0.96281
1805.29302	0.96278
1803.23922	0.96320
1801.18541	0.96352
1799.13161	0.96312
1797.07781	0.96258
1795.02400	0.96267
1792.97020	0.96319
1790.91640	0.96329
1788.86260	0.96283
1786.80879	0.96250
1784.75499	0.96251
1782.70119	0.96256
1780.64738	0.96248
1778.59358	0.96220
1776.53978	0.96199
1774.48597	0.96198
1772.43217	0.96170
1770.37837	0.96074
1768.32456	0.95989
1766.27076	0.95947
1764.21696	0.95910
1762.16315	0.95898
1760.10935	0.95918
1758.05555	0.95900
1756.00174	0.95820
1753.94794	0.95756
1751.89414	0.95755
1749.84033	0.95770
1747.78653	0.95759
1745.73273	0.95736
1743.67892	0.95670
1741.62512	0.95556
1739.57132	0.95464
1737.51751	0.95419
1735.46371	0.95367
1733.40991	0.95287
1731.35611	0.95238
1729.30230	0.95183
1727.24850	0.95125
1725.19470	0.95077
1723.14089	0.95003
1721.08709	0.94934
1719.03329	0.94895
1716.97948	0.94835
1714.92568	0.94747
1712.87188	0.94675
1710.81807	0.94590
1708.76427	0.94484
1706.71047	0.94366
1704.65666	0.94237
1702.60286	0.94103
1700.54906	0.93874
1698.49525	0.93610
1696.44145	0.93394
1694.38765	0.93115
1692.33384	0.92880
1690.28004	0.92657
1688.22624	0.92396
1686.17243	0.92167
1684.11863	0.91842
1682.06483	0.91405
1680.01103	0.91069
1677.95722	0.90818
1675.90342	0.90533
1673.84962	0.90178
1671.79581	0.89908
1669.74201	0.89624
1667.68821	0.89275
1665.63440	0.89015
1663.58060	0.88777
1661.52680	0.88493
1659.47299	0.88254
1657.41919	0.88112
1655.36539	0.87995
1653.31158	0.87668
1651.25778	0.87326
1649.20398	0.87241
1647.15017	0.87099
1645.09637	0.86820
1643.04257	0.86625
1640.98876	0.86519
1638.93496	0.86458
1636.88116	0.86393
1634.82735	0.86230
1632.77355	0.86074
1630.71975	0.86003
1628.66594	0.85949
1626.61214	0.85883
1624.55834	0.85839
1622.50454	0.85792
1620.45073	0.85759
1618.39693	0.85779
1616.34313	0.85776
1614.28932	0.85735
1612.23552	0.85729
1610.18172	0.85724
1608.12791	0.85663
1606.07411	0.85573
1604.02031	0.85502
1601.96650	0.85436
1599.91270	0.85363
1597.85890	0.85303
1595.80509	0.85268
1593.75129	0.85261
1591.69749	0.85321
1589.64368	0.85502
1587.58988	0.85790
1585.53608	0.86110
1583.48227	0.86427
1581.42847	0.86728
1579.37467	0.87007
1577.32086	0.87334
1575.26706	0.87746
1573.21326	0.88062
1571.15945	0.88278
1569.10565	0.88457
1567.05185	0.88601
1564.99805	0.88731
1562.94424	0.88855
1560.89044	0.88982
1558.83664	0.89147
1556.78283	0.89303
1554.72903	0.89428
1552.67523	0.89512
1550.62142	0.89583
1548.56762	0.89688
1546.51382	0.89793
1544.46001	0.89891
1542.40621	0.90020
1540.35241	0.90155
1538.29860	0.90230
1536.24480	0.90314
1534.19100	0.90436
1532.13719	0.90555
1530.08339	0.90614
1528.02959	0.90614
1525.97578	0.90580
1523.92198	0.90529
1521.86818	0.90344
1519.81437	0.89964
1517.76057	0.89518
1515.70677	0.89065
1513.65297	0.88696
1511.59916	0.88367
1509.54536	0.88105
1507.49156	0.88023
1505.43775	0.88090
1503.38395	0.88211
1501.33015	0.88431
1499.27634	0.88775
1497.22254	0.89205
1495.16874	0.89640
1493.11493	0.89979
1491.06113	0.90256
1489.00733	0.90553
1486.95352	0.90798
1484.89972	0.90905
1482.84592	0.90906
1480.79211	0.90859
1478.73831	0.90780
1476.68451	0.90621
1474.63070	0.90334
1472.57690	0.89806
1470.52310	0.89200
1468.46929	0.88789
1466.41549	0.88461
1464.36169	0.88171
1462.30788	0.88025
1460.25408	0.87972
1458.20028	0.87856
1456.14648	0.87669
1454.09267	0.87635
1452.03887	0.87693
1449.98507	0.87765
1447.93126	0.87878
1445.87746	0.88041
1443.82366	0.88202
1441.76985	0.88295
1439.71605	0.88291
1437.66225	0.88161
1435.60844	0.87871
1433.55464	0.87564
1431.50084	0.87235
1429.44703	0.86804
1427.39323	0.86397
1425.33943	0.86105
1423.28562	0.85891
1421.23182	0.85761
1419.17802	0.85716
1417.12421	0.85768
1415.07041	0.85948
1413.01661	0.86213
1410.96280	0.86477
1408.90900	0.86698
1406.85520	0.86911
1404.80139	0.87140
1402.74759	0.87349
1400.69379	0.87514
1398.63999	0.87656
1396.58618	0.87802
1394.53238	0.87954
1392.47858	0.88059
1390.42477	0.88130
1388.37097	0.88225
1386.31717	0.88331
1384.26336	0.88403
1382.20956	0.88430
1380.15576	0.88435
1378.10195	0.88459
1376.04815	0.88480
1373.99435	0.88454
1371.94054	0.88445
1369.88674	0.88505
1367.83294	0.88572
1365.77913	0.88620
1363.72533	0.88682
1361.67153	0.88756
1359.61772	0.88829
1357.56392	0.88895
1355.51012	0.88915
1353.45631	0.88916
1351.40251	0.88952
1349.34871	0.88986
1347.29491	0.88965
1345.24110	0.88898
1343.18730	0.88821
1341.13350	0.88738
1339.07969	0.88614
1337.02589	0.88479
1334.97209	0.88373
1332.91828	0.88281
1330.86448	0.88217
1328.81068	0.88196
1326.75687	0.88191
1324.70307	0.88206
1322.64927	0.88288
1320.59546	0.88422
1318.54166	0.88550
1316.48786	0.88663
1314.43405	0.88778
1312.38025	0.88900
1310.32645	0.89048
1308.27264	0.89212
1306.21884	0.89363
1304.16504	0.89499
1302.11123	0.89612
1300.05743	0.89698
1298.00363	0.89776
1295.94982	0.89828
1293.89602	0.89823
1291.84222	0.89773
1289.78842	0.89684
1287.73461	0.89558
1285.68081	0.89391
1283.62701	0.89193
1281.57320	0.88985
1279.51940	0.88759
1277.46560	0.88501
1275.41179	0.88212
1273.35799	0.87919
1271.30419	0.87661
1269.25038	0.87470
1267.19658	0.87352
1265.14278	0.87302
1263.08897	0.87343
1261.03517	0.87480
1258.98137	0.87661
1256.92756	0.87832
1254.87376	0.87992
1252.81996	0.88123
1250.76615	0.88196
1248.71235	0.88238
1246.65855	0.88256
1244.60474	0.88227
1242.55094	0.88165
1240.49714	0.88070
1238.44334	0.87954
1236.38953	0.87844
1234.33573	0.87724
1232.28193	0.87556
1230.22812	0.87354
1228.17432	0.87175
1226.12052	0.87036
1224.06671	0.86927
1222.01291	0.86865
1219.95911	0.86852
1217.90530	0.86855
1215.85150	0.86847
1213.79770	0.86842
1211.74389	0.86875
1209.69009	0.86946
1207.63629	0.87018
1205.58248	0.87091
1203.52868	0.87187
1201.47488	0.87287
1199.42107	0.87350
1197.36727	0.87345
1195.31347	0.87280
1193.25966	0.87197
1191.20586	0.87107
1189.15206	0.86973
1187.09825	0.86779
1185.04445	0.86557
1182.99065	0.86325
1180.93685	0.86069
1178.88304	0.85790
1176.82924	0.85479
1174.77544	0.85109
1172.72163	0.84656
1170.66783	0.84099
1168.61403	0.83454
1166.56022	0.82783
1164.50642	0.82127
1162.45262	0.81538
1160.39881	0.81079
1158.34501	0.80708
1156.29121	0.80339
1154.23740	0.79960
1152.18360	0.79583
1150.12980	0.79221
1148.07599	0.78878
1146.02219	0.78543
1143.96839	0.78207
1141.91458	0.77865
1139.86078	0.77545
1137.80698	0.77281
1135.75317	0.76996
1133.69937	0.76620
1131.64557	0.76188
1129.59176	0.75725
1127.53796	0.75266
1125.48416	0.74874
1123.43036	0.74541
1121.37655	0.74238
1119.32275	0.73935
1117.26895	0.73581
1115.21514	0.73157
1113.16134	0.72725
1111.10754	0.72336
1109.05373	0.71959
1106.99993	0.71586
1104.94613	0.71249
1102.89232	0.70948
1100.83852	0.70646
1098.78472	0.70314
1096.73091	0.69953
1094.67711	0.69589
1092.62331	0.69266
1090.56950	0.69026
1088.51570	0.68849
1086.46190	0.68675
1084.40809	0.68492
1082.35429	0.68318
1080.30049	0.68150
1078.24668	0.67969
1076.19288	0.67775
1074.13908	0.67571
1072.08528	0.67344
1070.03147	0.67065
1067.97767	0.66733
1065.92387	0.66358
1063.87006	0.65925
1061.81626	0.65455
1059.76246	0.65002
1057.70865	0.64587
1055.65485	0.64154
1053.60105	0.63665
1051.54724	0.63166
1049.49344	0.62645
1047.43964	0.62014
1045.38583	0.61300
1043.33203	0.60573
1041.27823	0.59787
1039.22442	0.58930
1037.17062	0.58098
1035.11682	0.57330
1033.06301	0.56603
1031.00921	0.55955
1028.95541	0.55452
1026.90160	0.55090
1024.84780	0.54859
1022.79400	0.54745
1020.74019	0.54678
1018.68639	0.54587
1016.63259	0.54475
1014.57879	0.54402
1012.52498	0.54343
1010.47118	0.54246
1008.41738	0.54151
1006.36357	0.54072
1004.30977	0.54041
1002.25597	0.54163
1000.20216	0.54438
998.14836	0.54781
996.09456	0.55175
994.04075	0.55608
991.98695	0.56066
989.93315	0.56557
987.87934	0.57085
985.82554	0.57652
983.77174	0.58270
981.71793	0.58952
979.66413	0.59715
977.61033	0.60567
975.55652	0.61493
973.50272	0.62431
971.44892	0.63331
969.39511	0.64199
967.34131	0.65040
965.28751	0.65841
963.23371	0.66595
961.17990	0.67287
959.12610	0.67911
957.07230	0.68530
955.01849	0.69188
952.96469	0.69840
950.91089	0.70465
948.85708	0.71095
946.80328	0.71707
944.74948	0.72249
942.69567	0.72747
940.64187	0.73242
938.58807	0.73699
936.53426	0.74057
934.48046	0.74382
932.42666	0.74742
930.37285	0.75061
928.31905	0.75302
926.26525	0.75490
924.21144	0.75618
922.15764	0.75707
920.10384	0.75798
918.05003	0.75852
915.99623	0.75818
913.94243	0.75797
911.88862	0.75884
909.83482	0.76065
907.78102	0.76366
905.72722	0.76768
903.67341	0.77161
901.61961	0.77516
899.56581	0.77908
897.51200	0.78318
895.45820	0.78677
893.40440	0.79029
891.35059	0.79396
889.29679	0.79736
887.24299	0.80029
885.18918	0.80265
883.13538	0.80439
881.08158	0.80597
879.02777	0.80765
876.97397	0.80927
874.92017	0.81136
872.86636	0.81407
870.81256	0.81665
868.75876	0.81862
866.70495	0.81991
864.65115	0.82082
862.59735	0.82140
860.54354	0.82200
858.48974	0.82320
856.43594	0.82482
854.38213	0.82647
852.32833	0.82779
850.27453	0.82851
848.22073	0.82890
846.16692	0.82886
844.11312	0.82842
842.05932	0.82768
840.00551	0.82624
837.95171	0.82421
835.89791	0.82191
833.84410	0.81954
831.79030	0.81793
829.73650	0.81743
827.68269	0.81713
825.62889	0.81652
823.57509	0.81584
821.52128	0.81489
819.46748	0.81413
817.41368	0.81453
815.35987	0.81503
813.30607	0.81436
811.25227	0.81310
809.19846	0.81132
807.14466	0.80847
805.09086	0.80475
803.03705	0.80048
800.98325	0.79637
798.92945	0.79333
796.87565	0.79167
794.82184	0.79163
792.76804	0.79282
790.71424	0.79376
788.66043	0.79314
786.60663	0.79128
784.55283	0.78920
782.49902	0.78710
780.44522	0.78488
778.39142	0.78318
776.33761	0.78283
774.28381	0.78296
772.23001	0.78287
770.17620	0.78321
768.12240	0.78283
766.06860	0.78059
764.01479	0.77818
761.96099	0.77687
759.90719	0.77592
757.85338	0.77499
755.79958	0.77417
753.74578	0.77314
751.69197	0.77173
749.63817	0.77062
747.58437	0.77017
745.53056	0.76960
743.47676	0.76916
741.42296	0.77029
739.36916	0.77240
737.31535	0.77366
735.26155	0.77374
733.20775	0.77293
731.15394	0.77167
729.10014	0.77058
727.04634	0.76950
724.99253	0.76837
722.93873	0.76766
720.88493	0.76718
718.83112	0.76669
716.77732	0.76627
714.72352	0.76519
712.66971	0.76321
710.61591	0.76160
708.56211	0.76043
706.50830	0.75847
704.45450	0.75621
702.40070	0.75434
700.34689	0.75187
698.29309	0.74862
696.23929	0.74593
694.18548	0.74408
692.13168	0.74269
690.07788	0.74221
688.02408	0.74274
685.97027	0.74268
683.91647	0.74113
681.86267	0.73989
679.80886	0.73916
677.75506	0.73708
675.70126	0.73407
673.64745	0.73147
671.59365	0.72987
669.53985	0.72861
667.48604	0.72643
665.43224	0.72432
663.37844	0.72227
661.32463	0.71951
659.27083	0.71671
657.21703	0.71450
655.16322	0.71234
653.10942	0.70952
651.05562	0.70632
649.00181	0.70397
646.94801	0.70268
644.89421	0.70149
642.84040	0.70153
640.78660	0.70373
638.73280	0.70586
636.67899	0.70591
634.62519	0.70539
632.57139	0.70578
630.51759	0.70552
628.46378	0.70466
626.40998	0.70425
624.35618	0.70348
622.30237	0.70202
620.24857	0.70019
618.19477	0.69839
616.14096	0.69688
614.08716	0.69511
612.03336	0.69283
609.97955	0.69024
607.92575	0.68708
605.87195	0.68318
603.81814	0.67871
601.76434	0.67412
599.71054	0.67054
597.65673	0.66757
595.60293	0.66425
593.54913	0.66235
591.49532	0.66285
589.44152	0.66376
587.38772	0.66347
585.33391	0.66220
583.28011	0.66121
581.22631	0.66157
579.17250	0.66288
577.11870	0.66332
575.06490	0.66155
573.01110	0.65934
570.95729	0.65799
568.90349	0.65558
566.84969	0.65211
564.79588	0.64836
562.74208	0.64334
560.68828	0.63726
558.63447	0.63187
556.58067	0.62761
554.52687	0.62303
552.47306	0.61819
550.41926	0.61415
548.36546	0.60977
546.31165	0.60475
544.25785	0.60004
542.20405	0.59399
540.15024	0.58612
538.09644	0.57867
536.04264	0.57218
533.98883	0.56639
531.93503	0.56261
529.88123	0.56145
527.82742	0.56079
525.77362	0.56005
523.71982	0.56088
521.66602	0.56271
519.61221	0.56557
517.55841	0.56941
515.50461	0.57251
513.45080	0.57486
511.39700	0.57735
509.34320	0.58061
507.28939	0.58362
505.23559	0.58587
503.18179	0.58872
501.12798	0.59114
499.07418	0.59222
497.02038	0.59255
494.96657	0.59112
492.91277	0.58756
490.85897	0.58324
488.80516	0.57828
486.75136	0.57084
484.69756	0.55987
482.64375	0.54770
480.58995	0.53638
478.53615	0.52537
476.48234	0.51524
474.42854	0.50586
472.37474	0.49578
470.32093	0.48799
468.26713	0.48467
466.21333	0.48178
464.15953	0.47847
462.10572	0.47839
460.05192	0.48065
457.99812	0.48466
455.94431	0.49195
453.89051	0.49788
451.83671	0.50046
449.78290	0.50356
447.72910	0.50777
445.67530	0.50861
443.62149	0.50766
441.56769	0.50863
439.51389	0.50815
437.46008	0.50582
435.40628	0.50495
433.35248	0.50436
431.29867	0.50104
429.24487	0.49592
427.19107	0.49088
425.13726	0.48764
423.08346	0.48998
421.02966	0.49864
418.97585	0.50655
416.92205	0.50467
414.86825	0.50277
412.81445	0.50686
410.76064	0.51210
408.70684	0.51711
406.65304	0.52258
404.59923	0.52287
402.54543	0.51914
400.49163	0.51732
398.43782	0.51974
