3996.70104	0.99703
3994.64724	0.99687
3992.59344	0.99695
3990.53964	0.99707
3988.48583	0.99746
3986.43203	0.99820
3984.37823	0.99887
3982.32442	0.99900
3980.27062	0.99852
3978.21682	0.99776
3976.16301	0.99731
3974.10921	0.99755
3972.05541	0.99808
3970.00160	0.99819
3967.94780	0.99786
3965.89400	0.99741
3963.84019	0.99712
3961.78639	0.99747
3959.73259	0.99811
3957.67878	0.99805
3955.62498	0.99760
3953.57118	0.99767
3951.51737	0.99800
3949.46357	0.99803
3947.40977	0.99795
3945.35596	0.99765
3943.30216	0.99727
3941.24836	0.99733
3939.19455	0.99723
3937.14075	0.99676
3935.08695	0.99674
3933.03315	0.99725
3930.97934	0.99778
3928.92554	0.99772
3926.87174	0.99735
3924.81793	0.99777
3922.76413	0.99860
3920.71033	0.99851
3918.65652	0.99776
3916.60272	0.99757
3914.54892	0.99810
3912.49511	0.99850
3910.44131	0.99854
3908.38751	0.99857
3906.33370	0.99858
3904.27990	0.99819
3902.22610	0.99769
3900.17229	0.99775
3898.11849	0.99833
3896.06469	0.99902
3894.01088	0.99945
3891.95708	0.99953
3889.90328	0.99900
3887.84947	0.99801
3885.79567	0.99748
3883.74187	0.99781
3881.68807	0.99798
3879.63426	0.99779
3877.58046	0.99786
3875.52666	0.99798
3873.47285	0.99780
3871.41905	0.99769
3869.36525	0.99802
3867.31144	0.99830
3865.25764	0.99838
3863.20384	0.99836
3861.15003	0.99826
3859.09623	0.99829
3857.04243	0.99820
3854.98862	0.99767
3852.93482	0.99699
3850.88102	0.99712
3848.82721	0.99792
3846.77341	0.99874
3844.71961	0.99905
3842.66580	0.99868
3840.61200	0.99821
3838.55820	0.99816
3836.50439	0.99820
3834.45059	0.99788
3832.39679	0.99739
3830.34298	0.99731
3828.28918	0.99770
3826.23538	0.99805
3824.18158	0.99803
3822.12777	0.99721
3820.07397	0.99615
3818.02017	0.99653
3815.96636	0.99721
3813.91256	0.99721
3811.85876	0.99711
3809.80495	0.99693
3807.75115	0.99651
3805.69735	0.99676
3803.64354	0.99802
3801.58974	0.99914
3799.53594	0.99898
3797.48213	0.99820
3795.42833	0.99777
3793.37453	0.99785
3791.32072	0.99797
3789.26692	0.99799
3787.21312	0.99822
3785.15931	0.99859
3783.10551	0.99856
3781.05171	0.99849
3778.99790	0.99873
3776.94410	0.99878
3774.89030	0.99859
3772.83650	0.99851
3770.78269	0.99859
3768.72889	0.99843
3766.67509	0.99807
3764.62128	0.99808
3762.56748	0.99850
3760.51368	0.99893
3758.45987	0.99874
3756.40607	0.99773
3754.35227	0.99688
3752.29846	0.99684
3750.24466	0.99734
3748.19086	0.99777
3746.13705	0.99809
3744.08325	0.99852
3742.02945	0.99858
3739.97564	0.99829
3737.92184	0.99857
3735.86804	0.99929
3733.81423	0.99885
3731.76043	0.99789
3729.70663	0.99743
3727.65282	0.99740
3725.59902	0.99777
3723.54522	0.99808
3721.49141	0.99798
3719.43761	0.99808
3717.38381	0.99877
3715.33001	0.99923
3713.27620	0.99847
3711.22240	0.99707
3709.16860	0.99707
3707.11479	0.99773
3705.06099	0.99759
3703.00719	0.99684
3700.95338	0.99655
3698.89958	0.99673
3696.84578	0.99687
3694.79197	0.99732
3692.73817	0.99800
3690.68437	0.99862
3688.63056	0.99898
3686.57676	0.99853
3684.52296	0.99724
3682.46915	0.99604
3680.41535	0.99573
3678.36155	0.99566
3676.30774	0.99592
3674.25394	0.99673
3672.20014	0.99663
3670.14633	0.99714
3668.09253	0.99846
3666.03873	0.99840
3663.98492	0.99731
3661.93112	0.99638
3659.87732	0.99581
3657.82352	0.99462
3655.76971	0.99347
3653.71591	0.99354
3651.66211	0.99362
3649.60830	0.99356
3647.55450	0.99448
3645.50070	0.99519
3643.44689	0.99549
3641.39309	0.99584
3639.33929	0.99592
3637.28548	0.99553
3635.23168	0.99507
3633.17788	0.99481
3631.12407	0.99497
3629.07027	0.99578
3627.01647	0.99622
3624.96266	0.99592
3622.90886	0.99558
3620.85506	0.99498
3618.80125	0.99442
3616.74745	0.99460
3614.69365	0.99480
3612.63984	0.99473
3610.58604	0.99475
3608.53224	0.99500
3606.47844	0.99530
3604.42463	0.99512
3602.37083	0.99441
3600.31703	0.99384
3598.26322	0.99386
3596.20942	0.99384
3594.15562	0.99357
3592.10181	0.99369
3590.04801	0.99395
3587.99421	0.99376
3585.94040	0.99372
3583.88660	0.99409
3581.83280	0.99381
3579.77899	0.99298
3577.72519	0.99274
3575.67139	0.99302
3573.61758	0.99338
3571.56378	0.99375
3569.50998	0.99367
3567.45617	0.99336
3565.40237	0.99359
3563.34857	0.99395
3561.29476	0.99410
3559.24096	0.99408
3557.18716	0.99365
3555.13335	0.99302
3553.07955	0.99281
3551.02575	0.99304
3548.97195	0.99310
3546.91814	0.99273
3544.86434	0.99259
3542.81054	0.99304
3540.75673	0.99332
3538.70293	0.99309
3536.64913	0.99290
3534.59532	0.99325
3532.54152	0.99375
3530.48772	0.99347
3528.43391	0.99265
3526.38011	0.99282
3524.32631	0.99351
3522.27250	0.99329
3520.21870	0.99298
3518.16490	0.99314
3516.11109	0.99326
3514.05729	0.99346
3512.00349	0.99343
3509.94968	0.99281
3507.89588	0.99261
3505.84208	0.99289
3503.78827	0.99277
3501.73447	0.99256
3499.68067	0.99287
3497.62687	0.99319
3495.57306	0.99302
3493.51926	0.99295
3491.46546	0.99362
3489.41165	0.99407
3487.35785	0.99344
3485.30405	0.99274
3483.25024	0.99269
3481.19644	0.99265
3479.14264	0.99234
3477.08883	0.99184
3475.03503	0.99144
3472.98123	0.99153
3470.92742	0.99164
3468.87362	0.99140
3466.81982	0.99119
3464.76601	0.99155
3462.71221	0.99240
3460.65841	0.99275
3458.60460	0.99249
3456.55080	0.99206
3454.49700	0.99123
3452.44319	0.99042
3450.38939	0.99021
3448.33559	0.99043
3446.28178	0.99068
3444.22798	0.99087
3442.17418	0.99125
3440.12038	0.99143
3438.06657	0.99089
3436.01277	0.99026
3433.95897	0.99022
3431.90516	0.99051
3429.85136	0.99091
3427.79756	0.99124
3425.74375	0.99129
3423.68995	0.99126
3421.63615	0.99113
3419.58234	0.99104
3417.52854	0.99079
3415.47474	0.99040
3413.42093	0.99087
3411.36713	0.99150
3409.31333	0.99104
3407.25952	0.99038
3405.20572	0.99045
3403.15192	0.99086
3401.09811	0.99115
3399.04431	0.99115
3396.99051	0.99086
3394.93670	0.99066
3392.88290	0.99060
3390.82910	0.99042
3388.77529	0.99018
3386.72149	0.99009
3384.66769	0.99020
3382.61389	0.99008
3380.56008	0.98970
3378.50628	0.98983
3376.45248	0.99028
3374.39867	0.99024
3372.34487	0.98996
3370.29107	0.98982
3368.23726	0.98981
3366.18346	0.99025
3364.12966	0.99093
3362.07585	0.99118
3360.02205	0.99088
3357.96825	0.99039
3355.91444	0.99011
3353.86064	0.99008
3351.80684	0.99027
3349.75303	0.99041
3347.69923	0.99019
3345.64543	0.98979
3343.59162	0.98966
3341.53782	0.98999
3339.48402	0.99037
3337.43021	0.99071
3335.37641	0.99104
3333.32261	0.99092
3331.26881	0.99053
3329.21500	0.99026
3327.16120	0.99027
3325.10740	0.99040
3323.05359	0.99024
3320.99979	0.99000
3318.94599	0.98988
3316.89218	0.98988
3314.83838	0.98977
3312.78458	0.98957
3310.73077	0.98982
3308.67697	0.99032
3306.62317	0.99051
3304.56936	0.99046
3302.51556	0.99056
3300.46176	0.99081
3298.40795	0.99076
3296.35415	0.99064
3294.30035	0.99075
3292.24654	0.99070
3290.19274	0.99050
3288.13894	0.99037
3286.08513	0.99012
3284.03133	0.99002
3281.97753	0.99032
3279.92372	0.99098
3277.86992	0.99180
3275.81612	0.99206
3273.76232	0.99166
3271.70851	0.99117
3269.65471	0.99090
3267.60091	0.99070
3265.54710	0.99026
3263.49330	0.98962
3261.43950	0.98943
3259.38569	0.98991
3257.33189	0.99043
3255.27809	0.99075
3253.22428	0.99095
3251.17048	0.99124
3249.11668	0.99151
3247.06287	0.99135
3245.00907	0.99083
3242.95527	0.99073
3240.90146	0.99126
3238.84766	0.99157
3236.79386	0.99118
3234.74005	0.99052
3232.68625	0.99016
3230.63245	0.99053
3228.57864	0.99140
3226.52484	0.99174
3224.47104	0.99116
3222.41724	0.99051
3220.36343	0.99038
3218.30963	0.99077
3216.25583	0.99117
3214.20202	0.99107
3212.14822	0.99109
3210.09442	0.99163
3208.04061	0.99180
3205.98681	0.99133
3203.93301	0.99099
3201.87920	0.99126
3199.82540	0.99167
3197.77160	0.99162
3195.71779	0.99138
3193.66399	0.99148
3191.61019	0.99162
3189.55638	0.99179
3187.50258	0.99233
3185.44878	0.99268
3183.39497	0.99220
3181.34117	0.99136
3179.28737	0.99111
3177.23356	0.99143
3175.17976	0.99166
3173.12596	0.99161
3171.07215	0.99154
3169.01835	0.99173
3166.96455	0.99188
3164.91075	0.99180
3162.85694	0.99203
3160.80314	0.99237
3158.74934	0.99228
3156.69553	0.99227
3154.64173	0.99257
3152.58793	0.99247
3150.53412	0.99212
3148.48032	0.99214
3146.42652	0.99226
3144.37271	0.99246
3142.31891	0.99297
3140.26511	0.99304
3138.21130	0.99251
3136.15750	0.99209
3134.10370	0.99192
3132.04989	0.99199
3129.99609	0.99226
3127.94229	0.99237
3125.88848	0.99214
3123.83468	0.99192
3121.78088	0.99193
3119.72707	0.99202
3117.67327	0.99219
3115.61947	0.99241
3113.56566	0.99263
3111.51186	0.99259
3109.45806	0.99254
3107.40426	0.99301
3105.35045	0.99326
3103.29665	0.99279
3101.24285	0.99258
3099.18904	0.99282
3097.13524	0.99308
3095.08144	0.99355
3093.02763	0.99381
3090.97383	0.99334
3088.92003	0.99290
3086.86622	0.99319
3084.81242	0.99385
3082.75862	0.99408
3080.70481	0.99364
3078.65101	0.99325
3076.59721	0.99315
3074.54340	0.99305
3072.48960	0.99316
3070.43580	0.99342
3068.38199	0.99353
3066.32819	0.99341
3064.27439	0.99311
3062.22058	0.99286
3060.16678	0.99295
3058.11298	0.99333
3056.05918	0.99351
3054.00537	0.99340
3051.95157	0.99346
3049.89777	0.99370
3047.84396	0.99353
3045.79016	0.99298
3043.73636	0.99272
3041.68255	0.99278
3039.62875	0.99296
3037.57495	0.99337
3035.52114	0.99363
3033.46734	0.99354
3031.41354	0.99345
3029.35973	0.99359
3027.30593	0.99397
3025.25213	0.99436
3023.19832	0.99444
3021.14452	0.99451
3019.09072	0.99495
3017.03691	0.99513
3014.98311	0.99470
3012.92931	0.99423
3010.87550	0.99407
3008.82170	0.99424
3006.76790	0.99442
3004.71409	0.99446
3002.66029	0.99450
3000.60649	0.99441
2998.55269	0.99406
2996.49888	0.99375
2994.44508	0.99366
2992.39128	0.99370
2990.33747	0.99371
2988.28367	0.99347
2986.22987	0.99307
2984.17606	0.99283
2982.12226	0.99282
2980.06846	0.99296
2978.01465	0.99304
2975.96085	0.99279
2973.90705	0.99216
2971.85324	0.99155
2969.79944	0.99133
2967.74564	0.99141
2965.69183	0.99151
2963.63803	0.99154
2961.58423	0.99159
2959.53042	0.99157
2957.47662	0.99156
2955.42282	0.99181
2953.36901	0.99207
2951.31521	0.99189
2949.26141	0.99152
2947.20761	0.99135
2945.15380	0.99124
2943.10000	0.99112
2941.04620	0.99127
2938.99239	0.99123
2936.93859	0.99088
2934.88479	0.99088
2932.83098	0.99109
2930.77718	0.99102
2928.72338	0.99094
2926.66957	0.99122
2924.61577	0.99147
2922.56197	0.99121
2920.50816	0.99089
2918.45436	0.99117
2916.40056	0.99178
2914.34675	0.99202
2912.29295	0.99193
2910.23915	0.99190
2908.18534	0.99191
2906.13154	0.99216
2904.07774	0.99265
2902.02393	0.99282
2899.97013	0.99250
2897.91633	0.99234
2895.86252	0.99250
2893.80872	0.99240
2891.75492	0.99227
2889.70112	0.99249
2887.64731	0.99259
2885.59351	0.99235
2883.53971	0.99218
2881.48590	0.99217
2879.43210	0.99209
2877.37830	0.99213
2875.32449	0.99243
2873.27069	0.99265
2871.21689	0.99231
2869.16308	0.99167
2867.10928	0.99168
2865.05548	0.99244
2863.00167	0.99307
2860.94787	0.99331
2858.89407	0.99334
2856.84026	0.99316
2854.78646	0.99303
2852.73266	0.99303
2850.67885	0.99278
2848.62505	0.99239
2846.57125	0.99264
2844.51744	0.99349
2842.46364	0.99409
2840.40984	0.99411
2838.35603	0.99390
2836.30223	0.99379
2834.24843	0.99372
2832.19463	0.99367
2830.14082	0.99372
2828.08702	0.99376
2826.03322	0.99382
2823.97941	0.99408
2821.92561	0.99441
2819.87181	0.99457
2817.81800	0.99454
2815.76420	0.99434
2813.71040	0.99412
2811.65659	0.99409
2809.60279	0.99412
2807.54899	0.99414
2805.49518	0.99425
2803.44138	0.99423
2801.38758	0.99406
2799.33377	0.99417
2797.27997	0.99457
2795.22617	0.99462
2793.17236	0.99445
2791.11856	0.99445
2789.06476	0.99453
2787.01095	0.99479
2784.95715	0.99517
2782.90335	0.99544
2780.84955	0.99521
2778.79574	0.99476
2776.74194	0.99474
2774.68814	0.99489
2772.63433	0.99488
2770.58053	0.99489
2768.52673	0.99488
2766.47292	0.99493
2764.41912	0.99509
2762.36532	0.99526
2760.31151	0.99533
2758.25771	0.99510
2756.20391	0.99480
2754.15010	0.99472
2752.09630	0.99491
2750.04250	0.99529
2747.98869	0.99564
2745.93489	0.99563
2743.88109	0.99531
2741.82728	0.99518
2739.77348	0.99532
2737.71968	0.99549
2735.66587	0.99561
2733.61207	0.99563
2731.55827	0.99557
2729.50446	0.99557
2727.45066	0.99578
2725.39686	0.99583
2723.34306	0.99538
2721.28925	0.99493
2719.23545	0.99501
2717.18165	0.99550
2715.12784	0.99599
2713.07404	0.99610
2711.02024	0.99600
2708.96643	0.99608
2706.91263	0.99604
2704.85883	0.99569
2702.80502	0.99555
2700.75122	0.99569
2698.69742	0.99566
2696.64361	0.99560
2694.58981	0.99588
2692.53601	0.99607
2690.48220	0.99600
2688.42840	0.99581
2686.37460	0.99568
2684.32079	0.99573
2682.26699	0.99550
2680.21319	0.99518
2678.15938	0.99540
2676.10558	0.99586
2674.05178	0.99610
2671.99797	0.99626
2669.94417	0.99629
2667.89037	0.99609
2665.83657	0.99599
2663.78276	0.99595
2661.72896	0.99563
2659.67516	0.99514
2657.62135	0.99497
2655.56755	0.99508
2653.51375	0.99514
2651.45994	0.99498
2649.40614	0.99478
2647.35234	0.99501
2645.29853	0.99551
2643.24473	0.99573
2641.19093	0.99560
2639.13712	0.99531
2637.08332	0.99498
2635.02952	0.99488
2632.97571	0.99512
2630.92191	0.99543
2628.86811	0.99581
2626.81430	0.99620
2624.76050	0.99616
2622.70670	0.99598
2620.65289	0.99615
2618.59909	0.99637
2616.54529	0.99654
2614.49149	0.99672
2612.43768	0.99671
2610.38388	0.99665
2608.33008	0.99670
2606.27627	0.99660
2604.22247	0.99624
2602.16867	0.99583
2600.11486	0.99591
2598.06106	0.99662
2596.00726	0.99692
2593.95345	0.99641
2591.89965	0.99603
2589.84585	0.99606
2587.79204	0.99608
2585.73824	0.99655
2583.68444	0.99737
2581.63063	0.99765
2579.57683	0.99784
2577.52303	0.99797
2575.46922	0.99715
2573.41542	0.99609
2571.36162	0.99587
2569.30781	0.99660
2567.25401	0.99756
2565.20021	0.99757
2563.14640	0.99677
2561.09260	0.99614
2559.03880	0.99576
2556.98500	0.99570
2554.93119	0.99632
2552.87739	0.99672
2550.82359	0.99638
2548.76978	0.99620
2546.71598	0.99651
2544.66218	0.99723
2542.60837	0.99793
2540.55457	0.99776
2538.50077	0.99699
2536.44696	0.99638
2534.39316	0.99635
2532.33936	0.99659
2530.28555	0.99652
2528.23175	0.99653
2526.17795	0.99712
2524.12414	0.99769
2522.07034	0.99776
2520.01654	0.99756
2517.96273	0.99730
2515.90893	0.99713
2513.85513	0.99703
2511.80132	0.99681
2509.74752	0.99657
2507.69372	0.99659
2505.63992	0.99696
2503.58611	0.99748
2501.53231	0.99764
2499.47851	0.99722
2497.42470	0.99684
2495.37090	0.99687
2493.31710	0.99669
2491.26329	0.99630
2489.20949	0.99622
2487.15569	0.99632
2485.10188	0.99659
2483.04808	0.99716
2480.99428	0.99779
2478.94047	0.99781
2476.88667	0.99720
2474.83287	0.99697
2472.77906	0.99717
2470.72526	0.99693
2468.67146	0.99666
2466.61765	0.99706
2464.56385	0.99753
2462.51005	0.99749
2460.45624	0.99731
2458.40244	0.99751
2456.34864	0.99762
2454.29483	0.99682
2452.24103	0.99579
2450.18723	0.99534
2448.13343	0.99522
2446.07962	0.99574
2444.02582	0.99667
2441.97202	0.99714
2439.91821	0.99743
2437.86441	0.99744
2435.81061	0.99683
2433.75680	0.99639
2431.70300	0.99670
2429.64920	0.99707
2427.59539	0.99674
2425.54159	0.99627
2423.48779	0.99671
2421.43398	0.99757
2419.38018	0.99772
2417.32638	0.99765
2415.27257	0.99790
2413.21877	0.99786
2411.16497	0.99766
2409.11116	0.99762
2407.05736	0.99730
2405.00356	0.99698
2402.94975	0.99717
2400.89595	0.99746
2398.84215	0.99741
2396.78834	0.99713
2394.73454	0.99698
2392.68074	0.99722
2390.62694	0.99750
2388.57313	0.99752
2386.51933	0.99737
2384.46553	0.99711
2382.41172	0.99692
2380.35792	0.99699
2378.30412	0.99706
2376.25031	0.99666
2374.19651	0.99576
2372.14271	0.99490
2370.08890	0.99469
2368.03510	0.99496
2365.98130	0.99529
2363.92749	0.99609
2361.87369	0.99699
2359.81989	0.99702
2357.76608	0.99615
2355.71228	0.99519
2353.65848	0.99526
2351.60467	0.99629
2349.55087	0.99705
2347.49707	0.99683
2345.44326	0.99565
2343.38946	0.99492
2341.33566	0.99572
2339.28186	0.99644
2337.22805	0.99661
2335.17425	0.99670
2333.12045	0.99665
2331.06664	0.99675
2329.01284	0.99664
2326.95904	0.99594
2324.90523	0.99524
2322.85143	0.99492
2320.79763	0.99446
2318.74382	0.99429
2316.69002	0.99532
2314.63622	0.99656
2312.58241	0.99645
2310.52861	0.99542
2308.47481	0.99503
2306.42100	0.99525
2304.36720	0.99543
2302.31340	0.99584
2300.25959	0.99636
2298.20579	0.99627
2296.15199	0.99574
2294.09818	0.99529
2292.04438	0.99494
2289.99058	0.99496
2287.93677	0.99532
2285.88297	0.99545
2283.82917	0.99517
2281.77537	0.99484
2279.72156	0.99468
2277.66776	0.99456
2275.61396	0.99439
2273.56015	0.99465
2271.50635	0.99535
2269.45255	0.99596
2267.39874	0.99680
2265.34494	0.99735
2263.29114	0.99701
2261.23733	0.99651
2259.18353	0.99638
2257.12973	0.99686
2255.07592	0.99740
2253.02212	0.99798
2250.96832	0.99852
2248.91451	0.99859
2246.86071	0.99856
2244.80691	0.99822
2242.75310	0.99770
2240.69930	0.99727
2238.64550	0.99649
2236.59169	0.99567
2234.53789	0.99558
2232.48409	0.99606
2230.43029	0.99641
2228.37648	0.99683
2226.32268	0.99756
2224.26888	0.99786
2222.21507	0.99749
2220.16127	0.99687
2218.10747	0.99667
2216.05366	0.99723
2213.99986	0.99818
2211.94606	0.99809
2209.89225	0.99661
2207.83845	0.99623
2205.78465	0.99725
2203.73084	0.99742
2201.67704	0.99741
2199.62324	0.99825
2197.56943	0.99809
2195.51563	0.99653
2193.46183	0.99524
2191.40802	0.99517
2189.35422	0.99569
2187.30042	0.99532
2185.24661	0.99549
2183.19281	0.99762
2181.13901	0.99976
2179.08520	0.99893
2177.03140	0.99540
2174.97760	0.99418
2172.92380	0.99668
2170.86999	0.99893
2168.81619	0.99878
2166.76239	0.99622
2164.70858	0.99232
2162.65478	0.98983
2160.60098	0.99111
2158.54717	0.99633
2156.49337	1.00164
2154.43957	1.00336
2152.38576	1.00277
2150.33196	1.00242
2148.27816	1.00218
2146.22435	1.00049
2144.17055	0.99876
2142.11675	0.99894
2140.06294	0.99977
2138.00914	0.99956
2135.95534	0.99864
2133.90153	0.99820
2131.84773	0.99866
2129.79393	0.99969
2127.74012	1.00009
2125.68632	0.99900
2123.63252	0.99712
2121.57871	0.99585
2119.52491	0.99566
2117.47111	0.99579
2115.41731	0.99603
2113.36350	0.99686
2111.30970	0.99761
2109.25590	0.99765
2107.20209	0.99770
2105.14829	0.99780
2103.09449	0.99729
2101.04068	0.99684
2098.98688	0.99770
2096.93308	0.99894
2094.87927	0.99918
2092.82547	0.99909
2090.77167	0.99915
2088.71786	0.99905
2086.66406	0.99883
2084.61026	0.99795
2082.55645	0.99611
2080.50265	0.99465
2078.44885	0.99475
2076.39504	0.99616
2074.34124	0.99735
2072.28744	0.99784
2070.23363	0.99806
2068.17983	0.99711
2066.12603	0.99550
2064.07223	0.99578
2062.01842	0.99809
2059.96462	1.00032
2057.91082	1.00093
2055.85701	1.00030
2053.80321	0.99946
2051.74941	0.99816
2049.69560	0.99670
2047.64180	0.99632
2045.58800	0.99739
2043.53419	0.99930
2041.48039	1.00070
2039.42659	1.00126
2037.37278	1.00136
2035.31898	1.00071
2033.26518	0.99885
2031.21137	0.99626
2029.15757	0.99440
2027.10377	0.99485
2025.04996	0.99833
2022.99616	1.00118
2020.94236	0.99963
2018.88855	0.99633
2016.83475	0.99421
2014.78095	0.99458
2012.72714	0.99802
2010.67334	1.00021
2008.61954	0.99873
2006.56574	0.99830
2004.51193	0.99991
2002.45813	0.99939
2000.40433	0.99732
1998.35052	0.99718
1996.29672	0.99943
1994.24292	1.00153
1992.18911	1.00099
1990.13531	0.99827
1988.08151	0.99580
1986.02770	0.99540
1983.97390	0.99781
1981.92010	1.00080
1979.86629	1.00045
1977.81249	0.99782
1975.75869	0.99735
1973.70488	0.99915
1971.65108	1.00118
1969.59728	1.00161
1967.54347	0.99960
1965.48967	0.99789
1963.43587	0.99926
1961.38206	1.00216
1959.32826	1.00412
1957.27446	1.00469
1955.22066	1.00374
1953.16685	1.00143
1951.11305	0.99906
1949.05925	0.99728
1947.00544	0.99664
1944.95164	0.99797
1942.89784	0.99989
1940.84403	0.99978
1938.79023	0.99811
1936.73643	0.99760
1934.68262	0.99860
1932.62882	0.99918
1930.57502	0.99910
1928.52121	0.99880
1926.46741	0.99806
1924.41361	0.99773
1922.35980	0.99843
1920.30600	0.99845
1918.25220	0.99718
1916.19839	0.99689
1914.14459	0.99842
1912.09079	0.99979
1910.03698	0.99947
1907.98318	0.99824
1905.92938	0.99755
1903.87557	0.99744
1901.82177	0.99784
1899.76797	0.99869
1897.71417	0.99911
1895.66036	0.99905
1893.60656	0.99941
1891.55276	0.99980
1889.49895	0.99964
1887.44515	0.99929
1885.39135	0.99891
1883.33754	0.99863
1881.28374	0.99869
1879.22994	0.99884
1877.17613	0.99880
1875.12233	0.99866
1873.06853	0.99873
1871.01472	0.99869
1868.96092	0.99813
1866.90712	0.99802
1864.85331	0.99874
1862.79951	0.99912
1860.74571	0.99872
1858.69190	0.99820
1856.63810	0.99776
1854.58430	0.99725
1852.53049	0.99721
1850.47669	0.99773
1848.42289	0.99781
1846.36908	0.99746
1844.31528	0.99763
1842.26148	0.99787
1840.20768	0.99788
1838.15387	0.99817
1836.10007	0.99873
1834.04627	0.99926
1831.99246	0.99957
1829.93866	0.99961
1827.88486	0.99939
1825.83105	0.99894
1823.77725	0.99850
1821.72345	0.99841
1819.66964	0.99846
1817.61584	0.99862
1815.56204	0.99899
1813.50823	0.99934
1811.45443	0.99934
1809.40063	0.99919
1807.34682	0.99903
1805.29302	0.99867
1803.23922	0.99846
1801.18541	0.99838
1799.13161	0.99808
1797.07781	0.99808
1795.02400	0.99855
1792.97020	0.99885
1790.91640	0.99825
1788.86260	0.99750
1786.80879	0.99773
1784.75499	0.99866
1782.70119	0.99908
1780.64738	0.99868
1778.59358	0.99813
1776.53978	0.99791
1774.48597	0.99784
1772.43217	0.99772
1770.37837	0.99793
1768.32456	0.99799
1766.27076	0.99756
1764.21696	0.99725
1762.16315	0.99719
1760.10935	0.99721
1758.05555	0.99742
1756.00174	0.99758
1753.94794	0.99760
1751.89414	0.99783
1749.84033	0.99818
1747.78653	0.99795
1745.73273	0.99741
1743.67892	0.99717
1741.62512	0.99704
1739.57132	0.99698
1737.51751	0.99722
1735.46371	0.99750
1733.40991	0.99747
1731.35611	0.99710
1729.30230	0.99681
1727.24850	0.99675
1725.19470	0.99667
1723.14089	0.99640
1721.08709	0.99623
1719.03329	0.99644
1716.97948	0.99707
1714.92568	0.99726
1712.87188	0.99672
1710.81807	0.99634
1708.76427	0.99666
1706.71047	0.99736
1704.65666	0.99747
1702.60286	0.99652
1700.54906	0.99522
1698.49525	0.99525
1696.44145	0.99601
1694.38765	0.99620
1692.33384	0.99617
1690.28004	0.99609
1688.22624	0.99554
1686.17243	0.99489
1684.11863	0.99519
1682.06483	0.99547
1680.01103	0.99473
1677.95722	0.99393
1675.90342	0.99371
1673.84962	0.99393
1671.79581	0.99412
1669.74201	0.99407
1667.68821	0.99369
1665.63440	0.99311
1663.58060	0.99216
1661.52680	0.99137
1659.47299	0.99138
1657.41919	0.99170
1655.36539	0.99200
1653.31158	0.99197
1651.25778	0.99172
1649.20398	0.99187
1647.15017	0.99204
1645.09637	0.99197
1643.04257	0.99184
1640.98876	0.99161
1638.93496	0.99144
1636.88116	0.99179
1634.82735	0.99259
1632.77355	0.99274
1630.71975	0.99255
1628.66594	0.99251
1626.61214	0.99235
1624.55834	0.99190
1622.50454	0.99153
1620.45073	0.99115
1618.39693	0.99043
1616.34313	0.98936
1614.28932	0.98851
1612.23552	0.98783
1610.18172	0.98695
1608.12791	0.98629
1606.07411	0.98630
1604.02031	0.98651
1601.96650	0.98670
1599.91270	0.98702
1597.85890	0.98727
1595.80509	0.98759
1593.75129	0.98807
1591.69749	0.98835
1589.64368	0.98840
1587.58988	0.98824
1585.53608	0.98802
1583.48227	0.98806
1581.42847	0.98823
1579.37467	0.98831
1577.32086	0.98865
1575.26706	0.98933
1573.21326	0.98994
1571.15945	0.99065
1569.10565	0.99111
1567.05185	0.99104
1564.99805	0.99111
1562.94424	0.99129
1560.89044	0.99098
1558.83664	0.99028
1556.78283	0.99088
1554.72903	0.99200
1552.67523	0.99263
1550.62142	0.99249
1548.56762	0.99229
1546.51382	0.99246
1544.46001	0.99231
1542.40621	0.99143
1540.35241	0.99137
1538.29860	0.99242
1536.24480	0.99277
1534.19100	0.99276
1532.13719	0.99272
1530.08339	0.99266
1528.02959	0.99251
1525.97578	0.99212
1523.92198	0.99138
1521.86818	0.98979
1519.81437	0.98807
1517.76057	0.98663
1515.70677	0.98418
1513.65297	0.98151
1511.59916	0.97959
1509.54536	0.97814
1507.49156	0.97651
1505.43775	0.97557
1503.38395	0.97593
1501.33015	0.97685
1499.27634	0.97850
1497.22254	0.98064
1495.16874	0.98229
1493.11493	0.98294
1491.06113	0.98331
1489.00733	0.98433
1486.95352	0.98536
1484.89972	0.98561
1482.84592	0.98547
1480.79211	0.98534
1478.73831	0.98527
1476.68451	0.98496
1474.63070	0.98436
1472.57690	0.98394
1470.52310	0.98391
1468.46929	0.98404
1466.41549	0.98427
1464.36169	0.98435
1462.30788	0.98398
1460.25408	0.98326
1458.20028	0.98274
1456.14648	0.98336
1454.09267	0.98398
1452.03887	0.98405
1449.98507	0.98399
1447.93126	0.98412
1445.87746	0.98453
1443.82366	0.98492
1441.76985	0.98516
1439.71605	0.98522
1437.66225	0.98509
1435.60844	0.98516
1433.55464	0.98543
1431.50084	0.98557
1429.44703	0.98566
1427.39323	0.98592
1425.33943	0.98642
1423.28562	0.98670
1421.23182	0.98663
1419.17802	0.98667
1417.12421	0.98692
1415.07041	0.98711
1413.01661	0.98736
1410.96280	0.98774
1408.90900	0.98803
1406.85520	0.98806
1404.80139	0.98798
1402.74759	0.98808
1400.69379	0.98836
1398.63999	0.98881
1396.58618	0.98928
1394.53238	0.98945
1392.47858	0.98933
1390.42477	0.98894
1388.37097	0.98849
1386.31717	0.98832
1384.26336	0.98829
1382.20956	0.98846
1380.15576	0.98894
1378.10195	0.98928
1376.04815	0.98931
1373.99435	0.98941
1371.94054	0.98960
1369.88674	0.98961
1367.83294	0.98934
1365.77913	0.98876
1363.72533	0.98822
1361.67153	0.98806
1359.61772	0.98826
1357.56392	0.98870
1355.51012	0.98921
1353.45631	0.98966
1351.40251	0.99018
1349.34871	0.99069
1347.29491	0.99094
1345.24110	0.99095
1343.18730	0.99096
1341.13350	0.99099
1339.07969	0.99077
1337.02589	0.99061
1334.97209	0.99098
1332.91828	0.99140
1330.86448	0.99163
1328.81068	0.99186
1326.75687	0.99202
1324.70307	0.99199
1322.64927	0.99175
1320.59546	0.99155
1318.54166	0.99136
1316.48786	0.99081
1314.43405	0.99023
1312.38025	0.99012
1310.32645	0.99017
1308.27264	0.98990
1306.21884	0.98925
1304.16504	0.98860
1302.11123	0.98822
1300.05743	0.98809
1298.00363	0.98808
1295.94982	0.98806
1293.89602	0.98831
1291.84222	0.98890
1289.78842	0.98934
1287.73461	0.98942
1285.68081	0.98949
1283.62701	0.98977
1281.57320	0.99012
1279.51940	0.99039
1277.46560	0.99059
1275.41179	0.99079
1273.35799	0.99086
1271.30419	0.99060
1269.25038	0.98995
1267.19658	0.98913
1265.14278	0.98842
1263.08897	0.98777
1261.03517	0.98692
1258.98137	0.98581
1256.92756	0.98474
1254.87376	0.98394
1252.81996	0.98309
1250.76615	0.98191
1248.71235	0.98088
1246.65855	0.98044
1244.60474	0.98032
1242.55094	0.97999
1240.49714	0.97941
1238.44334	0.97890
1236.38953	0.97860
1234.33573	0.97838
1232.28193	0.97808
1230.22812	0.97777
1228.17432	0.97760
1226.12052	0.97757
1224.06671	0.97761
1222.01291	0.97775
1219.95911	0.97795
1217.90530	0.97822
1215.85150	0.97861
1213.79770	0.97910
1211.74389	0.97973
1209.69009	0.98036
1207.63629	0.98096
1205.58248	0.98192
1203.52868	0.98315
1201.47488	0.98409
1199.42107	0.98449
1197.36727	0.98431
1195.31347	0.98374
1193.25966	0.98315
1191.20586	0.98239
1189.15206	0.98101
1187.09825	0.97933
1185.04445	0.97790
1182.99065	0.97672
1180.93685	0.97577
1178.88304	0.97536
1176.82924	0.97534
1174.77544	0.97550
1172.72163	0.97592
1170.66783	0.97661
1168.61403	0.97750
1166.56022	0.97826
1164.50642	0.97861
1162.45262	0.97883
1160.39881	0.97917
1158.34501	0.97959
1156.29121	0.97978
1154.23740	0.97976
1152.18360	0.97980
1150.12980	0.97987
1148.07599	0.97984
1146.02219	0.97965
1143.96839	0.97934
1141.91458	0.97914
1139.86078	0.97918
1137.80698	0.97921
1135.75317	0.97892
1133.69937	0.97866
1131.64557	0.97869
1129.59176	0.97858
1127.53796	0.97810
1125.48416	0.97753
1123.43036	0.97725
1121.37655	0.97722
1119.32275	0.97694
1117.26895	0.97630
1115.21514	0.97553
1113.16134	0.97483
1111.10754	0.97427
1109.05373	0.97378
1106.99993	0.97343
1104.94613	0.97334
1102.89232	0.97323
1100.83852	0.97288
1098.78472	0.97297
1096.73091	0.97353
1094.67711	0.97354
1092.62331	0.97289
1090.56950	0.97227
1088.51570	0.97174
1086.46190	0.97137
1084.40809	0.97158
1082.35429	0.97176
1080.30049	0.97123
1078.24668	0.97082
1076.19288	0.97111
1074.13908	0.97145
1072.08528	0.97140
1070.03147	0.97119
1067.97767	0.97122
1065.92387	0.97156
1063.87006	0.97178
1061.81626	0.97151
1059.76246	0.97095
1057.70865	0.97053
1055.65485	0.97023
1053.60105	0.97002
1051.54724	0.96985
1049.49344	0.96951
1047.43964	0.96901
1045.38583	0.96820
1043.33203	0.96717
1041.27823	0.96628
1039.22442	0.96560
1037.17062	0.96522
1035.11682	0.96483
1033.06301	0.96444
1031.00921	0.96442
1028.95541	0.96450
1026.90160	0.96446
1024.84780	0.96422
1022.79400	0.96386
1020.74019	0.96355
1018.68639	0.96321
1016.63259	0.96289
1014.57879	0.96291
1012.52498	0.96285
1010.47118	0.96260
1008.41738	0.96295
1006.36357	0.96372
1004.30977	0.96410
1002.25597	0.96428
1000.20216	0.96454
998.14836	0.96493
996.09456	0.96575
994.04075	0.96672
991.98695	0.96706
989.93315	0.96699
987.87934	0.96733
985.82554	0.96807
983.77174	0.96879
981.71793	0.96938
979.66413	0.97005
977.61033	0.97082
975.55652	0.97122
973.50272	0.97136
971.44892	0.97197
969.39511	0.97281
967.34131	0.97336
965.28751	0.97382
963.23371	0.97414
961.17990	0.97416
959.12610	0.97422
957.07230	0.97427
955.01849	0.97416
952.96469	0.97437
950.91089	0.97528
948.85708	0.97632
946.80328	0.97678
944.74948	0.97690
942.69567	0.97699
940.64187	0.97710
938.58807	0.97731
936.53426	0.97763
934.48046	0.97780
932.42666	0.97760
930.37285	0.97753
928.31905	0.97814
926.26525	0.97894
924.21144	0.97909
922.15764	0.97909
920.10384	0.97943
918.05003	0.97960
915.99623	0.97935
913.94243	0.97919
911.88862	0.97957
909.83482	0.98024
907.78102	0.98077
905.72722	0.98096
903.67341	0.98099
901.61961	0.98144
899.56581	0.98218
897.51200	0.98259
895.45820	0.98271
893.40440	0.98278
891.35059	0.98306
889.29679	0.98358
887.24299	0.98378
885.18918	0.98374
883.13538	0.98357
881.08158	0.98301
879.02777	0.98265
876.97397	0.98283
874.92017	0.98319
872.86636	0.98387
870.81256	0.98460
868.75876	0.98449
866.70495	0.98380
864.65115	0.98387
862.59735	0.98452
860.54354	0.98470
858.48974	0.98466
856.43594	0.98441
854.38213	0.98373
852.32833	0.98312
850.27453	0.98286
848.22073	0.98292
846.16692	0.98263
844.11312	0.98163
842.05932	0.98040
840.00551	0.97940
837.95171	0.97847
835.89791	0.97698
833.84410	0.97489
831.79030	0.97272
829.73650	0.97101
827.68269	0.97044
825.62889	0.97056
823.57509	0.97038
821.52128	0.97070
819.46748	0.97213
817.41368	0.97381
815.35987	0.97484
813.30607	0.97478
811.25227	0.97442
809.19846	0.97439
807.14466	0.97422
805.09086	0.97422
803.03705	0.97517
800.98325	0.97630
798.92945	0.97688
796.87565	0.97750
794.82184	0.97861
792.76804	0.97966
790.71424	0.98027
788.66043	0.98066
786.60663	0.98048
784.55283	0.97951
782.49902	0.97875
780.44522	0.97866
778.39142	0.97861
776.33761	0.97870
774.28381	0.97925
772.23001	0.97994
770.17620	0.98030
768.12240	0.98017
766.06860	0.98000
764.01479	0.98024
761.96099	0.98060
759.90719	0.98014
757.85338	0.97895
755.79958	0.97810
753.74578	0.97771
751.69197	0.97768
749.63817	0.97786
747.58437	0.97805
745.53056	0.97835
743.47676	0.97806
741.42296	0.97691
739.36916	0.97581
737.31535	0.97568
735.26155	0.97619
733.20775	0.97605
731.15394	0.97553
729.10014	0.97543
727.04634	0.97545
724.99253	0.97514
722.93873	0.97457
720.88493	0.97446
718.83112	0.97493
716.77732	0.97523
714.72352	0.97537
712.66971	0.97533
710.61591	0.97459
708.56211	0.97418
706.50830	0.97474
704.45450	0.97531
702.40070	0.97513
700.34689	0.97414
698.29309	0.97316
696.23929	0.97305
694.18548	0.97374
692.13168	0.97452
690.07788	0.97479
688.02408	0.97375
685.97027	0.97199
683.91647	0.97139
681.86267	0.97173
679.80886	0.97224
677.75506	0.97267
675.70126	0.97243
673.64745	0.97186
671.59365	0.97139
669.53985	0.97072
667.48604	0.97027
665.43224	0.97021
663.37844	0.96992
661.32463	0.97018
659.27083	0.97124
657.21703	0.97163
655.16322	0.97118
653.10942	0.97036
651.05562	0.96965
649.00181	0.96999
646.94801	0.97068
644.89421	0.97058
642.84040	0.96963
640.78660	0.96901
638.73280	0.97013
636.67899	0.97131
634.62519	0.97070
632.57139	0.96974
630.51759	0.96883
628.46378	0.96762
626.40998	0.96731
624.35618	0.96821
622.30237	0.96979
620.24857	0.97100
618.19477	0.97036
616.14096	0.96798
614.08716	0.96588
612.03336	0.96590
609.97955	0.96717
607.92575	0.96706
605.87195	0.96601
603.81814	0.96622
601.76434	0.96680
599.71054	0.96699
597.65673	0.96730
595.60293	0.96637
593.54913	0.96455
591.49532	0.96452
589.44152	0.96603
587.38772	0.96730
585.33391	0.96764
583.28011	0.96626
581.22631	0.96498
579.17250	0.96609
577.11870	0.96783
575.06490	0.96847
573.01110	0.96856
570.95729	0.96762
568.90349	0.96541
566.84969	0.96374
564.79588	0.96339
562.74208	0.96354
560.68828	0.96332
558.63447	0.96257
556.58067	0.96132
554.52687	0.95984
552.47306	0.95962
550.41926	0.96069
548.36546	0.96157
546.31165	0.96266
544.25785	0.96351
542.20405	0.96251
540.15024	0.96017
538.09644	0.95831
536.04264	0.95843
533.98883	0.95990
531.93503	0.96103
529.88123	0.96022
527.82742	0.95784
525.77362	0.95728
523.71982	0.95861
521.66602	0.95883
519.61221	0.95840
517.55841	0.95863
515.50461	0.95956
513.45080	0.95998
511.39700	0.95851
509.34320	0.95678
507.28939	0.95613
505.23559	0.95603
503.18179	0.95614
501.12798	0.95663
499.07418	0.95799
497.02038	0.95822
494.96657	0.95614
492.91277	0.95500
490.85897	0.95714
488.80516	0.95962
486.75136	0.95987
484.69756	0.95880
482.64375	0.95800
480.58995	0.95896
478.53615	0.95934
476.48234	0.95656
474.42854	0.95428
472.37474	0.95451
470.32093	0.95458
468.26713	0.95327
466.21333	0.95215
464.15953	0.95244
462.10572	0.95127
460.05192	0.94806
457.99812	0.94730
455.94431	0.94986
453.89051	0.95107
451.83671	0.95022
449.78290	0.95042
447.72910	0.95234
445.67530	0.95419
443.62149	0.95566
441.56769	0.95868
439.51389	0.96293
437.46008	0.96419
435.40628	0.95932
433.35248	0.95208
431.29867	0.94768
429.24487	0.94730
427.19107	0.95218
425.13726	0.95976
423.08346	0.96151
421.02966	0.95586
418.97585	0.94970
416.92205	0.94741
414.86825	0.94664
412.81445	0.94634
410.76064	0.94848
408.70684	0.95110
406.65304	0.94845
404.59923	0.94511
402.54543	0.94807
400.49163	0.95552
398.43782	0.95869
