3996.70104	0.94437
3994.64724	0.94450
3992.59344	0.94461
3990.53964	0.94474
3988.48583	0.94495
3986.43203	0.94543
3984.37823	0.94588
3982.32442	0.94567
3980.27062	0.94534
3978.21682	0.94558
3976.16301	0.94548
3974.10921	0.94474
3972.05541	0.94427
3970.00160	0.94440
3967.94780	0.94443
3965.89400	0.94407
3963.84019	0.94408
3961.78639	0.94446
3959.73259	0.94454
3957.67878	0.94468
3955.62498	0.94479
3953.57118	0.94450
3951.51737	0.94445
3949.46357	0.94462
3947.40977	0.94431
3945.35596	0.94380
3943.30216	0.94353
3941.24836	0.94324
3939.19455	0.94294
3937.14075	0.94318
3935.08695	0.94385
3933.03315	0.94435
3930.97934	0.94469
3928.92554	0.94498
3926.87174	0.94506
3924.81793	0.94508
3922.76413	0.94495
3920.71033	0.94469
3918.65652	0.94457
3916.60272	0.94457
3914.54892	0.94463
3912.49511	0.94473
3910.44131	0.94495
3908.38751	0.94492
3906.33370	0.94441
3904.27990	0.94429
3902.22610	0.94478
3900.17229	0.94547
3898.11849	0.94599
3896.06469	0.94581
3894.01088	0.94538
3891.95708	0.94512
3889.90328	0.94486
3887.84947	0.94466
3885.79567	0.94486
3883.74187	0.94522
3881.68807	0.94543
3879.63426	0.94541
3877.58046	0.94494
3875.52666	0.94488
3873.47285	0.94577
3871.41905	0.94664
3869.36525	0.94679
3867.31144	0.94634
3865.25764	0.94576
3863.20384	0.94539
3861.15003	0.94497
3859.09623	0.94459
3857.04243	0.94458
3854.98862	0.94443
3852.93482	0.94429
3850.88102	0.94488
3848.82721	0.94506
3846.77341	0.94475
3844.71961	0.94434
3842.66580	0.94411
3840.61200	0.94384
3838.55820	0.94381
3836.50439	0.94510
3834.45059	0.94649
3832.39679	0.94672
3830.34298	0.94633
3828.28918	0.94609
3826.23538	0.94585
3824.18158	0.94504
3822.12777	0.94415
3820.07397	0.94451
3818.02017	0.94515
3815.96636	0.94512
3813.91256	0.94473
3811.85876	0.94440
3809.80495	0.94431
3807.75115	0.94464
3805.69735	0.94531
3803.64354	0.94517
3801.58974	0.94475
3799.53594	0.94546
3797.48213	0.94623
3795.42833	0.94628
3793.37453	0.94592
3791.32072	0.94582
3789.26692	0.94599
3787.21312	0.94595
3785.15931	0.94553
3783.10551	0.94509
3781.05171	0.94534
3778.99790	0.94620
3776.94410	0.94631
3774.89030	0.94588
3772.83650	0.94575
3770.78269	0.94577
3768.72889	0.94546
3766.67509	0.94488
3764.62128	0.94459
3762.56748	0.94459
3760.51368	0.94466
3758.45987	0.94511
3756.40607	0.94609
3754.35227	0.94684
3752.29846	0.94666
3750.24466	0.94644
3748.19086	0.94695
3746.13705	0.94748
3744.08325	0.94815
3742.02945	0.94796
3739.97564	0.94713
3737.92184	0.94649
3735.86804	0.94638
3733.81423	0.94734
3731.76043	0.94801
3729.70663	0.94725
3727.65282	0.94596
3725.59902	0.94535
3723.54522	0.94586
3721.49141	0.94638
3719.43761	0.94594
3717.38381	0.94521
3715.33001	0.94501
3713.27620	0.94513
3711.22240	0.94497
3709.16860	0.94401
3707.11479	0.94263
3705.06099	0.94148
3703.00719	0.94067
3700.95338	0.93964
3698.89958	0.93847
3696.84578	0.93767
3694.79197	0.93746
3692.73817	0.93791
3690.68437	0.93890
3688.63056	0.93993
3686.57676	0.93989
3684.52296	0.93926
3682.46915	0.93912
3680.41535	0.93934
3678.36155	0.93907
3676.30774	0.93868
3674.25394	0.93880
3672.20014	0.93820
3670.14633	0.93756
3668.09253	0.93799
3666.03873	0.93784
3663.98492	0.93700
3661.93112	0.93651
3659.87732	0.93622
3657.82352	0.93614
3655.76971	0.93635
3653.71591	0.93599
3651.66211	0.93547
3649.60830	0.93590
3647.55450	0.93687
3645.50070	0.93682
3643.44689	0.93551
3641.39309	0.93390
3639.33929	0.93301
3637.28548	0.93240
3635.23168	0.93193
3633.17788	0.93187
3631.12407	0.93191
3629.07027	0.93162
3627.01647	0.93065
3624.96266	0.92947
3622.90886	0.92832
3620.85506	0.92766
3618.80125	0.92788
3616.74745	0.92859
3614.69365	0.92955
3612.63984	0.93033
3610.58604	0.93082
3608.53224	0.93164
3606.47844	0.93236
3604.42463	0.93205
3602.37083	0.93114
3600.31703	0.93030
3598.26322	0.92978
3596.20942	0.93003
3594.15562	0.93070
3592.10181	0.93060
3590.04801	0.93036
3587.99421	0.93118
3585.94040	0.93203
3583.88660	0.93148
3581.83280	0.93072
3579.77899	0.93073
3577.72519	0.93103
3575.67139	0.93086
3573.61758	0.93039
3571.56378	0.93003
3569.50998	0.92969
3567.45617	0.92957
3565.40237	0.92993
3563.34857	0.92980
3561.29476	0.92928
3559.24096	0.92908
3557.18716	0.92885
3555.13335	0.92829
3553.07955	0.92806
3551.02575	0.92869
3548.97195	0.92958
3546.91814	0.93004
3544.86434	0.93001
3542.81054	0.92952
3540.75673	0.92882
3538.70293	0.92832
3536.64913	0.92828
3534.59532	0.92854
3532.54152	0.92848
3530.48772	0.92801
3528.43391	0.92781
3526.38011	0.92837
3524.32631	0.92899
3522.27250	0.92870
3520.21870	0.92796
3518.16490	0.92784
3516.11109	0.92831
3514.05729	0.92863
3512.00349	0.92870
3509.94968	0.92852
3507.89588	0.92775
3505.84208	0.92721
3503.78827	0.92749
3501.73447	0.92782
3499.68067	0.92759
3497.62687	0.92694
3495.57306	0.92653
3493.51926	0.92650
3491.46546	0.92659
3489.41165	0.92665
3487.35785	0.92651
3485.30405	0.92617
3483.25024	0.92573
3481.19644	0.92547
3479.14264	0.92568
3477.08883	0.92588
3475.03503	0.92552
3472.98123	0.92523
3470.92742	0.92545
3468.87362	0.92572
3466.81982	0.92577
3464.76601	0.92562
3462.71221	0.92521
3460.65841	0.92463
3458.60460	0.92447
3456.55080	0.92461
3454.49700	0.92432
3452.44319	0.92384
3450.38939	0.92368
3448.33559	0.92364
3446.28178	0.92364
3444.22798	0.92365
3442.17418	0.92330
3440.12038	0.92271
3438.06657	0.92253
3436.01277	0.92293
3433.95897	0.92349
3431.90516	0.92376
3429.85136	0.92346
3427.79756	0.92282
3425.74375	0.92257
3423.68995	0.92274
3421.63615	0.92268
3419.58234	0.92241
3417.52854	0.92262
3415.47474	0.92319
3413.42093	0.92330
3411.36713	0.92272
3409.31333	0.92185
3407.25952	0.92120
3405.20572	0.92106
3403.15192	0.92130
3401.09811	0.92155
3399.04431	0.92168
3396.99051	0.92200
3394.93670	0.92241
3392.88290	0.92230
3390.82910	0.92190
3388.77529	0.92192
3386.72149	0.92192
3384.66769	0.92171
3382.61389	0.92182
3380.56008	0.92215
3378.50628	0.92230
3376.45248	0.92206
3374.39867	0.92178
3372.34487	0.92166
3370.29107	0.92164
3368.23726	0.92169
3366.18346	0.92161
3364.12966	0.92146
3362.07585	0.92170
3360.02205	0.92221
3357.96825	0.92221
3355.91444	0.92196
3353.86064	0.92195
3351.80684	0.92174
3349.75303	0.92124
3347.69923	0.92118
3345.64543	0.92174
3343.59162	0.92235
3341.53782	0.92269
3339.48402	0.92268
3337.43021	0.92241
3335.37641	0.92245
3333.32261	0.92289
3331.26881	0.92313
3329.21500	0.92313
3327.16120	0.92311
3325.10740	0.92288
3323.05359	0.92283
3320.99979	0.92320
3318.94599	0.92338
3316.89218	0.92333
3314.83838	0.92344
3312.78458	0.92358
3310.73077	0.92354
3308.67697	0.92355
3306.62317	0.92365
3304.56936	0.92345
3302.51556	0.92301
3300.46176	0.92298
3298.40795	0.92310
3296.35415	0.92290
3294.30035	0.92303
3292.24654	0.92369
3290.19274	0.92404
3288.13894	0.92385
3286.08513	0.92350
3284.03133	0.92333
3281.97753	0.92370
3279.92372	0.92421
3277.86992	0.92418
3275.81612	0.92381
3273.76232	0.92367
3271.70851	0.92386
3269.65471	0.92440
3267.60091	0.92478
3265.54710	0.92444
3263.49330	0.92402
3261.43950	0.92420
3259.38569	0.92470
3257.33189	0.92488
3255.27809	0.92474
3253.22428	0.92503
3251.17048	0.92554
3249.11668	0.92540
3247.06287	0.92514
3245.00907	0.92548
3242.95527	0.92585
3240.90146	0.92567
3238.84766	0.92520
3236.79386	0.92512
3234.74005	0.92553
3232.68625	0.92577
3230.63245	0.92557
3228.57864	0.92563
3226.52484	0.92650
3224.47104	0.92750
3222.41724	0.92757
3220.36343	0.92710
3218.30963	0.92707
3216.25583	0.92716
3214.20202	0.92738
3212.14822	0.92802
3210.09442	0.92821
3208.04061	0.92781
3205.98681	0.92748
3203.93301	0.92760
3201.87920	0.92815
3199.82540	0.92863
3197.77160	0.92904
3195.71779	0.92938
3193.66399	0.92959
3191.61019	0.92962
3189.55638	0.92957
3187.50258	0.92983
3185.44878	0.93008
3183.39497	0.92991
3181.34117	0.92993
3179.28737	0.93019
3177.23356	0.93016
3175.17976	0.92996
3173.12596	0.92977
3171.07215	0.92995
3169.01835	0.93068
3166.96455	0.93094
3164.91075	0.93061
3162.85694	0.93066
3160.80314	0.93099
3158.74934	0.93103
3156.69553	0.93135
3154.64173	0.93179
3152.58793	0.93163
3150.53412	0.93168
3148.48032	0.93237
3146.42652	0.93258
3144.37271	0.93234
3142.31891	0.93251
3140.26511	0.93286
3138.21130	0.93305
3136.15750	0.93320
3134.10370	0.93323
3132.04989	0.93329
3129.99609	0.93324
3127.94229	0.93287
3125.88848	0.93284
3123.83468	0.93333
3121.78088	0.93348
3119.72707	0.93324
3117.67327	0.93341
3115.61947	0.93375
3113.56566	0.93357
3111.51186	0.93319
3109.45806	0.93272
3107.40426	0.93199
3105.35045	0.93127
3103.29665	0.93106
3101.24285	0.93140
3099.18904	0.93179
3097.13524	0.93209
3095.08144	0.93213
3093.02763	0.93178
3090.97383	0.93111
3088.92003	0.92970
3086.86622	0.92745
3084.81242	0.92523
3082.75862	0.92362
3080.70481	0.92297
3078.65101	0.92363
3076.59721	0.92515
3074.54340	0.92653
3072.48960	0.92707
3070.43580	0.92679
3068.38199	0.92609
3066.32819	0.92451
3064.27439	0.92145
3062.22058	0.91812
3060.16678	0.91641
3058.11298	0.91668
3056.05918	0.91800
3054.00537	0.91987
3051.95157	0.92224
3049.89777	0.92447
3047.84396	0.92608
3045.79016	0.92708
3043.73636	0.92774
3041.68255	0.92799
3039.62875	0.92732
3037.57495	0.92578
3035.52114	0.92345
3033.46734	0.91966
3031.41354	0.91377
3029.35973	0.90669
3027.30593	0.90042
3025.25213	0.89652
3023.19832	0.89662
3021.14452	0.90121
3019.09072	0.90793
3017.03691	0.91406
3014.98311	0.91874
3012.92931	0.92223
3010.87550	0.92482
3008.82170	0.92629
3006.76790	0.92665
3004.71409	0.92665
3002.66029	0.92664
3000.60649	0.92661
2998.55269	0.92728
2996.49888	0.92896
2994.44508	0.93065
2992.39128	0.93169
2990.33747	0.93220
2988.28367	0.93248
2986.22987	0.93287
2984.17606	0.93329
2982.12226	0.93336
2980.06846	0.93331
2978.01465	0.93346
2975.96085	0.93346
2973.90705	0.93316
2971.85324	0.93310
2969.79944	0.93308
2967.74564	0.93259
2965.69183	0.93215
2963.63803	0.93217
2961.58423	0.93210
2959.53042	0.93129
2957.47662	0.93005
2955.42282	0.92895
2953.36901	0.92779
2951.31521	0.92659
2949.26141	0.92543
2947.20761	0.92387
2945.15380	0.92175
2943.10000	0.91947
2941.04620	0.91724
2938.99239	0.91443
2936.93859	0.91064
2934.88479	0.90633
2932.83098	0.90193
2930.77718	0.89735
2928.72338	0.89274
2926.66957	0.88846
2924.61577	0.88470
2922.56197	0.88181
2920.50816	0.88021
2918.45436	0.87994
2916.40056	0.88068
2914.34675	0.88228
2912.29295	0.88489
2910.23915	0.88812
2908.18534	0.89125
2906.13154	0.89428
2904.07774	0.89739
2902.02393	0.90027
2899.97013	0.90273
2897.91633	0.90521
2895.86252	0.90776
2893.80872	0.91002
2891.75492	0.91194
2889.70112	0.91338
2887.64731	0.91447
2885.59351	0.91573
2883.53971	0.91682
2881.48590	0.91741
2879.43210	0.91809
2877.37830	0.91920
2875.32449	0.92029
2873.27069	0.92097
2871.21689	0.92140
2869.16308	0.92181
2867.10928	0.92204
2865.05548	0.92162
2863.00167	0.92073
2860.94787	0.91956
2858.89407	0.91763
2856.84026	0.91522
2854.78646	0.91282
2852.73266	0.91041
2850.67885	0.90874
2848.62505	0.90878
2846.57125	0.91024
2844.51744	0.91242
2842.46364	0.91513
2840.40984	0.91826
2838.35603	0.92106
2836.30223	0.92304
2834.24843	0.92492
2832.19463	0.92693
2830.14082	0.92838
2828.08702	0.92926
2826.03322	0.92994
2823.97941	0.93048
2821.92561	0.93097
2819.87181	0.93136
2817.81800	0.93157
2815.76420	0.93168
2813.71040	0.93180
2811.65659	0.93203
2809.60279	0.93249
2807.54899	0.93307
2805.49518	0.93336
2803.44138	0.93328
2801.38758	0.93325
2799.33377	0.93354
2797.27997	0.93394
2795.22617	0.93428
2793.17236	0.93443
2791.11856	0.93428
2789.06476	0.93423
2787.01095	0.93434
2784.95715	0.93443
2782.90335	0.93466
2780.84955	0.93490
2778.79574	0.93502
2776.74194	0.93513
2774.68814	0.93527
2772.63433	0.93527
2770.58053	0.93507
2768.52673	0.93515
2766.47292	0.93558
2764.41912	0.93578
2762.36532	0.93563
2760.31151	0.93557
2758.25771	0.93562
2756.20391	0.93588
2754.15010	0.93624
2752.09630	0.93602
2750.04250	0.93564
2747.98869	0.93569
2745.93489	0.93576
2743.88109	0.93583
2741.82728	0.93616
2739.77348	0.93654
2737.71968	0.93677
2735.66587	0.93686
2733.61207	0.93670
2731.55827	0.93636
2729.50446	0.93637
2727.45066	0.93677
2725.39686	0.93700
2723.34306	0.93670
2721.28925	0.93626
2719.23545	0.93615
2717.18165	0.93632
2715.12784	0.93662
2713.07404	0.93679
2711.02024	0.93677
2708.96643	0.93680
2706.91263	0.93693
2704.85883	0.93708
2702.80502	0.93706
2700.75122	0.93691
2698.69742	0.93694
2696.64361	0.93711
2694.58981	0.93704
2692.53601	0.93688
2690.48220	0.93691
2688.42840	0.93689
2686.37460	0.93701
2684.32079	0.93756
2682.26699	0.93797
2680.21319	0.93800
2678.15938	0.93800
2676.10558	0.93796
2674.05178	0.93783
2671.99797	0.93766
2669.94417	0.93745
2667.89037	0.93719
2665.83657	0.93695
2663.78276	0.93665
2661.72896	0.93632
2659.67516	0.93645
2657.62135	0.93713
2655.56755	0.93763
2653.51375	0.93755
2651.45994	0.93731
2649.40614	0.93735
2647.35234	0.93753
2645.29853	0.93757
2643.24473	0.93734
2641.19093	0.93691
2639.13712	0.93659
2637.08332	0.93650
2635.02952	0.93652
2632.97571	0.93675
2630.92191	0.93724
2628.86811	0.93774
2626.81430	0.93810
2624.76050	0.93832
2622.70670	0.93859
2620.65289	0.93884
2618.59909	0.93871
2616.54529	0.93841
2614.49149	0.93837
2612.43768	0.93849
2610.38388	0.93864
2608.33008	0.93869
2606.27627	0.93855
2604.22247	0.93841
2602.16867	0.93817
2600.11486	0.93783
2598.06106	0.93788
2596.00726	0.93853
2593.95345	0.93925
2591.89965	0.93952
2589.84585	0.93938
2587.79204	0.93942
2585.73824	0.93985
2583.68444	0.94011
2581.63063	0.94020
2579.57683	0.94025
2577.52303	0.94004
2575.46922	0.93971
2573.41542	0.93945
2571.36162	0.93938
2569.30781	0.93925
2567.25401	0.93909
2565.20021	0.93946
2563.14640	0.94019
2561.09260	0.94059
2559.03880	0.94053
2556.98500	0.94037
2554.93119	0.94039
2552.87739	0.94051
2550.82359	0.94073
2548.76978	0.94110
2546.71598	0.94113
2544.66218	0.94052
2542.60837	0.94003
2540.55457	0.94002
2538.50077	0.93989
2536.44696	0.93962
2534.39316	0.93952
2532.33936	0.93943
2530.28555	0.93916
2528.23175	0.93898
2526.17795	0.93937
2524.12414	0.94015
2522.07034	0.94034
2520.01654	0.93982
2517.96273	0.93940
2515.90893	0.93952
2513.85513	0.94012
2511.80132	0.94042
2509.74752	0.93980
2507.69372	0.93901
2505.63992	0.93887
2503.58611	0.93912
2501.53231	0.93947
2499.47851	0.94025
2497.42470	0.94121
2495.37090	0.94160
2493.31710	0.94132
2491.26329	0.94081
2489.20949	0.94076
2487.15569	0.94101
2485.10188	0.94087
2483.04808	0.94077
2480.99428	0.94111
2478.94047	0.94132
2476.88667	0.94124
2474.83287	0.94116
2472.77906	0.94132
2470.72526	0.94158
2468.67146	0.94161
2466.61765	0.94130
2464.56385	0.94085
2462.51005	0.94060
2460.45624	0.94071
2458.40244	0.94115
2456.34864	0.94147
2454.29483	0.94148
2452.24103	0.94141
2450.18723	0.94115
2448.13343	0.94081
2446.07962	0.94107
2444.02582	0.94151
2441.97202	0.94144
2439.91821	0.94119
2437.86441	0.94080
2435.81061	0.94057
2433.75680	0.94101
2431.70300	0.94120
2429.64920	0.94081
2427.59539	0.94088
2425.54159	0.94146
2423.48779	0.94199
2421.43398	0.94196
2419.38018	0.94140
2417.32638	0.94107
2415.27257	0.94138
2413.21877	0.94221
2411.16497	0.94288
2409.11116	0.94262
2407.05736	0.94191
2405.00356	0.94190
2402.94975	0.94254
2400.89595	0.94275
2398.84215	0.94206
2396.78834	0.94141
2394.73454	0.94149
2392.68074	0.94158
2390.62694	0.94115
2388.57313	0.94066
2386.51933	0.94055
2384.46553	0.94070
2382.41172	0.94087
2380.35792	0.94132
2378.30412	0.94219
2376.25031	0.94252
2374.19651	0.94170
2372.14271	0.94080
2370.08890	0.94076
2368.03510	0.94146
2365.98130	0.94178
2363.92749	0.94080
2361.87369	0.93935
2359.81989	0.93899
2357.76608	0.93956
2355.71228	0.94008
2353.65848	0.94060
2351.60467	0.94081
2349.55087	0.94033
2347.49707	0.93973
2345.44326	0.93972
2343.38946	0.94016
2341.33566	0.94032
2339.28186	0.93991
2337.22805	0.93930
2335.17425	0.93934
2333.12045	0.94026
2331.06664	0.94061
2329.01284	0.93960
2326.95904	0.93817
2324.90523	0.93716
2322.85143	0.93766
2320.79763	0.93942
2318.74382	0.94032
2316.69002	0.94059
2314.63622	0.94102
2312.58241	0.94066
2310.52861	0.93979
2308.47481	0.93962
2306.42100	0.94010
2304.36720	0.94068
2302.31340	0.94067
2300.25959	0.94011
2298.20579	0.94024
2296.15199	0.94132
2294.09818	0.94209
2292.04438	0.94169
2289.99058	0.94082
2287.93677	0.94017
2285.88297	0.93976
2283.82917	0.94018
2281.77537	0.94135
2279.72156	0.94219
2277.66776	0.94228
2275.61396	0.94197
2273.56015	0.94180
2271.50635	0.94142
2269.45255	0.94098
2267.39874	0.94162
2265.34494	0.94251
2263.29114	0.94192
2261.23733	0.94048
2259.18353	0.94047
2257.12973	0.94226
2255.07592	0.94369
2253.02212	0.94360
2250.96832	0.94279
2248.91451	0.94230
2246.86071	0.94263
2244.80691	0.94324
2242.75310	0.94336
2240.69930	0.94304
2238.64550	0.94283
2236.59169	0.94280
2234.53789	0.94299
2232.48409	0.94289
2230.43029	0.94175
2228.37648	0.94044
2226.32268	0.94075
2224.26888	0.94334
2222.21507	0.94581
2220.16127	0.94546
2218.10747	0.94358
2216.05366	0.94237
2213.99986	0.94238
2211.94606	0.94295
2209.89225	0.94354
2207.83845	0.94439
2205.78465	0.94412
2203.73084	0.94272
2201.67704	0.94269
2199.62324	0.94339
2197.56943	0.94278
2195.51563	0.94210
2193.46183	0.94279
2191.40802	0.94379
2189.35422	0.94438
2187.30042	0.94451
2185.24661	0.94429
2183.19281	0.94384
2181.13901	0.94247
2179.08520	0.94040
2177.03140	0.93926
2174.97760	0.94050
2172.92380	0.94317
2170.86999	0.94506
2168.81619	0.94519
2166.76239	0.94491
2164.70858	0.94543
2162.65478	0.94598
2160.60098	0.94752
2158.54717	0.94997
2156.49337	0.95043
2154.43957	0.94878
2152.38576	0.94659
2150.33196	0.94469
2148.27816	0.94394
2146.22435	0.94514
2144.17055	0.94734
2142.11675	0.94783
2140.06294	0.94718
2138.00914	0.94827
2135.95534	0.94958
2133.90153	0.94879
2131.84773	0.94686
2129.79393	0.94551
2127.74012	0.94583
2125.68632	0.94670
2123.63252	0.94635
2121.57871	0.94539
2119.52491	0.94479
2117.47111	0.94438
2115.41731	0.94403
2113.36350	0.94402
2111.30970	0.94414
2109.25590	0.94384
2107.20209	0.94347
2105.14829	0.94329
2103.09449	0.94350
2101.04068	0.94400
2098.98688	0.94435
2096.93308	0.94501
2094.87927	0.94554
2092.82547	0.94527
2090.77167	0.94502
2088.71786	0.94453
2086.66406	0.94321
2084.61026	0.94237
2082.55645	0.94306
2080.50265	0.94435
2078.44885	0.94522
2076.39504	0.94525
2074.34124	0.94355
2072.28744	0.94151
2070.23363	0.94217
2068.17983	0.94405
2066.12603	0.94382
2064.07223	0.94307
2062.01842	0.94409
2059.96462	0.94581
2057.91082	0.94693
2055.85701	0.94704
2053.80321	0.94637
2051.74941	0.94507
2049.69560	0.94427
2047.64180	0.94462
2045.58800	0.94523
2043.53419	0.94640
2041.48039	0.94725
2039.42659	0.94692
2037.37278	0.94678
2035.31898	0.94652
2033.26518	0.94388
2031.21137	0.94097
2029.15757	0.94120
2027.10377	0.94330
2025.04996	0.94577
2022.99616	0.94645
2020.94236	0.94383
2018.88855	0.94182
2016.83475	0.94304
2014.78095	0.94603
2012.72714	0.94917
2010.67334	0.95098
2008.61954	0.95158
2006.56574	0.95023
2004.51193	0.94712
2002.45813	0.94619
2000.40433	0.94706
1998.35052	0.94579
1996.29672	0.94249
1994.24292	0.94164
1992.18911	0.94504
1990.13531	0.94790
1988.08151	0.94722
1986.02770	0.94535
1983.97390	0.94375
1981.92010	0.94242
1979.86629	0.94316
1977.81249	0.94581
1975.75869	0.94679
1973.70488	0.94678
1971.65108	0.94873
1969.59728	0.95008
1967.54347	0.94822
1965.48967	0.94616
1963.43587	0.94540
1961.38206	0.94475
1959.32826	0.94434
1957.27446	0.94319
1955.22066	0.94163
1953.16685	0.94206
1951.11305	0.94385
1949.05925	0.94486
1947.00544	0.94421
1944.95164	0.94246
1942.89784	0.94137
1940.84403	0.94166
1938.79023	0.94238
1936.73643	0.94245
1934.68262	0.94209
1932.62882	0.94230
1930.57502	0.94229
1928.52121	0.94146
1926.46741	0.94164
1924.41361	0.94349
1922.35980	0.94496
1920.30600	0.94501
1918.25220	0.94490
1916.19839	0.94523
1914.14459	0.94534
1912.09079	0.94513
1910.03698	0.94482
1907.98318	0.94481
1905.92938	0.94539
1903.87557	0.94572
1901.82177	0.94543
1899.76797	0.94495
1897.71417	0.94464
1895.66036	0.94412
1893.60656	0.94278
1891.55276	0.94194
1889.49895	0.94188
1887.44515	0.94155
1885.39135	0.94172
1883.33754	0.94258
1881.28374	0.94286
1879.22994	0.94242
1877.17613	0.94198
1875.12233	0.94129
1873.06853	0.94045
1871.01472	0.94027
1868.96092	0.94026
1866.90712	0.94023
1864.85331	0.94094
1862.79951	0.94149
1860.74571	0.94155
1858.69190	0.94194
1856.63810	0.94248
1854.58430	0.94279
1852.53049	0.94309
1850.47669	0.94345
1848.42289	0.94395
1846.36908	0.94437
1844.31528	0.94464
1842.26148	0.94512
1840.20768	0.94562
1838.15387	0.94575
1836.10007	0.94540
1834.04627	0.94461
1831.99246	0.94374
1829.93866	0.94323
1827.88486	0.94337
1825.83105	0.94393
1823.77725	0.94386
1821.72345	0.94293
1819.66964	0.94239
1817.61584	0.94254
1815.56204	0.94259
1813.50823	0.94222
1811.45443	0.94157
1809.40063	0.94093
1807.34682	0.94021
1805.29302	0.93933
1803.23922	0.93876
1801.18541	0.93875
1799.13161	0.93902
1797.07781	0.93925
1795.02400	0.93927
1792.97020	0.93944
1790.91640	0.94002
1788.86260	0.94054
1786.80879	0.94113
1784.75499	0.94169
1782.70119	0.94199
1780.64738	0.94236
1778.59358	0.94247
1776.53978	0.94217
1774.48597	0.94209
1772.43217	0.94224
1770.37837	0.94174
1768.32456	0.94112
1766.27076	0.94108
1764.21696	0.94109
1762.16315	0.94079
1760.10935	0.94045
1758.05555	0.94027
1756.00174	0.93973
1753.94794	0.93862
1751.89414	0.93754
1749.84033	0.93674
1747.78653	0.93583
1745.73273	0.93520
1743.67892	0.93515
1741.62512	0.93512
1739.57132	0.93491
1737.51751	0.93482
1735.46371	0.93498
1733.40991	0.93559
1731.35611	0.93597
1729.30230	0.93589
1727.24850	0.93570
1725.19470	0.93589
1723.14089	0.93652
1721.08709	0.93684
1719.03329	0.93663
1716.97948	0.93673
1714.92568	0.93770
1712.87188	0.93832
1710.81807	0.93802
1708.76427	0.93744
1706.71047	0.93687
1704.65666	0.93631
1702.60286	0.93612
1700.54906	0.93617
1698.49525	0.93605
1696.44145	0.93612
1694.38765	0.93603
1692.33384	0.93532
1690.28004	0.93425
1688.22624	0.93304
1686.17243	0.93223
1684.11863	0.93197
1682.06483	0.93157
1680.01103	0.93109
1677.95722	0.93061
1675.90342	0.92980
1673.84962	0.92861
1671.79581	0.92756
1669.74201	0.92710
1667.68821	0.92696
1665.63440	0.92654
1663.58060	0.92597
1661.52680	0.92569
1659.47299	0.92569
1657.41919	0.92538
1655.36539	0.92476
1653.31158	0.92471
1651.25778	0.92503
1649.20398	0.92483
1647.15017	0.92461
1645.09637	0.92447
1643.04257	0.92439
1640.98876	0.92436
1638.93496	0.92417
1636.88116	0.92408
1634.82735	0.92461
1632.77355	0.92502
1630.71975	0.92500
1628.66594	0.92501
1626.61214	0.92549
1624.55834	0.92629
1622.50454	0.92676
1620.45073	0.92650
1618.39693	0.92615
1616.34313	0.92643
1614.28932	0.92667
1612.23552	0.92579
1610.18172	0.92359
1608.12791	0.91957
1606.07411	0.91313
1604.02031	0.90462
1601.96650	0.89722
1599.91270	0.89561
1597.85890	0.90029
1595.80509	0.90773
1593.75129	0.91414
1591.69749	0.91809
1589.64368	0.92009
1587.58988	0.92028
1585.53608	0.91837
1583.48227	0.91584
1581.42847	0.91556
1579.37467	0.91776
1577.32086	0.92069
1575.26706	0.92330
1573.21326	0.92497
1571.15945	0.92617
1569.10565	0.92738
1567.05185	0.92827
1564.99805	0.92861
1562.94424	0.92837
1560.89044	0.92770
1558.83664	0.92758
1556.78283	0.92868
1554.72903	0.92924
1552.67523	0.92895
1550.62142	0.92805
1548.56762	0.92686
1546.51382	0.92570
1544.46001	0.92508
1542.40621	0.92533
1540.35241	0.92578
1538.29860	0.92585
1536.24480	0.92600
1534.19100	0.92668
1532.13719	0.92805
1530.08339	0.92954
1528.02959	0.93097
1525.97578	0.93201
1523.92198	0.93267
1521.86818	0.93339
1519.81437	0.93369
1517.76057	0.93335
1515.70677	0.93265
1513.65297	0.93203
1511.59916	0.93196
1509.54536	0.93252
1507.49156	0.93314
1505.43775	0.93287
1503.38395	0.93186
1501.33015	0.92945
1499.27634	0.92231
1497.22254	0.90161
1495.16874	0.86887
1493.11493	0.84648
1491.06113	0.84636
1489.00733	0.86897
1486.95352	0.89130
1484.89972	0.90278
1482.84592	0.90934
1480.79211	0.91363
1478.73831	0.91625
1476.68451	0.91772
1474.63070	0.91865
1472.57690	0.91932
1470.52310	0.91947
1468.46929	0.91937
1466.41549	0.91956
1464.36169	0.91980
1462.30788	0.91924
1460.25408	0.91718
1458.20028	0.90775
1456.14648	0.87948
1454.09267	0.85158
1452.03887	0.83733
1449.98507	0.83760
1447.93126	0.84898
1445.87746	0.86163
1443.82366	0.87102
1441.76985	0.87873
1439.71605	0.88499
1437.66225	0.89099
1435.60844	0.89780
1433.55464	0.90275
1431.50084	0.90609
1429.44703	0.90901
1427.39323	0.91140
1425.33943	0.91329
1423.28562	0.91464
1421.23182	0.91545
1419.17802	0.91637
1417.12421	0.91742
1415.07041	0.91821
1413.01661	0.91894
1410.96280	0.91993
1408.90900	0.92122
1406.85520	0.92239
1404.80139	0.92324
1402.74759	0.92378
1400.69379	0.92449
1398.63999	0.92540
1396.58618	0.92556
1394.53238	0.92527
1392.47858	0.92524
1390.42477	0.92507
1388.37097	0.92431
1386.31717	0.92307
1384.26336	0.92185
1382.20956	0.92074
1380.15576	0.91955
1378.10195	0.91820
1376.04815	0.91689
1373.99435	0.91615
1371.94054	0.91625
1369.88674	0.91676
1367.83294	0.91717
1365.77913	0.91739
1363.72533	0.91772
1361.67153	0.91841
1359.61772	0.91922
1357.56392	0.91981
1355.51012	0.92029
1353.45631	0.92078
1351.40251	0.92106
1349.34871	0.92110
1347.29491	0.92110
1345.24110	0.92132
1343.18730	0.92192
1341.13350	0.92266
1339.07969	0.92322
1337.02589	0.92346
1334.97209	0.92318
1332.91828	0.92246
1330.86448	0.92185
1328.81068	0.92160
1326.75687	0.92169
1324.70307	0.92201
1322.64927	0.92233
1320.59546	0.92251
1318.54166	0.92243
1316.48786	0.92208
1314.43405	0.92186
1312.38025	0.92207
1310.32645	0.92266
1308.27264	0.92321
1306.21884	0.92356
1304.16504	0.92389
1302.11123	0.92424
1300.05743	0.92466
1298.00363	0.92506
1295.94982	0.92546
1293.89602	0.92602
1291.84222	0.92643
1289.78842	0.92641
1287.73461	0.92618
1285.68081	0.92601
1283.62701	0.92593
1281.57320	0.92583
1279.51940	0.92567
1277.46560	0.92545
1275.41179	0.92528
1273.35799	0.92541
1271.30419	0.92594
1269.25038	0.92646
1267.19658	0.92671
1265.14278	0.92681
1263.08897	0.92697
1261.03517	0.92727
1258.98137	0.92729
1256.92756	0.92682
1254.87376	0.92628
1252.81996	0.92586
1250.76615	0.92565
1248.71235	0.92560
1246.65855	0.92551
1244.60474	0.92534
1242.55094	0.92495
1240.49714	0.92448
1238.44334	0.92416
1236.38953	0.92406
1234.33573	0.92405
1232.28193	0.92391
1230.22812	0.92378
1228.17432	0.92365
1226.12052	0.92318
1224.06671	0.92229
1222.01291	0.92132
1219.95911	0.92065
1217.90530	0.92018
1215.85150	0.91939
1213.79770	0.91832
1211.74389	0.91746
1209.69009	0.91642
1207.63629	0.91478
1205.58248	0.91299
1203.52868	0.91134
1201.47488	0.90975
1199.42107	0.90827
1197.36727	0.90683
1195.31347	0.90498
1193.25966	0.90268
1191.20586	0.90043
1189.15206	0.89836
1187.09825	0.89592
1185.04445	0.89274
1182.99065	0.88936
1180.93685	0.88677
1178.88304	0.88548
1176.82924	0.88518
1174.77544	0.88494
1172.72163	0.88419
1170.66783	0.88307
1168.61403	0.88153
1166.56022	0.87955
1164.50642	0.87774
1162.45262	0.87609
1160.39881	0.87394
1158.34501	0.87095
1156.29121	0.86761
1154.23740	0.86535
1152.18360	0.86496
1150.12980	0.86558
1148.07599	0.86603
1146.02219	0.86624
1143.96839	0.86634
1141.91458	0.86567
1139.86078	0.86447
1137.80698	0.86339
1135.75317	0.86222
1133.69937	0.86086
1131.64557	0.85912
1129.59176	0.85664
1127.53796	0.85368
1125.48416	0.85042
1123.43036	0.84683
1121.37655	0.84282
1119.32275	0.83826
1117.26895	0.83349
1115.21514	0.82885
1113.16134	0.82433
1111.10754	0.82007
1109.05373	0.81631
1106.99993	0.81305
1104.94613	0.81037
1102.89232	0.80815
1100.83852	0.80561
1098.78472	0.80270
1096.73091	0.80029
1094.67711	0.79858
1092.62331	0.79708
1090.56950	0.79546
1088.51570	0.79374
1086.46190	0.79232
1084.40809	0.79100
1082.35429	0.78910
1080.30049	0.78689
1078.24668	0.78475
1076.19288	0.78243
1074.13908	0.77964
1072.08528	0.77626
1070.03147	0.77258
1067.97767	0.76923
1065.92387	0.76636
1063.87006	0.76362
1061.81626	0.76085
1059.76246	0.75789
1057.70865	0.75445
1055.65485	0.75082
1053.60105	0.74711
1051.54724	0.74267
1049.49344	0.73744
1047.43964	0.73209
1045.38583	0.72677
1043.33203	0.72107
1041.27823	0.71507
1039.22442	0.70879
1037.17062	0.70177
1035.11682	0.69364
1033.06301	0.68428
1031.00921	0.67476
1028.95541	0.66782
1026.90160	0.66514
1024.84780	0.66590
1022.79400	0.66835
1020.74019	0.67090
1018.68639	0.67279
1016.63259	0.67390
1014.57879	0.67417
1012.52498	0.67382
1010.47118	0.67344
1008.41738	0.67309
1006.36357	0.67257
1004.30977	0.67252
1002.25597	0.67372
1000.20216	0.67657
998.14836	0.68105
996.09456	0.68626
994.04075	0.69123
991.98695	0.69629
989.93315	0.70191
987.87934	0.70741
985.82554	0.71273
983.77174	0.71843
981.71793	0.72465
979.66413	0.73160
977.61033	0.73911
975.55652	0.74671
973.50272	0.75408
971.44892	0.76087
969.39511	0.76665
967.34131	0.77154
965.28751	0.77620
963.23371	0.78111
961.17990	0.78648
959.12610	0.79209
957.07230	0.79733
955.01849	0.80215
952.96469	0.80651
950.91089	0.81024
948.85708	0.81355
946.80328	0.81629
944.74948	0.81817
942.69567	0.81965
940.64187	0.82127
938.58807	0.82317
936.53426	0.82520
934.48046	0.82710
932.42666	0.82901
930.37285	0.83097
928.31905	0.83247
926.26525	0.83339
924.21144	0.83391
922.15764	0.83399
920.10384	0.83363
918.05003	0.83262
915.99623	0.83019
913.94243	0.82634
911.88862	0.82251
909.83482	0.81972
907.78102	0.81825
905.72722	0.81935
903.67341	0.82409
901.61961	0.83148
899.56581	0.83943
897.51200	0.84664
895.45820	0.85268
893.40440	0.85737
891.35059	0.86113
889.29679	0.86476
887.24299	0.86822
885.18918	0.87108
883.13538	0.87360
881.08158	0.87496
879.02777	0.87441
876.97397	0.87408
874.92017	0.87583
872.86636	0.87889
870.81256	0.88177
868.75876	0.88389
866.70495	0.88584
864.65115	0.88770
862.59735	0.88886
860.54354	0.88989
858.48974	0.89123
856.43594	0.89249
854.38213	0.89371
852.32833	0.89477
850.27453	0.89503
848.22073	0.89397
846.16692	0.89185
844.11312	0.89001
842.05932	0.88898
840.00551	0.88864
837.95171	0.88930
835.89791	0.89101
833.84410	0.89331
831.79030	0.89536
829.73650	0.89641
827.68269	0.89702
825.62889	0.89807
823.57509	0.89917
821.52128	0.90021
819.46748	0.90194
817.41368	0.90378
815.35987	0.90422
813.30607	0.90287
811.25227	0.90022
809.19846	0.89717
807.14466	0.89428
805.09086	0.89119
803.03705	0.88796
800.98325	0.88546
798.92945	0.88396
796.87565	0.88304
794.82184	0.88273
792.76804	0.88275
790.71424	0.88285
788.66043	0.88295
786.60663	0.88194
784.55283	0.87923
782.49902	0.87563
780.44522	0.87177
778.39142	0.86685
776.33761	0.86046
774.28381	0.85341
772.23001	0.84494
770.17620	0.83405
768.12240	0.82167
766.06860	0.80909
764.01479	0.79646
761.96099	0.78370
759.90719	0.77162
757.85338	0.76133
755.79958	0.75408
753.74578	0.75115
751.69197	0.75176
749.63817	0.75268
747.58437	0.75339
745.53056	0.75863
743.47676	0.77162
741.42296	0.78946
739.36916	0.80755
737.31535	0.82365
735.26155	0.83790
733.20775	0.85094
731.15394	0.86205
729.10014	0.87021
727.04634	0.87600
724.99253	0.88046
722.93873	0.88385
720.88493	0.88624
718.83112	0.88801
716.77732	0.88908
714.72352	0.88794
712.66971	0.88259
710.61591	0.87069
708.56211	0.84784
706.50830	0.80921
704.45450	0.75367
702.40070	0.68494
700.34689	0.60919
698.29309	0.53650
696.23929	0.48833
694.18548	0.49078
692.13168	0.54408
690.07788	0.61694
688.02408	0.67829
685.97027	0.71930
683.91647	0.74636
681.86267	0.76577
679.80886	0.77982
677.75506	0.78949
675.70126	0.79660
673.64745	0.80303
671.59365	0.80859
669.53985	0.81340
667.48604	0.81837
665.43224	0.82219
663.37844	0.82505
661.32463	0.82795
659.27083	0.83096
657.21703	0.83346
655.16322	0.83501
653.10942	0.83535
651.05562	0.83432
649.00181	0.83320
646.94801	0.83357
644.89421	0.83496
642.84040	0.83614
640.78660	0.83716
638.73280	0.83795
636.67899	0.83771
634.62519	0.83657
632.57139	0.83529
630.51759	0.83406
628.46378	0.83325
626.40998	0.83275
624.35618	0.83120
622.30237	0.82873
620.24857	0.82684
618.19477	0.82613
616.14096	0.82560
614.08716	0.82404
612.03336	0.82229
609.97955	0.82161
607.92575	0.82194
605.87195	0.82234
603.81814	0.82221
601.76434	0.82087
599.71054	0.81775
597.65673	0.81440
595.60293	0.81187
593.54913	0.81006
591.49532	0.80897
589.44152	0.80723
587.38772	0.80404
585.33391	0.80016
583.28011	0.79669
581.22631	0.79366
579.17250	0.79120
577.11870	0.78982
575.06490	0.78803
573.01110	0.78532
570.95729	0.78183
568.90349	0.77659
566.84969	0.77057
564.79588	0.76518
562.74208	0.75975
560.68828	0.75394
558.63447	0.74843
556.58067	0.74246
554.52687	0.73468
552.47306	0.72623
550.41926	0.71884
548.36546	0.71053
546.31165	0.69907
544.25785	0.68643
542.20405	0.67480
540.15024	0.66445
538.09644	0.65663
536.04264	0.65280
533.98883	0.65239
531.93503	0.65473
529.88123	0.65974
527.82742	0.66638
525.77362	0.67187
523.71982	0.67446
521.66602	0.67660
519.61221	0.68122
517.55841	0.68833
515.50461	0.69684
513.45080	0.70612
511.39700	0.71473
509.34320	0.72136
507.28939	0.72597
505.23559	0.73045
503.18179	0.73528
501.12798	0.73825
499.07418	0.74011
497.02038	0.74263
494.96657	0.74389
492.91277	0.74127
490.85897	0.73598
488.80516	0.72987
486.75136	0.72146
484.69756	0.71059
482.64375	0.69916
480.58995	0.68692
478.53615	0.67364
476.48234	0.66146
474.42854	0.65093
472.37474	0.64003
470.32093	0.62911
468.26713	0.62079
466.21333	0.61731
464.15953	0.61809
462.10572	0.62128
460.05192	0.62736
457.99812	0.63498
455.94431	0.64156
453.89051	0.64671
451.83671	0.65025
449.78290	0.65321
447.72910	0.65859
445.67530	0.66513
443.62149	0.66812
441.56769	0.66806
439.51389	0.66718
437.46008	0.66665
435.40628	0.66566
433.35248	0.66151
431.29867	0.65732
429.24487	0.65657
427.19107	0.65678
425.13726	0.65850
423.08346	0.66448
421.02966	0.66947
418.97585	0.66939
416.92205	0.66784
414.86825	0.66999
412.81445	0.67763
410.76064	0.68441
408.70684	0.68661
406.65304	0.69110
404.59923	0.69956
402.54543	0.71075
400.49163	0.71983
398.43782	0.71310
