3996.71440	0.98874
3994.66059	0.98862
3992.60678	0.98830
3990.55297	0.98790
3988.49916	0.98779
3986.44535	0.98791
3984.39154	0.98804
3982.33773	0.98833
3980.28391	0.98869
3978.23010	0.98863
3976.17629	0.98826
3974.12248	0.98811
3972.06867	0.98820
3970.01486	0.98831
3967.96105	0.98855
3965.90724	0.98876
3963.85343	0.98850
3961.79962	0.98824
3959.74581	0.98846
3957.69200	0.98879
3955.63819	0.98902
3953.58438	0.98922
3951.53057	0.98934
3949.47676	0.98944
3947.42295	0.98939
3945.36914	0.98885
3943.31533	0.98818
3941.26152	0.98803
3939.20771	0.98821
3937.15390	0.98843
3935.10009	0.98869
3933.04628	0.98892
3930.99247	0.98905
3928.93866	0.98911
3926.88485	0.98896
3924.83104	0.98849
3922.77723	0.98818
3920.72342	0.98838
3918.66961	0.98871
3916.61580	0.98860
3914.56199	0.98836
3912.50818	0.98856
3910.45437	0.98890
3908.40056	0.98903
3906.34675	0.98910
3904.29294	0.98919
3902.23913	0.98917
3900.18532	0.98905
3898.13151	0.98870
3896.07770	0.98829
3894.02389	0.98806
3891.97008	0.98790
3889.91627	0.98796
3887.86246	0.98814
3885.80865	0.98803
3883.75484	0.98780
3881.70103	0.98789
3879.64722	0.98810
3877.59341	0.98804
3875.53960	0.98791
3873.48579	0.98811
3871.43198	0.98843
3869.37817	0.98838
3867.32436	0.98799
3865.27055	0.98777
3863.21674	0.98820
3861.16293	0.98859
3859.10912	0.98831
3857.05531	0.98799
3855.00150	0.98824
3852.94769	0.98887
3850.89388	0.98894
3848.84007	0.98889
3846.78626	0.98886
3844.73245	0.98856
3842.67864	0.98826
3840.62483	0.98833
3838.57102	0.98883
3836.51721	0.98923
3834.46340	0.98891
3832.40959	0.98850
3830.35578	0.98844
3828.30197	0.98851
3826.24816	0.98869
3824.19435	0.98883
3822.14054	0.98894
3820.08673	0.98904
3818.03292	0.98893
3815.97911	0.98905
3813.92530	0.98924
3811.87149	0.98901
3809.81768	0.98875
3807.76387	0.98878
3805.71006	0.98884
3803.65625	0.98878
3801.60244	0.98886
3799.54863	0.98895
3797.49482	0.98884
3795.44101	0.98880
3793.38720	0.98890
3791.33339	0.98890
3789.27958	0.98873
3787.22577	0.98851
3785.17196	0.98841
3783.11815	0.98854
3781.06434	0.98890
3779.01053	0.98925
3776.95672	0.98930
3774.90291	0.98901
3772.84910	0.98859
3770.79529	0.98836
3768.74148	0.98860
3766.68767	0.98912
3764.63386	0.98954
3762.58005	0.98964
3760.52624	0.98966
3758.47243	0.98963
3756.41862	0.98915
3754.36481	0.98861
3752.31100	0.98861
3750.25719	0.98906
3748.20338	0.98937
3746.14957	0.98943
3744.09576	0.98946
3742.04195	0.98937
3739.98814	0.98897
3737.93433	0.98862
3735.88052	0.98894
3733.82671	0.98962
3731.77290	0.98944
3729.71909	0.98885
3727.66528	0.98870
3725.61147	0.98857
3723.55766	0.98817
3721.50385	0.98784
3719.45004	0.98736
3717.39623	0.98700
3715.34242	0.98725
3713.28861	0.98758
3711.23480	0.98670
3709.18099	0.98479
3707.12718	0.98327
3705.07337	0.98225
3703.01956	0.98146
3700.96575	0.98084
3698.91194	0.98014
3696.85813	0.97956
3694.80432	0.97976
3692.75051	0.98036
3690.69670	0.98031
3688.64289	0.98022
3686.58907	0.98105
3684.53526	0.98174
3682.48145	0.98175
3680.42764	0.98166
3678.37383	0.98192
3676.32002	0.98220
3674.26621	0.98198
3672.21240	0.98140
3670.15859	0.98081
3668.10478	0.98072
3666.05097	0.98119
3663.99716	0.98146
3661.94335	0.98118
3659.88954	0.98078
3657.83573	0.98028
3655.78192	0.97962
3653.72811	0.97931
3651.67430	0.97894
3649.62049	0.97815
3647.56668	0.97794
3645.51287	0.97835
3643.45906	0.97862
3641.40525	0.97857
3639.35144	0.97836
3637.29763	0.97835
3635.24382	0.97853
3633.19001	0.97848
3631.13620	0.97805
3629.08239	0.97740
3627.02858	0.97694
3624.97477	0.97688
3622.92096	0.97682
3620.86715	0.97684
3618.81334	0.97726
3616.75953	0.97753
3614.70572	0.97749
3612.65191	0.97789
3610.59810	0.97845
3608.54429	0.97816
3606.49048	0.97745
3604.43667	0.97717
3602.38286	0.97709
3600.32905	0.97711
3598.27524	0.97751
3596.22143	0.97829
3594.16762	0.97896
3592.11381	0.97898
3590.06000	0.97846
3588.00619	0.97804
3585.95238	0.97835
3583.89857	0.97890
3581.84476	0.97904
3579.79095	0.97875
3577.73714	0.97842
3575.68333	0.97825
3573.62952	0.97809
3571.57571	0.97810
3569.52190	0.97826
3567.46809	0.97781
3565.41428	0.97723
3563.36047	0.97752
3561.30666	0.97787
3559.25285	0.97771
3557.19904	0.97758
3555.14523	0.97771
3553.09142	0.97781
3551.03761	0.97763
3548.98380	0.97730
3546.92999	0.97719
3544.87618	0.97726
3542.82237	0.97719
3540.76856	0.97711
3538.71475	0.97698
3536.66094	0.97657
3534.60713	0.97618
3532.55332	0.97627
3530.49951	0.97651
3528.44570	0.97655
3526.39189	0.97668
3524.33808	0.97670
3522.28427	0.97637
3520.23046	0.97636
3518.17665	0.97665
3516.12284	0.97653
3514.06903	0.97611
3512.01522	0.97580
3509.96141	0.97569
3507.90760	0.97587
3505.85379	0.97620
3503.79998	0.97626
3501.74617	0.97595
3499.69236	0.97565
3497.63855	0.97544
3495.58474	0.97524
3493.53093	0.97497
3491.47712	0.97459
3489.42331	0.97435
3487.36950	0.97435
3485.31569	0.97454
3483.26188	0.97495
3481.20807	0.97542
3479.15426	0.97553
3477.10045	0.97518
3475.04664	0.97490
3472.99283	0.97495
3470.93902	0.97492
3468.88521	0.97459
3466.83140	0.97422
3464.77759	0.97398
3462.72378	0.97374
3460.66997	0.97347
3458.61616	0.97338
3456.56235	0.97347
3454.50854	0.97359
3452.45473	0.97370
3450.40092	0.97363
3448.34711	0.97346
3446.29330	0.97358
3444.23949	0.97390
3442.18568	0.97394
3440.13187	0.97371
3438.07806	0.97358
3436.02425	0.97362
3433.97044	0.97354
3431.91663	0.97336
3429.86282	0.97327
3427.80901	0.97306
3425.75520	0.97288
3423.70139	0.97308
3421.64758	0.97328
3419.59377	0.97303
3417.53996	0.97258
3415.48615	0.97238
3413.43234	0.97261
3411.37853	0.97294
3409.32472	0.97286
3407.27091	0.97256
3405.21710	0.97252
3403.16329	0.97265
3401.10948	0.97257
3399.05567	0.97227
3397.00186	0.97192
3394.94805	0.97181
3392.89424	0.97212
3390.84042	0.97270
3388.78661	0.97307
3386.73280	0.97303
3384.67899	0.97281
3382.62518	0.97258
3380.57137	0.97235
3378.51756	0.97220
3376.46375	0.97214
3374.40994	0.97230
3372.35613	0.97263
3370.30232	0.97269
3368.24851	0.97238
3366.19470	0.97214
3364.14089	0.97210
3362.08708	0.97218
3360.03327	0.97241
3357.97946	0.97249
3355.92565	0.97237
3353.87184	0.97239
3351.81803	0.97258
3349.76422	0.97269
3347.71041	0.97266
3345.65660	0.97264
3343.60279	0.97260
3341.54898	0.97231
3339.49517	0.97193
3337.44136	0.97187
3335.38755	0.97207
3333.33374	0.97225
3331.27993	0.97259
3329.22612	0.97304
3327.17231	0.97323
3325.11850	0.97308
3323.06469	0.97288
3321.01088	0.97279
3318.95707	0.97274
3316.90326	0.97261
3314.84945	0.97248
3312.79564	0.97240
3310.74183	0.97242
3308.68802	0.97254
3306.63421	0.97262
3304.58040	0.97271
3302.52659	0.97264
3300.47278	0.97229
3298.41897	0.97213
3296.36516	0.97224
3294.31135	0.97242
3292.25754	0.97263
3290.20373	0.97269
3288.14992	0.97258
3286.09611	0.97251
3284.04230	0.97259
3281.98849	0.97274
3279.93468	0.97285
3277.88087	0.97291
3275.82706	0.97296
3273.77325	0.97289
3271.71944	0.97284
3269.66563	0.97298
3267.61182	0.97301
3265.55801	0.97292
3263.50420	0.97312
3261.45039	0.97357
3259.39658	0.97370
3257.34277	0.97335
3255.28896	0.97307
3253.23515	0.97311
3251.18134	0.97336
3249.12753	0.97370
3247.07372	0.97387
3245.01991	0.97363
3242.96610	0.97335
3240.91229	0.97342
3238.85848	0.97375
3236.80467	0.97412
3234.75086	0.97432
3232.69705	0.97430
3230.64324	0.97432
3228.58943	0.97452
3226.53562	0.97462
3224.48181	0.97447
3222.42800	0.97436
3220.37419	0.97440
3218.32038	0.97450
3216.26657	0.97445
3214.21276	0.97435
3212.15895	0.97444
3210.10514	0.97455
3208.05133	0.97457
3205.99752	0.97457
3203.94371	0.97456
3201.88990	0.97467
3199.83609	0.97490
3197.78228	0.97508
3195.72847	0.97518
3193.67466	0.97506
3191.62085	0.97478
3189.56704	0.97482
3187.51323	0.97514
3185.45942	0.97529
3183.40561	0.97526
3181.35180	0.97519
3179.29799	0.97510
3177.24418	0.97495
3175.19037	0.97491
3173.13656	0.97514
3171.08275	0.97539
3169.02894	0.97547
3166.97513	0.97546
3164.92132	0.97543
3162.86751	0.97546
3160.81370	0.97562
3158.75989	0.97575
3156.70608	0.97571
3154.65227	0.97556
3152.59846	0.97556
3150.54465	0.97573
3148.49084	0.97571
3146.43703	0.97545
3144.38322	0.97529
3142.32941	0.97546
3140.27560	0.97580
3138.22179	0.97603
3136.16798	0.97605
3134.11417	0.97597
3132.06036	0.97585
3130.00655	0.97571
3127.95274	0.97569
3125.89893	0.97571
3123.84512	0.97554
3121.79131	0.97531
3119.73750	0.97530
3117.68369	0.97539
3115.62988	0.97544
3113.57607	0.97543
3111.52226	0.97534
3109.46845	0.97529
3107.41464	0.97551
3105.36083	0.97569
3103.30702	0.97536
3101.25321	0.97490
3099.19940	0.97483
3097.14559	0.97490
3095.09177	0.97464
3093.03796	0.97419
3090.98415	0.97402
3088.93034	0.97404
3086.87653	0.97388
3084.82272	0.97359
3082.76891	0.97327
3080.71510	0.97300
3078.66129	0.97298
3076.60748	0.97314
3074.55367	0.97315
3072.49986	0.97287
3070.44605	0.97270
3068.39224	0.97272
3066.33843	0.97279
3064.28462	0.97303
3062.23081	0.97307
3060.17700	0.97268
3058.12319	0.97235
3056.06938	0.97233
3054.01557	0.97226
3051.96176	0.97211
3049.90795	0.97219
3047.85414	0.97237
3045.80033	0.97245
3043.74652	0.97231
3041.69271	0.97203
3039.63890	0.97183
3037.58509	0.97170
3035.53128	0.97143
3033.47747	0.97117
3031.42366	0.97093
3029.36985	0.97041
3027.31604	0.96988
3025.26223	0.96988
3023.20842	0.97018
3021.15461	0.97010
3019.10080	0.96980
3017.04699	0.96962
3014.99318	0.96957
3012.93937	0.96957
3010.88556	0.96952
3008.83175	0.96938
3006.77794	0.96916
3004.72413	0.96874
3002.67032	0.96822
3000.61651	0.96779
2998.56270	0.96742
2996.50889	0.96688
2994.45508	0.96612
2992.40127	0.96537
2990.34746	0.96467
2988.29365	0.96370
2986.23984	0.96234
2984.18603	0.96090
2982.13222	0.95932
2980.07841	0.95736
2978.02460	0.95499
2975.97079	0.95219
2973.91698	0.94895
2971.86317	0.94526
2969.80936	0.94091
2967.75555	0.93597
2965.70174	0.93075
2963.64793	0.92533
2961.59412	0.91992
2959.54031	0.91483
2957.48650	0.91021
2955.43269	0.90620
2953.37888	0.90285
2951.32507	0.89949
2949.27126	0.89496
2947.21745	0.88822
2945.16364	0.87839
2943.10983	0.86484
2941.05602	0.84745
2939.00221	0.82676
2936.94840	0.80312
2934.89459	0.77638
2932.84078	0.74659
2930.78697	0.71338
2928.73316	0.67556
2926.67935	0.63184
2924.62554	0.58123
2922.57173	0.52382
2920.51792	0.46302
2918.46411	0.40685
2916.41030	0.36748
2914.35649	0.35638
2912.30268	0.37554
2910.24887	0.41526
2908.19506	0.46202
2906.14125	0.50609
2904.08744	0.54344
2902.03363	0.57409
2899.97982	0.59961
2897.92601	0.62167
2895.87220	0.64197
2893.81839	0.66185
2891.76458	0.68174
2889.71077	0.70178
2887.65696	0.72208
2885.60315	0.74215
2883.54934	0.76144
2881.49553	0.77982
2879.44172	0.79687
2877.38791	0.81180
2875.33410	0.82368
2873.28029	0.83171
2871.22648	0.83613
2869.17267	0.83746
2867.11886	0.83501
2865.06505	0.82723
2863.01124	0.81235
2860.95743	0.78855
2858.90362	0.75343
2856.84981	0.70347
2854.79600	0.63462
2852.74219	0.54741
2850.68838	0.45763
2848.63457	0.39933
2846.58076	0.40183
2844.52695	0.46106
2842.47314	0.54709
2840.41933	0.63246
2838.36552	0.70371
2836.31171	0.75828
2834.25790	0.79885
2832.20409	0.82896
2830.15028	0.85160
2828.09647	0.86890
2826.04266	0.88238
2823.98885	0.89320
2821.93504	0.90206
2819.88123	0.90938
2817.82742	0.91556
2815.77361	0.92078
2813.71980	0.92522
2811.66599	0.92900
2809.61218	0.93229
2807.55837	0.93539
2805.50456	0.93814
2803.45075	0.94046
2801.39693	0.94266
2799.34312	0.94470
2797.28931	0.94655
2795.23550	0.94839
2793.18169	0.95012
2791.12788	0.95175
2789.07407	0.95345
2787.02026	0.95508
2784.96645	0.95641
2782.91264	0.95761
2780.85883	0.95899
2778.80502	0.96029
2776.75121	0.96118
2774.69740	0.96185
2772.64359	0.96249
2770.58978	0.96315
2768.53597	0.96381
2766.48216	0.96437
2764.42835	0.96483
2762.37454	0.96538
2760.32073	0.96593
2758.26692	0.96629
2756.21311	0.96651
2754.15930	0.96675
2752.10549	0.96706
2750.05168	0.96740
2747.99787	0.96767
2745.94406	0.96788
2743.89025	0.96794
2741.83644	0.96795
2739.78263	0.96809
2737.72882	0.96819
2735.67501	0.96823
2733.62120	0.96853
2731.56739	0.96897
2729.51358	0.96924
2727.45977	0.96942
2725.40596	0.96968
2723.35215	0.96997
2721.29834	0.97020
2719.24453	0.97030
2717.19072	0.97049
2715.13691	0.97090
2713.08310	0.97121
2711.02929	0.97126
2708.97548	0.97122
2706.92167	0.97123
2704.86786	0.97143
2702.81405	0.97164
2700.76024	0.97162
2698.70643	0.97161
2696.65262	0.97181
2694.59881	0.97194
2692.54500	0.97190
2690.49119	0.97200
2688.43738	0.97219
2686.38357	0.97221
2684.32976	0.97208
2682.27595	0.97193
2680.22214	0.97177
2678.16833	0.97165
2676.11452	0.97159
2674.06071	0.97156
2672.00690	0.97146
2669.95309	0.97116
2667.89928	0.97070
2665.84547	0.97044
2663.79166	0.97049
2661.73785	0.97057
2659.68404	0.97063
2657.63023	0.97076
2655.57642	0.97089
2653.52261	0.97108
2651.46880	0.97134
2649.41499	0.97147
2647.36118	0.97142
2645.30737	0.97135
2643.25356	0.97134
2641.19975	0.97130
2639.14594	0.97120
2637.09213	0.97123
2635.03832	0.97144
2632.98451	0.97167
2630.93070	0.97188
2628.87689	0.97219
2626.82308	0.97257
2624.76927	0.97305
2622.71546	0.97360
2620.66165	0.97387
2618.60784	0.97397
2616.55403	0.97428
2614.50022	0.97476
2612.44641	0.97528
2610.39260	0.97561
2608.33879	0.97579
2606.28498	0.97608
2604.23117	0.97642
2602.17736	0.97688
2600.12355	0.97726
2598.06974	0.97747
2596.01593	0.97775
2593.96212	0.97791
2591.90831	0.97791
2589.85450	0.97797
2587.80069	0.97815
2585.74688	0.97846
2583.69307	0.97891
2581.63926	0.97947
2579.58545	0.97974
2577.53164	0.97960
2575.47783	0.97940
2573.42402	0.97950
2571.37021	0.97980
2569.31640	0.97999
2567.26259	0.98004
2565.20878	0.98005
2563.15497	0.98025
2561.10116	0.98051
2559.04735	0.98069
2556.99354	0.98093
2554.93973	0.98110
2552.88592	0.98110
2550.83211	0.98087
2548.77830	0.98064
2546.72449	0.98095
2544.67068	0.98189
2542.61687	0.98276
2540.56306	0.98280
2538.50925	0.98246
2536.45544	0.98220
2534.40163	0.98173
2532.34782	0.98158
2530.29401	0.98224
2528.24020	0.98315
2526.18639	0.98338
2524.13258	0.98280
2522.07877	0.98219
2520.02496	0.98233
2517.97115	0.98313
2515.91734	0.98363
2513.86353	0.98360
2511.80972	0.98362
2509.75591	0.98382
2507.70210	0.98417
2505.64828	0.98455
2503.59447	0.98450
2501.54066	0.98428
2499.48685	0.98431
2497.43304	0.98434
2495.37923	0.98426
2493.32542	0.98423
2491.27161	0.98430
2489.21780	0.98446
2487.16399	0.98468
2485.11018	0.98474
2483.05637	0.98481
2481.00256	0.98524
2478.94875	0.98576
2476.89494	0.98597
2474.84113	0.98584
2472.78732	0.98566
2470.73351	0.98567
2468.67970	0.98569
2466.62589	0.98575
2464.57208	0.98597
2462.51827	0.98609
2460.46446	0.98609
2458.41065	0.98598
2456.35684	0.98566
2454.30303	0.98558
2452.24922	0.98589
2450.19541	0.98625
2448.14160	0.98654
2446.08779	0.98655
2444.03398	0.98637
2441.98017	0.98648
2439.92636	0.98673
2437.87255	0.98688
2435.81874	0.98698
2433.76493	0.98693
2431.71112	0.98686
2429.65731	0.98694
2427.60350	0.98705
2425.54969	0.98690
2423.49588	0.98650
2421.44207	0.98627
2419.38826	0.98619
2417.33445	0.98600
2415.28064	0.98608
2413.22683	0.98656
2411.17302	0.98667
2409.11921	0.98637
2407.06540	0.98656
2405.01159	0.98698
2402.95778	0.98693
2400.90397	0.98673
2398.85016	0.98668
2396.79635	0.98671
2394.74254	0.98701
2392.68873	0.98750
2390.63492	0.98768
2388.58111	0.98759
2386.52730	0.98745
2384.47349	0.98723
2382.41968	0.98724
2380.36587	0.98754
2378.31206	0.98778
2376.25825	0.98781
2374.20444	0.98787
2372.15063	0.98801
2370.09682	0.98781
2368.04301	0.98716
2365.98920	0.98661
2363.93539	0.98658
2361.88158	0.98662
2359.82777	0.98641
2357.77396	0.98630
2355.72015	0.98619
2353.66634	0.98563
2351.61253	0.98501
2349.55872	0.98496
2347.50491	0.98514
2345.45110	0.98515
2343.39729	0.98477
2341.34348	0.98419
2339.28967	0.98428
2337.23586	0.98492
2335.18205	0.98526
2333.12824	0.98550
2331.07443	0.98583
2329.02062	0.98567
2326.96681	0.98511
2324.91300	0.98472
2322.85919	0.98464
2320.80538	0.98455
2318.75157	0.98464
2316.69776	0.98531
2314.64395	0.98580
2312.59014	0.98576
2310.53633	0.98574
2308.48252	0.98575
2306.42871	0.98569
2304.37490	0.98562
2302.32109	0.98560
2300.26728	0.98561
2298.21347	0.98574
2296.15966	0.98608
2294.10585	0.98623
2292.05204	0.98587
2289.99823	0.98559
2287.94442	0.98586
2285.89061	0.98612
2283.83680	0.98615
2281.78299	0.98632
2279.72918	0.98665
2277.67537	0.98714
2275.62156	0.98763
2273.56775	0.98795
2271.51394	0.98855
2269.46013	0.98862
2267.40632	0.98768
2265.35251	0.98729
2263.29870	0.98757
2261.24489	0.98751
2259.19108	0.98781
2257.13727	0.98878
2255.08346	0.98898
2253.02965	0.98863
2250.97584	0.98889
2248.92203	0.98882
2246.86822	0.98822
2244.81441	0.98826
2242.76060	0.98835
2240.70679	0.98787
2238.65298	0.98778
2236.59917	0.98824
2234.54536	0.98843
2232.49155	0.98835
2230.43774	0.98897
2228.38393	0.98979
2226.33012	0.98970
2224.27631	0.98969
2222.22250	0.99014
2220.16869	0.99001
2218.11488	0.98955
2216.06107	0.98956
2214.00726	0.98948
2211.95344	0.98907
2209.89963	0.98926
2207.84582	0.98963
2205.79201	0.98948
2203.73820	0.98920
2201.68439	0.98940
2199.63058	0.98982
2197.57677	0.98957
2195.52296	0.98930
2193.46915	0.98998
2191.41534	0.99079
2189.36153	0.99067
2187.30772	0.99012
2185.25391	0.98971
2183.20010	0.98924
2181.14629	0.98988
2179.09248	0.99179
2177.03867	0.99283
2174.98486	0.99238
2172.93105	0.99106
2170.87724	0.98967
2168.82343	0.98896
2166.76962	0.98897
2164.71581	0.98940
2162.66200	0.98915
2160.60819	0.98830
2158.55438	0.98930
2156.50057	0.99173
2154.44676	0.99182
2152.39295	0.98948
2150.33914	0.98830
2148.28533	0.98925
2146.23152	0.98937
2144.17771	0.98824
2142.12390	0.98834
2140.07009	0.99039
2138.01628	0.99234
2135.96247	0.99241
2133.90866	0.99232
2131.85485	0.99257
2129.80104	0.99202
2127.74723	0.99157
2125.69342	0.99162
2123.63961	0.99144
2121.58580	0.99128
2119.53199	0.99146
2117.47818	0.99139
2115.42437	0.99109
2113.37056	0.99053
2111.31675	0.98948
2109.26294	0.98893
2107.20913	0.98950
2105.15532	0.98979
2103.10151	0.98942
2101.04770	0.98979
2098.99389	0.99053
2096.94008	0.99082
2094.88627	0.99098
2092.83246	0.99053
2090.77865	0.98945
2088.72484	0.98886
2086.67103	0.98881
2084.61722	0.98900
2082.56341	0.98925
2080.50960	0.98878
2078.45579	0.98798
2076.40198	0.98800
2074.34817	0.98889
2072.29436	0.98938
2070.24055	0.98942
2068.18674	0.98984
2066.13293	0.98972
2064.07912	0.98919
2062.02531	0.98981
2059.97150	0.99082
2057.91769	0.99116
2055.86388	0.99201
2053.81007	0.99286
2051.75626	0.99218
2049.70245	0.99167
2047.64864	0.99251
2045.59483	0.99274
2043.54102	0.99138
2041.48721	0.98951
2039.43340	0.98878
2037.37959	0.99025
2035.32578	0.99211
2033.27197	0.99154
2031.21816	0.98947
2029.16435	0.98926
2027.11054	0.99118
2025.05673	0.99150
2023.00292	0.98888
2020.94911	0.98730
2018.89530	0.98836
2016.84149	0.99008
2014.78768	0.99139
2012.73387	0.99162
2010.68006	0.99106
2008.62625	0.99019
2006.57244	0.98913
2004.51863	0.98874
2002.46482	0.98904
2000.41101	0.98894
1998.35720	0.98888
1996.30339	0.99016
1994.24958	0.99180
1992.19577	0.99269
1990.14196	0.99248
1988.08815	0.99146
1986.03434	0.99107
1983.98053	0.99111
1981.92672	0.99012
1979.87291	0.98933
1977.81910	0.99022
1975.76529	0.99109
1973.71148	0.99130
1971.65767	0.99186
1969.60386	0.99208
1967.55005	0.99108
1965.49624	0.98927
1963.44243	0.98841
1961.38862	0.98951
1959.33481	0.99084
1957.28100	0.99071
1955.22719	0.99024
1953.17338	0.99064
1951.11957	0.99085
1949.06576	0.99012
1947.01195	0.98929
1944.95814	0.98896
1942.90433	0.98905
1940.85052	0.98954
1938.79671	0.99056
1936.74290	0.99108
1934.68909	0.99057
1932.63528	0.99030
1930.58147	0.99059
1928.52766	0.99051
1926.47385	0.98982
1924.42004	0.98955
1922.36623	0.98987
1920.31242	0.98991
1918.25861	0.98968
1916.20479	0.98900
1914.15098	0.98809
1912.09717	0.98782
1910.04336	0.98816
1907.98955	0.98836
1905.93574	0.98832
1903.88193	0.98836
1901.82812	0.98847
1899.77431	0.98858
1897.72050	0.98846
1895.66669	0.98819
1893.61288	0.98799
1891.55907	0.98794
1889.50526	0.98838
1887.45145	0.98888
1885.39764	0.98881
1883.34383	0.98862
1881.29002	0.98866
1879.23621	0.98882
1877.18240	0.98872
1875.12859	0.98826
1873.07478	0.98800
1871.02097	0.98817
1868.96716	0.98840
1866.91335	0.98853
1864.85954	0.98881
1862.80573	0.98893
1860.75192	0.98846
1858.69811	0.98801
1856.64430	0.98809
1854.59049	0.98855
1852.53668	0.98910
1850.48287	0.98914
1848.42906	0.98866
1846.37525	0.98837
1844.32144	0.98826
1842.26763	0.98824
1840.21382	0.98853
1838.16001	0.98872
1836.10620	0.98830
1834.05239	0.98772
1831.99858	0.98781
1829.94477	0.98820
1827.89096	0.98798
1825.83715	0.98752
1823.78334	0.98731
1821.72953	0.98718
1819.67572	0.98729
1817.62191	0.98748
1815.56810	0.98713
1813.51429	0.98657
1811.46048	0.98628
1809.40667	0.98596
1807.35286	0.98555
1805.29905	0.98527
1803.24524	0.98487
1801.19143	0.98420
1799.13762	0.98360
1797.08381	0.98330
1795.03000	0.98305
1792.97619	0.98230
1790.92238	0.98119
1788.86857	0.98034
1786.81476	0.97960
1784.76095	0.97892
1782.70714	0.97839
1780.65333	0.97770
1778.59952	0.97692
1776.54571	0.97632
1774.49190	0.97587
1772.43809	0.97547
1770.38428	0.97511
1768.33047	0.97451
1766.27666	0.97385
1764.22285	0.97341
1762.16904	0.97269
1760.11523	0.97154
1758.06142	0.97028
1756.00761	0.96894
1753.95380	0.96748
1751.89999	0.96559
1749.84618	0.96295
1747.79237	0.95982
1745.73856	0.95645
1743.68475	0.95306
1741.63094	0.94994
1739.57713	0.94709
1737.52332	0.94509
1735.46951	0.94367
1733.41570	0.94175
1731.36189	0.93961
1729.30808	0.93681
1727.25427	0.93194
1725.20046	0.92473
1723.14665	0.91602
1721.09284	0.90792
1719.03903	0.90023
1716.98522	0.89157
1714.93141	0.88503
1712.87760	0.88235
1710.82379	0.88293
1708.76998	0.88632
1706.71617	0.89245
1704.66236	0.90037
1702.60855	0.90735
1700.55474	0.91445
1698.50093	0.92142
1696.44712	0.92768
1694.39331	0.93433
1692.33950	0.93929
1690.28569	0.94319
1688.23188	0.94659
1686.17807	0.94927
1684.12426	0.95196
1682.07045	0.95395
1680.01664	0.95501
1677.96283	0.95582
1675.90902	0.95645
1673.85521	0.95698
1671.80140	0.95740
1669.74759	0.95780
1667.69378	0.95815
1665.63997	0.95828
1663.58616	0.95831
1661.53235	0.95837
1659.47854	0.95860
1657.42473	0.95868
1655.37092	0.95847
1653.31711	0.95851
1651.26330	0.95898
1649.20949	0.95914
1647.15568	0.95919
1645.10187	0.95936
1643.04806	0.95939
1640.99425	0.95938
1638.94044	0.95935
1636.88663	0.95907
1634.83282	0.95868
1632.77901	0.95847
1630.72520	0.95832
1628.67139	0.95848
1626.61758	0.95895
1624.56377	0.95945
1622.50996	0.95998
1620.45614	0.96051
1618.40233	0.96116
1616.34852	0.96216
1614.29471	0.96303
1612.24090	0.96353
1610.18709	0.96402
1608.13328	0.96433
1606.07947	0.96436
1604.02566	0.96451
1601.97185	0.96479
1599.91804	0.96497
1597.86423	0.96506
1595.81042	0.96509
1593.75661	0.96521
1591.70280	0.96560
1589.64899	0.96595
1587.59518	0.96605
1585.54137	0.96608
1583.48756	0.96625
1581.43375	0.96651
1579.37994	0.96679
1577.32613	0.96698
1575.27232	0.96704
1573.21851	0.96703
1571.16470	0.96697
1569.11089	0.96689
1567.05708	0.96694
1565.00327	0.96716
1562.94946	0.96743
1560.89565	0.96757
1558.84184	0.96734
1556.78803	0.96713
1554.73422	0.96732
1552.68041	0.96759
1550.62660	0.96788
1548.57279	0.96822
1546.51898	0.96855
1544.46517	0.96875
1542.41136	0.96888
1540.35755	0.96933
1538.30374	0.97013
1536.24993	0.97064
1534.19612	0.97095
1532.14231	0.97131
1530.08850	0.97168
1528.03469	0.97195
1525.98088	0.97211
1523.92707	0.97241
1521.87326	0.97309
1519.81945	0.97381
1517.76564	0.97412
1515.71183	0.97419
1513.65802	0.97410
1511.60421	0.97412
1509.55040	0.97439
1507.49659	0.97480
1505.44278	0.97484
1503.38897	0.97450
1501.33516	0.97425
1499.28135	0.97399
1497.22754	0.97340
1495.17373	0.97268
1493.11992	0.97207
1491.06611	0.97114
1489.01230	0.96957
1486.95849	0.96738
1484.90468	0.96475
1482.85087	0.96088
1480.79706	0.95383
1478.74325	0.93883
1476.68944	0.90161
1474.63563	0.83084
1472.58182	0.75994
1470.52801	0.74381
1468.47420	0.75647
1466.42039	0.76003
1464.36658	0.75212
1462.31277	0.75863
1460.25896	0.78903
1458.20515	0.82922
1456.15134	0.86077
1454.09753	0.87748
1452.04372	0.88933
1449.98991	0.89907
1447.93610	0.90608
1445.88229	0.91065
1443.82848	0.91354
1441.77467	0.91589
1439.72086	0.91826
1437.66705	0.92109
1435.61324	0.92451
1433.55943	0.92777
1431.50562	0.93105
1429.45181	0.93452
1427.39800	0.93748
1425.34419	0.93967
1423.29038	0.94109
1421.23657	0.94160
1419.18276	0.94122
1417.12895	0.94005
1415.07514	0.93882
1413.02133	0.93800
1410.96752	0.93796
1408.91371	0.93889
1406.85990	0.94070
1404.80609	0.94331
1402.75228	0.94597
1400.69847	0.94816
1398.64466	0.95013
1396.59085	0.95185
1394.53704	0.95312
1392.48323	0.95386
1390.42942	0.95405
1388.37561	0.95348
1386.32180	0.95182
1384.26799	0.94902
1382.21418	0.94491
1380.16037	0.93995
1378.10656	0.93616
1376.05275	0.93529
1373.99894	0.93654
1371.94513	0.93762
1369.89132	0.93814
1367.83751	0.93890
1365.78370	0.94003
1363.72989	0.94146
1361.67608	0.94315
1359.62227	0.94458
1357.56846	0.94542
1355.51465	0.94570
1353.46084	0.94588
1351.40703	0.94646
1349.35322	0.94735
1347.29941	0.94839
1345.24560	0.94947
1343.19179	0.95047
1341.13798	0.95146
1339.08417	0.95254
1337.03036	0.95339
1334.97655	0.95385
1332.92274	0.95411
1330.86893	0.95429
1328.81512	0.95422
1326.76130	0.95372
1324.70749	0.95284
1322.65368	0.95180
1320.59987	0.95074
1318.54606	0.94965
1316.49225	0.94857
1314.43844	0.94769
1312.38463	0.94704
1310.33082	0.94634
1308.27701	0.94546
1306.22320	0.94459
1304.16939	0.94397
1302.11558	0.94355
1300.06177	0.94313
1298.00796	0.94270
1295.95415	0.94244
1293.90034	0.94238
1291.84653	0.94242
1289.79272	0.94244
1287.73891	0.94239
1285.68510	0.94230
1283.63129	0.94223
1281.57748	0.94233
1279.52367	0.94249
1277.46986	0.94249
1275.41605	0.94231
1273.36224	0.94206
1271.30843	0.94195
1269.25462	0.94188
1267.20081	0.94181
1265.14700	0.94187
1263.09319	0.94175
1261.03938	0.94118
1258.98557	0.94066
1256.93176	0.94038
1254.87795	0.93988
1252.82414	0.93925
1250.77033	0.93887
1248.71652	0.93852
1246.66271	0.93816
1244.60890	0.93801
1242.55509	0.93790
1240.50128	0.93765
1238.44747	0.93735
1236.39366	0.93714
1234.33985	0.93709
1232.28604	0.93706
1230.23223	0.93687
1228.17842	0.93659
1226.12461	0.93631
1224.07080	0.93605
1222.01699	0.93572
1219.96318	0.93525
1217.90937	0.93463
1215.85556	0.93394
1213.80175	0.93333
1211.74794	0.93280
1209.69413	0.93230
1207.64032	0.93184
1205.58651	0.93136
1203.53270	0.93095
1201.47889	0.93057
1199.42508	0.93011
1197.37127	0.92980
1195.31746	0.92966
1193.26365	0.92936
1191.20984	0.92869
1189.15603	0.92783
1187.10222	0.92723
1185.04841	0.92697
1182.99460	0.92654
1180.94079	0.92574
1178.88698	0.92473
1176.83317	0.92385
1174.77936	0.92345
1172.72555	0.92333
1170.67174	0.92304
1168.61793	0.92257
1166.56412	0.92217
1164.51031	0.92192
1162.45650	0.92184
1160.40269	0.92180
1158.34888	0.92166
1156.29507	0.92178
1154.24126	0.92229
1152.18745	0.92274
1150.13364	0.92296
1148.07983	0.92291
1146.02602	0.92271
1143.97221	0.92242
1141.91840	0.92190
1139.86459	0.92123
1137.81078	0.92055
1135.75697	0.91986
1133.70316	0.91907
1131.64935	0.91786
1129.59554	0.91610
1127.54173	0.91411
1125.48792	0.91218
1123.43411	0.91045
1121.38030	0.90870
1119.32649	0.90662
1117.27268	0.90435
1115.21887	0.90223
1113.16506	0.90028
1111.11125	0.89826
1109.05744	0.89620
1107.00363	0.89424
1104.94982	0.89231
1102.89601	0.89063
1100.84220	0.88928
1098.78839	0.88802
1096.73458	0.88683
1094.68077	0.88575
1092.62696	0.88481
1090.57315	0.88421
1088.51934	0.88377
1086.46553	0.88325
1084.41172	0.88271
1082.35791	0.88220
1080.30410	0.88185
1078.25029	0.88186
1076.19648	0.88184
1074.14267	0.88131
1072.08886	0.88064
1070.03505	0.88019
1067.98124	0.87955
1065.92743	0.87831
1063.87362	0.87673
1061.81981	0.87514
1059.76600	0.87351
1057.71219	0.87171
1055.65838	0.86960
1053.60457	0.86701
1051.55076	0.86407
1049.49695	0.86138
1047.44314	0.85919
1045.38933	0.85713
1043.33552	0.85516
1041.28171	0.85356
1039.22790	0.85247
1037.17409	0.85188
1035.12028	0.85167
1033.06647	0.85185
1031.01265	0.85248
1028.95884	0.85364
1026.90503	0.85530
1024.85122	0.85709
1022.79741	0.85872
1020.74360	0.86029
1018.68979	0.86177
1016.63598	0.86303
1014.58217	0.86430
1012.52836	0.86585
1010.47455	0.86782
1008.42074	0.87000
1006.36693	0.87236
1004.31312	0.87532
1002.25931	0.87892
1000.20550	0.88281
998.15169	0.88673
996.09788	0.89071
994.04407	0.89479
991.99026	0.89869
989.93645	0.90223
987.88264	0.90561
985.82883	0.90864
983.77502	0.91104
981.72121	0.91325
979.66740	0.91569
977.61359	0.91815
975.55978	0.92023
973.50597	0.92191
971.45216	0.92349
969.39835	0.92491
967.34454	0.92598
965.29073	0.92686
963.23692	0.92767
961.18311	0.92861
959.12930	0.92958
957.07549	0.93019
955.02168	0.93060
952.96787	0.93108
950.91406	0.93164
948.86025	0.93223
946.80644	0.93267
944.75263	0.93276
942.69882	0.93277
940.64501	0.93302
938.59120	0.93335
936.53739	0.93371
934.48358	0.93418
932.42977	0.93445
930.37596	0.93466
928.32215	0.93494
926.26834	0.93496
924.21453	0.93477
922.16072	0.93459
920.10691	0.93421
918.05310	0.93371
915.99929	0.93352
913.94548	0.93348
911.89167	0.93366
909.83786	0.93462
907.78405	0.93636
905.73024	0.93823
903.67643	0.93975
901.62262	0.94123
899.56881	0.94280
897.51500	0.94409
895.46119	0.94487
893.40738	0.94561
891.35357	0.94661
889.29976	0.94758
887.24595	0.94835
885.19214	0.94878
883.13833	0.94911
881.08452	0.94964
879.03071	0.95025
876.97690	0.95081
874.92309	0.95128
872.86928	0.95177
870.81547	0.95261
868.76166	0.95367
866.70785	0.95442
864.65404	0.95501
862.60023	0.95564
860.54642	0.95603
858.49261	0.95625
856.43880	0.95655
854.38499	0.95671
852.33118	0.95675
850.27737	0.95718
848.22356	0.95799
846.16975	0.95874
844.11594	0.95911
842.06213	0.95912
840.00832	0.95885
837.95451	0.95856
835.90070	0.95856
833.84689	0.95870
831.79308	0.95863
829.73927	0.95825
827.68546	0.95774
825.63165	0.95740
823.57784	0.95754
821.52403	0.95780
819.47022	0.95777
817.41641	0.95782
815.36260	0.95772
813.30879	0.95707
811.25498	0.95621
809.20117	0.95522
807.14736	0.95422
805.09355	0.95367
803.03974	0.95306
800.98593	0.95227
798.93212	0.95207
796.87831	0.95238
794.82450	0.95235
792.77069	0.95177
790.71688	0.95142
788.66307	0.95155
786.60926	0.95135
784.55545	0.95061
782.50164	0.94996
780.44783	0.94988
778.39402	0.95041
776.34021	0.95116
774.28640	0.95149
772.23259	0.95144
770.17878	0.95170
768.12497	0.95216
766.07116	0.95211
764.01735	0.95150
761.96354	0.95089
759.90973	0.95053
757.85592	0.95008
755.80211	0.94934
753.74830	0.94862
751.69449	0.94803
749.64068	0.94718
747.58687	0.94594
745.53306	0.94482
743.47925	0.94392
741.42544	0.94190
739.37163	0.93768
737.31781	0.92998
735.26400	0.91227
733.21019	0.87474
731.15638	0.82960
729.10257	0.81088
727.04876	0.82001
724.99495	0.82142
722.94114	0.79137
720.88733	0.73708
718.83352	0.69951
716.77971	0.71566
714.72590	0.77403
712.67209	0.83705
710.61828	0.87991
708.56447	0.90268
706.51066	0.91476
704.45685	0.92210
702.40304	0.92671
700.34923	0.92894
698.29542	0.92985
696.24161	0.93114
694.18780	0.93292
692.13399	0.93406
690.08018	0.93468
688.02637	0.93518
685.97256	0.93519
683.91875	0.93504
681.86494	0.93538
679.81113	0.93640
677.75732	0.93789
675.70351	0.93911
673.64970	0.93969
671.59589	0.93979
669.54208	0.93958
667.48827	0.93935
665.43446	0.93949
663.38065	0.93998
661.32684	0.94041
659.27303	0.94019
657.21922	0.94009
655.16541	0.94095
653.11160	0.94160
651.05779	0.94159
649.00398	0.94167
646.95017	0.94188
644.89636	0.94216
642.84255	0.94223
640.78874	0.94187
638.73493	0.94149
636.68112	0.94080
634.62731	0.93905
632.57350	0.93742
630.51969	0.93763
628.46588	0.93888
626.41207	0.93929
624.35826	0.93853
622.30445	0.93760
620.25064	0.93714
618.19683	0.93662
616.14302	0.93547
614.08921	0.93447
612.03540	0.93396
609.98159	0.93410
607.92778	0.93458
605.87397	0.93405
603.82016	0.93248
601.76635	0.93121
599.71254	0.93046
597.65873	0.92943
595.60492	0.92867
593.55111	0.92837
591.49730	0.92779
589.44349	0.92726
587.38968	0.92644
585.33587	0.92568
583.28206	0.92611
581.22825	0.92660
579.17444	0.92613
577.12063	0.92516
575.06682	0.92436
573.01301	0.92456
570.95920	0.92443
568.90539	0.92238
566.85158	0.92040
564.79777	0.92041
562.74396	0.92079
560.69015	0.92003
558.63634	0.91936
556.58253	0.91974
554.52872	0.91944
552.47491	0.91737
550.42110	0.91494
548.36729	0.91344
546.31348	0.91275
544.25967	0.91249
542.20586	0.91297
540.15205	0.91273
538.09824	0.91063
536.04443	0.90887
533.99062	0.90825
531.93681	0.90780
529.88300	0.90859
527.82919	0.91110
525.77538	0.91367
523.72157	0.91483
521.66776	0.91438
519.61395	0.91375
517.56014	0.91505
515.50633	0.91689
513.45252	0.91696
511.39871	0.91645
509.34490	0.91725
507.29109	0.91828
505.23728	0.91791
503.18347	0.91796
501.12966	0.91879
499.07585	0.91804
497.02204	0.91681
494.96823	0.91643
492.91442	0.91582
490.86061	0.91500
488.80680	0.91454
486.75299	0.91349
484.69918	0.91068
482.64537	0.90652
480.59156	0.90213
478.53775	0.89823
476.48394	0.89532
474.43013	0.89316
472.37632	0.89178
470.32251	0.89100
468.26870	0.89083
466.21489	0.89281
464.16108	0.89682
462.10727	0.90123
460.05346	0.90510
457.99965	0.90773
455.94584	0.90843
453.89203	0.90870
451.83822	0.91098
449.78441	0.91440
447.73060	0.91643
445.67679	0.91717
443.62298	0.91696
441.56916	0.91520
439.51535	0.91363
437.46154	0.91266
435.40773	0.91186
433.35392	0.91390
431.30011	0.91759
429.24630	0.91831
427.19249	0.91656
425.13868	0.91543
423.08487	0.91526
421.03106	0.91683
418.97725	0.92162
416.92344	0.92612
414.86963	0.92736
412.81582	0.92591
410.76201	0.92371
408.70820	0.92597
406.65439	0.93305
404.60058	0.93840
402.54677	0.94152
400.49296	0.94558
398.43915	0.94763
