3996.70104	0.97676
3994.64724	0.97675
3992.59344	0.97630
3990.53964	0.97596
3988.48583	0.97601
3986.43203	0.97603
3984.37823	0.97594
3982.32442	0.97623
3980.27062	0.97691
3978.21682	0.97713
3976.16301	0.97659
3974.10921	0.97601
3972.05541	0.97588
3970.00160	0.97613
3967.94780	0.97634
3965.89400	0.97636
3963.84019	0.97658
3961.78639	0.97719
3959.73259	0.97794
3957.67878	0.97824
3955.62498	0.97785
3953.57118	0.97744
3951.51737	0.97717
3949.46357	0.97673
3947.40977	0.97662
3945.35596	0.97691
3943.30216	0.97711
3941.24836	0.97707
3939.19455	0.97680
3937.14075	0.97657
3935.08695	0.97639
3933.03315	0.97633
3930.97934	0.97660
3928.92554	0.97698
3926.87174	0.97732
3924.81793	0.97767
3922.76413	0.97777
3920.71033	0.97762
3918.65652	0.97748
3916.60272	0.97721
3914.54892	0.97712
3912.49511	0.97738
3910.44131	0.97748
3908.38751	0.97720
3906.33370	0.97675
3904.27990	0.97701
3902.22610	0.97816
3900.17229	0.97845
3898.11849	0.97778
3896.06469	0.97707
3894.01088	0.97686
3891.95708	0.97731
3889.90328	0.97744
3887.84947	0.97697
3885.79567	0.97673
3883.74187	0.97686
3881.68807	0.97702
3879.63426	0.97691
3877.58046	0.97657
3875.52666	0.97657
3873.47285	0.97707
3871.41905	0.97754
3869.36525	0.97741
3867.31144	0.97695
3865.25764	0.97678
3863.20384	0.97666
3861.15003	0.97652
3859.09623	0.97683
3857.04243	0.97724
3854.98862	0.97743
3852.93482	0.97819
3850.88102	0.97876
3848.82721	0.97823
3846.77341	0.97771
3844.71961	0.97798
3842.66580	0.97862
3840.61200	0.97857
3838.55820	0.97826
3836.50439	0.97833
3834.45059	0.97794
3832.39679	0.97708
3830.34298	0.97670
3828.28918	0.97701
3826.23538	0.97708
3824.18158	0.97677
3822.12777	0.97720
3820.07397	0.97797
3818.02017	0.97771
3815.96636	0.97754
3813.91256	0.97773
3811.85876	0.97772
3809.80495	0.97753
3807.75115	0.97707
3805.69735	0.97685
3803.64354	0.97724
3801.58974	0.97772
3799.53594	0.97763
3797.48213	0.97755
3795.42833	0.97778
3793.37453	0.97763
3791.32072	0.97716
3789.26692	0.97697
3787.21312	0.97701
3785.15931	0.97714
3783.10551	0.97784
3781.05171	0.97867
3778.99790	0.97857
3776.94410	0.97766
3774.89030	0.97733
3772.83650	0.97783
3770.78269	0.97819
3768.72889	0.97784
3766.67509	0.97720
3764.62128	0.97699
3762.56748	0.97750
3760.51368	0.97818
3758.45987	0.97826
3756.40607	0.97782
3754.35227	0.97738
3752.29846	0.97710
3750.24466	0.97673
3748.19086	0.97609
3746.13705	0.97585
3744.08325	0.97650
3742.02945	0.97736
3739.97564	0.97724
3737.92184	0.97644
3735.86804	0.97591
3733.81423	0.97623
3731.76043	0.97682
3729.70663	0.97713
3727.65282	0.97712
3725.59902	0.97676
3723.54522	0.97661
3721.49141	0.97719
3719.43761	0.97726
3717.38381	0.97593
3715.33001	0.97447
3713.27620	0.97359
3711.22240	0.97281
3709.16860	0.97151
3707.11479	0.96976
3705.06099	0.96798
3703.00719	0.96601
3700.95338	0.96417
3698.89958	0.96316
3696.84578	0.96242
3694.79197	0.96219
3692.73817	0.96306
3690.68437	0.96473
3688.63056	0.96681
3686.57676	0.96786
3684.52296	0.96770
3682.46915	0.96715
3680.41535	0.96627
3678.36155	0.96582
3676.30774	0.96662
3674.25394	0.96732
3672.20014	0.96665
3670.14633	0.96601
3668.09253	0.96590
3666.03873	0.96538
3663.98492	0.96467
3661.93112	0.96434
3659.87732	0.96392
3657.82352	0.96315
3655.76971	0.96228
3653.71591	0.96177
3651.66211	0.96241
3649.60830	0.96401
3647.55450	0.96399
3645.50070	0.96249
3643.44689	0.96159
3641.39309	0.96144
3639.33929	0.96135
3637.28548	0.96068
3635.23168	0.95965
3633.17788	0.95900
3631.12407	0.95857
3629.07027	0.95771
3627.01647	0.95667
3624.96266	0.95620
3622.90886	0.95570
3620.85506	0.95501
3618.80125	0.95461
3616.74745	0.95427
3614.69365	0.95406
3612.63984	0.95403
3610.58604	0.95360
3608.53224	0.95275
3606.47844	0.95238
3604.42463	0.95260
3602.37083	0.95273
3600.31703	0.95280
3598.26322	0.95277
3596.20942	0.95223
3594.15562	0.95173
3592.10181	0.95181
3590.04801	0.95169
3587.99421	0.95088
3585.94040	0.95022
3583.88660	0.95029
3581.83280	0.95038
3579.77899	0.94998
3577.72519	0.94905
3575.67139	0.94782
3573.61758	0.94701
3571.56378	0.94699
3569.50998	0.94728
3567.45617	0.94697
3565.40237	0.94555
3563.34857	0.94456
3561.29476	0.94464
3559.24096	0.94491
3557.18716	0.94468
3555.13335	0.94389
3553.07955	0.94269
3551.02575	0.94158
3548.97195	0.94073
3546.91814	0.94001
3544.86434	0.93965
3542.81054	0.93962
3540.75673	0.93950
3538.70293	0.93906
3536.64913	0.93842
3534.59532	0.93773
3532.54152	0.93718
3530.48772	0.93678
3528.43391	0.93597
3526.38011	0.93483
3524.32631	0.93429
3522.27250	0.93471
3520.21870	0.93518
3518.16490	0.93515
3516.11109	0.93511
3514.05729	0.93475
3512.00349	0.93369
3509.94968	0.93280
3507.89588	0.93223
3505.84208	0.93149
3503.78827	0.93060
3501.73447	0.92963
3499.68067	0.92890
3497.62687	0.92862
3495.57306	0.92841
3493.51926	0.92842
3491.46546	0.92852
3489.41165	0.92794
3487.35785	0.92691
3485.30405	0.92627
3483.25024	0.92645
3481.19644	0.92657
3479.14264	0.92580
3477.08883	0.92499
3475.03503	0.92422
3472.98123	0.92315
3470.92742	0.92228
3468.87362	0.92189
3466.81982	0.92177
3464.76601	0.92156
3462.71221	0.92145
3460.65841	0.92143
3458.60460	0.92086
3456.55080	0.91990
3454.49700	0.91912
3452.44319	0.91847
3450.38939	0.91769
3448.33559	0.91708
3446.28178	0.91700
3444.22798	0.91696
3442.17418	0.91655
3440.12038	0.91606
3438.06657	0.91531
3436.01277	0.91447
3433.95897	0.91406
3431.90516	0.91354
3429.85136	0.91264
3427.79756	0.91186
3425.74375	0.91124
3423.68995	0.91055
3421.63615	0.91004
3419.58234	0.90996
3417.52854	0.90999
3415.47474	0.90979
3413.42093	0.90926
3411.36713	0.90889
3409.31333	0.90858
3407.25952	0.90793
3405.20572	0.90720
3403.15192	0.90628
3401.09811	0.90533
3399.04431	0.90510
3396.99051	0.90546
3394.93670	0.90553
3392.88290	0.90506
3390.82910	0.90454
3388.77529	0.90447
3386.72149	0.90468
3384.66769	0.90466
3382.61389	0.90429
3380.56008	0.90409
3378.50628	0.90424
3376.45248	0.90424
3374.39867	0.90416
3372.34487	0.90424
3370.29107	0.90415
3368.23726	0.90388
3366.18346	0.90390
3364.12966	0.90397
3362.07585	0.90362
3360.02205	0.90331
3357.96825	0.90326
3355.91444	0.90310
3353.86064	0.90273
3351.80684	0.90260
3349.75303	0.90285
3347.69923	0.90306
3345.64543	0.90331
3343.59162	0.90364
3341.53782	0.90373
3339.48402	0.90370
3337.43021	0.90383
3335.37641	0.90375
3333.32261	0.90335
3331.26881	0.90339
3329.21500	0.90375
3327.16120	0.90374
3325.10740	0.90351
3323.05359	0.90351
3320.99979	0.90375
3318.94599	0.90424
3316.89218	0.90476
3314.83838	0.90479
3312.78458	0.90450
3310.73077	0.90480
3308.67697	0.90562
3306.62317	0.90594
3304.56936	0.90582
3302.51556	0.90608
3300.46176	0.90619
3298.40795	0.90587
3296.35415	0.90578
3294.30035	0.90588
3292.24654	0.90608
3290.19274	0.90648
3288.13894	0.90666
3286.08513	0.90680
3284.03133	0.90724
3281.97753	0.90744
3279.92372	0.90752
3277.86992	0.90775
3275.81612	0.90768
3273.76232	0.90765
3271.70851	0.90794
3269.65471	0.90814
3267.60091	0.90854
3265.54710	0.90928
3263.49330	0.90935
3261.43950	0.90880
3259.38569	0.90876
3257.33189	0.90934
3255.27809	0.90974
3253.22428	0.90928
3251.17048	0.90869
3249.11668	0.90903
3247.06287	0.90976
3245.00907	0.90986
3242.95527	0.90970
3240.90146	0.90991
3238.84766	0.91059
3236.79386	0.91141
3234.74005	0.91175
3232.68625	0.91169
3230.63245	0.91189
3228.57864	0.91231
3226.52484	0.91240
3224.47104	0.91219
3222.41724	0.91215
3220.36343	0.91256
3218.30963	0.91352
3216.25583	0.91436
3214.20202	0.91464
3212.14822	0.91481
3210.09442	0.91513
3208.04061	0.91559
3205.98681	0.91642
3203.93301	0.91748
3201.87920	0.91806
3199.82540	0.91800
3197.77160	0.91781
3195.71779	0.91799
3193.66399	0.91855
3191.61019	0.91896
3189.55638	0.91941
3187.50258	0.92027
3185.44878	0.92132
3183.39497	0.92218
3181.34117	0.92249
3179.28737	0.92249
3177.23356	0.92261
3175.17976	0.92295
3173.12596	0.92348
3171.07215	0.92414
3169.01835	0.92474
3166.96455	0.92513
3164.91075	0.92547
3162.85694	0.92597
3160.80314	0.92670
3158.74934	0.92737
3156.69553	0.92767
3154.64173	0.92770
3152.58793	0.92774
3150.53412	0.92814
3148.48032	0.92904
3146.42652	0.93002
3144.37271	0.93075
3142.31891	0.93124
3140.26511	0.93186
3138.21130	0.93284
3136.15750	0.93372
3134.10370	0.93417
3132.04989	0.93420
3129.99609	0.93407
3127.94229	0.93406
3125.88848	0.93437
3123.83468	0.93531
3121.78088	0.93641
3119.72707	0.93690
3117.67327	0.93687
3115.61947	0.93711
3113.56566	0.93765
3111.51186	0.93793
3109.45806	0.93807
3107.40426	0.93829
3105.35045	0.93847
3103.29665	0.93856
3101.24285	0.93870
3099.18904	0.93897
3097.13524	0.93932
3095.08144	0.93979
3093.02763	0.94012
3090.97383	0.93957
3088.92003	0.93818
3086.86622	0.93702
3084.81242	0.93674
3082.75862	0.93708
3080.70481	0.93794
3078.65101	0.93914
3076.59721	0.94008
3074.54340	0.94059
3072.48960	0.94103
3070.43580	0.94121
3068.38199	0.94066
3066.32819	0.93969
3064.27439	0.93879
3062.22058	0.93798
3060.16678	0.93758
3058.11298	0.93817
3056.05918	0.93968
3054.00537	0.94141
3051.95157	0.94271
3049.89777	0.94360
3047.84396	0.94437
3045.79016	0.94495
3043.73636	0.94508
3041.68255	0.94508
3039.62875	0.94518
3037.57495	0.94490
3035.52114	0.94412
3033.46734	0.94258
3031.41354	0.93979
3029.35973	0.93641
3027.30593	0.93397
3025.25213	0.93352
3023.19832	0.93500
3021.14452	0.93772
3019.09072	0.94068
3017.03691	0.94323
3014.98311	0.94547
3012.92931	0.94751
3010.87550	0.94913
3008.82170	0.95016
3006.76790	0.95041
3004.71409	0.95008
3002.66029	0.94981
3000.60649	0.94982
2998.55269	0.95006
2996.49888	0.95067
2994.44508	0.95152
2992.39128	0.95240
2990.33747	0.95340
2988.28367	0.95411
2986.22987	0.95435
2984.17606	0.95451
2982.12226	0.95477
2980.06846	0.95499
2978.01465	0.95499
2975.96085	0.95492
2973.90705	0.95484
2971.85324	0.95471
2969.79944	0.95461
2967.74564	0.95439
2965.69183	0.95407
2963.63803	0.95380
2961.58423	0.95361
2959.53042	0.95364
2957.47662	0.95373
2955.42282	0.95342
2953.36901	0.95280
2951.31521	0.95198
2949.26141	0.95130
2947.20761	0.95121
2945.15380	0.95089
2943.10000	0.94968
2941.04620	0.94823
2938.99239	0.94685
2936.93859	0.94527
2934.88479	0.94346
2932.83098	0.94160
2930.77718	0.93980
2928.72338	0.93790
2926.66957	0.93598
2924.61577	0.93442
2922.56197	0.93344
2920.50816	0.93293
2918.45436	0.93278
2916.40056	0.93322
2914.34675	0.93438
2912.29295	0.93616
2910.23915	0.93801
2908.18534	0.93938
2906.13154	0.94045
2904.07774	0.94188
2902.02393	0.94362
2899.97013	0.94500
2897.91633	0.94596
2895.86252	0.94693
2893.80872	0.94817
2891.75492	0.94952
2889.70112	0.95071
2887.64731	0.95165
2885.59351	0.95234
2883.53971	0.95308
2881.48590	0.95411
2879.43210	0.95494
2877.37830	0.95506
2875.32449	0.95474
2873.27069	0.95466
2871.21689	0.95502
2869.16308	0.95566
2867.10928	0.95622
2865.05548	0.95594
2863.00167	0.95507
2860.94787	0.95455
2858.89407	0.95419
2856.84026	0.95333
2854.78646	0.95211
2852.73266	0.95130
2850.67885	0.95127
2848.62505	0.95173
2846.57125	0.95235
2844.51744	0.95303
2842.46364	0.95404
2840.40984	0.95555
2838.35603	0.95706
2836.30223	0.95840
2834.24843	0.95970
2832.19463	0.96067
2830.14082	0.96117
2828.08702	0.96155
2826.03322	0.96205
2823.97941	0.96254
2821.92561	0.96265
2819.87181	0.96272
2817.81800	0.96340
2815.76420	0.96411
2813.71040	0.96425
2811.65659	0.96419
2809.60279	0.96421
2807.54899	0.96428
2805.49518	0.96450
2803.44138	0.96471
2801.38758	0.96479
2799.33377	0.96478
2797.27997	0.96478
2795.22617	0.96503
2793.17236	0.96552
2791.11856	0.96599
2789.06476	0.96621
2787.01095	0.96596
2784.95715	0.96556
2782.90335	0.96572
2780.84955	0.96613
2778.79574	0.96627
2776.74194	0.96628
2774.68814	0.96646
2772.63433	0.96686
2770.58053	0.96699
2768.52673	0.96685
2766.47292	0.96693
2764.41912	0.96701
2762.36532	0.96684
2760.31151	0.96694
2758.25771	0.96732
2756.20391	0.96731
2754.15010	0.96712
2752.09630	0.96729
2750.04250	0.96754
2747.98869	0.96751
2745.93489	0.96750
2743.88109	0.96778
2741.82728	0.96804
2739.77348	0.96813
2737.71968	0.96820
2735.66587	0.96821
2733.61207	0.96817
2731.55827	0.96824
2729.50446	0.96823
2727.45066	0.96794
2725.39686	0.96778
2723.34306	0.96805
2721.28925	0.96846
2719.23545	0.96864
2717.18165	0.96875
2715.12784	0.96895
2713.07404	0.96876
2711.02024	0.96839
2708.96643	0.96854
2706.91263	0.96897
2704.85883	0.96925
2702.80502	0.96931
2700.75122	0.96896
2698.69742	0.96866
2696.64361	0.96885
2694.58981	0.96893
2692.53601	0.96876
2690.48220	0.96869
2688.42840	0.96868
2686.37460	0.96887
2684.32079	0.96921
2682.26699	0.96909
2680.21319	0.96854
2678.15938	0.96836
2676.10558	0.96856
2674.05178	0.96867
2671.99797	0.96887
2669.94417	0.96943
2667.89037	0.96998
2665.83657	0.97005
2663.78276	0.96984
2661.72896	0.96986
2659.67516	0.96999
2657.62135	0.96986
2655.56755	0.96961
2653.51375	0.96967
2651.45994	0.96979
2649.40614	0.96949
2647.35234	0.96907
2645.29853	0.96904
2643.24473	0.96942
2641.19093	0.96974
2639.13712	0.96975
2637.08332	0.96957
2635.02952	0.96926
2632.97571	0.96887
2630.92191	0.96869
2628.86811	0.96906
2626.81430	0.96963
2624.76050	0.96982
2622.70670	0.96989
2620.65289	0.97019
2618.59909	0.97062
2616.54529	0.97078
2614.49149	0.97032
2612.43768	0.96985
2610.38388	0.96993
2608.33008	0.97005
2606.27627	0.96983
2604.22247	0.96982
2602.16867	0.97026
2600.11486	0.97079
2598.06106	0.97107
2596.00726	0.97116
2593.95345	0.97130
2591.89965	0.97096
2589.84585	0.97016
2587.79204	0.96992
2585.73824	0.97005
2583.68444	0.97004
2581.63063	0.97037
2579.57683	0.97105
2577.52303	0.97118
2575.46922	0.97073
2573.41542	0.97104
2571.36162	0.97220
2569.30781	0.97267
2567.25401	0.97232
2565.20021	0.97188
2563.14640	0.97140
2561.09260	0.97081
2559.03880	0.97052
2556.98500	0.97097
2554.93119	0.97176
2552.87739	0.97224
2550.82359	0.97224
2548.76978	0.97211
2546.71598	0.97207
2544.66218	0.97189
2542.60837	0.97179
2540.55457	0.97177
2538.50077	0.97185
2536.44696	0.97237
2534.39316	0.97265
2532.33936	0.97244
2530.28555	0.97208
2528.23175	0.97189
2526.17795	0.97268
2524.12414	0.97372
2522.07034	0.97355
2520.01654	0.97263
2517.96273	0.97193
2515.90893	0.97160
2513.85513	0.97161
2511.80132	0.97188
2509.74752	0.97213
2507.69372	0.97231
2505.63992	0.97258
2503.58611	0.97289
2501.53231	0.97322
2499.47851	0.97315
2497.42470	0.97229
2495.37090	0.97137
2493.31710	0.97106
2491.26329	0.97121
2489.20949	0.97155
2487.15569	0.97195
2485.10188	0.97219
2483.04808	0.97199
2480.99428	0.97181
2478.94047	0.97219
2476.88667	0.97264
2474.83287	0.97279
2472.77906	0.97251
2470.72526	0.97184
2468.67146	0.97145
2466.61765	0.97175
2464.56385	0.97234
2462.51005	0.97280
2460.45624	0.97308
2458.40244	0.97351
2456.34864	0.97376
2454.29483	0.97317
2452.24103	0.97254
2450.18723	0.97216
2448.13343	0.97192
2446.07962	0.97241
2444.02582	0.97288
2441.97202	0.97267
2439.91821	0.97242
2437.86441	0.97229
2435.81061	0.97215
2433.75680	0.97196
2431.70300	0.97201
2429.64920	0.97230
2427.59539	0.97226
2425.54159	0.97220
2423.48779	0.97231
2421.43398	0.97207
2419.38018	0.97151
2417.32638	0.97118
2415.27257	0.97157
2413.21877	0.97224
2411.16497	0.97230
2409.11116	0.97226
2407.05736	0.97275
2405.00356	0.97307
2402.94975	0.97305
2400.89595	0.97285
2398.84215	0.97268
2396.78834	0.97300
2394.73454	0.97312
2392.68074	0.97270
2390.62694	0.97242
2388.57313	0.97255
2386.51933	0.97284
2384.46553	0.97287
2382.41172	0.97273
2380.35792	0.97287
2378.30412	0.97322
2376.25031	0.97307
2374.19651	0.97151
2372.14271	0.96944
2370.08890	0.96940
2368.03510	0.97133
2365.98130	0.97218
2363.92749	0.97130
2361.87369	0.97113
2359.81989	0.97184
2357.76608	0.97220
2355.71228	0.97200
2353.65848	0.97188
2351.60467	0.97214
2349.55087	0.97194
2347.49707	0.97127
2345.44326	0.97071
2343.38946	0.97090
2341.33566	0.97168
2339.28186	0.97174
2337.22805	0.97115
2335.17425	0.97066
2333.12045	0.97037
2331.06664	0.97008
2329.01284	0.96973
2326.95904	0.96941
2324.90523	0.96864
2322.85143	0.96793
2320.79763	0.96843
2318.74382	0.96939
2316.69002	0.96963
2314.63622	0.96964
2312.58241	0.97011
2310.52861	0.97045
2308.47481	0.97010
2306.42100	0.97016
2304.36720	0.97095
2302.31340	0.97124
2300.25959	0.97091
2298.20579	0.97113
2296.15199	0.97167
2294.09818	0.97136
2292.04438	0.97038
2289.99058	0.96957
2287.93677	0.96939
2285.88297	0.96966
2283.82917	0.97019
2281.77537	0.97106
2279.72156	0.97163
2277.66776	0.97175
2275.61396	0.97194
2273.56015	0.97179
2271.50635	0.97098
2269.45255	0.97022
2267.39874	0.97057
2265.34494	0.97230
2263.29114	0.97363
2261.23733	0.97310
2259.18353	0.97172
2257.12973	0.97159
2255.07592	0.97355
2253.02212	0.97509
2250.96832	0.97428
2248.91451	0.97312
2246.86071	0.97304
2244.80691	0.97315
2242.75310	0.97272
2240.69930	0.97220
2238.64550	0.97201
2236.59169	0.97195
2234.53789	0.97237
2232.48409	0.97305
2230.43029	0.97335
2228.37648	0.97332
2226.32268	0.97268
2224.26888	0.97186
2222.21507	0.97177
2220.16127	0.97243
2218.10747	0.97349
2216.05366	0.97476
2213.99986	0.97515
2211.94606	0.97327
2209.89225	0.97068
2207.83845	0.96974
2205.78465	0.97045
2203.73084	0.97175
2201.67704	0.97215
2199.62324	0.97172
2197.56943	0.97230
2195.51563	0.97382
2193.46183	0.97455
2191.40802	0.97338
2189.35422	0.97156
2187.30042	0.97119
2185.24661	0.97136
2183.19281	0.97119
2181.13901	0.97096
2179.08520	0.97112
2177.03140	0.97395
2174.97760	0.97768
2172.92380	0.97693
2170.86999	0.97332
2168.81619	0.97170
2166.76239	0.97251
2164.70858	0.97371
2162.65478	0.97395
2160.60098	0.97360
2158.54717	0.97398
2156.49337	0.97526
2154.43957	0.97473
2152.38576	0.97296
2150.33196	0.97359
2148.27816	0.97623
2146.22435	0.97776
2144.17055	0.97772
2142.11675	0.97716
2140.06294	0.97567
2138.00914	0.97426
2135.95534	0.97550
2133.90153	0.97840
2131.84773	0.97879
2129.79393	0.97652
2127.74012	0.97511
2125.68632	0.97543
2123.63252	0.97543
2121.57871	0.97448
2119.52491	0.97385
2117.47111	0.97405
2115.41731	0.97491
2113.36350	0.97505
2111.30970	0.97346
2109.25590	0.97251
2107.20209	0.97360
2105.14829	0.97427
2103.09449	0.97340
2101.04068	0.97320
2098.98688	0.97415
2096.93308	0.97441
2094.87927	0.97386
2092.82547	0.97325
2090.77167	0.97283
2088.71786	0.97307
2086.66406	0.97369
2084.61026	0.97362
2082.55645	0.97253
2080.50265	0.97178
2078.44885	0.97242
2076.39504	0.97351
2074.34124	0.97421
2072.28744	0.97428
2070.23363	0.97338
2068.17983	0.97247
2066.12603	0.97244
2064.07223	0.97293
2062.01842	0.97371
2059.96462	0.97439
2057.91082	0.97442
2055.85701	0.97386
2053.80321	0.97308
2051.74941	0.97240
2049.69560	0.97228
2047.64180	0.97170
2045.58800	0.97006
2043.53419	0.97068
2041.48039	0.97344
2039.42659	0.97389
2037.37278	0.97271
2035.31898	0.97351
2033.26518	0.97526
2031.21137	0.97504
2029.15757	0.97508
2027.10377	0.97685
2025.04996	0.97669
2022.99616	0.97540
2020.94236	0.97660
2018.88855	0.97759
2016.83475	0.97642
2014.78095	0.97579
2012.72714	0.97592
2010.67334	0.97561
2008.61954	0.97593
2006.56574	0.97754
2004.51193	0.97893
2002.45813	0.97918
2000.40433	0.97846
1998.35052	0.97831
1996.29672	0.97885
1994.24292	0.97871
1992.18911	0.97852
1990.13531	0.97820
1988.08151	0.97704
1986.02770	0.97564
1983.97390	0.97393
1981.92010	0.97209
1979.86629	0.97165
1977.81249	0.97183
1975.75869	0.97228
1973.70488	0.97461
1971.65108	0.97614
1969.59728	0.97546
1967.54347	0.97507
1965.48967	0.97571
1963.43587	0.97569
1961.38206	0.97491
1959.32826	0.97518
1957.27446	0.97574
1955.22066	0.97476
1953.16685	0.97315
1951.11305	0.97282
1949.05925	0.97388
1947.00544	0.97479
1944.95164	0.97434
1942.89784	0.97307
1940.84403	0.97308
1938.79023	0.97456
1936.73643	0.97538
1934.68262	0.97532
1932.62882	0.97550
1930.57502	0.97547
1928.52121	0.97456
1926.46741	0.97318
1924.41361	0.97299
1922.35980	0.97438
1920.30600	0.97432
1918.25220	0.97297
1916.19839	0.97389
1914.14459	0.97607
1912.09079	0.97647
1910.03698	0.97521
1907.98318	0.97431
1905.92938	0.97454
1903.87557	0.97499
1901.82177	0.97539
1899.76797	0.97570
1897.71417	0.97595
1895.66036	0.97639
1893.60656	0.97608
1891.55276	0.97496
1889.49895	0.97416
1887.44515	0.97352
1885.39135	0.97270
1883.33754	0.97225
1881.28374	0.97224
1879.22994	0.97194
1877.17613	0.97142
1875.12233	0.97133
1873.06853	0.97183
1871.01472	0.97268
1868.96092	0.97299
1866.90712	0.97251
1864.85331	0.97229
1862.79951	0.97250
1860.74571	0.97267
1858.69190	0.97318
1856.63810	0.97423
1854.58430	0.97463
1852.53049	0.97402
1850.47669	0.97352
1848.42289	0.97377
1846.36908	0.97413
1844.31528	0.97414
1842.26148	0.97424
1840.20768	0.97435
1838.15387	0.97408
1836.10007	0.97374
1834.04627	0.97396
1831.99246	0.97467
1829.93866	0.97515
1827.88486	0.97488
1825.83105	0.97419
1823.77725	0.97337
1821.72345	0.97296
1819.66964	0.97339
1817.61584	0.97399
1815.56204	0.97393
1813.50823	0.97353
1811.45443	0.97308
1809.40063	0.97252
1807.34682	0.97233
1805.29302	0.97246
1803.23922	0.97257
1801.18541	0.97281
1799.13161	0.97284
1797.07781	0.97235
1795.02400	0.97197
1792.97020	0.97237
1790.91640	0.97315
1788.86260	0.97313
1786.80879	0.97269
1784.75499	0.97270
1782.70119	0.97300
1780.64738	0.97335
1778.59358	0.97358
1776.53978	0.97337
1774.48597	0.97278
1772.43217	0.97236
1770.37837	0.97265
1768.32456	0.97293
1766.27076	0.97250
1764.21696	0.97201
1762.16315	0.97205
1760.10935	0.97211
1758.05555	0.97186
1756.00174	0.97144
1753.94794	0.97115
1751.89414	0.97101
1749.84033	0.97054
1747.78653	0.96982
1745.73273	0.96951
1743.67892	0.96956
1741.62512	0.96962
1739.57132	0.96934
1737.51751	0.96874
1735.46371	0.96868
1733.40991	0.96903
1731.35611	0.96843
1729.30230	0.96761
1727.24850	0.96738
1725.19470	0.96728
1723.14089	0.96664
1721.08709	0.96578
1719.03329	0.96556
1716.97948	0.96605
1714.92568	0.96597
1712.87188	0.96510
1710.81807	0.96399
1708.76427	0.96306
1706.71047	0.96237
1704.65666	0.96163
1702.60286	0.96085
1700.54906	0.95974
1698.49525	0.95787
1696.44145	0.95568
1694.38765	0.95340
1692.33384	0.95139
1690.28004	0.94913
1688.22624	0.94660
1686.17243	0.94452
1684.11863	0.94245
1682.06483	0.94028
1680.01103	0.93841
1677.95722	0.93676
1675.90342	0.93514
1673.84962	0.93322
1671.79581	0.93130
1669.74201	0.92978
1667.68821	0.92857
1665.63440	0.92721
1663.58060	0.92565
1661.52680	0.92412
1659.47299	0.92271
1657.41919	0.92136
1655.36539	0.92031
1653.31158	0.92008
1651.25778	0.91970
1649.20398	0.91865
1647.15017	0.91771
1645.09637	0.91736
1643.04257	0.91722
1640.98876	0.91691
1638.93496	0.91652
1636.88116	0.91657
1634.82735	0.91774
1632.77355	0.91888
1630.71975	0.91935
1628.66594	0.91979
1626.61214	0.92056
1624.55834	0.92163
1622.50454	0.92292
1620.45073	0.92397
1618.39693	0.92505
1616.34313	0.92665
1614.28932	0.92786
1612.23552	0.92860
1610.18172	0.92927
1608.12791	0.92925
1606.07411	0.92791
1604.02031	0.92571
1601.96650	0.92421
1599.91270	0.92481
1597.85890	0.92753
1595.80509	0.93141
1593.75129	0.93479
1591.69749	0.93694
1589.64368	0.93857
1587.58988	0.93954
1585.53608	0.93934
1583.48227	0.93887
1581.42847	0.93948
1579.37467	0.94108
1577.32086	0.94314
1575.26706	0.94472
1573.21326	0.94510
1571.15945	0.94526
1569.10565	0.94549
1567.05185	0.94543
1564.99805	0.94524
1562.94424	0.94501
1560.89044	0.94466
1558.83664	0.94491
1556.78283	0.94539
1554.72903	0.94495
1552.67523	0.94449
1550.62142	0.94448
1548.56762	0.94451
1546.51382	0.94440
1544.46001	0.94445
1542.40621	0.94496
1540.35241	0.94624
1538.29860	0.94703
1536.24480	0.94691
1534.19100	0.94708
1532.13719	0.94774
1530.08339	0.94845
1528.02959	0.94918
1525.97578	0.94978
1523.92198	0.95021
1521.86818	0.95085
1519.81437	0.95182
1517.76057	0.95274
1515.70677	0.95336
1513.65297	0.95393
1511.59916	0.95484
1509.54536	0.95615
1507.49156	0.95791
1505.43775	0.95886
1503.38395	0.95820
1501.33015	0.95670
1499.27634	0.95329
1497.22254	0.94460
1495.16874	0.93149
1493.11493	0.92304
1491.06113	0.92437
1489.00733	0.93468
1486.95352	0.94441
1484.89972	0.94980
1482.84592	0.95298
1480.79211	0.95466
1478.73831	0.95532
1476.68451	0.95569
1474.63070	0.95577
1472.57690	0.95568
1470.52310	0.95572
1468.46929	0.95530
1466.41549	0.95429
1464.36169	0.95336
1462.30788	0.95295
1460.25408	0.95193
1458.20028	0.94729
1456.14648	0.93509
1454.09267	0.92303
1452.03887	0.91698
1449.98507	0.91759
1447.93126	0.92282
1445.87746	0.92818
1443.82366	0.93194
1441.76985	0.93500
1439.71605	0.93774
1437.66225	0.94030
1435.60844	0.94260
1433.55464	0.94414
1431.50084	0.94540
1429.44703	0.94674
1427.39323	0.94769
1425.33943	0.94834
1423.28562	0.94897
1421.23182	0.94931
1419.17802	0.94949
1417.12421	0.94972
1415.07041	0.94998
1413.01661	0.95029
1410.96280	0.95039
1408.90900	0.95040
1406.85520	0.95078
1404.80139	0.95155
1402.74759	0.95220
1400.69379	0.95252
1398.63999	0.95285
1396.58618	0.95331
1394.53238	0.95356
1392.47858	0.95347
1390.42477	0.95309
1388.37097	0.95266
1386.31717	0.95218
1384.26336	0.95158
1382.20956	0.95120
1380.15576	0.95087
1378.10195	0.95025
1376.04815	0.94975
1373.99435	0.94964
1371.94054	0.94964
1369.88674	0.94981
1367.83294	0.95008
1365.77913	0.95023
1363.72533	0.95054
1361.67153	0.95127
1359.61772	0.95174
1357.56392	0.95198
1355.51012	0.95268
1353.45631	0.95319
1351.40251	0.95312
1349.34871	0.95314
1347.29491	0.95342
1345.24110	0.95356
1343.18730	0.95345
1341.13350	0.95350
1339.07969	0.95387
1337.02589	0.95406
1334.97209	0.95375
1332.91828	0.95328
1330.86448	0.95295
1328.81068	0.95258
1326.75687	0.95231
1324.70307	0.95261
1322.64927	0.95311
1320.59546	0.95339
1318.54166	0.95363
1316.48786	0.95370
1314.43405	0.95360
1312.38025	0.95352
1310.32645	0.95344
1308.27264	0.95357
1306.21884	0.95394
1304.16504	0.95418
1302.11123	0.95406
1300.05743	0.95393
1298.00363	0.95408
1295.94982	0.95422
1293.89602	0.95416
1291.84222	0.95397
1289.78842	0.95365
1287.73461	0.95320
1285.68081	0.95298
1283.62701	0.95308
1281.57320	0.95311
1279.51940	0.95298
1277.46560	0.95278
1275.41179	0.95256
1273.35799	0.95235
1271.30419	0.95210
1269.25038	0.95186
1267.19658	0.95160
1265.14278	0.95131
1263.08897	0.95126
1261.03517	0.95138
1258.98137	0.95101
1256.92756	0.95036
1254.87376	0.94990
1252.81996	0.94950
1250.76615	0.94925
1248.71235	0.94914
1246.65855	0.94892
1244.60474	0.94864
1242.55094	0.94844
1240.49714	0.94828
1238.44334	0.94793
1236.38953	0.94750
1234.33573	0.94713
1232.28193	0.94671
1230.22812	0.94629
1228.17432	0.94595
1226.12052	0.94562
1224.06671	0.94518
1222.01291	0.94457
1219.95911	0.94386
1217.90530	0.94317
1215.85150	0.94245
1213.79770	0.94175
1211.74389	0.94098
1209.69009	0.93982
1207.63629	0.93829
1205.58248	0.93682
1203.52868	0.93546
1201.47488	0.93378
1199.42107	0.93185
1197.36727	0.93020
1195.31347	0.92876
1193.25966	0.92720
1191.20586	0.92529
1189.15206	0.92297
1187.09825	0.92054
1185.04445	0.91813
1182.99065	0.91546
1180.93685	0.91252
1178.88304	0.90980
1176.82924	0.90778
1174.77544	0.90614
1172.72163	0.90412
1170.66783	0.90143
1168.61403	0.89859
1166.56022	0.89614
1164.50642	0.89410
1162.45262	0.89229
1160.39881	0.89062
1158.34501	0.88894
1156.29121	0.88681
1154.23740	0.88450
1152.18360	0.88276
1150.12980	0.88138
1148.07599	0.87990
1146.02219	0.87847
1143.96839	0.87706
1141.91458	0.87548
1139.86078	0.87378
1137.80698	0.87204
1135.75317	0.87022
1133.69937	0.86827
1131.64557	0.86630
1129.59176	0.86430
1127.53796	0.86217
1125.48416	0.85989
1123.43036	0.85724
1121.37655	0.85418
1119.32275	0.85079
1117.26895	0.84699
1115.21514	0.84329
1113.16134	0.84027
1111.10754	0.83769
1109.05373	0.83517
1106.99993	0.83254
1104.94613	0.82978
1102.89232	0.82717
1100.83852	0.82498
1098.78472	0.82347
1096.73091	0.82256
1094.67711	0.82163
1092.62331	0.82051
1090.56950	0.81946
1088.51570	0.81845
1086.46190	0.81766
1084.40809	0.81744
1082.35429	0.81758
1080.30049	0.81758
1078.24668	0.81713
1076.19288	0.81635
1074.13908	0.81566
1072.08528	0.81509
1070.03147	0.81417
1067.97767	0.81290
1065.92387	0.81158
1063.87006	0.81018
1061.81626	0.80862
1059.76246	0.80680
1057.70865	0.80454
1055.65485	0.80198
1053.60105	0.79912
1051.54724	0.79592
1049.49344	0.79240
1047.43964	0.78855
1045.38583	0.78467
1043.33203	0.78081
1041.27823	0.77665
1039.22442	0.77246
1037.17062	0.76847
1035.11682	0.76418
1033.06301	0.75955
1031.00921	0.75558
1028.95541	0.75296
1026.90160	0.75212
1024.84780	0.75315
1022.79400	0.75512
1020.74019	0.75698
1018.68639	0.75797
1016.63259	0.75800
1014.57879	0.75752
1012.52498	0.75658
1010.47118	0.75481
1008.41738	0.75259
1006.36357	0.75091
1004.30977	0.75025
1002.25597	0.75083
1000.20216	0.75289
998.14836	0.75603
996.09456	0.75957
994.04075	0.76340
991.98695	0.76763
989.93315	0.77194
987.87934	0.77610
985.82554	0.78037
983.77174	0.78496
981.71793	0.78959
979.66413	0.79421
977.61033	0.79914
975.55652	0.80432
973.50272	0.80939
971.44892	0.81425
969.39511	0.81885
967.34131	0.82282
965.28751	0.82631
963.23371	0.82996
961.17990	0.83379
959.12610	0.83759
957.07230	0.84119
955.01849	0.84434
952.96469	0.84725
950.91089	0.85013
948.85708	0.85219
946.80328	0.85295
944.74948	0.85327
942.69567	0.85405
940.64187	0.85550
938.58807	0.85725
936.53426	0.85864
934.48046	0.85946
932.42666	0.86027
930.37285	0.86143
928.31905	0.86240
926.26525	0.86266
924.21144	0.86227
922.15764	0.86136
920.10384	0.86002
918.05003	0.85835
915.99623	0.85633
913.94243	0.85408
911.88862	0.85217
909.83482	0.85162
907.78102	0.85316
905.72722	0.85635
903.67341	0.86029
901.61961	0.86501
899.56581	0.87054
897.51200	0.87562
895.45820	0.87928
893.40440	0.88180
891.35059	0.88376
889.29679	0.88569
887.24299	0.88772
885.18918	0.88957
883.13538	0.89091
881.08158	0.89184
879.02777	0.89282
876.97397	0.89396
874.92017	0.89518
872.86636	0.89672
870.81256	0.89865
868.75876	0.90051
866.70495	0.90205
864.65115	0.90329
862.59735	0.90469
860.54354	0.90638
858.48974	0.90751
856.43594	0.90791
854.38213	0.90805
852.32833	0.90841
850.27453	0.90899
848.22073	0.90914
846.16692	0.90845
844.11312	0.90742
842.05932	0.90700
840.00551	0.90735
837.95171	0.90754
835.89791	0.90739
833.84410	0.90755
831.79030	0.90778
829.73650	0.90809
827.68269	0.90860
825.62889	0.90860
823.57509	0.90834
821.52128	0.90842
819.46748	0.90848
817.41368	0.90789
815.35987	0.90701
813.30607	0.90621
811.25227	0.90480
809.19846	0.90258
807.14466	0.89940
805.09086	0.89483
803.03705	0.88922
800.98325	0.88422
798.92945	0.88143
796.87565	0.88043
794.82184	0.88024
792.76804	0.88038
790.71424	0.88029
788.66043	0.88007
786.60663	0.87984
784.55283	0.87848
782.49902	0.87544
780.44522	0.87212
778.39142	0.86990
776.33761	0.86869
774.28381	0.86700
772.23001	0.86387
770.17620	0.86013
768.12240	0.85644
766.06860	0.85250
764.01479	0.84786
761.96099	0.84261
759.90719	0.83754
757.85338	0.83347
755.79958	0.83062
753.74578	0.82895
751.69197	0.82812
749.63817	0.82746
747.58437	0.82737
745.53056	0.82936
743.47676	0.83355
741.42296	0.83881
739.36916	0.84436
737.31535	0.84940
735.26155	0.85350
733.20775	0.85699
731.15394	0.86014
729.10014	0.86317
727.04634	0.86648
724.99253	0.86956
722.93873	0.87132
720.88493	0.87233
718.83112	0.87350
716.77732	0.87430
714.72352	0.87446
712.66971	0.87371
710.61591	0.87036
708.56211	0.86244
706.50830	0.84833
704.45450	0.82711
702.40070	0.79950
700.34689	0.76749
698.29309	0.73624
696.23929	0.71729
694.18548	0.72035
692.13168	0.74057
690.07788	0.76461
688.02408	0.78387
685.97027	0.79687
683.91647	0.80572
681.86267	0.81205
679.80886	0.81616
677.75506	0.81871
675.70126	0.82080
673.64745	0.82276
671.59365	0.82447
669.53985	0.82627
667.48604	0.82803
665.43224	0.82947
663.37844	0.83103
661.32463	0.83169
659.27083	0.83088
657.21703	0.83011
655.16322	0.83015
653.10942	0.83001
651.05562	0.82972
649.00181	0.82993
646.94801	0.82968
644.89421	0.82858
642.84040	0.82800
640.78660	0.82875
638.73280	0.82994
636.67899	0.83026
634.62519	0.82931
632.57139	0.82885
630.51759	0.83006
628.46378	0.83116
626.40998	0.83116
624.35618	0.83082
622.30237	0.83011
620.24857	0.82832
618.19477	0.82552
616.14096	0.82285
614.08716	0.82129
612.03336	0.82028
609.97955	0.81902
607.92575	0.81738
605.87195	0.81520
603.81814	0.81330
601.76434	0.81207
599.71054	0.81018
597.65673	0.80732
595.60293	0.80413
593.54913	0.80204
591.49532	0.80206
589.44152	0.80208
587.38772	0.80134
585.33391	0.80190
583.28011	0.80302
581.22631	0.80224
579.17250	0.80046
577.11870	0.79958
575.06490	0.79952
573.01110	0.79967
570.95729	0.79848
568.90349	0.79515
566.84969	0.79212
564.79588	0.79072
562.74208	0.78940
560.68828	0.78724
558.63447	0.78443
556.58067	0.78135
554.52687	0.77824
552.47306	0.77471
550.41926	0.77087
548.36546	0.76664
546.31165	0.76051
544.25785	0.75282
542.20405	0.74589
540.15024	0.74014
538.09644	0.73461
536.04264	0.72985
533.98883	0.72753
531.93503	0.72768
529.88123	0.72932
527.82742	0.73302
525.77362	0.73798
523.71982	0.74123
521.66602	0.74262
519.61221	0.74305
517.55841	0.74402
515.50461	0.74707
513.45080	0.74986
511.39700	0.75073
509.34320	0.75207
507.28939	0.75577
505.23559	0.75994
503.18179	0.76397
501.12798	0.76781
499.07418	0.76873
497.02038	0.76739
494.96657	0.76636
492.91277	0.76517
490.85897	0.76337
488.80516	0.76183
486.75136	0.75961
484.69756	0.75630
482.64375	0.75201
480.58995	0.74512
478.53615	0.73686
476.48234	0.72932
474.42854	0.72118
472.37474	0.71222
470.32093	0.70396
468.26713	0.69659
466.21333	0.69304
464.15953	0.69483
462.10572	0.69727
460.05192	0.69772
457.99812	0.69964
455.94431	0.70309
453.89051	0.70323
451.83671	0.70226
449.78290	0.70283
447.72910	0.70438
445.67530	0.70858
443.62149	0.71087
441.56769	0.70614
439.51389	0.70178
437.46008	0.70171
435.40628	0.70116
433.35248	0.69848
431.29867	0.69707
429.24487	0.69768
427.19107	0.69880
425.13726	0.69817
423.08346	0.69493
421.02966	0.69344
418.97585	0.69432
416.92205	0.69443
414.86825	0.69541
412.81445	0.69929
410.76064	0.70469
408.70684	0.70833
406.65304	0.71022
404.59923	0.71097
402.54543	0.70705
400.49163	0.69861
398.43782	0.69912
