3996.70104	0.97354
3994.64724	0.97360
3992.59344	0.97308
3990.53964	0.97278
3988.48583	0.97255
3986.43203	0.97232
3984.37823	0.97268
3982.32442	0.97315
3980.27062	0.97324
3978.21682	0.97295
3976.16301	0.97264
3974.10921	0.97283
3972.05541	0.97307
3970.00160	0.97287
3967.94780	0.97248
3965.89400	0.97217
3963.84019	0.97185
3961.78639	0.97170
3959.73259	0.97210
3957.67878	0.97250
3955.62498	0.97258
3953.57118	0.97287
3951.51737	0.97321
3949.46357	0.97336
3947.40977	0.97371
3945.35596	0.97411
3943.30216	0.97442
3941.24836	0.97448
3939.19455	0.97380
3937.14075	0.97276
3935.08695	0.97224
3933.03315	0.97265
3930.97934	0.97343
3928.92554	0.97360
3926.87174	0.97311
3924.81793	0.97275
3922.76413	0.97288
3920.71033	0.97303
3918.65652	0.97299
3916.60272	0.97291
3914.54892	0.97298
3912.49511	0.97306
3910.44131	0.97301
3908.38751	0.97309
3906.33370	0.97335
3904.27990	0.97352
3902.22610	0.97376
3900.17229	0.97414
3898.11849	0.97381
3896.06469	0.97324
3894.01088	0.97338
3891.95708	0.97351
3889.90328	0.97313
3887.84947	0.97321
3885.79567	0.97365
3883.74187	0.97368
3881.68807	0.97331
3879.63426	0.97310
3877.58046	0.97302
3875.52666	0.97276
3873.47285	0.97244
3871.41905	0.97248
3869.36525	0.97313
3867.31144	0.97338
3865.25764	0.97318
3863.20384	0.97323
3861.15003	0.97318
3859.09623	0.97312
3857.04243	0.97330
3854.98862	0.97350
3852.93482	0.97378
3850.88102	0.97392
3848.82721	0.97368
3846.77341	0.97337
3844.71961	0.97289
3842.66580	0.97255
3840.61200	0.97296
3838.55820	0.97316
3836.50439	0.97274
3834.45059	0.97277
3832.39679	0.97309
3830.34298	0.97300
3828.28918	0.97259
3826.23538	0.97275
3824.18158	0.97372
3822.12777	0.97483
3820.07397	0.97534
3818.02017	0.97481
3815.96636	0.97391
3813.91256	0.97377
3811.85876	0.97411
3809.80495	0.97432
3807.75115	0.97445
3805.69735	0.97444
3803.64354	0.97432
3801.58974	0.97473
3799.53594	0.97515
3797.48213	0.97428
3795.42833	0.97312
3793.37453	0.97305
3791.32072	0.97333
3789.26692	0.97362
3787.21312	0.97436
3785.15931	0.97500
3783.10551	0.97432
3781.05171	0.97276
3778.99790	0.97233
3776.94410	0.97312
3774.89030	0.97361
3772.83650	0.97363
3770.78269	0.97360
3768.72889	0.97392
3766.67509	0.97441
3764.62128	0.97437
3762.56748	0.97392
3760.51368	0.97392
3758.45987	0.97468
3756.40607	0.97516
3754.35227	0.97468
3752.29846	0.97399
3750.24466	0.97388
3748.19086	0.97357
3746.13705	0.97301
3744.08325	0.97318
3742.02945	0.97359
3739.97564	0.97352
3737.92184	0.97368
3735.86804	0.97442
3733.81423	0.97433
3731.76043	0.97312
3729.70663	0.97250
3727.65282	0.97231
3725.59902	0.97177
3723.54522	0.97102
3721.49141	0.97032
3719.43761	0.96967
3717.38381	0.96862
3715.33001	0.96657
3713.27620	0.96297
3711.22240	0.95762
3709.16860	0.95257
3707.11479	0.94821
3705.06099	0.94376
3703.00719	0.93928
3700.95338	0.93487
3698.89958	0.93141
3696.84578	0.92972
3694.79197	0.92985
3692.73817	0.93099
3690.68437	0.93331
3688.63056	0.93825
3686.57676	0.94252
3684.52296	0.94396
3682.46915	0.94445
3680.41535	0.94473
3678.36155	0.94437
3676.30774	0.94327
3674.25394	0.94302
3672.20014	0.94409
3670.14633	0.94381
3668.09253	0.94169
3666.03873	0.94022
3663.98492	0.93917
3661.93112	0.93793
3659.87732	0.93685
3657.82352	0.93621
3655.76971	0.93589
3653.71591	0.93551
3651.66211	0.93456
3649.60830	0.93249
3647.55450	0.93129
3645.50070	0.93163
3643.44689	0.93169
3641.39309	0.93124
3639.33929	0.93041
3637.28548	0.92919
3635.23168	0.92771
3633.17788	0.92604
3631.12407	0.92415
3629.07027	0.92189
3627.01647	0.91949
3624.96266	0.91747
3622.90886	0.91594
3620.85506	0.91545
3618.80125	0.91633
3616.74745	0.91792
3614.69365	0.91961
3612.63984	0.92137
3610.58604	0.92276
3608.53224	0.92324
3606.47844	0.92272
3604.42463	0.92205
3602.37083	0.92191
3600.31703	0.92222
3598.26322	0.92220
3596.20942	0.92169
3594.15562	0.92133
3592.10181	0.92136
3590.04801	0.92128
3587.99421	0.92075
3585.94040	0.92043
3583.88660	0.92041
3581.83280	0.92012
3579.77899	0.91964
3577.72519	0.91899
3575.67139	0.91810
3573.61758	0.91747
3571.56378	0.91736
3569.50998	0.91685
3567.45617	0.91566
3565.40237	0.91490
3563.34857	0.91425
3561.29476	0.91339
3559.24096	0.91258
3557.18716	0.91170
3555.13335	0.91075
3553.07955	0.90993
3551.02575	0.90955
3548.97195	0.90921
3546.91814	0.90851
3544.86434	0.90793
3542.81054	0.90737
3540.75673	0.90663
3538.70293	0.90626
3536.64913	0.90639
3534.59532	0.90600
3532.54152	0.90518
3530.48772	0.90493
3528.43391	0.90492
3526.38011	0.90474
3524.32631	0.90511
3522.27250	0.90590
3520.21870	0.90595
3518.16490	0.90552
3516.11109	0.90560
3514.05729	0.90611
3512.00349	0.90631
3509.94968	0.90633
3507.89588	0.90654
3505.84208	0.90647
3503.78827	0.90598
3501.73447	0.90534
3499.68067	0.90510
3497.62687	0.90541
3495.57306	0.90539
3493.51926	0.90497
3491.46546	0.90473
3489.41165	0.90434
3487.35785	0.90358
3485.30405	0.90299
3483.25024	0.90282
3481.19644	0.90269
3479.14264	0.90254
3477.08883	0.90234
3475.03503	0.90193
3472.98123	0.90156
3470.92742	0.90136
3468.87362	0.90113
3466.81982	0.90079
3464.76601	0.90026
3462.71221	0.89968
3460.65841	0.89929
3458.60460	0.89883
3456.55080	0.89784
3454.49700	0.89676
3452.44319	0.89620
3450.38939	0.89620
3448.33559	0.89653
3446.28178	0.89684
3444.22798	0.89668
3442.17418	0.89573
3440.12038	0.89438
3438.06657	0.89338
3436.01277	0.89274
3433.95897	0.89204
3431.90516	0.89140
3429.85136	0.89120
3427.79756	0.89118
3425.74375	0.89107
3423.68995	0.89092
3421.63615	0.89040
3419.58234	0.88936
3417.52854	0.88828
3415.47474	0.88739
3413.42093	0.88636
3411.36713	0.88522
3409.31333	0.88435
3407.25952	0.88384
3405.20572	0.88369
3403.15192	0.88378
3401.09811	0.88363
3399.04431	0.88339
3396.99051	0.88331
3394.93670	0.88303
3392.88290	0.88262
3390.82910	0.88264
3388.77529	0.88304
3386.72149	0.88367
3384.66769	0.88467
3382.61389	0.88582
3380.56008	0.88664
3378.50628	0.88689
3376.45248	0.88671
3374.39867	0.88668
3372.34487	0.88715
3370.29107	0.88761
3368.23726	0.88776
3366.18346	0.88792
3364.12966	0.88813
3362.07585	0.88809
3360.02205	0.88778
3357.96825	0.88756
3355.91444	0.88780
3353.86064	0.88837
3351.80684	0.88898
3349.75303	0.88941
3347.69923	0.88964
3345.64543	0.88986
3343.59162	0.88996
3341.53782	0.88977
3339.48402	0.88981
3337.43021	0.89051
3335.37641	0.89141
3333.32261	0.89179
3331.26881	0.89188
3329.21500	0.89203
3327.16120	0.89181
3325.10740	0.89133
3323.05359	0.89139
3320.99979	0.89210
3318.94599	0.89292
3316.89218	0.89330
3314.83838	0.89313
3312.78458	0.89285
3310.73077	0.89303
3308.67697	0.89380
3306.62317	0.89458
3304.56936	0.89479
3302.51556	0.89457
3300.46176	0.89444
3298.40795	0.89466
3296.35415	0.89498
3294.30035	0.89515
3292.24654	0.89524
3290.19274	0.89539
3288.13894	0.89557
3286.08513	0.89570
3284.03133	0.89588
3281.97753	0.89645
3279.92372	0.89712
3277.86992	0.89723
3275.81612	0.89710
3273.76232	0.89741
3271.70851	0.89777
3269.65471	0.89793
3267.60091	0.89823
3265.54710	0.89868
3263.49330	0.89939
3261.43950	0.90008
3259.38569	0.90035
3257.33189	0.90088
3255.27809	0.90181
3253.22428	0.90197
3251.17048	0.90162
3249.11668	0.90194
3247.06287	0.90258
3245.00907	0.90320
3242.95527	0.90398
3240.90146	0.90455
3238.84766	0.90507
3236.79386	0.90590
3234.74005	0.90648
3232.68625	0.90655
3230.63245	0.90652
3228.57864	0.90650
3226.52484	0.90667
3224.47104	0.90730
3222.41724	0.90780
3220.36343	0.90782
3218.30963	0.90813
3216.25583	0.90854
3214.20202	0.90870
3212.14822	0.90945
3210.09442	0.91072
3208.04061	0.91172
3205.98681	0.91246
3203.93301	0.91301
3201.87920	0.91325
3199.82540	0.91359
3197.77160	0.91420
3195.71779	0.91469
3193.66399	0.91513
3191.61019	0.91581
3189.55638	0.91633
3187.50258	0.91652
3185.44878	0.91705
3183.39497	0.91788
3181.34117	0.91864
3179.28737	0.91906
3177.23356	0.91895
3175.17976	0.91932
3173.12596	0.92078
3171.07215	0.92210
3169.01835	0.92258
3166.96455	0.92283
3164.91075	0.92339
3162.85694	0.92389
3160.80314	0.92384
3158.74934	0.92378
3156.69553	0.92423
3154.64173	0.92495
3152.58793	0.92597
3150.53412	0.92696
3148.48032	0.92753
3146.42652	0.92823
3144.37271	0.92910
3142.31891	0.92947
3140.26511	0.92928
3138.21130	0.92933
3136.15750	0.93015
3134.10370	0.93111
3132.04989	0.93158
3129.99609	0.93186
3127.94229	0.93237
3125.88848	0.93288
3123.83468	0.93334
3121.78088	0.93377
3119.72707	0.93389
3117.67327	0.93403
3115.61947	0.93462
3113.56566	0.93529
3111.51186	0.93555
3109.45806	0.93539
3107.40426	0.93535
3105.35045	0.93581
3103.29665	0.93632
3101.24285	0.93645
3099.18904	0.93631
3097.13524	0.93632
3095.08144	0.93656
3093.02763	0.93689
3090.97383	0.93725
3088.92003	0.93741
3086.86622	0.93754
3084.81242	0.93802
3082.75862	0.93873
3080.70481	0.93931
3078.65101	0.93981
3076.59721	0.94003
3074.54340	0.93980
3072.48960	0.93967
3070.43580	0.93997
3068.38199	0.94040
3066.32819	0.94063
3064.27439	0.94073
3062.22058	0.94082
3060.16678	0.94111
3058.11298	0.94146
3056.05918	0.94175
3054.00537	0.94220
3051.95157	0.94261
3049.89777	0.94291
3047.84396	0.94319
3045.79016	0.94336
3043.73636	0.94371
3041.68255	0.94451
3039.62875	0.94506
3037.57495	0.94485
3035.52114	0.94467
3033.46734	0.94484
3031.41354	0.94503
3029.35973	0.94533
3027.30593	0.94583
3025.25213	0.94622
3023.19832	0.94618
3021.14452	0.94600
3019.09072	0.94601
3017.03691	0.94630
3014.98311	0.94701
3012.92931	0.94757
3010.87550	0.94734
3008.82170	0.94700
3006.76790	0.94721
3004.71409	0.94731
3002.66029	0.94698
3000.60649	0.94667
2998.55269	0.94630
2996.49888	0.94561
2994.44508	0.94469
2992.39128	0.94374
2990.33747	0.94321
2988.28367	0.94298
2986.22987	0.94227
2984.17606	0.94104
2982.12226	0.93940
2980.06846	0.93752
2978.01465	0.93606
2975.96085	0.93449
2973.90705	0.93175
2971.85324	0.92794
2969.79944	0.92383
2967.74564	0.91950
2965.69183	0.91474
2963.63803	0.90990
2961.58423	0.90548
2959.53042	0.90185
2957.47662	0.89900
2955.42282	0.89688
2953.36901	0.89583
2951.31521	0.89535
2949.26141	0.89414
2947.20761	0.89162
2945.15380	0.88744
2943.10000	0.88114
2941.04620	0.87255
2938.99239	0.86145
2936.93859	0.84750
2934.88479	0.83074
2932.83098	0.81153
2930.77718	0.78942
2928.72338	0.76353
2926.66957	0.73347
2924.61577	0.69877
2922.56197	0.65946
2920.50816	0.61781
2918.45436	0.57869
2916.40056	0.55031
2914.34675	0.54153
2912.29295	0.55428
2910.23915	0.58133
2908.18534	0.61295
2906.13154	0.64244
2904.07774	0.66725
2902.02393	0.68741
2899.97013	0.70380
2897.91633	0.71788
2895.86252	0.73096
2893.80872	0.74359
2891.75492	0.75631
2889.70112	0.76962
2887.64731	0.78315
2885.59351	0.79629
2883.53971	0.80908
2881.48590	0.82169
2879.43210	0.83396
2877.37830	0.84512
2875.32449	0.85417
2873.27069	0.86076
2871.21689	0.86542
2869.16308	0.86825
2867.10928	0.86857
2865.05548	0.86573
2863.00167	0.85861
2860.94787	0.84555
2858.89407	0.82488
2856.84026	0.79397
2854.78646	0.74949
2852.73266	0.69122
2850.67885	0.62907
2848.62505	0.58589
2846.57125	0.58178
2844.51744	0.61467
2842.46364	0.66556
2840.40984	0.71697
2838.35603	0.76075
2836.30223	0.79566
2834.24843	0.82301
2832.19463	0.84440
2830.14082	0.86126
2828.08702	0.87427
2826.03322	0.88425
2823.97941	0.89272
2821.92561	0.90023
2819.87181	0.90628
2817.81800	0.91087
2815.76420	0.91481
2813.71040	0.91855
2811.65659	0.92188
2809.60279	0.92482
2807.54899	0.92763
2805.49518	0.93011
2803.44138	0.93204
2801.38758	0.93369
2799.33377	0.93527
2797.27997	0.93682
2795.22617	0.93833
2793.17236	0.93992
2791.11856	0.94140
2789.06476	0.94269
2787.01095	0.94416
2784.95715	0.94555
2782.90335	0.94664
2780.84955	0.94750
2778.79574	0.94805
2776.74194	0.94864
2774.68814	0.94961
2772.63433	0.95067
2770.58053	0.95139
2768.52673	0.95210
2766.47292	0.95289
2764.41912	0.95308
2762.36532	0.95295
2760.31151	0.95335
2758.25771	0.95416
2756.20391	0.95500
2754.15010	0.95557
2752.09630	0.95575
2750.04250	0.95554
2747.98869	0.95515
2745.93489	0.95504
2743.88109	0.95533
2741.82728	0.95560
2739.77348	0.95566
2737.71968	0.95602
2735.66587	0.95656
2733.61207	0.95676
2731.55827	0.95678
2729.50446	0.95690
2727.45066	0.95711
2725.39686	0.95725
2723.34306	0.95742
2721.28925	0.95788
2719.23545	0.95879
2717.18165	0.95957
2715.12784	0.95960
2713.07404	0.95937
2711.02024	0.95928
2708.96643	0.95921
2706.91263	0.95929
2704.85883	0.95969
2702.80502	0.96023
2700.75122	0.96059
2698.69742	0.96068
2696.64361	0.96079
2694.58981	0.96123
2692.53601	0.96175
2690.48220	0.96196
2688.42840	0.96188
2686.37460	0.96174
2684.32079	0.96184
2682.26699	0.96206
2680.21319	0.96190
2678.15938	0.96165
2676.10558	0.96168
2674.05178	0.96165
2671.99797	0.96140
2669.94417	0.96096
2667.89037	0.96075
2665.83657	0.96106
2663.78276	0.96115
2661.72896	0.96084
2659.67516	0.96075
2657.62135	0.96095
2655.56755	0.96132
2653.51375	0.96179
2651.45994	0.96207
2649.40614	0.96214
2647.35234	0.96205
2645.29853	0.96192
2643.24473	0.96186
2641.19093	0.96171
2639.13712	0.96152
2637.08332	0.96149
2635.02952	0.96161
2632.97571	0.96176
2630.92191	0.96208
2628.86811	0.96242
2626.81430	0.96249
2624.76050	0.96236
2622.70670	0.96249
2620.65289	0.96322
2618.59909	0.96413
2616.54529	0.96468
2614.49149	0.96480
2612.43768	0.96515
2610.38388	0.96580
2608.33008	0.96603
2606.27627	0.96581
2604.22247	0.96558
2602.16867	0.96563
2600.11486	0.96598
2598.06106	0.96665
2596.00726	0.96751
2593.95345	0.96812
2591.89965	0.96819
2589.84585	0.96781
2587.79204	0.96740
2585.73824	0.96745
2583.68444	0.96819
2581.63063	0.96907
2579.57683	0.96941
2577.52303	0.96913
2575.46922	0.96910
2573.41542	0.96970
2571.36162	0.97002
2569.30781	0.96965
2567.25401	0.96907
2565.20021	0.96879
2563.14640	0.96889
2561.09260	0.96937
2559.03880	0.96998
2556.98500	0.97027
2554.93119	0.97050
2552.87739	0.97070
2550.82359	0.97045
2548.76978	0.97025
2546.71598	0.97045
2544.66218	0.97019
2542.60837	0.96955
2540.55457	0.96956
2538.50077	0.97009
2536.44696	0.97026
2534.39316	0.97018
2532.33936	0.97045
2530.28555	0.97099
2528.23175	0.97145
2526.17795	0.97159
2524.12414	0.97136
2522.07034	0.97105
2520.01654	0.97092
2517.96273	0.97098
2515.90893	0.97118
2513.85513	0.97128
2511.80132	0.97148
2509.74752	0.97204
2507.69372	0.97238
2505.63992	0.97259
2503.58611	0.97321
2501.53231	0.97356
2499.47851	0.97310
2497.42470	0.97262
2495.37090	0.97252
2493.31710	0.97233
2491.26329	0.97182
2489.20949	0.97112
2487.15569	0.97118
2485.10188	0.97206
2483.04808	0.97239
2480.99428	0.97214
2478.94047	0.97217
2476.88667	0.97242
2474.83287	0.97279
2472.77906	0.97305
2470.72526	0.97289
2468.67146	0.97295
2466.61765	0.97363
2464.56385	0.97399
2462.51005	0.97330
2460.45624	0.97220
2458.40244	0.97180
2456.34864	0.97219
2454.29483	0.97274
2452.24103	0.97329
2450.18723	0.97358
2448.13343	0.97331
2446.07962	0.97308
2444.02582	0.97304
2441.97202	0.97257
2439.91821	0.97210
2437.86441	0.97233
2435.81061	0.97323
2433.75680	0.97399
2431.70300	0.97372
2429.64920	0.97298
2427.59539	0.97268
2425.54159	0.97277
2423.48779	0.97276
2421.43398	0.97290
2419.38018	0.97339
2417.32638	0.97355
2415.27257	0.97304
2413.21877	0.97260
2411.16497	0.97293
2409.11116	0.97369
2407.05736	0.97409
2405.00356	0.97386
2402.94975	0.97354
2400.89595	0.97352
2398.84215	0.97353
2396.78834	0.97318
2394.73454	0.97267
2392.68074	0.97302
2390.62694	0.97412
2388.57313	0.97458
2386.51933	0.97435
2384.46553	0.97427
2382.41172	0.97397
2380.35792	0.97331
2378.30412	0.97330
2376.25031	0.97366
2374.19651	0.97344
2372.14271	0.97322
2370.08890	0.97344
2368.03510	0.97369
2365.98130	0.97364
2363.92749	0.97354
2361.87369	0.97336
2359.81989	0.97203
2357.76608	0.97000
2355.71228	0.96916
2353.65848	0.97010
2351.60467	0.97127
2349.55087	0.97138
2347.49707	0.97114
2345.44326	0.97119
2343.38946	0.97137
2341.33566	0.97167
2339.28186	0.97179
2337.22805	0.97133
2335.17425	0.97079
2333.12045	0.97102
2331.06664	0.97191
2329.01284	0.97252
2326.95904	0.97250
2324.90523	0.97174
2322.85143	0.97099
2320.79763	0.97137
2318.74382	0.97170
2316.69002	0.97135
2314.63622	0.97098
2312.58241	0.97062
2310.52861	0.97074
2308.47481	0.97140
2306.42100	0.97139
2304.36720	0.97094
2302.31340	0.97145
2300.25959	0.97277
2298.20579	0.97316
2296.15199	0.97242
2294.09818	0.97182
2292.04438	0.97158
2289.99058	0.97178
2287.93677	0.97260
2285.88297	0.97283
2283.82917	0.97179
2281.77537	0.97103
2279.72156	0.97163
2277.66776	0.97245
2275.61396	0.97284
2273.56015	0.97316
2271.50635	0.97306
2269.45255	0.97317
2267.39874	0.97437
2265.34494	0.97518
2263.29114	0.97416
2261.23733	0.97298
2259.18353	0.97380
2257.12973	0.97540
2255.07592	0.97612
2253.02212	0.97603
2250.96832	0.97512
2248.91451	0.97474
2246.86071	0.97575
2244.80691	0.97658
2242.75310	0.97699
2240.69930	0.97767
2238.64550	0.97773
2236.59169	0.97622
2234.53789	0.97411
2232.48409	0.97378
2230.43029	0.97622
2228.37648	0.97899
2226.32268	0.97957
2224.26888	0.97902
2222.21507	0.97895
2220.16127	0.97810
2218.10747	0.97617
2216.05366	0.97514
2213.99986	0.97454
2211.94606	0.97401
2209.89225	0.97501
2207.83845	0.97651
2205.78465	0.97682
2203.73084	0.97601
2201.67704	0.97553
2199.62324	0.97665
2197.56943	0.97759
2195.51563	0.97681
2193.46183	0.97595
2191.40802	0.97589
2189.35422	0.97627
2187.30042	0.97770
2185.24661	0.97891
2183.19281	0.97855
2181.13901	0.97753
2179.08520	0.97495
2177.03140	0.97224
2174.97760	0.97370
2172.92380	0.97715
2170.86999	0.97865
2168.81619	0.97942
2166.76239	0.97958
2164.70858	0.97707
2162.65478	0.97329
2160.60098	0.97420
2158.54717	0.98189
2156.49337	0.98661
2154.43957	0.98393
2152.38576	0.98111
2150.33196	0.98054
2148.27816	0.98045
2146.22435	0.98091
2144.17055	0.98049
2142.11675	0.97857
2140.06294	0.97788
2138.00914	0.97858
2135.95534	0.97807
2133.90153	0.97751
2131.84773	0.97820
2129.79393	0.97873
2127.74012	0.97873
2125.68632	0.97789
2123.63252	0.97654
2121.57871	0.97622
2119.52491	0.97666
2117.47111	0.97660
2115.41731	0.97621
2113.36350	0.97583
2111.30970	0.97596
2109.25590	0.97718
2107.20209	0.97816
2105.14829	0.97763
2103.09449	0.97680
2101.04068	0.97653
2098.98688	0.97673
2096.93308	0.97742
2094.87927	0.97757
2092.82547	0.97695
2090.77167	0.97660
2088.71786	0.97685
2086.66406	0.97773
2084.61026	0.97842
2082.55645	0.97826
2080.50265	0.97806
2078.44885	0.97821
2076.39504	0.97796
2074.34124	0.97771
2072.28744	0.97798
2070.23363	0.97831
2068.17983	0.97879
2066.12603	0.97894
2064.07223	0.97858
2062.01842	0.97893
2059.96462	0.97979
2057.91082	0.98026
2055.85701	0.97959
2053.80321	0.97687
2051.74941	0.97437
2049.69560	0.97518
2047.64180	0.97694
2045.58800	0.97699
2043.53419	0.97769
2041.48039	0.97856
2039.42659	0.97794
2037.37278	0.97798
2035.31898	0.97864
2033.26518	0.97909
2031.21137	0.98053
2029.15757	0.98202
2027.10377	0.98180
2025.04996	0.97963
2022.99616	0.97701
2020.94236	0.97661
2018.88855	0.97823
2016.83475	0.97867
2014.78095	0.97673
2012.72714	0.97608
2010.67334	0.97798
2008.61954	0.97952
2006.56574	0.98039
2004.51193	0.98058
2002.45813	0.98008
2000.40433	0.97986
1998.35052	0.97983
1996.29672	0.98090
1994.24292	0.98327
1992.18911	0.98414
1990.13531	0.98218
1988.08151	0.98033
1986.02770	0.98084
1983.97390	0.98240
1981.92010	0.98255
1979.86629	0.98211
1977.81249	0.98278
1975.75869	0.98406
1973.70488	0.98477
1971.65108	0.98519
1969.59728	0.98598
1967.54347	0.98461
1965.48967	0.98203
1963.43587	0.98211
1961.38206	0.98253
1959.32826	0.98134
1957.27446	0.98057
1955.22066	0.98004
1953.16685	0.97801
1951.11305	0.97564
1949.05925	0.97554
1947.00544	0.97725
1944.95164	0.97850
1942.89784	0.97892
1940.84403	0.97879
1938.79023	0.97762
1936.73643	0.97594
1934.68262	0.97541
1932.62882	0.97610
1930.57502	0.97733
1928.52121	0.97865
1926.46741	0.97857
1924.41361	0.97764
1922.35980	0.97767
1920.30600	0.97843
1918.25220	0.97867
1916.19839	0.97793
1914.14459	0.97690
1912.09079	0.97645
1910.03698	0.97650
1907.98318	0.97650
1905.92938	0.97640
1903.87557	0.97656
1901.82177	0.97690
1899.76797	0.97667
1897.71417	0.97626
1895.66036	0.97657
1893.60656	0.97684
1891.55276	0.97650
1889.49895	0.97633
1887.44515	0.97668
1885.39135	0.97658
1883.33754	0.97573
1881.28374	0.97548
1879.22994	0.97622
1877.17613	0.97678
1875.12233	0.97669
1873.06853	0.97678
1871.01472	0.97764
1868.96092	0.97817
1866.90712	0.97742
1864.85331	0.97654
1862.79951	0.97650
1860.74571	0.97688
1858.69190	0.97661
1856.63810	0.97582
1854.58430	0.97551
1852.53049	0.97600
1850.47669	0.97677
1848.42289	0.97704
1846.36908	0.97654
1844.31528	0.97585
1842.26148	0.97587
1840.20768	0.97634
1838.15387	0.97661
1836.10007	0.97643
1834.04627	0.97582
1831.99246	0.97511
1829.93866	0.97498
1827.88486	0.97529
1825.83105	0.97535
1823.77725	0.97518
1821.72345	0.97499
1819.66964	0.97507
1817.61584	0.97521
1815.56204	0.97503
1813.50823	0.97459
1811.45443	0.97422
1809.40063	0.97448
1807.34682	0.97499
1805.29302	0.97505
1803.23922	0.97471
1801.18541	0.97418
1799.13161	0.97388
1797.07781	0.97366
1795.02400	0.97322
1792.97020	0.97301
1790.91640	0.97327
1788.86260	0.97328
1786.80879	0.97276
1784.75499	0.97230
1782.70119	0.97232
1780.64738	0.97218
1778.59358	0.97157
1776.53978	0.97125
1774.48597	0.97134
1772.43217	0.97108
1770.37837	0.97026
1768.32456	0.96971
1766.27076	0.96957
1764.21696	0.96974
1762.16315	0.96986
1760.10935	0.96900
1758.05555	0.96757
1756.00174	0.96617
1753.94794	0.96479
1751.89414	0.96316
1749.84033	0.96048
1747.78653	0.95633
1745.73273	0.95154
1743.67892	0.94675
1741.62512	0.94219
1739.57132	0.93818
1737.51751	0.93560
1735.46371	0.93433
1733.40991	0.93335
1731.35611	0.93282
1729.30230	0.93320
1727.24850	0.93409
1725.19470	0.93512
1723.14089	0.93627
1721.08709	0.93726
1719.03329	0.93817
1716.97948	0.93928
1714.92568	0.94038
1712.87188	0.94124
1710.81807	0.94159
1708.76427	0.94156
1706.71047	0.94124
1704.65666	0.94068
1702.60286	0.93997
1700.54906	0.93876
1698.49525	0.93726
1696.44145	0.93563
1694.38765	0.93381
1692.33384	0.93225
1690.28004	0.93037
1688.22624	0.92804
1686.17243	0.92581
1684.11863	0.92311
1682.06483	0.92037
1680.01103	0.91822
1677.95722	0.91623
1675.90342	0.91442
1673.84962	0.91282
1671.79581	0.91109
1669.74201	0.90840
1667.68821	0.90571
1665.63440	0.90424
1663.58060	0.90289
1661.52680	0.90096
1659.47299	0.89918
1657.41919	0.89791
1655.36539	0.89670
1653.31158	0.89498
1651.25778	0.89404
1649.20398	0.89418
1647.15017	0.89409
1645.09637	0.89310
1643.04257	0.89211
1640.98876	0.89165
1638.93496	0.89159
1636.88116	0.89162
1634.82735	0.89165
1632.77355	0.89192
1630.71975	0.89237
1628.66594	0.89295
1626.61214	0.89345
1624.55834	0.89370
1622.50454	0.89406
1620.45073	0.89504
1618.39693	0.89688
1616.34313	0.89984
1614.28932	0.90271
1612.23552	0.90487
1610.18172	0.90680
1608.12791	0.90847
1606.07411	0.90972
1604.02031	0.91088
1601.96650	0.91219
1599.91270	0.91351
1597.85890	0.91459
1595.80509	0.91547
1593.75129	0.91647
1591.69749	0.91759
1589.64368	0.91870
1587.58988	0.91972
1585.53608	0.92043
1583.48227	0.92092
1581.42847	0.92136
1579.37467	0.92175
1577.32086	0.92228
1575.26706	0.92312
1573.21326	0.92393
1571.15945	0.92480
1569.10565	0.92587
1567.05185	0.92660
1564.99805	0.92671
1562.94424	0.92653
1560.89044	0.92626
1558.83664	0.92597
1556.78283	0.92604
1554.72903	0.92624
1552.67523	0.92651
1550.62142	0.92668
1548.56762	0.92658
1546.51382	0.92653
1544.46001	0.92669
1542.40621	0.92709
1540.35241	0.92754
1538.29860	0.92817
1536.24480	0.92925
1534.19100	0.93071
1532.13719	0.93214
1530.08339	0.93307
1528.02959	0.93407
1525.97578	0.93546
1523.92198	0.93688
1521.86818	0.93816
1519.81437	0.93905
1517.76057	0.93942
1515.70677	0.93988
1513.65297	0.94029
1511.59916	0.94057
1509.54536	0.94092
1507.49156	0.94141
1505.43775	0.94209
1503.38395	0.94246
1501.33015	0.94266
1499.27634	0.94265
1497.22254	0.94221
1495.16874	0.94139
1493.11493	0.94061
1491.06113	0.93973
1489.00733	0.93845
1486.95352	0.93676
1484.89972	0.93473
1482.84592	0.93178
1480.79211	0.92662
1478.73831	0.91628
1476.68451	0.89100
1474.63070	0.84204
1472.57690	0.79287
1470.52310	0.78577
1468.46929	0.79873
1466.41549	0.80294
1464.36169	0.79123
1462.30788	0.78457
1460.25408	0.79952
1458.20028	0.82975
1456.14648	0.85646
1454.09267	0.86739
1452.03887	0.87381
1449.98507	0.87935
1447.93126	0.88385
1445.87746	0.88706
1443.82366	0.88924
1441.76985	0.89133
1439.71605	0.89337
1437.66225	0.89531
1435.60844	0.89705
1433.55464	0.89844
1431.50084	0.90014
1429.44703	0.90232
1427.39323	0.90435
1425.33943	0.90599
1423.28562	0.90724
1421.23182	0.90794
1419.17802	0.90860
1417.12421	0.90941
1415.07041	0.91017
1413.01661	0.91115
1410.96280	0.91242
1408.90900	0.91382
1406.85520	0.91529
1404.80139	0.91711
1402.74759	0.91885
1400.69379	0.91977
1398.63999	0.92027
1396.58618	0.92115
1394.53238	0.92219
1392.47858	0.92262
1390.42477	0.92224
1388.37097	0.92141
1386.31717	0.92054
1384.26336	0.91959
1382.20956	0.91784
1380.15576	0.91500
1378.10195	0.91226
1376.04815	0.91150
1373.99435	0.91327
1371.94054	0.91554
1369.88674	0.91685
1367.83294	0.91802
1365.77913	0.91976
1363.72533	0.92215
1361.67153	0.92486
1359.61772	0.92681
1357.56392	0.92794
1355.51012	0.92899
1353.45631	0.93003
1351.40251	0.93072
1349.34871	0.93124
1347.29491	0.93202
1345.24110	0.93287
1343.18730	0.93338
1341.13350	0.93358
1339.07969	0.93402
1337.02589	0.93473
1334.97209	0.93519
1332.91828	0.93548
1330.86448	0.93586
1328.81068	0.93604
1326.75687	0.93569
1324.70307	0.93526
1322.64927	0.93508
1320.59546	0.93478
1318.54166	0.93431
1316.48786	0.93414
1314.43405	0.93417
1312.38025	0.93386
1310.32645	0.93332
1308.27264	0.93313
1306.21884	0.93329
1304.16504	0.93327
1302.11123	0.93285
1300.05743	0.93237
1298.00363	0.93212
1295.94982	0.93192
1293.89602	0.93155
1291.84222	0.93096
1289.78842	0.93035
1287.73461	0.92987
1285.68081	0.92916
1283.62701	0.92812
1281.57320	0.92705
1279.51940	0.92605
1277.46560	0.92485
1275.41179	0.92344
1273.35799	0.92198
1271.30419	0.92017
1269.25038	0.91742
1267.19658	0.91362
1265.14278	0.90942
1263.08897	0.90590
1261.03517	0.90411
1258.98137	0.90431
1256.92756	0.90564
1254.87376	0.90714
1252.81996	0.90825
1250.76615	0.90850
1248.71235	0.90799
1246.65855	0.90727
1244.60474	0.90663
1242.55094	0.90597
1240.49714	0.90530
1238.44334	0.90475
1236.38953	0.90421
1234.33573	0.90349
1232.28193	0.90285
1230.22812	0.90257
1228.17432	0.90224
1226.12052	0.90165
1224.06671	0.90117
1222.01291	0.90075
1219.95911	0.90006
1217.90530	0.89923
1215.85150	0.89848
1213.79770	0.89763
1211.74389	0.89627
1209.69009	0.89470
1207.63629	0.89329
1205.58248	0.89183
1203.52868	0.89008
1201.47488	0.88805
1199.42107	0.88575
1197.36727	0.88324
1195.31347	0.88063
1193.25966	0.87791
1191.20586	0.87496
1189.15206	0.87177
1187.09825	0.86835
1185.04445	0.86453
1182.99065	0.86003
1180.93685	0.85475
1178.88304	0.84927
1176.82924	0.84422
1174.77544	0.83922
1172.72163	0.83404
1170.66783	0.82906
1168.61403	0.82433
1166.56022	0.81975
1164.50642	0.81548
1162.45262	0.81171
1160.39881	0.80859
1158.34501	0.80600
1156.29121	0.80350
1154.23740	0.80061
1152.18360	0.79748
1150.12980	0.79484
1148.07599	0.79251
1146.02219	0.78965
1143.96839	0.78669
1141.91458	0.78412
1139.86078	0.78152
1137.80698	0.77877
1135.75317	0.77573
1133.69937	0.77193
1131.64557	0.76718
1129.59176	0.76161
1127.53796	0.75545
1125.48416	0.74855
1123.43036	0.74046
1121.37655	0.73154
1119.32275	0.72251
1117.26895	0.71380
1115.21514	0.70591
1113.16134	0.69916
1111.10754	0.69314
1109.05373	0.68753
1106.99993	0.68205
1104.94613	0.67647
1102.89232	0.67109
1100.83852	0.66639
1098.78472	0.66277
1096.73091	0.66012
1094.67711	0.65778
1092.62331	0.65582
1090.56950	0.65443
1088.51570	0.65291
1086.46190	0.65125
1084.40809	0.65004
1082.35429	0.64898
1080.30049	0.64754
1078.24668	0.64575
1076.19288	0.64362
1074.13908	0.64113
1072.08528	0.63823
1070.03147	0.63485
1067.97767	0.63084
1065.92387	0.62590
1063.87006	0.62010
1061.81626	0.61376
1059.76246	0.60670
1057.70865	0.59867
1055.65485	0.58964
1053.60105	0.57973
1051.54724	0.56911
1049.49344	0.55764
1047.43964	0.54579
1045.38583	0.53451
1043.33203	0.52392
1041.27823	0.51387
1039.22442	0.50453
1037.17062	0.49624
1035.11682	0.48910
1033.06301	0.48320
1031.00921	0.47898
1028.95541	0.47680
1026.90160	0.47618
1024.84780	0.47622
1022.79400	0.47624
1020.74019	0.47589
1018.68639	0.47523
1016.63259	0.47446
1014.57879	0.47408
1012.52498	0.47436
1010.47118	0.47510
1008.41738	0.47659
1006.36357	0.47987
1004.30977	0.48520
1002.25597	0.49228
1000.20216	0.50117
998.14836	0.51153
996.09456	0.52281
994.04075	0.53490
991.98695	0.54748
989.93315	0.56033
987.87934	0.57339
985.82554	0.58646
983.77174	0.59944
981.71793	0.61221
979.66413	0.62455
977.61033	0.63643
975.55652	0.64802
973.50272	0.65948
971.44892	0.67046
969.39511	0.68053
967.34131	0.69017
965.28751	0.69947
963.23371	0.70774
961.17990	0.71506
959.12610	0.72182
957.07230	0.72814
955.01849	0.73383
952.96469	0.73877
950.91089	0.74346
948.85708	0.74791
946.80328	0.75113
944.74948	0.75325
942.69567	0.75538
940.64187	0.75755
938.58807	0.75960
936.53426	0.76177
934.48046	0.76400
932.42666	0.76607
930.37285	0.76782
928.31905	0.76892
926.26525	0.76922
924.21144	0.76865
922.15764	0.76724
920.10384	0.76496
918.05003	0.76160
915.99623	0.75785
913.94243	0.75535
911.88862	0.75515
909.83482	0.75767
907.78102	0.76390
905.72722	0.77357
903.67341	0.78385
901.61961	0.79265
899.56581	0.80037
897.51200	0.80766
895.45820	0.81391
893.40440	0.81919
891.35059	0.82396
889.29679	0.82788
887.24299	0.83087
885.18918	0.83273
883.13538	0.83313
881.08158	0.83241
879.02777	0.83107
876.97397	0.83029
874.92017	0.83209
872.86636	0.83638
870.81256	0.84106
868.75876	0.84528
866.70495	0.84935
864.65115	0.85309
862.59735	0.85640
860.54354	0.85933
858.48974	0.86188
856.43594	0.86433
854.38213	0.86648
852.32833	0.86795
850.27453	0.86873
848.22073	0.86939
846.16692	0.87047
844.11312	0.87112
842.05932	0.87068
840.00551	0.86985
837.95171	0.86915
835.89791	0.86859
833.84410	0.86766
831.79030	0.86562
829.73650	0.86298
827.68269	0.86063
825.62889	0.85845
823.57509	0.85620
821.52128	0.85381
819.46748	0.85140
817.41368	0.84960
815.35987	0.84825
813.30607	0.84574
811.25227	0.84174
809.19846	0.83805
807.14466	0.83492
805.09086	0.83056
803.03705	0.82474
800.98325	0.81943
798.92945	0.81648
796.87565	0.81614
794.82184	0.81738
792.76804	0.81925
790.71424	0.82070
788.66043	0.82128
786.60663	0.82197
784.55283	0.82267
782.49902	0.82255
780.44522	0.82218
778.39142	0.82193
776.33761	0.82159
774.28381	0.82089
772.23001	0.81999
770.17620	0.81947
768.12240	0.81861
766.06860	0.81615
764.01479	0.81284
761.96099	0.80980
759.90719	0.80683
757.85338	0.80385
755.79958	0.80150
753.74578	0.80005
751.69197	0.79876
749.63817	0.79687
747.58437	0.79493
745.53056	0.79372
743.47676	0.79299
741.42296	0.79261
739.36916	0.79198
737.31535	0.78919
735.26155	0.77931
733.20775	0.75454
731.15394	0.72356
729.10014	0.71256
727.04634	0.72256
724.99253	0.72779
722.93873	0.71149
720.88493	0.67475
718.83112	0.64129
716.77732	0.63755
714.72352	0.66111
712.66971	0.69153
710.61591	0.71302
708.56211	0.72324
706.50830	0.72629
704.45450	0.72521
702.40070	0.72191
700.34689	0.71795
698.29309	0.71433
696.23929	0.71182
694.18548	0.71057
692.13168	0.70949
690.07788	0.70830
688.02408	0.70791
685.97027	0.70868
683.91647	0.70961
681.86267	0.70979
679.80886	0.70922
677.75506	0.70766
675.70126	0.70535
673.64745	0.70334
671.59365	0.70201
669.53985	0.70164
667.48604	0.70332
665.43224	0.70577
663.37844	0.70836
661.32463	0.71119
659.27083	0.71319
657.21703	0.71411
655.16322	0.71437
653.10942	0.71369
651.05562	0.71217
649.00181	0.71140
646.94801	0.71166
644.89421	0.71195
642.84040	0.71194
640.78660	0.71223
638.73280	0.71340
636.67899	0.71476
634.62519	0.71552
632.57139	0.71491
630.51759	0.71308
628.46378	0.71236
626.40998	0.71280
624.35618	0.71180
622.30237	0.71001
620.24857	0.70878
618.19477	0.70778
616.14096	0.70672
614.08716	0.70445
612.03336	0.70115
609.97955	0.69833
607.92575	0.69566
605.87195	0.69247
603.81814	0.68968
601.76434	0.68779
599.71054	0.68593
597.65673	0.68417
595.60293	0.68368
593.54913	0.68420
591.49532	0.68363
589.44152	0.68104
587.38772	0.67816
585.33391	0.67629
583.28011	0.67469
581.22631	0.67209
579.17250	0.66895
577.11870	0.66633
575.06490	0.66367
573.01110	0.66047
570.95729	0.65719
568.90349	0.65371
566.84969	0.64950
564.79588	0.64476
562.74208	0.64023
560.68828	0.63624
558.63447	0.63228
556.58067	0.62723
554.52687	0.62106
552.47306	0.61527
550.41926	0.60994
548.36546	0.60332
546.31165	0.59497
544.25785	0.58670
542.20405	0.57951
540.15024	0.57258
538.09644	0.56622
536.04264	0.56102
533.98883	0.55672
531.93503	0.55398
529.88123	0.55319
527.82742	0.55481
525.77362	0.55905
523.71982	0.56347
521.66602	0.56686
519.61221	0.57078
517.55841	0.57642
515.50461	0.58283
513.45080	0.58749
511.39700	0.58979
509.34320	0.59278
507.28939	0.59810
505.23559	0.60238
503.18179	0.60464
501.12798	0.60712
499.07418	0.60843
497.02038	0.60737
494.96657	0.60538
492.91277	0.60376
490.85897	0.60327
488.80516	0.60230
486.75136	0.59807
484.69756	0.58952
482.64375	0.57772
480.58995	0.56445
478.53615	0.54950
476.48234	0.53342
474.42854	0.51686
472.37474	0.49931
470.32093	0.48580
468.26713	0.47850
466.21333	0.47416
464.15953	0.47336
462.10572	0.47737
460.05192	0.48531
457.99812	0.49520
455.94431	0.50305
453.89051	0.50863
451.83671	0.51317
449.78290	0.51504
447.72910	0.51633
445.67530	0.51973
443.62149	0.52331
441.56769	0.52478
439.51389	0.52312
437.46008	0.51897
435.40628	0.51486
433.35248	0.51128
431.29867	0.50773
429.24487	0.50655
427.19107	0.50768
425.13726	0.50981
423.08346	0.51194
421.02966	0.51168
418.97585	0.51459
416.92205	0.52715
414.86825	0.54022
412.81445	0.54899
410.76064	0.55438
408.70684	0.56188
406.65304	0.57323
404.59923	0.58112
402.54543	0.58092
400.49163	0.58156
398.43782	0.59104
