3996.70104	0.97582
3994.64724	0.97587
3992.59344	0.97568
3990.53964	0.97560
3988.48583	0.97589
3986.43203	0.97587
3984.37823	0.97544
3982.32442	0.97547
3980.27062	0.97609
3978.21682	0.97625
3976.16301	0.97561
3974.10921	0.97549
3972.05541	0.97611
3970.00160	0.97612
3967.94780	0.97580
3965.89400	0.97603
3963.84019	0.97619
3961.78639	0.97590
3959.73259	0.97537
3957.67878	0.97506
3955.62498	0.97537
3953.57118	0.97594
3951.51737	0.97639
3949.46357	0.97661
3947.40977	0.97662
3945.35596	0.97662
3943.30216	0.97643
3941.24836	0.97630
3939.19455	0.97647
3937.14075	0.97640
3935.08695	0.97605
3933.03315	0.97596
3930.97934	0.97661
3928.92554	0.97726
3926.87174	0.97672
3924.81793	0.97587
3922.76413	0.97579
3920.71033	0.97567
3918.65652	0.97538
3916.60272	0.97568
3914.54892	0.97640
3912.49511	0.97709
3910.44131	0.97742
3908.38751	0.97710
3906.33370	0.97640
3904.27990	0.97635
3902.22610	0.97720
3900.17229	0.97737
3898.11849	0.97669
3896.06469	0.97628
3894.01088	0.97623
3891.95708	0.97615
3889.90328	0.97610
3887.84947	0.97612
3885.79567	0.97604
3883.74187	0.97598
3881.68807	0.97559
3879.63426	0.97542
3877.58046	0.97615
3875.52666	0.97655
3873.47285	0.97626
3871.41905	0.97601
3869.36525	0.97583
3867.31144	0.97589
3865.25764	0.97658
3863.20384	0.97728
3861.15003	0.97719
3859.09623	0.97666
3857.04243	0.97628
3854.98862	0.97576
3852.93482	0.97496
3850.88102	0.97482
3848.82721	0.97491
3846.77341	0.97508
3844.71961	0.97543
3842.66580	0.97576
3840.61200	0.97599
3838.55820	0.97592
3836.50439	0.97566
3834.45059	0.97578
3832.39679	0.97640
3830.34298	0.97688
3828.28918	0.97707
3826.23538	0.97767
3824.18158	0.97857
3822.12777	0.97866
3820.07397	0.97785
3818.02017	0.97722
3815.96636	0.97664
3813.91256	0.97630
3811.85876	0.97655
3809.80495	0.97696
3807.75115	0.97713
3805.69735	0.97707
3803.64354	0.97686
3801.58974	0.97641
3799.53594	0.97650
3797.48213	0.97719
3795.42833	0.97745
3793.37453	0.97727
3791.32072	0.97721
3789.26692	0.97710
3787.21312	0.97664
3785.15931	0.97596
3783.10551	0.97558
3781.05171	0.97562
3778.99790	0.97579
3776.94410	0.97630
3774.89030	0.97690
3772.83650	0.97683
3770.78269	0.97626
3768.72889	0.97616
3766.67509	0.97651
3764.62128	0.97673
3762.56748	0.97684
3760.51368	0.97694
3758.45987	0.97740
3756.40607	0.97807
3754.35227	0.97819
3752.29846	0.97809
3750.24466	0.97805
3748.19086	0.97734
3746.13705	0.97657
3744.08325	0.97692
3742.02945	0.97800
3739.97564	0.97845
3737.92184	0.97831
3735.86804	0.97797
3733.81423	0.97744
3731.76043	0.97710
3729.70663	0.97738
3727.65282	0.97754
3725.59902	0.97699
3723.54522	0.97621
3721.49141	0.97575
3719.43761	0.97559
3717.38381	0.97548
3715.33001	0.97518
3713.27620	0.97470
3711.22240	0.97421
3709.16860	0.97398
3707.11479	0.97382
3705.06099	0.97339
3703.00719	0.97265
3700.95338	0.97166
3698.89958	0.97095
3696.84578	0.97079
3694.79197	0.97095
3692.73817	0.97126
3690.68437	0.97160
3688.63056	0.97146
3686.57676	0.97071
3684.52296	0.97011
3682.46915	0.96991
3680.41535	0.97039
3678.36155	0.97145
3676.30774	0.97182
3674.25394	0.97117
3672.20014	0.97059
3670.14633	0.97027
3668.09253	0.97073
3666.03873	0.97132
3663.98492	0.97126
3661.93112	0.97090
3659.87732	0.97031
3657.82352	0.96919
3655.76971	0.96811
3653.71591	0.96815
3651.66211	0.96881
3649.60830	0.96917
3647.55450	0.96889
3645.50070	0.96843
3643.44689	0.96831
3641.39309	0.96830
3639.33929	0.96783
3637.28548	0.96742
3635.23168	0.96736
3633.17788	0.96712
3631.12407	0.96654
3629.07027	0.96553
3627.01647	0.96470
3624.96266	0.96462
3622.90886	0.96456
3620.85506	0.96401
3618.80125	0.96340
3616.74745	0.96374
3614.69365	0.96457
3612.63984	0.96489
3610.58604	0.96472
3608.53224	0.96422
3606.47844	0.96360
3604.42463	0.96367
3602.37083	0.96440
3600.31703	0.96531
3598.26322	0.96576
3596.20942	0.96554
3594.15562	0.96509
3592.10181	0.96472
3590.04801	0.96415
3587.99421	0.96323
3585.94040	0.96277
3583.88660	0.96324
3581.83280	0.96389
3579.77899	0.96369
3577.72519	0.96298
3575.67139	0.96273
3573.61758	0.96274
3571.56378	0.96275
3569.50998	0.96290
3567.45617	0.96276
3565.40237	0.96201
3563.34857	0.96141
3561.29476	0.96084
3559.24096	0.96040
3557.18716	0.96028
3555.13335	0.96024
3553.07955	0.96065
3551.02575	0.96115
3548.97195	0.96103
3546.91814	0.96067
3544.86434	0.96044
3542.81054	0.95994
3540.75673	0.95945
3538.70293	0.95992
3536.64913	0.96072
3534.59532	0.96085
3532.54152	0.96051
3530.48772	0.95975
3528.43391	0.95894
3526.38011	0.95884
3524.32631	0.95933
3522.27250	0.95993
3520.21870	0.96019
3518.16490	0.96003
3516.11109	0.95996
3514.05729	0.96035
3512.00349	0.96059
3509.94968	0.96006
3507.89588	0.95950
3505.84208	0.95939
3503.78827	0.95931
3501.73447	0.95929
3499.68067	0.95927
3497.62687	0.95917
3495.57306	0.95931
3493.51926	0.95947
3491.46546	0.95937
3489.41165	0.95933
3487.35785	0.95925
3485.30405	0.95917
3483.25024	0.95939
3481.19644	0.95970
3479.14264	0.95975
3477.08883	0.95976
3475.03503	0.95988
3472.98123	0.95975
3470.92742	0.95944
3468.87362	0.95920
3466.81982	0.95897
3464.76601	0.95867
3462.71221	0.95836
3460.65841	0.95846
3458.60460	0.95872
3456.55080	0.95880
3454.49700	0.95906
3452.44319	0.95908
3450.38939	0.95864
3448.33559	0.95857
3446.28178	0.95880
3444.22798	0.95888
3442.17418	0.95851
3440.12038	0.95784
3438.06657	0.95768
3436.01277	0.95798
3433.95897	0.95811
3431.90516	0.95784
3429.85136	0.95736
3427.79756	0.95712
3425.74375	0.95711
3423.68995	0.95710
3421.63615	0.95716
3419.58234	0.95732
3417.52854	0.95742
3415.47474	0.95752
3413.42093	0.95746
3411.36713	0.95675
3409.31333	0.95617
3407.25952	0.95626
3405.20572	0.95603
3403.15192	0.95566
3401.09811	0.95575
3399.04431	0.95581
3396.99051	0.95585
3394.93670	0.95622
3392.88290	0.95656
3390.82910	0.95651
3388.77529	0.95636
3386.72149	0.95614
3384.66769	0.95577
3382.61389	0.95545
3380.56008	0.95553
3378.50628	0.95592
3376.45248	0.95634
3374.39867	0.95685
3372.34487	0.95722
3370.29107	0.95694
3368.23726	0.95641
3366.18346	0.95642
3364.12966	0.95677
3362.07585	0.95696
3360.02205	0.95681
3357.96825	0.95646
3355.91444	0.95647
3353.86064	0.95697
3351.80684	0.95747
3349.75303	0.95768
3347.69923	0.95785
3345.64543	0.95771
3343.59162	0.95733
3341.53782	0.95748
3339.48402	0.95782
3337.43021	0.95809
3335.37641	0.95866
3333.32261	0.95910
3331.26881	0.95900
3329.21500	0.95865
3327.16120	0.95812
3325.10740	0.95792
3323.05359	0.95866
3320.99979	0.95961
3318.94599	0.95958
3316.89218	0.95878
3314.83838	0.95830
3312.78458	0.95875
3310.73077	0.95971
3308.67697	0.95994
3306.62317	0.95931
3304.56936	0.95925
3302.51556	0.95976
3300.46176	0.95984
3298.40795	0.95975
3296.35415	0.96002
3294.30035	0.96021
3292.24654	0.95980
3290.19274	0.95936
3288.13894	0.95968
3286.08513	0.96008
3284.03133	0.96021
3281.97753	0.96058
3279.92372	0.96106
3277.86992	0.96141
3275.81612	0.96170
3273.76232	0.96181
3271.70851	0.96184
3269.65471	0.96179
3267.60091	0.96125
3265.54710	0.96048
3263.49330	0.96050
3261.43950	0.96129
3259.38569	0.96199
3257.33189	0.96241
3255.27809	0.96256
3253.22428	0.96225
3251.17048	0.96178
3249.11668	0.96158
3247.06287	0.96162
3245.00907	0.96156
3242.95527	0.96133
3240.90146	0.96129
3238.84766	0.96149
3236.79386	0.96160
3234.74005	0.96182
3232.68625	0.96228
3230.63245	0.96250
3228.57864	0.96237
3226.52484	0.96219
3224.47104	0.96232
3222.41724	0.96287
3220.36343	0.96352
3218.30963	0.96398
3216.25583	0.96403
3214.20202	0.96390
3212.14822	0.96389
3210.09442	0.96390
3208.04061	0.96380
3205.98681	0.96386
3203.93301	0.96419
3201.87920	0.96450
3199.82540	0.96451
3197.77160	0.96436
3195.71779	0.96462
3193.66399	0.96494
3191.61019	0.96475
3189.55638	0.96401
3187.50258	0.96322
3185.44878	0.96318
3183.39497	0.96386
3181.34117	0.96447
3179.28737	0.96467
3177.23356	0.96483
3175.17976	0.96521
3173.12596	0.96577
3171.07215	0.96634
3169.01835	0.96651
3166.96455	0.96644
3164.91075	0.96641
3162.85694	0.96629
3160.80314	0.96625
3158.74934	0.96640
3156.69553	0.96639
3154.64173	0.96630
3152.58793	0.96644
3150.53412	0.96667
3148.48032	0.96677
3146.42652	0.96685
3144.37271	0.96696
3142.31891	0.96685
3140.26511	0.96661
3138.21130	0.96683
3136.15750	0.96736
3134.10370	0.96761
3132.04989	0.96769
3129.99609	0.96788
3127.94229	0.96808
3125.88848	0.96811
3123.83468	0.96804
3121.78088	0.96822
3119.72707	0.96851
3117.67327	0.96825
3115.61947	0.96778
3113.56566	0.96791
3111.51186	0.96827
3109.45806	0.96843
3107.40426	0.96873
3105.35045	0.96907
3103.29665	0.96928
3101.24285	0.96928
3099.18904	0.96908
3097.13524	0.96897
3095.08144	0.96898
3093.02763	0.96895
3090.97383	0.96868
3088.92003	0.96843
3086.86622	0.96873
3084.81242	0.96923
3082.75862	0.96952
3080.70481	0.96966
3078.65101	0.96985
3076.59721	0.97011
3074.54340	0.97014
3072.48960	0.96988
3070.43580	0.96964
3068.38199	0.96973
3066.32819	0.96996
3064.27439	0.96985
3062.22058	0.96966
3060.16678	0.96970
3058.11298	0.97005
3056.05918	0.97070
3054.00537	0.97112
3051.95157	0.97096
3049.89777	0.97037
3047.84396	0.96996
3045.79016	0.97035
3043.73636	0.97090
3041.68255	0.97096
3039.62875	0.97096
3037.57495	0.97101
3035.52114	0.97109
3033.46734	0.97145
3031.41354	0.97161
3029.35973	0.97133
3027.30593	0.97108
3025.25213	0.97111
3023.19832	0.97108
3021.14452	0.97084
3019.09072	0.97082
3017.03691	0.97101
3014.98311	0.97101
3012.92931	0.97075
3010.87550	0.97056
3008.82170	0.97082
3006.76790	0.97098
3004.71409	0.97079
3002.66029	0.97102
3000.60649	0.97153
2998.55269	0.97158
2996.49888	0.97126
2994.44508	0.97102
2992.39128	0.97104
2990.33747	0.97115
2988.28367	0.97114
2986.22987	0.97087
2984.17606	0.97036
2982.12226	0.96977
2980.06846	0.96925
2978.01465	0.96871
2975.96085	0.96791
2973.90705	0.96709
2971.85324	0.96663
2969.79944	0.96641
2967.74564	0.96605
2965.69183	0.96561
2963.63803	0.96560
2961.58423	0.96597
2959.53042	0.96599
2957.47662	0.96574
2955.42282	0.96575
2953.36901	0.96604
2951.31521	0.96631
2949.26141	0.96637
2947.20761	0.96608
2945.15380	0.96579
2943.10000	0.96562
2941.04620	0.96519
2938.99239	0.96484
2936.93859	0.96488
2934.88479	0.96464
2932.83098	0.96396
2930.77718	0.96340
2928.72338	0.96301
2926.66957	0.96292
2924.61577	0.96331
2922.56197	0.96351
2920.50816	0.96304
2918.45436	0.96239
2916.40056	0.96193
2914.34675	0.96150
2912.29295	0.96133
2910.23915	0.96162
2908.18534	0.96190
2906.13154	0.96210
2904.07774	0.96270
2902.02393	0.96365
2899.97013	0.96436
2897.91633	0.96493
2895.86252	0.96577
2893.80872	0.96670
2891.75492	0.96763
2889.70112	0.96842
2887.64731	0.96890
2885.59351	0.96927
2883.53971	0.96949
2881.48590	0.96949
2879.43210	0.96980
2877.37830	0.97037
2875.32449	0.97045
2873.27069	0.97007
2871.21689	0.96977
2869.16308	0.96949
2867.10928	0.96934
2865.05548	0.96949
2863.00167	0.96968
2860.94787	0.96987
2858.89407	0.96998
2856.84026	0.97005
2854.78646	0.97034
2852.73266	0.97035
2850.67885	0.97012
2848.62505	0.97024
2846.57125	0.97051
2844.51744	0.97084
2842.46364	0.97133
2840.40984	0.97172
2838.35603	0.97212
2836.30223	0.97267
2834.24843	0.97302
2832.19463	0.97318
2830.14082	0.97322
2828.08702	0.97298
2826.03322	0.97273
2823.97941	0.97294
2821.92561	0.97335
2819.87181	0.97320
2817.81800	0.97286
2815.76420	0.97296
2813.71040	0.97313
2811.65659	0.97313
2809.60279	0.97333
2807.54899	0.97377
2805.49518	0.97404
2803.44138	0.97416
2801.38758	0.97423
2799.33377	0.97404
2797.27997	0.97395
2795.22617	0.97406
2793.17236	0.97401
2791.11856	0.97406
2789.06476	0.97427
2787.01095	0.97430
2784.95715	0.97420
2782.90335	0.97419
2780.84955	0.97439
2778.79574	0.97464
2776.74194	0.97467
2774.68814	0.97451
2772.63433	0.97448
2770.58053	0.97462
2768.52673	0.97472
2766.47292	0.97485
2764.41912	0.97506
2762.36532	0.97534
2760.31151	0.97562
2758.25771	0.97551
2756.20391	0.97511
2754.15010	0.97496
2752.09630	0.97498
2750.04250	0.97487
2747.98869	0.97464
2745.93489	0.97435
2743.88109	0.97429
2741.82728	0.97461
2739.77348	0.97520
2737.71968	0.97569
2735.66587	0.97579
2733.61207	0.97564
2731.55827	0.97547
2729.50446	0.97529
2727.45066	0.97518
2725.39686	0.97521
2723.34306	0.97527
2721.28925	0.97516
2719.23545	0.97506
2717.18165	0.97508
2715.12784	0.97501
2713.07404	0.97515
2711.02024	0.97548
2708.96643	0.97543
2706.91263	0.97519
2704.85883	0.97506
2702.80502	0.97483
2700.75122	0.97479
2698.69742	0.97531
2696.64361	0.97576
2694.58981	0.97583
2692.53601	0.97591
2690.48220	0.97604
2688.42840	0.97601
2686.37460	0.97571
2684.32079	0.97545
2682.26699	0.97543
2680.21319	0.97564
2678.15938	0.97582
2676.10558	0.97552
2674.05178	0.97507
2671.99797	0.97508
2669.94417	0.97526
2667.89037	0.97520
2665.83657	0.97518
2663.78276	0.97522
2661.72896	0.97494
2659.67516	0.97476
2657.62135	0.97507
2655.56755	0.97538
2653.51375	0.97554
2651.45994	0.97547
2649.40614	0.97500
2647.35234	0.97469
2645.29853	0.97504
2643.24473	0.97556
2641.19093	0.97559
2639.13712	0.97529
2637.08332	0.97511
2635.02952	0.97499
2632.97571	0.97463
2630.92191	0.97418
2628.86811	0.97409
2626.81430	0.97440
2624.76050	0.97493
2622.70670	0.97533
2620.65289	0.97525
2618.59909	0.97520
2616.54529	0.97534
2614.49149	0.97535
2612.43768	0.97538
2610.38388	0.97538
2608.33008	0.97535
2606.27627	0.97541
2604.22247	0.97545
2602.16867	0.97549
2600.11486	0.97553
2598.06106	0.97547
2596.00726	0.97547
2593.95345	0.97558
2591.89965	0.97556
2589.84585	0.97523
2587.79204	0.97474
2585.73824	0.97448
2583.68444	0.97480
2581.63063	0.97549
2579.57683	0.97601
2577.52303	0.97598
2575.46922	0.97573
2573.41542	0.97582
2571.36162	0.97599
2569.30781	0.97596
2567.25401	0.97585
2565.20021	0.97567
2563.14640	0.97553
2561.09260	0.97537
2559.03880	0.97497
2556.98500	0.97446
2554.93119	0.97435
2552.87739	0.97474
2550.82359	0.97489
2548.76978	0.97470
2546.71598	0.97449
2544.66218	0.97429
2542.60837	0.97431
2540.55457	0.97425
2538.50077	0.97403
2536.44696	0.97424
2534.39316	0.97458
2532.33936	0.97438
2530.28555	0.97410
2528.23175	0.97455
2526.17795	0.97509
2524.12414	0.97471
2522.07034	0.97396
2520.01654	0.97402
2517.96273	0.97484
2515.90893	0.97550
2513.85513	0.97583
2511.80132	0.97622
2509.74752	0.97637
2507.69372	0.97585
2505.63992	0.97553
2503.58611	0.97585
2501.53231	0.97603
2499.47851	0.97613
2497.42470	0.97629
2495.37090	0.97642
2493.31710	0.97667
2491.26329	0.97675
2489.20949	0.97676
2487.15569	0.97693
2485.10188	0.97696
2483.04808	0.97683
2480.99428	0.97704
2478.94047	0.97770
2476.88667	0.97807
2474.83287	0.97759
2472.77906	0.97670
2470.72526	0.97680
2468.67146	0.97811
2466.61765	0.97907
2464.56385	0.97873
2462.51005	0.97758
2460.45624	0.97681
2458.40244	0.97685
2456.34864	0.97727
2454.29483	0.97776
2452.24103	0.97808
2450.18723	0.97796
2448.13343	0.97721
2446.07962	0.97643
2444.02582	0.97611
2441.97202	0.97618
2439.91821	0.97680
2437.86441	0.97723
2435.81061	0.97683
2433.75680	0.97678
2431.70300	0.97742
2429.64920	0.97769
2427.59539	0.97770
2425.54159	0.97830
2423.48779	0.97905
2421.43398	0.97934
2419.38018	0.97936
2417.32638	0.97919
2415.27257	0.97895
2413.21877	0.97902
2411.16497	0.97905
2409.11116	0.97833
2407.05736	0.97760
2405.00356	0.97761
2402.94975	0.97796
2400.89595	0.97823
2398.84215	0.97830
2396.78834	0.97825
2394.73454	0.97823
2392.68074	0.97838
2390.62694	0.97860
2388.57313	0.97867
2386.51933	0.97857
2384.46553	0.97840
2382.41172	0.97830
2380.35792	0.97799
2378.30412	0.97776
2376.25031	0.97803
2374.19651	0.97796
2372.14271	0.97709
2370.08890	0.97628
2368.03510	0.97620
2365.98130	0.97651
2363.92749	0.97672
2361.87369	0.97668
2359.81989	0.97653
2357.76608	0.97666
2355.71228	0.97689
2353.65848	0.97680
2351.60467	0.97672
2349.55087	0.97703
2347.49707	0.97735
2345.44326	0.97753
2343.38946	0.97720
2341.33566	0.97634
2339.28186	0.97634
2337.22805	0.97709
2335.17425	0.97743
2333.12045	0.97718
2331.06664	0.97684
2329.01284	0.97687
2326.95904	0.97694
2324.90523	0.97645
2322.85143	0.97600
2320.79763	0.97643
2318.74382	0.97716
2316.69002	0.97754
2314.63622	0.97740
2312.58241	0.97677
2310.52861	0.97629
2308.47481	0.97656
2306.42100	0.97695
2304.36720	0.97700
2302.31340	0.97702
2300.25959	0.97711
2298.20579	0.97713
2296.15199	0.97696
2294.09818	0.97703
2292.04438	0.97719
2289.99058	0.97684
2287.93677	0.97653
2285.88297	0.97687
2283.82917	0.97735
2281.77537	0.97699
2279.72156	0.97645
2277.66776	0.97698
2275.61396	0.97755
2273.56015	0.97719
2271.50635	0.97696
2269.45255	0.97711
2267.39874	0.97719
2265.34494	0.97747
2263.29114	0.97792
2261.23733	0.97786
2259.18353	0.97729
2257.12973	0.97708
2255.07592	0.97716
2253.02212	0.97727
2250.96832	0.97751
2248.91451	0.97740
2246.86071	0.97731
2244.80691	0.97760
2242.75310	0.97775
2240.69930	0.97729
2238.64550	0.97656
2236.59169	0.97656
2234.53789	0.97710
2232.48409	0.97802
2230.43029	0.97886
2228.37648	0.97877
2226.32268	0.97810
2224.26888	0.97771
2222.21507	0.97819
2220.16127	0.97869
2218.10747	0.97848
2216.05366	0.97782
2213.99986	0.97758
2211.94606	0.97809
2209.89225	0.97833
2207.83845	0.97775
2205.78465	0.97672
2203.73084	0.97731
2201.67704	0.97953
2199.62324	0.98006
2197.56943	0.97840
2195.51563	0.97736
2193.46183	0.97777
2191.40802	0.97857
2189.35422	0.97910
2187.30042	0.97845
2185.24661	0.97656
2183.19281	0.97429
2181.13901	0.97288
2179.08520	0.97346
2177.03140	0.97631
2174.97760	0.97966
2172.92380	0.98133
2170.86999	0.98101
2168.81619	0.97883
2166.76239	0.97656
2164.70858	0.97687
2162.65478	0.97901
2160.60098	0.98093
2158.54717	0.98174
2156.49337	0.98076
2154.43957	0.97950
2152.38576	0.97955
2150.33196	0.98097
2148.27816	0.98316
2146.22435	0.98455
2144.17055	0.98333
2142.11675	0.98060
2140.06294	0.98010
2138.00914	0.98157
2135.95534	0.98243
2133.90153	0.98321
2131.84773	0.98392
2129.79393	0.98316
2127.74012	0.98187
2125.68632	0.98180
2123.63252	0.98213
2121.57871	0.98112
2119.52491	0.97978
2117.47111	0.97933
2115.41731	0.97898
2113.36350	0.97870
2111.30970	0.97838
2109.25590	0.97798
2107.20209	0.97877
2105.14829	0.98009
2103.09449	0.98062
2101.04068	0.98032
2098.98688	0.97954
2096.93308	0.97994
2094.87927	0.98100
2092.82547	0.98114
2090.77167	0.98114
2088.71786	0.98119
2086.66406	0.98116
2084.61026	0.98080
2082.55645	0.97997
2080.50265	0.97945
2078.44885	0.97938
2076.39504	0.97927
2074.34124	0.97888
2072.28744	0.97913
2070.23363	0.98089
2068.17983	0.98288
2066.12603	0.98341
2064.07223	0.98288
2062.01842	0.98169
2059.96462	0.97979
2057.91082	0.97854
2055.85701	0.97894
2053.80321	0.98067
2051.74941	0.98218
2049.69560	0.98212
2047.64180	0.98101
2045.58800	0.98084
2043.53419	0.98138
2041.48039	0.97971
2039.42659	0.97857
2037.37278	0.98118
2035.31898	0.98417
2033.26518	0.98518
2031.21137	0.98388
2029.15757	0.98085
2027.10377	0.97793
2025.04996	0.97699
2022.99616	0.97877
2020.94236	0.98155
2018.88855	0.98225
2016.83475	0.98018
2014.78095	0.97863
2012.72714	0.97851
2010.67334	0.97999
2008.61954	0.98375
2006.56574	0.98648
2004.51193	0.98650
2002.45813	0.98388
2000.40433	0.97938
1998.35052	0.97716
1996.29672	0.97898
1994.24292	0.98158
1992.18911	0.98265
1990.13531	0.98322
1988.08151	0.98408
1986.02770	0.98413
1983.97390	0.98279
1981.92010	0.98239
1979.86629	0.98430
1977.81249	0.98587
1975.75869	0.98451
1973.70488	0.98057
1971.65108	0.97816
1969.59728	0.97949
1967.54347	0.98144
1965.48967	0.98206
1963.43587	0.98210
1961.38206	0.98215
1959.32826	0.98260
1957.27446	0.98285
1955.22066	0.98209
1953.16685	0.98116
1951.11305	0.98076
1949.05925	0.98018
1947.00544	0.97943
1944.95164	0.97963
1942.89784	0.98097
1940.84403	0.98247
1938.79023	0.98257
1936.73643	0.98064
1934.68262	0.97894
1932.62882	0.97891
1930.57502	0.97939
1928.52121	0.98023
1926.46741	0.98146
1924.41361	0.98197
1922.35980	0.98179
1920.30600	0.98161
1918.25220	0.98167
1916.19839	0.98209
1914.14459	0.98202
1912.09079	0.98130
1910.03698	0.98084
1907.98318	0.98142
1905.92938	0.98235
1903.87557	0.98235
1901.82177	0.98141
1899.76797	0.98042
1897.71417	0.98041
1895.66036	0.98072
1893.60656	0.98043
1891.55276	0.98016
1889.49895	0.98046
1887.44515	0.98082
1885.39135	0.98039
1883.33754	0.97989
1881.28374	0.98010
1879.22994	0.98071
1877.17613	0.98117
1875.12233	0.98113
1873.06853	0.98090
1871.01472	0.98080
1868.96092	0.98067
1866.90712	0.98065
1864.85331	0.98073
1862.79951	0.98074
1860.74571	0.98089
1858.69190	0.98120
1856.63810	0.98131
1854.58430	0.98099
1852.53049	0.98058
1850.47669	0.98063
1848.42289	0.98090
1846.36908	0.98100
1844.31528	0.98068
1842.26148	0.97966
1840.20768	0.97891
1838.15387	0.97884
1836.10007	0.97890
1834.04627	0.97914
1831.99246	0.97955
1829.93866	0.97946
1827.88486	0.97874
1825.83105	0.97797
1823.77725	0.97748
1821.72345	0.97726
1819.66964	0.97739
1817.61584	0.97775
1815.56204	0.97770
1813.50823	0.97732
1811.45443	0.97730
1809.40063	0.97754
1807.34682	0.97736
1805.29302	0.97717
1803.23922	0.97752
1801.18541	0.97789
1799.13161	0.97788
1797.07781	0.97790
1795.02400	0.97825
1792.97020	0.97847
1790.91640	0.97834
1788.86260	0.97860
1786.80879	0.97903
1784.75499	0.97929
1782.70119	0.97930
1780.64738	0.97908
1778.59358	0.97903
1776.53978	0.97921
1774.48597	0.97923
1772.43217	0.97881
1770.37837	0.97860
1768.32456	0.97898
1766.27076	0.97925
1764.21696	0.97895
1762.16315	0.97860
1760.10935	0.97889
1758.05555	0.97922
1756.00174	0.97896
1753.94794	0.97850
1751.89414	0.97798
1749.84033	0.97728
1747.78653	0.97678
1745.73273	0.97624
1743.67892	0.97542
1741.62512	0.97435
1739.57132	0.97311
1737.51751	0.97214
1735.46371	0.97104
1733.40991	0.96961
1731.35611	0.96890
1729.30230	0.96831
1727.24850	0.96766
1725.19470	0.96736
1723.14089	0.96731
1721.08709	0.96735
1719.03329	0.96732
1716.97948	0.96733
1714.92568	0.96779
1712.87188	0.96841
1710.81807	0.96898
1708.76427	0.96979
1706.71047	0.97080
1704.65666	0.97142
1702.60286	0.97153
1700.54906	0.97148
1698.49525	0.97175
1696.44145	0.97168
1694.38765	0.97095
1692.33384	0.97066
1690.28004	0.97072
1688.22624	0.97056
1686.17243	0.96989
1684.11863	0.96901
1682.06483	0.96908
1680.01103	0.96947
1677.95722	0.96956
1675.90342	0.96939
1673.84962	0.96893
1671.79581	0.96845
1669.74201	0.96792
1667.68821	0.96733
1665.63440	0.96680
1663.58060	0.96631
1661.52680	0.96623
1659.47299	0.96637
1657.41919	0.96619
1655.36539	0.96541
1653.31158	0.96409
1651.25778	0.96416
1649.20398	0.96492
1647.15017	0.96513
1645.09637	0.96500
1643.04257	0.96488
1640.98876	0.96449
1638.93496	0.96413
1636.88116	0.96412
1634.82735	0.96392
1632.77355	0.96350
1630.71975	0.96329
1628.66594	0.96292
1626.61214	0.96236
1624.55834	0.96205
1622.50454	0.96202
1620.45073	0.96220
1618.39693	0.96245
1616.34313	0.96297
1614.28932	0.96371
1612.23552	0.96412
1610.18172	0.96417
1608.12791	0.96409
1606.07411	0.96432
1604.02031	0.96500
1601.96650	0.96549
1599.91270	0.96538
1597.85890	0.96507
1595.80509	0.96497
1593.75129	0.96525
1591.69749	0.96583
1589.64368	0.96637
1587.58988	0.96662
1585.53608	0.96653
1583.48227	0.96621
1581.42847	0.96600
1579.37467	0.96597
1577.32086	0.96564
1575.26706	0.96500
1573.21326	0.96486
1571.15945	0.96444
1569.10565	0.96306
1567.05185	0.96146
1564.99805	0.95998
1562.94424	0.95873
1560.89044	0.95757
1558.83664	0.95520
1556.78283	0.95350
1554.72903	0.95309
1552.67523	0.95212
1550.62142	0.95061
1548.56762	0.94909
1546.51382	0.94796
1544.46001	0.94688
1542.40621	0.94555
1540.35241	0.94363
1538.29860	0.94171
1536.24480	0.94090
1534.19100	0.94003
1532.13719	0.93835
1530.08339	0.93665
1528.02959	0.93493
1525.97578	0.93288
1523.92198	0.93124
1521.86818	0.92964
1519.81437	0.92759
1517.76057	0.92538
1515.70677	0.92291
1513.65297	0.92063
1511.59916	0.91852
1509.54536	0.91621
1507.49156	0.91229
1505.43775	0.90757
1503.38395	0.90526
1501.33015	0.90327
1499.27634	0.90051
1497.22254	0.89690
1495.16874	0.89316
1493.11493	0.89052
1491.06113	0.88792
1489.00733	0.88410
1486.95352	0.88051
1484.89972	0.87788
1482.84592	0.87539
1480.79211	0.87263
1478.73831	0.86995
1476.68451	0.86705
1474.63070	0.86338
1472.57690	0.85916
1470.52310	0.85580
1468.46929	0.85338
1466.41549	0.85034
1464.36169	0.84630
1462.30788	0.84314
1460.25408	0.84103
1458.20028	0.83788
1456.14648	0.83355
1454.09267	0.83104
1452.03887	0.82935
1449.98507	0.82739
1447.93126	0.82509
1445.87746	0.82296
1443.82366	0.82130
1441.76985	0.81938
1439.71605	0.81700
1437.66225	0.81366
1435.60844	0.80965
1433.55464	0.80744
1431.50084	0.80620
1429.44703	0.80474
1427.39323	0.80361
1425.33943	0.80329
1423.28562	0.80376
1421.23182	0.80485
1419.17802	0.80632
1417.12421	0.80826
1415.07041	0.81081
1413.01661	0.81370
1410.96280	0.81639
1408.90900	0.81869
1406.85520	0.82075
1404.80139	0.82290
1402.74759	0.82519
1400.69379	0.82734
1398.63999	0.82952
1396.58618	0.83192
1394.53238	0.83432
1392.47858	0.83647
1390.42477	0.83838
1388.37097	0.84011
1386.31717	0.84173
1384.26336	0.84323
1382.20956	0.84463
1380.15576	0.84623
1378.10195	0.84820
1376.04815	0.85015
1373.99435	0.85184
1371.94054	0.85359
1369.88674	0.85551
1367.83294	0.85731
1365.77913	0.85868
1363.72533	0.85993
1361.67153	0.86136
1359.61772	0.86272
1357.56392	0.86410
1355.51012	0.86564
1353.45631	0.86700
1351.40251	0.86822
1349.34871	0.86968
1347.29491	0.87127
1345.24110	0.87267
1343.18730	0.87371
1341.13350	0.87408
1339.07969	0.87370
1337.02589	0.87312
1334.97209	0.87279
1332.91828	0.87268
1330.86448	0.87267
1328.81068	0.87289
1326.75687	0.87355
1324.70307	0.87443
1322.64927	0.87535
1320.59546	0.87648
1318.54166	0.87785
1316.48786	0.87937
1314.43405	0.88096
1312.38025	0.88273
1310.32645	0.88454
1308.27264	0.88601
1306.21884	0.88726
1304.16504	0.88840
1302.11123	0.88917
1300.05743	0.88977
1298.00363	0.89064
1295.94982	0.89153
1293.89602	0.89214
1291.84222	0.89277
1289.78842	0.89350
1287.73461	0.89418
1285.68081	0.89486
1283.62701	0.89547
1281.57320	0.89589
1279.51940	0.89610
1277.46560	0.89618
1275.41179	0.89611
1273.35799	0.89580
1271.30419	0.89517
1269.25038	0.89425
1267.19658	0.89307
1265.14278	0.89166
1263.08897	0.89026
1261.03517	0.88889
1258.98137	0.88733
1256.92756	0.88594
1254.87376	0.88516
1252.81996	0.88486
1250.76615	0.88470
1248.71235	0.88476
1246.65855	0.88502
1244.60474	0.88532
1242.55094	0.88573
1240.49714	0.88626
1238.44334	0.88694
1236.38953	0.88787
1234.33573	0.88874
1232.28193	0.88949
1230.22812	0.89061
1228.17432	0.89216
1226.12052	0.89388
1224.06671	0.89565
1222.01291	0.89727
1219.95911	0.89843
1217.90530	0.89892
1215.85150	0.89881
1213.79770	0.89827
1211.74389	0.89754
1209.69009	0.89656
1207.63629	0.89499
1205.58248	0.89307
1203.52868	0.89136
1201.47488	0.88961
1199.42107	0.88759
1197.36727	0.88561
1195.31347	0.88356
1193.25966	0.88124
1191.20586	0.87879
1189.15206	0.87654
1187.09825	0.87454
1185.04445	0.87247
1182.99065	0.87012
1180.93685	0.86757
1178.88304	0.86496
1176.82924	0.86235
1174.77544	0.85957
1172.72163	0.85668
1170.66783	0.85413
1168.61403	0.85179
1166.56022	0.84927
1164.50642	0.84701
1162.45262	0.84549
1160.39881	0.84472
1158.34501	0.84447
1156.29121	0.84389
1154.23740	0.84269
1152.18360	0.84137
1150.12980	0.84000
1148.07599	0.83842
1146.02219	0.83664
1143.96839	0.83496
1141.91458	0.83378
1139.86078	0.83301
1137.80698	0.83237
1135.75317	0.83162
1133.69937	0.83067
1131.64557	0.82934
1129.59176	0.82770
1127.53796	0.82620
1125.48416	0.82477
1123.43036	0.82304
1121.37655	0.82084
1119.32275	0.81846
1117.26895	0.81621
1115.21514	0.81391
1113.16134	0.81158
1111.10754	0.80921
1109.05373	0.80648
1106.99993	0.80364
1104.94613	0.80129
1102.89232	0.79921
1100.83852	0.79684
1098.78472	0.79468
1096.73091	0.79333
1094.67711	0.79250
1092.62331	0.79181
1090.56950	0.79128
1088.51570	0.79100
1086.46190	0.79109
1084.40809	0.79159
1082.35429	0.79225
1080.30049	0.79305
1078.24668	0.79375
1076.19288	0.79366
1074.13908	0.79281
1072.08528	0.79218
1070.03147	0.79220
1067.97767	0.79190
1065.92387	0.79062
1063.87006	0.78891
1061.81626	0.78709
1059.76246	0.78499
1057.70865	0.78265
1055.65485	0.78058
1053.60105	0.77884
1051.54724	0.77678
1049.49344	0.77416
1047.43964	0.77130
1045.38583	0.76851
1043.33203	0.76593
1041.27823	0.76339
1039.22442	0.76075
1037.17062	0.75845
1035.11682	0.75641
1033.06301	0.75447
1031.00921	0.75290
1028.95541	0.75203
1026.90160	0.75185
1024.84780	0.75202
1022.79400	0.75190
1020.74019	0.75109
1018.68639	0.75030
1016.63259	0.74994
1014.57879	0.74958
1012.52498	0.74921
1010.47118	0.74869
1008.41738	0.74797
1006.36357	0.74792
1004.30977	0.74891
1002.25597	0.75039
1000.20216	0.75202
998.14836	0.75380
996.09456	0.75581
994.04075	0.75829
991.98695	0.76111
989.93315	0.76424
987.87934	0.76811
985.82554	0.77243
983.77174	0.77638
981.71793	0.78021
979.66413	0.78432
977.61033	0.78841
975.55652	0.79232
973.50272	0.79619
971.44892	0.80014
969.39511	0.80434
967.34131	0.80842
965.28751	0.81203
963.23371	0.81573
961.17990	0.81962
959.12610	0.82331
957.07230	0.82697
955.01849	0.83090
952.96469	0.83486
950.91089	0.83861
948.85708	0.84226
946.80328	0.84571
944.74948	0.84887
942.69567	0.85173
940.64187	0.85434
938.58807	0.85699
936.53426	0.85974
934.48046	0.86266
932.42666	0.86566
930.37285	0.86821
928.31905	0.87023
926.26525	0.87202
924.21144	0.87370
922.15764	0.87495
920.10384	0.87591
918.05003	0.87718
915.99623	0.87849
913.94243	0.87964
911.88862	0.88112
909.83482	0.88327
907.78102	0.88615
905.72722	0.88933
903.67341	0.89226
901.61961	0.89505
899.56581	0.89710
897.51200	0.89722
895.45820	0.89523
893.40440	0.89069
891.35059	0.88214
889.29679	0.86858
887.24299	0.85013
885.18918	0.82864
883.13538	0.80774
881.08158	0.79087
879.02777	0.77974
876.97397	0.77439
874.92017	0.77485
872.86636	0.78169
870.81256	0.79387
868.75876	0.80872
866.70495	0.82408
864.65115	0.83824
862.59735	0.85046
860.54354	0.86129
858.48974	0.87101
856.43594	0.87819
854.38213	0.88039
852.32833	0.88034
850.27453	0.88415
848.22073	0.89083
846.16692	0.89612
844.11312	0.89992
842.05932	0.90335
840.00551	0.90600
837.95171	0.90727
835.89791	0.90766
833.84410	0.90785
831.79030	0.90821
829.73650	0.90948
827.68269	0.91179
825.62889	0.91342
823.57509	0.91388
821.52128	0.91421
819.46748	0.91433
817.41368	0.91412
815.35987	0.91418
813.30607	0.91389
811.25227	0.91183
809.19846	0.90799
807.14466	0.90303
805.09086	0.89692
803.03705	0.89083
800.98325	0.88620
798.92945	0.88361
796.87565	0.88352
794.82184	0.88487
792.76804	0.88623
790.71424	0.88698
788.66043	0.88689
786.60663	0.88572
784.55283	0.88342
782.49902	0.88104
780.44522	0.87944
778.39142	0.87888
776.33761	0.87992
774.28381	0.88247
772.23001	0.88421
770.17620	0.88411
768.12240	0.88354
766.06860	0.88274
764.01479	0.88148
761.96099	0.88012
759.90719	0.87935
757.85338	0.87941
755.79958	0.87946
753.74578	0.87922
751.69197	0.87926
749.63817	0.87934
747.58437	0.87870
745.53056	0.87737
743.47676	0.87615
741.42296	0.87593
739.36916	0.87624
737.31535	0.87530
735.26155	0.86992
733.20775	0.85730
731.15394	0.83954
729.10014	0.82410
727.04634	0.81879
724.99253	0.82393
722.93873	0.83274
720.88493	0.84008
718.83112	0.84554
716.77732	0.84926
714.72352	0.85100
712.66971	0.85216
710.61591	0.85299
708.56211	0.85242
706.50830	0.85100
704.45450	0.84930
702.40070	0.84755
700.34689	0.84565
698.29309	0.84298
696.23929	0.84093
694.18548	0.84075
692.13168	0.84080
690.07788	0.84018
688.02408	0.83982
685.97027	0.84005
683.91647	0.84049
681.86267	0.84086
679.80886	0.84106
677.75506	0.84051
675.70126	0.83946
673.64745	0.83943
671.59365	0.84012
669.53985	0.84064
667.48604	0.84212
665.43224	0.84372
663.37844	0.84402
661.32463	0.84320
659.27083	0.84167
657.21703	0.84001
655.16322	0.83801
653.10942	0.83522
651.05562	0.83261
649.00181	0.83093
646.94801	0.82945
644.89421	0.82813
642.84040	0.82758
640.78660	0.82792
638.73280	0.82838
636.67899	0.82774
634.62519	0.82635
632.57139	0.82578
630.51759	0.82642
628.46378	0.82720
626.40998	0.82727
624.35618	0.82634
622.30237	0.82369
620.24857	0.82008
618.19477	0.81789
616.14096	0.81733
614.08716	0.81573
612.03336	0.81225
609.97955	0.80908
607.92575	0.80768
605.87195	0.80724
603.81814	0.80639
601.76434	0.80527
599.71054	0.80466
597.65673	0.80413
595.60293	0.80404
593.54913	0.80450
591.49532	0.80431
589.44152	0.80449
587.38772	0.80556
585.33391	0.80694
583.28011	0.80914
581.22631	0.81129
579.17250	0.81192
577.11870	0.81237
575.06490	0.81452
573.01110	0.81670
570.95729	0.81740
568.90349	0.81819
566.84969	0.81971
564.79588	0.82056
562.74208	0.82128
560.68828	0.82188
558.63447	0.82006
556.58067	0.81623
554.52687	0.81350
552.47306	0.81259
550.41926	0.81150
548.36546	0.80993
546.31165	0.80852
544.25785	0.80669
542.20405	0.80479
540.15024	0.80347
538.09644	0.80085
536.04264	0.79637
533.98883	0.79337
531.93503	0.79288
529.88123	0.79283
527.82742	0.79243
525.77362	0.79159
523.71982	0.79011
521.66602	0.78963
519.61221	0.79080
517.55841	0.79131
515.50461	0.79055
513.45080	0.79094
511.39700	0.79334
509.34320	0.79502
507.28939	0.79480
505.23559	0.79592
503.18179	0.79881
501.12798	0.80107
499.07418	0.80270
497.02038	0.80353
494.96657	0.80270
492.91277	0.80147
490.85897	0.80086
488.80516	0.79957
486.75136	0.79634
484.69756	0.79207
482.64375	0.78912
480.58995	0.78628
478.53615	0.78079
476.48234	0.77534
474.42854	0.77217
472.37474	0.76880
470.32093	0.76553
468.26713	0.76457
466.21333	0.76310
464.15953	0.76025
462.10572	0.75998
460.05192	0.76252
457.99812	0.76705
455.94431	0.77247
453.89051	0.77601
451.83671	0.78049
449.78290	0.78906
447.72910	0.79750
445.67530	0.79952
443.62149	0.79711
441.56769	0.79590
439.51389	0.79572
437.46008	0.79535
435.40628	0.79379
433.35248	0.78849
431.29867	0.78286
429.24487	0.78258
427.19107	0.78337
425.13726	0.77976
423.08346	0.77458
421.02966	0.77108
418.97585	0.76765
416.92205	0.76234
414.86825	0.75746
412.81445	0.75417
410.76064	0.75169
408.70684	0.74814
406.65304	0.74558
404.59923	0.74407
402.54543	0.73522
400.49163	0.71736
398.43782	0.70404
