3996.70104	0.96399
3994.64724	0.96409
3992.59344	0.96454
3990.53964	0.96491
3988.48583	0.96510
3986.43203	0.96523
3984.37823	0.96530
3982.32442	0.96524
3980.27062	0.96484
3978.21682	0.96458
3976.16301	0.96482
3974.10921	0.96485
3972.05541	0.96469
3970.00160	0.96517
3967.94780	0.96586
3965.89400	0.96559
3963.84019	0.96486
3961.78639	0.96523
3959.73259	0.96608
3957.67878	0.96585
3955.62498	0.96505
3953.57118	0.96449
3951.51737	0.96407
3949.46357	0.96396
3947.40977	0.96412
3945.35596	0.96425
3943.30216	0.96472
3941.24836	0.96549
3939.19455	0.96566
3937.14075	0.96536
3935.08695	0.96518
3933.03315	0.96517
3930.97934	0.96539
3928.92554	0.96542
3926.87174	0.96511
3924.81793	0.96494
3922.76413	0.96512
3920.71033	0.96533
3918.65652	0.96511
3916.60272	0.96493
3914.54892	0.96544
3912.49511	0.96584
3910.44131	0.96557
3908.38751	0.96523
3906.33370	0.96546
3904.27990	0.96600
3902.22610	0.96593
3900.17229	0.96577
3898.11849	0.96623
3896.06469	0.96645
3894.01088	0.96607
3891.95708	0.96566
3889.90328	0.96562
3887.84947	0.96592
3885.79567	0.96660
3883.74187	0.96709
3881.68807	0.96718
3879.63426	0.96725
3877.58046	0.96694
3875.52666	0.96621
3873.47285	0.96555
3871.41905	0.96562
3869.36525	0.96638
3867.31144	0.96655
3865.25764	0.96617
3863.20384	0.96626
3861.15003	0.96642
3859.09623	0.96610
3857.04243	0.96582
3854.98862	0.96632
3852.93482	0.96750
3850.88102	0.96707
3848.82721	0.96585
3846.77341	0.96524
3844.71961	0.96522
3842.66580	0.96512
3840.61200	0.96543
3838.55820	0.96705
3836.50439	0.96774
3834.45059	0.96681
3832.39679	0.96638
3830.34298	0.96622
3828.28918	0.96553
3826.23538	0.96499
3824.18158	0.96508
3822.12777	0.96545
3820.07397	0.96587
3818.02017	0.96548
3815.96636	0.96459
3813.91256	0.96452
3811.85876	0.96493
3809.80495	0.96571
3807.75115	0.96675
3805.69735	0.96675
3803.64354	0.96589
3801.58974	0.96546
3799.53594	0.96534
3797.48213	0.96506
3795.42833	0.96548
3793.37453	0.96646
3791.32072	0.96701
3789.26692	0.96704
3787.21312	0.96687
3785.15931	0.96656
3783.10551	0.96610
3781.05171	0.96572
3778.99790	0.96539
3776.94410	0.96490
3774.89030	0.96484
3772.83650	0.96557
3770.78269	0.96622
3768.72889	0.96610
3766.67509	0.96623
3764.62128	0.96658
3762.56748	0.96619
3760.51368	0.96590
3758.45987	0.96670
3756.40607	0.96734
3754.35227	0.96712
3752.29846	0.96663
3750.24466	0.96650
3748.19086	0.96721
3746.13705	0.96792
3744.08325	0.96784
3742.02945	0.96727
3739.97564	0.96669
3737.92184	0.96616
3735.86804	0.96621
3733.81423	0.96665
3731.76043	0.96681
3729.70663	0.96730
3727.65282	0.96805
3725.59902	0.96847
3723.54522	0.96821
3721.49141	0.96752
3719.43761	0.96729
3717.38381	0.96722
3715.33001	0.96640
3713.27620	0.96534
3711.22240	0.96437
3709.16860	0.96311
3707.11479	0.96212
3705.06099	0.96166
3703.00719	0.96142
3700.95338	0.96048
3698.89958	0.95895
3696.84578	0.95829
3694.79197	0.95830
3692.73817	0.95825
3690.68437	0.95872
3688.63056	0.95950
3686.57676	0.95986
3684.52296	0.96045
3682.46915	0.96127
3680.41535	0.96164
3678.36155	0.96112
3676.30774	0.96016
3674.25394	0.95957
3672.20014	0.95945
3670.14633	0.95967
3668.09253	0.95969
3666.03873	0.95916
3663.98492	0.95886
3661.93112	0.95907
3659.87732	0.95919
3657.82352	0.95877
3655.76971	0.95768
3653.71591	0.95650
3651.66211	0.95619
3649.60830	0.95678
3647.55450	0.95641
3645.50070	0.95523
3643.44689	0.95474
3641.39309	0.95470
3639.33929	0.95436
3637.28548	0.95377
3635.23168	0.95351
3633.17788	0.95347
3631.12407	0.95322
3629.07027	0.95299
3627.01647	0.95270
3624.96266	0.95182
3622.90886	0.95091
3620.85506	0.95090
3618.80125	0.95176
3616.74745	0.95175
3614.69365	0.95106
3612.63984	0.95096
3610.58604	0.95078
3608.53224	0.95013
3606.47844	0.95009
3604.42463	0.95053
3602.37083	0.95083
3600.31703	0.95111
3598.26322	0.95134
3596.20942	0.95119
3594.15562	0.95091
3592.10181	0.95086
3590.04801	0.95042
3587.99421	0.94958
3585.94040	0.94986
3583.88660	0.95080
3581.83280	0.95101
3579.77899	0.95067
3577.72519	0.95021
3575.67139	0.94998
3573.61758	0.94977
3571.56378	0.94940
3569.50998	0.94962
3567.45617	0.95018
3565.40237	0.94988
3563.34857	0.94941
3561.29476	0.94945
3559.24096	0.94953
3557.18716	0.94923
3555.13335	0.94878
3553.07955	0.94837
3551.02575	0.94792
3548.97195	0.94768
3546.91814	0.94766
3544.86434	0.94720
3542.81054	0.94644
3540.75673	0.94607
3538.70293	0.94606
3536.64913	0.94611
3534.59532	0.94614
3532.54152	0.94629
3530.48772	0.94653
3528.43391	0.94657
3526.38011	0.94646
3524.32631	0.94659
3522.27250	0.94661
3520.21870	0.94601
3518.16490	0.94536
3516.11109	0.94522
3514.05729	0.94512
3512.00349	0.94503
3509.94968	0.94546
3507.89588	0.94571
3505.84208	0.94533
3503.78827	0.94495
3501.73447	0.94470
3499.68067	0.94424
3497.62687	0.94394
3495.57306	0.94402
3493.51926	0.94412
3491.46546	0.94407
3489.41165	0.94398
3487.35785	0.94412
3485.30405	0.94405
3483.25024	0.94371
3481.19644	0.94385
3479.14264	0.94407
3477.08883	0.94395
3475.03503	0.94405
3472.98123	0.94384
3470.92742	0.94277
3468.87362	0.94180
3466.81982	0.94157
3464.76601	0.94155
3462.71221	0.94130
3460.65841	0.94116
3458.60460	0.94122
3456.55080	0.94106
3454.49700	0.94068
3452.44319	0.94039
3450.38939	0.94025
3448.33559	0.94025
3446.28178	0.94029
3444.22798	0.94018
3442.17418	0.94011
3440.12038	0.94005
3438.06657	0.93998
3436.01277	0.93986
3433.95897	0.93947
3431.90516	0.93903
3429.85136	0.93882
3427.79756	0.93899
3425.74375	0.93943
3423.68995	0.93960
3421.63615	0.93949
3419.58234	0.93957
3417.52854	0.93964
3415.47474	0.93942
3413.42093	0.93908
3411.36713	0.93855
3409.31333	0.93804
3407.25952	0.93806
3405.20572	0.93827
3403.15192	0.93822
3401.09811	0.93821
3399.04431	0.93842
3396.99051	0.93836
3394.93670	0.93764
3392.88290	0.93699
3390.82910	0.93736
3388.77529	0.93818
3386.72149	0.93851
3384.66769	0.93835
3382.61389	0.93802
3380.56008	0.93769
3378.50628	0.93747
3376.45248	0.93740
3374.39867	0.93756
3372.34487	0.93790
3370.29107	0.93823
3368.23726	0.93824
3366.18346	0.93802
3364.12966	0.93839
3362.07585	0.93888
3360.02205	0.93853
3357.96825	0.93788
3355.91444	0.93776
3353.86064	0.93809
3351.80684	0.93864
3349.75303	0.93929
3347.69923	0.93953
3345.64543	0.93932
3343.59162	0.93916
3341.53782	0.93874
3339.48402	0.93824
3337.43021	0.93852
3335.37641	0.93933
3333.32261	0.93969
3331.26881	0.93937
3329.21500	0.93896
3327.16120	0.93878
3325.10740	0.93897
3323.05359	0.93970
3320.99979	0.94030
3318.94599	0.94031
3316.89218	0.94019
3314.83838	0.94031
3312.78458	0.94076
3310.73077	0.94133
3308.67697	0.94170
3306.62317	0.94156
3304.56936	0.94085
3302.51556	0.94026
3300.46176	0.94023
3298.40795	0.94060
3296.35415	0.94087
3294.30035	0.94071
3292.24654	0.94073
3290.19274	0.94115
3288.13894	0.94141
3286.08513	0.94128
3284.03133	0.94091
3281.97753	0.94069
3279.92372	0.94073
3277.86992	0.94089
3275.81612	0.94112
3273.76232	0.94131
3271.70851	0.94139
3269.65471	0.94141
3267.60091	0.94132
3265.54710	0.94136
3263.49330	0.94183
3261.43950	0.94231
3259.38569	0.94262
3257.33189	0.94278
3255.27809	0.94266
3253.22428	0.94265
3251.17048	0.94269
3249.11668	0.94276
3247.06287	0.94326
3245.00907	0.94384
3242.95527	0.94423
3240.90146	0.94437
3238.84766	0.94408
3236.79386	0.94386
3234.74005	0.94415
3232.68625	0.94445
3230.63245	0.94459
3228.57864	0.94480
3226.52484	0.94474
3224.47104	0.94434
3222.41724	0.94406
3220.36343	0.94423
3218.30963	0.94484
3216.25583	0.94540
3214.20202	0.94547
3212.14822	0.94520
3210.09442	0.94504
3208.04061	0.94524
3205.98681	0.94556
3203.93301	0.94565
3201.87920	0.94584
3199.82540	0.94643
3197.77160	0.94699
3195.71779	0.94702
3193.66399	0.94664
3191.61019	0.94646
3189.55638	0.94686
3187.50258	0.94744
3185.44878	0.94783
3183.39497	0.94795
3181.34117	0.94788
3179.28737	0.94794
3177.23356	0.94818
3175.17976	0.94835
3173.12596	0.94851
3171.07215	0.94848
3169.01835	0.94803
3166.96455	0.94778
3164.91075	0.94809
3162.85694	0.94829
3160.80314	0.94818
3158.74934	0.94833
3156.69553	0.94881
3154.64173	0.94930
3152.58793	0.94986
3150.53412	0.95041
3148.48032	0.95063
3146.42652	0.95065
3144.37271	0.95092
3142.31891	0.95145
3140.26511	0.95157
3138.21130	0.95122
3136.15750	0.95120
3134.10370	0.95171
3132.04989	0.95221
3129.99609	0.95207
3127.94229	0.95138
3125.88848	0.95103
3123.83468	0.95149
3121.78088	0.95225
3119.72707	0.95262
3117.67327	0.95248
3115.61947	0.95200
3113.56566	0.95152
3111.51186	0.95125
3109.45806	0.95090
3107.40426	0.95040
3105.35045	0.94989
3103.29665	0.94931
3101.24285	0.94896
3099.18904	0.94929
3097.13524	0.94978
3095.08144	0.94979
3093.02763	0.94944
3090.97383	0.94871
3088.92003	0.94711
3086.86622	0.94491
3084.81242	0.94304
3082.75862	0.94174
3080.70481	0.94133
3078.65101	0.94218
3076.59721	0.94369
3074.54340	0.94499
3072.48960	0.94555
3070.43580	0.94520
3068.38199	0.94377
3066.32819	0.94176
3064.27439	0.94001
3062.22058	0.93800
3060.16678	0.93580
3058.11298	0.93524
3056.05918	0.93710
3054.00537	0.93990
3051.95157	0.94224
3049.89777	0.94395
3047.84396	0.94533
3045.79016	0.94650
3043.73636	0.94692
3041.68255	0.94652
3039.62875	0.94572
3037.57495	0.94430
3035.52114	0.94180
3033.46734	0.93789
3031.41354	0.93218
3029.35973	0.92518
3027.30593	0.91881
3025.25213	0.91539
3023.19832	0.91631
3021.14452	0.92091
3019.09072	0.92721
3017.03691	0.93355
3014.98311	0.93874
3012.92931	0.94208
3010.87550	0.94396
3008.82170	0.94499
3006.76790	0.94526
3004.71409	0.94506
3002.66029	0.94514
3000.60649	0.94572
2998.55269	0.94645
2996.49888	0.94732
2994.44508	0.94879
2992.39128	0.95050
2990.33747	0.95181
2988.28367	0.95259
2986.22987	0.95301
2984.17606	0.95341
2982.12226	0.95355
2980.06846	0.95317
2978.01465	0.95261
2975.96085	0.95241
2973.90705	0.95253
2971.85324	0.95226
2969.79944	0.95149
2967.74564	0.95079
2965.69183	0.95039
2963.63803	0.94992
2961.58423	0.94921
2959.53042	0.94846
2957.47662	0.94776
2955.42282	0.94717
2953.36901	0.94648
2951.31521	0.94535
2949.26141	0.94369
2947.20761	0.94181
2945.15380	0.93994
2943.10000	0.93755
2941.04620	0.93424
2938.99239	0.93043
2936.93859	0.92651
2934.88479	0.92267
2932.83098	0.91867
2930.77718	0.91399
2928.72338	0.90905
2926.66957	0.90492
2924.61577	0.90167
2922.56197	0.89901
2920.50816	0.89724
2918.45436	0.89670
2916.40056	0.89774
2914.34675	0.90021
2912.29295	0.90309
2910.23915	0.90615
2908.18534	0.90977
2906.13154	0.91339
2904.07774	0.91653
2902.02393	0.91969
2899.97013	0.92298
2897.91633	0.92586
2895.86252	0.92824
2893.80872	0.93067
2891.75492	0.93299
2889.70112	0.93452
2887.64731	0.93529
2885.59351	0.93591
2883.53971	0.93692
2881.48590	0.93819
2879.43210	0.93928
2877.37830	0.94027
2875.32449	0.94122
2873.27069	0.94174
2871.21689	0.94175
2869.16308	0.94191
2867.10928	0.94222
2865.05548	0.94189
2863.00167	0.94102
2860.94787	0.93969
2858.89407	0.93739
2856.84026	0.93447
2854.78646	0.93172
2852.73266	0.92924
2850.67885	0.92748
2848.62505	0.92736
2846.57125	0.92884
2844.51744	0.93146
2842.46364	0.93490
2840.40984	0.93840
2838.35603	0.94147
2836.30223	0.94429
2834.24843	0.94699
2832.19463	0.94915
2830.14082	0.95023
2828.08702	0.95065
2826.03322	0.95134
2823.97941	0.95235
2821.92561	0.95301
2819.87181	0.95281
2817.81800	0.95256
2815.76420	0.95303
2813.71040	0.95343
2811.65659	0.95357
2809.60279	0.95397
2807.54899	0.95426
2805.49518	0.95415
2803.44138	0.95414
2801.38758	0.95433
2799.33377	0.95428
2797.27997	0.95420
2795.22617	0.95449
2793.17236	0.95488
2791.11856	0.95510
2789.06476	0.95541
2787.01095	0.95582
2784.95715	0.95586
2782.90335	0.95548
2780.84955	0.95525
2778.79574	0.95542
2776.74194	0.95566
2774.68814	0.95575
2772.63433	0.95577
2770.58053	0.95576
2768.52673	0.95578
2766.47292	0.95587
2764.41912	0.95619
2762.36532	0.95670
2760.31151	0.95691
2758.25771	0.95679
2756.20391	0.95671
2754.15010	0.95679
2752.09630	0.95672
2750.04250	0.95657
2747.98869	0.95691
2745.93489	0.95753
2743.88109	0.95774
2741.82728	0.95740
2739.77348	0.95708
2737.71968	0.95722
2735.66587	0.95739
2733.61207	0.95738
2731.55827	0.95737
2729.50446	0.95735
2727.45066	0.95733
2725.39686	0.95728
2723.34306	0.95715
2721.28925	0.95711
2719.23545	0.95737
2717.18165	0.95756
2715.12784	0.95730
2713.07404	0.95696
2711.02024	0.95687
2708.96643	0.95697
2706.91263	0.95720
2704.85883	0.95728
2702.80502	0.95723
2700.75122	0.95735
2698.69742	0.95749
2696.64361	0.95748
2694.58981	0.95729
2692.53601	0.95718
2690.48220	0.95739
2688.42840	0.95763
2686.37460	0.95756
2684.32079	0.95722
2682.26699	0.95720
2680.21319	0.95788
2678.15938	0.95837
2676.10558	0.95803
2674.05178	0.95766
2671.99797	0.95770
2669.94417	0.95773
2667.89037	0.95768
2665.83657	0.95753
2663.78276	0.95737
2661.72896	0.95748
2659.67516	0.95768
2657.62135	0.95771
2655.56755	0.95761
2653.51375	0.95743
2651.45994	0.95734
2649.40614	0.95743
2647.35234	0.95760
2645.29853	0.95764
2643.24473	0.95742
2641.19093	0.95713
2639.13712	0.95698
2637.08332	0.95707
2635.02952	0.95739
2632.97571	0.95777
2630.92191	0.95803
2628.86811	0.95820
2626.81430	0.95838
2624.76050	0.95851
2622.70670	0.95858
2620.65289	0.95871
2618.59909	0.95890
2616.54529	0.95906
2614.49149	0.95907
2612.43768	0.95889
2610.38388	0.95884
2608.33008	0.95885
2606.27627	0.95827
2604.22247	0.95756
2602.16867	0.95767
2600.11486	0.95825
2598.06106	0.95871
2596.00726	0.95916
2593.95345	0.95975
2591.89965	0.96036
2589.84585	0.96057
2587.79204	0.96042
2585.73824	0.96042
2583.68444	0.96035
2581.63063	0.95980
2579.57683	0.95900
2577.52303	0.95865
2575.46922	0.95914
2573.41542	0.96001
2571.36162	0.96040
2569.30781	0.96018
2567.25401	0.95990
2565.20021	0.95980
2563.14640	0.96007
2561.09260	0.96055
2559.03880	0.96060
2556.98500	0.96023
2554.93119	0.95985
2552.87739	0.95995
2550.82359	0.96029
2548.76978	0.95986
2546.71598	0.95922
2544.66218	0.95899
2542.60837	0.95907
2540.55457	0.95955
2538.50077	0.95986
2536.44696	0.95997
2534.39316	0.96024
2532.33936	0.96026
2530.28555	0.95993
2528.23175	0.95974
2526.17795	0.95997
2524.12414	0.96015
2522.07034	0.95992
2520.01654	0.95984
2517.96273	0.96018
2515.90893	0.96029
2513.85513	0.95964
2511.80132	0.95906
2509.74752	0.95931
2507.69372	0.95950
2505.63992	0.95928
2503.58611	0.95923
2501.53231	0.95956
2499.47851	0.96013
2497.42470	0.96053
2495.37090	0.96064
2493.31710	0.96040
2491.26329	0.95961
2489.20949	0.95926
2487.15569	0.96020
2485.10188	0.96126
2483.04808	0.96111
2480.99428	0.96018
2478.94047	0.95972
2476.88667	0.96021
2474.83287	0.96104
2472.77906	0.96121
2470.72526	0.96085
2468.67146	0.96082
2466.61765	0.96085
2464.56385	0.96075
2462.51005	0.96061
2460.45624	0.96024
2458.40244	0.95993
2456.34864	0.96002
2454.29483	0.96011
2452.24103	0.96001
2450.18723	0.96018
2448.13343	0.96053
2446.07962	0.96062
2444.02582	0.96088
2441.97202	0.96142
2439.91821	0.96166
2437.86441	0.96168
2435.81061	0.96185
2433.75680	0.96175
2431.70300	0.96099
2429.64920	0.96039
2427.59539	0.96039
2425.54159	0.96012
2423.48779	0.95963
2421.43398	0.95955
2419.38018	0.95961
2417.32638	0.95997
2415.27257	0.96104
2413.21877	0.96197
2411.16497	0.96167
2409.11116	0.96071
2407.05736	0.96038
2405.00356	0.96062
2402.94975	0.96101
2400.89595	0.96149
2398.84215	0.96158
2396.78834	0.96135
2394.73454	0.96118
2392.68074	0.96083
2390.62694	0.96074
2388.57313	0.96108
2386.51933	0.96124
2384.46553	0.96107
2382.41172	0.96082
2380.35792	0.96080
2378.30412	0.96077
2376.25031	0.96084
2374.19651	0.96136
2372.14271	0.96133
2370.08890	0.96078
2368.03510	0.96059
2365.98130	0.96007
2363.92749	0.95957
2361.87369	0.96008
2359.81989	0.96072
2357.76608	0.96070
2355.71228	0.96052
2353.65848	0.95968
2351.60467	0.95856
2349.55087	0.95870
2347.49707	0.95948
2345.44326	0.96002
2343.38946	0.96030
2341.33566	0.95989
2339.28186	0.95890
2337.22805	0.95855
2335.17425	0.95912
2333.12045	0.95934
2331.06664	0.95874
2329.01284	0.95824
2326.95904	0.95834
2324.90523	0.95863
2322.85143	0.95896
2320.79763	0.95915
2318.74382	0.95878
2316.69002	0.95833
2314.63622	0.95826
2312.58241	0.95829
2310.52861	0.95826
2308.47481	0.95857
2306.42100	0.95921
2304.36720	0.95953
2302.31340	0.95932
2300.25959	0.95884
2298.20579	0.95875
2296.15199	0.95924
2294.09818	0.95984
2292.04438	0.96033
2289.99058	0.96037
2287.93677	0.95995
2285.88297	0.96003
2283.82917	0.96068
2281.77537	0.96072
2279.72156	0.95993
2277.66776	0.95936
2275.61396	0.95972
2273.56015	0.96064
2271.50635	0.96131
2269.45255	0.96115
2267.39874	0.96078
2265.34494	0.96124
2263.29114	0.96171
2261.23733	0.96080
2259.18353	0.95978
2257.12973	0.96057
2255.07592	0.96201
2253.02212	0.96245
2250.96832	0.96241
2248.91451	0.96200
2246.86071	0.96126
2244.80691	0.96123
2242.75310	0.96145
2240.69930	0.96128
2238.64550	0.96093
2236.59169	0.96071
2234.53789	0.96078
2232.48409	0.96059
2230.43029	0.95996
2228.37648	0.95975
2226.32268	0.96084
2224.26888	0.96253
2222.21507	0.96265
2220.16127	0.96108
2218.10747	0.96000
2216.05366	0.96055
2213.99986	0.96161
2211.94606	0.96137
2209.89225	0.96080
2207.83845	0.96149
2205.78465	0.96257
2203.73084	0.96221
2201.67704	0.96074
2199.62324	0.96060
2197.56943	0.96100
2195.51563	0.96140
2193.46183	0.96275
2191.40802	0.96383
2189.35422	0.96378
2187.30042	0.96338
2185.24661	0.96443
2183.19281	0.96605
2181.13901	0.96507
2179.08520	0.96314
2177.03140	0.96295
2174.97760	0.96366
2172.92380	0.96419
2170.86999	0.96383
2168.81619	0.96289
2166.76239	0.96221
2164.70858	0.96219
2162.65478	0.96258
2160.60098	0.96296
2158.54717	0.96373
2156.49337	0.96493
2154.43957	0.96657
2152.38576	0.96738
2150.33196	0.96716
2148.27816	0.96709
2146.22435	0.96585
2144.17055	0.96377
2142.11675	0.96279
2140.06294	0.96253
2138.00914	0.96306
2135.95534	0.96405
2133.90153	0.96372
2131.84773	0.96295
2129.79393	0.96303
2127.74012	0.96286
2125.68632	0.96229
2123.63252	0.96250
2121.57871	0.96329
2119.52491	0.96342
2117.47111	0.96300
2115.41731	0.96267
2113.36350	0.96251
2111.30970	0.96300
2109.25590	0.96342
2107.20209	0.96304
2105.14829	0.96268
2103.09449	0.96196
2101.04068	0.96147
2098.98688	0.96235
2096.93308	0.96282
2094.87927	0.96237
2092.82547	0.96262
2090.77167	0.96293
2088.71786	0.96240
2086.66406	0.96166
2084.61026	0.96145
2082.55645	0.96264
2080.50265	0.96445
2078.44885	0.96404
2076.39504	0.96177
2074.34124	0.96107
2072.28744	0.96176
2070.23363	0.96200
2068.17983	0.96193
2066.12603	0.96185
2064.07223	0.96223
2062.01842	0.96273
2059.96462	0.96246
2057.91082	0.96172
2055.85701	0.96117
2053.80321	0.96115
2051.74941	0.96124
2049.69560	0.96194
2047.64180	0.96420
2045.58800	0.96552
2043.53419	0.96396
2041.48039	0.96173
2039.42659	0.96164
2037.37278	0.96438
2035.31898	0.96699
2033.26518	0.96762
2031.21137	0.96902
2029.15757	0.97107
2027.10377	0.97001
2025.04996	0.96609
2022.99616	0.96158
2020.94236	0.95875
2018.88855	0.95839
2016.83475	0.95818
2014.78095	0.95968
2012.72714	0.96464
2010.67334	0.96950
2008.61954	0.97133
2006.56574	0.96905
2004.51193	0.96480
2002.45813	0.96283
2000.40433	0.96339
1998.35052	0.96418
1996.29672	0.96325
1994.24292	0.96179
1992.18911	0.96220
1990.13531	0.96338
1988.08151	0.96415
1986.02770	0.96427
1983.97390	0.96294
1981.92010	0.95983
1979.86629	0.95807
1977.81249	0.96191
1975.75869	0.96785
1973.70488	0.96905
1971.65108	0.96575
1969.59728	0.96242
1967.54347	0.96166
1965.48967	0.96160
1963.43587	0.96070
1961.38206	0.96079
1959.32826	0.96159
1957.27446	0.96224
1955.22066	0.96361
1953.16685	0.96514
1951.11305	0.96503
1949.05925	0.96187
1947.00544	0.95749
1944.95164	0.95565
1942.89784	0.95611
1940.84403	0.95663
1938.79023	0.95732
1936.73643	0.95775
1934.68262	0.95756
1932.62882	0.95770
1930.57502	0.95843
1928.52121	0.95979
1926.46741	0.96082
1924.41361	0.96094
1922.35980	0.96142
1920.30600	0.96224
1918.25220	0.96222
1916.19839	0.96145
1914.14459	0.96082
1912.09079	0.96073
1910.03698	0.96126
1907.98318	0.96184
1905.92938	0.96195
1903.87557	0.96199
1901.82177	0.96207
1899.76797	0.96187
1897.71417	0.96126
1895.66036	0.96026
1893.60656	0.95977
1891.55276	0.95992
1889.49895	0.95956
1887.44515	0.95860
1885.39135	0.95794
1883.33754	0.95801
1881.28374	0.95822
1879.22994	0.95805
1877.17613	0.95810
1875.12233	0.95843
1873.06853	0.95812
1871.01472	0.95680
1868.96092	0.95551
1866.90712	0.95581
1864.85331	0.95690
1862.79951	0.95787
1860.74571	0.95829
1858.69190	0.95803
1856.63810	0.95819
1854.58430	0.95889
1852.53049	0.95957
1850.47669	0.96019
1848.42289	0.96051
1846.36908	0.96064
1844.31528	0.96110
1842.26148	0.96148
1840.20768	0.96147
1838.15387	0.96132
1836.10007	0.96118
1834.04627	0.96120
1831.99246	0.96118
1829.93866	0.96071
1827.88486	0.95990
1825.83105	0.95972
1823.77725	0.95983
1821.72345	0.95927
1819.66964	0.95864
1817.61584	0.95835
1815.56204	0.95809
1813.50823	0.95761
1811.45443	0.95670
1809.40063	0.95581
1807.34682	0.95533
1805.29302	0.95479
1803.23922	0.95426
1801.18541	0.95429
1799.13161	0.95499
1797.07781	0.95586
1795.02400	0.95670
1792.97020	0.95755
1790.91640	0.95810
1788.86260	0.95843
1786.80879	0.95884
1784.75499	0.95914
1782.70119	0.95924
1780.64738	0.95936
1778.59358	0.95962
1776.53978	0.95982
1774.48597	0.95960
1772.43217	0.95921
1770.37837	0.95924
1768.32456	0.95928
1766.27076	0.95925
1764.21696	0.95950
1762.16315	0.95953
1760.10935	0.95869
1758.05555	0.95753
1756.00174	0.95627
1753.94794	0.95525
1751.89414	0.95476
1749.84033	0.95438
1747.78653	0.95385
1745.73273	0.95350
1743.67892	0.95342
1741.62512	0.95356
1739.57132	0.95363
1737.51751	0.95363
1735.46371	0.95389
1733.40991	0.95457
1731.35611	0.95527
1729.30230	0.95552
1727.24850	0.95548
1725.19470	0.95547
1723.14089	0.95549
1721.08709	0.95556
1719.03329	0.95568
1716.97948	0.95594
1714.92568	0.95606
1712.87188	0.95579
1710.81807	0.95537
1708.76427	0.95507
1706.71047	0.95518
1704.65666	0.95526
1702.60286	0.95496
1700.54906	0.95448
1698.49525	0.95366
1696.44145	0.95296
1694.38765	0.95252
1692.33384	0.95199
1690.28004	0.95142
1688.22624	0.95074
1686.17243	0.94973
1684.11863	0.94846
1682.06483	0.94765
1680.01103	0.94685
1677.95722	0.94592
1675.90342	0.94511
1673.84962	0.94431
1671.79581	0.94365
1669.74201	0.94299
1667.68821	0.94217
1665.63440	0.94172
1663.58060	0.94144
1661.52680	0.94096
1659.47299	0.94063
1657.41919	0.94053
1655.36539	0.94045
1653.31158	0.94069
1651.25778	0.94120
1649.20398	0.94134
1647.15017	0.94118
1645.09637	0.94081
1643.04257	0.94055
1640.98876	0.94048
1638.93496	0.94062
1636.88116	0.94079
1634.82735	0.94099
1632.77355	0.94119
1630.71975	0.94114
1628.66594	0.94087
1626.61214	0.94074
1624.55834	0.94081
1622.50454	0.94079
1620.45073	0.94066
1618.39693	0.94062
1616.34313	0.94067
1614.28932	0.94047
1612.23552	0.93961
1610.18172	0.93752
1608.12791	0.93304
1606.07411	0.92555
1604.02031	0.91611
1601.96650	0.90816
1599.91270	0.90661
1597.85890	0.91201
1595.80509	0.92005
1593.75129	0.92681
1591.69749	0.93137
1589.64368	0.93382
1587.58988	0.93373
1585.53608	0.93141
1583.48227	0.92895
1581.42847	0.92901
1579.37467	0.93149
1577.32086	0.93439
1575.26706	0.93662
1573.21326	0.93817
1571.15945	0.93989
1569.10565	0.94201
1567.05185	0.94333
1564.99805	0.94385
1562.94424	0.94421
1560.89044	0.94453
1558.83664	0.94440
1556.78283	0.94363
1554.72903	0.94326
1552.67523	0.94338
1550.62142	0.94327
1548.56762	0.94223
1546.51382	0.94117
1544.46001	0.94053
1542.40621	0.93998
1540.35241	0.93960
1538.29860	0.93938
1536.24480	0.93973
1534.19100	0.94128
1532.13719	0.94368
1530.08339	0.94486
1528.02959	0.94500
1525.97578	0.94527
1523.92198	0.94589
1521.86818	0.94589
1519.81437	0.94586
1517.76057	0.94647
1515.70677	0.94687
1513.65297	0.94687
1511.59916	0.94686
1509.54536	0.94680
1507.49156	0.94618
1505.43775	0.94479
1503.38395	0.94331
1501.33015	0.94066
1499.27634	0.93288
1497.22254	0.91008
1495.16874	0.87463
1493.11493	0.85074
1491.06113	0.85038
1489.00733	0.87458
1486.95352	0.89953
1484.89972	0.91296
1482.84592	0.92086
1480.79211	0.92568
1478.73831	0.92800
1476.68451	0.92909
1474.63070	0.92985
1472.57690	0.93041
1470.52310	0.93057
1468.46929	0.93055
1466.41549	0.93055
1464.36169	0.93052
1462.30788	0.93007
1460.25408	0.92816
1458.20028	0.91792
1456.14648	0.88653
1454.09267	0.85595
1452.03887	0.84076
1449.98507	0.84162
1447.93126	0.85429
1445.87746	0.86795
1443.82366	0.87857
1441.76985	0.88794
1439.71605	0.89581
1437.66225	0.90309
1435.60844	0.91083
1433.55464	0.91645
1431.50084	0.92072
1429.44703	0.92469
1427.39323	0.92736
1425.33943	0.92882
1423.28562	0.92975
1421.23182	0.93051
1419.17802	0.93142
1417.12421	0.93245
1415.07041	0.93341
1413.01661	0.93451
1410.96280	0.93579
1408.90900	0.93709
1406.85520	0.93826
1404.80139	0.93939
1402.74759	0.94036
1400.69379	0.94097
1398.63999	0.94143
1396.58618	0.94174
1394.53238	0.94146
1392.47858	0.94087
1390.42477	0.94034
1388.37097	0.93939
1386.31717	0.93764
1384.26336	0.93601
1382.20956	0.93492
1380.15576	0.93390
1378.10195	0.93275
1376.04815	0.93171
1373.99435	0.93091
1371.94054	0.93023
1369.88674	0.93000
1367.83294	0.93027
1365.77913	0.93055
1363.72533	0.93083
1361.67153	0.93152
1359.61772	0.93254
1357.56392	0.93348
1355.51012	0.93411
1353.45631	0.93440
1351.40251	0.93454
1349.34871	0.93478
1347.29491	0.93515
1345.24110	0.93575
1343.18730	0.93659
1341.13350	0.93727
1339.07969	0.93759
1337.02589	0.93756
1334.97209	0.93711
1332.91828	0.93629
1330.86448	0.93546
1328.81068	0.93515
1326.75687	0.93545
1324.70307	0.93592
1322.64927	0.93624
1320.59546	0.93641
1318.54166	0.93649
1316.48786	0.93638
1314.43405	0.93611
1312.38025	0.93599
1310.32645	0.93604
1308.27264	0.93626
1306.21884	0.93682
1304.16504	0.93752
1302.11123	0.93818
1300.05743	0.93882
1298.00363	0.93915
1295.94982	0.93917
1293.89602	0.93951
1291.84222	0.94015
1289.78842	0.94057
1287.73461	0.94070
1285.68081	0.94085
1283.62701	0.94108
1281.57320	0.94116
1279.51940	0.94109
1277.46560	0.94124
1275.41179	0.94151
1273.35799	0.94164
1271.30419	0.94182
1269.25038	0.94214
1267.19658	0.94266
1265.14278	0.94315
1263.08897	0.94325
1261.03517	0.94324
1258.98137	0.94331
1256.92756	0.94330
1254.87376	0.94320
1252.81996	0.94290
1250.76615	0.94257
1248.71235	0.94239
1246.65855	0.94235
1244.60474	0.94242
1242.55094	0.94226
1240.49714	0.94185
1238.44334	0.94153
1236.38953	0.94138
1234.33573	0.94138
1232.28193	0.94120
1230.22812	0.94083
1228.17432	0.94056
1226.12052	0.94024
1224.06671	0.93971
1222.01291	0.93927
1219.95911	0.93916
1217.90530	0.93904
1215.85150	0.93831
1213.79770	0.93710
1211.74389	0.93591
1209.69009	0.93474
1207.63629	0.93346
1205.58248	0.93207
1203.52868	0.93063
1201.47488	0.92907
1199.42107	0.92725
1197.36727	0.92523
1195.31347	0.92325
1193.25966	0.92142
1191.20586	0.91980
1189.15206	0.91838
1187.09825	0.91635
1185.04445	0.91304
1182.99065	0.90954
1180.93685	0.90742
1178.88304	0.90699
1176.82924	0.90744
1174.77544	0.90800
1172.72163	0.90804
1170.66783	0.90722
1168.61403	0.90595
1166.56022	0.90464
1164.50642	0.90331
1162.45262	0.90192
1160.39881	0.90005
1158.34501	0.89711
1156.29121	0.89364
1154.23740	0.89123
1152.18360	0.89117
1150.12980	0.89300
1148.07599	0.89491
1146.02219	0.89565
1143.96839	0.89551
1141.91458	0.89516
1139.86078	0.89467
1137.80698	0.89409
1135.75317	0.89346
1133.69937	0.89232
1131.64557	0.89060
1129.59176	0.88877
1127.53796	0.88691
1125.48416	0.88490
1123.43036	0.88254
1121.37655	0.87920
1119.32275	0.87496
1117.26895	0.87066
1115.21514	0.86644
1113.16134	0.86215
1111.10754	0.85845
1109.05373	0.85576
1106.99993	0.85375
1104.94613	0.85206
1102.89232	0.85023
1100.83852	0.84809
1098.78472	0.84612
1096.73091	0.84465
1094.67711	0.84328
1092.62331	0.84163
1090.56950	0.83994
1088.51570	0.83840
1086.46190	0.83672
1084.40809	0.83474
1082.35429	0.83257
1080.30049	0.83037
1078.24668	0.82795
1076.19288	0.82492
1074.13908	0.82137
1072.08528	0.81775
1070.03147	0.81460
1067.97767	0.81207
1065.92387	0.81016
1063.87006	0.80894
1061.81626	0.80801
1059.76246	0.80677
1057.70865	0.80521
1055.65485	0.80332
1053.60105	0.80058
1051.54724	0.79715
1049.49344	0.79342
1047.43964	0.78936
1045.38583	0.78518
1043.33203	0.78071
1041.27823	0.77563
1039.22442	0.76999
1037.17062	0.76347
1035.11682	0.75522
1033.06301	0.74502
1031.00921	0.73425
1028.95541	0.72560
1026.90160	0.72121
1024.84780	0.72091
1022.79400	0.72255
1020.74019	0.72421
1018.68639	0.72537
1016.63259	0.72601
1014.57879	0.72643
1012.52498	0.72680
1010.47118	0.72702
1008.41738	0.72710
1006.36357	0.72705
1004.30977	0.72704
1002.25597	0.72804
1000.20216	0.73096
998.14836	0.73509
996.09456	0.73895
994.04075	0.74252
991.98695	0.74636
989.93315	0.75021
987.87934	0.75357
985.82554	0.75664
983.77174	0.76020
981.71793	0.76449
979.66413	0.76927
977.61033	0.77490
975.55652	0.78159
973.50272	0.78827
971.44892	0.79388
969.39511	0.79834
967.34131	0.80199
965.28751	0.80548
963.23371	0.80971
961.17990	0.81477
959.12610	0.82002
957.07230	0.82492
955.01849	0.82909
952.96469	0.83233
950.91089	0.83499
948.85708	0.83739
946.80328	0.83937
944.74948	0.84079
942.69567	0.84208
940.64187	0.84373
938.58807	0.84596
936.53426	0.84865
934.48046	0.85139
932.42666	0.85372
930.37285	0.85556
928.31905	0.85730
926.26525	0.85885
924.21144	0.85979
922.15764	0.86004
920.10384	0.85960
918.05003	0.85812
915.99623	0.85544
913.94243	0.85176
911.88862	0.84760
909.83482	0.84380
907.78102	0.84136
905.72722	0.84154
903.67341	0.84530
901.61961	0.85227
899.56581	0.86072
897.51200	0.86870
895.45820	0.87487
893.40440	0.87894
891.35059	0.88198
889.29679	0.88515
887.24299	0.88782
885.18918	0.88928
883.13538	0.89037
881.08158	0.89126
879.02777	0.89157
876.97397	0.89215
874.92017	0.89352
872.86636	0.89545
870.81256	0.89780
868.75876	0.89981
866.70495	0.90126
864.65115	0.90234
862.59735	0.90306
860.54354	0.90396
858.48974	0.90510
856.43594	0.90621
854.38213	0.90699
852.32833	0.90672
850.27453	0.90544
848.22073	0.90421
846.16692	0.90306
844.11312	0.90145
842.05932	0.90017
840.00551	0.90014
837.95171	0.90108
835.89791	0.90242
833.84410	0.90378
831.79030	0.90443
829.73650	0.90473
827.68269	0.90572
825.62889	0.90730
823.57509	0.90865
821.52128	0.90951
819.46748	0.91018
817.41368	0.91068
815.35987	0.91144
813.30607	0.91214
811.25227	0.91171
809.19846	0.91038
807.14466	0.90841
805.09086	0.90589
803.03705	0.90322
800.98325	0.90105
798.92945	0.89993
796.87565	0.89965
794.82184	0.89947
792.76804	0.89868
790.71424	0.89741
788.66043	0.89584
786.60663	0.89332
784.55283	0.89011
782.49902	0.88707
780.44522	0.88344
778.39142	0.87807
776.33761	0.87096
774.28381	0.86213
772.23001	0.85104
770.17620	0.83829
768.12240	0.82492
766.06860	0.81045
764.01479	0.79469
761.96099	0.77859
759.90719	0.76341
757.85338	0.75099
755.79958	0.74282
753.74578	0.73884
751.69197	0.73757
749.63817	0.73735
747.58437	0.73931
745.53056	0.74700
743.47676	0.76206
741.42296	0.78193
739.36916	0.80285
737.31535	0.82282
735.26155	0.84084
733.20775	0.85594
731.15394	0.86800
729.10014	0.87705
727.04634	0.88290
724.99253	0.88694
722.93873	0.89058
720.88493	0.89329
718.83112	0.89523
716.77732	0.89780
714.72352	0.89924
712.66971	0.89477
710.61591	0.88093
708.56211	0.85521
706.50830	0.81459
704.45450	0.75681
702.40070	0.68364
700.34689	0.60211
698.29309	0.52253
696.23929	0.46211
694.18548	0.44512
692.13168	0.48249
690.07788	0.55473
688.02408	0.62850
685.97027	0.68467
683.91647	0.72275
681.86267	0.74900
679.80886	0.76803
677.75506	0.78174
675.70126	0.79113
673.64745	0.79729
671.59365	0.80104
669.53985	0.80443
667.48604	0.81044
665.43224	0.81686
663.37844	0.82212
661.32463	0.82633
659.27083	0.82938
657.21703	0.83211
655.16322	0.83406
653.10942	0.83466
651.05562	0.83489
649.00181	0.83599
646.94801	0.83758
644.89421	0.83992
642.84040	0.84288
640.78660	0.84513
638.73280	0.84661
636.67899	0.84722
634.62519	0.84692
632.57139	0.84633
630.51759	0.84594
628.46378	0.84529
626.40998	0.84420
624.35618	0.84347
622.30237	0.84275
620.24857	0.84169
618.19477	0.84132
616.14096	0.84204
614.08716	0.84302
612.03336	0.84282
609.97955	0.84115
607.92575	0.84001
605.87195	0.83977
603.81814	0.83914
601.76434	0.83765
599.71054	0.83530
597.65673	0.83376
595.60293	0.83352
593.54913	0.83260
591.49532	0.83096
589.44152	0.82981
587.38772	0.82862
585.33391	0.82673
583.28011	0.82481
581.22631	0.82288
579.17250	0.82056
577.11870	0.81758
575.06490	0.81207
573.01110	0.80516
570.95729	0.79967
568.90349	0.79470
566.84969	0.78939
564.79588	0.78372
562.74208	0.77697
560.68828	0.76978
558.63447	0.76238
556.58067	0.75501
554.52687	0.74875
552.47306	0.74253
550.41926	0.73513
548.36546	0.72577
546.31165	0.71387
544.25785	0.70126
542.20405	0.68849
540.15024	0.67530
538.09644	0.66499
536.04264	0.66117
533.98883	0.66398
531.93503	0.67207
529.88123	0.68300
527.82742	0.69335
525.77362	0.70305
523.71982	0.71367
521.66602	0.72446
519.61221	0.73378
517.55841	0.74000
515.50461	0.74410
513.45080	0.74809
511.39700	0.75268
509.34320	0.75823
507.28939	0.76342
505.23559	0.76678
503.18179	0.76910
501.12798	0.77067
499.07418	0.77100
497.02038	0.77119
494.96657	0.77167
492.91277	0.77173
490.85897	0.77120
488.80516	0.76879
486.75136	0.76280
484.69756	0.75357
482.64375	0.74258
480.58995	0.73104
478.53615	0.72088
476.48234	0.71244
474.42854	0.70421
472.37474	0.69640
470.32093	0.68911
468.26713	0.68413
466.21333	0.68469
464.15953	0.68807
462.10572	0.69055
460.05192	0.69457
457.99812	0.70204
455.94431	0.70885
453.89051	0.71285
451.83671	0.71646
449.78290	0.72086
447.72910	0.72544
445.67530	0.72839
443.62149	0.72892
441.56769	0.72864
439.51389	0.72843
437.46008	0.72833
435.40628	0.72704
433.35248	0.72434
431.29867	0.72306
429.24487	0.72312
427.19107	0.72271
425.13726	0.72213
423.08346	0.72356
421.02966	0.72801
418.97585	0.73360
416.92205	0.74068
414.86825	0.74810
412.81445	0.75117
410.76064	0.75027
408.70684	0.75039
406.65304	0.75542
404.59923	0.76238
402.54543	0.76390
400.49163	0.75855
398.43782	0.75126
