3996.71440	0.97996
3994.66059	0.98003
3992.60678	0.98007
3990.55297	0.98001
3988.49916	0.98006
3986.44535	0.98012
3984.39154	0.98030
3982.33773	0.98067
3980.28391	0.98075
3978.23010	0.98046
3976.17629	0.98021
3974.12248	0.98009
3972.06867	0.98014
3970.01486	0.98019
3967.96105	0.98017
3965.90724	0.98032
3963.85343	0.98040
3961.79962	0.98038
3959.74581	0.98062
3957.69200	0.98082
3955.63819	0.98080
3953.58438	0.98090
3951.53057	0.98107
3949.47676	0.98096
3947.42295	0.98061
3945.36914	0.98030
3943.31533	0.98014
3941.26152	0.98018
3939.20771	0.98027
3937.15390	0.98038
3935.10009	0.98050
3933.04628	0.98047
3930.99247	0.98039
3928.93866	0.98042
3926.88485	0.98044
3924.83104	0.98051
3922.77723	0.98075
3920.72342	0.98088
3918.66961	0.98084
3916.61580	0.98072
3914.56199	0.98049
3912.50818	0.98039
3910.45437	0.98062
3908.40056	0.98078
3906.34675	0.98038
3904.29294	0.97985
3902.23913	0.98007
3900.18532	0.98085
3898.13151	0.98117
3896.07770	0.98081
3894.02389	0.98049
3891.97008	0.98050
3889.91627	0.98058
3887.86246	0.98064
3885.80865	0.98074
3883.75484	0.98067
3881.70103	0.98060
3879.64722	0.98077
3877.59341	0.98073
3875.53960	0.98040
3873.48579	0.98022
3871.43198	0.98030
3869.37817	0.98049
3867.32436	0.98074
3865.27055	0.98085
3863.21674	0.98081
3861.16293	0.98085
3859.10912	0.98091
3857.05531	0.98076
3855.00150	0.98029
3852.94769	0.97996
3850.89388	0.98045
3848.84007	0.98078
3846.78626	0.98067
3844.73245	0.98055
3842.67864	0.98049
3840.62483	0.98040
3838.57102	0.98041
3836.51721	0.98052
3834.46340	0.98069
3832.40959	0.98094
3830.35578	0.98111
3828.30197	0.98124
3826.24816	0.98122
3824.19435	0.98101
3822.14054	0.98088
3820.08673	0.98118
3818.03292	0.98159
3815.97911	0.98171
3813.92530	0.98174
3811.87149	0.98178
3809.81768	0.98172
3807.76387	0.98150
3805.71006	0.98127
3803.65625	0.98117
3801.60244	0.98106
3799.54863	0.98075
3797.49482	0.98050
3795.44101	0.98084
3793.38720	0.98138
3791.33339	0.98139
3789.27958	0.98127
3787.22577	0.98141
3785.17196	0.98144
3783.11815	0.98118
3781.06434	0.98084
3779.01053	0.98090
3776.95672	0.98125
3774.90291	0.98124
3772.84910	0.98094
3770.79529	0.98079
3768.74148	0.98114
3766.68767	0.98148
3764.63386	0.98132
3762.58005	0.98093
3760.52624	0.98069
3758.47243	0.98091
3756.41862	0.98138
3754.36481	0.98141
3752.31100	0.98093
3750.25719	0.98111
3748.20338	0.98222
3746.14957	0.98286
3744.09576	0.98271
3742.04195	0.98226
3739.98814	0.98210
3737.93433	0.98245
3735.88052	0.98277
3733.82671	0.98246
3731.77290	0.98217
3729.71909	0.98219
3727.66528	0.98226
3725.61147	0.98212
3723.55766	0.98173
3721.50385	0.98126
3719.45004	0.98085
3717.39623	0.98054
3715.34242	0.98016
3713.28861	0.97982
3711.23480	0.97951
3709.18099	0.97897
3707.12718	0.97800
3705.07337	0.97653
3703.01956	0.97517
3700.96575	0.97457
3698.91194	0.97451
3696.85813	0.97480
3694.80432	0.97539
3692.75051	0.97574
3690.69670	0.97551
3688.64289	0.97536
3686.58907	0.97582
3684.53526	0.97635
3682.48145	0.97662
3680.42764	0.97654
3678.37383	0.97621
3676.32002	0.97571
3674.26621	0.97499
3672.21240	0.97464
3670.15859	0.97478
3668.10478	0.97480
3666.05097	0.97457
3663.99716	0.97437
3661.94335	0.97416
3659.88954	0.97387
3657.83573	0.97389
3655.78192	0.97410
3653.72811	0.97387
3651.67430	0.97329
3649.62049	0.97272
3647.56668	0.97250
3645.51287	0.97233
3643.45906	0.97211
3641.40525	0.97190
3639.35144	0.97154
3637.29763	0.97104
3635.24382	0.97058
3633.19001	0.97051
3631.13620	0.97055
3629.08239	0.96989
3627.02858	0.96902
3624.97477	0.96884
3622.92096	0.96882
3620.86715	0.96846
3618.81334	0.96785
3616.75953	0.96756
3614.70572	0.96772
3612.65191	0.96795
3610.59810	0.96785
3608.54429	0.96734
3606.49048	0.96674
3604.43667	0.96641
3602.38286	0.96648
3600.32905	0.96667
3598.27524	0.96662
3596.22143	0.96657
3594.16762	0.96671
3592.11381	0.96697
3590.06000	0.96710
3588.00619	0.96668
3585.95238	0.96611
3583.89857	0.96599
3581.84476	0.96592
3579.79095	0.96570
3577.73714	0.96565
3575.68333	0.96551
3573.62952	0.96504
3571.57571	0.96452
3569.52190	0.96397
3567.46809	0.96373
3565.41428	0.96400
3563.36047	0.96375
3561.30666	0.96299
3559.25285	0.96252
3557.19904	0.96230
3555.14523	0.96206
3553.09142	0.96199
3551.03761	0.96181
3548.98380	0.96120
3546.92999	0.96035
3544.87618	0.95964
3542.82237	0.95938
3540.76856	0.95911
3538.71475	0.95850
3536.66094	0.95804
3534.60713	0.95795
3532.55332	0.95772
3530.49951	0.95727
3528.44570	0.95679
3526.39189	0.95622
3524.33808	0.95571
3522.28427	0.95539
3520.23046	0.95522
3518.17665	0.95515
3516.12284	0.95499
3514.06903	0.95457
3512.01522	0.95392
3509.96141	0.95328
3507.90760	0.95281
3505.85379	0.95242
3503.79998	0.95182
3501.74617	0.95146
3499.69236	0.95166
3497.63855	0.95157
3495.58474	0.95075
3493.53093	0.94985
3491.47712	0.94935
3489.42331	0.94910
3487.36950	0.94878
3485.31569	0.94823
3483.26188	0.94762
3481.20807	0.94716
3479.15426	0.94682
3477.10045	0.94642
3475.04664	0.94585
3472.99283	0.94522
3470.93902	0.94480
3468.88521	0.94439
3466.83140	0.94378
3464.77759	0.94337
3462.72378	0.94315
3460.66997	0.94276
3458.61616	0.94235
3456.56235	0.94203
3454.50854	0.94172
3452.45473	0.94159
3450.40092	0.94164
3448.34711	0.94156
3446.29330	0.94116
3444.23949	0.94066
3442.18568	0.94027
3440.13187	0.94006
3438.07806	0.93997
3436.02425	0.93990
3433.97044	0.93986
3431.91663	0.93984
3429.86282	0.93969
3427.80901	0.93959
3425.75520	0.93955
3423.70139	0.93913
3421.64758	0.93847
3419.59377	0.93825
3417.53996	0.93839
3415.48615	0.93837
3413.43234	0.93808
3411.37853	0.93771
3409.32472	0.93755
3407.27091	0.93775
3405.21710	0.93789
3403.16329	0.93761
3401.10948	0.93729
3399.05567	0.93704
3397.00186	0.93675
3394.94805	0.93667
3392.89424	0.93671
3390.84042	0.93682
3388.78661	0.93708
3386.73280	0.93704
3384.67899	0.93643
3382.62518	0.93576
3380.57137	0.93551
3378.51756	0.93541
3376.46375	0.93521
3374.40994	0.93486
3372.35613	0.93466
3370.30232	0.93495
3368.24851	0.93532
3366.19470	0.93515
3364.14089	0.93467
3362.08708	0.93435
3360.03327	0.93424
3357.97946	0.93426
3355.92565	0.93428
3353.87184	0.93424
3351.81803	0.93413
3349.76422	0.93388
3347.71041	0.93350
3345.65660	0.93329
3343.60279	0.93330
3341.54898	0.93329
3339.49517	0.93330
3337.44136	0.93329
3335.38755	0.93322
3333.33374	0.93327
3331.27993	0.93357
3329.22612	0.93395
3327.17231	0.93422
3325.11850	0.93426
3323.06469	0.93409
3321.01088	0.93380
3318.95707	0.93347
3316.90326	0.93335
3314.84945	0.93349
3312.79564	0.93358
3310.74183	0.93351
3308.68802	0.93356
3306.63421	0.93381
3304.58040	0.93385
3302.52659	0.93373
3300.47278	0.93379
3298.41897	0.93373
3296.36516	0.93332
3294.31135	0.93311
3292.25754	0.93339
3290.20373	0.93378
3288.14992	0.93394
3286.09611	0.93359
3284.04230	0.93311
3281.98849	0.93315
3279.93468	0.93338
3277.88087	0.93339
3275.82706	0.93344
3273.77325	0.93371
3271.71944	0.93398
3269.66563	0.93417
3267.61182	0.93423
3265.55801	0.93424
3263.50420	0.93437
3261.45039	0.93461
3259.39658	0.93482
3257.34277	0.93475
3255.28896	0.93479
3253.23515	0.93522
3251.18134	0.93550
3249.12753	0.93555
3247.07372	0.93565
3245.01991	0.93573
3242.96610	0.93583
3240.91229	0.93606
3238.85848	0.93640
3236.80467	0.93666
3234.75086	0.93667
3232.69705	0.93661
3230.64324	0.93681
3228.58943	0.93696
3226.53562	0.93690
3224.48181	0.93713
3222.42800	0.93754
3220.37419	0.93778
3218.32038	0.93796
3216.26657	0.93814
3214.21276	0.93827
3212.15895	0.93844
3210.10514	0.93893
3208.05133	0.93963
3205.99752	0.93996
3203.94371	0.94000
3201.88990	0.94031
3199.83609	0.94067
3197.78228	0.94057
3195.72847	0.94049
3193.67466	0.94097
3191.62085	0.94156
3189.56704	0.94176
3187.51323	0.94183
3185.45942	0.94211
3183.40561	0.94256
3181.35180	0.94298
3179.29799	0.94330
3177.24418	0.94360
3175.19037	0.94397
3173.13656	0.94426
3171.08275	0.94449
3169.02894	0.94479
3166.97513	0.94511
3164.92132	0.94551
3162.86751	0.94603
3160.81370	0.94650
3158.75989	0.94675
3156.70608	0.94691
3154.65227	0.94711
3152.59846	0.94733
3150.54465	0.94767
3148.49084	0.94808
3146.43703	0.94829
3144.38322	0.94833
3142.32941	0.94852
3140.27560	0.94891
3138.22179	0.94914
3136.16798	0.94921
3134.11417	0.94937
3132.06036	0.94968
3130.00655	0.95013
3127.95274	0.95053
3125.89893	0.95063
3123.84512	0.95054
3121.79131	0.95033
3119.73750	0.95023
3117.68369	0.95055
3115.62988	0.95079
3113.57607	0.95072
3111.52226	0.95078
3109.46845	0.95095
3107.41464	0.95104
3105.36083	0.95111
3103.30702	0.95124
3101.25321	0.95139
3099.19940	0.95138
3097.14559	0.95128
3095.09177	0.95126
3093.03796	0.95135
3090.98415	0.95142
3088.93034	0.95132
3086.87653	0.95110
3084.82272	0.95104
3082.76891	0.95109
3080.71510	0.95100
3078.66129	0.95094
3076.60748	0.95108
3074.55367	0.95115
3072.49986	0.95119
3070.44605	0.95145
3068.39224	0.95170
3066.33843	0.95184
3064.28462	0.95195
3062.23081	0.95193
3060.17700	0.95192
3058.12319	0.95206
3056.06938	0.95215
3054.01557	0.95214
3051.96176	0.95214
3049.90795	0.95231
3047.85414	0.95259
3045.80033	0.95272
3043.74652	0.95274
3041.69271	0.95293
3039.63890	0.95310
3037.58509	0.95317
3035.53128	0.95330
3033.47747	0.95302
3031.42366	0.95245
3029.36985	0.95239
3027.31604	0.95274
3025.26223	0.95292
3023.20842	0.95290
3021.15461	0.95297
3019.10080	0.95298
3017.04699	0.95284
3014.99318	0.95284
3012.93937	0.95290
3010.88556	0.95277
3008.83175	0.95251
3006.77794	0.95220
3004.72413	0.95195
3002.67032	0.95176
3000.61651	0.95156
2998.56270	0.95141
2996.50889	0.95111
2994.45508	0.95039
2992.40127	0.94947
2990.34746	0.94859
2988.29365	0.94764
2986.23984	0.94654
2984.18603	0.94527
2982.13222	0.94352
2980.07841	0.94118
2978.02460	0.93864
2975.97079	0.93611
2973.91698	0.93326
2971.86317	0.92985
2969.80936	0.92578
2967.75555	0.92097
2965.70174	0.91580
2963.64793	0.91077
2961.59412	0.90606
2959.54031	0.90154
2957.48650	0.89737
2955.43269	0.89393
2953.37888	0.89129
2951.32507	0.88877
2949.27126	0.88523
2947.21745	0.87961
2945.16364	0.87095
2943.10983	0.85865
2941.05602	0.84282
2939.00221	0.82379
2936.94840	0.80177
2934.89459	0.77685
2932.84078	0.74872
2930.78697	0.71682
2928.73316	0.68087
2926.67935	0.63974
2924.62554	0.59149
2922.57173	0.53564
2920.51792	0.47527
2918.46411	0.41860
2916.41030	0.37967
2914.35649	0.37199
2912.30268	0.39666
2910.24887	0.44043
2908.19506	0.48781
2906.14125	0.53008
2904.08744	0.56461
2902.03363	0.59191
2899.97982	0.61404
2897.92601	0.63341
2895.87220	0.65146
2893.81839	0.66897
2891.76458	0.68659
2889.71077	0.70443
2887.65696	0.72237
2885.60315	0.74034
2883.54934	0.75810
2881.49553	0.77515
2879.44172	0.79113
2877.38791	0.80536
2875.33410	0.81664
2873.28029	0.82448
2871.22648	0.82939
2869.17267	0.83150
2867.11886	0.82999
2865.06505	0.82323
2863.01124	0.80980
2860.95743	0.78850
2858.90362	0.75709
2856.84981	0.71169
2854.79600	0.64794
2852.74219	0.56576
2850.68838	0.47970
2848.63457	0.42287
2846.58076	0.42405
2844.52695	0.47909
2842.47314	0.55865
2840.41933	0.63629
2838.36552	0.70029
2836.31171	0.74946
2834.25790	0.78635
2832.20409	0.81395
2830.15028	0.83492
2828.09647	0.85128
2826.04266	0.86449
2823.98885	0.87521
2821.93504	0.88375
2819.88123	0.89075
2817.82742	0.89684
2815.77361	0.90226
2813.71980	0.90696
2811.66599	0.91097
2809.61218	0.91461
2807.55837	0.91793
2805.50456	0.92081
2803.45075	0.92350
2801.39693	0.92605
2799.34312	0.92813
2797.28931	0.92972
2795.23550	0.93142
2793.18169	0.93348
2791.12788	0.93535
2789.07407	0.93690
2787.02026	0.93846
2784.96645	0.93989
2782.91264	0.94107
2780.85883	0.94231
2778.80502	0.94369
2776.75121	0.94483
2774.69740	0.94568
2772.64359	0.94658
2770.58978	0.94758
2768.53597	0.94845
2766.48216	0.94907
2764.42835	0.94954
2762.37454	0.94988
2760.32073	0.95023
2758.26692	0.95074
2756.21311	0.95122
2754.15930	0.95163
2752.10549	0.95205
2750.05168	0.95231
2747.99787	0.95244
2745.94406	0.95271
2743.89025	0.95312
2741.83644	0.95334
2739.78263	0.95350
2737.72882	0.95376
2735.67501	0.95405
2733.62120	0.95426
2731.56739	0.95433
2729.51358	0.95447
2727.45977	0.95483
2725.40596	0.95523
2723.35215	0.95557
2721.29834	0.95603
2719.24453	0.95666
2717.19072	0.95716
2715.13691	0.95739
2713.08310	0.95760
2711.02929	0.95776
2708.97548	0.95788
2706.92167	0.95817
2704.86786	0.95841
2702.81405	0.95842
2700.76024	0.95852
2698.70643	0.95886
2696.65262	0.95925
2694.59881	0.95956
2692.54500	0.95976
2690.49119	0.95989
2688.43738	0.95988
2686.38357	0.95983
2684.32976	0.95990
2682.27595	0.95987
2680.22214	0.95965
2678.16833	0.95954
2676.11452	0.95952
2674.06071	0.95933
2672.00690	0.95909
2669.95309	0.95889
2667.89928	0.95865
2665.84547	0.95838
2663.79166	0.95825
2661.73785	0.95835
2659.68404	0.95855
2657.63023	0.95870
2655.57642	0.95882
2653.52261	0.95891
2651.46880	0.95907
2649.41499	0.95942
2647.36118	0.95977
2645.30737	0.95996
2643.25356	0.96000
2641.19975	0.95995
2639.14594	0.95991
2637.09213	0.96010
2635.03832	0.96061
2632.98451	0.96114
2630.93070	0.96144
2628.87689	0.96149
2626.82308	0.96159
2624.76927	0.96227
2622.71546	0.96322
2620.66165	0.96393
2618.60784	0.96442
2616.55403	0.96474
2614.50022	0.96503
2612.44641	0.96539
2610.39260	0.96560
2608.33879	0.96573
2606.28498	0.96598
2604.23117	0.96625
2602.17736	0.96649
2600.12355	0.96686
2598.06974	0.96716
2596.01593	0.96713
2593.96212	0.96716
2591.90831	0.96747
2589.85450	0.96776
2587.80069	0.96816
2585.74688	0.96878
2583.69307	0.96912
2581.63926	0.96917
2579.58545	0.96942
2577.53164	0.96969
2575.47783	0.96993
2573.42402	0.97042
2571.37021	0.97076
2569.31640	0.97067
2567.26259	0.97057
2565.20878	0.97065
2563.15497	0.97078
2561.10116	0.97097
2559.04735	0.97128
2556.99354	0.97143
2554.93973	0.97139
2552.88592	0.97148
2550.83211	0.97195
2548.77830	0.97242
2546.72449	0.97255
2544.67068	0.97245
2542.61687	0.97213
2540.56306	0.97196
2538.50925	0.97236
2536.45544	0.97270
2534.40163	0.97273
2532.34782	0.97279
2530.29401	0.97277
2528.24020	0.97278
2526.18639	0.97288
2524.13258	0.97268
2522.07877	0.97250
2520.02496	0.97279
2517.97115	0.97313
2515.91734	0.97342
2513.86353	0.97398
2511.80972	0.97438
2509.75591	0.97425
2507.70210	0.97402
2505.64828	0.97416
2503.59447	0.97456
2501.54066	0.97480
2499.48685	0.97476
2497.43304	0.97462
2495.37923	0.97482
2493.32542	0.97541
2491.27161	0.97571
2489.21780	0.97564
2487.16399	0.97605
2485.11018	0.97674
2483.05637	0.97692
2481.00256	0.97668
2478.94875	0.97628
2476.89494	0.97580
2474.84113	0.97549
2472.78732	0.97557
2470.73351	0.97595
2468.67970	0.97628
2466.62589	0.97633
2464.57208	0.97635
2462.51827	0.97660
2460.46446	0.97667
2458.41065	0.97645
2456.35684	0.97660
2454.30303	0.97719
2452.24922	0.97755
2450.19541	0.97752
2448.14160	0.97741
2446.08779	0.97748
2444.03398	0.97762
2441.98017	0.97732
2439.92636	0.97674
2437.87255	0.97655
2435.81874	0.97664
2433.76493	0.97677
2431.71112	0.97701
2429.65731	0.97723
2427.60350	0.97736
2425.54969	0.97748
2423.49588	0.97760
2421.44207	0.97766
2419.38826	0.97751
2417.33445	0.97735
2415.28064	0.97745
2413.22683	0.97762
2411.17302	0.97744
2409.11921	0.97708
2407.06540	0.97710
2405.01159	0.97749
2402.95778	0.97782
2400.90397	0.97795
2398.85016	0.97800
2396.79635	0.97806
2394.74254	0.97827
2392.68873	0.97856
2390.63492	0.97862
2388.58111	0.97844
2386.52730	0.97830
2384.47349	0.97841
2382.41968	0.97843
2380.36587	0.97807
2378.31206	0.97783
2376.25825	0.97782
2374.20444	0.97747
2372.15063	0.97710
2370.09682	0.97718
2368.04301	0.97782
2365.98920	0.97895
2363.93539	0.97941
2361.88158	0.97897
2359.82777	0.97836
2357.77396	0.97795
2355.72015	0.97776
2353.66634	0.97732
2351.61253	0.97689
2349.55872	0.97695
2347.50491	0.97743
2345.45110	0.97762
2343.39729	0.97694
2341.34348	0.97616
2339.28967	0.97614
2337.23586	0.97671
2335.18205	0.97679
2333.12824	0.97617
2331.07443	0.97591
2329.02062	0.97594
2326.96681	0.97538
2324.91300	0.97469
2322.85919	0.97491
2320.80538	0.97605
2318.75157	0.97705
2316.69776	0.97702
2314.64395	0.97658
2312.59014	0.97666
2310.53633	0.97682
2308.48252	0.97677
2306.42871	0.97683
2304.37490	0.97715
2302.32109	0.97755
2300.26728	0.97762
2298.21347	0.97736
2296.15966	0.97731
2294.10585	0.97760
2292.05204	0.97773
2289.99823	0.97738
2287.94442	0.97706
2285.89061	0.97720
2283.83680	0.97735
2281.78299	0.97734
2279.72918	0.97757
2277.67537	0.97831
2275.62156	0.97904
2273.56775	0.97919
2271.51394	0.97907
2269.46013	0.97902
2267.40632	0.97935
2265.35251	0.98000
2263.29870	0.98038
2261.24489	0.97996
2259.19108	0.97886
2257.13727	0.97870
2255.08346	0.97970
2253.02965	0.98032
2250.97584	0.98055
2248.92203	0.98070
2246.86822	0.98032
2244.81441	0.97996
2242.76060	0.98047
2240.70679	0.98097
2238.65298	0.98050
2236.59917	0.97991
2234.54536	0.97972
2232.49155	0.97922
2230.43774	0.97839
2228.38393	0.97814
2226.33012	0.97878
2224.27631	0.97991
2222.22250	0.98082
2220.16869	0.98116
2218.11488	0.98115
2216.06107	0.98127
2214.00726	0.98182
2211.95344	0.98260
2209.89963	0.98302
2207.84582	0.98211
2205.79201	0.98063
2203.73820	0.98032
2201.68439	0.98085
2199.63058	0.98062
2197.57677	0.98005
2195.52296	0.98086
2193.46915	0.98216
2191.41534	0.98215
2189.36153	0.98168
2187.30772	0.98137
2185.25391	0.98027
2183.20010	0.97946
2181.14629	0.97999
2179.09248	0.98108
2177.03867	0.98205
2174.98486	0.98239
2172.93105	0.98207
2170.87724	0.98117
2168.82343	0.97954
2166.76962	0.97831
2164.71581	0.97916
2162.66200	0.98035
2160.60819	0.98111
2158.55438	0.98351
2156.50057	0.98556
2154.44676	0.98563
2152.39295	0.98530
2150.33914	0.98512
2148.28533	0.98439
2146.23152	0.98316
2144.17771	0.98236
2142.12390	0.98256
2140.07009	0.98330
2138.01628	0.98373
2135.96247	0.98412
2133.90866	0.98469
2131.85485	0.98478
2129.80104	0.98401
2127.74723	0.98297
2125.69342	0.98258
2123.63961	0.98275
2121.58580	0.98289
2119.53199	0.98280
2117.47818	0.98253
2115.42437	0.98190
2113.37056	0.98118
2111.31675	0.98133
2109.26294	0.98205
2107.20913	0.98209
2105.15532	0.98160
2103.10151	0.98126
2101.04770	0.98138
2098.99389	0.98223
2096.94008	0.98290
2094.88627	0.98241
2092.83246	0.98168
2090.77865	0.98163
2088.72484	0.98170
2086.67103	0.98140
2084.61722	0.98119
2082.56341	0.98167
2080.50960	0.98221
2078.45579	0.98171
2076.40198	0.98078
2074.34817	0.98067
2072.29436	0.98115
2070.24055	0.98170
2068.18674	0.98244
2066.13293	0.98298
2064.07912	0.98256
2062.02531	0.98166
2059.97150	0.98123
2057.91769	0.98124
2055.86388	0.98167
2053.81007	0.98216
2051.75626	0.98204
2049.70245	0.98247
2047.64864	0.98357
2045.59483	0.98279
2043.54102	0.98087
2041.48721	0.98038
2039.43340	0.98045
2037.37959	0.98012
2035.32578	0.98067
2033.27197	0.98219
2031.21816	0.98302
2029.16435	0.98320
2027.11054	0.98382
2025.05673	0.98448
2023.00292	0.98431
2020.94911	0.98298
2018.89530	0.98141
2016.84149	0.98115
2014.78768	0.98212
2012.73387	0.98303
2010.68006	0.98321
2008.62625	0.98390
2006.57244	0.98567
2004.51863	0.98612
2002.46482	0.98453
2000.41101	0.98312
1998.35720	0.98268
1996.30339	0.98211
1994.24958	0.98108
1992.19577	0.98066
1990.14196	0.98176
1988.08815	0.98330
1986.03434	0.98391
1983.98053	0.98313
1981.92672	0.98141
1979.87291	0.98070
1977.81910	0.98259
1975.76529	0.98584
1973.71148	0.98680
1971.65767	0.98522
1969.60386	0.98367
1967.55005	0.98331
1965.49624	0.98376
1963.44243	0.98362
1961.38862	0.98321
1959.33481	0.98359
1957.28100	0.98382
1955.22719	0.98324
1953.17338	0.98338
1951.11957	0.98434
1949.06576	0.98385
1947.01195	0.98196
1944.95814	0.98075
1942.90433	0.98114
1940.85052	0.98215
1938.79671	0.98243
1936.74290	0.98245
1934.68909	0.98229
1932.63528	0.98149
1930.58147	0.98133
1928.52766	0.98228
1926.47385	0.98290
1924.42004	0.98234
1922.36623	0.98140
1920.31242	0.98141
1918.25861	0.98246
1916.20479	0.98286
1914.15098	0.98187
1912.09717	0.98093
1910.04336	0.98057
1907.98955	0.98038
1905.93574	0.98046
1903.88193	0.98080
1901.82812	0.98129
1899.77431	0.98156
1897.72050	0.98126
1895.66669	0.98077
1893.61288	0.98030
1891.55907	0.97985
1889.50526	0.97964
1887.45145	0.97975
1885.39764	0.98021
1883.34383	0.98081
1881.29002	0.98093
1879.23621	0.98068
1877.18240	0.98083
1875.12859	0.98120
1873.07478	0.98123
1871.02097	0.98099
1868.96716	0.98085
1866.91335	0.98101
1864.85954	0.98098
1862.80573	0.98088
1860.75192	0.98119
1858.69811	0.98151
1856.64430	0.98159
1854.59049	0.98167
1852.53668	0.98151
1850.48287	0.98102
1848.42906	0.98063
1846.37525	0.98066
1844.32144	0.98115
1842.26763	0.98135
1840.21382	0.98093
1838.16001	0.98072
1836.10620	0.98087
1834.05239	0.98078
1831.99858	0.98049
1829.94477	0.98018
1827.89096	0.97997
1825.83715	0.97996
1823.78334	0.97998
1821.72953	0.97993
1819.67572	0.97988
1817.62191	0.97989
1815.56810	0.97970
1813.51429	0.97914
1811.46048	0.97862
1809.40667	0.97832
1807.35286	0.97807
1805.29905	0.97780
1803.24524	0.97747
1801.19143	0.97715
1799.13762	0.97682
1797.08381	0.97633
1795.03000	0.97566
1792.97619	0.97464
1790.92238	0.97350
1788.86857	0.97273
1786.81476	0.97220
1784.76095	0.97168
1782.70714	0.97114
1780.65333	0.97077
1778.59952	0.97061
1776.54571	0.97037
1774.49190	0.96989
1772.43809	0.96913
1770.38428	0.96864
1768.33047	0.96857
1766.27666	0.96848
1764.22285	0.96829
1762.16904	0.96788
1760.11523	0.96720
1758.06142	0.96643
1756.00761	0.96548
1753.95380	0.96429
1751.89999	0.96274
1749.84618	0.96080
1747.79237	0.95869
1745.73856	0.95634
1743.68475	0.95358
1741.63094	0.95063
1739.57713	0.94799
1737.52332	0.94624
1735.46951	0.94518
1733.41570	0.94408
1731.36189	0.94268
1729.30808	0.94035
1727.25427	0.93655
1725.20046	0.93131
1723.14665	0.92512
1721.09284	0.91972
1719.03903	0.91566
1716.98522	0.91247
1714.93141	0.91089
1712.87760	0.91119
1710.82379	0.91289
1708.76998	0.91543
1706.71617	0.91830
1704.66236	0.92125
1702.60855	0.92359
1700.55474	0.92492
1698.50093	0.92534
1696.44712	0.92617
1694.39331	0.92742
1692.33950	0.92796
1690.28569	0.92771
1688.23188	0.92695
1686.17807	0.92574
1684.12426	0.92316
1682.07045	0.92052
1680.01664	0.91883
1677.96283	0.91718
1675.90902	0.91524
1673.85521	0.91316
1671.80140	0.91129
1669.74759	0.90915
1667.69378	0.90716
1665.63997	0.90576
1663.58616	0.90406
1661.53235	0.90184
1659.47854	0.90004
1657.42473	0.89879
1655.37092	0.89762
1653.31711	0.89597
1651.26330	0.89534
1649.20949	0.89567
1647.15568	0.89557
1645.10187	0.89487
1643.04806	0.89402
1640.99425	0.89315
1638.94044	0.89235
1636.88663	0.89117
1634.83282	0.88919
1632.77901	0.88772
1630.72520	0.88680
1628.67139	0.88593
1626.61758	0.88514
1624.56377	0.88439
1622.50996	0.88390
1620.45614	0.88386
1618.40233	0.88392
1616.34852	0.88393
1614.29471	0.88406
1612.24090	0.88425
1610.18709	0.88429
1608.13328	0.88419
1606.07947	0.88420
1604.02566	0.88426
1601.97185	0.88423
1599.91804	0.88426
1597.86423	0.88430
1595.81042	0.88424
1593.75661	0.88423
1591.70280	0.88440
1589.64899	0.88464
1587.59518	0.88501
1585.54137	0.88565
1583.48756	0.88647
1581.43375	0.88735
1579.37994	0.88838
1577.32613	0.88976
1575.27232	0.89161
1573.21851	0.89336
1571.16470	0.89503
1569.11089	0.89715
1567.05708	0.89932
1565.00327	0.90125
1562.94946	0.90287
1560.89565	0.90413
1558.84184	0.90574
1556.78803	0.90737
1554.73422	0.90831
1552.68041	0.90912
1550.62660	0.91010
1548.57279	0.91140
1546.51898	0.91291
1544.46517	0.91450
1542.41136	0.91599
1540.35755	0.91764
1538.30374	0.91959
1536.24993	0.92128
1534.19612	0.92303
1532.14231	0.92473
1530.08850	0.92592
1528.03469	0.92701
1525.98088	0.92830
1523.92707	0.92967
1521.87326	0.93078
1519.81945	0.93120
1517.76564	0.93140
1515.71183	0.93214
1513.65802	0.93315
1511.60421	0.93395
1509.55040	0.93451
1507.49659	0.93482
1505.44278	0.93514
1503.38897	0.93550
1501.33516	0.93569
1499.28135	0.93555
1497.22754	0.93486
1495.17373	0.93369
1493.11992	0.93267
1491.06611	0.93158
1489.01230	0.92989
1486.95849	0.92774
1484.90468	0.92540
1482.85087	0.92212
1480.79706	0.91628
1478.74325	0.90359
1476.68944	0.87070
1474.63563	0.80824
1472.58182	0.75050
1470.52801	0.74337
1468.47420	0.75493
1466.42039	0.75079
1464.36658	0.72973
1462.31277	0.72491
1460.25896	0.75128
1458.20515	0.79329
1456.15134	0.82790
1454.09753	0.84506
1452.04372	0.85685
1449.98991	0.86680
1447.93610	0.87413
1445.88229	0.87896
1443.82848	0.88187
1441.77467	0.88386
1439.72086	0.88560
1437.66705	0.88754
1435.61324	0.88961
1433.55943	0.89152
1431.50562	0.89345
1429.45181	0.89535
1427.39800	0.89670
1425.34419	0.89718
1423.29038	0.89696
1421.23657	0.89639
1419.18276	0.89522
1417.12895	0.89365
1415.07514	0.89280
1413.02133	0.89288
1410.96752	0.89395
1408.91371	0.89576
1406.85990	0.89812
1404.80609	0.90129
1402.75228	0.90460
1400.69847	0.90741
1398.64466	0.91001
1396.59085	0.91234
1394.53704	0.91435
1392.48323	0.91606
1390.42942	0.91712
1388.37561	0.91755
1386.32180	0.91724
1384.26799	0.91580
1382.21418	0.91302
1380.16037	0.90944
1378.10656	0.90674
1376.05275	0.90618
1373.99894	0.90713
1371.94513	0.90807
1369.89132	0.90865
1367.83751	0.90921
1365.78370	0.91005
1363.72989	0.91184
1361.67608	0.91475
1359.62227	0.91737
1357.56846	0.91893
1355.51465	0.91999
1353.46084	0.92104
1351.40703	0.92219
1349.35322	0.92350
1347.29941	0.92495
1345.24560	0.92633
1343.19179	0.92755
1341.13798	0.92867
1339.08417	0.92982
1337.03036	0.93080
1334.97655	0.93135
1332.92274	0.93148
1330.86893	0.93115
1328.81512	0.93009
1326.76130	0.92829
1324.70749	0.92623
1322.65368	0.92456
1320.59987	0.92344
1318.54606	0.92284
1316.49225	0.92286
1314.43844	0.92340
1312.38463	0.92408
1310.33082	0.92465
1308.27701	0.92511
1306.22320	0.92546
1304.16939	0.92561
1302.11558	0.92568
1300.06177	0.92582
1298.00796	0.92592
1295.95415	0.92582
1293.90034	0.92568
1291.84653	0.92576
1289.79272	0.92579
1287.73891	0.92539
1285.68510	0.92458
1283.63129	0.92345
1281.57748	0.92176
1279.52367	0.91923
1277.46986	0.91630
1275.41605	0.91396
1273.36224	0.91279
1271.30843	0.91248
1269.25462	0.91252
1267.20081	0.91296
1265.14700	0.91360
1263.09319	0.91391
1261.03938	0.91382
1258.98557	0.91357
1256.93176	0.91335
1254.87795	0.91315
1252.82414	0.91284
1250.77033	0.91241
1248.71652	0.91196
1246.66271	0.91162
1244.60890	0.91150
1242.55509	0.91157
1240.50128	0.91159
1238.44747	0.91130
1236.39366	0.91056
1234.33985	0.90943
1232.28604	0.90806
1230.23223	0.90666
1228.17842	0.90540
1226.12461	0.90430
1224.07080	0.90354
1222.01699	0.90315
1219.96318	0.90308
1217.90937	0.90359
1215.85556	0.90470
1213.80175	0.90593
1211.74794	0.90710
1209.69413	0.90843
1207.64032	0.90980
1205.58651	0.91098
1203.53270	0.91197
1201.47889	0.91260
1199.42508	0.91280
1197.37127	0.91273
1195.31746	0.91244
1193.26365	0.91215
1191.20984	0.91206
1189.15603	0.91198
1187.10222	0.91167
1185.04841	0.91105
1182.99460	0.91005
1180.94079	0.90866
1178.88698	0.90707
1176.83317	0.90558
1174.77936	0.90417
1172.72555	0.90282
1170.67174	0.90156
1168.61793	0.90025
1166.56412	0.89896
1164.51031	0.89792
1162.45650	0.89743
1160.40269	0.89749
1158.34888	0.89767
1156.29507	0.89766
1154.24126	0.89746
1152.18745	0.89688
1150.13364	0.89592
1148.07983	0.89487
1146.02602	0.89379
1143.97221	0.89256
1141.91840	0.89102
1139.86459	0.88901
1137.81078	0.88639
1135.75697	0.88312
1133.70316	0.87905
1131.64935	0.87418
1129.59554	0.86893
1127.54173	0.86404
1125.48792	0.85994
1123.43411	0.85640
1121.38030	0.85280
1119.32649	0.84932
1117.27268	0.84697
1115.21887	0.84596
1113.16506	0.84526
1111.11125	0.84392
1109.05744	0.84170
1107.00363	0.83911
1104.94982	0.83675
1102.89601	0.83429
1100.84220	0.83132
1098.78839	0.82834
1096.73458	0.82576
1094.68077	0.82317
1092.62696	0.82054
1090.57315	0.81875
1088.51934	0.81776
1086.46553	0.81612
1084.41172	0.81331
1082.35791	0.81103
1080.30410	0.81115
1078.25029	0.81344
1076.19648	0.81653
1074.14267	0.81955
1072.08886	0.82208
1070.03505	0.82404
1067.98124	0.82547
1065.92743	0.82642
1063.87362	0.82686
1061.81981	0.82692
1059.76600	0.82681
1057.71219	0.82623
1055.65838	0.82474
1053.60457	0.82234
1051.55076	0.81911
1049.49695	0.81548
1047.44314	0.81242
1045.38933	0.81024
1043.33552	0.80871
1041.28171	0.80752
1039.22790	0.80644
1037.17409	0.80556
1035.12028	0.80496
1033.06647	0.80487
1031.01265	0.80575
1028.95884	0.80751
1026.90503	0.80959
1024.85122	0.81159
1022.79741	0.81337
1020.74360	0.81504
1018.68979	0.81707
1016.63598	0.81953
1014.58217	0.82207
1012.52836	0.82431
1010.47455	0.82638
1008.42074	0.82884
1006.36693	0.83189
1004.31312	0.83530
1002.25931	0.83916
1000.20550	0.84361
998.15169	0.84842
996.09788	0.85336
994.04407	0.85841
991.99026	0.86351
989.93645	0.86848
987.88264	0.87332
985.82883	0.87809
983.77502	0.88274
981.72121	0.88718
979.66740	0.89111
977.61359	0.89436
975.55978	0.89738
973.50597	0.90048
971.45216	0.90349
969.39835	0.90617
967.34454	0.90849
965.29073	0.91052
963.23692	0.91237
961.18311	0.91413
959.12930	0.91585
957.07549	0.91728
955.02168	0.91841
952.96787	0.91961
950.91406	0.92076
948.86025	0.92164
946.80644	0.92235
944.75263	0.92290
942.69882	0.92309
940.64501	0.92296
938.59120	0.92295
936.53739	0.92301
934.48358	0.92276
932.42977	0.92257
930.37596	0.92268
928.32215	0.92280
926.26834	0.92273
924.21453	0.92243
922.16072	0.92192
920.10691	0.92105
918.05310	0.91991
915.99929	0.91889
913.94548	0.91815
911.89167	0.91768
909.83786	0.91776
907.78405	0.91898
905.73024	0.92115
903.67643	0.92349
901.62262	0.92570
899.56881	0.92774
897.51500	0.92946
895.46119	0.93091
893.40738	0.93219
891.35357	0.93332
889.29976	0.93428
887.24595	0.93515
885.19214	0.93588
883.13833	0.93581
881.08452	0.93469
879.03071	0.93336
876.97690	0.93245
874.92309	0.93191
872.86928	0.93211
870.81547	0.93310
868.76166	0.93387
866.70785	0.93412
864.65404	0.93446
862.60023	0.93494
860.54642	0.93515
858.49261	0.93513
856.43880	0.93534
854.38499	0.93582
852.33118	0.93651
850.27737	0.93758
848.22356	0.93847
846.16975	0.93852
844.11594	0.93810
842.06213	0.93749
840.00832	0.93636
837.95451	0.93491
835.90070	0.93389
833.84689	0.93385
831.79308	0.93430
829.73927	0.93418
827.68546	0.93352
825.63165	0.93296
823.57784	0.93265
821.52403	0.93226
819.47022	0.93195
817.41641	0.93197
815.36260	0.93196
813.30879	0.93122
811.25498	0.92962
809.20117	0.92779
807.14736	0.92560
805.09355	0.92277
803.03974	0.91966
800.98593	0.91694
798.93212	0.91531
796.87831	0.91496
794.82450	0.91594
792.77069	0.91740
790.71688	0.91788
788.66307	0.91716
786.60926	0.91561
784.55545	0.91330
782.50164	0.91103
780.44783	0.90982
778.39402	0.90976
776.34021	0.91069
774.28640	0.91208
772.23259	0.91289
770.17878	0.91320
768.12497	0.91380
766.07116	0.91435
764.01735	0.91418
761.96354	0.91343
759.90973	0.91247
757.85592	0.91143
755.80211	0.91031
753.74830	0.90911
751.69449	0.90762
749.64068	0.90590
747.58687	0.90467
745.53306	0.90387
743.47925	0.90214
741.42544	0.89890
739.37163	0.89470
737.31781	0.88780
735.26400	0.87030
733.21019	0.83130
731.15638	0.78370
729.10257	0.76539
727.04876	0.77898
724.99495	0.78555
722.94114	0.75901
720.88733	0.70732
718.83352	0.67607
716.77971	0.70016
714.72590	0.75604
712.67209	0.80546
710.61828	0.83512
708.56447	0.85050
706.51066	0.85921
704.45685	0.86460
702.40304	0.86756
700.34923	0.86875
698.29542	0.86926
696.24161	0.87000
694.18780	0.87108
692.13399	0.87194
690.08018	0.87251
688.02637	0.87333
685.97256	0.87407
683.91875	0.87454
681.86494	0.87492
679.81113	0.87494
677.75732	0.87532
675.70351	0.87643
673.64970	0.87703
671.59589	0.87694
669.54208	0.87689
667.48827	0.87715
665.43446	0.87759
663.38065	0.87795
661.32684	0.87781
659.27303	0.87694
657.21922	0.87620
655.16541	0.87647
653.11160	0.87700
651.05779	0.87720
649.00398	0.87740
646.95017	0.87758
644.89636	0.87748
642.84255	0.87711
640.78874	0.87676
638.73493	0.87638
636.68112	0.87565
634.62731	0.87492
632.57350	0.87469
630.51969	0.87471
628.46588	0.87464
626.41207	0.87445
624.35826	0.87398
622.30445	0.87332
620.25064	0.87276
618.19683	0.87240
616.14302	0.87196
614.08921	0.87198
612.03540	0.87263
609.98159	0.87294
607.92778	0.87321
605.87397	0.87348
603.82016	0.87302
601.76635	0.87181
599.71254	0.87011
597.65873	0.86866
595.60492	0.86772
593.55111	0.86675
591.49730	0.86557
589.44349	0.86420
587.38968	0.86322
585.33587	0.86257
583.28206	0.86165
581.22825	0.86136
579.17444	0.86214
577.12063	0.86298
575.06682	0.86266
573.01301	0.86073
570.95920	0.85828
568.90539	0.85672
566.85158	0.85614
564.79777	0.85506
562.74396	0.85348
560.69015	0.85273
558.63634	0.85187
556.58253	0.84994
554.52872	0.84799
552.47491	0.84631
550.42110	0.84455
548.36729	0.84280
546.31348	0.84122
544.25967	0.83977
542.20586	0.83916
540.15205	0.83903
538.09824	0.83793
536.04443	0.83681
533.99062	0.83637
531.93681	0.83633
529.88300	0.83704
527.82919	0.83802
525.77538	0.83833
523.72157	0.83876
521.66776	0.84018
519.61395	0.84132
517.56014	0.84192
515.50633	0.84350
513.45252	0.84614
511.39871	0.84907
509.34490	0.85194
507.29109	0.85468
505.23728	0.85782
503.18347	0.86048
501.12966	0.86114
499.07585	0.86141
497.02204	0.86252
494.96823	0.86288
492.91442	0.86190
490.86061	0.86089
488.80680	0.86008
486.75299	0.85774
484.69918	0.85281
482.64537	0.84666
480.59156	0.84063
478.53775	0.83402
476.48394	0.82597
474.43013	0.81843
472.37632	0.81358
470.32251	0.81102
468.26870	0.81065
466.21489	0.81297
464.16108	0.81723
462.10727	0.82279
460.05346	0.82855
457.99965	0.83383
455.94584	0.83977
453.89203	0.84668
451.83822	0.85282
449.78441	0.85522
447.73060	0.85505
445.67679	0.85657
443.62298	0.85859
441.56916	0.85771
439.51535	0.85583
437.46154	0.85394
435.40773	0.85035
433.35392	0.84769
431.30011	0.84919
429.24630	0.85222
427.19249	0.85398
425.13868	0.85550
423.08487	0.85870
421.03106	0.86312
418.97725	0.86579
416.92344	0.86910
414.86963	0.87666
412.81582	0.88320
410.76201	0.88342
408.70820	0.88178
406.65439	0.88453
404.60058	0.88988
402.54677	0.89277
400.49296	0.89003
398.43915	0.88499
