3996.70104	0.99657
3994.64724	0.99715
3992.59344	0.99716
3990.53964	0.99680
3988.48583	0.99635
3986.43203	0.99648
3984.37823	0.99677
3982.32442	0.99660
3980.27062	0.99678
3978.21682	0.99764
3976.16301	0.99819
3974.10921	0.99782
3972.05541	0.99722
3970.00160	0.99700
3967.94780	0.99711
3965.89400	0.99711
3963.84019	0.99662
3961.78639	0.99602
3959.73259	0.99561
3957.67878	0.99546
3955.62498	0.99591
3953.57118	0.99660
3951.51737	0.99691
3949.46357	0.99681
3947.40977	0.99646
3945.35596	0.99611
3943.30216	0.99600
3941.24836	0.99603
3939.19455	0.99618
3937.14075	0.99648
3935.08695	0.99658
3933.03315	0.99625
3930.97934	0.99577
3928.92554	0.99582
3926.87174	0.99640
3924.81793	0.99676
3922.76413	0.99670
3920.71033	0.99668
3918.65652	0.99690
3916.60272	0.99734
3914.54892	0.99748
3912.49511	0.99700
3910.44131	0.99653
3908.38751	0.99665
3906.33370	0.99692
3904.27990	0.99661
3902.22610	0.99595
3900.17229	0.99561
3898.11849	0.99556
3896.06469	0.99564
3894.01088	0.99591
3891.95708	0.99662
3889.90328	0.99762
3887.84947	0.99834
3885.79567	0.99879
3883.74187	0.99823
3881.68807	0.99646
3879.63426	0.99527
3877.58046	0.99563
3875.52666	0.99622
3873.47285	0.99654
3871.41905	0.99656
3869.36525	0.99629
3867.31144	0.99597
3865.25764	0.99582
3863.20384	0.99636
3861.15003	0.99712
3859.09623	0.99724
3857.04243	0.99708
3854.98862	0.99671
3852.93482	0.99636
3850.88102	0.99676
3848.82721	0.99696
3846.77341	0.99660
3844.71961	0.99613
3842.66580	0.99593
3840.61200	0.99598
3838.55820	0.99602
3836.50439	0.99606
3834.45059	0.99619
3832.39679	0.99626
3830.34298	0.99611
3828.28918	0.99589
3826.23538	0.99596
3824.18158	0.99651
3822.12777	0.99756
3820.07397	0.99838
3818.02017	0.99796
3815.96636	0.99694
3813.91256	0.99625
3811.85876	0.99605
3809.80495	0.99635
3807.75115	0.99702
3805.69735	0.99749
3803.64354	0.99752
3801.58974	0.99682
3799.53594	0.99596
3797.48213	0.99625
3795.42833	0.99714
3793.37453	0.99741
3791.32072	0.99705
3789.26692	0.99700
3787.21312	0.99755
3785.15931	0.99788
3783.10551	0.99768
3781.05171	0.99753
3778.99790	0.99740
3776.94410	0.99692
3774.89030	0.99649
3772.83650	0.99635
3770.78269	0.99639
3768.72889	0.99633
3766.67509	0.99606
3764.62128	0.99619
3762.56748	0.99649
3760.51368	0.99629
3758.45987	0.99630
3756.40607	0.99711
3754.35227	0.99802
3752.29846	0.99837
3750.24466	0.99783
3748.19086	0.99688
3746.13705	0.99569
3744.08325	0.99541
3742.02945	0.99696
3739.97564	0.99832
3737.92184	0.99868
3735.86804	0.99755
3733.81423	0.99639
3731.76043	0.99691
3729.70663	0.99779
3727.65282	0.99883
3725.59902	0.99939
3723.54522	0.99833
3721.49141	0.99688
3719.43761	0.99664
3717.38381	0.99694
3715.33001	0.99676
3713.27620	0.99665
3711.22240	0.99667
3709.16860	0.99627
3707.11479	0.99638
3705.06099	0.99671
3703.00719	0.99664
3700.95338	0.99662
3698.89958	0.99694
3696.84578	0.99705
3694.79197	0.99677
3692.73817	0.99669
3690.68437	0.99685
3688.63056	0.99624
3686.57676	0.99534
3684.52296	0.99520
3682.46915	0.99550
3680.41535	0.99584
3678.36155	0.99588
3676.30774	0.99549
3674.25394	0.99520
3672.20014	0.99493
3670.14633	0.99483
3668.09253	0.99561
3666.03873	0.99626
3663.98492	0.99610
3661.93112	0.99541
3659.87732	0.99490
3657.82352	0.99451
3655.76971	0.99354
3653.71591	0.99287
3651.66211	0.99324
3649.60830	0.99395
3647.55450	0.99355
3645.50070	0.99287
3643.44689	0.99323
3641.39309	0.99375
3639.33929	0.99320
3637.28548	0.99250
3635.23168	0.99284
3633.17788	0.99374
3631.12407	0.99444
3629.07027	0.99396
3627.01647	0.99263
3624.96266	0.99268
3622.90886	0.99335
3620.85506	0.99322
3618.80125	0.99249
3616.74745	0.99216
3614.69365	0.99201
3612.63984	0.99200
3610.58604	0.99253
3608.53224	0.99330
3606.47844	0.99388
3604.42463	0.99410
3602.37083	0.99395
3600.31703	0.99363
3598.26322	0.99303
3596.20942	0.99263
3594.15562	0.99319
3592.10181	0.99367
3590.04801	0.99351
3587.99421	0.99348
3585.94040	0.99369
3583.88660	0.99425
3581.83280	0.99484
3579.77899	0.99505
3577.72519	0.99518
3575.67139	0.99514
3573.61758	0.99495
3571.56378	0.99495
3569.50998	0.99505
3567.45617	0.99520
3565.40237	0.99496
3563.34857	0.99435
3561.29476	0.99431
3559.24096	0.99482
3557.18716	0.99510
3555.13335	0.99518
3553.07955	0.99512
3551.02575	0.99453
3548.97195	0.99412
3546.91814	0.99457
3544.86434	0.99489
3542.81054	0.99473
3540.75673	0.99501
3538.70293	0.99537
3536.64913	0.99518
3534.59532	0.99482
3532.54152	0.99463
3530.48772	0.99481
3528.43391	0.99544
3526.38011	0.99579
3524.32631	0.99523
3522.27250	0.99454
3520.21870	0.99452
3518.16490	0.99487
3516.11109	0.99534
3514.05729	0.99578
3512.00349	0.99597
3509.94968	0.99555
3507.89588	0.99493
3505.84208	0.99497
3503.78827	0.99548
3501.73447	0.99599
3499.68067	0.99595
3497.62687	0.99544
3495.57306	0.99513
3493.51926	0.99508
3491.46546	0.99504
3489.41165	0.99500
3487.35785	0.99490
3485.30405	0.99460
3483.25024	0.99435
3481.19644	0.99482
3479.14264	0.99561
3477.08883	0.99563
3475.03503	0.99479
3472.98123	0.99411
3470.92742	0.99429
3468.87362	0.99473
3466.81982	0.99483
3464.76601	0.99482
3462.71221	0.99481
3460.65841	0.99465
3458.60460	0.99451
3456.55080	0.99489
3454.49700	0.99558
3452.44319	0.99584
3450.38939	0.99576
3448.33559	0.99565
3446.28178	0.99533
3444.22798	0.99519
3442.17418	0.99550
3440.12038	0.99588
3438.06657	0.99601
3436.01277	0.99555
3433.95897	0.99489
3431.90516	0.99488
3429.85136	0.99518
3427.79756	0.99514
3425.74375	0.99524
3423.68995	0.99562
3421.63615	0.99541
3419.58234	0.99488
3417.52854	0.99499
3415.47474	0.99507
3413.42093	0.99460
3411.36713	0.99451
3409.31333	0.99521
3407.25952	0.99599
3405.20572	0.99628
3403.15192	0.99615
3401.09811	0.99596
3399.04431	0.99591
3396.99051	0.99552
3394.93670	0.99488
3392.88290	0.99459
3390.82910	0.99461
3388.77529	0.99505
3386.72149	0.99580
3384.66769	0.99618
3382.61389	0.99599
3380.56008	0.99558
3378.50628	0.99511
3376.45248	0.99475
3374.39867	0.99467
3372.34487	0.99483
3370.29107	0.99488
3368.23726	0.99474
3366.18346	0.99484
3364.12966	0.99539
3362.07585	0.99585
3360.02205	0.99569
3357.96825	0.99516
3355.91444	0.99492
3353.86064	0.99531
3351.80684	0.99579
3349.75303	0.99575
3347.69923	0.99538
3345.64543	0.99497
3343.59162	0.99481
3341.53782	0.99480
3339.48402	0.99459
3337.43021	0.99454
3335.37641	0.99484
3333.32261	0.99474
3331.26881	0.99433
3329.21500	0.99452
3327.16120	0.99496
3325.10740	0.99509
3323.05359	0.99546
3320.99979	0.99612
3318.94599	0.99665
3316.89218	0.99710
3314.83838	0.99683
3312.78458	0.99547
3310.73077	0.99419
3308.67697	0.99413
3306.62317	0.99473
3304.56936	0.99531
3302.51556	0.99584
3300.46176	0.99592
3298.40795	0.99550
3296.35415	0.99521
3294.30035	0.99526
3292.24654	0.99539
3290.19274	0.99553
3288.13894	0.99591
3286.08513	0.99627
3284.03133	0.99640
3281.97753	0.99649
3279.92372	0.99623
3277.86992	0.99537
3275.81612	0.99482
3273.76232	0.99501
3271.70851	0.99530
3269.65471	0.99567
3267.60091	0.99577
3265.54710	0.99511
3263.49330	0.99485
3261.43950	0.99571
3259.38569	0.99668
3257.33189	0.99709
3255.27809	0.99688
3253.22428	0.99631
3251.17048	0.99605
3249.11668	0.99606
3247.06287	0.99611
3245.00907	0.99600
3242.95527	0.99520
3240.90146	0.99461
3238.84766	0.99516
3236.79386	0.99559
3234.74005	0.99545
3232.68625	0.99582
3230.63245	0.99645
3228.57864	0.99665
3226.52484	0.99636
3224.47104	0.99572
3222.41724	0.99516
3220.36343	0.99521
3218.30963	0.99608
3216.25583	0.99685
3214.20202	0.99673
3212.14822	0.99609
3210.09442	0.99560
3208.04061	0.99554
3205.98681	0.99557
3203.93301	0.99533
3201.87920	0.99512
3199.82540	0.99520
3197.77160	0.99559
3195.71779	0.99592
3193.66399	0.99577
3191.61019	0.99564
3189.55638	0.99594
3187.50258	0.99630
3185.44878	0.99641
3183.39497	0.99630
3181.34117	0.99622
3179.28737	0.99641
3177.23356	0.99665
3175.17976	0.99645
3173.12596	0.99609
3171.07215	0.99614
3169.01835	0.99631
3166.96455	0.99597
3164.91075	0.99572
3162.85694	0.99607
3160.80314	0.99614
3158.74934	0.99569
3156.69553	0.99555
3154.64173	0.99590
3152.58793	0.99617
3150.53412	0.99644
3148.48032	0.99670
3146.42652	0.99642
3144.37271	0.99595
3142.31891	0.99582
3140.26511	0.99576
3138.21130	0.99576
3136.15750	0.99600
3134.10370	0.99614
3132.04989	0.99593
3129.99609	0.99574
3127.94229	0.99592
3125.88848	0.99614
3123.83468	0.99626
3121.78088	0.99649
3119.72707	0.99672
3117.67327	0.99673
3115.61947	0.99663
3113.56566	0.99672
3111.51186	0.99681
3109.45806	0.99654
3107.40426	0.99629
3105.35045	0.99621
3103.29665	0.99597
3101.24285	0.99591
3099.18904	0.99614
3097.13524	0.99613
3095.08144	0.99603
3093.02763	0.99615
3090.97383	0.99629
3088.92003	0.99647
3086.86622	0.99663
3084.81242	0.99642
3082.75862	0.99621
3080.70481	0.99652
3078.65101	0.99674
3076.59721	0.99653
3074.54340	0.99621
3072.48960	0.99598
3070.43580	0.99622
3068.38199	0.99675
3066.32819	0.99694
3064.27439	0.99665
3062.22058	0.99605
3060.16678	0.99574
3058.11298	0.99591
3056.05918	0.99609
3054.00537	0.99604
3051.95157	0.99603
3049.89777	0.99634
3047.84396	0.99660
3045.79016	0.99666
3043.73636	0.99699
3041.68255	0.99725
3039.62875	0.99702
3037.57495	0.99644
3035.52114	0.99605
3033.46734	0.99619
3031.41354	0.99614
3029.35973	0.99569
3027.30593	0.99567
3025.25213	0.99614
3023.19832	0.99650
3021.14452	0.99655
3019.09072	0.99625
3017.03691	0.99580
3014.98311	0.99572
3012.92931	0.99599
3010.87550	0.99615
3008.82170	0.99605
3006.76790	0.99606
3004.71409	0.99622
3002.66029	0.99637
3000.60649	0.99674
2998.55269	0.99709
2996.49888	0.99696
2994.44508	0.99683
2992.39128	0.99716
2990.33747	0.99747
2988.28367	0.99709
2986.22987	0.99628
2984.17606	0.99596
2982.12226	0.99613
2980.06846	0.99633
2978.01465	0.99646
2975.96085	0.99654
2973.90705	0.99659
2971.85324	0.99684
2969.79944	0.99737
2967.74564	0.99760
2965.69183	0.99767
2963.63803	0.99813
2961.58423	0.99831
2959.53042	0.99790
2957.47662	0.99771
2955.42282	0.99793
2953.36901	0.99799
2951.31521	0.99795
2949.26141	0.99804
2947.20761	0.99816
2945.15380	0.99821
2943.10000	0.99837
2941.04620	0.99894
2938.99239	0.99959
2936.93859	0.99992
2934.88479	0.99992
2932.83098	0.99992
2930.77718	1.00033
2928.72338	1.00094
2926.66957	1.00137
2924.61577	1.00129
2922.56197	1.00082
2920.50816	1.00045
2918.45436	1.00011
2916.40056	0.99970
2914.34675	0.99941
2912.29295	0.99920
2910.23915	0.99889
2908.18534	0.99839
2906.13154	0.99802
2904.07774	0.99801
2902.02393	0.99795
2899.97013	0.99784
2897.91633	0.99806
2895.86252	0.99810
2893.80872	0.99776
2891.75492	0.99737
2889.70112	0.99714
2887.64731	0.99716
2885.59351	0.99728
2883.53971	0.99741
2881.48590	0.99762
2879.43210	0.99763
2877.37830	0.99728
2875.32449	0.99702
2873.27069	0.99710
2871.21689	0.99732
2869.16308	0.99755
2867.10928	0.99774
2865.05548	0.99776
2863.00167	0.99778
2860.94787	0.99807
2858.89407	0.99827
2856.84026	0.99837
2854.78646	0.99864
2852.73266	0.99873
2850.67885	0.99856
2848.62505	0.99828
2846.57125	0.99802
2844.51744	0.99797
2842.46364	0.99778
2840.40984	0.99739
2838.35603	0.99742
2836.30223	0.99751
2834.24843	0.99700
2832.19463	0.99636
2830.14082	0.99606
2828.08702	0.99600
2826.03322	0.99629
2823.97941	0.99682
2821.92561	0.99718
2819.87181	0.99730
2817.81800	0.99709
2815.76420	0.99683
2813.71040	0.99697
2811.65659	0.99710
2809.60279	0.99690
2807.54899	0.99661
2805.49518	0.99651
2803.44138	0.99669
2801.38758	0.99699
2799.33377	0.99716
2797.27997	0.99722
2795.22617	0.99707
2793.17236	0.99677
2791.11856	0.99677
2789.06476	0.99697
2787.01095	0.99712
2784.95715	0.99724
2782.90335	0.99732
2780.84955	0.99728
2778.79574	0.99706
2776.74194	0.99689
2774.68814	0.99700
2772.63433	0.99712
2770.58053	0.99703
2768.52673	0.99682
2766.47292	0.99667
2764.41912	0.99658
2762.36532	0.99645
2760.31151	0.99659
2758.25771	0.99714
2756.20391	0.99735
2754.15010	0.99715
2752.09630	0.99692
2750.04250	0.99667
2747.98869	0.99649
2745.93489	0.99648
2743.88109	0.99666
2741.82728	0.99707
2739.77348	0.99727
2737.71968	0.99703
2735.66587	0.99680
2733.61207	0.99678
2731.55827	0.99702
2729.50446	0.99738
2727.45066	0.99753
2725.39686	0.99738
2723.34306	0.99686
2721.28925	0.99636
2719.23545	0.99634
2717.18165	0.99664
2715.12784	0.99689
2713.07404	0.99696
2711.02024	0.99691
2708.96643	0.99674
2706.91263	0.99658
2704.85883	0.99659
2702.80502	0.99681
2700.75122	0.99701
2698.69742	0.99705
2696.64361	0.99715
2694.58981	0.99730
2692.53601	0.99725
2690.48220	0.99701
2688.42840	0.99674
2686.37460	0.99661
2684.32079	0.99662
2682.26699	0.99652
2680.21319	0.99651
2678.15938	0.99668
2676.10558	0.99681
2674.05178	0.99689
2671.99797	0.99700
2669.94417	0.99710
2667.89037	0.99725
2665.83657	0.99731
2663.78276	0.99700
2661.72896	0.99654
2659.67516	0.99622
2657.62135	0.99622
2655.56755	0.99626
2653.51375	0.99593
2651.45994	0.99551
2649.40614	0.99556
2647.35234	0.99595
2645.29853	0.99602
2643.24473	0.99589
2641.19093	0.99604
2639.13712	0.99619
2637.08332	0.99630
2635.02952	0.99651
2632.97571	0.99639
2630.92191	0.99587
2628.86811	0.99550
2626.81430	0.99553
2624.76050	0.99547
2622.70670	0.99529
2620.65289	0.99557
2618.59909	0.99633
2616.54529	0.99701
2614.49149	0.99708
2612.43768	0.99673
2610.38388	0.99641
2608.33008	0.99617
2606.27627	0.99622
2604.22247	0.99643
2602.16867	0.99625
2600.11486	0.99615
2598.06106	0.99659
2596.00726	0.99695
2593.95345	0.99703
2591.89965	0.99702
2589.84585	0.99700
2587.79204	0.99696
2585.73824	0.99662
2583.68444	0.99619
2581.63063	0.99616
2579.57683	0.99612
2577.52303	0.99592
2575.46922	0.99580
2573.41542	0.99583
2571.36162	0.99632
2569.30781	0.99701
2567.25401	0.99747
2565.20021	0.99774
2563.14640	0.99762
2561.09260	0.99709
2559.03880	0.99659
2556.98500	0.99646
2554.93119	0.99690
2552.87739	0.99729
2550.82359	0.99736
2548.76978	0.99758
2546.71598	0.99776
2544.66218	0.99761
2542.60837	0.99736
2540.55457	0.99719
2538.50077	0.99714
2536.44696	0.99721
2534.39316	0.99718
2532.33936	0.99698
2530.28555	0.99692
2528.23175	0.99707
2526.17795	0.99742
2524.12414	0.99784
2522.07034	0.99752
2520.01654	0.99672
2517.96273	0.99668
2515.90893	0.99720
2513.85513	0.99725
2511.80132	0.99680
2509.74752	0.99690
2507.69372	0.99747
2505.63992	0.99706
2503.58611	0.99598
2501.53231	0.99576
2499.47851	0.99649
2497.42470	0.99727
2495.37090	0.99759
2493.31710	0.99742
2491.26329	0.99692
2489.20949	0.99634
2487.15569	0.99611
2485.10188	0.99654
2483.04808	0.99694
2480.99428	0.99676
2478.94047	0.99683
2476.88667	0.99734
2474.83287	0.99756
2472.77906	0.99755
2470.72526	0.99749
2468.67146	0.99732
2466.61765	0.99715
2464.56385	0.99725
2462.51005	0.99720
2460.45624	0.99661
2458.40244	0.99629
2456.34864	0.99694
2454.29483	0.99777
2452.24103	0.99807
2450.18723	0.99831
2448.13343	0.99856
2446.07962	0.99813
2444.02582	0.99726
2441.97202	0.99705
2439.91821	0.99748
2437.86441	0.99777
2435.81061	0.99784
2433.75680	0.99767
2431.70300	0.99730
2429.64920	0.99698
2427.59539	0.99660
2425.54159	0.99640
2423.48779	0.99695
2421.43398	0.99779
2419.38018	0.99811
2417.32638	0.99797
2415.27257	0.99765
2413.21877	0.99754
2411.16497	0.99779
2409.11116	0.99779
2407.05736	0.99727
2405.00356	0.99682
2402.94975	0.99685
2400.89595	0.99725
2398.84215	0.99779
2396.78834	0.99804
2394.73454	0.99789
2392.68074	0.99799
2390.62694	0.99827
2388.57313	0.99821
2386.51933	0.99805
2384.46553	0.99789
2382.41172	0.99756
2380.35792	0.99736
2378.30412	0.99752
2376.25031	0.99752
2374.19651	0.99732
2372.14271	0.99758
2370.08890	0.99824
2368.03510	0.99855
2365.98130	0.99802
2363.92749	0.99753
2361.87369	0.99733
2359.81989	0.99664
2357.76608	0.99579
2355.71228	0.99567
2353.65848	0.99649
2351.60467	0.99741
2349.55087	0.99768
2347.49707	0.99742
2345.44326	0.99728
2343.38946	0.99765
2341.33566	0.99799
2339.28186	0.99770
2337.22805	0.99745
2335.17425	0.99811
2333.12045	0.99876
2331.06664	0.99883
2329.01284	0.99836
2326.95904	0.99723
2324.90523	0.99637
2322.85143	0.99625
2320.79763	0.99604
2318.74382	0.99559
2316.69002	0.99578
2314.63622	0.99663
2312.58241	0.99728
2310.52861	0.99721
2308.47481	0.99668
2306.42100	0.99624
2304.36720	0.99617
2302.31340	0.99659
2300.25959	0.99724
2298.20579	0.99732
2296.15199	0.99677
2294.09818	0.99618
2292.04438	0.99562
2289.99058	0.99529
2287.93677	0.99551
2285.88297	0.99551
2283.82917	0.99488
2281.77537	0.99467
2279.72156	0.99503
2277.66776	0.99572
2275.61396	0.99698
2273.56015	0.99800
2271.50635	0.99820
2269.45255	0.99774
2267.39874	0.99696
2265.34494	0.99698
2263.29114	0.99818
2261.23733	0.99896
2259.18353	0.99872
2257.12973	0.99926
2255.07592	1.00006
2253.02212	0.99954
2250.96832	0.99894
2248.91451	0.99842
2246.86071	0.99729
2244.80691	0.99621
2242.75310	0.99610
2240.69930	0.99715
2238.64550	0.99848
2236.59169	0.99912
2234.53789	0.99858
2232.48409	0.99798
2230.43029	0.99832
2228.37648	0.99857
2226.32268	0.99878
2224.26888	0.99966
2222.21507	1.00028
2220.16127	1.00073
2218.10747	1.00126
2216.05366	1.00068
2213.99986	0.99981
2211.94606	0.99999
2209.89225	1.00014
2207.83845	0.99964
2205.78465	0.99878
2203.73084	0.99734
2201.67704	0.99594
2199.62324	0.99591
2197.56943	0.99650
2195.51563	0.99591
2193.46183	0.99508
2191.40802	0.99524
2189.35422	0.99583
2187.30042	0.99714
2185.24661	0.99992
2183.19281	1.00341
2181.13901	1.00462
2179.08520	1.00300
2177.03140	1.00110
2174.97760	0.99979
2172.92380	0.99859
2170.86999	0.99744
2168.81619	0.99708
2166.76239	0.99648
2164.70858	0.99442
2162.65478	0.99342
2160.60098	0.99472
2158.54717	0.99733
2156.49337	1.00154
2154.43957	1.00466
2152.38576	1.00443
2150.33196	1.00382
2148.27816	1.00363
2146.22435	1.00188
2144.17055	1.00022
2142.11675	0.99972
2140.06294	0.99955
2138.00914	1.00013
2135.95534	1.00099
2133.90153	1.00162
2131.84773	1.00203
2129.79393	1.00094
2127.74012	0.99918
2125.68632	0.99903
2123.63252	0.99980
2121.57871	0.99999
2119.52491	0.99978
2117.47111	0.99932
2115.41731	0.99831
2113.36350	0.99746
2111.30970	0.99783
2109.25590	0.99840
2107.20209	0.99793
2105.14829	0.99743
2103.09449	0.99803
2101.04068	0.99921
2098.98688	1.00004
2096.93308	0.99995
2094.87927	0.99889
2092.82547	0.99802
2090.77167	0.99813
2088.71786	0.99875
2086.66406	0.99925
2084.61026	0.99974
2082.55645	1.00039
2080.50265	1.00038
2078.44885	0.99945
2076.39504	0.99867
2074.34124	0.99852
2072.28744	0.99833
2070.23363	0.99782
2068.17983	0.99778
2066.12603	0.99817
2064.07223	0.99829
2062.01842	0.99862
2059.96462	0.99889
2057.91082	0.99856
2055.85701	0.99896
2053.80321	0.99940
2051.74941	0.99762
2049.69560	0.99488
2047.64180	0.99304
2045.58800	0.99330
2043.53419	0.99569
2041.48039	0.99714
2039.42659	0.99715
2037.37278	0.99788
2035.31898	0.99915
2033.26518	1.00077
2031.21137	1.00358
2029.15757	1.00587
2027.10377	1.00469
2025.04996	1.00002
2022.99616	0.99572
2020.94236	0.99592
2018.88855	0.99983
2016.83475	1.00212
2014.78095	1.00157
2012.72714	1.00204
2010.67334	1.00293
2008.61954	1.00175
2006.56574	1.00088
2004.51193	1.00225
2002.45813	1.00389
2000.40433	1.00469
1998.35052	1.00397
1996.29672	1.00118
1994.24292	0.99862
1992.18911	0.99781
1990.13531	0.99658
1988.08151	0.99465
1986.02770	0.99399
1983.97390	0.99412
1981.92010	0.99482
1979.86629	0.99689
1977.81249	1.00019
1975.75869	1.00273
1973.70488	1.00221
1971.65108	1.00077
1969.59728	1.00083
1967.54347	1.00202
1965.48967	1.00366
1963.43587	1.00359
1961.38206	1.00051
1959.32826	0.99731
1957.27446	0.99716
1955.22066	0.99947
1953.16685	1.00095
1951.11305	1.00043
1949.05925	0.99933
1947.00544	0.99731
1944.95164	0.99473
1942.89784	0.99434
1940.84403	0.99603
1938.79023	0.99804
1936.73643	0.99951
1934.68262	0.99938
1932.62882	0.99871
1930.57502	0.99846
1928.52121	0.99820
1926.46741	0.99832
1924.41361	0.99884
1922.35980	0.99876
1920.30600	0.99779
1918.25220	0.99745
1916.19839	0.99863
1914.14459	0.99978
1912.09079	1.00006
1910.03698	0.99959
1907.98318	0.99834
1905.92938	0.99755
1903.87557	0.99814
1901.82177	0.99884
1899.76797	0.99838
1897.71417	0.99772
1895.66036	0.99799
1893.60656	0.99851
1891.55276	0.99880
1889.49895	0.99878
1887.44515	0.99830
1885.39135	0.99774
1883.33754	0.99737
1881.28374	0.99723
1879.22994	0.99729
1877.17613	0.99744
1875.12233	0.99728
1873.06853	0.99717
1871.01472	0.99768
1868.96092	0.99842
1866.90712	0.99839
1864.85331	0.99721
1862.79951	0.99639
1860.74571	0.99694
1858.69190	0.99756
1856.63810	0.99762
1854.58430	0.99773
1852.53049	0.99787
1850.47669	0.99803
1848.42289	0.99776
1846.36908	0.99689
1844.31528	0.99653
1842.26148	0.99679
1840.20768	0.99710
1838.15387	0.99749
1836.10007	0.99769
1834.04627	0.99787
1831.99246	0.99828
1829.93866	0.99847
1827.88486	0.99823
1825.83105	0.99782
1823.77725	0.99751
1821.72345	0.99761
1819.66964	0.99779
1817.61584	0.99759
1815.56204	0.99737
1813.50823	0.99753
1811.45443	0.99801
1809.40063	0.99855
1807.34682	0.99874
1805.29302	0.99852
1803.23922	0.99838
1801.18541	0.99853
1799.13161	0.99853
1797.07781	0.99838
1795.02400	0.99834
1792.97020	0.99818
1790.91640	0.99754
1788.86260	0.99694
1786.80879	0.99667
1784.75499	0.99668
1782.70119	0.99690
1780.64738	0.99726
1778.59358	0.99774
1776.53978	0.99793
1774.48597	0.99768
1772.43217	0.99753
1770.37837	0.99752
1768.32456	0.99742
1766.27076	0.99743
1764.21696	0.99758
1762.16315	0.99783
1760.10935	0.99815
1758.05555	0.99856
1756.00174	0.99886
1753.94794	0.99893
1751.89414	0.99918
1749.84033	0.99963
1747.78653	0.99962
1745.73273	0.99919
1743.67892	0.99890
1741.62512	0.99875
1739.57132	0.99845
1737.51751	0.99830
1735.46371	0.99853
1733.40991	0.99889
1731.35611	0.99887
1729.30230	0.99849
1727.24850	0.99832
1725.19470	0.99858
1723.14089	0.99875
1721.08709	0.99879
1719.03329	0.99906
1716.97948	0.99894
1714.92568	0.99838
1712.87188	0.99840
1710.81807	0.99862
1708.76427	0.99860
1706.71047	0.99875
1704.65666	0.99893
1702.60286	0.99867
1700.54906	0.99858
1698.49525	0.99918
1696.44145	0.99936
1694.38765	0.99871
1692.33384	0.99823
1690.28004	0.99803
1688.22624	0.99768
1686.17243	0.99729
1684.11863	0.99716
1682.06483	0.99734
1680.01103	0.99772
1677.95722	0.99808
1675.90342	0.99806
1673.84962	0.99790
1671.79581	0.99803
1669.74201	0.99803
1667.68821	0.99779
1665.63440	0.99768
1663.58060	0.99752
1661.52680	0.99728
1659.47299	0.99737
1657.41919	0.99761
1655.36539	0.99774
1653.31158	0.99795
1651.25778	0.99810
1649.20398	0.99790
1647.15017	0.99746
1645.09637	0.99714
1643.04257	0.99715
1640.98876	0.99738
1638.93496	0.99753
1636.88116	0.99701
1634.82735	0.99660
1632.77355	0.99720
1630.71975	0.99778
1628.66594	0.99789
1626.61214	0.99757
1624.55834	0.99709
1622.50454	0.99691
1620.45073	0.99719
1618.39693	0.99740
1616.34313	0.99724
1614.28932	0.99718
1612.23552	0.99742
1610.18172	0.99759
1608.12791	0.99755
1606.07411	0.99740
1604.02031	0.99723
1601.96650	0.99715
1599.91270	0.99717
1597.85890	0.99747
1595.80509	0.99776
1593.75129	0.99740
1591.69749	0.99693
1589.64368	0.99719
1587.58988	0.99785
1585.53608	0.99821
1583.48227	0.99821
1581.42847	0.99808
1579.37467	0.99817
1577.32086	0.99877
1575.26706	0.99935
1573.21326	0.99918
1571.15945	0.99875
1569.10565	0.99858
1567.05185	0.99867
1564.99805	0.99872
1562.94424	0.99878
1560.89044	0.99885
1558.83664	0.99908
1556.78283	0.99925
1554.72903	0.99899
1552.67523	0.99853
1550.62142	0.99816
1548.56762	0.99818
1546.51382	0.99855
1544.46001	0.99863
1542.40621	0.99806
1540.35241	0.99768
1538.29860	0.99774
1536.24480	0.99761
1534.19100	0.99747
1532.13719	0.99747
1530.08339	0.99748
1528.02959	0.99754
1525.97578	0.99771
1523.92198	0.99823
1521.86818	0.99892
1519.81437	0.99867
1517.76057	0.99797
1515.70677	0.99787
1513.65297	0.99804
1511.59916	0.99776
1509.54536	0.99692
1507.49156	0.99627
1505.43775	0.99707
1503.38395	0.99809
1501.33015	0.99855
1499.27634	0.99846
1497.22254	0.99804
1495.16874	0.99793
1493.11493	0.99811
1491.06113	0.99825
1489.00733	0.99835
1486.95352	0.99851
1484.89972	0.99847
1482.84592	0.99825
1480.79211	0.99821
1478.73831	0.99829
1476.68451	0.99818
1474.63070	0.99800
1472.57690	0.99812
1470.52310	0.99862
1468.46929	0.99906
1466.41549	0.99919
1464.36169	0.99915
1462.30788	0.99919
1460.25408	0.99937
1458.20028	0.99957
1456.14648	0.99945
1454.09267	0.99914
1452.03887	0.99901
1449.98507	0.99912
1447.93126	0.99916
1445.87746	0.99896
1443.82366	0.99876
1441.76985	0.99865
1439.71605	0.99868
1437.66225	0.99889
1435.60844	0.99907
1433.55464	0.99881
1431.50084	0.99871
1429.44703	0.99896
1427.39323	0.99890
1425.33943	0.99864
1423.28562	0.99871
1421.23182	0.99899
1419.17802	0.99907
1417.12421	0.99885
1415.07041	0.99865
1413.01661	0.99873
1410.96280	0.99895
1408.90900	0.99900
1406.85520	0.99903
1404.80139	0.99891
1402.74759	0.99851
1400.69379	0.99827
1398.63999	0.99839
1396.58618	0.99865
1394.53238	0.99866
1392.47858	0.99858
1390.42477	0.99871
1388.37097	0.99908
1386.31717	0.99930
1384.26336	0.99915
1382.20956	0.99892
1380.15576	0.99885
1378.10195	0.99891
1376.04815	0.99881
1373.99435	0.99854
1371.94054	0.99853
1369.88674	0.99877
1367.83294	0.99901
1365.77913	0.99916
1363.72533	0.99900
1361.67153	0.99844
1359.61772	0.99815
1357.56392	0.99856
1355.51012	0.99901
1353.45631	0.99900
1351.40251	0.99870
1349.34871	0.99819
1347.29491	0.99795
1345.24110	0.99817
1343.18730	0.99830
1341.13350	0.99827
1339.07969	0.99827
1337.02589	0.99836
1334.97209	0.99839
1332.91828	0.99811
1330.86448	0.99787
1328.81068	0.99795
1326.75687	0.99816
1324.70307	0.99831
1322.64927	0.99825
1320.59546	0.99815
1318.54166	0.99812
1316.48786	0.99793
1314.43405	0.99758
1312.38025	0.99744
1310.32645	0.99744
1308.27264	0.99740
1306.21884	0.99729
1304.16504	0.99695
1302.11123	0.99663
1300.05743	0.99673
1298.00363	0.99698
1295.94982	0.99696
1293.89602	0.99674
1291.84222	0.99647
1289.78842	0.99631
1287.73461	0.99630
1285.68081	0.99620
1283.62701	0.99593
1281.57320	0.99543
1279.51940	0.99480
1277.46560	0.99452
1275.41179	0.99464
1273.35799	0.99473
1271.30419	0.99442
1269.25038	0.99392
1267.19658	0.99384
1265.14278	0.99406
1263.08897	0.99420
1261.03517	0.99416
1258.98137	0.99384
1256.92756	0.99333
1254.87376	0.99278
1252.81996	0.99222
1250.76615	0.99172
1248.71235	0.99142
1246.65855	0.99103
1244.60474	0.99037
1242.55094	0.98990
1240.49714	0.98974
1238.44334	0.98938
1236.38953	0.98853
1234.33573	0.98760
1232.28193	0.98695
1230.22812	0.98623
1228.17432	0.98502
1226.12052	0.98340
1224.06671	0.98168
1222.01291	0.97985
1219.95911	0.97775
1217.90530	0.97542
1215.85150	0.97318
1213.79770	0.97096
1211.74389	0.96834
1209.69009	0.96558
1207.63629	0.96322
1205.58248	0.96132
1203.52868	0.95967
1201.47488	0.95796
1199.42107	0.95606
1197.36727	0.95416
1195.31347	0.95234
1193.25966	0.95074
1191.20586	0.94948
1189.15206	0.94844
1187.09825	0.94747
1185.04445	0.94626
1182.99065	0.94461
1180.93685	0.94281
1178.88304	0.94132
1176.82924	0.93966
1174.77544	0.93748
1172.72163	0.93516
1170.66783	0.93240
1168.61403	0.92941
1166.56022	0.92712
1164.50642	0.92538
1162.45262	0.92439
1160.39881	0.92522
1158.34501	0.92719
1156.29121	0.92820
1154.23740	0.92749
1152.18360	0.92566
1150.12980	0.92337
1148.07599	0.92101
1146.02219	0.91882
1143.96839	0.91682
1141.91458	0.91468
1139.86078	0.91190
1137.80698	0.90846
1135.75317	0.90495
1133.69937	0.90197
1131.64557	0.89936
1129.59176	0.89645
1127.53796	0.89325
1125.48416	0.88996
1123.43036	0.88643
1121.37655	0.88295
1119.32275	0.87953
1117.26895	0.87569
1115.21514	0.87184
1113.16134	0.86831
1111.10754	0.86465
1109.05373	0.86075
1106.99993	0.85700
1104.94613	0.85348
1102.89232	0.84988
1100.83852	0.84613
1098.78472	0.84219
1096.73091	0.83816
1094.67711	0.83434
1092.62331	0.83088
1090.56950	0.82780
1088.51570	0.82512
1086.46190	0.82275
1084.40809	0.82060
1082.35429	0.81886
1080.30049	0.81786
1078.24668	0.81772
1076.19288	0.81844
1074.13908	0.81997
1072.08528	0.82205
1070.03147	0.82385
1067.97767	0.82452
1065.92387	0.82432
1063.87006	0.82428
1061.81626	0.82489
1059.76246	0.82588
1057.70865	0.82706
1055.65485	0.82864
1053.60105	0.83051
1051.54724	0.83226
1049.49344	0.83393
1047.43964	0.83544
1045.38583	0.83618
1043.33203	0.83588
1041.27823	0.83531
1039.22442	0.83525
1037.17062	0.83558
1035.11682	0.83583
1033.06301	0.83611
1031.00921	0.83703
1028.95541	0.83830
1026.90160	0.83908
1024.84780	0.83957
1022.79400	0.84020
1020.74019	0.84078
1018.68639	0.84146
1016.63259	0.84245
1014.57879	0.84371
1012.52498	0.84516
1010.47118	0.84677
1008.41738	0.84834
1006.36357	0.84946
1004.30977	0.84992
1002.25597	0.85030
1000.20216	0.85123
998.14836	0.85258
996.09456	0.85414
994.04075	0.85541
991.98695	0.85634
989.93315	0.85776
987.87934	0.85988
985.82554	0.86221
983.77174	0.86424
981.71793	0.86610
979.66413	0.86835
977.61033	0.87068
975.55652	0.87297
973.50272	0.87579
971.44892	0.87886
969.39511	0.88162
967.34131	0.88439
965.28751	0.88744
963.23371	0.89036
961.17990	0.89270
959.12610	0.89450
957.07230	0.89624
955.01849	0.89813
952.96469	0.90002
950.91089	0.90191
948.85708	0.90378
946.80328	0.90538
944.74948	0.90635
942.69567	0.90714
940.64187	0.90837
938.58807	0.90953
936.53426	0.91016
934.48046	0.91074
932.42666	0.91165
930.37285	0.91248
928.31905	0.91331
926.26525	0.91440
924.21144	0.91529
922.15764	0.91590
920.10384	0.91625
918.05003	0.91629
915.99623	0.91638
913.94243	0.91703
911.88862	0.91821
909.83482	0.91951
907.78102	0.92075
905.72722	0.92197
903.67341	0.92339
901.61961	0.92521
899.56581	0.92759
897.51200	0.93013
895.45820	0.93225
893.40440	0.93388
891.35059	0.93508
889.29679	0.93623
887.24299	0.93757
885.18918	0.93932
883.13538	0.94105
881.08158	0.94221
879.02777	0.94360
876.97397	0.94541
874.92017	0.94689
872.86636	0.94813
870.81256	0.94956
868.75876	0.95105
866.70495	0.95287
864.65115	0.95530
862.59735	0.95719
860.54354	0.95829
858.48974	0.95964
856.43594	0.96097
854.38213	0.96155
852.32833	0.96233
850.27453	0.96402
848.22073	0.96529
846.16692	0.96580
844.11312	0.96680
842.05932	0.96798
840.00551	0.96816
837.95171	0.96733
835.89791	0.96618
833.84410	0.96548
831.79030	0.96556
829.73650	0.96579
827.68269	0.96523
825.62889	0.96404
823.57509	0.96342
821.52128	0.96364
819.46748	0.96372
817.41368	0.96248
815.35987	0.95975
813.30607	0.95608
811.25227	0.95150
809.19846	0.94479
807.14466	0.93475
805.09086	0.92215
803.03705	0.90933
800.98325	0.89874
798.92945	0.89214
796.87565	0.89024
794.82184	0.89220
792.76804	0.89648
790.71424	0.90091
788.66043	0.90303
786.60663	0.90214
784.55283	0.89825
782.49902	0.89186
780.44522	0.88586
778.39142	0.88386
776.33761	0.88675
774.28381	0.89282
772.23001	0.89985
770.17620	0.90644
768.12240	0.91209
766.06860	0.91674
764.01479	0.92077
761.96099	0.92431
759.90719	0.92742
757.85338	0.93075
755.79958	0.93410
753.74578	0.93639
751.69197	0.93806
749.63817	0.94033
747.58437	0.94273
745.53056	0.94438
743.47676	0.94565
741.42296	0.94686
739.36916	0.94834
737.31535	0.95022
735.26155	0.95181
733.20775	0.95334
731.15394	0.95507
729.10014	0.95609
727.04634	0.95689
724.99253	0.95810
722.93873	0.95891
720.88493	0.95913
718.83112	0.95941
716.77732	0.95994
714.72352	0.96087
712.66971	0.96179
710.61591	0.96193
708.56211	0.96124
706.50830	0.95987
704.45450	0.95825
702.40070	0.95634
700.34689	0.95241
698.29309	0.94578
696.23929	0.93998
694.18548	0.93878
692.13168	0.94170
690.07788	0.94641
688.02408	0.95116
685.97027	0.95476
683.91647	0.95693
681.86267	0.95836
679.80886	0.96015
677.75506	0.96264
675.70126	0.96526
673.64745	0.96721
671.59365	0.96799
669.53985	0.96813
667.48604	0.96839
665.43224	0.96864
663.37844	0.96938
661.32463	0.97051
659.27083	0.97115
657.21703	0.97199
655.16322	0.97302
653.10942	0.97251
651.05562	0.97083
649.00181	0.97001
646.94801	0.97040
644.89421	0.97101
642.84040	0.97188
640.78660	0.97249
638.73280	0.97216
636.67899	0.97222
634.62519	0.97226
632.57139	0.97105
630.51759	0.97060
628.46378	0.97213
626.40998	0.97312
624.35618	0.97226
622.30237	0.97140
620.24857	0.97091
618.19477	0.97018
616.14096	0.96978
614.08716	0.97017
612.03336	0.97063
609.97955	0.97057
607.92575	0.97040
605.87195	0.97017
603.81814	0.97010
601.76434	0.96982
599.71054	0.96847
597.65673	0.96670
595.60293	0.96626
593.54913	0.96725
591.49532	0.96702
589.44152	0.96534
587.38772	0.96430
585.33391	0.96284
583.28011	0.96007
581.22631	0.95754
579.17250	0.95646
577.11870	0.95640
575.06490	0.95599
573.01110	0.95452
570.95729	0.95190
568.90349	0.94896
566.84969	0.94751
564.79588	0.94665
562.74208	0.94346
560.68828	0.93886
558.63447	0.93557
556.58067	0.93385
554.52687	0.93278
552.47306	0.93134
550.41926	0.92965
548.36546	0.92778
546.31165	0.92438
544.25785	0.91939
542.20405	0.91322
540.15024	0.90608
538.09644	0.89896
536.04264	0.89181
533.98883	0.88454
531.93503	0.87783
529.88123	0.87209
527.82742	0.86785
525.77362	0.86419
523.71982	0.86075
521.66602	0.85867
519.61221	0.85726
517.55841	0.85629
515.50461	0.85705
513.45080	0.85927
511.39700	0.86143
509.34320	0.86317
507.28939	0.86583
505.23559	0.86963
503.18179	0.87156
501.12798	0.86835
499.07418	0.86151
497.02038	0.85443
494.96657	0.84790
492.91277	0.84093
490.85897	0.83328
488.80516	0.82555
486.75136	0.81736
484.69756	0.80940
482.64375	0.80215
480.58995	0.79485
478.53615	0.78817
476.48234	0.78086
474.42854	0.77155
472.37474	0.76310
470.32093	0.75817
468.26713	0.75502
466.21333	0.75225
464.15953	0.74943
462.10572	0.74540
460.05192	0.74168
457.99812	0.74196
455.94431	0.74685
453.89051	0.75273
451.83671	0.75800
449.78290	0.76466
447.72910	0.77397
445.67530	0.78341
443.62149	0.79086
441.56769	0.79682
439.51389	0.80219
437.46008	0.80765
435.40628	0.81230
433.35248	0.81463
431.29867	0.81651
429.24487	0.82127
427.19107	0.82782
425.13726	0.83254
423.08346	0.83613
421.02966	0.84258
418.97585	0.84966
416.92205	0.85081
414.86825	0.85182
412.81445	0.85414
410.76064	0.85466
408.70684	0.85821
406.65304	0.86419
404.59923	0.86188
402.54543	0.84952
400.49163	0.83047
398.43782	0.80972
