3996.71440	0.99317
3994.66059	0.99311
3992.60678	0.99279
3990.55297	0.99270
3988.49916	0.99277
3986.44535	0.99267
3984.39154	0.99250
3982.33773	0.99227
3980.28391	0.99221
3978.23010	0.99255
3976.17629	0.99279
3974.12248	0.99266
3972.06867	0.99268
3970.01486	0.99294
3967.96105	0.99311
3965.90724	0.99306
3963.85343	0.99280
3961.79962	0.99251
3959.74581	0.99236
3957.69200	0.99250
3955.63819	0.99289
3953.58438	0.99313
3951.53057	0.99306
3949.47676	0.99293
3947.42295	0.99284
3945.36914	0.99275
3943.31533	0.99262
3941.26152	0.99260
3939.20771	0.99288
3937.15390	0.99313
3935.10009	0.99286
3933.04628	0.99225
3930.99247	0.99211
3928.93866	0.99262
3926.88485	0.99299
3924.83104	0.99294
3922.77723	0.99303
3920.72342	0.99330
3918.66961	0.99324
3916.61580	0.99309
3914.56199	0.99315
3912.50818	0.99320
3910.45437	0.99321
3908.40056	0.99321
3906.34675	0.99310
3904.29294	0.99274
3902.23913	0.99228
3900.18532	0.99243
3898.13151	0.99288
3896.07770	0.99267
3894.02389	0.99225
3891.97008	0.99234
3889.91627	0.99311
3887.86246	0.99379
3885.80865	0.99364
3883.75484	0.99291
3881.70103	0.99231
3879.64722	0.99200
3877.59341	0.99204
3875.53960	0.99230
3873.48579	0.99271
3871.43198	0.99288
3869.37817	0.99266
3867.32436	0.99256
3865.27055	0.99247
3863.21674	0.99241
3861.16293	0.99270
3859.10912	0.99287
3857.05531	0.99261
3855.00150	0.99201
3852.94769	0.99172
3850.89388	0.99228
3848.84007	0.99261
3846.78626	0.99260
3844.73245	0.99272
3842.67864	0.99277
3840.62483	0.99250
3838.57102	0.99219
3836.51721	0.99222
3834.46340	0.99246
3832.40959	0.99249
3830.35578	0.99233
3828.30197	0.99236
3826.24816	0.99271
3824.19435	0.99312
3822.14054	0.99315
3820.08673	0.99283
3818.03292	0.99282
3815.97911	0.99303
3813.92530	0.99312
3811.87149	0.99317
3809.81768	0.99332
3807.76387	0.99349
3805.71006	0.99353
3803.65625	0.99321
3801.60244	0.99249
3799.54863	0.99197
3797.49482	0.99190
3795.44101	0.99217
3793.38720	0.99261
3791.33339	0.99322
3789.27958	0.99383
3787.22577	0.99364
3785.17196	0.99307
3783.11815	0.99309
3781.06434	0.99332
3779.01053	0.99320
3776.95672	0.99273
3774.90291	0.99230
3772.84910	0.99222
3770.79529	0.99236
3768.74148	0.99255
3766.68767	0.99290
3764.63386	0.99336
3762.58005	0.99368
3760.52624	0.99356
3758.47243	0.99321
3756.41862	0.99314
3754.36481	0.99310
3752.31100	0.99309
3750.25719	0.99342
3748.20338	0.99365
3746.14957	0.99351
3744.09576	0.99331
3742.04195	0.99372
3739.98814	0.99417
3737.93433	0.99374
3735.88052	0.99242
3733.82671	0.99177
3731.77290	0.99226
3729.71909	0.99273
3727.66528	0.99303
3725.61147	0.99328
3723.55766	0.99308
3721.50385	0.99255
3719.45004	0.99217
3717.39623	0.99184
3715.34242	0.99140
3713.28861	0.99090
3711.23480	0.99048
3709.18099	0.99013
3707.12718	0.98936
3705.07337	0.98834
3703.01956	0.98739
3700.96575	0.98669
3698.91194	0.98639
3696.85813	0.98632
3694.80432	0.98636
3692.75051	0.98639
3690.69670	0.98649
3688.64289	0.98703
3686.58907	0.98748
3684.53526	0.98767
3682.48145	0.98806
3680.42764	0.98824
3678.37383	0.98777
3676.32002	0.98740
3674.26621	0.98779
3672.21240	0.98787
3670.15859	0.98742
3668.10478	0.98706
3666.05097	0.98681
3663.99716	0.98675
3661.94335	0.98699
3659.88954	0.98703
3657.83573	0.98653
3655.78192	0.98599
3653.72811	0.98594
3651.67430	0.98566
3649.62049	0.98475
3647.56668	0.98414
3645.51287	0.98410
3643.45906	0.98437
3641.40525	0.98484
3639.35144	0.98508
3637.29763	0.98473
3635.24382	0.98414
3633.19001	0.98367
3631.13620	0.98303
3629.08239	0.98213
3627.02858	0.98202
3624.97477	0.98268
3622.92096	0.98303
3620.86715	0.98289
3618.81334	0.98291
3616.75953	0.98328
3614.70572	0.98328
3612.65191	0.98289
3610.59810	0.98256
3608.54429	0.98236
3606.49048	0.98227
3604.43667	0.98214
3602.38286	0.98195
3600.32905	0.98205
3598.27524	0.98219
3596.22143	0.98222
3594.16762	0.98271
3592.11381	0.98329
3590.06000	0.98326
3588.00619	0.98302
3585.95238	0.98313
3583.89857	0.98317
3581.84476	0.98298
3579.79095	0.98283
3577.73714	0.98271
3575.68333	0.98253
3573.62952	0.98245
3571.57571	0.98240
3569.52190	0.98213
3567.46809	0.98176
3565.41428	0.98147
3563.36047	0.98130
3561.30666	0.98137
3559.25285	0.98166
3557.19904	0.98187
3555.14523	0.98174
3553.09142	0.98129
3551.03761	0.98092
3548.98380	0.98092
3546.92999	0.98105
3544.87618	0.98099
3542.82237	0.98088
3540.76856	0.98086
3538.71475	0.98071
3536.66094	0.98032
3534.60713	0.98007
3532.55332	0.98020
3530.49951	0.98030
3528.44570	0.97996
3526.39189	0.97938
3524.33808	0.97881
3522.28427	0.97860
3520.23046	0.97872
3518.17665	0.97858
3516.12284	0.97813
3514.06903	0.97777
3512.01522	0.97742
3509.96141	0.97686
3507.90760	0.97650
3505.85379	0.97666
3503.79998	0.97711
3501.74617	0.97743
3499.69236	0.97731
3497.63855	0.97692
3495.58474	0.97664
3493.53093	0.97630
3491.47712	0.97573
3489.42331	0.97540
3487.36950	0.97538
3485.31569	0.97524
3483.26188	0.97510
3481.20807	0.97524
3479.15426	0.97546
3477.10045	0.97554
3475.04664	0.97549
3472.99283	0.97540
3470.93902	0.97531
3468.88521	0.97505
3466.83140	0.97475
3464.77759	0.97448
3462.72378	0.97409
3460.66997	0.97384
3458.61616	0.97387
3456.56235	0.97395
3454.50854	0.97404
3452.45473	0.97394
3450.40092	0.97334
3448.34711	0.97271
3446.29330	0.97258
3444.23949	0.97260
3442.18568	0.97249
3440.13187	0.97259
3438.07806	0.97288
3436.02425	0.97301
3433.97044	0.97308
3431.91663	0.97308
3429.86282	0.97285
3427.80901	0.97243
3425.75520	0.97196
3423.70139	0.97173
3421.64758	0.97190
3419.59377	0.97210
3417.53996	0.97195
3415.48615	0.97167
3413.43234	0.97158
3411.37853	0.97168
3409.32472	0.97181
3407.27091	0.97176
3405.21710	0.97156
3403.16329	0.97138
3401.10948	0.97127
3399.05567	0.97135
3397.00186	0.97159
3394.94805	0.97170
3392.89424	0.97173
3390.84042	0.97162
3388.78661	0.97120
3386.73280	0.97089
3384.67899	0.97116
3382.62518	0.97154
3380.57137	0.97155
3378.51756	0.97166
3376.46375	0.97189
3374.40994	0.97163
3372.35613	0.97093
3370.30232	0.97047
3368.24851	0.97052
3366.19470	0.97066
3364.14089	0.97050
3362.08708	0.97044
3360.03327	0.97082
3357.97946	0.97117
3355.92565	0.97117
3353.87184	0.97106
3351.81803	0.97091
3349.76422	0.97082
3347.71041	0.97083
3345.65660	0.97082
3343.60279	0.97074
3341.54898	0.97069
3339.49517	0.97072
3337.44136	0.97075
3335.38755	0.97089
3333.33374	0.97100
3331.27993	0.97075
3329.22612	0.97057
3327.17231	0.97077
3325.11850	0.97090
3323.06469	0.97085
3321.01088	0.97090
3318.95707	0.97110
3316.90326	0.97140
3314.84945	0.97169
3312.79564	0.97171
3310.74183	0.97147
3308.68802	0.97123
3306.63421	0.97114
3304.58040	0.97111
3302.52659	0.97108
3300.47278	0.97103
3298.41897	0.97078
3296.36516	0.97047
3294.31135	0.97045
3292.25754	0.97064
3290.20373	0.97071
3288.14992	0.97084
3286.09611	0.97119
3284.04230	0.97139
3281.98849	0.97130
3279.93468	0.97135
3277.88087	0.97154
3275.82706	0.97155
3273.77325	0.97143
3271.71944	0.97147
3269.66563	0.97182
3267.61182	0.97233
3265.55801	0.97269
3263.50420	0.97292
3261.45039	0.97312
3259.39658	0.97311
3257.34277	0.97284
3255.28896	0.97271
3253.23515	0.97288
3251.18134	0.97313
3249.12753	0.97327
3247.07372	0.97337
3245.01991	0.97347
3242.96610	0.97354
3240.91229	0.97363
3238.85848	0.97363
3236.80467	0.97357
3234.75086	0.97385
3232.69705	0.97461
3230.64324	0.97508
3228.58943	0.97492
3226.53562	0.97477
3224.48181	0.97495
3222.42800	0.97525
3220.37419	0.97544
3218.32038	0.97559
3216.26657	0.97585
3214.21276	0.97578
3212.15895	0.97538
3210.10514	0.97535
3208.05133	0.97572
3205.99752	0.97597
3203.94371	0.97605
3201.88990	0.97617
3199.83609	0.97639
3197.78228	0.97667
3195.72847	0.97693
3193.67466	0.97700
3191.62085	0.97687
3189.56704	0.97682
3187.51323	0.97698
3185.45942	0.97714
3183.40561	0.97718
3181.35180	0.97722
3179.29799	0.97735
3177.24418	0.97749
3175.19037	0.97778
3173.13656	0.97825
3171.08275	0.97857
3169.02894	0.97883
3166.97513	0.97911
3164.92132	0.97911
3162.86751	0.97903
3160.81370	0.97913
3158.75989	0.97922
3156.70608	0.97929
3154.65227	0.97941
3152.59846	0.97954
3150.54465	0.97953
3148.49084	0.97946
3146.43703	0.97944
3144.38322	0.97947
3142.32941	0.97956
3140.27560	0.97967
3138.22179	0.97971
3136.16798	0.97978
3134.11417	0.98002
3132.06036	0.98039
3130.00655	0.98067
3127.95274	0.98069
3125.89893	0.98056
3123.84512	0.98051
3121.79131	0.98054
3119.73750	0.98055
3117.68369	0.98055
3115.62988	0.98056
3113.57607	0.98039
3111.52226	0.98020
3109.46845	0.98034
3107.41464	0.98057
3105.36083	0.98070
3103.30702	0.98073
3101.25321	0.98051
3099.19940	0.98009
3097.14559	0.97977
3095.09177	0.97965
3093.03796	0.97959
3090.98415	0.97957
3088.93034	0.97973
3086.87653	0.97977
3084.82272	0.97937
3082.76891	0.97886
3080.71510	0.97874
3078.66129	0.97896
3076.60748	0.97918
3074.55367	0.97912
3072.49986	0.97890
3070.44605	0.97902
3068.39224	0.97942
3066.33843	0.97953
3064.28462	0.97931
3062.23081	0.97923
3060.17700	0.97923
3058.12319	0.97916
3056.06938	0.97906
3054.01557	0.97908
3051.96176	0.97931
3049.90795	0.97940
3047.85414	0.97911
3045.80033	0.97868
3043.74652	0.97834
3041.69271	0.97821
3039.63890	0.97831
3037.58509	0.97839
3035.53128	0.97824
3033.47747	0.97803
3031.42366	0.97784
3029.36985	0.97752
3027.31604	0.97721
3025.26223	0.97722
3023.20842	0.97729
3021.15461	0.97714
3019.10080	0.97702
3017.04699	0.97696
3014.99318	0.97666
3012.93937	0.97628
3010.88556	0.97623
3008.83175	0.97618
3006.77794	0.97571
3004.72413	0.97533
3002.67032	0.97529
3000.61651	0.97526
2998.56270	0.97502
2996.50889	0.97453
2994.45508	0.97395
2992.40127	0.97323
2990.34746	0.97232
2988.29365	0.97149
2986.23984	0.97067
2984.18603	0.96953
2982.13222	0.96795
2980.07841	0.96601
2978.02460	0.96390
2975.97079	0.96142
2973.91698	0.95821
2971.86317	0.95426
2969.80936	0.94974
2967.75555	0.94481
2965.70174	0.93975
2963.64793	0.93472
2961.59412	0.92964
2959.54031	0.92496
2957.48650	0.92113
2955.43269	0.91820
2953.37888	0.91603
2951.32507	0.91403
2949.27126	0.91097
2947.21745	0.90556
2945.16364	0.89690
2943.10983	0.88457
2941.05602	0.86869
2939.00221	0.84955
2936.94840	0.82698
2934.89459	0.80085
2932.84078	0.77154
2930.78697	0.73922
2928.73316	0.70329
2926.67935	0.66279
2924.62554	0.61690
2922.57173	0.56558
2920.51792	0.51066
2918.46411	0.45805
2916.41030	0.41900
2914.35649	0.40537
2912.30268	0.42037
2910.24887	0.45541
2908.19506	0.49755
2906.14125	0.53763
2904.08744	0.57179
2902.03363	0.59960
2899.97982	0.62250
2897.92601	0.64251
2895.87220	0.66128
2893.81839	0.67990
2891.76458	0.69906
2889.71077	0.71893
2887.65696	0.73930
2885.60315	0.75985
2883.54934	0.77997
2881.49553	0.79898
2879.44172	0.81634
2877.38791	0.83097
2875.33410	0.84193
2873.28029	0.84919
2871.22648	0.85323
2869.17267	0.85452
2867.11886	0.85241
2865.06505	0.84490
2863.01124	0.83003
2860.95743	0.80628
2858.90362	0.77210
2856.84981	0.72516
2854.79600	0.66248
2852.74219	0.58420
2850.68838	0.50203
2848.63457	0.44365
2846.58076	0.43637
2844.52695	0.48201
2842.47314	0.55770
2840.41933	0.63768
2838.36552	0.70689
2836.31171	0.76126
2834.25790	0.80257
2832.20409	0.83374
2830.15028	0.85734
2828.09647	0.87549
2826.04266	0.88976
2823.98885	0.90120
2821.93504	0.91064
2819.88123	0.91863
2817.82742	0.92526
2815.77361	0.93050
2813.71980	0.93481
2811.66599	0.93887
2809.61218	0.94255
2807.55837	0.94562
2805.50456	0.94836
2803.45075	0.95090
2801.39693	0.95314
2799.34312	0.95510
2797.28931	0.95698
2795.23550	0.95896
2793.18169	0.96085
2791.12788	0.96252
2789.07407	0.96416
2787.02026	0.96575
2784.96645	0.96716
2782.91264	0.96839
2780.85883	0.96947
2778.80502	0.97035
2776.75121	0.97107
2774.69740	0.97179
2772.64359	0.97239
2770.58978	0.97298
2768.53597	0.97382
2766.48216	0.97468
2764.42835	0.97527
2762.37454	0.97551
2760.32073	0.97569
2758.26692	0.97617
2756.21311	0.97664
2754.15930	0.97684
2752.10549	0.97696
2750.05168	0.97713
2747.99787	0.97731
2745.94406	0.97753
2743.89025	0.97775
2741.83644	0.97799
2739.78263	0.97814
2737.72882	0.97798
2735.67501	0.97778
2733.62120	0.97786
2731.56739	0.97813
2729.51358	0.97834
2727.45977	0.97858
2725.40596	0.97897
2723.35215	0.97926
2721.29834	0.97938
2719.24453	0.97955
2717.19072	0.97981
2715.13691	0.98005
2713.08310	0.98027
2711.02929	0.98043
2708.97548	0.98047
2706.92167	0.98064
2704.86786	0.98105
2702.81405	0.98139
2700.76024	0.98147
2698.70643	0.98153
2696.65262	0.98168
2694.59881	0.98168
2692.54500	0.98152
2690.49119	0.98136
2688.43738	0.98135
2686.38357	0.98150
2684.32976	0.98154
2682.27595	0.98142
2680.22214	0.98139
2678.16833	0.98154
2676.11452	0.98170
2674.06071	0.98155
2672.00690	0.98107
2669.95309	0.98066
2667.89928	0.98049
2665.84547	0.98039
2663.79166	0.98033
2661.73785	0.98036
2659.68404	0.98038
2657.63023	0.98041
2655.57642	0.98048
2653.52261	0.98049
2651.46880	0.98062
2649.41499	0.98090
2647.36118	0.98098
2645.30737	0.98089
2643.25356	0.98091
2641.19975	0.98100
2639.14594	0.98098
2637.09213	0.98077
2635.03832	0.98062
2632.98451	0.98080
2630.93070	0.98113
2628.87689	0.98141
2626.82308	0.98184
2624.76927	0.98246
2622.71546	0.98312
2620.66165	0.98357
2618.60784	0.98376
2616.55403	0.98400
2614.50022	0.98436
2612.44641	0.98469
2610.39260	0.98483
2608.33879	0.98473
2606.28498	0.98453
2604.23117	0.98447
2602.17736	0.98459
2600.12355	0.98498
2598.06974	0.98565
2596.01593	0.98618
2593.96212	0.98663
2591.90831	0.98730
2589.85450	0.98784
2587.80069	0.98792
2585.74688	0.98785
2583.69307	0.98787
2581.63926	0.98802
2579.58545	0.98813
2577.53164	0.98823
2575.47783	0.98853
2573.42402	0.98855
2571.37021	0.98817
2569.31640	0.98812
2567.26259	0.98848
2565.20878	0.98861
2563.15497	0.98833
2561.10116	0.98823
2559.04735	0.98855
2556.99354	0.98872
2554.93973	0.98891
2552.88592	0.98951
2550.83211	0.98999
2548.77830	0.99011
2546.72449	0.99016
2544.67068	0.99000
2542.61687	0.98982
2540.56306	0.98995
2538.50925	0.99009
2536.45544	0.99004
2534.40163	0.99020
2532.34782	0.99047
2530.29401	0.99049
2528.24020	0.99053
2526.18639	0.99061
2524.13258	0.99077
2522.07877	0.99110
2520.02496	0.99124
2517.97115	0.99118
2515.91734	0.99113
2513.86353	0.99117
2511.80972	0.99122
2509.75591	0.99115
2507.70210	0.99106
2505.64828	0.99098
2503.59447	0.99108
2501.54066	0.99140
2499.48685	0.99138
2497.43304	0.99109
2495.37923	0.99116
2493.32542	0.99160
2491.27161	0.99173
2489.21780	0.99127
2487.16399	0.99099
2485.11018	0.99149
2483.05637	0.99223
2481.00256	0.99230
2478.94875	0.99178
2476.89494	0.99160
2474.84113	0.99171
2472.78732	0.99166
2470.73351	0.99181
2468.67970	0.99224
2466.62589	0.99245
2464.57208	0.99243
2462.51827	0.99252
2460.46446	0.99269
2458.41065	0.99273
2456.35684	0.99277
2454.30303	0.99305
2452.24922	0.99304
2450.19541	0.99272
2448.14160	0.99262
2446.08779	0.99244
2444.03398	0.99219
2441.98017	0.99206
2439.92636	0.99171
2437.87255	0.99126
2435.81874	0.99133
2433.76493	0.99180
2431.71112	0.99202
2429.65731	0.99217
2427.60350	0.99251
2425.54969	0.99254
2423.49588	0.99227
2421.44207	0.99197
2419.38826	0.99145
2417.33445	0.99109
2415.28064	0.99132
2413.22683	0.99185
2411.17302	0.99241
2409.11921	0.99289
2407.06540	0.99304
2405.01159	0.99267
2402.95778	0.99218
2400.90397	0.99209
2398.85016	0.99229
2396.79635	0.99238
2394.74254	0.99242
2392.68873	0.99261
2390.63492	0.99298
2388.58111	0.99329
2386.52730	0.99318
2384.47349	0.99278
2382.41968	0.99260
2380.36587	0.99290
2378.31206	0.99322
2376.25825	0.99298
2374.20444	0.99268
2372.15063	0.99289
2370.09682	0.99305
2368.04301	0.99292
2365.98920	0.99316
2363.93539	0.99341
2361.88158	0.99331
2359.82777	0.99320
2357.77396	0.99275
2355.72015	0.99210
2353.66634	0.99182
2351.61253	0.99138
2349.55872	0.99079
2347.50491	0.99058
2345.45110	0.99058
2343.39729	0.99065
2341.34348	0.99089
2339.28967	0.99073
2337.23586	0.99016
2335.18205	0.98976
2333.12824	0.98986
2331.07443	0.98991
2329.02062	0.98955
2326.96681	0.98933
2324.91300	0.98915
2322.85919	0.98891
2320.80538	0.98896
2318.75157	0.98929
2316.69776	0.98951
2314.64395	0.98943
2312.59014	0.98980
2310.53633	0.99092
2308.48252	0.99146
2306.42871	0.99108
2304.37490	0.99100
2302.32109	0.99127
2300.26728	0.99112
2298.21347	0.99074
2296.15966	0.99060
2294.10585	0.99051
2292.05204	0.99040
2289.99823	0.99061
2287.94442	0.99075
2285.89061	0.99048
2283.83680	0.99034
2281.78299	0.99095
2279.72918	0.99218
2277.67537	0.99303
2275.62156	0.99310
2273.56775	0.99298
2271.51394	0.99288
2269.46013	0.99280
2267.40632	0.99296
2265.35251	0.99320
2263.29870	0.99320
2261.24489	0.99288
2259.19108	0.99261
2257.13727	0.99255
2255.08346	0.99296
2253.02965	0.99382
2250.97584	0.99420
2248.92203	0.99374
2246.86822	0.99289
2244.81441	0.99222
2242.76060	0.99272
2240.70679	0.99399
2238.65298	0.99406
2236.59917	0.99316
2234.54536	0.99278
2232.49155	0.99281
2230.43774	0.99254
2228.38393	0.99203
2226.33012	0.99189
2224.27631	0.99203
2222.22250	0.99174
2220.16869	0.99165
2218.11488	0.99261
2216.06107	0.99332
2214.00726	0.99283
2211.95344	0.99193
2209.89963	0.99184
2207.84582	0.99304
2205.79201	0.99442
2203.73820	0.99492
2201.68439	0.99511
2199.63058	0.99541
2197.57677	0.99544
2195.52296	0.99529
2193.46915	0.99431
2191.41534	0.99247
2189.36153	0.99176
2187.30772	0.99248
2185.25391	0.99231
2183.20010	0.99099
2181.14629	0.99134
2179.09248	0.99287
2177.03867	0.99325
2174.98486	0.99351
2172.93105	0.99394
2170.87724	0.99360
2168.82343	0.99335
2166.76962	0.99306
2164.71581	0.99239
2162.66200	0.99212
2160.60819	0.99289
2158.55438	0.99571
2156.50057	0.99810
2154.44676	0.99767
2152.39295	0.99711
2150.33914	0.99702
2148.28533	0.99635
2146.23152	0.99631
2144.17771	0.99691
2142.12390	0.99671
2140.07009	0.99615
2138.01628	0.99585
2135.96247	0.99586
2133.90866	0.99619
2131.85485	0.99649
2129.80104	0.99696
2127.74723	0.99733
2125.69342	0.99687
2123.63961	0.99613
2121.58580	0.99553
2119.53199	0.99494
2117.47818	0.99493
2115.42437	0.99505
2113.37056	0.99408
2111.31675	0.99305
2109.26294	0.99319
2107.20913	0.99371
2105.15532	0.99393
2103.10151	0.99420
2101.04770	0.99417
2098.99389	0.99364
2096.94008	0.99404
2094.88627	0.99549
2092.83246	0.99618
2090.77865	0.99582
2088.72484	0.99528
2086.67103	0.99499
2084.61722	0.99486
2082.56341	0.99434
2080.50960	0.99369
2078.45579	0.99330
2076.40198	0.99277
2074.34817	0.99270
2072.29436	0.99328
2070.24055	0.99367
2068.18674	0.99419
2066.13293	0.99529
2064.07912	0.99612
2062.02531	0.99608
2059.97150	0.99565
2057.91769	0.99488
2055.86388	0.99357
2053.81007	0.99261
2051.75626	0.99261
2049.70245	0.99358
2047.64864	0.99480
2045.59483	0.99491
2043.54102	0.99437
2041.48721	0.99394
2039.43340	0.99343
2037.37959	0.99346
2035.32578	0.99538
2033.27197	0.99742
2031.21816	0.99619
2029.16435	0.99352
2027.11054	0.99236
2025.05673	0.99235
2023.00292	0.99290
2020.94911	0.99347
2018.89530	0.99327
2016.84149	0.99340
2014.78768	0.99471
2012.73387	0.99577
2010.68006	0.99660
2008.62625	0.99732
2006.57244	0.99718
2004.51863	0.99761
2002.46482	0.99887
2000.41101	0.99837
1998.35720	0.99553
1996.30339	0.99273
1994.24958	0.99166
1992.19577	0.99217
1990.14196	0.99256
1988.08815	0.99217
1986.03434	0.99212
1983.98053	0.99221
1981.92672	0.99165
1979.87291	0.99104
1977.81910	0.99178
1975.76529	0.99375
1973.71148	0.99507
1971.65767	0.99565
1969.60386	0.99623
1967.55005	0.99676
1965.49624	0.99646
1963.44243	0.99520
1961.38862	0.99444
1959.33481	0.99506
1957.28100	0.99612
1955.22719	0.99641
1953.17338	0.99562
1951.11957	0.99455
1949.06576	0.99451
1947.01195	0.99546
1944.95814	0.99581
1942.90433	0.99520
1940.85052	0.99520
1938.79671	0.99591
1936.74290	0.99584
1934.68909	0.99480
1932.63528	0.99374
1930.58147	0.99357
1928.52766	0.99413
1926.47385	0.99443
1924.42004	0.99474
1922.36623	0.99528
1920.31242	0.99520
1918.25861	0.99484
1916.20479	0.99467
1914.15098	0.99450
1912.09717	0.99441
1910.04336	0.99417
1907.98955	0.99342
1905.93574	0.99301
1903.88193	0.99332
1901.82812	0.99331
1899.77431	0.99310
1897.72050	0.99317
1895.66669	0.99312
1893.61288	0.99314
1891.55907	0.99327
1889.50526	0.99348
1887.45145	0.99404
1885.39764	0.99428
1883.34383	0.99389
1881.29002	0.99358
1879.23621	0.99371
1877.18240	0.99408
1875.12859	0.99445
1873.07478	0.99461
1871.02097	0.99446
1868.96716	0.99405
1866.91335	0.99367
1864.85954	0.99364
1862.80573	0.99399
1860.75192	0.99452
1858.69811	0.99471
1856.64430	0.99465
1854.59049	0.99461
1852.53668	0.99437
1850.48287	0.99418
1848.42906	0.99392
1846.37525	0.99312
1844.32144	0.99260
1842.26763	0.99319
1840.21382	0.99388
1838.16001	0.99409
1836.10620	0.99430
1834.05239	0.99449
1831.99858	0.99410
1829.94477	0.99361
1827.89096	0.99372
1825.83715	0.99379
1823.78334	0.99346
1821.72953	0.99324
1819.67572	0.99340
1817.62191	0.99374
1815.56810	0.99389
1813.51429	0.99371
1811.46048	0.99336
1809.40667	0.99306
1807.35286	0.99298
1805.29905	0.99308
1803.24524	0.99325
1801.19143	0.99313
1799.13762	0.99274
1797.08381	0.99259
1795.03000	0.99258
1792.97619	0.99247
1790.92238	0.99236
1788.86857	0.99239
1786.81476	0.99242
1784.76095	0.99230
1782.70714	0.99218
1780.65333	0.99217
1778.59952	0.99203
1776.54571	0.99162
1774.49190	0.99120
1772.43809	0.99105
1770.38428	0.99100
1768.33047	0.99094
1766.27666	0.99092
1764.22285	0.99077
1762.16904	0.99045
1760.11523	0.99010
1758.06142	0.98947
1756.00761	0.98857
1753.95380	0.98782
1751.89999	0.98705
1749.84618	0.98613
1747.79237	0.98551
1745.73856	0.98520
1743.68475	0.98478
1741.63094	0.98415
1739.57713	0.98372
1737.52332	0.98368
1735.46951	0.98351
1733.41570	0.98297
1731.36189	0.98281
1729.30808	0.98291
1727.25427	0.98271
1725.20046	0.98211
1723.14665	0.98148
1721.09284	0.98110
1719.03903	0.98072
1716.98522	0.98009
1714.93141	0.97965
1712.87760	0.97971
1710.82379	0.97988
1708.76998	0.97979
1706.71617	0.97948
1704.66236	0.97921
1702.60855	0.97884
1700.55474	0.97784
1698.50093	0.97686
1696.44712	0.97654
1694.39331	0.97628
1692.33950	0.97583
1690.28569	0.97499
1688.23188	0.97387
1686.17807	0.97284
1684.12426	0.97151
1682.07045	0.97016
1680.01664	0.96933
1677.96283	0.96868
1675.90902	0.96782
1673.85521	0.96685
1671.80140	0.96615
1669.74759	0.96523
1667.69378	0.96427
1665.63997	0.96379
1663.58616	0.96335
1661.53235	0.96287
1659.47854	0.96261
1657.42473	0.96251
1655.37092	0.96251
1653.31711	0.96262
1651.26330	0.96302
1649.20949	0.96342
1647.15568	0.96374
1645.10187	0.96440
1643.04806	0.96522
1640.99425	0.96581
1638.94044	0.96613
1636.88663	0.96633
1634.83282	0.96700
1632.77901	0.96803
1630.72520	0.96885
1628.67139	0.96950
1626.61758	0.97005
1624.56377	0.97043
1622.50996	0.97102
1620.45614	0.97199
1618.40233	0.97292
1616.34852	0.97361
1614.29471	0.97411
1612.24090	0.97456
1610.18709	0.97493
1608.13328	0.97529
1606.07947	0.97581
1604.02566	0.97630
1601.97185	0.97655
1599.91804	0.97689
1597.86423	0.97744
1595.81042	0.97781
1593.75661	0.97787
1591.70280	0.97793
1589.64899	0.97824
1587.59518	0.97864
1585.54137	0.97887
1583.48756	0.97907
1581.43375	0.97929
1579.37994	0.97935
1577.32613	0.97925
1575.27232	0.97921
1573.21851	0.97936
1571.16470	0.97938
1569.11089	0.97932
1567.05708	0.97948
1565.00327	0.97959
1562.94946	0.97944
1560.89565	0.97893
1558.84184	0.97785
1556.78803	0.97723
1554.73422	0.97721
1552.68041	0.97709
1550.62660	0.97664
1548.57279	0.97613
1546.51898	0.97585
1544.46517	0.97567
1542.41136	0.97572
1540.35755	0.97609
1538.30374	0.97655
1536.24993	0.97681
1534.19612	0.97693
1532.14231	0.97727
1530.08850	0.97768
1528.03469	0.97782
1525.98088	0.97785
1523.92707	0.97791
1521.87326	0.97789
1519.81945	0.97802
1517.76564	0.97825
1515.71183	0.97855
1513.65802	0.97894
1511.60421	0.97916
1509.55040	0.97888
1507.49659	0.97835
1505.44278	0.97876
1503.38897	0.97950
1501.33516	0.97963
1499.28135	0.97929
1497.22754	0.97887
1495.17373	0.97838
1493.11992	0.97767
1491.06611	0.97645
1489.01230	0.97482
1486.95849	0.97308
1484.90468	0.97101
1482.85087	0.96765
1480.79706	0.96125
1478.74325	0.94761
1476.68944	0.91407
1474.63563	0.85118
1472.58182	0.78920
1470.52801	0.77366
1468.47420	0.77981
1466.42039	0.77547
1464.36658	0.76115
1462.31277	0.76523
1460.25896	0.79597
1458.20515	0.83744
1456.15134	0.87077
1454.09753	0.88930
1452.04372	0.90293
1449.98991	0.91428
1447.93610	0.92247
1445.88229	0.92810
1443.82848	0.93202
1441.77467	0.93530
1439.72086	0.93839
1437.66705	0.94181
1435.61324	0.94600
1433.55943	0.95009
1431.50562	0.95412
1429.45181	0.95837
1427.39800	0.96213
1425.34419	0.96527
1423.29038	0.96777
1421.23657	0.96915
1419.18276	0.96985
1417.12895	0.97071
1415.07514	0.97177
1413.02133	0.97272
1410.96752	0.97350
1408.91371	0.97409
1406.85990	0.97453
1404.80609	0.97524
1402.75228	0.97611
1400.69847	0.97640
1398.64466	0.97614
1396.59085	0.97606
1394.53704	0.97633
1392.48323	0.97652
1390.42942	0.97630
1388.37561	0.97549
1386.32180	0.97392
1384.26799	0.97130
1382.21418	0.96704
1380.16037	0.96171
1378.10656	0.95801
1376.05275	0.95777
1373.99894	0.95970
1371.94513	0.96128
1369.89132	0.96193
1367.83751	0.96257
1365.78370	0.96369
1363.72989	0.96513
1361.67608	0.96674
1359.62227	0.96812
1357.56846	0.96899
1355.51465	0.96929
1353.46084	0.96917
1351.40703	0.96919
1349.35322	0.96961
1347.29941	0.97025
1345.24560	0.97099
1343.19179	0.97180
1341.13798	0.97253
1339.08417	0.97321
1337.03036	0.97411
1334.97655	0.97507
1332.92274	0.97574
1330.86893	0.97611
1328.81512	0.97631
1326.76130	0.97624
1324.70749	0.97589
1322.65368	0.97548
1320.59987	0.97507
1318.54606	0.97451
1316.49225	0.97380
1314.43844	0.97300
1312.38463	0.97219
1310.33082	0.97153
1308.27701	0.97108
1306.22320	0.97073
1304.16939	0.97051
1302.11558	0.97045
1300.06177	0.97031
1298.00796	0.97013
1295.95415	0.97027
1293.90034	0.97070
1291.84653	0.97096
1289.79272	0.97087
1287.73891	0.97055
1285.68510	0.97009
1283.63129	0.96953
1281.57748	0.96902
1279.52367	0.96845
1277.46986	0.96771
1275.41605	0.96687
1273.36224	0.96577
1271.30843	0.96434
1269.25462	0.96269
1267.20081	0.96112
1265.14700	0.95987
1263.09319	0.95891
1261.03938	0.95824
1258.98557	0.95795
1256.93176	0.95792
1254.87795	0.95775
1252.82414	0.95737
1250.77033	0.95704
1248.71652	0.95692
1246.66271	0.95689
1244.60890	0.95678
1242.55509	0.95660
1240.50128	0.95631
1238.44747	0.95572
1236.39366	0.95470
1234.33985	0.95337
1232.28604	0.95196
1230.23223	0.95049
1228.17842	0.94900
1226.12461	0.94758
1224.07080	0.94623
1222.01699	0.94504
1219.96318	0.94420
1217.90937	0.94393
1215.85556	0.94437
1213.80175	0.94525
1211.74794	0.94616
1209.69413	0.94703
1207.64032	0.94784
1205.58651	0.94854
1203.53270	0.94927
1201.47889	0.95003
1199.42508	0.95067
1197.37127	0.95097
1195.31746	0.95096
1193.26365	0.95096
1191.20984	0.95115
1189.15603	0.95132
1187.10222	0.95118
1185.04841	0.95087
1182.99460	0.95053
1180.94079	0.95009
1178.88698	0.94958
1176.83317	0.94906
1174.77936	0.94866
1172.72555	0.94835
1170.67174	0.94799
1168.61793	0.94753
1166.56412	0.94699
1164.51031	0.94625
1162.45650	0.94528
1160.40269	0.94443
1158.34888	0.94375
1156.29507	0.94286
1154.24126	0.94185
1152.18745	0.94093
1150.13364	0.93989
1148.07983	0.93869
1146.02602	0.93757
1143.97221	0.93660
1141.91840	0.93562
1139.86459	0.93465
1137.81078	0.93384
1135.75697	0.93308
1133.70316	0.93221
1131.64935	0.93112
1129.59554	0.92979
1127.54173	0.92855
1125.48792	0.92764
1123.43411	0.92687
1121.38030	0.92613
1119.32649	0.92569
1117.27268	0.92535
1115.21887	0.92488
1113.16506	0.92440
1111.11125	0.92366
1109.05744	0.92244
1107.00363	0.92092
1104.94982	0.91932
1102.89601	0.91771
1100.84220	0.91611
1098.78839	0.91457
1096.73458	0.91338
1094.68077	0.91273
1092.62696	0.91205
1090.57315	0.91042
1088.51934	0.90771
1086.46553	0.90498
1084.41172	0.90402
1082.35791	0.90520
1080.30410	0.90706
1078.25029	0.90867
1076.19648	0.90994
1074.14267	0.91083
1072.08886	0.91129
1070.03505	0.91125
1067.98124	0.91082
1065.92743	0.91030
1063.87362	0.90994
1061.81981	0.90973
1059.76600	0.90963
1057.71219	0.90947
1055.65838	0.90904
1053.60457	0.90850
1051.55076	0.90771
1049.49695	0.90649
1047.44314	0.90540
1045.38933	0.90484
1043.33552	0.90450
1041.28171	0.90414
1039.22790	0.90400
1037.17409	0.90428
1035.12028	0.90484
1033.06647	0.90575
1031.01265	0.90695
1028.95884	0.90807
1026.90503	0.90896
1024.85122	0.90964
1022.79741	0.91045
1020.74360	0.91167
1018.68979	0.91315
1016.63598	0.91504
1014.58217	0.91721
1012.52836	0.91897
1010.47455	0.92022
1008.42074	0.92128
1006.36693	0.92230
1004.31312	0.92345
1002.25931	0.92493
1000.20550	0.92704
998.15169	0.92974
996.09788	0.93238
994.04407	0.93486
991.99026	0.93773
989.93645	0.94055
987.88264	0.94266
985.82883	0.94441
983.77502	0.94602
981.72121	0.94752
979.66740	0.94897
977.61359	0.95022
975.55978	0.95139
973.50597	0.95289
971.45216	0.95464
969.39835	0.95632
967.34454	0.95801
965.29073	0.95982
963.23692	0.96147
961.18311	0.96292
959.12930	0.96419
957.07549	0.96518
955.02168	0.96606
952.96787	0.96692
950.91406	0.96773
948.86025	0.96848
946.80644	0.96921
944.75263	0.97006
942.69882	0.97087
940.64501	0.97120
938.59120	0.97092
936.53739	0.97054
934.48358	0.97047
932.42977	0.97073
930.37596	0.97102
928.32215	0.97096
926.26834	0.97058
924.21453	0.97014
922.16072	0.96963
920.10691	0.96902
918.05310	0.96853
915.99929	0.96815
913.94548	0.96781
911.89167	0.96786
909.83786	0.96843
907.78405	0.96911
905.73024	0.96983
903.67643	0.97062
901.62262	0.97157
899.56881	0.97278
897.51500	0.97383
895.46119	0.97437
893.40738	0.97433
891.35357	0.97393
889.29976	0.97379
887.24595	0.97423
885.19214	0.97491
883.13833	0.97555
881.08452	0.97600
879.03071	0.97622
876.97690	0.97634
874.92309	0.97650
872.86928	0.97688
870.81547	0.97727
868.76166	0.97738
866.70785	0.97743
864.65404	0.97755
862.60023	0.97745
860.54642	0.97731
858.49261	0.97739
856.43880	0.97752
854.38499	0.97766
852.33118	0.97739
850.27737	0.97633
848.22356	0.97530
846.16975	0.97515
844.11594	0.97516
842.06213	0.97448
840.00832	0.97357
837.95451	0.97294
835.90070	0.97239
833.84689	0.97209
831.79308	0.97236
829.73927	0.97276
827.68546	0.97289
825.63165	0.97297
823.57784	0.97319
821.52403	0.97311
819.47022	0.97287
817.41641	0.97295
815.36260	0.97306
813.30879	0.97312
811.25498	0.97317
809.20117	0.97291
807.14736	0.97247
805.09355	0.97221
803.03974	0.97203
800.98593	0.97184
798.93212	0.97151
796.87831	0.97092
794.82450	0.97066
792.77069	0.97102
790.71688	0.97139
788.66307	0.97142
786.60926	0.97089
784.55545	0.97006
782.50164	0.96989
780.44783	0.97024
778.39402	0.97035
776.34021	0.97018
774.28640	0.96993
772.23259	0.96963
770.17878	0.96936
768.12497	0.96919
766.07116	0.96903
764.01735	0.96899
761.96354	0.96867
759.90973	0.96734
757.85592	0.96587
755.80211	0.96522
753.74830	0.96479
751.69449	0.96442
749.64068	0.96418
747.58687	0.96316
745.53306	0.96118
743.47925	0.95919
741.42544	0.95702
739.37163	0.95323
737.31781	0.94594
735.26400	0.93011
733.21019	0.89674
731.15638	0.85403
729.10257	0.83302
727.04876	0.83839
724.99495	0.83810
722.94114	0.80800
720.88733	0.75509
718.83352	0.72269
716.77971	0.74595
714.72590	0.80626
712.67209	0.86500
710.61828	0.90335
708.56447	0.92439
706.51066	0.93637
704.45685	0.94347
702.40304	0.94765
700.34923	0.95095
698.29542	0.95414
696.24161	0.95640
694.18780	0.95807
692.13399	0.95979
690.08018	0.96092
688.02637	0.96130
685.97256	0.96157
683.91875	0.96195
681.86494	0.96217
679.81113	0.96231
677.75732	0.96313
675.70351	0.96443
673.64970	0.96489
671.59589	0.96434
669.54208	0.96366
667.48827	0.96383
665.43446	0.96431
663.38065	0.96418
661.32684	0.96387
659.27303	0.96390
657.21922	0.96427
655.16541	0.96446
653.11160	0.96420
651.05779	0.96418
649.00398	0.96442
646.95017	0.96433
644.89636	0.96385
642.84255	0.96329
640.78874	0.96263
638.73493	0.96204
636.68112	0.96190
634.62731	0.96176
632.57350	0.96170
630.51969	0.96214
628.46588	0.96261
626.41207	0.96248
624.35826	0.96215
622.30445	0.96216
620.25064	0.96202
618.19683	0.96120
616.14302	0.96007
614.08921	0.95963
612.03540	0.96010
609.98159	0.96059
607.92778	0.96024
605.87397	0.95911
603.82016	0.95771
601.76635	0.95715
599.71254	0.95743
597.65873	0.95726
595.60492	0.95644
593.55111	0.95531
591.49730	0.95470
589.44349	0.95573
587.38968	0.95724
585.33587	0.95764
583.28206	0.95785
581.22825	0.95850
579.17444	0.95937
577.12063	0.96028
575.06682	0.96040
573.01301	0.95934
570.95920	0.95773
568.90539	0.95710
566.85158	0.95773
564.79777	0.95799
562.74396	0.95727
560.69015	0.95648
558.63634	0.95611
556.58253	0.95588
554.52872	0.95578
552.47491	0.95577
550.42110	0.95564
548.36729	0.95491
546.31348	0.95385
544.25967	0.95390
542.20586	0.95424
540.15205	0.95337
538.09824	0.95196
536.04443	0.95135
533.99062	0.95241
531.93681	0.95404
529.88300	0.95433
527.82919	0.95362
525.77538	0.95369
523.72157	0.95463
521.66776	0.95490
519.61395	0.95434
517.56014	0.95382
515.50633	0.95363
513.45252	0.95457
511.39871	0.95726
509.34490	0.95972
507.29109	0.96022
505.23728	0.96022
503.18347	0.96063
501.12966	0.96061
499.07585	0.95964
497.02204	0.95837
494.96823	0.95801
492.91442	0.95743
490.86061	0.95522
488.80680	0.95395
486.75299	0.95437
484.69918	0.95331
482.64537	0.95039
480.59156	0.94864
478.53775	0.94887
476.48394	0.94835
474.43013	0.94547
472.37632	0.94233
470.32251	0.94111
468.26870	0.94182
466.21489	0.94322
464.16108	0.94479
462.10727	0.94699
460.05346	0.94899
457.99965	0.94998
455.94584	0.95148
453.89203	0.95385
451.83822	0.95435
449.78441	0.95408
447.73060	0.95675
445.67679	0.95973
443.62298	0.95929
441.56916	0.95769
439.51535	0.95752
437.46154	0.95935
435.40773	0.96149
433.35392	0.96148
431.30011	0.96147
429.24630	0.96207
427.19249	0.96226
425.13868	0.96344
423.08487	0.96568
421.03106	0.96712
418.97725	0.96653
416.92344	0.96549
414.86963	0.96506
412.81582	0.96478
410.76201	0.96525
408.70820	0.96705
406.65439	0.96803
404.60058	0.96690
402.54677	0.96632
400.49296	0.96818
398.43915	0.97329
