3996.70104	0.96263
3994.64724	0.96246
3992.59344	0.96210
3990.53964	0.96204
3988.48583	0.96246
3986.43203	0.96281
3984.37823	0.96283
3982.32442	0.96295
3980.27062	0.96303
3978.21682	0.96280
3976.16301	0.96268
3974.10921	0.96278
3972.05541	0.96291
3970.00160	0.96325
3967.94780	0.96374
3965.89400	0.96376
3963.84019	0.96320
3961.78639	0.96275
3959.73259	0.96281
3957.67878	0.96310
3955.62498	0.96336
3953.57118	0.96333
3951.51737	0.96287
3949.46357	0.96253
3947.40977	0.96267
3945.35596	0.96289
3943.30216	0.96295
3941.24836	0.96265
3939.19455	0.96224
3937.14075	0.96253
3935.08695	0.96334
3933.03315	0.96405
3930.97934	0.96420
3928.92554	0.96348
3926.87174	0.96274
3924.81793	0.96272
3922.76413	0.96295
3920.71033	0.96287
3918.65652	0.96244
3916.60272	0.96225
3914.54892	0.96264
3912.49511	0.96307
3910.44131	0.96316
3908.38751	0.96281
3906.33370	0.96268
3904.27990	0.96345
3902.22610	0.96415
3900.17229	0.96408
3898.11849	0.96359
3896.06469	0.96309
3894.01088	0.96303
3891.95708	0.96322
3889.90328	0.96298
3887.84947	0.96274
3885.79567	0.96341
3883.74187	0.96421
3881.68807	0.96415
3879.63426	0.96420
3877.58046	0.96440
3875.52666	0.96429
3873.47285	0.96457
3871.41905	0.96506
3869.36525	0.96460
3867.31144	0.96373
3865.25764	0.96314
3863.20384	0.96278
3861.15003	0.96300
3859.09623	0.96336
3857.04243	0.96310
3854.98862	0.96268
3852.93482	0.96423
3850.88102	0.96570
3848.82721	0.96540
3846.77341	0.96527
3844.71961	0.96560
3842.66580	0.96533
3840.61200	0.96435
3838.55820	0.96382
3836.50439	0.96437
3834.45059	0.96503
3832.39679	0.96492
3830.34298	0.96428
3828.28918	0.96359
3826.23538	0.96324
3824.18158	0.96363
3822.12777	0.96451
3820.07397	0.96498
3818.02017	0.96443
3815.96636	0.96364
3813.91256	0.96361
3811.85876	0.96416
3809.80495	0.96466
3807.75115	0.96488
3805.69735	0.96474
3803.64354	0.96424
3801.58974	0.96414
3799.53594	0.96509
3797.48213	0.96557
3795.42833	0.96500
3793.37453	0.96474
3791.32072	0.96517
3789.26692	0.96519
3787.21312	0.96493
3785.15931	0.96520
3783.10551	0.96522
3781.05171	0.96495
3778.99790	0.96546
3776.94410	0.96595
3774.89030	0.96559
3772.83650	0.96493
3770.78269	0.96472
3768.72889	0.96511
3766.67509	0.96553
3764.62128	0.96581
3762.56748	0.96585
3760.51368	0.96574
3758.45987	0.96594
3756.40607	0.96666
3754.35227	0.96763
3752.29846	0.96844
3750.24466	0.96816
3748.19086	0.96689
3746.13705	0.96607
3744.08325	0.96580
3742.02945	0.96576
3739.97564	0.96627
3737.92184	0.96701
3735.86804	0.96697
3733.81423	0.96695
3731.76043	0.96723
3729.70663	0.96674
3727.65282	0.96627
3725.59902	0.96656
3723.54522	0.96678
3721.49141	0.96610
3719.43761	0.96495
3717.38381	0.96393
3715.33001	0.96333
3713.27620	0.96289
3711.22240	0.96152
3709.16860	0.95875
3707.11479	0.95579
3705.06099	0.95300
3703.00719	0.94999
3700.95338	0.94685
3698.89958	0.94448
3696.84578	0.94330
3694.79197	0.94333
3692.73817	0.94436
3690.68437	0.94606
3688.63056	0.94796
3686.57676	0.94891
3684.52296	0.94903
3682.46915	0.94921
3680.41535	0.94991
3678.36155	0.95091
3676.30774	0.95133
3674.25394	0.95039
3672.20014	0.94905
3670.14633	0.94814
3668.09253	0.94740
3666.03873	0.94661
3663.98492	0.94624
3661.93112	0.94621
3659.87732	0.94599
3657.82352	0.94518
3655.76971	0.94403
3653.71591	0.94340
3651.66211	0.94341
3649.60830	0.94363
3647.55450	0.94356
3645.50070	0.94268
3643.44689	0.94141
3641.39309	0.94036
3639.33929	0.93953
3637.28548	0.93891
3635.23168	0.93845
3633.17788	0.93746
3631.12407	0.93584
3629.07027	0.93405
3627.01647	0.93265
3624.96266	0.93147
3622.90886	0.93004
3620.85506	0.92858
3618.80125	0.92802
3616.74745	0.92881
3614.69365	0.93022
3612.63984	0.93139
3610.58604	0.93161
3608.53224	0.93151
3606.47844	0.93206
3604.42463	0.93267
3602.37083	0.93239
3600.31703	0.93141
3598.26322	0.93071
3596.20942	0.93062
3594.15562	0.93078
3592.10181	0.93101
3590.04801	0.93125
3587.99421	0.93153
3585.94040	0.93200
3583.88660	0.93192
3581.83280	0.93092
3579.77899	0.92989
3577.72519	0.92980
3575.67139	0.93018
3573.61758	0.92988
3571.56378	0.92898
3569.50998	0.92818
3567.45617	0.92805
3565.40237	0.92856
3563.34857	0.92817
3561.29476	0.92695
3559.24096	0.92657
3557.18716	0.92680
3555.13335	0.92623
3553.07955	0.92538
3551.02575	0.92490
3548.97195	0.92437
3546.91814	0.92420
3544.86434	0.92434
3542.81054	0.92402
3540.75673	0.92354
3538.70293	0.92324
3536.64913	0.92262
3534.59532	0.92157
3532.54152	0.92087
3530.48772	0.92092
3528.43391	0.92133
3526.38011	0.92148
3524.32631	0.92095
3522.27250	0.91997
3520.21870	0.91918
3518.16490	0.91870
3516.11109	0.91834
3514.05729	0.91825
3512.00349	0.91853
3509.94968	0.91840
3507.89588	0.91773
3505.84208	0.91736
3503.78827	0.91731
3501.73447	0.91704
3499.68067	0.91627
3497.62687	0.91553
3495.57306	0.91502
3493.51926	0.91463
3491.46546	0.91439
3489.41165	0.91387
3487.35785	0.91305
3485.30405	0.91221
3483.25024	0.91160
3481.19644	0.91144
3479.14264	0.91122
3477.08883	0.91070
3475.03503	0.91027
3472.98123	0.91006
3470.92742	0.90974
3468.87362	0.90912
3466.81982	0.90840
3464.76601	0.90770
3462.71221	0.90697
3460.65841	0.90654
3458.60460	0.90664
3456.55080	0.90666
3454.49700	0.90616
3452.44319	0.90535
3450.38939	0.90444
3448.33559	0.90408
3446.28178	0.90445
3444.22798	0.90441
3442.17418	0.90372
3440.12038	0.90285
3438.06657	0.90208
3436.01277	0.90155
3433.95897	0.90102
3431.90516	0.90041
3429.85136	0.89998
3427.79756	0.89975
3425.74375	0.89945
3423.68995	0.89908
3421.63615	0.89852
3419.58234	0.89759
3417.52854	0.89669
3415.47474	0.89618
3413.42093	0.89595
3411.36713	0.89562
3409.31333	0.89496
3407.25952	0.89454
3405.20572	0.89475
3403.15192	0.89502
3401.09811	0.89461
3399.04431	0.89384
3396.99051	0.89356
3394.93670	0.89371
3392.88290	0.89363
3390.82910	0.89310
3388.77529	0.89242
3386.72149	0.89187
3384.66769	0.89148
3382.61389	0.89131
3380.56008	0.89121
3378.50628	0.89110
3376.45248	0.89112
3374.39867	0.89113
3372.34487	0.89110
3370.29107	0.89109
3368.23726	0.89094
3366.18346	0.89061
3364.12966	0.89042
3362.07585	0.89069
3360.02205	0.89087
3357.96825	0.89063
3355.91444	0.89039
3353.86064	0.89039
3351.80684	0.89041
3349.75303	0.89034
3347.69923	0.89030
3345.64543	0.89028
3343.59162	0.89041
3341.53782	0.89051
3339.48402	0.89055
3337.43021	0.89071
3335.37641	0.89087
3333.32261	0.89109
3331.26881	0.89142
3329.21500	0.89190
3327.16120	0.89223
3325.10740	0.89235
3323.05359	0.89239
3320.99979	0.89198
3318.94599	0.89142
3316.89218	0.89151
3314.83838	0.89200
3312.78458	0.89247
3310.73077	0.89267
3308.67697	0.89263
3306.62317	0.89281
3304.56936	0.89297
3302.51556	0.89299
3300.46176	0.89345
3298.40795	0.89425
3296.35415	0.89458
3294.30035	0.89423
3292.24654	0.89407
3290.19274	0.89441
3288.13894	0.89473
3286.08513	0.89480
3284.03133	0.89459
3281.97753	0.89453
3279.92372	0.89496
3277.86992	0.89554
3275.81612	0.89576
3273.76232	0.89559
3271.70851	0.89539
3269.65471	0.89532
3267.60091	0.89536
3265.54710	0.89576
3263.49330	0.89651
3261.43950	0.89712
3259.38569	0.89736
3257.33189	0.89737
3255.27809	0.89725
3253.22428	0.89723
3251.17048	0.89743
3249.11668	0.89764
3247.06287	0.89781
3245.00907	0.89785
3242.95527	0.89787
3240.90146	0.89788
3238.84766	0.89781
3236.79386	0.89796
3234.74005	0.89843
3232.68625	0.89912
3230.63245	0.89967
3228.57864	0.89982
3226.52484	0.89999
3224.47104	0.90069
3222.41724	0.90154
3220.36343	0.90185
3218.30963	0.90198
3216.25583	0.90222
3214.20202	0.90209
3212.14822	0.90196
3210.09442	0.90224
3208.04061	0.90281
3205.98681	0.90362
3203.93301	0.90411
3201.87920	0.90395
3199.82540	0.90395
3197.77160	0.90456
3195.71779	0.90502
3193.66399	0.90485
3191.61019	0.90488
3189.55638	0.90565
3187.50258	0.90653
3185.44878	0.90706
3183.39497	0.90742
3181.34117	0.90783
3179.28737	0.90820
3177.23356	0.90850
3175.17976	0.90903
3173.12596	0.90978
3171.07215	0.91040
3169.01835	0.91072
3166.96455	0.91101
3164.91075	0.91162
3162.85694	0.91207
3160.80314	0.91221
3158.74934	0.91253
3156.69553	0.91316
3154.64173	0.91404
3152.58793	0.91483
3150.53412	0.91513
3148.48032	0.91519
3146.42652	0.91530
3144.37271	0.91515
3142.31891	0.91522
3140.26511	0.91606
3138.21130	0.91680
3136.15750	0.91696
3134.10370	0.91718
3132.04989	0.91785
3129.99609	0.91889
3127.94229	0.91981
3125.88848	0.92012
3123.83468	0.92008
3121.78088	0.92014
3119.72707	0.92028
3117.67327	0.92035
3115.61947	0.92052
3113.56566	0.92107
3111.51186	0.92163
3109.45806	0.92154
3107.40426	0.92130
3105.35045	0.92165
3103.29665	0.92236
3101.24285	0.92291
3099.18904	0.92339
3097.13524	0.92390
3095.08144	0.92408
3093.02763	0.92395
3090.97383	0.92381
3088.92003	0.92347
3086.86622	0.92253
3084.81242	0.92150
3082.75862	0.92118
3080.70481	0.92174
3078.65101	0.92297
3076.59721	0.92412
3074.54340	0.92478
3072.48960	0.92514
3070.43580	0.92513
3068.38199	0.92481
3066.32819	0.92453
3064.27439	0.92427
3062.22058	0.92415
3060.16678	0.92412
3058.11298	0.92391
3056.05918	0.92411
3054.00537	0.92527
3051.95157	0.92655
3049.89777	0.92728
3047.84396	0.92783
3045.79016	0.92856
3043.73636	0.92933
3041.68255	0.92967
3039.62875	0.92952
3037.57495	0.92928
3035.52114	0.92879
3033.46734	0.92772
3031.41354	0.92601
3029.35973	0.92369
3027.30593	0.92139
3025.25213	0.92008
3023.19832	0.92039
3021.14452	0.92248
3019.09072	0.92549
3017.03691	0.92809
3014.98311	0.92991
3012.92931	0.93127
3010.87550	0.93215
3008.82170	0.93247
3006.76790	0.93238
3004.71409	0.93227
3002.66029	0.93278
3000.60649	0.93376
2998.55269	0.93433
2996.49888	0.93454
2994.44508	0.93507
2992.39128	0.93569
2990.33747	0.93600
2988.28367	0.93635
2986.22987	0.93698
2984.17606	0.93774
2982.12226	0.93819
2980.06846	0.93834
2978.01465	0.93847
2975.96085	0.93836
2973.90705	0.93821
2971.85324	0.93861
2969.79944	0.93932
2967.74564	0.93956
2965.69183	0.93945
2963.63803	0.93941
2961.58423	0.93947
2959.53042	0.93966
2957.47662	0.93971
2955.42282	0.93956
2953.36901	0.93923
2951.31521	0.93867
2949.26141	0.93818
2947.20761	0.93780
2945.15380	0.93737
2943.10000	0.93681
2941.04620	0.93605
2938.99239	0.93542
2936.93859	0.93511
2934.88479	0.93441
2932.83098	0.93289
2930.77718	0.93125
2928.72338	0.93013
2926.66957	0.92949
2924.61577	0.92900
2922.56197	0.92852
2920.50816	0.92818
2918.45436	0.92817
2916.40056	0.92847
2914.34675	0.92891
2912.29295	0.92946
2910.23915	0.93028
2908.18534	0.93108
2906.13154	0.93159
2904.07774	0.93225
2902.02393	0.93336
2899.97013	0.93475
2897.91633	0.93607
2895.86252	0.93701
2893.80872	0.93762
2891.75492	0.93820
2889.70112	0.93872
2887.64731	0.93876
2885.59351	0.93870
2883.53971	0.93935
2881.48590	0.94024
2879.43210	0.94053
2877.37830	0.94060
2875.32449	0.94112
2873.27069	0.94182
2871.21689	0.94214
2869.16308	0.94233
2867.10928	0.94275
2865.05548	0.94315
2863.00167	0.94326
2860.94787	0.94299
2858.89407	0.94273
2856.84026	0.94267
2854.78646	0.94239
2852.73266	0.94163
2850.67885	0.94054
2848.62505	0.93971
2846.57125	0.93969
2844.51744	0.94028
2842.46364	0.94123
2840.40984	0.94245
2838.35603	0.94354
2836.30223	0.94436
2834.24843	0.94500
2832.19463	0.94537
2830.14082	0.94559
2828.08702	0.94603
2826.03322	0.94658
2823.97941	0.94687
2821.92561	0.94706
2819.87181	0.94733
2817.81800	0.94753
2815.76420	0.94754
2813.71040	0.94747
2811.65659	0.94753
2809.60279	0.94772
2807.54899	0.94789
2805.49518	0.94799
2803.44138	0.94805
2801.38758	0.94826
2799.33377	0.94872
2797.27997	0.94918
2795.22617	0.94939
2793.17236	0.94940
2791.11856	0.94924
2789.06476	0.94922
2787.01095	0.94964
2784.95715	0.95002
2782.90335	0.94992
2780.84955	0.94968
2778.79574	0.94978
2776.74194	0.95017
2774.68814	0.95034
2772.63433	0.95016
2770.58053	0.95014
2768.52673	0.95030
2766.47292	0.95049
2764.41912	0.95082
2762.36532	0.95115
2760.31151	0.95114
2758.25771	0.95093
2756.20391	0.95093
2754.15010	0.95115
2752.09630	0.95136
2750.04250	0.95155
2747.98869	0.95169
2745.93489	0.95165
2743.88109	0.95160
2741.82728	0.95180
2739.77348	0.95202
2737.71968	0.95198
2735.66587	0.95190
2733.61207	0.95194
2731.55827	0.95185
2729.50446	0.95153
2727.45066	0.95136
2725.39686	0.95159
2723.34306	0.95190
2721.28925	0.95213
2719.23545	0.95250
2717.18165	0.95266
2715.12784	0.95252
2713.07404	0.95262
2711.02024	0.95281
2708.96643	0.95276
2706.91263	0.95247
2704.85883	0.95233
2702.80502	0.95284
2700.75122	0.95339
2698.69742	0.95319
2696.64361	0.95277
2694.58981	0.95266
2692.53601	0.95282
2690.48220	0.95315
2688.42840	0.95332
2686.37460	0.95304
2684.32079	0.95282
2682.26699	0.95287
2680.21319	0.95293
2678.15938	0.95310
2676.10558	0.95333
2674.05178	0.95358
2671.99797	0.95376
2669.94417	0.95380
2667.89037	0.95402
2665.83657	0.95414
2663.78276	0.95377
2661.72896	0.95346
2659.67516	0.95360
2657.62135	0.95370
2655.56755	0.95357
2653.51375	0.95357
2651.45994	0.95376
2649.40614	0.95410
2647.35234	0.95442
2645.29853	0.95437
2643.24473	0.95425
2641.19093	0.95430
2639.13712	0.95433
2637.08332	0.95434
2635.02952	0.95442
2632.97571	0.95453
2630.92191	0.95462
2628.86811	0.95471
2626.81430	0.95485
2624.76050	0.95501
2622.70670	0.95529
2620.65289	0.95554
2618.59909	0.95554
2616.54529	0.95553
2614.49149	0.95570
2612.43768	0.95594
2610.38388	0.95616
2608.33008	0.95626
2606.27627	0.95628
2604.22247	0.95647
2602.16867	0.95662
2600.11486	0.95643
2598.06106	0.95633
2596.00726	0.95635
2593.95345	0.95641
2591.89965	0.95704
2589.84585	0.95788
2587.79204	0.95788
2585.73824	0.95698
2583.68444	0.95621
2581.63063	0.95631
2579.57683	0.95673
2577.52303	0.95704
2575.46922	0.95743
2573.41542	0.95755
2571.36162	0.95675
2569.30781	0.95570
2567.25401	0.95549
2565.20021	0.95595
2563.14640	0.95671
2561.09260	0.95744
2559.03880	0.95766
2556.98500	0.95749
2554.93119	0.95758
2552.87739	0.95811
2550.82359	0.95819
2548.76978	0.95751
2546.71598	0.95682
2544.66218	0.95661
2542.60837	0.95694
2540.55457	0.95752
2538.50077	0.95810
2536.44696	0.95819
2534.39316	0.95787
2532.33936	0.95791
2530.28555	0.95817
2528.23175	0.95817
2526.17795	0.95772
2524.12414	0.95709
2522.07034	0.95692
2520.01654	0.95714
2517.96273	0.95733
2515.90893	0.95741
2513.85513	0.95748
2511.80132	0.95766
2509.74752	0.95791
2507.69372	0.95813
2505.63992	0.95830
2503.58611	0.95834
2501.53231	0.95839
2499.47851	0.95859
2497.42470	0.95877
2495.37090	0.95907
2493.31710	0.95937
2491.26329	0.95947
2489.20949	0.95967
2487.15569	0.95966
2485.10188	0.95907
2483.04808	0.95855
2480.99428	0.95848
2478.94047	0.95858
2476.88667	0.95875
2474.83287	0.95847
2472.77906	0.95774
2470.72526	0.95765
2468.67146	0.95842
2466.61765	0.95932
2464.56385	0.95968
2462.51005	0.95943
2460.45624	0.95947
2458.40244	0.95975
2456.34864	0.95926
2454.29483	0.95829
2452.24103	0.95769
2450.18723	0.95763
2448.13343	0.95757
2446.07962	0.95759
2444.02582	0.95827
2441.97202	0.95908
2439.91821	0.95908
2437.86441	0.95842
2435.81061	0.95829
2433.75680	0.95911
2431.70300	0.95972
2429.64920	0.95963
2427.59539	0.95938
2425.54159	0.95930
2423.48779	0.95953
2421.43398	0.95973
2419.38018	0.95955
2417.32638	0.95922
2415.27257	0.95902
2413.21877	0.95917
2411.16497	0.95953
2409.11116	0.95936
2407.05736	0.95900
2405.00356	0.95917
2402.94975	0.95943
2400.89595	0.95935
2398.84215	0.95906
2396.78834	0.95886
2394.73454	0.95883
2392.68074	0.95890
2390.62694	0.95879
2388.57313	0.95854
2386.51933	0.95847
2384.46553	0.95815
2382.41172	0.95777
2380.35792	0.95782
2378.30412	0.95787
2376.25031	0.95742
2374.19651	0.95674
2372.14271	0.95655
2370.08890	0.95689
2368.03510	0.95664
2365.98130	0.95531
2363.92749	0.95424
2361.87369	0.95455
2359.81989	0.95511
2357.76608	0.95508
2355.71228	0.95531
2353.65848	0.95609
2351.60467	0.95672
2349.55087	0.95643
2347.49707	0.95547
2345.44326	0.95505
2343.38946	0.95576
2341.33566	0.95656
2339.28186	0.95698
2337.22805	0.95752
2335.17425	0.95779
2333.12045	0.95679
2331.06664	0.95546
2329.01284	0.95537
2326.95904	0.95540
2324.90523	0.95465
2322.85143	0.95455
2320.79763	0.95585
2318.74382	0.95711
2316.69002	0.95744
2314.63622	0.95724
2312.58241	0.95677
2310.52861	0.95677
2308.47481	0.95754
2306.42100	0.95825
2304.36720	0.95842
2302.31340	0.95835
2300.25959	0.95797
2298.20579	0.95733
2296.15199	0.95735
2294.09818	0.95770
2292.04438	0.95761
2289.99058	0.95765
2287.93677	0.95758
2285.88297	0.95733
2283.82917	0.95799
2281.77537	0.95915
2279.72156	0.95986
2277.66776	0.96018
2275.61396	0.95993
2273.56015	0.95908
2271.50635	0.95864
2269.45255	0.95917
2267.39874	0.96019
2265.34494	0.96128
2263.29114	0.96176
2261.23733	0.96146
2259.18353	0.96098
2257.12973	0.96021
2255.07592	0.95924
2253.02212	0.95874
2250.96832	0.95876
2248.91451	0.95939
2246.86071	0.96047
2244.80691	0.96065
2242.75310	0.95975
2240.69930	0.95935
2238.64550	0.95951
2236.59169	0.95941
2234.53789	0.95938
2232.48409	0.95979
2230.43029	0.96059
2228.37648	0.96076
2226.32268	0.95952
2224.26888	0.95815
2222.21507	0.95858
2220.16127	0.96129
2218.10747	0.96389
2216.05366	0.96412
2213.99986	0.96226
2211.94606	0.96058
2209.89225	0.96098
2207.83845	0.96281
2205.78465	0.96425
2203.73084	0.96453
2201.67704	0.96400
2199.62324	0.96228
2197.56943	0.96070
2195.51563	0.96170
2193.46183	0.96326
2191.40802	0.96224
2189.35422	0.96066
2187.30042	0.96144
2185.24661	0.96414
2183.19281	0.96625
2181.13901	0.96652
2179.08520	0.96624
2177.03140	0.96545
2174.97760	0.96405
2172.92380	0.96352
2170.86999	0.96432
2168.81619	0.96502
2166.76239	0.96524
2164.70858	0.96574
2162.65478	0.96588
2160.60098	0.96526
2158.54717	0.96483
2156.49337	0.96577
2154.43957	0.96614
2152.38576	0.96430
2150.33196	0.96324
2148.27816	0.96452
2146.22435	0.96585
2144.17055	0.96606
2142.11675	0.96548
2140.06294	0.96450
2138.00914	0.96436
2135.95534	0.96502
2133.90153	0.96501
2131.84773	0.96365
2129.79393	0.96241
2127.74012	0.96289
2125.68632	0.96380
2123.63252	0.96376
2121.57871	0.96360
2119.52491	0.96387
2117.47111	0.96325
2115.41731	0.96144
2113.36350	0.96116
2111.30970	0.96290
2109.25590	0.96397
2107.20209	0.96385
2105.14829	0.96363
2103.09449	0.96318
2101.04068	0.96214
2098.98688	0.96157
2096.93308	0.96245
2094.87927	0.96381
2092.82547	0.96456
2090.77167	0.96396
2088.71786	0.96200
2086.66406	0.96088
2084.61026	0.96218
2082.55645	0.96374
2080.50265	0.96322
2078.44885	0.96169
2076.39504	0.96122
2074.34124	0.96165
2072.28744	0.96191
2070.23363	0.96254
2068.17983	0.96334
2066.12603	0.96353
2064.07223	0.96407
2062.01842	0.96486
2059.96462	0.96401
2057.91082	0.96240
2055.85701	0.96268
2053.80321	0.96411
2051.74941	0.96447
2049.69560	0.96289
2047.64180	0.96122
2045.58800	0.96244
2043.53419	0.96484
2041.48039	0.96533
2039.42659	0.96452
2037.37278	0.96399
2035.31898	0.96287
2033.26518	0.96180
2031.21137	0.96233
2029.15757	0.96214
2027.10377	0.96201
2025.04996	0.96531
2022.99616	0.96784
2020.94236	0.96660
2018.88855	0.96633
2016.83475	0.96726
2014.78095	0.96617
2012.72714	0.96534
2010.67334	0.96679
2008.61954	0.96788
2006.56574	0.96593
2004.51193	0.96382
2002.45813	0.96478
2000.40433	0.96569
1998.35052	0.96462
1996.29672	0.96507
1994.24292	0.96801
1992.18911	0.96950
1990.13531	0.96875
1988.08151	0.96878
1986.02770	0.96804
1983.97390	0.96556
1981.92010	0.96541
1979.86629	0.96742
1977.81249	0.96772
1975.75869	0.96677
1973.70488	0.96667
1971.65108	0.96710
1969.59728	0.96727
1967.54347	0.96717
1965.48967	0.96849
1963.43587	0.97126
1961.38206	0.97157
1959.32826	0.96912
1957.27446	0.96746
1955.22066	0.96637
1953.16685	0.96480
1951.11305	0.96316
1949.05925	0.96159
1947.00544	0.96061
1944.95164	0.96137
1942.89784	0.96362
1940.84403	0.96425
1938.79023	0.96334
1936.73643	0.96365
1934.68262	0.96475
1932.62882	0.96503
1930.57502	0.96517
1928.52121	0.96512
1926.46741	0.96393
1924.41361	0.96318
1922.35980	0.96387
1920.30600	0.96485
1918.25220	0.96587
1916.19839	0.96633
1914.14459	0.96543
1912.09079	0.96413
1910.03698	0.96380
1907.98318	0.96414
1905.92938	0.96355
1903.87557	0.96274
1901.82177	0.96365
1899.76797	0.96468
1897.71417	0.96384
1895.66036	0.96280
1893.60656	0.96302
1891.55276	0.96358
1889.49895	0.96418
1887.44515	0.96468
1885.39135	0.96425
1883.33754	0.96360
1881.28374	0.96352
1879.22994	0.96354
1877.17613	0.96361
1875.12233	0.96383
1873.06853	0.96400
1871.01472	0.96420
1868.96092	0.96418
1866.90712	0.96350
1864.85331	0.96304
1862.79951	0.96337
1860.74571	0.96382
1858.69190	0.96402
1856.63810	0.96410
1854.58430	0.96416
1852.53049	0.96430
1850.47669	0.96441
1848.42289	0.96439
1846.36908	0.96447
1844.31528	0.96501
1842.26148	0.96537
1840.20768	0.96470
1838.15387	0.96377
1836.10007	0.96357
1834.04627	0.96420
1831.99246	0.96505
1829.93866	0.96535
1827.88486	0.96501
1825.83105	0.96464
1823.77725	0.96448
1821.72345	0.96443
1819.66964	0.96428
1817.61584	0.96403
1815.56204	0.96359
1813.50823	0.96311
1811.45443	0.96307
1809.40063	0.96314
1807.34682	0.96293
1805.29302	0.96293
1803.23922	0.96342
1801.18541	0.96402
1799.13161	0.96410
1797.07781	0.96380
1795.02400	0.96385
1792.97020	0.96443
1790.91640	0.96475
1788.86260	0.96439
1786.80879	0.96416
1784.75499	0.96422
1782.70119	0.96412
1780.64738	0.96404
1778.59358	0.96401
1776.53978	0.96386
1774.48597	0.96396
1772.43217	0.96441
1770.37837	0.96437
1768.32456	0.96381
1766.27076	0.96352
1764.21696	0.96346
1762.16315	0.96328
1760.10935	0.96308
1758.05555	0.96318
1756.00174	0.96349
1753.94794	0.96375
1751.89414	0.96420
1749.84033	0.96477
1747.78653	0.96439
1745.73273	0.96335
1743.67892	0.96264
1741.62512	0.96241
1739.57132	0.96224
1737.51751	0.96197
1735.46371	0.96209
1733.40991	0.96223
1731.35611	0.96156
1729.30230	0.96093
1727.24850	0.96068
1725.19470	0.96046
1723.14089	0.96008
1721.08709	0.95998
1719.03329	0.96037
1716.97948	0.96024
1714.92568	0.95901
1712.87188	0.95784
1710.81807	0.95709
1708.76427	0.95665
1706.71047	0.95585
1704.65666	0.95441
1702.60286	0.95311
1700.54906	0.95185
1698.49525	0.95051
1696.44145	0.94904
1694.38765	0.94729
1692.33384	0.94598
1690.28004	0.94484
1688.22624	0.94339
1686.17243	0.94169
1684.11863	0.93916
1682.06483	0.93666
1680.01103	0.93532
1677.95722	0.93432
1675.90342	0.93300
1673.84962	0.93134
1671.79581	0.92981
1669.74201	0.92797
1667.68821	0.92583
1665.63440	0.92399
1663.58060	0.92226
1661.52680	0.92066
1659.47299	0.91950
1657.41919	0.91885
1655.36539	0.91850
1653.31158	0.91757
1651.25778	0.91605
1649.20398	0.91523
1647.15017	0.91464
1645.09637	0.91407
1643.04257	0.91368
1640.98876	0.91346
1638.93496	0.91347
1636.88116	0.91374
1634.82735	0.91431
1632.77355	0.91492
1630.71975	0.91533
1628.66594	0.91566
1626.61214	0.91621
1624.55834	0.91717
1622.50454	0.91843
1620.45073	0.91957
1618.39693	0.92087
1616.34313	0.92256
1614.28932	0.92378
1612.23552	0.92486
1610.18172	0.92599
1608.12791	0.92635
1606.07411	0.92547
1604.02031	0.92370
1601.96650	0.92212
1599.91270	0.92247
1597.85890	0.92521
1595.80509	0.92897
1593.75129	0.93205
1591.69749	0.93414
1589.64368	0.93551
1587.58988	0.93605
1585.53608	0.93598
1583.48227	0.93586
1581.42847	0.93651
1579.37467	0.93803
1577.32086	0.93972
1575.26706	0.94095
1573.21326	0.94136
1571.15945	0.94171
1569.10565	0.94251
1567.05185	0.94311
1564.99805	0.94328
1562.94424	0.94345
1560.89044	0.94372
1558.83664	0.94412
1556.78283	0.94393
1554.72903	0.94354
1552.67523	0.94349
1550.62142	0.94346
1548.56762	0.94319
1546.51382	0.94285
1544.46001	0.94254
1542.40621	0.94249
1540.35241	0.94331
1538.29860	0.94454
1536.24480	0.94533
1534.19100	0.94608
1532.13719	0.94656
1530.08339	0.94669
1528.02959	0.94707
1525.97578	0.94791
1523.92198	0.94882
1521.86818	0.94955
1519.81437	0.95019
1517.76057	0.95082
1515.70677	0.95127
1513.65297	0.95155
1511.59916	0.95196
1509.54536	0.95260
1507.49156	0.95370
1505.43775	0.95451
1503.38395	0.95437
1501.33015	0.95366
1499.27634	0.95111
1497.22254	0.94337
1495.16874	0.93149
1493.11493	0.92412
1491.06113	0.92550
1489.00733	0.93468
1486.95352	0.94280
1484.89972	0.94714
1482.84592	0.95008
1480.79211	0.95211
1478.73831	0.95296
1476.68451	0.95298
1474.63070	0.95283
1472.57690	0.95288
1470.52310	0.95302
1468.46929	0.95295
1466.41549	0.95273
1464.36169	0.95241
1462.30788	0.95190
1460.25408	0.95122
1458.20028	0.94794
1456.14648	0.93695
1454.09267	0.92596
1452.03887	0.92089
1449.98507	0.92173
1447.93126	0.92640
1445.87746	0.93101
1443.82366	0.93447
1441.76985	0.93741
1439.71605	0.93956
1437.66225	0.94153
1435.60844	0.94388
1433.55464	0.94545
1431.50084	0.94650
1429.44703	0.94740
1427.39323	0.94789
1425.33943	0.94804
1423.28562	0.94817
1421.23182	0.94849
1419.17802	0.94886
1417.12421	0.94917
1415.07041	0.94955
1413.01661	0.94964
1410.96280	0.94949
1408.90900	0.94975
1406.85520	0.95027
1404.80139	0.95067
1402.74759	0.95115
1400.69379	0.95185
1398.63999	0.95226
1396.58618	0.95217
1394.53238	0.95210
1392.47858	0.95192
1390.42477	0.95139
1388.37097	0.95093
1386.31717	0.95074
1384.26336	0.95056
1382.20956	0.95044
1380.15576	0.95023
1378.10195	0.94980
1376.04815	0.94961
1373.99435	0.94975
1371.94054	0.94973
1369.88674	0.94976
1367.83294	0.94993
1365.77913	0.94999
1363.72533	0.95020
1361.67153	0.95066
1359.61772	0.95118
1357.56392	0.95182
1355.51012	0.95237
1353.45631	0.95240
1351.40251	0.95222
1349.34871	0.95211
1347.29491	0.95192
1345.24110	0.95200
1343.18730	0.95273
1341.13350	0.95356
1339.07969	0.95379
1337.02589	0.95351
1334.97209	0.95304
1332.91828	0.95267
1330.86448	0.95275
1328.81068	0.95309
1326.75687	0.95319
1324.70307	0.95288
1322.64927	0.95277
1320.59546	0.95323
1318.54166	0.95371
1316.48786	0.95379
1314.43405	0.95364
1312.38025	0.95335
1310.32645	0.95324
1308.27264	0.95344
1306.21884	0.95354
1304.16504	0.95346
1302.11123	0.95366
1300.05743	0.95421
1298.00363	0.95442
1295.94982	0.95431
1293.89602	0.95453
1291.84222	0.95474
1289.78842	0.95448
1287.73461	0.95403
1285.68081	0.95372
1283.62701	0.95369
1281.57320	0.95393
1279.51940	0.95415
1277.46560	0.95410
1275.41179	0.95384
1273.35799	0.95375
1271.30419	0.95387
1269.25038	0.95380
1267.19658	0.95355
1265.14278	0.95336
1263.08897	0.95318
1261.03517	0.95284
1258.98137	0.95229
1256.92756	0.95176
1254.87376	0.95144
1252.81996	0.95087
1250.76615	0.94985
1248.71235	0.94914
1246.65855	0.94892
1244.60474	0.94868
1242.55094	0.94840
1240.49714	0.94835
1238.44334	0.94818
1236.38953	0.94767
1234.33573	0.94722
1232.28193	0.94673
1230.22812	0.94609
1228.17432	0.94574
1226.12052	0.94537
1224.06671	0.94455
1222.01291	0.94375
1219.95911	0.94318
1217.90530	0.94254
1215.85150	0.94176
1213.79770	0.94072
1211.74389	0.93941
1209.69009	0.93808
1207.63629	0.93695
1205.58248	0.93591
1203.52868	0.93453
1201.47488	0.93270
1199.42107	0.93086
1197.36727	0.92919
1195.31347	0.92742
1193.25966	0.92556
1191.20586	0.92375
1189.15206	0.92194
1187.09825	0.91982
1185.04445	0.91722
1182.99065	0.91469
1180.93685	0.91246
1178.88304	0.91024
1176.82924	0.90817
1174.77544	0.90614
1172.72163	0.90371
1170.66783	0.90120
1168.61403	0.89883
1166.56022	0.89614
1164.50642	0.89329
1162.45262	0.89075
1160.39881	0.88831
1158.34501	0.88570
1156.29121	0.88292
1154.23740	0.88037
1152.18360	0.87825
1150.12980	0.87624
1148.07599	0.87408
1146.02219	0.87186
1143.96839	0.86973
1141.91458	0.86770
1139.86078	0.86542
1137.80698	0.86276
1135.75317	0.86004
1133.69937	0.85717
1131.64557	0.85386
1129.59176	0.84995
1127.53796	0.84536
1125.48416	0.84046
1123.43036	0.83556
1121.37655	0.83031
1119.32275	0.82460
1117.26895	0.81915
1115.21514	0.81426
1113.16134	0.80993
1111.10754	0.80615
1109.05373	0.80234
1106.99993	0.79832
1104.94613	0.79454
1102.89232	0.79102
1100.83852	0.78772
1098.78472	0.78490
1096.73091	0.78256
1094.67711	0.78056
1092.62331	0.77880
1090.56950	0.77697
1088.51570	0.77509
1086.46190	0.77364
1084.40809	0.77233
1082.35429	0.77065
1080.30049	0.76870
1078.24668	0.76641
1076.19288	0.76353
1074.13908	0.75997
1072.08528	0.75613
1070.03147	0.75262
1067.97767	0.74873
1065.92387	0.74385
1063.87006	0.73865
1061.81626	0.73310
1059.76246	0.72698
1057.70865	0.72056
1055.65485	0.71311
1053.60105	0.70448
1051.54724	0.69554
1049.49344	0.68611
1047.43964	0.67618
1045.38583	0.66650
1043.33203	0.65717
1041.27823	0.64821
1039.22442	0.63987
1037.17062	0.63177
1035.11682	0.62377
1033.06301	0.61639
1031.00921	0.61002
1028.95541	0.60547
1026.90160	0.60348
1024.84780	0.60318
1022.79400	0.60342
1020.74019	0.60414
1018.68639	0.60483
1016.63259	0.60431
1014.57879	0.60249
1012.52498	0.59983
1010.47118	0.59674
1008.41738	0.59372
1006.36357	0.59120
1004.30977	0.58975
1002.25597	0.59028
1000.20216	0.59313
998.14836	0.59768
996.09456	0.60329
994.04075	0.60965
991.98695	0.61673
989.93315	0.62440
987.87934	0.63189
985.82554	0.63885
983.77174	0.64579
981.71793	0.65279
979.66413	0.65986
977.61033	0.66753
975.55652	0.67578
973.50272	0.68385
971.44892	0.69131
969.39511	0.69815
967.34131	0.70452
965.28751	0.71070
963.23371	0.71667
961.17990	0.72261
959.12610	0.72870
957.07230	0.73427
955.01849	0.73912
952.96469	0.74351
950.91089	0.74711
948.85708	0.75000
946.80328	0.75266
944.74948	0.75496
942.69567	0.75694
940.64187	0.75893
938.58807	0.76092
936.53426	0.76279
934.48046	0.76446
932.42666	0.76578
930.37285	0.76672
928.31905	0.76727
926.26525	0.76759
924.21144	0.76771
922.15764	0.76679
920.10384	0.76437
918.05003	0.76078
915.99623	0.75655
913.94243	0.75265
911.88862	0.75043
909.83482	0.75088
907.78102	0.75392
905.72722	0.75923
903.67341	0.76627
901.61961	0.77375
899.56581	0.78095
897.51200	0.78797
895.45820	0.79469
893.40440	0.80055
891.35059	0.80515
889.29679	0.80848
887.24299	0.81126
885.18918	0.81419
883.13538	0.81700
881.08158	0.81955
879.02777	0.82197
876.97397	0.82410
874.92017	0.82622
872.86636	0.82904
870.81256	0.83262
868.75876	0.83635
866.70495	0.83987
864.65115	0.84291
862.59735	0.84557
860.54354	0.84846
858.48974	0.85144
856.43594	0.85400
854.38213	0.85596
852.32833	0.85748
850.27453	0.85930
848.22073	0.86099
846.16692	0.86155
844.11312	0.86139
842.05932	0.86153
840.00551	0.86237
837.95171	0.86329
835.89791	0.86373
833.84410	0.86422
831.79030	0.86541
829.73650	0.86684
827.68269	0.86702
825.62889	0.86585
823.57509	0.86506
821.52128	0.86549
819.46748	0.86682
817.41368	0.86793
815.35987	0.86751
813.30607	0.86594
811.25227	0.86433
809.19846	0.86287
807.14466	0.86101
805.09086	0.85795
803.03705	0.85380
800.98325	0.85014
798.92945	0.84775
796.87565	0.84573
794.82184	0.84423
792.76804	0.84362
790.71424	0.84295
788.66043	0.84181
786.60663	0.84068
784.55283	0.84011
782.49902	0.83960
780.44522	0.83790
778.39142	0.83552
776.33761	0.83336
774.28381	0.83144
772.23001	0.82895
770.17620	0.82499
768.12240	0.81969
766.06860	0.81341
764.01479	0.80694
761.96099	0.80109
759.90719	0.79596
757.85338	0.79170
755.79958	0.78833
753.74578	0.78593
751.69197	0.78502
749.63817	0.78542
747.58437	0.78609
745.53056	0.78750
743.47676	0.79132
741.42296	0.79750
739.36916	0.80423
737.31535	0.81020
735.26155	0.81557
733.20775	0.82087
731.15394	0.82539
729.10014	0.82842
727.04634	0.83045
724.99253	0.83209
722.93873	0.83358
720.88493	0.83475
718.83112	0.83602
716.77732	0.83733
714.72352	0.83708
712.66971	0.83485
710.61591	0.83033
708.56211	0.82096
706.50830	0.80426
704.45450	0.77955
702.40070	0.74756
700.34689	0.71042
698.29309	0.67454
696.23929	0.65396
694.18548	0.66089
692.13168	0.68866
690.07788	0.71869
688.02408	0.74004
685.97027	0.75281
683.91647	0.76094
681.86267	0.76647
679.80886	0.76974
677.75506	0.77141
675.70126	0.77252
673.64745	0.77357
671.59365	0.77419
669.53985	0.77456
667.48604	0.77629
665.43224	0.77894
663.37844	0.78099
661.32463	0.78251
659.27083	0.78347
657.21703	0.78335
655.16322	0.78238
653.10942	0.78167
651.05562	0.78057
649.00181	0.77885
646.94801	0.77779
644.89421	0.77679
642.84040	0.77605
640.78660	0.77655
638.73280	0.77701
636.67899	0.77695
634.62519	0.77687
632.57139	0.77649
630.51759	0.77546
628.46378	0.77457
626.40998	0.77464
624.35618	0.77405
622.30237	0.77148
620.24857	0.76828
618.19477	0.76556
616.14096	0.76352
614.08716	0.76220
612.03336	0.76059
609.97955	0.75746
607.92575	0.75357
605.87195	0.75048
603.81814	0.74814
601.76434	0.74590
599.71054	0.74304
597.65673	0.73931
595.60293	0.73538
593.54913	0.73203
591.49532	0.72975
589.44152	0.72773
587.38772	0.72497
585.33391	0.72247
583.28011	0.72105
581.22631	0.71944
579.17250	0.71642
577.11870	0.71210
575.06490	0.70791
573.01110	0.70432
570.95729	0.70053
568.90349	0.69630
566.84969	0.69108
564.79588	0.68581
562.74208	0.68162
560.68828	0.67667
558.63447	0.67053
556.58067	0.66496
554.52687	0.65994
552.47306	0.65486
550.41926	0.64806
548.36546	0.63914
546.31165	0.62973
544.25785	0.61941
542.20405	0.60897
540.15024	0.59941
538.09644	0.59094
536.04264	0.58459
533.98883	0.58050
531.93503	0.57876
529.88123	0.57862
527.82742	0.57936
525.77362	0.58145
523.71982	0.58477
521.66602	0.58868
519.61221	0.59226
517.55841	0.59501
515.50461	0.59723
513.45080	0.60088
511.39700	0.60610
509.34320	0.60908
507.28939	0.61056
505.23559	0.61428
503.18179	0.61834
501.12798	0.62068
499.07418	0.62309
497.02038	0.62512
494.96657	0.62356
492.91277	0.61988
490.85897	0.61784
488.80516	0.61617
486.75136	0.61159
484.69756	0.60390
482.64375	0.59529
480.58995	0.58480
478.53615	0.57139
476.48234	0.55613
474.42854	0.53989
472.37474	0.52506
470.32093	0.51350
468.26713	0.50468
466.21333	0.49945
464.15953	0.49746
462.10572	0.49780
460.05192	0.50025
457.99812	0.50435
455.94431	0.50984
453.89051	0.51463
451.83671	0.51705
449.78290	0.51674
447.72910	0.51770
445.67530	0.52300
443.62149	0.52739
441.56769	0.52656
439.51389	0.52178
437.46008	0.51551
435.40628	0.50956
433.35248	0.50515
431.29867	0.50227
429.24487	0.49829
427.19107	0.49375
425.13726	0.49166
423.08346	0.49000
421.02966	0.48939
418.97585	0.49337
416.92205	0.49415
414.86825	0.49195
412.81445	0.49690
410.76064	0.50771
408.70684	0.51414
406.65304	0.51774
404.59923	0.52318
402.54543	0.52824
400.49163	0.53144
398.43782	0.53419
