3996.70104	0.98692
3994.64724	0.98689
3992.59344	0.98728
3990.53964	0.98762
3988.48583	0.98747
3986.43203	0.98686
3984.37823	0.98604
3982.32442	0.98586
3980.27062	0.98651
3978.21682	0.98692
3976.16301	0.98657
3974.10921	0.98607
3972.05541	0.98593
3970.00160	0.98598
3967.94780	0.98600
3965.89400	0.98604
3963.84019	0.98597
3961.78639	0.98578
3959.73259	0.98586
3957.67878	0.98618
3955.62498	0.98661
3953.57118	0.98697
3951.51737	0.98679
3949.46357	0.98611
3947.40977	0.98600
3945.35596	0.98656
3943.30216	0.98655
3941.24836	0.98623
3939.19455	0.98653
3937.14075	0.98694
3935.08695	0.98677
3933.03315	0.98629
3930.97934	0.98595
3928.92554	0.98587
3926.87174	0.98594
3924.81793	0.98598
3922.76413	0.98608
3920.71033	0.98635
3918.65652	0.98658
3916.60272	0.98657
3914.54892	0.98618
3912.49511	0.98560
3910.44131	0.98532
3908.38751	0.98535
3906.33370	0.98555
3904.27990	0.98605
3902.22610	0.98667
3900.17229	0.98725
3898.11849	0.98754
3896.06469	0.98720
3894.01088	0.98662
3891.95708	0.98645
3889.90328	0.98672
3887.84947	0.98688
3885.79567	0.98695
3883.74187	0.98727
3881.68807	0.98751
3879.63426	0.98708
3877.58046	0.98633
3875.52666	0.98598
3873.47285	0.98641
3871.41905	0.98737
3869.36525	0.98778
3867.31144	0.98745
3865.25764	0.98736
3863.20384	0.98738
3861.15003	0.98715
3859.09623	0.98730
3857.04243	0.98804
3854.98862	0.98893
3852.93482	0.98836
3850.88102	0.98668
3848.82721	0.98595
3846.77341	0.98567
3844.71961	0.98562
3842.66580	0.98581
3840.61200	0.98565
3838.55820	0.98547
3836.50439	0.98642
3834.45059	0.98739
3832.39679	0.98709
3830.34298	0.98628
3828.28918	0.98602
3826.23538	0.98599
3824.18158	0.98599
3822.12777	0.98682
3820.07397	0.98843
3818.02017	0.98866
3815.96636	0.98793
3813.91256	0.98761
3811.85876	0.98745
3809.80495	0.98725
3807.75115	0.98686
3805.69735	0.98634
3803.64354	0.98694
3801.58974	0.98853
3799.53594	0.98871
3797.48213	0.98764
3795.42833	0.98720
3793.37453	0.98745
3791.32072	0.98759
3789.26692	0.98743
3787.21312	0.98711
3785.15931	0.98689
3783.10551	0.98682
3781.05171	0.98654
3778.99790	0.98629
3776.94410	0.98648
3774.89030	0.98693
3772.83650	0.98755
3770.78269	0.98788
3768.72889	0.98759
3766.67509	0.98702
3764.62128	0.98634
3762.56748	0.98566
3760.51368	0.98527
3758.45987	0.98578
3756.40607	0.98655
3754.35227	0.98676
3752.29846	0.98712
3750.24466	0.98817
3748.19086	0.98860
3746.13705	0.98740
3744.08325	0.98557
3742.02945	0.98537
3739.97564	0.98534
3737.92184	0.98455
3735.86804	0.98484
3733.81423	0.98663
3731.76043	0.98733
3729.70663	0.98689
3727.65282	0.98617
3725.59902	0.98624
3723.54522	0.98703
3721.49141	0.98766
3719.43761	0.98813
3717.38381	0.98768
3715.33001	0.98668
3713.27620	0.98629
3711.22240	0.98617
3709.16860	0.98559
3707.11479	0.98468
3705.06099	0.98355
3703.00719	0.98255
3700.95338	0.98210
3698.89958	0.98181
3696.84578	0.98153
3694.79197	0.98191
3692.73817	0.98296
3690.68437	0.98377
3688.63056	0.98370
3686.57676	0.98326
3684.52296	0.98304
3682.46915	0.98345
3680.41535	0.98406
3678.36155	0.98374
3676.30774	0.98265
3674.25394	0.98191
3672.20014	0.98105
3670.14633	0.98048
3668.09253	0.98121
3666.03873	0.98174
3663.98492	0.98167
3661.93112	0.98123
3659.87732	0.98044
3657.82352	0.98004
3655.76971	0.98047
3653.71591	0.98069
3651.66211	0.98022
3649.60830	0.97984
3647.55450	0.97996
3645.50070	0.97987
3643.44689	0.97937
3641.39309	0.97864
3639.33929	0.97826
3637.28548	0.97815
3635.23168	0.97771
3633.17788	0.97719
3631.12407	0.97679
3629.07027	0.97613
3627.01647	0.97532
3624.96266	0.97429
3622.90886	0.97289
3620.85506	0.97171
3618.80125	0.97212
3616.74745	0.97359
3614.69365	0.97402
3612.63984	0.97367
3610.58604	0.97359
3608.53224	0.97405
3606.47844	0.97415
3604.42463	0.97343
3602.37083	0.97291
3600.31703	0.97295
3598.26322	0.97283
3596.20942	0.97231
3594.15562	0.97159
3592.10181	0.97110
3590.04801	0.97103
3587.99421	0.97107
3585.94040	0.97108
3583.88660	0.97058
3581.83280	0.96963
3579.77899	0.96893
3577.72519	0.96861
3575.67139	0.96854
3573.61758	0.96846
3571.56378	0.96800
3569.50998	0.96746
3567.45617	0.96716
3565.40237	0.96683
3563.34857	0.96639
3561.29476	0.96627
3559.24096	0.96623
3557.18716	0.96545
3555.13335	0.96415
3553.07955	0.96369
3551.02575	0.96418
3548.97195	0.96429
3546.91814	0.96427
3544.86434	0.96427
3542.81054	0.96362
3540.75673	0.96278
3538.70293	0.96217
3536.64913	0.96194
3534.59532	0.96191
3532.54152	0.96185
3530.48772	0.96204
3528.43391	0.96231
3526.38011	0.96199
3524.32631	0.96160
3522.27250	0.96161
3520.21870	0.96129
3518.16490	0.96077
3516.11109	0.96057
3514.05729	0.96043
3512.00349	0.96021
3509.94968	0.96018
3507.89588	0.96015
3505.84208	0.95997
3503.78827	0.95977
3501.73447	0.95937
3499.68067	0.95909
3497.62687	0.95911
3495.57306	0.95901
3493.51926	0.95857
3491.46546	0.95787
3489.41165	0.95759
3487.35785	0.95816
3485.30405	0.95859
3483.25024	0.95836
3481.19644	0.95781
3479.14264	0.95739
3477.08883	0.95741
3475.03503	0.95762
3472.98123	0.95802
3470.92742	0.95811
3468.87362	0.95724
3466.81982	0.95626
3464.76601	0.95605
3462.71221	0.95627
3460.65841	0.95639
3458.60460	0.95643
3456.55080	0.95655
3454.49700	0.95644
3452.44319	0.95597
3450.38939	0.95540
3448.33559	0.95494
3446.28178	0.95490
3444.22798	0.95492
3442.17418	0.95444
3440.12038	0.95411
3438.06657	0.95403
3436.01277	0.95371
3433.95897	0.95303
3431.90516	0.95242
3429.85136	0.95245
3427.79756	0.95284
3425.74375	0.95307
3423.68995	0.95303
3421.63615	0.95269
3419.58234	0.95247
3417.52854	0.95236
3415.47474	0.95168
3413.42093	0.95071
3411.36713	0.95012
3409.31333	0.95015
3407.25952	0.95049
3405.20572	0.95069
3403.15192	0.95078
3401.09811	0.95090
3399.04431	0.95107
3396.99051	0.95093
3394.93670	0.95051
3392.88290	0.95031
3390.82910	0.95021
3388.77529	0.95034
3386.72149	0.95079
3384.66769	0.95091
3382.61389	0.95082
3380.56008	0.95126
3378.50628	0.95168
3376.45248	0.95128
3374.39867	0.95065
3372.34487	0.95067
3370.29107	0.95114
3368.23726	0.95141
3366.18346	0.95139
3364.12966	0.95145
3362.07585	0.95155
3360.02205	0.95134
3357.96825	0.95137
3355.91444	0.95197
3353.86064	0.95233
3351.80684	0.95221
3349.75303	0.95196
3347.69923	0.95188
3345.64543	0.95208
3343.59162	0.95225
3341.53782	0.95237
3339.48402	0.95237
3337.43021	0.95209
3335.37641	0.95186
3333.32261	0.95191
3331.26881	0.95181
3329.21500	0.95127
3327.16120	0.95073
3325.10740	0.95058
3323.05359	0.95080
3320.99979	0.95113
3318.94599	0.95145
3316.89218	0.95176
3314.83838	0.95197
3312.78458	0.95206
3310.73077	0.95204
3308.67697	0.95214
3306.62317	0.95265
3304.56936	0.95329
3302.51556	0.95340
3300.46176	0.95293
3298.40795	0.95274
3296.35415	0.95303
3294.30035	0.95329
3292.24654	0.95347
3290.19274	0.95327
3288.13894	0.95266
3286.08513	0.95243
3284.03133	0.95288
3281.97753	0.95346
3279.92372	0.95367
3277.86992	0.95364
3275.81612	0.95358
3273.76232	0.95338
3271.70851	0.95321
3269.65471	0.95348
3267.60091	0.95405
3265.54710	0.95431
3263.49330	0.95452
3261.43950	0.95507
3259.38569	0.95525
3257.33189	0.95478
3255.27809	0.95448
3253.22428	0.95471
3251.17048	0.95495
3249.11668	0.95486
3247.06287	0.95493
3245.00907	0.95529
3242.95527	0.95546
3240.90146	0.95531
3238.84766	0.95520
3236.79386	0.95563
3234.74005	0.95631
3232.68625	0.95653
3230.63245	0.95664
3228.57864	0.95706
3226.52484	0.95742
3224.47104	0.95765
3222.41724	0.95780
3220.36343	0.95762
3218.30963	0.95752
3216.25583	0.95795
3214.20202	0.95852
3212.14822	0.95866
3210.09442	0.95843
3208.04061	0.95836
3205.98681	0.95842
3203.93301	0.95851
3201.87920	0.95893
3199.82540	0.95964
3197.77160	0.96005
3195.71779	0.95974
3193.66399	0.95917
3191.61019	0.95937
3189.55638	0.96041
3187.50258	0.96120
3185.44878	0.96147
3183.39497	0.96163
3181.34117	0.96164
3179.28737	0.96145
3177.23356	0.96122
3175.17976	0.96115
3173.12596	0.96151
3171.07215	0.96233
3169.01835	0.96295
3166.96455	0.96276
3164.91075	0.96256
3162.85694	0.96328
3160.80314	0.96421
3158.74934	0.96444
3156.69553	0.96423
3154.64173	0.96404
3152.58793	0.96394
3150.53412	0.96420
3148.48032	0.96480
3146.42652	0.96521
3144.37271	0.96535
3142.31891	0.96556
3140.26511	0.96597
3138.21130	0.96612
3136.15750	0.96618
3134.10370	0.96663
3132.04989	0.96695
3129.99609	0.96679
3127.94229	0.96653
3125.88848	0.96636
3123.83468	0.96617
3121.78088	0.96600
3119.72707	0.96607
3117.67327	0.96644
3115.61947	0.96690
3113.56566	0.96746
3111.51186	0.96787
3109.45806	0.96808
3107.40426	0.96833
3105.35045	0.96835
3103.29665	0.96827
3101.24285	0.96852
3099.18904	0.96907
3097.13524	0.96936
3095.08144	0.96914
3093.02763	0.96900
3090.97383	0.96912
3088.92003	0.96892
3086.86622	0.96852
3084.81242	0.96870
3082.75862	0.96925
3080.70481	0.96948
3078.65101	0.96956
3076.59721	0.96985
3074.54340	0.97007
3072.48960	0.97002
3070.43580	0.97010
3068.38199	0.97047
3066.32819	0.97057
3064.27439	0.97032
3062.22058	0.97023
3060.16678	0.97050
3058.11298	0.97108
3056.05918	0.97165
3054.00537	0.97172
3051.95157	0.97148
3049.89777	0.97128
3047.84396	0.97133
3045.79016	0.97177
3043.73636	0.97218
3041.68255	0.97228
3039.62875	0.97231
3037.57495	0.97237
3035.52114	0.97240
3033.46734	0.97250
3031.41354	0.97247
3029.35973	0.97186
3027.30593	0.97117
3025.25213	0.97126
3023.19832	0.97209
3021.14452	0.97263
3019.09072	0.97231
3017.03691	0.97186
3014.98311	0.97196
3012.92931	0.97244
3010.87550	0.97262
3008.82170	0.97222
3006.76790	0.97171
3004.71409	0.97134
3002.66029	0.97110
3000.60649	0.97117
2998.55269	0.97158
2996.49888	0.97164
2994.44508	0.97110
2992.39128	0.97045
2990.33747	0.96988
2988.28367	0.96929
2986.22987	0.96874
2984.17606	0.96801
2982.12226	0.96718
2980.06846	0.96654
2978.01465	0.96569
2975.96085	0.96422
2973.90705	0.96252
2971.85324	0.96103
2969.79944	0.95970
2967.74564	0.95819
2965.69183	0.95638
2963.63803	0.95414
2961.58423	0.95155
2959.53042	0.94888
2957.47662	0.94608
2955.42282	0.94318
2953.36901	0.93998
2951.31521	0.93617
2949.26141	0.93222
2947.20761	0.92851
2945.15380	0.92477
2943.10000	0.92062
2941.04620	0.91594
2938.99239	0.91124
2936.93859	0.90662
2934.88479	0.90163
2932.83098	0.89660
2930.77718	0.89223
2928.72338	0.88844
2926.66957	0.88480
2924.61577	0.88166
2922.56197	0.87949
2920.50816	0.87825
2918.45436	0.87861
2916.40056	0.88145
2914.34675	0.88655
2912.29295	0.89289
2910.23915	0.89908
2908.18534	0.90420
2906.13154	0.90840
2904.07774	0.91215
2902.02393	0.91560
2899.97013	0.91885
2897.91633	0.92216
2895.86252	0.92545
2893.80872	0.92872
2891.75492	0.93193
2889.70112	0.93472
2887.64731	0.93741
2885.59351	0.94018
2883.53971	0.94244
2881.48590	0.94398
2879.43210	0.94494
2877.37830	0.94512
2875.32449	0.94463
2873.27069	0.94367
2871.21689	0.94180
2869.16308	0.93894
2867.10928	0.93578
2865.05548	0.93211
2863.00167	0.92720
2860.94787	0.92164
2858.89407	0.91636
2856.84026	0.91150
2854.78646	0.90697
2852.73266	0.90334
2850.67885	0.90210
2848.62505	0.90497
2846.57125	0.91233
2844.51744	0.92200
2842.46364	0.93140
2840.40984	0.93946
2838.35603	0.94595
2836.30223	0.95083
2834.24843	0.95459
2832.19463	0.95771
2830.14082	0.96005
2828.08702	0.96165
2826.03322	0.96293
2823.97941	0.96403
2821.92561	0.96480
2819.87181	0.96549
2817.81800	0.96652
2815.76420	0.96752
2813.71040	0.96815
2811.65659	0.96858
2809.60279	0.96893
2807.54899	0.96933
2805.49518	0.96973
2803.44138	0.97002
2801.38758	0.97053
2799.33377	0.97120
2797.27997	0.97140
2795.22617	0.97133
2793.17236	0.97155
2791.11856	0.97215
2789.06476	0.97279
2787.01095	0.97322
2784.95715	0.97361
2782.90335	0.97391
2780.84955	0.97399
2778.79574	0.97383
2776.74194	0.97365
2774.68814	0.97398
2772.63433	0.97448
2770.58053	0.97443
2768.52673	0.97420
2766.47292	0.97435
2764.41912	0.97461
2762.36532	0.97459
2760.31151	0.97448
2758.25771	0.97457
2756.20391	0.97475
2754.15010	0.97494
2752.09630	0.97512
2750.04250	0.97510
2747.98869	0.97496
2745.93489	0.97500
2743.88109	0.97539
2741.82728	0.97572
2739.77348	0.97574
2737.71968	0.97572
2735.66587	0.97582
2733.61207	0.97592
2731.55827	0.97563
2729.50446	0.97500
2727.45066	0.97477
2725.39686	0.97520
2723.34306	0.97573
2721.28925	0.97594
2719.23545	0.97576
2717.18165	0.97546
2715.12784	0.97549
2713.07404	0.97592
2711.02024	0.97636
2708.96643	0.97653
2706.91263	0.97649
2704.85883	0.97621
2702.80502	0.97580
2700.75122	0.97565
2698.69742	0.97575
2696.64361	0.97579
2694.58981	0.97584
2692.53601	0.97589
2690.48220	0.97588
2688.42840	0.97606
2686.37460	0.97642
2684.32079	0.97664
2682.26699	0.97659
2680.21319	0.97614
2678.15938	0.97569
2676.10558	0.97577
2674.05178	0.97613
2671.99797	0.97645
2669.94417	0.97655
2667.89037	0.97638
2665.83657	0.97630
2663.78276	0.97650
2661.72896	0.97668
2659.67516	0.97649
2657.62135	0.97614
2655.56755	0.97614
2653.51375	0.97645
2651.45994	0.97682
2649.40614	0.97711
2647.35234	0.97705
2645.29853	0.97653
2643.24473	0.97619
2641.19093	0.97659
2639.13712	0.97733
2637.08332	0.97765
2635.02952	0.97771
2632.97571	0.97811
2630.92191	0.97825
2628.86811	0.97784
2626.81430	0.97769
2624.76050	0.97787
2622.70670	0.97807
2620.65289	0.97813
2618.59909	0.97790
2616.54529	0.97772
2614.49149	0.97790
2612.43768	0.97828
2610.38388	0.97855
2608.33008	0.97840
2606.27627	0.97798
2604.22247	0.97768
2602.16867	0.97772
2600.11486	0.97796
2598.06106	0.97811
2596.00726	0.97810
2593.95345	0.97802
2591.89965	0.97779
2589.84585	0.97780
2587.79204	0.97862
2585.73824	0.97967
2583.68444	0.97997
2581.63063	0.97998
2579.57683	0.98006
2577.52303	0.97956
2575.46922	0.97854
2573.41542	0.97815
2571.36162	0.97885
2569.30781	0.97989
2567.25401	0.98056
2565.20021	0.98049
2563.14640	0.97999
2561.09260	0.97985
2559.03880	0.97996
2556.98500	0.97955
2554.93119	0.97878
2552.87739	0.97856
2550.82359	0.97897
2548.76978	0.97935
2546.71598	0.97958
2544.66218	0.97985
2542.60837	0.98009
2540.55457	0.98003
2538.50077	0.97977
2536.44696	0.97991
2534.39316	0.98043
2532.33936	0.98061
2530.28555	0.98048
2528.23175	0.98041
2526.17795	0.98003
2524.12414	0.97925
2522.07034	0.97894
2520.01654	0.97972
2517.96273	0.98088
2515.90893	0.98129
2513.85513	0.98106
2511.80132	0.98071
2509.74752	0.98031
2507.69372	0.98027
2505.63992	0.98063
2503.58611	0.98070
2501.53231	0.98064
2499.47851	0.98101
2497.42470	0.98139
2495.37090	0.98158
2493.31710	0.98184
2491.26329	0.98187
2489.20949	0.98181
2487.15569	0.98212
2485.10188	0.98216
2483.04808	0.98143
2480.99428	0.98069
2478.94047	0.98048
2476.88667	0.98038
2474.83287	0.98034
2472.77906	0.98067
2470.72526	0.98131
2468.67146	0.98191
2466.61765	0.98202
2464.56385	0.98175
2462.51005	0.98136
2460.45624	0.98102
2458.40244	0.98117
2456.34864	0.98183
2454.29483	0.98234
2452.24103	0.98181
2450.18723	0.98063
2448.13343	0.98019
2446.07962	0.98069
2444.02582	0.98112
2441.97202	0.98103
2439.91821	0.98095
2437.86441	0.98125
2435.81061	0.98142
2433.75680	0.98105
2431.70300	0.98075
2429.64920	0.98088
2427.59539	0.98112
2425.54159	0.98126
2423.48779	0.98140
2421.43398	0.98161
2419.38018	0.98173
2417.32638	0.98206
2415.27257	0.98287
2413.21877	0.98333
2411.16497	0.98273
2409.11116	0.98190
2407.05736	0.98181
2405.00356	0.98195
2402.94975	0.98177
2400.89595	0.98189
2398.84215	0.98258
2396.78834	0.98302
2394.73454	0.98308
2392.68074	0.98313
2390.62694	0.98314
2388.57313	0.98310
2386.51933	0.98302
2384.46553	0.98301
2382.41172	0.98311
2380.35792	0.98311
2378.30412	0.98312
2376.25031	0.98334
2374.19651	0.98327
2372.14271	0.98221
2370.08890	0.98122
2368.03510	0.98200
2365.98130	0.98342
2363.92749	0.98338
2361.87369	0.98265
2359.81989	0.98203
2357.76608	0.98121
2355.71228	0.98064
2353.65848	0.98095
2351.60467	0.98148
2349.55087	0.98139
2347.49707	0.98134
2345.44326	0.98182
2343.38946	0.98166
2341.33566	0.98089
2339.28186	0.98119
2337.22805	0.98174
2335.17425	0.98141
2333.12045	0.98092
2331.06664	0.98069
2329.01284	0.98077
2326.95904	0.98069
2324.90523	0.97994
2322.85143	0.97932
2320.79763	0.97945
2318.74382	0.97993
2316.69002	0.98051
2314.63622	0.98134
2312.58241	0.98221
2310.52861	0.98260
2308.47481	0.98267
2306.42100	0.98276
2304.36720	0.98281
2302.31340	0.98264
2300.25959	0.98231
2298.20579	0.98218
2296.15199	0.98241
2294.09818	0.98265
2292.04438	0.98229
2289.99058	0.98130
2287.93677	0.98064
2285.88297	0.98094
2283.82917	0.98183
2281.77537	0.98269
2279.72156	0.98279
2277.66776	0.98219
2275.61396	0.98245
2273.56015	0.98367
2271.50635	0.98394
2269.45255	0.98360
2267.39874	0.98397
2265.34494	0.98399
2263.29114	0.98372
2261.23733	0.98436
2259.18353	0.98511
2257.12973	0.98451
2255.07592	0.98327
2253.02212	0.98360
2250.96832	0.98505
2248.91451	0.98586
2246.86071	0.98540
2244.80691	0.98400
2242.75310	0.98285
2240.69930	0.98228
2238.64550	0.98207
2236.59169	0.98272
2234.53789	0.98359
2232.48409	0.98331
2230.43029	0.98273
2228.37648	0.98260
2226.32268	0.98186
2224.26888	0.98115
2222.21507	0.98203
2220.16127	0.98459
2218.10747	0.98626
2216.05366	0.98419
2213.99986	0.98191
2211.94606	0.98328
2209.89225	0.98520
2207.83845	0.98479
2205.78465	0.98411
2203.73084	0.98422
2201.67704	0.98362
2199.62324	0.98353
2197.56943	0.98384
2195.51563	0.98276
2193.46183	0.98183
2191.40802	0.98357
2189.35422	0.98695
2187.30042	0.98764
2185.24661	0.98545
2183.19281	0.98364
2181.13901	0.98328
2179.08520	0.98464
2177.03140	0.98686
2174.97760	0.98676
2172.92380	0.98377
2170.86999	0.98219
2168.81619	0.98273
2166.76239	0.98140
2164.70858	0.97870
2162.65478	0.97761
2160.60098	0.97785
2158.54717	0.97960
2156.49337	0.98196
2154.43957	0.98323
2152.38576	0.98442
2150.33196	0.98668
2148.27816	0.98872
2146.22435	0.98761
2144.17055	0.98408
2142.11675	0.98242
2140.06294	0.98411
2138.00914	0.98597
2135.95534	0.98562
2133.90153	0.98527
2131.84773	0.98653
2129.79393	0.98745
2127.74012	0.98713
2125.68632	0.98662
2123.63252	0.98583
2121.57871	0.98468
2119.52491	0.98440
2117.47111	0.98526
2115.41731	0.98608
2113.36350	0.98606
2111.30970	0.98528
2109.25590	0.98434
2107.20209	0.98374
2105.14829	0.98317
2103.09449	0.98302
2101.04068	0.98358
2098.98688	0.98383
2096.93308	0.98420
2094.87927	0.98542
2092.82547	0.98605
2090.77167	0.98579
2088.71786	0.98601
2086.66406	0.98646
2084.61026	0.98666
2082.55645	0.98679
2080.50265	0.98645
2078.44885	0.98554
2076.39504	0.98470
2074.34124	0.98450
2072.28744	0.98500
2070.23363	0.98505
2068.17983	0.98339
2066.12603	0.98190
2064.07223	0.98295
2062.01842	0.98468
2059.96462	0.98508
2057.91082	0.98446
2055.85701	0.98371
2053.80321	0.98384
2051.74941	0.98371
2049.69560	0.98257
2047.64180	0.98260
2045.58800	0.98361
2043.53419	0.98317
2041.48039	0.98181
2039.42659	0.98188
2037.37278	0.98352
2035.31898	0.98394
2033.26518	0.98081
2031.21137	0.97759
2029.15757	0.97893
2027.10377	0.98290
2025.04996	0.98582
2022.99616	0.98598
2020.94236	0.98504
2018.88855	0.98633
2016.83475	0.98799
2014.78095	0.98723
2012.72714	0.98621
2010.67334	0.98692
2008.61954	0.98712
2006.56574	0.98574
2004.51193	0.98530
2002.45813	0.98568
2000.40433	0.98568
1998.35052	0.98571
1996.29672	0.98631
1994.24292	0.98718
1992.18911	0.98706
1990.13531	0.98647
1988.08151	0.98538
1986.02770	0.98279
1983.97390	0.98165
1981.92010	0.98288
1979.86629	0.98234
1977.81249	0.98038
1975.75869	0.98142
1973.70488	0.98469
1971.65108	0.98724
1969.59728	0.98784
1967.54347	0.98676
1965.48967	0.98629
1963.43587	0.98754
1961.38206	0.98890
1959.32826	0.98855
1957.27446	0.98744
1955.22066	0.98762
1953.16685	0.98898
1951.11305	0.98956
1949.05925	0.98791
1947.00544	0.98511
1944.95164	0.98307
1942.89784	0.98270
1940.84403	0.98394
1938.79023	0.98578
1936.73643	0.98734
1934.68262	0.98788
1932.62882	0.98770
1930.57502	0.98799
1928.52121	0.98807
1926.46741	0.98715
1924.41361	0.98683
1922.35980	0.98733
1920.30600	0.98662
1918.25220	0.98547
1916.19839	0.98582
1914.14459	0.98646
1912.09079	0.98640
1910.03698	0.98663
1907.98318	0.98716
1905.92938	0.98688
1903.87557	0.98582
1901.82177	0.98475
1899.76797	0.98444
1897.71417	0.98511
1895.66036	0.98549
1893.60656	0.98519
1891.55276	0.98533
1889.49895	0.98581
1887.44515	0.98579
1885.39135	0.98534
1883.33754	0.98560
1881.28374	0.98658
1879.22994	0.98693
1877.17613	0.98666
1875.12233	0.98608
1873.06853	0.98515
1871.01472	0.98455
1868.96092	0.98469
1866.90712	0.98533
1864.85331	0.98567
1862.79951	0.98566
1860.74571	0.98560
1858.69190	0.98550
1856.63810	0.98560
1854.58430	0.98582
1852.53049	0.98589
1850.47669	0.98564
1848.42289	0.98517
1846.36908	0.98514
1844.31528	0.98576
1842.26148	0.98616
1840.20768	0.98585
1838.15387	0.98518
1836.10007	0.98480
1834.04627	0.98497
1831.99246	0.98551
1829.93866	0.98607
1827.88486	0.98583
1825.83105	0.98525
1823.77725	0.98480
1821.72345	0.98435
1819.66964	0.98409
1817.61584	0.98420
1815.56204	0.98456
1813.50823	0.98462
1811.45443	0.98410
1809.40063	0.98338
1807.34682	0.98283
1805.29302	0.98260
1803.23922	0.98294
1801.18541	0.98360
1799.13161	0.98404
1797.07781	0.98406
1795.02400	0.98366
1792.97020	0.98296
1790.91640	0.98225
1788.86260	0.98191
1786.80879	0.98213
1784.75499	0.98270
1782.70119	0.98282
1780.64738	0.98235
1778.59358	0.98194
1776.53978	0.98161
1774.48597	0.98086
1772.43217	0.98006
1770.37837	0.97992
1768.32456	0.97990
1766.27076	0.97948
1764.21696	0.97883
1762.16315	0.97809
1760.10935	0.97721
1758.05555	0.97614
1756.00174	0.97479
1753.94794	0.97320
1751.89414	0.97111
1749.84033	0.96788
1747.78653	0.96299
1745.73273	0.95673
1743.67892	0.94912
1741.62512	0.94016
1739.57132	0.92940
1737.51751	0.91900
1735.46371	0.90974
1733.40991	0.89956
1731.35611	0.89283
1729.30230	0.89024
1727.24850	0.89029
1725.19470	0.89276
1723.14089	0.89683
1721.08709	0.90059
1719.03329	0.90402
1716.97948	0.90843
1714.92568	0.91172
1712.87188	0.91320
1710.81807	0.91451
1708.76427	0.91614
1706.71047	0.91819
1704.65666	0.92065
1702.60286	0.92307
1700.54906	0.92662
1698.49525	0.93067
1696.44145	0.93379
1694.38765	0.93676
1692.33384	0.93852
1690.28004	0.93981
1688.22624	0.94123
1686.17243	0.94251
1684.11863	0.94422
1682.06483	0.94556
1680.01103	0.94590
1677.95722	0.94617
1675.90342	0.94691
1673.84962	0.94759
1671.79581	0.94712
1669.74201	0.94592
1667.68821	0.94528
1665.63440	0.94528
1663.58060	0.94537
1661.52680	0.94492
1659.47299	0.94362
1657.41919	0.94216
1655.36539	0.94088
1653.31158	0.93994
1651.25778	0.93978
1649.20398	0.93959
1647.15017	0.93878
1645.09637	0.93715
1643.04257	0.93559
1640.98876	0.93415
1638.93496	0.93259
1636.88116	0.93087
1634.82735	0.92855
1632.77355	0.92624
1630.71975	0.92406
1628.66594	0.92103
1626.61214	0.91737
1624.55834	0.91409
1622.50454	0.91090
1620.45073	0.90810
1618.39693	0.90623
1616.34313	0.90534
1614.28932	0.90524
1612.23552	0.90545
1610.18172	0.90636
1608.12791	0.90825
1606.07411	0.91031
1604.02031	0.91202
1601.96650	0.91370
1599.91270	0.91525
1597.85890	0.91647
1595.80509	0.91776
1593.75129	0.91967
1591.69749	0.92178
1589.64368	0.92355
1587.58988	0.92515
1585.53608	0.92681
1583.48227	0.92837
1581.42847	0.92972
1579.37467	0.93123
1577.32086	0.93317
1575.26706	0.93511
1573.21326	0.93623
1571.15945	0.93723
1569.10565	0.93886
1567.05185	0.94025
1564.99805	0.94096
1562.94424	0.94153
1560.89044	0.94225
1558.83664	0.94353
1556.78283	0.94401
1554.72903	0.94376
1552.67523	0.94390
1550.62142	0.94438
1548.56762	0.94481
1546.51382	0.94513
1544.46001	0.94555
1542.40621	0.94633
1540.35241	0.94757
1538.29860	0.94818
1536.24480	0.94823
1534.19100	0.94875
1532.13719	0.94978
1530.08339	0.95039
1528.02959	0.95071
1525.97578	0.95090
1523.92198	0.95034
1521.86818	0.94830
1519.81437	0.94519
1517.76057	0.94305
1515.70677	0.94274
1513.65297	0.94428
1511.59916	0.94669
1509.54536	0.94905
1507.49156	0.95155
1505.43775	0.95377
1503.38395	0.95473
1501.33015	0.95523
1499.27634	0.95547
1497.22254	0.95590
1495.16874	0.95645
1493.11493	0.95659
1491.06113	0.95651
1489.00733	0.95603
1486.95352	0.95526
1484.89972	0.95497
1482.84592	0.95470
1480.79211	0.95354
1478.73831	0.95139
1476.68451	0.94854
1474.63070	0.94457
1472.57690	0.93810
1470.52310	0.93045
1468.46929	0.92407
1466.41549	0.91859
1464.36169	0.91455
1462.30788	0.91292
1460.25408	0.91260
1458.20028	0.91281
1456.14648	0.91379
1454.09267	0.91497
1452.03887	0.91620
1449.98507	0.91768
1447.93126	0.91892
1445.87746	0.91927
1443.82366	0.91921
1441.76985	0.91926
1439.71605	0.91928
1437.66225	0.91945
1435.60844	0.92005
1433.55464	0.92073
1431.50084	0.92165
1429.44703	0.92294
1427.39323	0.92412
1425.33943	0.92534
1423.28562	0.92659
1421.23182	0.92733
1419.17802	0.92768
1417.12421	0.92782
1415.07041	0.92812
1413.01661	0.92906
1410.96280	0.93069
1408.90900	0.93253
1406.85520	0.93387
1404.80139	0.93456
1402.74759	0.93477
1400.69379	0.93473
1398.63999	0.93462
1396.58618	0.93409
1394.53238	0.93315
1392.47858	0.93229
1390.42477	0.93138
1388.37097	0.93037
1386.31717	0.92949
1384.26336	0.92872
1382.20956	0.92774
1380.15576	0.92654
1378.10195	0.92535
1376.04815	0.92438
1373.99435	0.92386
1371.94054	0.92392
1369.88674	0.92411
1367.83294	0.92398
1365.77913	0.92386
1363.72533	0.92418
1361.67153	0.92463
1359.61772	0.92487
1357.56392	0.92521
1355.51012	0.92560
1353.45631	0.92585
1351.40251	0.92598
1349.34871	0.92609
1347.29491	0.92639
1345.24110	0.92674
1343.18730	0.92692
1341.13350	0.92705
1339.07969	0.92717
1337.02589	0.92707
1334.97209	0.92694
1332.91828	0.92685
1330.86448	0.92657
1328.81068	0.92621
1326.75687	0.92594
1324.70307	0.92561
1322.64927	0.92542
1320.59546	0.92517
1318.54166	0.92440
1316.48786	0.92365
1314.43405	0.92336
1312.38025	0.92327
1310.32645	0.92302
1308.27264	0.92250
1306.21884	0.92193
1304.16504	0.92143
1302.11123	0.92089
1300.05743	0.92049
1298.00363	0.92045
1295.94982	0.92055
1293.89602	0.92038
1291.84222	0.91985
1289.78842	0.91917
1287.73461	0.91840
1285.68081	0.91726
1283.62701	0.91577
1281.57320	0.91432
1279.51940	0.91312
1277.46560	0.91193
1275.41179	0.91038
1273.35799	0.90874
1271.30419	0.90755
1269.25038	0.90672
1267.19658	0.90601
1265.14278	0.90543
1263.08897	0.90487
1261.03517	0.90408
1258.98137	0.90302
1256.92756	0.90190
1254.87376	0.90094
1252.81996	0.90009
1250.76615	0.89921
1248.71235	0.89857
1246.65855	0.89845
1244.60474	0.89835
1242.55094	0.89794
1240.49714	0.89784
1238.44334	0.89820
1236.38953	0.89848
1234.33573	0.89862
1232.28193	0.89889
1230.22812	0.89929
1228.17432	0.89979
1226.12052	0.90017
1224.06671	0.89998
1222.01291	0.89953
1219.95911	0.89950
1217.90530	0.89978
1215.85150	0.89977
1213.79770	0.89937
1211.74389	0.89866
1209.69009	0.89767
1207.63629	0.89649
1205.58248	0.89525
1203.52868	0.89398
1201.47488	0.89254
1199.42107	0.89094
1197.36727	0.88917
1195.31347	0.88732
1193.25966	0.88539
1191.20586	0.88320
1189.15206	0.88068
1187.09825	0.87807
1185.04445	0.87566
1182.99065	0.87317
1180.93685	0.87040
1178.88304	0.86759
1176.82924	0.86480
1174.77544	0.86184
1172.72163	0.85877
1170.66783	0.85604
1168.61403	0.85404
1166.56022	0.85264
1164.50642	0.85182
1162.45262	0.85196
1160.39881	0.85286
1158.34501	0.85409
1156.29121	0.85547
1154.23740	0.85699
1152.18360	0.85858
1150.12980	0.85983
1148.07599	0.86065
1146.02219	0.86153
1143.96839	0.86278
1141.91458	0.86425
1139.86078	0.86588
1137.80698	0.86751
1135.75317	0.86879
1133.69937	0.86953
1131.64557	0.86992
1129.59176	0.86994
1127.53796	0.86942
1125.48416	0.86858
1123.43036	0.86733
1121.37655	0.86516
1119.32275	0.86228
1117.26895	0.85929
1115.21514	0.85624
1113.16134	0.85298
1111.10754	0.84962
1109.05373	0.84699
1106.99993	0.84536
1104.94613	0.84398
1102.89232	0.84288
1100.83852	0.84276
1098.78472	0.84342
1096.73091	0.84438
1094.67711	0.84580
1092.62331	0.84742
1090.56950	0.84861
1088.51570	0.84916
1086.46190	0.84923
1084.40809	0.84919
1082.35429	0.84931
1080.30049	0.84942
1078.24668	0.84922
1076.19288	0.84866
1074.13908	0.84792
1072.08528	0.84709
1070.03147	0.84606
1067.97767	0.84499
1065.92387	0.84401
1063.87006	0.84294
1061.81626	0.84164
1059.76246	0.84046
1057.70865	0.83980
1055.65485	0.83919
1053.60105	0.83786
1051.54724	0.83593
1049.49344	0.83375
1047.43964	0.83140
1045.38583	0.82913
1043.33203	0.82696
1041.27823	0.82471
1039.22442	0.82246
1037.17062	0.82010
1035.11682	0.81756
1033.06301	0.81539
1031.00921	0.81403
1028.95541	0.81344
1026.90160	0.81316
1024.84780	0.81276
1022.79400	0.81224
1020.74019	0.81165
1018.68639	0.81120
1016.63259	0.81081
1014.57879	0.81041
1012.52498	0.81013
1010.47118	0.80979
1008.41738	0.80946
1006.36357	0.80961
1004.30977	0.81022
1002.25597	0.81121
1000.20216	0.81251
998.14836	0.81414
996.09456	0.81602
994.04075	0.81763
991.98695	0.81891
989.93315	0.82063
987.87934	0.82326
985.82554	0.82627
983.77174	0.82903
981.71793	0.83179
979.66413	0.83490
977.61033	0.83813
975.55652	0.84151
973.50272	0.84508
971.44892	0.84840
969.39511	0.85118
967.34131	0.85367
965.28751	0.85631
963.23371	0.85908
961.17990	0.86189
959.12610	0.86470
957.07230	0.86723
955.01849	0.86935
952.96469	0.87112
950.91089	0.87294
948.85708	0.87517
946.80328	0.87759
944.74948	0.87963
942.69567	0.88126
940.64187	0.88274
938.58807	0.88420
936.53426	0.88580
934.48046	0.88723
932.42666	0.88859
930.37285	0.89037
928.31905	0.89168
926.26525	0.89226
924.21144	0.89296
922.15764	0.89376
920.10384	0.89419
918.05003	0.89417
915.99623	0.89420
913.94243	0.89461
911.88862	0.89552
909.83482	0.89677
907.78102	0.89809
905.72722	0.89972
903.67341	0.90144
901.61961	0.90273
899.56581	0.90383
897.51200	0.90507
895.45820	0.90640
893.40440	0.90765
891.35059	0.90895
889.29679	0.91007
887.24299	0.91052
885.18918	0.91066
883.13538	0.91125
881.08158	0.91209
879.02777	0.91249
876.97397	0.91256
874.92017	0.91291
872.86636	0.91373
870.81256	0.91485
868.75876	0.91609
866.70495	0.91703
864.65115	0.91741
862.59735	0.91770
860.54354	0.91823
858.48974	0.91887
856.43594	0.91946
854.38213	0.92010
852.32833	0.92062
850.27453	0.92109
848.22073	0.92170
846.16692	0.92156
844.11312	0.92033
842.05932	0.91871
840.00551	0.91707
837.95171	0.91528
835.89791	0.91362
833.84410	0.91234
831.79030	0.91116
829.73650	0.91066
827.68269	0.91122
825.62889	0.91177
823.57509	0.91242
821.52128	0.91384
819.46748	0.91494
817.41368	0.91519
815.35987	0.91524
813.30607	0.91497
811.25227	0.91420
809.19846	0.91377
807.14466	0.91357
805.09086	0.91294
803.03705	0.91245
800.98325	0.91202
798.92945	0.91178
796.87565	0.91210
794.82184	0.91243
792.76804	0.91291
790.71424	0.91322
788.66043	0.91270
786.60663	0.91174
784.55283	0.91078
782.49902	0.91022
780.44522	0.91023
778.39142	0.91024
776.33761	0.90990
774.28381	0.90978
772.23001	0.91012
770.17620	0.91035
768.12240	0.90984
766.06860	0.90861
764.01479	0.90742
761.96099	0.90685
759.90719	0.90648
757.85338	0.90559
755.79958	0.90440
753.74578	0.90384
751.69197	0.90406
749.63817	0.90414
747.58437	0.90358
745.53056	0.90288
743.47676	0.90199
741.42296	0.90102
739.36916	0.90045
737.31535	0.89979
735.26155	0.89860
733.20775	0.89679
731.15394	0.89403
729.10014	0.89096
727.04634	0.88838
724.99253	0.88605
722.93873	0.88428
720.88493	0.88427
718.83112	0.88580
716.77732	0.88797
714.72352	0.89068
712.66971	0.89302
710.61591	0.89417
708.56211	0.89466
706.50830	0.89455
704.45450	0.89369
702.40070	0.89289
700.34689	0.89191
698.29309	0.89058
696.23929	0.88977
694.18548	0.88974
692.13168	0.89062
690.07788	0.89163
688.02408	0.89182
685.97027	0.89140
683.91647	0.89060
681.86267	0.88943
679.80886	0.88830
677.75506	0.88759
675.70126	0.88668
673.64745	0.88499
671.59365	0.88323
669.53985	0.88189
667.48604	0.88144
665.43224	0.88239
663.37844	0.88324
661.32463	0.88309
659.27083	0.88214
657.21703	0.88098
655.16322	0.87994
653.10942	0.87867
651.05562	0.87702
649.00181	0.87591
646.94801	0.87568
644.89421	0.87581
642.84040	0.87623
640.78660	0.87662
638.73280	0.87599
636.67899	0.87490
634.62519	0.87441
632.57139	0.87403
630.51759	0.87397
628.46378	0.87404
626.40998	0.87293
624.35618	0.87133
622.30237	0.87027
620.24857	0.86990
618.19477	0.86993
616.14096	0.86882
614.08716	0.86680
612.03336	0.86530
609.97955	0.86439
607.92575	0.86412
605.87195	0.86390
603.81814	0.86288
601.76434	0.86146
599.71054	0.86006
597.65673	0.85811
595.60293	0.85571
593.54913	0.85445
591.49532	0.85475
589.44152	0.85402
587.38772	0.85125
585.33391	0.84876
583.28011	0.84759
581.22631	0.84799
579.17250	0.84969
577.11870	0.85012
575.06490	0.84907
573.01110	0.84781
570.95729	0.84704
568.90349	0.84757
566.84969	0.84736
564.79588	0.84484
562.74208	0.84180
560.68828	0.84044
558.63447	0.84067
556.58067	0.84010
554.52687	0.83829
552.47306	0.83727
550.41926	0.83660
548.36546	0.83389
546.31165	0.83005
544.25785	0.82721
542.20405	0.82556
540.15024	0.82528
538.09644	0.82490
536.04264	0.82319
533.98883	0.82197
531.93503	0.82149
529.88123	0.82093
527.82742	0.82018
525.77362	0.81936
523.71982	0.81856
521.66602	0.81720
519.61221	0.81682
517.55841	0.81885
515.50461	0.82104
513.45080	0.82199
511.39700	0.82290
509.34320	0.82315
507.28939	0.82151
505.23559	0.82087
503.18179	0.82334
501.12798	0.82507
499.07418	0.82371
497.02038	0.82272
494.96657	0.82322
492.91277	0.82299
490.85897	0.82054
488.80516	0.81752
486.75136	0.81627
484.69756	0.81530
482.64375	0.81305
480.58995	0.80950
478.53615	0.80486
476.48234	0.80063
474.42854	0.79717
472.37474	0.79442
470.32093	0.79327
468.26713	0.79211
466.21333	0.79021
464.15953	0.78892
462.10572	0.78832
460.05192	0.78900
457.99812	0.79166
455.94431	0.79329
453.89051	0.79296
451.83671	0.79446
449.78290	0.79853
447.72910	0.80277
445.67530	0.80513
443.62149	0.80515
441.56769	0.80320
439.51389	0.79999
437.46008	0.79719
435.40628	0.79536
433.35248	0.79533
431.29867	0.79603
429.24487	0.79425
427.19107	0.79053
425.13726	0.78747
423.08346	0.78717
421.02966	0.79241
418.97585	0.80352
416.92205	0.80868
414.86825	0.80467
412.81445	0.80204
410.76064	0.80474
408.70684	0.80547
406.65304	0.80290
404.59923	0.80355
402.54543	0.80730
400.49163	0.80641
398.43782	0.80016
