3996.70104	0.97537
3994.64724	0.97518
3992.59344	0.97544
3990.53964	0.97565
3988.48583	0.97548
3986.43203	0.97542
3984.37823	0.97578
3982.32442	0.97608
3980.27062	0.97583
3978.21682	0.97536
3976.16301	0.97532
3974.10921	0.97585
3972.05541	0.97638
3970.00160	0.97650
3967.94780	0.97640
3965.89400	0.97618
3963.84019	0.97582
3961.78639	0.97568
3959.73259	0.97596
3957.67878	0.97653
3955.62498	0.97717
3953.57118	0.97756
3951.51737	0.97759
3949.46357	0.97728
3947.40977	0.97715
3945.35596	0.97739
3943.30216	0.97695
3941.24836	0.97572
3939.19455	0.97492
3937.14075	0.97499
3935.08695	0.97557
3933.03315	0.97624
3930.97934	0.97678
3928.92554	0.97711
3926.87174	0.97707
3924.81793	0.97649
3922.76413	0.97593
3920.71033	0.97611
3918.65652	0.97656
3916.60272	0.97632
3914.54892	0.97576
3912.49511	0.97587
3910.44131	0.97618
3908.38751	0.97619
3906.33370	0.97635
3904.27990	0.97676
3902.22610	0.97661
3900.17229	0.97568
3898.11849	0.97515
3896.06469	0.97533
3894.01088	0.97548
3891.95708	0.97594
3889.90328	0.97652
3887.84947	0.97622
3885.79567	0.97555
3883.74187	0.97550
3881.68807	0.97617
3879.63426	0.97693
3877.58046	0.97731
3875.52666	0.97752
3873.47285	0.97749
3871.41905	0.97715
3869.36525	0.97699
3867.31144	0.97699
3865.25764	0.97687
3863.20384	0.97687
3861.15003	0.97710
3859.09623	0.97728
3857.04243	0.97724
3854.98862	0.97715
3852.93482	0.97693
3850.88102	0.97682
3848.82721	0.97702
3846.77341	0.97691
3844.71961	0.97635
3842.66580	0.97588
3840.61200	0.97592
3838.55820	0.97636
3836.50439	0.97664
3834.45059	0.97618
3832.39679	0.97545
3830.34298	0.97507
3828.28918	0.97515
3826.23538	0.97582
3824.18158	0.97702
3822.12777	0.97794
3820.07397	0.97797
3818.02017	0.97771
3815.96636	0.97738
3813.91256	0.97686
3811.85876	0.97675
3809.80495	0.97706
3807.75115	0.97688
3805.69735	0.97593
3803.64354	0.97539
3801.58974	0.97539
3799.53594	0.97559
3797.48213	0.97606
3795.42833	0.97640
3793.37453	0.97646
3791.32072	0.97682
3789.26692	0.97733
3787.21312	0.97761
3785.15931	0.97745
3783.10551	0.97658
3781.05171	0.97581
3778.99790	0.97630
3776.94410	0.97712
3774.89030	0.97690
3772.83650	0.97633
3770.78269	0.97605
3768.72889	0.97614
3766.67509	0.97644
3764.62128	0.97648
3762.56748	0.97648
3760.51368	0.97683
3758.45987	0.97710
3756.40607	0.97700
3754.35227	0.97704
3752.29846	0.97716
3750.24466	0.97665
3748.19086	0.97596
3746.13705	0.97585
3744.08325	0.97717
3742.02945	0.97867
3739.97564	0.97831
3737.92184	0.97712
3735.86804	0.97654
3733.81423	0.97604
3731.76043	0.97513
3729.70663	0.97470
3727.65282	0.97474
3725.59902	0.97503
3723.54522	0.97510
3721.49141	0.97441
3719.43761	0.97295
3717.38381	0.97107
3715.33001	0.96915
3713.27620	0.96686
3711.22240	0.96338
3709.16860	0.95921
3707.11479	0.95540
3705.06099	0.95188
3703.00719	0.94798
3700.95338	0.94388
3698.89958	0.94115
3696.84578	0.94036
3694.79197	0.94151
3692.73817	0.94410
3690.68437	0.94714
3688.63056	0.94952
3686.57676	0.95105
3684.52296	0.95234
3682.46915	0.95315
3680.41535	0.95342
3678.36155	0.95305
3676.30774	0.95186
3674.25394	0.95104
3672.20014	0.95097
3670.14633	0.95068
3668.09253	0.95005
3666.03873	0.94941
3663.98492	0.94877
3661.93112	0.94803
3659.87732	0.94718
3657.82352	0.94637
3655.76971	0.94548
3653.71591	0.94463
3651.66211	0.94363
3649.60830	0.94184
3647.55450	0.94049
3645.50070	0.94036
3643.44689	0.94079
3641.39309	0.94143
3639.33929	0.94154
3637.28548	0.94050
3635.23168	0.93854
3633.17788	0.93671
3631.12407	0.93534
3629.07027	0.93383
3627.01647	0.93247
3624.96266	0.93163
3622.90886	0.93118
3620.85506	0.93109
3618.80125	0.93114
3616.74745	0.93187
3614.69365	0.93324
3612.63984	0.93463
3610.58604	0.93538
3608.53224	0.93532
3606.47844	0.93513
3604.42463	0.93493
3602.37083	0.93453
3600.31703	0.93442
3598.26322	0.93452
3596.20942	0.93440
3594.15562	0.93463
3592.10181	0.93472
3590.04801	0.93407
3587.99421	0.93314
3585.94040	0.93247
3583.88660	0.93218
3581.83280	0.93190
3579.77899	0.93124
3577.72519	0.93052
3575.67139	0.93028
3573.61758	0.93003
3571.56378	0.92922
3569.50998	0.92821
3567.45617	0.92713
3565.40237	0.92598
3563.34857	0.92503
3561.29476	0.92408
3559.24096	0.92331
3557.18716	0.92263
3555.13335	0.92172
3553.07955	0.92096
3551.02575	0.92024
3548.97195	0.91933
3546.91814	0.91878
3544.86434	0.91865
3542.81054	0.91846
3540.75673	0.91844
3538.70293	0.91843
3536.64913	0.91762
3534.59532	0.91686
3532.54152	0.91709
3530.48772	0.91797
3528.43391	0.91915
3526.38011	0.91984
3524.32631	0.92001
3522.27250	0.92031
3520.21870	0.92049
3518.16490	0.92044
3516.11109	0.92039
3514.05729	0.92009
3512.00349	0.91974
3509.94968	0.92001
3507.89588	0.92088
3505.84208	0.92189
3503.78827	0.92258
3501.73447	0.92233
3499.68067	0.92163
3497.62687	0.92121
3495.57306	0.92064
3493.51926	0.91969
3491.46546	0.91911
3489.41165	0.91942
3487.35785	0.92018
3485.30405	0.92056
3483.25024	0.92036
3481.19644	0.91976
3479.14264	0.91920
3477.08883	0.91912
3475.03503	0.91896
3472.98123	0.91828
3470.92742	0.91735
3468.87362	0.91677
3466.81982	0.91676
3464.76601	0.91657
3462.71221	0.91614
3460.65841	0.91609
3458.60460	0.91592
3456.55080	0.91552
3454.49700	0.91528
3452.44319	0.91474
3450.38939	0.91394
3448.33559	0.91359
3446.28178	0.91355
3444.22798	0.91328
3442.17418	0.91262
3440.12038	0.91181
3438.06657	0.91129
3436.01277	0.91100
3433.95897	0.91025
3431.90516	0.90902
3429.85136	0.90815
3427.79756	0.90784
3425.74375	0.90769
3423.68995	0.90733
3421.63615	0.90668
3419.58234	0.90586
3417.52854	0.90510
3415.47474	0.90459
3413.42093	0.90424
3411.36713	0.90393
3409.31333	0.90359
3407.25952	0.90314
3405.20572	0.90273
3403.15192	0.90254
3401.09811	0.90230
3399.04431	0.90183
3396.99051	0.90158
3394.93670	0.90178
3392.88290	0.90220
3390.82910	0.90284
3388.77529	0.90361
3386.72149	0.90420
3384.66769	0.90477
3382.61389	0.90519
3380.56008	0.90520
3378.50628	0.90513
3376.45248	0.90526
3374.39867	0.90560
3372.34487	0.90626
3370.29107	0.90672
3368.23726	0.90652
3366.18346	0.90640
3364.12966	0.90694
3362.07585	0.90750
3360.02205	0.90745
3357.96825	0.90706
3355.91444	0.90703
3353.86064	0.90762
3351.80684	0.90819
3349.75303	0.90840
3347.69923	0.90865
3345.64543	0.90887
3343.59162	0.90881
3341.53782	0.90885
3339.48402	0.90909
3337.43021	0.90907
3335.37641	0.90905
3333.32261	0.90950
3331.26881	0.91035
3329.21500	0.91107
3327.16120	0.91128
3325.10740	0.91143
3323.05359	0.91162
3320.99979	0.91161
3318.94599	0.91170
3316.89218	0.91182
3314.83838	0.91169
3312.78458	0.91179
3310.73077	0.91228
3308.67697	0.91222
3306.62317	0.91172
3304.56936	0.91189
3302.51556	0.91264
3300.46176	0.91324
3298.40795	0.91389
3296.35415	0.91465
3294.30035	0.91499
3292.24654	0.91497
3290.19274	0.91484
3288.13894	0.91511
3286.08513	0.91573
3284.03133	0.91600
3281.97753	0.91590
3279.92372	0.91559
3277.86992	0.91546
3275.81612	0.91602
3273.76232	0.91676
3271.70851	0.91687
3269.65471	0.91665
3267.60091	0.91669
3265.54710	0.91710
3263.49330	0.91787
3261.43950	0.91895
3259.38569	0.91985
3257.33189	0.92010
3255.27809	0.91982
3253.22428	0.91961
3251.17048	0.91984
3249.11668	0.92038
3247.06287	0.92104
3245.00907	0.92162
3242.95527	0.92185
3240.90146	0.92179
3238.84766	0.92205
3236.79386	0.92247
3234.74005	0.92239
3232.68625	0.92242
3230.63245	0.92316
3228.57864	0.92413
3226.52484	0.92494
3224.47104	0.92552
3222.41724	0.92580
3220.36343	0.92594
3218.30963	0.92627
3216.25583	0.92678
3214.20202	0.92742
3212.14822	0.92805
3210.09442	0.92852
3208.04061	0.92912
3205.98681	0.92962
3203.93301	0.92959
3201.87920	0.92973
3199.82540	0.93038
3197.77160	0.93085
3195.71779	0.93104
3193.66399	0.93136
3191.61019	0.93190
3189.55638	0.93265
3187.50258	0.93345
3185.44878	0.93390
3183.39497	0.93421
3181.34117	0.93486
3179.28737	0.93537
3177.23356	0.93550
3175.17976	0.93573
3173.12596	0.93631
3171.07215	0.93710
3169.01835	0.93781
3166.96455	0.93836
3164.91075	0.93879
3162.85694	0.93900
3160.80314	0.93918
3158.74934	0.93957
3156.69553	0.94011
3154.64173	0.94069
3152.58793	0.94115
3150.53412	0.94142
3148.48032	0.94193
3146.42652	0.94269
3144.37271	0.94310
3142.31891	0.94301
3140.26511	0.94310
3138.21130	0.94374
3136.15750	0.94424
3134.10370	0.94446
3132.04989	0.94492
3129.99609	0.94520
3127.94229	0.94522
3125.88848	0.94582
3123.83468	0.94655
3121.78088	0.94673
3119.72707	0.94684
3117.67327	0.94690
3115.61947	0.94660
3113.56566	0.94654
3111.51186	0.94703
3109.45806	0.94751
3107.40426	0.94778
3105.35045	0.94808
3103.29665	0.94840
3101.24285	0.94860
3099.18904	0.94876
3097.13524	0.94883
3095.08144	0.94878
3093.02763	0.94890
3090.97383	0.94925
3088.92003	0.94941
3086.86622	0.94962
3084.81242	0.95044
3082.75862	0.95107
3080.70481	0.95091
3078.65101	0.95079
3076.59721	0.95111
3074.54340	0.95157
3072.48960	0.95203
3070.43580	0.95234
3068.38199	0.95233
3066.32819	0.95217
3064.27439	0.95204
3062.22058	0.95202
3060.16678	0.95231
3058.11298	0.95277
3056.05918	0.95305
3054.00537	0.95309
3051.95157	0.95333
3049.89777	0.95389
3047.84396	0.95429
3045.79016	0.95435
3043.73636	0.95434
3041.68255	0.95458
3039.62875	0.95514
3037.57495	0.95567
3035.52114	0.95557
3033.46734	0.95512
3031.41354	0.95503
3029.35973	0.95522
3027.30593	0.95530
3025.25213	0.95540
3023.19832	0.95555
3021.14452	0.95553
3019.09072	0.95547
3017.03691	0.95560
3014.98311	0.95568
3012.92931	0.95574
3010.87550	0.95581
3008.82170	0.95582
3006.76790	0.95591
3004.71409	0.95584
3002.66029	0.95531
3000.60649	0.95471
2998.55269	0.95447
2996.49888	0.95461
2994.44508	0.95494
2992.39128	0.95500
2990.33747	0.95416
2988.28367	0.95282
2986.22987	0.95181
2984.17606	0.95104
2982.12226	0.95033
2980.06846	0.94936
2978.01465	0.94776
2975.96085	0.94575
2973.90705	0.94345
2971.85324	0.94068
2969.79944	0.93726
2967.74564	0.93329
2965.69183	0.92890
2963.63803	0.92435
2961.58423	0.92015
2959.53042	0.91660
2957.47662	0.91396
2955.42282	0.91195
2953.36901	0.90978
2951.31521	0.90747
2949.26141	0.90548
2947.20761	0.90327
2945.15380	0.89957
2943.10000	0.89312
2941.04620	0.88353
2938.99239	0.87128
2936.93859	0.85617
2934.88479	0.83743
2932.83098	0.81518
2930.77718	0.78958
2928.72338	0.75993
2926.66957	0.72520
2924.61577	0.68489
2922.56197	0.63923
2920.50816	0.59033
2918.45436	0.54479
2916.40056	0.51291
2914.34675	0.50419
2912.29295	0.52008
2910.23915	0.55137
2908.18534	0.58646
2906.13154	0.61869
2904.07774	0.64591
2902.02393	0.66819
2899.97013	0.68666
2897.91633	0.70273
2895.86252	0.71769
2893.80872	0.73246
2891.75492	0.74721
2889.70112	0.76191
2887.64731	0.77658
2885.59351	0.79108
2883.53971	0.80517
2881.48590	0.81871
2879.43210	0.83154
2877.37830	0.84375
2875.32449	0.85510
2873.27069	0.86440
2871.21689	0.87055
2869.16308	0.87333
2867.10928	0.87313
2865.05548	0.86985
2863.00167	0.86210
2860.94787	0.84729
2858.89407	0.82257
2856.84026	0.78470
2854.78646	0.73055
2852.73266	0.66260
2850.67885	0.59586
2848.62505	0.55560
2846.57125	0.55916
2844.51744	0.60017
2842.46364	0.65720
2840.40984	0.71224
2838.35603	0.75774
2836.30223	0.79368
2834.24843	0.82240
2832.19463	0.84559
2830.14082	0.86397
2828.08702	0.87815
2826.03322	0.88908
2823.97941	0.89764
2821.92561	0.90476
2819.87181	0.91102
2817.81800	0.91636
2815.76420	0.92072
2813.71040	0.92449
2811.65659	0.92777
2809.60279	0.93035
2807.54899	0.93258
2805.49518	0.93492
2803.44138	0.93731
2801.38758	0.93949
2799.33377	0.94129
2797.27997	0.94279
2795.22617	0.94418
2793.17236	0.94539
2791.11856	0.94658
2789.06476	0.94800
2787.01095	0.94932
2784.95715	0.95032
2782.90335	0.95145
2780.84955	0.95278
2778.79574	0.95388
2776.74194	0.95465
2774.68814	0.95524
2772.63433	0.95591
2770.58053	0.95650
2768.52673	0.95695
2766.47292	0.95767
2764.41912	0.95848
2762.36532	0.95894
2760.31151	0.95912
2758.25771	0.95938
2756.20391	0.95998
2754.15010	0.96073
2752.09630	0.96128
2750.04250	0.96138
2747.98869	0.96099
2745.93489	0.96075
2743.88109	0.96095
2741.82728	0.96106
2739.77348	0.96107
2737.71968	0.96123
2735.66587	0.96155
2733.61207	0.96187
2731.55827	0.96211
2729.50446	0.96250
2727.45066	0.96280
2725.39686	0.96270
2723.34306	0.96270
2721.28925	0.96305
2719.23545	0.96346
2717.18165	0.96396
2715.12784	0.96450
2713.07404	0.96483
2711.02024	0.96499
2708.96643	0.96508
2706.91263	0.96520
2704.85883	0.96547
2702.80502	0.96559
2700.75122	0.96545
2698.69742	0.96548
2696.64361	0.96577
2694.58981	0.96605
2692.53601	0.96609
2690.48220	0.96601
2688.42840	0.96614
2686.37460	0.96646
2684.32079	0.96673
2682.26699	0.96673
2680.21319	0.96659
2678.15938	0.96651
2676.10558	0.96625
2674.05178	0.96602
2671.99797	0.96609
2669.94417	0.96607
2667.89037	0.96592
2665.83657	0.96597
2663.78276	0.96597
2661.72896	0.96578
2659.67516	0.96577
2657.62135	0.96604
2655.56755	0.96618
2653.51375	0.96588
2651.45994	0.96553
2649.40614	0.96573
2647.35234	0.96615
2645.29853	0.96645
2643.24473	0.96674
2641.19093	0.96669
2639.13712	0.96612
2637.08332	0.96552
2635.02952	0.96547
2632.97571	0.96612
2630.92191	0.96697
2628.86811	0.96758
2626.81430	0.96793
2624.76050	0.96816
2622.70670	0.96855
2620.65289	0.96910
2618.59909	0.96952
2616.54529	0.96975
2614.49149	0.97012
2612.43768	0.97051
2610.38388	0.97057
2608.33008	0.97053
2606.27627	0.97052
2604.22247	0.97054
2602.16867	0.97081
2600.11486	0.97125
2598.06106	0.97175
2596.00726	0.97240
2593.95345	0.97276
2591.89965	0.97260
2589.84585	0.97269
2587.79204	0.97333
2585.73824	0.97376
2583.68444	0.97363
2581.63063	0.97365
2579.57683	0.97383
2577.52303	0.97363
2575.46922	0.97318
2573.41542	0.97289
2571.36162	0.97305
2569.30781	0.97347
2567.25401	0.97394
2565.20021	0.97453
2563.14640	0.97468
2561.09260	0.97425
2559.03880	0.97394
2556.98500	0.97382
2554.93119	0.97397
2552.87739	0.97422
2550.82359	0.97407
2548.76978	0.97397
2546.71598	0.97430
2544.66218	0.97479
2542.60837	0.97545
2540.55457	0.97630
2538.50077	0.97677
2536.44696	0.97668
2534.39316	0.97658
2532.33936	0.97667
2530.28555	0.97661
2528.23175	0.97606
2526.17795	0.97547
2524.12414	0.97561
2522.07034	0.97607
2520.01654	0.97611
2517.96273	0.97597
2515.90893	0.97603
2513.85513	0.97602
2511.80132	0.97616
2509.74752	0.97663
2507.69372	0.97690
2505.63992	0.97683
2503.58611	0.97674
2501.53231	0.97708
2499.47851	0.97754
2497.42470	0.97758
2495.37090	0.97733
2493.31710	0.97692
2491.26329	0.97667
2489.20949	0.97700
2487.15569	0.97763
2485.10188	0.97786
2483.04808	0.97743
2480.99428	0.97703
2478.94047	0.97717
2476.88667	0.97739
2474.83287	0.97781
2472.77906	0.97870
2470.72526	0.97925
2468.67146	0.97916
2466.61765	0.97878
2464.56385	0.97824
2462.51005	0.97779
2460.45624	0.97768
2458.40244	0.97777
2456.34864	0.97798
2454.29483	0.97808
2452.24103	0.97757
2450.18723	0.97670
2448.13343	0.97664
2446.07962	0.97740
2444.02582	0.97799
2441.97202	0.97824
2439.91821	0.97822
2437.86441	0.97804
2435.81061	0.97807
2433.75680	0.97840
2431.70300	0.97863
2429.64920	0.97833
2427.59539	0.97783
2425.54159	0.97779
2423.48779	0.97813
2421.43398	0.97819
2419.38018	0.97799
2417.32638	0.97814
2415.27257	0.97849
2413.21877	0.97847
2411.16497	0.97826
2409.11116	0.97856
2407.05736	0.97925
2405.00356	0.97940
2402.94975	0.97893
2400.89595	0.97832
2398.84215	0.97775
2396.78834	0.97736
2394.73454	0.97748
2392.68074	0.97815
2390.62694	0.97878
2388.57313	0.97858
2386.51933	0.97788
2384.46553	0.97789
2382.41172	0.97864
2380.35792	0.97919
2378.30412	0.97936
2376.25031	0.97929
2374.19651	0.97857
2372.14271	0.97767
2370.08890	0.97771
2368.03510	0.97845
2365.98130	0.97863
2363.92749	0.97744
2361.87369	0.97617
2359.81989	0.97649
2357.76608	0.97746
2355.71228	0.97725
2353.65848	0.97667
2351.60467	0.97714
2349.55087	0.97755
2347.49707	0.97744
2345.44326	0.97743
2343.38946	0.97703
2341.33566	0.97612
2339.28186	0.97577
2337.22805	0.97589
2335.17425	0.97618
2333.12045	0.97691
2331.06664	0.97743
2329.01284	0.97707
2326.95904	0.97590
2324.90523	0.97464
2322.85143	0.97450
2320.79763	0.97505
2318.74382	0.97531
2316.69002	0.97567
2314.63622	0.97617
2312.58241	0.97638
2310.52861	0.97620
2308.47481	0.97585
2306.42100	0.97592
2304.36720	0.97657
2302.31340	0.97734
2300.25959	0.97769
2298.20579	0.97754
2296.15199	0.97761
2294.09818	0.97809
2292.04438	0.97809
2289.99058	0.97740
2287.93677	0.97702
2285.88297	0.97739
2283.82917	0.97754
2281.77537	0.97726
2279.72156	0.97759
2277.66776	0.97868
2275.61396	0.97932
2273.56015	0.97872
2271.50635	0.97831
2269.45255	0.97913
2267.39874	0.97951
2265.34494	0.97851
2263.29114	0.97831
2261.23733	0.97999
2259.18353	0.98105
2257.12973	0.98065
2255.07592	0.98022
2253.02212	0.97989
2250.96832	0.97963
2248.91451	0.97988
2246.86071	0.98064
2244.80691	0.98157
2242.75310	0.98179
2240.69930	0.98015
2238.64550	0.97790
2236.59169	0.97768
2234.53789	0.97844
2232.48409	0.97826
2230.43029	0.97811
2228.37648	0.97846
2226.32268	0.97880
2224.26888	0.97945
2222.21507	0.98076
2220.16127	0.98196
2218.10747	0.98213
2216.05366	0.98147
2213.99986	0.98090
2211.94606	0.98078
2209.89225	0.98057
2207.83845	0.98058
2205.78465	0.98051
2203.73084	0.97966
2201.67704	0.98033
2199.62324	0.98259
2197.56943	0.98233
2195.51563	0.97982
2193.46183	0.97945
2191.40802	0.98043
2189.35422	0.97988
2187.30042	0.97910
2185.24661	0.97975
2183.19281	0.98133
2181.13901	0.98215
2179.08520	0.98209
2177.03140	0.98328
2174.97760	0.98521
2172.92380	0.98515
2170.86999	0.98369
2168.81619	0.98359
2166.76239	0.98443
2164.70858	0.98372
2162.65478	0.98304
2160.60098	0.98700
2158.54717	0.99261
2156.49337	0.99241
2154.43957	0.98776
2152.38576	0.98344
2150.33196	0.98132
2148.27816	0.98094
2146.22435	0.98125
2144.17055	0.98187
2142.11675	0.98325
2140.06294	0.98498
2138.00914	0.98574
2135.95534	0.98623
2133.90153	0.98710
2131.84773	0.98647
2129.79393	0.98366
2127.74012	0.98132
2125.68632	0.98053
2123.63252	0.98020
2121.57871	0.98041
2119.52491	0.98103
2117.47111	0.98148
2115.41731	0.98171
2113.36350	0.98210
2111.30970	0.98295
2109.25590	0.98355
2107.20209	0.98359
2105.14829	0.98320
2103.09449	0.98250
2101.04068	0.98216
2098.98688	0.98240
2096.93308	0.98235
2094.87927	0.98154
2092.82547	0.98134
2090.77167	0.98223
2088.71786	0.98267
2086.66406	0.98323
2084.61026	0.98438
2082.55645	0.98349
2080.50265	0.98146
2078.44885	0.98196
2076.39504	0.98327
2074.34124	0.98266
2072.28744	0.98212
2070.23363	0.98264
2068.17983	0.98324
2066.12603	0.98391
2064.07223	0.98417
2062.01842	0.98348
2059.96462	0.98226
2057.91082	0.98147
2055.85701	0.98141
2053.80321	0.98110
2051.74941	0.97969
2049.69560	0.97767
2047.64180	0.97722
2045.58800	0.97844
2043.53419	0.97925
2041.48039	0.97989
2039.42659	0.98151
2037.37278	0.98304
2035.31898	0.98305
2033.26518	0.98281
2031.21137	0.98328
2029.15757	0.98405
2027.10377	0.98487
2025.04996	0.98399
2022.99616	0.98139
2020.94236	0.97999
2018.88855	0.98088
2016.83475	0.98226
2014.78095	0.98267
2012.72714	0.98258
2010.67334	0.98324
2008.61954	0.98490
2006.56574	0.98698
2004.51193	0.98886
2002.45813	0.98785
2000.40433	0.98432
1998.35052	0.98238
1996.29672	0.98215
1994.24292	0.98244
1992.18911	0.98374
1990.13531	0.98513
1988.08151	0.98478
1986.02770	0.98378
1983.97390	0.98476
1981.92010	0.98608
1979.86629	0.98551
1977.81249	0.98508
1975.75869	0.98660
1973.70488	0.98755
1971.65108	0.98557
1969.59728	0.98301
1967.54347	0.98150
1965.48967	0.98101
1963.43587	0.98228
1961.38206	0.98323
1959.32826	0.98265
1957.27446	0.98280
1955.22066	0.98382
1953.16685	0.98386
1951.11305	0.98275
1949.05925	0.98180
1947.00544	0.98184
1944.95164	0.98324
1942.89784	0.98433
1940.84403	0.98307
1938.79023	0.98165
1936.73643	0.98123
1934.68262	0.98133
1932.62882	0.98228
1930.57502	0.98275
1928.52121	0.98262
1926.46741	0.98312
1924.41361	0.98371
1922.35980	0.98379
1920.30600	0.98341
1918.25220	0.98291
1916.19839	0.98290
1914.14459	0.98290
1912.09079	0.98247
1910.03698	0.98209
1907.98318	0.98168
1905.92938	0.98087
1903.87557	0.98032
1901.82177	0.98070
1899.76797	0.98141
1897.71417	0.98169
1895.66036	0.98168
1893.60656	0.98147
1891.55276	0.98088
1889.49895	0.98064
1887.44515	0.98061
1885.39135	0.97997
1883.33754	0.97984
1881.28374	0.98074
1879.22994	0.98175
1877.17613	0.98221
1875.12233	0.98216
1873.06853	0.98190
1871.01472	0.98134
1868.96092	0.98073
1866.90712	0.98071
1864.85331	0.98083
1862.79951	0.98094
1860.74571	0.98113
1858.69190	0.98095
1856.63810	0.98086
1854.58430	0.98090
1852.53049	0.98077
1850.47669	0.98103
1848.42289	0.98146
1846.36908	0.98138
1844.31528	0.98072
1842.26148	0.98024
1840.20768	0.98044
1838.15387	0.98068
1836.10007	0.98042
1834.04627	0.97999
1831.99246	0.97984
1829.93866	0.97987
1827.88486	0.97996
1825.83105	0.98022
1823.77725	0.98056
1821.72345	0.98059
1819.66964	0.98028
1817.61584	0.98022
1815.56204	0.98054
1813.50823	0.98060
1811.45443	0.98013
1809.40063	0.97979
1807.34682	0.97996
1805.29302	0.97995
1803.23922	0.97983
1801.18541	0.98005
1799.13161	0.97986
1797.07781	0.97944
1795.02400	0.97970
1792.97020	0.98018
1790.91640	0.97998
1788.86260	0.97942
1786.80879	0.97893
1784.75499	0.97845
1782.70119	0.97810
1780.64738	0.97815
1778.59358	0.97822
1776.53978	0.97803
1774.48597	0.97773
1772.43217	0.97710
1770.37837	0.97638
1768.32456	0.97600
1766.27076	0.97575
1764.21696	0.97563
1762.16315	0.97538
1760.10935	0.97466
1758.05555	0.97382
1756.00174	0.97297
1753.94794	0.97223
1751.89414	0.97121
1749.84033	0.96925
1747.78653	0.96671
1745.73273	0.96404
1743.67892	0.96120
1741.62512	0.95833
1739.57132	0.95559
1737.51751	0.95370
1735.46371	0.95290
1733.40991	0.95265
1731.35611	0.95294
1729.30230	0.95318
1727.24850	0.95306
1725.19470	0.95299
1723.14089	0.95327
1721.08709	0.95397
1719.03329	0.95484
1716.97948	0.95509
1714.92568	0.95478
1712.87188	0.95490
1710.81807	0.95535
1708.76427	0.95606
1706.71047	0.95667
1704.65666	0.95635
1702.60286	0.95520
1700.54906	0.95341
1698.49525	0.95195
1696.44145	0.95133
1694.38765	0.95028
1692.33384	0.94886
1690.28004	0.94685
1688.22624	0.94439
1686.17243	0.94223
1684.11863	0.93948
1682.06483	0.93711
1680.01103	0.93601
1677.95722	0.93489
1675.90342	0.93331
1673.84962	0.93164
1671.79581	0.93020
1669.74201	0.92833
1667.68821	0.92668
1665.63440	0.92579
1663.58060	0.92428
1661.52680	0.92193
1659.47299	0.92025
1657.41919	0.91936
1655.36539	0.91883
1653.31158	0.91802
1651.25778	0.91675
1649.20398	0.91594
1647.15017	0.91502
1645.09637	0.91417
1643.04257	0.91379
1640.98876	0.91346
1638.93496	0.91314
1636.88116	0.91293
1634.82735	0.91285
1632.77355	0.91309
1630.71975	0.91333
1628.66594	0.91301
1626.61214	0.91247
1624.55834	0.91211
1622.50454	0.91190
1620.45073	0.91258
1618.39693	0.91427
1616.34313	0.91671
1614.28932	0.91898
1612.23552	0.92071
1610.18172	0.92222
1608.12791	0.92354
1606.07411	0.92451
1604.02031	0.92518
1601.96650	0.92595
1599.91270	0.92698
1597.85890	0.92815
1595.80509	0.92913
1593.75129	0.92978
1591.69749	0.93031
1589.64368	0.93087
1587.58988	0.93160
1585.53608	0.93228
1583.48227	0.93248
1581.42847	0.93248
1579.37467	0.93263
1577.32086	0.93295
1575.26706	0.93366
1573.21326	0.93453
1571.15945	0.93562
1569.10565	0.93720
1567.05185	0.93845
1564.99805	0.93922
1562.94424	0.94002
1560.89044	0.94072
1558.83664	0.94038
1556.78283	0.94005
1554.72903	0.94043
1552.67523	0.94051
1550.62142	0.94049
1548.56762	0.94052
1546.51382	0.94035
1544.46001	0.94011
1542.40621	0.94025
1540.35241	0.94083
1538.29860	0.94235
1536.24480	0.94418
1534.19100	0.94602
1532.13719	0.94745
1530.08339	0.94819
1528.02959	0.94927
1525.97578	0.95076
1523.92198	0.95176
1521.86818	0.95244
1519.81437	0.95301
1517.76057	0.95318
1515.70677	0.95334
1513.65297	0.95359
1511.59916	0.95396
1509.54536	0.95463
1507.49156	0.95552
1505.43775	0.95593
1503.38395	0.95574
1501.33015	0.95546
1499.27634	0.95496
1497.22254	0.95441
1495.16874	0.95405
1493.11493	0.95393
1491.06113	0.95364
1489.00733	0.95224
1486.95352	0.94978
1484.89972	0.94716
1482.84592	0.94376
1480.79211	0.93780
1478.73831	0.92543
1476.68451	0.89556
1474.63070	0.83916
1472.57690	0.78224
1470.52310	0.77263
1468.46929	0.78827
1466.41549	0.79844
1464.36169	0.79760
1462.30788	0.80186
1460.25408	0.82158
1458.20028	0.85080
1456.14648	0.87505
1454.09267	0.88613
1452.03887	0.89340
1449.98507	0.89971
1447.93126	0.90512
1445.87746	0.90963
1443.82366	0.91291
1441.76985	0.91532
1439.71605	0.91711
1437.66225	0.91843
1435.60844	0.91987
1433.55464	0.92179
1431.50084	0.92421
1429.44703	0.92695
1427.39323	0.92930
1425.33943	0.93102
1423.28562	0.93213
1421.23182	0.93255
1419.17802	0.93289
1417.12421	0.93372
1415.07041	0.93458
1413.01661	0.93500
1410.96280	0.93524
1408.90900	0.93573
1406.85520	0.93653
1404.80139	0.93763
1402.74759	0.93871
1400.69379	0.93938
1398.63999	0.93977
1396.58618	0.94033
1394.53238	0.94066
1392.47858	0.94035
1390.42477	0.93994
1388.37097	0.93960
1386.31717	0.93866
1384.26336	0.93631
1382.20956	0.93177
1380.15576	0.92493
1378.10195	0.91850
1376.04815	0.91672
1373.99435	0.92094
1371.94054	0.92642
1369.88674	0.92947
1367.83294	0.93117
1365.77913	0.93283
1363.72533	0.93492
1361.67153	0.93696
1359.61772	0.93818
1357.56392	0.93911
1355.51012	0.94009
1353.45631	0.94101
1351.40251	0.94215
1349.34871	0.94342
1347.29491	0.94430
1345.24110	0.94470
1343.18730	0.94511
1341.13350	0.94553
1339.07969	0.94559
1337.02589	0.94565
1334.97209	0.94598
1332.91828	0.94633
1330.86448	0.94627
1328.81068	0.94569
1326.75687	0.94493
1324.70307	0.94437
1322.64927	0.94393
1320.59546	0.94334
1318.54166	0.94291
1316.48786	0.94294
1314.43405	0.94321
1312.38025	0.94345
1310.32645	0.94334
1308.27264	0.94277
1306.21884	0.94248
1304.16504	0.94278
1302.11123	0.94303
1300.05743	0.94287
1298.00363	0.94254
1295.94982	0.94237
1293.89602	0.94242
1291.84222	0.94230
1289.78842	0.94194
1287.73461	0.94159
1285.68081	0.94134
1283.62701	0.94110
1281.57320	0.94042
1279.51940	0.93922
1277.46560	0.93796
1275.41179	0.93691
1273.35799	0.93616
1271.30419	0.93555
1269.25038	0.93470
1267.19658	0.93339
1265.14278	0.93200
1263.08897	0.93092
1261.03517	0.93018
1258.98137	0.92989
1256.92756	0.93004
1254.87376	0.93033
1252.81996	0.93069
1250.76615	0.93103
1248.71235	0.93101
1246.65855	0.93064
1244.60474	0.93027
1242.55094	0.93012
1240.49714	0.93005
1238.44334	0.92983
1236.38953	0.92944
1234.33573	0.92909
1232.28193	0.92884
1230.22812	0.92845
1228.17432	0.92794
1226.12052	0.92759
1224.06671	0.92736
1222.01291	0.92696
1219.95911	0.92607
1217.90530	0.92475
1215.85150	0.92350
1213.79770	0.92230
1211.74389	0.92097
1209.69009	0.91963
1207.63629	0.91829
1205.58248	0.91682
1203.52868	0.91501
1201.47488	0.91288
1199.42107	0.91069
1197.36727	0.90842
1195.31347	0.90574
1193.25966	0.90262
1191.20586	0.89944
1189.15206	0.89629
1187.09825	0.89283
1185.04445	0.88913
1182.99065	0.88521
1180.93685	0.88058
1178.88304	0.87522
1176.82924	0.86983
1174.77544	0.86455
1172.72163	0.85914
1170.66783	0.85360
1168.61403	0.84795
1166.56022	0.84292
1164.50642	0.83916
1162.45262	0.83606
1160.39881	0.83321
1158.34501	0.83058
1156.29121	0.82800
1154.23740	0.82552
1152.18360	0.82313
1150.12980	0.82068
1148.07599	0.81819
1146.02219	0.81585
1143.96839	0.81383
1141.91458	0.81213
1139.86078	0.81046
1137.80698	0.80852
1135.75317	0.80610
1133.69937	0.80286
1131.64557	0.79865
1129.59176	0.79364
1127.53796	0.78808
1125.48416	0.78219
1123.43036	0.77577
1121.37655	0.76846
1119.32275	0.76084
1117.26895	0.75372
1115.21514	0.74736
1113.16134	0.74209
1111.10754	0.73782
1109.05373	0.73385
1106.99993	0.72980
1104.94613	0.72584
1102.89232	0.72227
1100.83852	0.71923
1098.78472	0.71679
1096.73091	0.71498
1094.67711	0.71372
1092.62331	0.71263
1090.56950	0.71145
1088.51570	0.71071
1086.46190	0.71042
1084.40809	0.70990
1082.35429	0.70893
1080.30049	0.70756
1078.24668	0.70624
1076.19288	0.70526
1074.13908	0.70404
1072.08528	0.70183
1070.03147	0.69859
1067.97767	0.69496
1065.92387	0.69086
1063.87006	0.68578
1061.81626	0.68038
1059.76246	0.67471
1057.70865	0.66778
1055.65485	0.65981
1053.60105	0.65169
1051.54724	0.64340
1049.49344	0.63461
1047.43964	0.62561
1045.38583	0.61696
1043.33203	0.60902
1041.27823	0.60164
1039.22442	0.59476
1037.17062	0.58853
1035.11682	0.58326
1033.06301	0.57970
1031.00921	0.57798
1028.95541	0.57748
1026.90160	0.57769
1024.84780	0.57862
1022.79400	0.57971
1020.74019	0.57991
1018.68639	0.57973
1016.63259	0.57993
1014.57879	0.58017
1012.52498	0.58057
1010.47118	0.58197
1008.41738	0.58442
1006.36357	0.58760
1004.30977	0.59192
1002.25597	0.59793
1000.20216	0.60543
998.14836	0.61391
996.09456	0.62368
994.04075	0.63487
991.98695	0.64649
989.93315	0.65797
987.87934	0.66920
985.82554	0.68013
983.77174	0.69134
981.71793	0.70259
979.66413	0.71296
977.61033	0.72271
975.55652	0.73237
973.50272	0.74155
971.44892	0.75056
969.39511	0.75995
967.34131	0.76900
965.28751	0.77704
963.23371	0.78407
961.17990	0.79030
959.12610	0.79612
957.07230	0.80145
955.01849	0.80595
952.96469	0.80970
950.91089	0.81275
948.85708	0.81546
946.80328	0.81828
944.74948	0.82108
942.69567	0.82345
940.64187	0.82517
938.58807	0.82674
936.53426	0.82866
934.48046	0.83051
932.42666	0.83165
930.37285	0.83230
928.31905	0.83311
926.26525	0.83356
924.21144	0.83273
922.15764	0.83087
920.10384	0.82865
918.05003	0.82617
915.99623	0.82354
913.94243	0.82148
911.88862	0.82081
909.83482	0.82254
907.78102	0.82759
905.72722	0.83516
903.67341	0.84307
901.61961	0.85008
899.56581	0.85603
897.51200	0.86095
895.45820	0.86551
893.40440	0.87012
891.35059	0.87417
889.29679	0.87752
887.24299	0.88015
885.18918	0.88184
883.13538	0.88311
881.08158	0.88387
879.02777	0.88394
876.97397	0.88442
874.92017	0.88594
872.86636	0.88824
870.81256	0.89079
868.75876	0.89278
866.70495	0.89445
864.65115	0.89655
862.59735	0.89885
860.54354	0.90092
858.48974	0.90278
856.43594	0.90433
854.38213	0.90590
852.32833	0.90756
850.27453	0.90857
848.22073	0.90891
846.16692	0.90864
844.11312	0.90774
842.05932	0.90718
840.00551	0.90756
837.95171	0.90785
835.89791	0.90734
833.84410	0.90691
831.79030	0.90683
829.73650	0.90614
827.68269	0.90462
825.62889	0.90331
823.57509	0.90268
821.52128	0.90205
819.46748	0.90096
817.41368	0.89972
815.35987	0.89831
813.30607	0.89649
811.25227	0.89429
809.19846	0.89151
807.14466	0.88819
805.09086	0.88460
803.03705	0.88070
800.98325	0.87714
798.92945	0.87513
796.87565	0.87498
794.82184	0.87571
792.76804	0.87660
790.71424	0.87773
788.66043	0.87856
786.60663	0.87820
784.55283	0.87679
782.49902	0.87535
780.44522	0.87476
778.39142	0.87481
776.33761	0.87520
774.28381	0.87612
772.23001	0.87671
770.17620	0.87603
768.12240	0.87439
766.06860	0.87235
764.01479	0.87002
761.96099	0.86767
759.90719	0.86596
757.85338	0.86462
755.79958	0.86310
753.74578	0.86179
751.69197	0.86102
749.63817	0.85996
747.58437	0.85824
745.53056	0.85709
743.47676	0.85678
741.42296	0.85626
739.36916	0.85513
737.31535	0.85205
735.26155	0.84128
733.20775	0.81672
731.15394	0.78863
729.10014	0.77863
727.04634	0.78436
724.99253	0.78286
722.93873	0.76055
720.88493	0.71933
718.83112	0.67993
716.77732	0.67004
714.72352	0.69602
712.66971	0.73804
710.61591	0.77134
708.56211	0.78838
706.50830	0.79480
704.45450	0.79651
702.40070	0.79562
700.34689	0.79367
698.29309	0.79202
696.23929	0.79077
694.18548	0.79032
692.13168	0.79087
690.07788	0.79161
688.02408	0.79278
685.97027	0.79460
683.91647	0.79490
681.86267	0.79319
679.80886	0.79191
677.75506	0.79200
675.70126	0.79187
673.64745	0.79069
671.59365	0.78930
669.53985	0.78925
667.48604	0.79212
665.43224	0.79496
663.37844	0.79715
661.32463	0.79962
659.27083	0.80136
657.21703	0.80190
655.16322	0.80222
653.10942	0.80267
651.05562	0.80196
649.00181	0.80075
646.94801	0.80066
644.89421	0.80077
642.84040	0.80069
640.78660	0.80121
638.73280	0.80211
636.67899	0.80314
634.62519	0.80391
632.57139	0.80396
630.51759	0.80380
628.46378	0.80356
626.40998	0.80276
624.35618	0.80159
622.30237	0.80048
620.24857	0.79966
618.19477	0.79834
616.14096	0.79576
614.08716	0.79312
612.03336	0.79032
609.97955	0.78659
607.92575	0.78309
605.87195	0.78034
603.81814	0.77804
601.76434	0.77725
599.71054	0.77808
597.65673	0.77841
595.60293	0.77772
593.54913	0.77647
591.49532	0.77433
589.44152	0.77173
587.38772	0.76908
585.33391	0.76725
583.28011	0.76696
581.22631	0.76639
579.17250	0.76456
577.11870	0.76273
575.06490	0.76126
573.01110	0.76006
570.95729	0.75856
568.90349	0.75550
566.84969	0.75081
564.79588	0.74557
562.74208	0.74142
560.68828	0.73924
558.63447	0.73812
556.58067	0.73660
554.52687	0.73314
552.47306	0.72837
550.41926	0.72414
548.36546	0.72049
546.31165	0.71672
544.25785	0.71160
542.20405	0.70410
540.15024	0.69532
538.09644	0.68886
536.04264	0.68610
533.98883	0.68466
531.93503	0.68405
529.88123	0.68551
527.82742	0.68912
525.77362	0.69405
523.71982	0.69766
521.66602	0.69995
519.61221	0.70348
517.55841	0.70728
515.50461	0.71027
513.45080	0.71417
511.39700	0.71876
509.34320	0.72338
507.28939	0.72800
505.23559	0.73104
503.18179	0.73305
501.12798	0.73523
499.07418	0.73503
497.02038	0.73369
494.96657	0.73411
492.91277	0.73430
490.85897	0.73311
488.80516	0.73112
486.75136	0.72601
484.69756	0.71776
482.64375	0.70965
480.58995	0.69987
478.53615	0.68578
476.48234	0.67103
474.42854	0.65870
472.37474	0.64824
470.32093	0.64102
468.26713	0.63697
466.21333	0.63493
464.15953	0.63574
462.10572	0.63985
460.05192	0.64734
457.99812	0.65755
455.94431	0.66596
453.89051	0.67108
451.83671	0.67576
449.78290	0.67911
447.72910	0.68144
445.67530	0.68401
443.62149	0.68636
441.56769	0.68911
439.51389	0.69154
437.46008	0.69095
435.40628	0.68700
433.35248	0.68432
431.29867	0.68283
429.24487	0.67928
427.19107	0.67674
425.13726	0.67762
423.08346	0.68189
421.02966	0.69178
418.97585	0.70438
416.92205	0.71019
414.86825	0.71392
412.81445	0.71769
410.76064	0.72326
408.70684	0.73377
406.65304	0.74156
404.59923	0.74250
402.54543	0.74367
400.49163	0.74695
398.43782	0.74439
