3996.71440	0.98884
3994.66059	0.98877
3992.60678	0.98855
3990.55297	0.98850
3988.49916	0.98873
3986.44535	0.98872
3984.39154	0.98845
3982.33773	0.98832
3980.28391	0.98838
3978.23010	0.98851
3976.17629	0.98869
3974.12248	0.98901
3972.06867	0.98931
3970.01486	0.98900
3967.96105	0.98839
3965.90724	0.98821
3963.85343	0.98833
3961.79962	0.98848
3959.74581	0.98859
3957.69200	0.98854
3955.63819	0.98856
3953.58438	0.98880
3951.53057	0.98880
3949.47676	0.98849
3947.42295	0.98839
3945.36914	0.98852
3943.31533	0.98847
3941.26152	0.98834
3939.20771	0.98854
3937.15390	0.98895
3935.10009	0.98910
3933.04628	0.98874
3930.99247	0.98821
3928.93866	0.98806
3926.88485	0.98830
3924.83104	0.98850
3922.77723	0.98853
3920.72342	0.98869
3918.66961	0.98887
3916.61580	0.98887
3914.56199	0.98878
3912.50818	0.98869
3910.45437	0.98863
3908.40056	0.98848
3906.34675	0.98837
3904.29294	0.98841
3902.23913	0.98841
3900.18532	0.98829
3898.13151	0.98838
3896.07770	0.98864
3894.02389	0.98863
3891.97008	0.98823
3889.91627	0.98795
3887.86246	0.98813
3885.80865	0.98847
3883.75484	0.98872
3881.70103	0.98863
3879.64722	0.98824
3877.59341	0.98816
3875.53960	0.98842
3873.48579	0.98839
3871.43198	0.98793
3869.37817	0.98793
3867.32436	0.98852
3865.27055	0.98876
3863.21674	0.98852
3861.16293	0.98832
3859.10912	0.98824
3857.05531	0.98831
3855.00150	0.98846
3852.94769	0.98840
3850.89388	0.98820
3848.84007	0.98802
3846.78626	0.98791
3844.73245	0.98780
3842.67864	0.98771
3840.62483	0.98765
3838.57102	0.98748
3836.51721	0.98763
3834.46340	0.98806
3832.40959	0.98816
3830.35578	0.98797
3828.30197	0.98774
3826.24816	0.98754
3824.19435	0.98748
3822.14054	0.98734
3820.08673	0.98743
3818.03292	0.98790
3815.97911	0.98800
3813.92530	0.98769
3811.87149	0.98738
3809.81768	0.98707
3807.76387	0.98692
3805.71006	0.98709
3803.65625	0.98731
3801.60244	0.98749
3799.54863	0.98772
3797.49482	0.98774
3795.44101	0.98753
3793.38720	0.98727
3791.33339	0.98692
3789.27958	0.98671
3787.22577	0.98687
3785.17196	0.98700
3783.11815	0.98694
3781.06434	0.98684
3779.01053	0.98658
3776.95672	0.98612
3774.90291	0.98606
3772.84910	0.98629
3770.79529	0.98601
3768.74148	0.98555
3766.68767	0.98562
3764.63386	0.98579
3762.58005	0.98552
3760.52624	0.98520
3758.47243	0.98542
3756.41862	0.98546
3754.36481	0.98492
3752.31100	0.98456
3750.25719	0.98499
3748.20338	0.98559
3746.14957	0.98564
3744.09576	0.98507
3742.04195	0.98444
3739.98814	0.98427
3737.93433	0.98426
3735.88052	0.98411
3733.82671	0.98375
3731.77290	0.98370
3729.71909	0.98397
3727.66528	0.98380
3725.61147	0.98316
3723.55766	0.98255
3721.50385	0.98207
3719.45004	0.98171
3717.39623	0.98141
3715.34242	0.98089
3713.28861	0.98019
3711.23480	0.97961
3709.18099	0.97889
3707.12718	0.97829
3705.07337	0.97814
3703.01956	0.97806
3700.96575	0.97742
3698.91194	0.97612
3696.85813	0.97476
3694.80432	0.97395
3692.75051	0.97346
3690.69670	0.97245
3688.64289	0.97084
3686.58907	0.96948
3684.53526	0.96867
3682.48145	0.96792
3680.42764	0.96689
3678.37383	0.96569
3676.32002	0.96447
3674.26621	0.96281
3672.21240	0.96117
3670.15859	0.95931
3668.10478	0.95678
3666.05097	0.95455
3663.99716	0.95271
3661.94335	0.95100
3659.88954	0.94933
3657.83573	0.94752
3655.78192	0.94509
3653.72811	0.94258
3651.67430	0.94050
3649.62049	0.93776
3647.56668	0.93451
3645.51287	0.93251
3643.45906	0.93111
3641.40525	0.92931
3639.35144	0.92697
3637.29763	0.92471
3635.24382	0.92274
3633.19001	0.92082
3631.13620	0.91929
3629.08239	0.91741
3627.02858	0.91468
3624.97477	0.91257
3622.92096	0.91094
3620.86715	0.90923
3618.81334	0.90703
3616.75953	0.90484
3614.70572	0.90320
3612.65191	0.90148
3610.59810	0.89948
3608.54429	0.89746
3606.49048	0.89551
3604.43667	0.89389
3602.38286	0.89249
3600.32905	0.89097
3598.27524	0.88917
3596.22143	0.88726
3594.16762	0.88533
3592.11381	0.88356
3590.06000	0.88212
3588.00619	0.88028
3585.95238	0.87788
3583.89857	0.87559
3581.84476	0.87331
3579.79095	0.87124
3577.73714	0.86957
3575.68333	0.86805
3573.62952	0.86640
3571.57571	0.86460
3569.52190	0.86273
3567.46809	0.86084
3565.41428	0.85905
3563.36047	0.85739
3561.30666	0.85567
3559.25285	0.85390
3557.19904	0.85200
3555.14523	0.85006
3553.09142	0.84813
3551.03761	0.84625
3548.98380	0.84453
3546.92999	0.84261
3544.87618	0.84067
3542.82237	0.83903
3540.76856	0.83727
3538.71475	0.83544
3536.66094	0.83389
3534.60713	0.83252
3532.55332	0.83109
3530.49951	0.82928
3528.44570	0.82746
3526.39189	0.82634
3524.33808	0.82529
3522.28427	0.82342
3520.23046	0.82119
3518.17665	0.81926
3516.12284	0.81763
3514.06903	0.81614
3512.01522	0.81481
3509.96141	0.81354
3507.90760	0.81212
3505.85379	0.81087
3503.79998	0.80979
3501.74617	0.80842
3499.69236	0.80680
3497.63855	0.80534
3495.58474	0.80403
3493.53093	0.80246
3491.47712	0.80065
3489.42331	0.79908
3487.36950	0.79767
3485.31569	0.79615
3483.26188	0.79460
3481.20807	0.79319
3479.15426	0.79198
3477.10045	0.79058
3475.04664	0.78883
3472.99283	0.78719
3470.93902	0.78598
3468.88521	0.78501
3466.83140	0.78403
3464.77759	0.78300
3462.72378	0.78176
3460.66997	0.78016
3458.61616	0.77857
3456.56235	0.77735
3454.50854	0.77617
3452.45473	0.77480
3450.40092	0.77358
3448.34711	0.77261
3446.29330	0.77157
3444.23949	0.77044
3442.18568	0.76933
3440.13187	0.76803
3438.07806	0.76652
3436.02425	0.76528
3433.97044	0.76445
3431.91663	0.76343
3429.86282	0.76222
3427.80901	0.76126
3425.75520	0.76040
3423.70139	0.75949
3421.64758	0.75868
3419.59377	0.75772
3417.53996	0.75647
3415.48615	0.75527
3413.43234	0.75423
3411.37853	0.75341
3409.32472	0.75282
3407.27091	0.75227
3405.21710	0.75167
3403.16329	0.75102
3401.10948	0.75031
3399.05567	0.74966
3397.00186	0.74921
3394.94805	0.74906
3392.89424	0.74912
3390.84042	0.74906
3388.78661	0.74876
3386.73280	0.74845
3384.67899	0.74823
3382.62518	0.74796
3380.57137	0.74767
3378.51756	0.74757
3376.46375	0.74770
3374.40994	0.74788
3372.35613	0.74801
3370.30232	0.74814
3368.24851	0.74811
3366.19470	0.74790
3364.14089	0.74786
3362.08708	0.74824
3360.03327	0.74879
3357.97946	0.74912
3355.92565	0.74920
3353.87184	0.74923
3351.81803	0.74931
3349.76422	0.74965
3347.71041	0.75023
3345.65660	0.75079
3343.60279	0.75112
3341.54898	0.75132
3339.49517	0.75173
3337.44136	0.75239
3335.38755	0.75289
3333.33374	0.75307
3331.27993	0.75321
3329.22612	0.75347
3327.17231	0.75380
3325.11850	0.75414
3323.06469	0.75460
3321.01088	0.75509
3318.95707	0.75543
3316.90326	0.75585
3314.84945	0.75638
3312.79564	0.75668
3310.74183	0.75680
3308.68802	0.75694
3306.63421	0.75726
3304.58040	0.75777
3302.52659	0.75832
3300.47278	0.75884
3298.41897	0.75919
3296.36516	0.75940
3294.31135	0.75976
3292.25754	0.76013
3290.20373	0.76031
3288.14992	0.76067
3286.09611	0.76135
3284.04230	0.76196
3281.98849	0.76236
3279.93468	0.76274
3277.88087	0.76309
3275.82706	0.76334
3273.77325	0.76365
3271.71944	0.76413
3269.66563	0.76463
3267.61182	0.76498
3265.55801	0.76510
3263.50420	0.76517
3261.45039	0.76550
3259.39658	0.76610
3257.34277	0.76668
3255.28896	0.76717
3253.23515	0.76761
3251.18134	0.76817
3249.12753	0.76885
3247.07372	0.76943
3245.01991	0.77010
3242.96610	0.77084
3240.91229	0.77148
3238.85848	0.77217
3236.80467	0.77267
3234.75086	0.77291
3232.69705	0.77333
3230.64324	0.77411
3228.58943	0.77513
3226.53562	0.77606
3224.48181	0.77682
3222.42800	0.77772
3220.37419	0.77867
3218.32038	0.77950
3216.26657	0.78028
3214.21276	0.78106
3212.15895	0.78188
3210.10514	0.78290
3208.05133	0.78399
3205.99752	0.78494
3203.94371	0.78600
3201.88990	0.78730
3199.83609	0.78875
3197.78228	0.79022
3195.72847	0.79142
3193.67466	0.79245
3191.62085	0.79360
3189.56704	0.79490
3187.51323	0.79627
3185.45942	0.79747
3183.40561	0.79844
3181.35180	0.79951
3179.29799	0.80092
3177.24418	0.80240
3175.19037	0.80381
3173.13656	0.80521
3171.08275	0.80643
3169.02894	0.80763
3166.97513	0.80911
3164.92132	0.81064
3162.86751	0.81198
3160.81370	0.81337
3158.75989	0.81492
3156.70608	0.81635
3154.65227	0.81771
3152.59846	0.81898
3150.54465	0.82002
3148.49084	0.82111
3146.43703	0.82254
3144.38322	0.82422
3142.32941	0.82597
3140.27560	0.82749
3138.22179	0.82863
3136.16798	0.82976
3134.11417	0.83118
3132.06036	0.83264
3130.00655	0.83386
3127.95274	0.83511
3125.89893	0.83657
3123.84512	0.83803
3121.79131	0.83947
3119.73750	0.84101
3117.68369	0.84247
3115.62988	0.84367
3113.57607	0.84481
3111.52226	0.84602
3109.46845	0.84720
3107.41464	0.84842
3105.36083	0.84971
3103.30702	0.85108
3101.25321	0.85241
3099.19940	0.85352
3097.14559	0.85446
3095.09177	0.85552
3093.03796	0.85675
3090.98415	0.85799
3088.93034	0.85923
3086.87653	0.86036
3084.82272	0.86144
3082.76891	0.86263
3080.71510	0.86382
3078.66129	0.86498
3076.60748	0.86626
3074.55367	0.86738
3072.49986	0.86825
3070.44605	0.86910
3068.39224	0.87007
3066.33843	0.87124
3064.28462	0.87258
3062.23081	0.87381
3060.17700	0.87494
3058.12319	0.87598
3056.06938	0.87666
3054.01557	0.87711
3051.96176	0.87786
3049.90795	0.87886
3047.85414	0.87989
3045.80033	0.88085
3043.74652	0.88183
3041.69271	0.88279
3039.63890	0.88374
3037.58509	0.88495
3035.53128	0.88616
3033.47747	0.88699
3031.42366	0.88761
3029.36985	0.88817
3027.31604	0.88867
3025.26223	0.88929
3023.20842	0.89010
3021.15461	0.89094
3019.10080	0.89173
3017.04699	0.89243
3014.99318	0.89297
3012.93937	0.89341
3010.88556	0.89405
3008.83175	0.89494
3006.77794	0.89560
3004.72413	0.89592
3002.67032	0.89637
3000.61651	0.89680
2998.56270	0.89686
2996.50889	0.89684
2994.45508	0.89682
2992.40127	0.89683
2990.34746	0.89676
2988.29365	0.89619
2986.23984	0.89516
2984.18603	0.89395
2982.13222	0.89247
2980.07841	0.89051
2978.02460	0.88771
2975.97079	0.88351
2973.91698	0.87772
2971.86317	0.87039
2969.80936	0.86123
2967.75555	0.85011
2965.70174	0.83739
2963.64793	0.82447
2961.59412	0.81386
2959.54031	0.80727
2957.48650	0.80324
2955.43269	0.79824
2953.37888	0.79063
2951.32507	0.78292
2949.27126	0.78041
2947.21745	0.78694
2945.16364	0.80110
2943.10983	0.81749
2941.05602	0.83049
2939.00221	0.83707
2936.94840	0.83727
2934.89459	0.83210
2932.84078	0.82248
2930.78697	0.80964
2928.73316	0.79501
2926.67935	0.78014
2924.62554	0.76623
2922.57173	0.75341
2920.51792	0.74181
2918.46411	0.73391
2916.41030	0.73372
2914.35649	0.74211
2912.30268	0.75537
2910.24887	0.76895
2908.19506	0.78072
2906.14125	0.79105
2904.08744	0.80100
2902.03363	0.81089
2899.97982	0.82031
2897.92601	0.82870
2895.87220	0.83557
2893.81839	0.84068
2891.76458	0.84405
2889.71077	0.84581
2887.65696	0.84632
2885.60315	0.84593
2883.54934	0.84461
2881.49553	0.84232
2879.44172	0.83974
2877.38791	0.83827
2875.33410	0.83870
2873.28029	0.83986
2871.22648	0.83991
2869.17267	0.83865
2867.11886	0.83793
2865.06505	0.84102
2863.01124	0.84981
2860.95743	0.86168
2858.90362	0.87174
2856.84981	0.87745
2854.79600	0.87881
2852.74219	0.87685
2850.68838	0.87303
2848.63457	0.86847
2846.58076	0.86363
2844.52695	0.85802
2842.47314	0.85126
2840.41933	0.84469
2838.36552	0.84160
2836.31171	0.84523
2834.25790	0.85581
2832.20409	0.86968
2830.15028	0.88240
2828.09647	0.89192
2826.04266	0.89856
2823.98885	0.90332
2821.93504	0.90675
2819.88123	0.90910
2817.82742	0.91077
2815.77361	0.91219
2813.71980	0.91364
2811.66599	0.91520
2809.61218	0.91671
2807.55837	0.91802
2805.50456	0.91927
2803.45075	0.92049
2801.39693	0.92156
2799.34312	0.92254
2797.28931	0.92349
2795.23550	0.92424
2793.18169	0.92491
2791.12788	0.92581
2789.07407	0.92674
2787.02026	0.92739
2784.96645	0.92800
2782.91264	0.92867
2780.85883	0.92915
2778.80502	0.92959
2776.75121	0.93006
2774.69740	0.93049
2772.64359	0.93103
2770.58978	0.93169
2768.53597	0.93220
2766.48216	0.93252
2764.42835	0.93277
2762.37454	0.93282
2760.32073	0.93279
2758.26692	0.93296
2756.21311	0.93334
2754.15930	0.93386
2752.10549	0.93446
2750.05168	0.93504
2747.99787	0.93540
2745.94406	0.93547
2743.89025	0.93546
2741.83644	0.93540
2739.78263	0.93521
2737.72882	0.93499
2735.67501	0.93484
2733.62120	0.93474
2731.56739	0.93456
2729.51358	0.93433
2727.45977	0.93425
2725.40596	0.93424
2723.35215	0.93420
2721.29834	0.93437
2719.24453	0.93483
2717.19072	0.93528
2715.13691	0.93569
2713.08310	0.93627
2711.02929	0.93685
2708.97548	0.93726
2706.92167	0.93758
2704.86786	0.93778
2702.81405	0.93790
2700.76024	0.93803
2698.70643	0.93828
2696.65262	0.93866
2694.59881	0.93887
2692.54500	0.93884
2690.49119	0.93898
2688.43738	0.93933
2686.38357	0.93952
2684.32976	0.93952
2682.27595	0.93958
2680.22214	0.93965
2678.16833	0.93964
2676.11452	0.93966
2674.06071	0.93984
2672.00690	0.94004
2669.95309	0.93997
2667.89928	0.93974
2665.84547	0.93965
2663.79166	0.93965
2661.73785	0.93963
2659.68404	0.93967
2657.63023	0.93982
2655.57642	0.94014
2653.52261	0.94050
2651.46880	0.94080
2649.41499	0.94098
2647.36118	0.94107
2645.30737	0.94116
2643.25356	0.94121
2641.19975	0.94123
2639.14594	0.94126
2637.09213	0.94134
2635.03832	0.94142
2632.98451	0.94160
2630.93070	0.94193
2628.87689	0.94214
2626.82308	0.94216
2624.76927	0.94214
2622.71546	0.94220
2620.66165	0.94231
2618.60784	0.94242
2616.55403	0.94278
2614.50022	0.94318
2612.44641	0.94320
2610.39260	0.94310
2608.33879	0.94322
2606.28498	0.94332
2604.23117	0.94320
2602.17736	0.94320
2600.12355	0.94360
2598.06974	0.94390
2596.01593	0.94378
2593.96212	0.94351
2591.90831	0.94334
2589.85450	0.94342
2587.80069	0.94365
2585.74688	0.94364
2583.69307	0.94329
2581.63926	0.94311
2579.58545	0.94336
2577.53164	0.94362
2575.47783	0.94367
2573.42402	0.94370
2571.37021	0.94387
2569.31640	0.94418
2567.26259	0.94467
2565.20878	0.94513
2563.15497	0.94518
2561.10116	0.94502
2559.04735	0.94536
2556.99354	0.94597
2554.93973	0.94589
2552.88592	0.94536
2550.83211	0.94521
2548.77830	0.94529
2546.72449	0.94541
2544.67068	0.94567
2542.61687	0.94578
2540.56306	0.94567
2538.50925	0.94556
2536.45544	0.94560
2534.40163	0.94563
2532.34782	0.94550
2530.29401	0.94538
2528.24020	0.94532
2526.18639	0.94526
2524.13258	0.94535
2522.07877	0.94554
2520.02496	0.94574
2517.97115	0.94596
2515.91734	0.94599
2513.86353	0.94569
2511.80972	0.94547
2509.75591	0.94582
2507.70210	0.94643
2505.64828	0.94654
2503.59447	0.94625
2501.54066	0.94605
2499.48685	0.94602
2497.43304	0.94597
2495.37923	0.94595
2493.32542	0.94614
2491.27161	0.94637
2489.21780	0.94657
2487.16399	0.94653
2485.11018	0.94607
2483.05637	0.94549
2481.00256	0.94514
2478.94875	0.94528
2476.89494	0.94575
2474.84113	0.94598
2472.78732	0.94574
2470.73351	0.94533
2468.67970	0.94510
2466.62589	0.94517
2464.57208	0.94534
2462.51827	0.94551
2460.46446	0.94595
2458.41065	0.94648
2456.35684	0.94660
2454.30303	0.94635
2452.24922	0.94603
2450.19541	0.94586
2448.14160	0.94578
2446.08779	0.94551
2444.03398	0.94541
2441.98017	0.94589
2439.92636	0.94641
2437.87255	0.94658
2435.81874	0.94637
2433.76493	0.94591
2431.71112	0.94579
2429.65731	0.94613
2427.60350	0.94612
2425.54969	0.94574
2423.49588	0.94566
2421.44207	0.94569
2419.38826	0.94560
2417.33445	0.94576
2415.28064	0.94610
2413.22683	0.94611
2411.17302	0.94563
2409.11921	0.94511
2407.06540	0.94503
2405.01159	0.94538
2402.95778	0.94558
2400.90397	0.94533
2398.85016	0.94510
2396.79635	0.94515
2394.74254	0.94529
2392.68873	0.94535
2390.63492	0.94529
2388.58111	0.94520
2386.52730	0.94529
2384.47349	0.94566
2382.41968	0.94600
2380.36587	0.94583
2378.31206	0.94518
2376.25825	0.94470
2374.20444	0.94466
2372.15063	0.94470
2370.09682	0.94472
2368.04301	0.94491
2365.98920	0.94520
2363.93539	0.94529
2361.88158	0.94509
2359.82777	0.94468
2357.77396	0.94463
2355.72015	0.94475
2353.66634	0.94419
2351.61253	0.94362
2349.55872	0.94341
2347.50491	0.94310
2345.45110	0.94261
2343.39729	0.94249
2341.34348	0.94296
2339.28967	0.94369
2337.23586	0.94407
2335.18205	0.94354
2333.12824	0.94275
2331.07443	0.94249
2329.02062	0.94244
2326.96681	0.94224
2324.91300	0.94202
2322.85919	0.94185
2320.80538	0.94184
2318.75157	0.94227
2316.69776	0.94286
2314.64395	0.94306
2312.59014	0.94290
2310.53633	0.94261
2308.48252	0.94234
2306.42871	0.94237
2304.37490	0.94257
2302.32109	0.94225
2300.26728	0.94159
2298.21347	0.94161
2296.15966	0.94215
2294.10585	0.94236
2292.05204	0.94212
2289.99823	0.94173
2287.94442	0.94154
2285.89061	0.94152
2283.83680	0.94156
2281.78299	0.94193
2279.72918	0.94244
2277.67537	0.94274
2275.62156	0.94268
2273.56775	0.94242
2271.51394	0.94204
2269.46013	0.94151
2267.40632	0.94138
2265.35251	0.94185
2263.29870	0.94239
2261.24489	0.94275
2259.19108	0.94275
2257.13727	0.94261
2255.08346	0.94290
2253.02965	0.94266
2250.97584	0.94152
2248.92203	0.94157
2246.86822	0.94269
2244.81441	0.94290
2242.76060	0.94233
2240.70679	0.94189
2238.65298	0.94159
2236.59917	0.94149
2234.54536	0.94176
2232.49155	0.94180
2230.43774	0.94128
2228.38393	0.94107
2226.33012	0.94122
2224.27631	0.94106
2222.22250	0.94102
2220.16869	0.94118
2218.11488	0.94115
2216.06107	0.94084
2214.00726	0.94037
2211.95344	0.94034
2209.89963	0.94076
2207.84582	0.94069
2205.79201	0.94016
2203.73820	0.94012
2201.68439	0.93960
2199.63058	0.93845
2197.57677	0.93891
2195.52296	0.94078
2193.46915	0.94134
2191.41534	0.94037
2189.36153	0.93994
2187.30772	0.94012
2185.25391	0.94012
2183.20010	0.93978
2181.14629	0.93903
2179.09248	0.93832
2177.03867	0.93852
2174.98486	0.94002
2172.93105	0.94100
2170.87724	0.94058
2168.82343	0.94057
2166.76962	0.94063
2164.71581	0.93900
2162.66200	0.93687
2160.60819	0.93723
2158.55438	0.94046
2156.50057	0.94226
2154.44676	0.94067
2152.39295	0.93898
2150.33914	0.93876
2148.28533	0.93890
2146.23152	0.93951
2144.17771	0.94047
2142.12390	0.94052
2140.07009	0.94003
2138.01628	0.94005
2135.96247	0.94032
2133.90866	0.94035
2131.85485	0.94016
2129.80104	0.93965
2127.74723	0.93902
2125.69342	0.93865
2123.63961	0.93882
2121.58580	0.93928
2119.53199	0.93922
2117.47818	0.93886
2115.42437	0.93840
2113.37056	0.93747
2111.31675	0.93675
2109.26294	0.93666
2107.20913	0.93696
2105.15532	0.93768
2103.10151	0.93789
2101.04770	0.93760
2098.99389	0.93753
2096.94008	0.93715
2094.88627	0.93653
2092.83246	0.93606
2090.77865	0.93591
2088.72484	0.93658
2086.67103	0.93750
2084.61722	0.93782
2082.56341	0.93801
2080.50960	0.93824
2078.45579	0.93793
2076.40198	0.93711
2074.34817	0.93647
2072.29436	0.93683
2070.24055	0.93806
2068.18674	0.93934
2066.13293	0.93985
2064.07912	0.93949
2062.02531	0.93924
2059.97150	0.93886
2057.91769	0.93779
2055.86388	0.93755
2053.81007	0.93845
2051.75626	0.93891
2049.70245	0.93896
2047.64864	0.93932
2045.59483	0.93936
2043.54102	0.93917
2041.48721	0.93905
2039.43340	0.93840
2037.37959	0.93818
2035.32578	0.93898
2033.27197	0.93980
2031.21816	0.94009
2029.16435	0.93972
2027.11054	0.93948
2025.05673	0.93963
2023.00292	0.93916
2020.94911	0.93896
2018.89530	0.93949
2016.84149	0.93919
2014.78768	0.93808
2012.73387	0.93730
2010.68006	0.93787
2008.62625	0.93928
2006.57244	0.94044
2004.51863	0.94161
2002.46482	0.94212
2000.41101	0.94084
1998.35720	0.93885
1996.30339	0.93779
1994.24958	0.93736
1992.19577	0.93724
1990.14196	0.93791
1988.08815	0.93880
1986.03434	0.93909
1983.98053	0.93917
1981.92672	0.93879
1979.87291	0.93723
1977.81910	0.93604
1975.76529	0.93637
1973.71148	0.93738
1971.65767	0.93897
1969.60386	0.94011
1967.55005	0.94019
1965.49624	0.93996
1963.44243	0.93906
1961.38862	0.93798
1959.33481	0.93742
1957.28100	0.93740
1955.22719	0.93786
1953.17338	0.93806
1951.11957	0.93805
1949.06576	0.93834
1947.01195	0.93823
1944.95814	0.93767
1942.90433	0.93725
1940.85052	0.93660
1938.79671	0.93603
1936.74290	0.93591
1934.68909	0.93582
1932.63528	0.93560
1930.58147	0.93520
1928.52766	0.93458
1926.47385	0.93427
1924.42004	0.93418
1922.36623	0.93389
1920.31242	0.93385
1918.25861	0.93408
1916.20479	0.93433
1914.15098	0.93412
1912.09717	0.93321
1910.04336	0.93219
1907.98955	0.93187
1905.93574	0.93239
1903.88193	0.93296
1901.82812	0.93301
1899.77431	0.93255
1897.72050	0.93185
1895.66669	0.93120
1893.61288	0.93078
1891.55907	0.93043
1889.50526	0.92984
1887.45145	0.92931
1885.39764	0.92919
1883.34383	0.92916
1881.29002	0.92881
1879.23621	0.92836
1877.18240	0.92828
1875.12859	0.92829
1873.07478	0.92801
1871.02097	0.92769
1868.96716	0.92738
1866.91335	0.92705
1864.85954	0.92679
1862.80573	0.92622
1860.75192	0.92568
1858.69811	0.92550
1856.64430	0.92525
1854.59049	0.92494
1852.53668	0.92484
1850.48287	0.92475
1848.42906	0.92448
1846.37525	0.92397
1844.32144	0.92321
1842.26763	0.92233
1840.21382	0.92161
1838.16001	0.92137
1836.10620	0.92151
1834.05239	0.92159
1831.99858	0.92124
1829.94477	0.92060
1827.89096	0.92039
1825.83715	0.92045
1823.78334	0.91996
1821.72953	0.91932
1819.67572	0.91904
1817.62191	0.91870
1815.56810	0.91815
1813.51429	0.91749
1811.46048	0.91684
1809.40667	0.91635
1807.35286	0.91575
1805.29905	0.91487
1803.24524	0.91421
1801.19143	0.91386
1799.13762	0.91333
1797.08381	0.91252
1795.03000	0.91169
1792.97619	0.91091
1790.92238	0.91000
1788.86857	0.90900
1786.81476	0.90794
1784.76095	0.90677
1782.70714	0.90576
1780.65333	0.90477
1778.59952	0.90352
1776.54571	0.90233
1774.49190	0.90137
1772.43809	0.90052
1770.38428	0.89948
1768.33047	0.89834
1766.27666	0.89733
1764.22285	0.89651
1762.16904	0.89555
1760.11523	0.89442
1758.06142	0.89354
1756.00761	0.89291
1753.95380	0.89230
1751.89999	0.89135
1749.84618	0.88999
1747.79237	0.88858
1745.73856	0.88719
1743.68475	0.88598
1741.63094	0.88497
1739.57713	0.88380
1737.52332	0.88270
1735.46951	0.88171
1733.41570	0.88021
1731.36189	0.87893
1729.30808	0.87786
1727.25427	0.87614
1725.20046	0.87385
1723.14665	0.87154
1721.09284	0.86970
1719.03903	0.86788
1716.98522	0.86541
1714.93141	0.86296
1712.87760	0.86112
1710.82379	0.85966
1708.76998	0.85846
1706.71617	0.85742
1704.66236	0.85668
1702.60855	0.85636
1700.55474	0.85615
1698.50093	0.85572
1696.44712	0.85488
1694.39331	0.85394
1692.33950	0.85333
1690.28569	0.85252
1688.23188	0.85145
1686.17807	0.85048
1684.12426	0.84880
1682.07045	0.84653
1680.01664	0.84463
1677.96283	0.84286
1675.90902	0.84085
1673.85521	0.83875
1671.80140	0.83684
1669.74759	0.83415
1667.69378	0.83110
1665.63997	0.82897
1663.58616	0.82683
1661.53235	0.82422
1659.47854	0.82191
1657.42473	0.82010
1655.37092	0.81833
1653.31711	0.81485
1651.26330	0.81161
1649.20949	0.81049
1647.15568	0.80892
1645.10187	0.80703
1643.04806	0.80624
1640.99425	0.80584
1638.94044	0.80557
1636.88663	0.80564
1634.83282	0.80599
1632.77901	0.80676
1630.72520	0.80798
1628.67139	0.80959
1626.61758	0.81159
1624.56377	0.81421
1622.50996	0.81736
1620.45614	0.82020
1618.40233	0.82318
1616.34852	0.82742
1614.29471	0.83176
1612.24090	0.83543
1610.18709	0.83920
1608.13328	0.84314
1606.07947	0.84695
1604.02566	0.85051
1601.97185	0.85375
1599.91804	0.85682
1597.86423	0.85993
1595.81042	0.86297
1593.75661	0.86582
1591.70280	0.86838
1589.64899	0.87064
1587.59518	0.87280
1585.54137	0.87489
1583.48756	0.87683
1581.43375	0.87867
1579.37994	0.88021
1577.32613	0.88159
1575.27232	0.88337
1573.21851	0.88504
1571.16470	0.88629
1569.11089	0.88749
1567.05708	0.88880
1565.00327	0.88998
1562.94946	0.89096
1560.89565	0.89199
1558.84184	0.89328
1556.78803	0.89399
1554.73422	0.89440
1552.68041	0.89490
1550.62660	0.89544
1548.57279	0.89597
1546.51898	0.89639
1544.46517	0.89685
1542.41136	0.89770
1540.35755	0.89872
1538.30374	0.89903
1536.24993	0.89920
1534.19612	0.89959
1532.14231	0.90003
1530.08850	0.90047
1528.03469	0.90080
1525.98088	0.90091
1523.92707	0.90113
1521.87326	0.90168
1519.81945	0.90232
1517.76564	0.90281
1515.71183	0.90312
1513.65802	0.90326
1511.60421	0.90337
1509.55040	0.90370
1507.49659	0.90421
1505.44278	0.90410
1503.38897	0.90376
1501.33516	0.90375
1499.28135	0.90381
1497.22754	0.90363
1495.17373	0.90343
1493.11992	0.90344
1491.06611	0.90347
1489.01230	0.90321
1486.95849	0.90261
1484.90468	0.90193
1482.85087	0.90094
1480.79706	0.89935
1478.74325	0.89716
1476.68944	0.89361
1474.63563	0.88755
1472.58182	0.87906
1470.52801	0.87047
1468.47420	0.86246
1466.42039	0.85222
1464.36658	0.83905
1462.31277	0.82930
1460.25896	0.82550
1458.20515	0.82412
1456.15134	0.82287
1454.09753	0.82253
1452.04372	0.82354
1449.98991	0.82724
1447.93610	0.83583
1445.88229	0.84742
1443.82848	0.85735
1441.77467	0.86415
1439.72086	0.86763
1437.66705	0.86858
1435.61324	0.86939
1433.55943	0.87274
1431.50562	0.87783
1429.45181	0.88252
1427.39800	0.88530
1425.34419	0.88668
1423.29038	0.88745
1421.23657	0.88792
1419.18276	0.88830
1417.12895	0.88853
1415.07514	0.88855
1413.02133	0.88847
1410.96752	0.88842
1408.91371	0.88838
1406.85990	0.88843
1404.80609	0.88852
1402.75228	0.88867
1400.69847	0.88886
1398.64466	0.88872
1396.59085	0.88824
1394.53704	0.88756
1392.48323	0.88642
1390.42942	0.88482
1388.37561	0.88214
1386.32180	0.87675
1384.26799	0.86726
1382.21418	0.85127
1380.16037	0.82564
1378.10656	0.79516
1376.05275	0.77675
1373.99894	0.78476
1371.94513	0.81009
1369.89132	0.83339
1367.83751	0.84842
1365.78370	0.85553
1363.72989	0.85719
1361.67608	0.85543
1359.62227	0.85310
1357.56846	0.85327
1355.51465	0.85646
1353.46084	0.86098
1351.40703	0.86506
1349.35322	0.86810
1347.29941	0.87018
1345.24560	0.87149
1343.19179	0.87244
1341.13798	0.87319
1339.08417	0.87356
1337.03036	0.87364
1334.97655	0.87353
1332.92274	0.87307
1330.86893	0.87243
1328.81512	0.87213
1326.76130	0.87230
1324.70749	0.87280
1322.65368	0.87342
1320.59987	0.87391
1318.54606	0.87405
1316.49225	0.87388
1314.43844	0.87370
1312.38463	0.87350
1310.33082	0.87289
1308.27701	0.87171
1306.22320	0.87022
1304.16939	0.86909
1302.11558	0.86881
1300.06177	0.86880
1298.00796	0.86848
1295.95415	0.86807
1293.90034	0.86801
1291.84653	0.86825
1289.79272	0.86847
1287.73891	0.86840
1285.68510	0.86821
1283.63129	0.86808
1281.57748	0.86782
1279.52367	0.86739
1277.46986	0.86698
1275.41605	0.86644
1273.36224	0.86568
1271.30843	0.86479
1269.25462	0.86376
1267.20081	0.86253
1265.14700	0.86129
1263.09319	0.85999
1261.03938	0.85808
1258.98557	0.85546
1256.93176	0.85274
1254.87795	0.85051
1252.82414	0.84886
1250.77033	0.84736
1248.71652	0.84545
1246.66271	0.84298
1244.60890	0.84017
1242.55509	0.83731
1240.50128	0.83430
1238.44747	0.83087
1236.39366	0.82706
1234.33985	0.82310
1232.28604	0.81916
1230.23223	0.81524
1228.17842	0.81113
1226.12461	0.80685
1224.07080	0.80256
1222.01699	0.79819
1219.96318	0.79385
1217.90937	0.78994
1215.85556	0.78657
1213.80175	0.78348
1211.74794	0.78059
1209.69413	0.77802
1207.64032	0.77574
1205.58651	0.77362
1203.53270	0.77154
1201.47889	0.76940
1199.42508	0.76730
1197.37127	0.76545
1195.31746	0.76401
1193.26365	0.76281
1191.20984	0.76171
1189.15603	0.76074
1187.10222	0.75991
1185.04841	0.75941
1182.99460	0.75927
1180.94079	0.75924
1178.88698	0.75906
1176.83317	0.75857
1174.77936	0.75767
1172.72555	0.75591
1170.67174	0.75310
1168.61793	0.75069
1166.56412	0.75052
1164.51031	0.75276
1162.45650	0.75635
1160.40269	0.76005
1158.34888	0.76319
1156.29507	0.76573
1154.24126	0.76779
1152.18745	0.76955
1150.13364	0.77146
1148.07983	0.77372
1146.02602	0.77606
1143.97221	0.77810
1141.91840	0.77953
1139.86459	0.78045
1137.81078	0.78129
1135.75697	0.78216
1133.70316	0.78310
1131.64935	0.78421
1129.59554	0.78515
1127.54173	0.78562
1125.48792	0.78587
1123.43411	0.78604
1121.38030	0.78618
1119.32649	0.78649
1117.27268	0.78672
1115.21887	0.78666
1113.16506	0.78664
1111.11125	0.78687
1109.05744	0.78697
1107.00363	0.78671
1104.94982	0.78626
1102.89601	0.78598
1100.84220	0.78631
1098.78839	0.78730
1096.73458	0.78854
1094.68077	0.78986
1092.62696	0.79114
1090.57315	0.79209
1088.51934	0.79287
1086.46553	0.79386
1084.41172	0.79493
1082.35791	0.79557
1080.30410	0.79581
1078.25029	0.79626
1076.19648	0.79679
1074.14267	0.79679
1072.08886	0.79616
1070.03505	0.79496
1067.98124	0.79295
1065.92743	0.78986
1063.87362	0.78556
1061.81981	0.77999
1059.76600	0.77333
1057.71219	0.76625
1055.65838	0.75928
1053.60457	0.75276
1051.55076	0.74748
1049.49695	0.74424
1047.44314	0.74304
1045.38933	0.74319
1043.33552	0.74424
1041.28171	0.74614
1039.22790	0.74888
1037.17409	0.75236
1035.12028	0.75613
1033.06647	0.75987
1031.01265	0.76361
1028.95884	0.76736
1026.90503	0.77100
1024.85122	0.77433
1022.79741	0.77723
1020.74360	0.77991
1018.68979	0.78268
1016.63598	0.78549
1014.58217	0.78820
1012.52836	0.79085
1010.47455	0.79344
1008.42074	0.79568
1006.36693	0.79719
1004.31312	0.79763
1002.25931	0.79629
1000.20550	0.79295
998.15169	0.79034
996.09788	0.79226
994.04407	0.79833
991.99026	0.80493
989.93645	0.80990
987.88264	0.81329
985.82883	0.81559
983.77502	0.81680
981.72121	0.81692
979.66740	0.81581
977.61359	0.81288
975.55978	0.80811
973.50597	0.80384
971.45216	0.80378
969.39835	0.80838
967.34454	0.81423
965.29073	0.81888
963.23692	0.82203
961.18311	0.82371
959.12930	0.82449
957.07549	0.82513
955.02168	0.82584
952.96787	0.82630
950.91406	0.82631
948.86025	0.82590
946.80644	0.82524
944.75263	0.82452
942.69882	0.82390
940.64501	0.82365
938.59120	0.82367
936.53739	0.82365
934.48358	0.82370
932.42977	0.82367
930.37596	0.82320
928.32215	0.82240
926.26834	0.82164
924.21453	0.82079
922.16072	0.81961
920.10691	0.81819
918.05310	0.81652
915.99929	0.81439
913.94548	0.81196
911.89167	0.80985
909.83786	0.80818
907.78405	0.80622
905.73024	0.80347
903.67643	0.79984
901.62262	0.79550
899.56881	0.79152
897.51500	0.78930
895.46119	0.78883
893.40738	0.78908
891.35357	0.78927
889.29976	0.78882
887.24595	0.78775
885.19214	0.78692
883.13833	0.78680
881.08452	0.78680
879.03071	0.78657
876.97690	0.78627
874.92309	0.78616
872.86928	0.78636
870.81547	0.78672
868.76166	0.78717
866.70785	0.78757
864.65404	0.78768
862.60023	0.78742
860.54642	0.78709
858.49261	0.78699
856.43880	0.78711
854.38499	0.78708
852.33118	0.78658
850.27737	0.78552
848.22356	0.78376
846.16975	0.78051
844.11594	0.77464
842.06213	0.76778
840.00832	0.76511
837.95451	0.76810
835.90070	0.77228
833.84689	0.77446
831.79308	0.77493
829.73927	0.77455
827.68546	0.77382
825.63165	0.77298
823.57784	0.77190
821.52403	0.77069
819.47022	0.76968
817.41641	0.76834
815.36260	0.76597
813.30879	0.76283
811.25498	0.75916
809.20117	0.75541
807.14736	0.75288
805.09355	0.75219
803.03974	0.75265
800.98593	0.75317
798.93212	0.75295
796.87831	0.75182
794.82450	0.75043
792.77069	0.74936
790.71688	0.74830
788.66307	0.74711
786.60926	0.74592
784.55545	0.74480
782.50164	0.74371
780.44783	0.74254
778.39402	0.74128
776.34021	0.73999
774.28640	0.73870
772.23259	0.73722
770.17878	0.73570
768.12497	0.73431
766.07116	0.73289
764.01735	0.73156
761.96354	0.73036
759.90973	0.72899
757.85592	0.72724
755.80211	0.72520
753.74830	0.72322
751.69449	0.72181
749.64068	0.72086
747.58687	0.71976
745.53306	0.71839
743.47925	0.71683
741.42544	0.71531
739.37163	0.71395
737.31781	0.71243
735.26400	0.71040
733.21019	0.70773
731.15638	0.70523
729.10257	0.70396
727.04876	0.70315
724.99495	0.70183
722.94114	0.69965
720.88733	0.69644
718.83352	0.69382
716.77971	0.69317
714.72590	0.69366
712.67209	0.69423
710.61828	0.69435
708.56447	0.69359
706.51066	0.69193
704.45685	0.69006
702.40304	0.68832
700.34923	0.68651
698.29542	0.68499
696.24161	0.68421
694.18780	0.68357
692.13399	0.68227
690.08018	0.68060
688.02637	0.67934
685.97256	0.67865
683.91875	0.67828
681.86494	0.67748
679.81113	0.67584
677.75732	0.67409
675.70351	0.67299
673.64970	0.67236
671.59589	0.67199
669.54208	0.67137
667.48827	0.66898
665.43446	0.66619
663.38065	0.66430
661.32684	0.66309
659.27303	0.66250
657.21922	0.66227
655.16541	0.66179
653.11160	0.66090
651.05779	0.66001
649.00398	0.65886
646.95017	0.65795
644.89636	0.65730
642.84255	0.65575
640.78874	0.65357
638.73493	0.65155
636.68112	0.64969
634.62731	0.64830
632.57350	0.64738
630.51969	0.64635
628.46588	0.64493
626.41207	0.64306
624.35826	0.64128
622.30445	0.63984
620.25064	0.63832
618.19683	0.63658
616.14302	0.63468
614.08921	0.63298
612.03540	0.63136
609.98159	0.62882
607.92778	0.62557
605.87397	0.62238
603.82016	0.61892
601.76635	0.61520
599.71254	0.61202
597.65873	0.60934
595.60492	0.60679
593.55111	0.60425
591.49730	0.60154
589.44349	0.59958
587.38968	0.59907
585.33587	0.59930
583.28206	0.59905
581.22825	0.59845
579.17444	0.59933
577.12063	0.60155
575.06682	0.60308
573.01301	0.60342
570.95920	0.60378
568.90539	0.60481
566.85158	0.60620
564.79777	0.60790
562.74396	0.61012
560.69015	0.61174
558.63634	0.61154
556.58253	0.61008
554.52872	0.60876
552.47491	0.60851
550.42110	0.60900
548.36729	0.60925
546.31348	0.60890
544.25967	0.60825
542.20586	0.60815
540.15205	0.60906
538.09824	0.60996
536.04443	0.61003
533.99062	0.60931
531.93681	0.60793
529.88300	0.60704
527.82919	0.60761
525.77538	0.60825
523.72157	0.60777
521.66776	0.60774
519.61395	0.60925
517.56014	0.61075
515.50633	0.61082
513.45252	0.61061
511.39871	0.61106
509.34490	0.61218
507.29109	0.61341
505.23728	0.61383
503.18347	0.61315
501.12966	0.61120
499.07585	0.60945
497.02204	0.60944
494.96823	0.61051
492.91442	0.61162
490.86061	0.61220
488.80680	0.61117
486.75299	0.60866
484.69918	0.60691
482.64537	0.60699
480.59156	0.60711
478.53775	0.60599
476.48394	0.60399
474.43013	0.60187
472.37632	0.60005
470.32251	0.59854
468.26870	0.59773
466.21489	0.59778
464.16108	0.59754
462.10727	0.59603
460.05346	0.59434
457.99965	0.59515
455.94584	0.59843
453.89203	0.59983
451.83822	0.59784
449.78441	0.59579
447.73060	0.59593
445.67679	0.59723
443.62298	0.59782
441.56916	0.59797
439.51535	0.59963
437.46154	0.60049
435.40773	0.59879
433.35392	0.59763
431.30011	0.59846
429.24630	0.60028
427.19249	0.60107
425.13868	0.60049
423.08487	0.60249
421.03106	0.60839
418.97725	0.61214
416.92344	0.60896
414.86963	0.60387
412.81582	0.60006
410.76201	0.59833
408.70820	0.59912
406.65439	0.60340
404.60058	0.61008
402.54677	0.61426
400.49296	0.61404
398.43915	0.61367
