3996.70104	0.96091
3994.64724	0.96054
3992.59344	0.96005
3990.53964	0.96014
3988.48583	0.96061
3986.43203	0.96104
3984.37823	0.96124
3982.32442	0.96111
3980.27062	0.96123
3978.21682	0.96140
3976.16301	0.96117
3974.10921	0.96094
3972.05541	0.96059
3970.00160	0.96034
3967.94780	0.96071
3965.89400	0.96097
3963.84019	0.96079
3961.78639	0.96065
3959.73259	0.96048
3957.67878	0.96043
3955.62498	0.96078
3953.57118	0.96079
3951.51737	0.96059
3949.46357	0.96131
3947.40977	0.96208
3945.35596	0.96172
3943.30216	0.96109
3941.24836	0.96081
3939.19455	0.96065
3937.14075	0.96080
3935.08695	0.96132
3933.03315	0.96152
3930.97934	0.96138
3928.92554	0.96167
3926.87174	0.96206
3924.81793	0.96192
3922.76413	0.96134
3920.71033	0.96103
3918.65652	0.96110
3916.60272	0.96125
3914.54892	0.96166
3912.49511	0.96175
3910.44131	0.96126
3908.38751	0.96118
3906.33370	0.96175
3904.27990	0.96194
3902.22610	0.96145
3900.17229	0.96076
3898.11849	0.96002
3896.06469	0.96029
3894.01088	0.96128
3891.95708	0.96135
3889.90328	0.96052
3887.84947	0.96049
3885.79567	0.96156
3883.74187	0.96244
3881.68807	0.96242
3879.63426	0.96199
3877.58046	0.96153
3875.52666	0.96129
3873.47285	0.96130
3871.41905	0.96104
3869.36525	0.96026
3867.31144	0.95972
3865.25764	0.95975
3863.20384	0.96048
3861.15003	0.96110
3859.09623	0.96080
3857.04243	0.96024
3854.98862	0.96025
3852.93482	0.96127
3850.88102	0.96261
3848.82721	0.96278
3846.77341	0.96188
3844.71961	0.96113
3842.66580	0.96114
3840.61200	0.96123
3838.55820	0.96071
3836.50439	0.96010
3834.45059	0.96022
3832.39679	0.96045
3830.34298	0.96069
3828.28918	0.96146
3826.23538	0.96232
3824.18158	0.96254
3822.12777	0.96192
3820.07397	0.96105
3818.02017	0.96102
3815.96636	0.96153
3813.91256	0.96191
3811.85876	0.96197
3809.80495	0.96183
3807.75115	0.96134
3805.69735	0.96070
3803.64354	0.96055
3801.58974	0.96123
3799.53594	0.96221
3797.48213	0.96234
3795.42833	0.96209
3793.37453	0.96222
3791.32072	0.96223
3789.26692	0.96209
3787.21312	0.96201
3785.15931	0.96160
3783.10551	0.96167
3781.05171	0.96260
3778.99790	0.96343
3776.94410	0.96359
3774.89030	0.96317
3772.83650	0.96252
3770.78269	0.96180
3768.72889	0.96111
3766.67509	0.96137
3764.62128	0.96244
3762.56748	0.96266
3760.51368	0.96198
3758.45987	0.96173
3756.40607	0.96234
3754.35227	0.96347
3752.29846	0.96412
3750.24466	0.96343
3748.19086	0.96285
3746.13705	0.96337
3744.08325	0.96380
3742.02945	0.96312
3739.97564	0.96269
3737.92184	0.96239
3735.86804	0.96174
3733.81423	0.96124
3731.76043	0.96102
3729.70663	0.96150
3727.65282	0.96224
3725.59902	0.96260
3723.54522	0.96279
3721.49141	0.96292
3719.43761	0.96297
3717.38381	0.96262
3715.33001	0.96173
3713.27620	0.96058
3711.22240	0.95917
3709.16860	0.95815
3707.11479	0.95746
3705.06099	0.95643
3703.00719	0.95537
3700.95338	0.95470
3698.89958	0.95423
3696.84578	0.95361
3694.79197	0.95287
3692.73817	0.95266
3690.68437	0.95326
3688.63056	0.95420
3686.57676	0.95471
3684.52296	0.95450
3682.46915	0.95422
3680.41535	0.95457
3678.36155	0.95506
3676.30774	0.95453
3674.25394	0.95392
3672.20014	0.95511
3670.14633	0.95626
3668.09253	0.95524
3666.03873	0.95335
3663.98492	0.95204
3661.93112	0.95150
3659.87732	0.95109
3657.82352	0.94998
3655.76971	0.94853
3653.71591	0.94811
3651.66211	0.94813
3649.60830	0.94727
3647.55450	0.94663
3645.50070	0.94693
3643.44689	0.94669
3641.39309	0.94578
3639.33929	0.94505
3637.28548	0.94467
3635.23168	0.94418
3633.17788	0.94374
3631.12407	0.94310
3629.07027	0.94169
3627.01647	0.94075
3624.96266	0.94044
3622.90886	0.94001
3620.85506	0.93983
3618.80125	0.93999
3616.74745	0.94034
3614.69365	0.94055
3612.63984	0.94053
3610.58604	0.94042
3608.53224	0.94030
3606.47844	0.94116
3604.42463	0.94248
3602.37083	0.94292
3600.31703	0.94288
3598.26322	0.94288
3596.20942	0.94290
3594.15562	0.94303
3592.10181	0.94313
3590.04801	0.94328
3587.99421	0.94365
3585.94040	0.94375
3583.88660	0.94326
3581.83280	0.94271
3579.77899	0.94247
3577.72519	0.94252
3575.67139	0.94282
3573.61758	0.94337
3571.56378	0.94364
3569.50998	0.94316
3567.45617	0.94220
3565.40237	0.94167
3563.34857	0.94170
3561.29476	0.94186
3559.24096	0.94197
3557.18716	0.94195
3555.13335	0.94189
3553.07955	0.94197
3551.02575	0.94241
3548.97195	0.94284
3546.91814	0.94287
3544.86434	0.94259
3542.81054	0.94242
3540.75673	0.94266
3538.70293	0.94298
3536.64913	0.94318
3534.59532	0.94315
3532.54152	0.94275
3530.48772	0.94247
3528.43391	0.94275
3526.38011	0.94309
3524.32631	0.94297
3522.27250	0.94268
3520.21870	0.94261
3518.16490	0.94239
3516.11109	0.94179
3514.05729	0.94145
3512.00349	0.94151
3509.94968	0.94174
3507.89588	0.94202
3505.84208	0.94222
3503.78827	0.94236
3501.73447	0.94225
3499.68067	0.94211
3497.62687	0.94198
3495.57306	0.94154
3493.51926	0.94105
3491.46546	0.94112
3489.41165	0.94165
3487.35785	0.94165
3485.30405	0.94120
3483.25024	0.94127
3481.19644	0.94132
3479.14264	0.94108
3477.08883	0.94123
3475.03503	0.94130
3472.98123	0.94106
3470.92742	0.94131
3468.87362	0.94156
3466.81982	0.94086
3464.76601	0.93995
3462.71221	0.93990
3460.65841	0.94024
3458.60460	0.94019
3456.55080	0.93998
3454.49700	0.93983
3452.44319	0.93986
3450.38939	0.94006
3448.33559	0.93996
3446.28178	0.93966
3444.22798	0.93993
3442.17418	0.94026
3440.12038	0.93964
3438.06657	0.93877
3436.01277	0.93849
3433.95897	0.93858
3431.90516	0.93873
3429.85136	0.93896
3427.79756	0.93941
3425.74375	0.93955
3423.68995	0.93911
3421.63615	0.93863
3419.58234	0.93838
3417.52854	0.93836
3415.47474	0.93856
3413.42093	0.93883
3411.36713	0.93877
3409.31333	0.93820
3407.25952	0.93784
3405.20572	0.93801
3403.15192	0.93813
3401.09811	0.93812
3399.04431	0.93819
3396.99051	0.93812
3394.93670	0.93792
3392.88290	0.93776
3390.82910	0.93774
3388.77529	0.93803
3386.72149	0.93840
3384.66769	0.93836
3382.61389	0.93789
3380.56008	0.93748
3378.50628	0.93764
3376.45248	0.93840
3374.39867	0.93892
3372.34487	0.93879
3370.29107	0.93877
3368.23726	0.93903
3366.18346	0.93931
3364.12966	0.93982
3362.07585	0.94034
3360.02205	0.94028
3357.96825	0.93972
3355.91444	0.93917
3353.86064	0.93882
3351.80684	0.93891
3349.75303	0.93924
3347.69923	0.93912
3345.64543	0.93884
3343.59162	0.93918
3341.53782	0.93979
3339.48402	0.93997
3337.43021	0.94023
3335.37641	0.94072
3333.32261	0.94036
3331.26881	0.93934
3329.21500	0.93889
3327.16120	0.93936
3325.10740	0.94046
3323.05359	0.94133
3320.99979	0.94135
3318.94599	0.94111
3316.89218	0.94119
3314.83838	0.94123
3312.78458	0.94139
3310.73077	0.94215
3308.67697	0.94281
3306.62317	0.94272
3304.56936	0.94222
3302.51556	0.94170
3300.46176	0.94143
3298.40795	0.94143
3296.35415	0.94148
3294.30035	0.94168
3292.24654	0.94195
3290.19274	0.94198
3288.13894	0.94184
3286.08513	0.94178
3284.03133	0.94189
3281.97753	0.94210
3279.92372	0.94242
3277.86992	0.94240
3275.81612	0.94183
3273.76232	0.94171
3271.70851	0.94253
3269.65471	0.94355
3267.60091	0.94381
3265.54710	0.94313
3263.49330	0.94249
3261.43950	0.94213
3259.38569	0.94200
3257.33189	0.94233
3255.27809	0.94252
3253.22428	0.94269
3251.17048	0.94341
3249.11668	0.94397
3247.06287	0.94396
3245.00907	0.94381
3242.95527	0.94379
3240.90146	0.94411
3238.84766	0.94450
3236.79386	0.94461
3234.74005	0.94473
3232.68625	0.94479
3230.63245	0.94472
3228.57864	0.94455
3226.52484	0.94441
3224.47104	0.94465
3222.41724	0.94481
3220.36343	0.94447
3218.30963	0.94440
3216.25583	0.94503
3214.20202	0.94558
3212.14822	0.94556
3210.09442	0.94534
3208.04061	0.94559
3205.98681	0.94620
3203.93301	0.94663
3201.87920	0.94675
3199.82540	0.94658
3197.77160	0.94641
3195.71779	0.94624
3193.66399	0.94581
3191.61019	0.94576
3189.55638	0.94652
3187.50258	0.94699
3185.44878	0.94677
3183.39497	0.94690
3181.34117	0.94744
3179.28737	0.94775
3177.23356	0.94811
3175.17976	0.94866
3173.12596	0.94853
3171.07215	0.94768
3169.01835	0.94756
3166.96455	0.94824
3164.91075	0.94879
3162.85694	0.94910
3160.80314	0.94901
3158.74934	0.94862
3156.69553	0.94850
3154.64173	0.94859
3152.58793	0.94885
3150.53412	0.94911
3148.48032	0.94904
3146.42652	0.94890
3144.37271	0.94872
3142.31891	0.94868
3140.26511	0.94937
3138.21130	0.95034
3136.15750	0.95083
3134.10370	0.95098
3132.04989	0.95102
3129.99609	0.95121
3127.94229	0.95157
3125.88848	0.95158
3123.83468	0.95151
3121.78088	0.95170
3119.72707	0.95141
3117.67327	0.95088
3115.61947	0.95101
3113.56566	0.95142
3111.51186	0.95125
3109.45806	0.95052
3107.40426	0.94997
3105.35045	0.95002
3103.29665	0.95057
3101.24285	0.95127
3099.18904	0.95169
3097.13524	0.95168
3095.08144	0.95145
3093.02763	0.95113
3090.97383	0.95044
3088.92003	0.94952
3086.86622	0.94845
3084.81242	0.94703
3082.75862	0.94617
3080.70481	0.94663
3078.65101	0.94774
3076.59721	0.94875
3074.54340	0.94921
3072.48960	0.94882
3070.43580	0.94835
3068.38199	0.94809
3066.32819	0.94730
3064.27439	0.94612
3062.22058	0.94513
3060.16678	0.94439
3058.11298	0.94413
3056.05918	0.94474
3054.00537	0.94601
3051.95157	0.94732
3049.89777	0.94834
3047.84396	0.94902
3045.79016	0.94953
3043.73636	0.94991
3041.68255	0.94993
3039.62875	0.94958
3037.57495	0.94882
3035.52114	0.94717
3033.46734	0.94483
3031.41354	0.94220
3029.35973	0.93897
3027.30593	0.93608
3025.25213	0.93508
3023.19832	0.93629
3021.14452	0.93914
3019.09072	0.94238
3017.03691	0.94499
3014.98311	0.94720
3012.92931	0.94923
3010.87550	0.95050
3008.82170	0.95095
3006.76790	0.95087
3004.71409	0.95036
3002.66029	0.94985
3000.60649	0.94975
2998.55269	0.95025
2996.49888	0.95121
2994.44508	0.95203
2992.39128	0.95236
2990.33747	0.95245
2988.28367	0.95276
2986.22987	0.95343
2984.17606	0.95413
2982.12226	0.95451
2980.06846	0.95452
2978.01465	0.95436
2975.96085	0.95429
2973.90705	0.95442
2971.85324	0.95459
2969.79944	0.95472
2967.74564	0.95464
2965.69183	0.95403
2963.63803	0.95331
2961.58423	0.95299
2959.53042	0.95286
2957.47662	0.95281
2955.42282	0.95281
2953.36901	0.95244
2951.31521	0.95161
2949.26141	0.95099
2947.20761	0.95066
2945.15380	0.94992
2943.10000	0.94879
2941.04620	0.94749
2938.99239	0.94585
2936.93859	0.94388
2934.88479	0.94169
2932.83098	0.93935
2930.77718	0.93732
2928.72338	0.93594
2926.66957	0.93475
2924.61577	0.93338
2922.56197	0.93232
2920.50816	0.93178
2918.45436	0.93171
2916.40056	0.93231
2914.34675	0.93329
2912.29295	0.93421
2910.23915	0.93528
2908.18534	0.93659
2906.13154	0.93783
2904.07774	0.93897
2902.02393	0.94013
2899.97013	0.94161
2897.91633	0.94328
2895.86252	0.94448
2893.80872	0.94519
2891.75492	0.94597
2889.70112	0.94692
2887.64731	0.94768
2885.59351	0.94799
2883.53971	0.94815
2881.48590	0.94871
2879.43210	0.94961
2877.37830	0.95018
2875.32449	0.95021
2873.27069	0.95021
2871.21689	0.95051
2869.16308	0.95074
2867.10928	0.95066
2865.05548	0.95046
2863.00167	0.95038
2860.94787	0.95026
2858.89407	0.94990
2856.84026	0.94950
2854.78646	0.94891
2852.73266	0.94791
2850.67885	0.94719
2848.62505	0.94697
2846.57125	0.94680
2844.51744	0.94693
2842.46364	0.94771
2840.40984	0.94900
2838.35603	0.95042
2836.30223	0.95165
2834.24843	0.95279
2832.19463	0.95382
2830.14082	0.95437
2828.08702	0.95468
2826.03322	0.95488
2823.97941	0.95496
2821.92561	0.95518
2819.87181	0.95553
2817.81800	0.95550
2815.76420	0.95500
2813.71040	0.95473
2811.65659	0.95504
2809.60279	0.95562
2807.54899	0.95597
2805.49518	0.95609
2803.44138	0.95627
2801.38758	0.95635
2799.33377	0.95620
2797.27997	0.95613
2795.22617	0.95640
2793.17236	0.95681
2791.11856	0.95703
2789.06476	0.95710
2787.01095	0.95708
2784.95715	0.95696
2782.90335	0.95682
2780.84955	0.95681
2778.79574	0.95698
2776.74194	0.95733
2774.68814	0.95757
2772.63433	0.95745
2770.58053	0.95746
2768.52673	0.95779
2766.47292	0.95795
2764.41912	0.95783
2762.36532	0.95781
2760.31151	0.95782
2758.25771	0.95774
2756.20391	0.95777
2754.15010	0.95783
2752.09630	0.95790
2750.04250	0.95821
2747.98869	0.95869
2745.93489	0.95891
2743.88109	0.95853
2741.82728	0.95785
2739.77348	0.95772
2737.71968	0.95839
2735.66587	0.95909
2733.61207	0.95904
2731.55827	0.95851
2729.50446	0.95814
2727.45066	0.95807
2725.39686	0.95824
2723.34306	0.95844
2721.28925	0.95833
2719.23545	0.95813
2717.18165	0.95820
2715.12784	0.95830
2713.07404	0.95825
2711.02024	0.95835
2708.96643	0.95861
2706.91263	0.95879
2704.85883	0.95890
2702.80502	0.95896
2700.75122	0.95896
2698.69742	0.95902
2696.64361	0.95910
2694.58981	0.95910
2692.53601	0.95904
2690.48220	0.95887
2688.42840	0.95874
2686.37460	0.95880
2684.32079	0.95891
2682.26699	0.95895
2680.21319	0.95899
2678.15938	0.95898
2676.10558	0.95900
2674.05178	0.95925
2671.99797	0.95953
2669.94417	0.95955
2667.89037	0.95942
2665.83657	0.95940
2663.78276	0.95947
2661.72896	0.95963
2659.67516	0.95970
2657.62135	0.95941
2655.56755	0.95912
2653.51375	0.95913
2651.45994	0.95913
2649.40614	0.95900
2647.35234	0.95898
2645.29853	0.95927
2643.24473	0.95977
2641.19093	0.95971
2639.13712	0.95911
2637.08332	0.95895
2635.02952	0.95927
2632.97571	0.95955
2630.92191	0.95950
2628.86811	0.95934
2626.81430	0.95953
2624.76050	0.95983
2622.70670	0.95993
2620.65289	0.95990
2618.59909	0.95990
2616.54529	0.96031
2614.49149	0.96098
2612.43768	0.96113
2610.38388	0.96094
2608.33008	0.96098
2606.27627	0.96110
2604.22247	0.96080
2602.16867	0.96035
2600.11486	0.96053
2598.06106	0.96074
2596.00726	0.96038
2593.95345	0.96018
2591.89965	0.96047
2589.84585	0.96093
2587.79204	0.96102
2585.73824	0.96074
2583.68444	0.96057
2581.63063	0.96056
2579.57683	0.96054
2577.52303	0.96070
2575.46922	0.96097
2573.41542	0.96106
2571.36162	0.96089
2569.30781	0.96094
2567.25401	0.96168
2565.20021	0.96233
2563.14640	0.96234
2561.09260	0.96201
2559.03880	0.96176
2556.98500	0.96191
2554.93119	0.96211
2552.87739	0.96197
2550.82359	0.96170
2548.76978	0.96167
2546.71598	0.96184
2544.66218	0.96199
2542.60837	0.96197
2540.55457	0.96184
2538.50077	0.96192
2536.44696	0.96211
2534.39316	0.96201
2532.33936	0.96159
2530.28555	0.96123
2528.23175	0.96096
2526.17795	0.96101
2524.12414	0.96150
2522.07034	0.96199
2520.01654	0.96194
2517.96273	0.96108
2515.90893	0.96043
2513.85513	0.96114
2511.80132	0.96239
2509.74752	0.96319
2507.69372	0.96339
2505.63992	0.96295
2503.58611	0.96234
2501.53231	0.96211
2499.47851	0.96216
2497.42470	0.96237
2495.37090	0.96240
2493.31710	0.96178
2491.26329	0.96134
2489.20949	0.96208
2487.15569	0.96315
2485.10188	0.96281
2483.04808	0.96152
2480.99428	0.96094
2478.94047	0.96112
2476.88667	0.96184
2474.83287	0.96266
2472.77906	0.96286
2470.72526	0.96280
2468.67146	0.96270
2466.61765	0.96256
2464.56385	0.96259
2462.51005	0.96264
2460.45624	0.96225
2458.40244	0.96175
2456.34864	0.96199
2454.29483	0.96258
2452.24103	0.96251
2450.18723	0.96211
2448.13343	0.96208
2446.07962	0.96228
2444.02582	0.96230
2441.97202	0.96203
2439.91821	0.96195
2437.86441	0.96226
2435.81061	0.96241
2433.75680	0.96206
2431.70300	0.96209
2429.64920	0.96321
2427.59539	0.96436
2425.54159	0.96438
2423.48779	0.96411
2421.43398	0.96429
2419.38018	0.96405
2417.32638	0.96338
2415.27257	0.96309
2413.21877	0.96305
2411.16497	0.96290
2409.11116	0.96276
2407.05736	0.96284
2405.00356	0.96312
2402.94975	0.96364
2400.89595	0.96398
2398.84215	0.96368
2396.78834	0.96332
2394.73454	0.96329
2392.68074	0.96329
2390.62694	0.96356
2388.57313	0.96404
2386.51933	0.96402
2384.46553	0.96376
2382.41172	0.96378
2380.35792	0.96373
2378.30412	0.96342
2376.25031	0.96335
2374.19651	0.96360
2372.14271	0.96341
2370.08890	0.96285
2368.03510	0.96287
2365.98130	0.96332
2363.92749	0.96340
2361.87369	0.96280
2359.81989	0.96219
2357.76608	0.96272
2355.71228	0.96367
2353.65848	0.96362
2351.60467	0.96312
2349.55087	0.96307
2347.49707	0.96301
2345.44326	0.96241
2343.38946	0.96185
2341.33566	0.96187
2339.28186	0.96221
2337.22805	0.96298
2335.17425	0.96391
2333.12045	0.96400
2331.06664	0.96313
2329.01284	0.96225
2326.95904	0.96154
2324.90523	0.96064
2322.85143	0.96020
2320.79763	0.96040
2318.74382	0.96120
2316.69002	0.96289
2314.63622	0.96428
2312.58241	0.96458
2310.52861	0.96423
2308.47481	0.96333
2306.42100	0.96264
2304.36720	0.96278
2302.31340	0.96275
2300.25959	0.96233
2298.20579	0.96221
2296.15199	0.96283
2294.09818	0.96422
2292.04438	0.96514
2289.99058	0.96470
2287.93677	0.96397
2285.88297	0.96367
2283.82917	0.96308
2281.77537	0.96214
2279.72156	0.96140
2277.66776	0.96071
2275.61396	0.96056
2273.56015	0.96170
2271.50635	0.96317
2269.45255	0.96391
2267.39874	0.96387
2265.34494	0.96353
2263.29114	0.96373
2261.23733	0.96390
2259.18353	0.96312
2257.12973	0.96307
2255.07592	0.96433
2253.02212	0.96487
2250.96832	0.96440
2248.91451	0.96419
2246.86071	0.96455
2244.80691	0.96473
2242.75310	0.96393
2240.69930	0.96359
2238.64550	0.96483
2236.59169	0.96528
2234.53789	0.96428
2232.48409	0.96407
2230.43029	0.96488
2228.37648	0.96595
2226.32268	0.96663
2224.26888	0.96542
2222.21507	0.96356
2220.16127	0.96368
2218.10747	0.96475
2216.05366	0.96521
2213.99986	0.96582
2211.94606	0.96661
2209.89225	0.96653
2207.83845	0.96538
2205.78465	0.96448
2203.73084	0.96462
2201.67704	0.96437
2199.62324	0.96396
2197.56943	0.96455
2195.51563	0.96545
2193.46183	0.96597
2191.40802	0.96546
2189.35422	0.96513
2187.30042	0.96618
2185.24661	0.96612
2183.19281	0.96537
2181.13901	0.96674
2179.08520	0.96786
2177.03140	0.96669
2174.97760	0.96501
2172.92380	0.96437
2170.86999	0.96548
2168.81619	0.96722
2166.76239	0.96757
2164.70858	0.96697
2162.65478	0.96700
2160.60098	0.96907
2158.54717	0.97212
2156.49337	0.97245
2154.43957	0.97141
2152.38576	0.97174
2150.33196	0.97150
2148.27816	0.96980
2146.22435	0.96959
2144.17055	0.97042
2142.11675	0.96969
2140.06294	0.96896
2138.00914	0.96942
2135.95534	0.96924
2133.90153	0.96779
2131.84773	0.96715
2129.79393	0.96795
2127.74012	0.96819
2125.68632	0.96776
2123.63252	0.96779
2121.57871	0.96775
2119.52491	0.96767
2117.47111	0.96806
2115.41731	0.96830
2113.36350	0.96779
2111.30970	0.96635
2109.25590	0.96473
2107.20209	0.96477
2105.14829	0.96655
2103.09449	0.96770
2101.04068	0.96758
2098.98688	0.96767
2096.93308	0.96804
2094.87927	0.96780
2092.82547	0.96725
2090.77167	0.96751
2088.71786	0.96857
2086.66406	0.96870
2084.61026	0.96703
2082.55645	0.96566
2080.50265	0.96615
2078.44885	0.96727
2076.39504	0.96763
2074.34124	0.96712
2072.28744	0.96648
2070.23363	0.96644
2068.17983	0.96691
2066.12603	0.96780
2064.07223	0.96927
2062.01842	0.96996
2059.96462	0.96956
2057.91082	0.96909
2055.85701	0.96827
2053.80321	0.96735
2051.74941	0.96667
2049.69560	0.96729
2047.64180	0.96965
2045.58800	0.97052
2043.53419	0.96890
2041.48039	0.96784
2039.42659	0.96869
2037.37278	0.96947
2035.31898	0.96921
2033.26518	0.96915
2031.21137	0.96948
2029.15757	0.97044
2027.10377	0.97166
2025.04996	0.97168
2022.99616	0.97140
2020.94236	0.97196
2018.88855	0.97199
2016.83475	0.97007
2014.78095	0.96812
2012.72714	0.96856
2010.67334	0.96975
2008.61954	0.96956
2006.56574	0.96954
2004.51193	0.97076
2002.45813	0.97145
2000.40433	0.97065
1998.35052	0.96944
1996.29672	0.96945
1994.24292	0.97013
1992.18911	0.97010
1990.13531	0.96953
1988.08151	0.96904
1986.02770	0.96919
1983.97390	0.96970
1981.92010	0.96932
1979.86629	0.96986
1977.81249	0.97421
1975.75869	0.97713
1973.70488	0.97424
1971.65108	0.97142
1969.59728	0.97196
1967.54347	0.97252
1965.48967	0.97075
1963.43587	0.96804
1961.38206	0.96672
1959.32826	0.96700
1957.27446	0.96783
1955.22066	0.96837
1953.16685	0.96773
1951.11305	0.96649
1949.05925	0.96653
1947.00544	0.96849
1944.95164	0.96940
1942.89784	0.96732
1940.84403	0.96580
1938.79023	0.96672
1936.73643	0.96837
1934.68262	0.96936
1932.62882	0.96888
1930.57502	0.96755
1928.52121	0.96691
1926.46741	0.96706
1924.41361	0.96746
1922.35980	0.96754
1920.30600	0.96762
1918.25220	0.96834
1916.19839	0.96867
1914.14459	0.96871
1912.09079	0.96966
1910.03698	0.97032
1907.98318	0.96904
1905.92938	0.96749
1903.87557	0.96739
1901.82177	0.96789
1899.76797	0.96797
1897.71417	0.96793
1895.66036	0.96807
1893.60656	0.96751
1891.55276	0.96671
1889.49895	0.96678
1887.44515	0.96690
1885.39135	0.96635
1883.33754	0.96587
1881.28374	0.96616
1879.22994	0.96698
1877.17613	0.96759
1875.12233	0.96722
1873.06853	0.96614
1871.01472	0.96582
1868.96092	0.96632
1866.90712	0.96651
1864.85331	0.96635
1862.79951	0.96591
1860.74571	0.96550
1858.69190	0.96597
1856.63810	0.96715
1854.58430	0.96809
1852.53049	0.96828
1850.47669	0.96801
1848.42289	0.96782
1846.36908	0.96764
1844.31528	0.96776
1842.26148	0.96838
1840.20768	0.96884
1838.15387	0.96883
1836.10007	0.96827
1834.04627	0.96750
1831.99246	0.96702
1829.93866	0.96713
1827.88486	0.96775
1825.83105	0.96841
1823.77725	0.96855
1821.72345	0.96792
1819.66964	0.96745
1817.61584	0.96762
1815.56204	0.96762
1813.50823	0.96707
1811.45443	0.96647
1809.40063	0.96594
1807.34682	0.96544
1805.29302	0.96525
1803.23922	0.96531
1801.18541	0.96538
1799.13161	0.96554
1797.07781	0.96561
1795.02400	0.96548
1792.97020	0.96553
1790.91640	0.96593
1788.86260	0.96631
1786.80879	0.96632
1784.75499	0.96599
1782.70119	0.96568
1780.64738	0.96570
1778.59358	0.96598
1776.53978	0.96618
1774.48597	0.96626
1772.43217	0.96621
1770.37837	0.96614
1768.32456	0.96643
1766.27076	0.96696
1764.21696	0.96714
1762.16315	0.96696
1760.10935	0.96688
1758.05555	0.96691
1756.00174	0.96680
1753.94794	0.96657
1751.89414	0.96619
1749.84033	0.96582
1747.78653	0.96593
1745.73273	0.96627
1743.67892	0.96624
1741.62512	0.96571
1739.57132	0.96507
1737.51751	0.96495
1735.46371	0.96511
1733.40991	0.96467
1731.35611	0.96414
1729.30230	0.96430
1727.24850	0.96461
1725.19470	0.96473
1723.14089	0.96474
1721.08709	0.96475
1719.03329	0.96452
1716.97948	0.96413
1714.92568	0.96437
1712.87188	0.96488
1710.81807	0.96507
1708.76427	0.96498
1706.71047	0.96480
1704.65666	0.96467
1702.60286	0.96456
1700.54906	0.96414
1698.49525	0.96353
1696.44145	0.96312
1694.38765	0.96243
1692.33384	0.96160
1690.28004	0.96090
1688.22624	0.96031
1686.17243	0.96000
1684.11863	0.95975
1682.06483	0.95893
1680.01103	0.95800
1677.95722	0.95720
1675.90342	0.95662
1673.84962	0.95638
1671.79581	0.95607
1669.74201	0.95533
1667.68821	0.95464
1665.63440	0.95430
1663.58060	0.95392
1661.52680	0.95360
1659.47299	0.95365
1657.41919	0.95384
1655.36539	0.95401
1653.31158	0.95392
1651.25778	0.95325
1649.20398	0.95265
1647.15017	0.95220
1645.09637	0.95219
1643.04257	0.95259
1640.98876	0.95307
1638.93496	0.95358
1636.88116	0.95380
1634.82735	0.95333
1632.77355	0.95310
1630.71975	0.95335
1628.66594	0.95355
1626.61214	0.95360
1624.55834	0.95370
1622.50454	0.95389
1620.45073	0.95412
1618.39693	0.95432
1616.34313	0.95442
1614.28932	0.95444
1612.23552	0.95410
1610.18172	0.95304
1608.12791	0.95101
1606.07411	0.94793
1604.02031	0.94431
1601.96650	0.94148
1599.91270	0.94123
1597.85890	0.94356
1595.80509	0.94679
1593.75129	0.94975
1591.69749	0.95212
1589.64368	0.95353
1587.58988	0.95374
1585.53608	0.95311
1583.48227	0.95252
1581.42847	0.95298
1579.37467	0.95433
1577.32086	0.95547
1575.26706	0.95626
1573.21326	0.95708
1571.15945	0.95759
1569.10565	0.95759
1567.05185	0.95757
1564.99805	0.95773
1562.94424	0.95786
1560.89044	0.95782
1558.83664	0.95748
1556.78283	0.95713
1554.72903	0.95699
1552.67523	0.95685
1550.62142	0.95657
1548.56762	0.95616
1546.51382	0.95581
1544.46001	0.95564
1542.40621	0.95580
1540.35241	0.95548
1538.29860	0.95439
1536.24480	0.95378
1534.19100	0.95342
1532.13719	0.95302
1530.08339	0.95271
1528.02959	0.95249
1525.97578	0.95206
1523.92198	0.95163
1521.86818	0.95135
1519.81437	0.95066
1517.76057	0.94964
1515.70677	0.94891
1513.65297	0.94864
1511.59916	0.94834
1509.54536	0.94781
1507.49156	0.94676
1505.43775	0.94491
1503.38395	0.94343
1501.33015	0.94167
1499.27634	0.93722
1497.22254	0.92574
1495.16874	0.90911
1493.11493	0.89892
1491.06113	0.90059
1489.00733	0.91183
1486.95352	0.92141
1484.89972	0.92623
1482.84592	0.92921
1480.79211	0.93120
1478.73831	0.93229
1476.68451	0.93288
1474.63070	0.93330
1472.57690	0.93378
1470.52310	0.93453
1468.46929	0.93533
1466.41549	0.93601
1464.36169	0.93637
1462.30788	0.93624
1460.25408	0.93533
1458.20028	0.93026
1456.14648	0.91578
1454.09267	0.90224
1452.03887	0.89686
1449.98507	0.89938
1447.93126	0.90674
1445.87746	0.91395
1443.82366	0.91941
1441.76985	0.92402
1439.71605	0.92794
1437.66225	0.93126
1435.60844	0.93416
1433.55464	0.93619
1431.50084	0.93771
1429.44703	0.93925
1427.39323	0.94068
1425.33943	0.94185
1423.28562	0.94303
1421.23182	0.94415
1419.17802	0.94516
1417.12421	0.94647
1415.07041	0.94789
1413.01661	0.94899
1410.96280	0.94979
1408.90900	0.95049
1406.85520	0.95135
1404.80139	0.95244
1402.74759	0.95332
1400.69379	0.95396
1398.63999	0.95467
1396.58618	0.95545
1394.53238	0.95614
1392.47858	0.95657
1390.42477	0.95662
1388.37097	0.95634
1386.31717	0.95605
1384.26336	0.95576
1382.20956	0.95525
1380.15576	0.95458
1378.10195	0.95405
1376.04815	0.95399
1373.99435	0.95430
1371.94054	0.95454
1369.88674	0.95462
1367.83294	0.95475
1365.77913	0.95512
1363.72533	0.95547
1361.67153	0.95584
1359.61772	0.95652
1357.56392	0.95719
1355.51012	0.95764
1353.45631	0.95795
1351.40251	0.95796
1349.34871	0.95771
1347.29491	0.95775
1345.24110	0.95809
1343.18730	0.95860
1341.13350	0.95932
1339.07969	0.95985
1337.02589	0.95993
1334.97209	0.95985
1332.91828	0.95972
1330.86448	0.95940
1328.81068	0.95919
1326.75687	0.95922
1324.70307	0.95916
1322.64927	0.95908
1320.59546	0.95924
1318.54166	0.95955
1316.48786	0.95974
1314.43405	0.95965
1312.38025	0.95930
1310.32645	0.95906
1308.27264	0.95932
1306.21884	0.95981
1304.16504	0.96004
1302.11123	0.96032
1300.05743	0.96078
1298.00363	0.96085
1295.94982	0.96076
1293.89602	0.96092
1291.84222	0.96109
1289.78842	0.96099
1287.73461	0.96065
1285.68081	0.96035
1283.62701	0.96018
1281.57320	0.95998
1279.51940	0.95987
1277.46560	0.95999
1275.41179	0.96018
1273.35799	0.96006
1271.30419	0.95966
1269.25038	0.95943
1267.19658	0.95952
1265.14278	0.95975
1263.08897	0.95980
1261.03517	0.95947
1258.98137	0.95893
1256.92756	0.95863
1254.87376	0.95850
1252.81996	0.95837
1250.76615	0.95811
1248.71235	0.95753
1246.65855	0.95696
1244.60474	0.95672
1242.55094	0.95650
1240.49714	0.95607
1238.44334	0.95545
1236.38953	0.95489
1234.33573	0.95447
1232.28193	0.95401
1230.22812	0.95345
1228.17432	0.95285
1226.12052	0.95202
1224.06671	0.95090
1222.01291	0.94977
1219.95911	0.94857
1217.90530	0.94692
1215.85150	0.94468
1213.79770	0.94216
1211.74389	0.93992
1209.69009	0.93783
1207.63629	0.93551
1205.58248	0.93297
1203.52868	0.93015
1201.47488	0.92683
1199.42107	0.92323
1197.36727	0.91987
1195.31347	0.91687
1193.25966	0.91395
1191.20586	0.91073
1189.15206	0.90711
1187.09825	0.90315
1185.04445	0.89893
1182.99065	0.89466
1180.93685	0.89065
1178.88304	0.88724
1176.82924	0.88428
1174.77544	0.88135
1172.72163	0.87833
1170.66783	0.87492
1168.61403	0.87111
1166.56022	0.86746
1164.50642	0.86439
1162.45262	0.86215
1160.39881	0.86079
1158.34501	0.85956
1156.29121	0.85751
1154.23740	0.85477
1152.18360	0.85231
1150.12980	0.85058
1148.07599	0.84926
1146.02219	0.84788
1143.96839	0.84608
1141.91458	0.84395
1139.86078	0.84187
1137.80698	0.83972
1135.75317	0.83728
1133.69937	0.83455
1131.64557	0.83133
1129.59176	0.82774
1127.53796	0.82428
1125.48416	0.82080
1123.43036	0.81676
1121.37655	0.81217
1119.32275	0.80696
1117.26895	0.80094
1115.21514	0.79447
1113.16134	0.78808
1111.10754	0.78234
1109.05373	0.77718
1106.99993	0.77238
1104.94613	0.76828
1102.89232	0.76481
1100.83852	0.76134
1098.78472	0.75765
1096.73091	0.75403
1094.67711	0.75076
1092.62331	0.74814
1090.56950	0.74614
1088.51570	0.74431
1086.46190	0.74221
1084.40809	0.73971
1082.35429	0.73714
1080.30049	0.73485
1078.24668	0.73287
1076.19288	0.73081
1074.13908	0.72792
1072.08528	0.72407
1070.03147	0.71997
1067.97767	0.71571
1065.92387	0.71119
1063.87006	0.70658
1061.81626	0.70157
1059.76246	0.69631
1057.70865	0.69133
1055.65485	0.68602
1053.60105	0.67968
1051.54724	0.67266
1049.49344	0.66506
1047.43964	0.65622
1045.38583	0.64604
1043.33203	0.63515
1041.27823	0.62394
1039.22442	0.61280
1037.17062	0.60214
1035.11682	0.59180
1033.06301	0.58146
1031.00921	0.57125
1028.95541	0.56225
1026.90160	0.55563
1024.84780	0.55135
1022.79400	0.54827
1020.74019	0.54519
1018.68639	0.54162
1016.63259	0.53767
1014.57879	0.53354
1012.52498	0.52927
1010.47118	0.52528
1008.41738	0.52170
1006.36357	0.51817
1004.30977	0.51502
1002.25597	0.51319
1000.20216	0.51274
998.14836	0.51327
996.09456	0.51468
994.04075	0.51669
991.98695	0.51914
989.93315	0.52209
987.87934	0.52575
985.82554	0.53038
983.77174	0.53588
981.71793	0.54203
979.66413	0.54948
977.61033	0.55862
975.55652	0.56882
973.50272	0.57965
971.44892	0.59106
969.39511	0.60289
967.34131	0.61467
965.28751	0.62595
963.23371	0.63649
961.17990	0.64654
959.12610	0.65651
957.07230	0.66598
955.01849	0.67446
952.96469	0.68204
950.91089	0.68888
948.85708	0.69496
946.80328	0.70046
944.74948	0.70586
942.69567	0.71124
940.64187	0.71639
938.58807	0.72109
936.53426	0.72532
934.48046	0.72959
932.42666	0.73424
930.37285	0.73894
928.31905	0.74310
926.26525	0.74613
924.21144	0.74807
922.15764	0.74926
920.10384	0.74976
918.05003	0.74981
915.99623	0.74919
913.94243	0.74794
911.88862	0.74738
909.83482	0.74848
907.78102	0.75175
905.72722	0.75757
903.67341	0.76555
901.61961	0.77489
899.56581	0.78479
897.51200	0.79425
895.45820	0.80256
893.40440	0.80973
891.35059	0.81610
889.29679	0.82180
887.24299	0.82646
885.18918	0.82978
883.13538	0.83207
881.08158	0.83313
879.02777	0.83323
876.97397	0.83454
874.92017	0.83847
872.86636	0.84374
870.81256	0.84836
868.75876	0.85175
866.70495	0.85432
864.65115	0.85607
862.59735	0.85788
860.54354	0.86085
858.48974	0.86455
856.43594	0.86851
854.38213	0.87232
852.32833	0.87576
850.27453	0.87866
848.22073	0.88025
846.16692	0.88045
844.11312	0.87997
842.05932	0.87932
840.00551	0.87869
837.95171	0.87773
835.89791	0.87658
833.84410	0.87617
831.79030	0.87634
829.73650	0.87651
827.68269	0.87702
825.62889	0.87765
823.57509	0.87821
821.52128	0.87952
819.46748	0.88133
817.41368	0.88255
815.35987	0.88238
813.30607	0.88045
811.25227	0.87714
809.19846	0.87212
807.14466	0.86474
805.09086	0.85571
803.03705	0.84625
800.98325	0.83829
798.92945	0.83479
796.87565	0.83591
794.82184	0.83861
792.76804	0.84104
790.71424	0.84277
788.66043	0.84324
786.60663	0.84163
784.55283	0.83831
782.49902	0.83466
780.44522	0.83134
778.39142	0.82931
776.33761	0.82903
774.28381	0.82877
772.23001	0.82646
770.17620	0.82141
768.12240	0.81425
766.06860	0.80596
764.01479	0.79722
761.96099	0.78847
759.90719	0.78047
757.85338	0.77432
755.79958	0.77051
753.74578	0.76932
751.69197	0.77046
749.63817	0.77243
747.58437	0.77518
745.53056	0.78044
743.47676	0.78906
741.42296	0.80010
739.36916	0.81140
737.31535	0.82176
735.26155	0.83103
733.20775	0.83801
731.15394	0.84250
729.10014	0.84520
727.04634	0.84674
724.99253	0.84863
722.93873	0.85129
720.88493	0.85425
718.83112	0.85754
716.77732	0.86010
714.72352	0.86020
712.66971	0.85784
710.61591	0.85214
708.56211	0.83897
706.50830	0.81457
704.45450	0.77692
702.40070	0.72640
700.34689	0.66829
698.29309	0.61521
696.23929	0.59005
694.18548	0.61140
692.13168	0.66623
690.07788	0.72088
688.02408	0.75688
685.97027	0.77699
683.91647	0.78884
681.86267	0.79632
679.80886	0.80163
677.75506	0.80632
675.70126	0.81001
673.64745	0.81214
671.59365	0.81306
669.53985	0.81385
667.48604	0.81586
665.43224	0.81734
663.37844	0.81725
661.32463	0.81660
659.27083	0.81516
657.21703	0.81221
655.16322	0.80823
653.10942	0.80393
651.05562	0.80072
649.00181	0.79966
646.94801	0.80033
644.89421	0.80216
642.84040	0.80430
640.78660	0.80652
638.73280	0.80955
636.67899	0.81279
634.62519	0.81471
632.57139	0.81537
630.51759	0.81583
628.46378	0.81655
626.40998	0.81717
624.35618	0.81633
622.30237	0.81356
620.24857	0.80993
618.19477	0.80565
616.14096	0.80104
614.08716	0.79729
612.03336	0.79451
609.97955	0.79193
607.92575	0.78840
605.87195	0.78413
603.81814	0.78059
601.76434	0.77696
599.71054	0.77254
597.65673	0.76822
595.60293	0.76399
593.54913	0.75980
591.49532	0.75597
589.44152	0.75313
587.38772	0.75196
585.33391	0.75075
583.28011	0.74762
581.22631	0.74491
579.17250	0.74509
577.11870	0.74583
575.06490	0.74407
573.01110	0.73955
570.95729	0.73350
568.90349	0.72806
566.84969	0.72365
564.79588	0.71794
562.74208	0.71029
560.68828	0.70262
558.63447	0.69502
556.58067	0.68616
554.52687	0.67734
552.47306	0.66956
550.41926	0.66095
548.36546	0.64989
546.31165	0.63668
544.25785	0.62255
542.20405	0.60857
540.15024	0.59445
538.09644	0.58107
536.04264	0.57142
533.98883	0.56559
531.93503	0.56199
529.88123	0.56065
527.82742	0.56189
525.77362	0.56413
523.71982	0.56564
521.66602	0.56887
519.61221	0.57470
517.55841	0.58019
515.50461	0.58536
513.45080	0.59131
511.39700	0.59724
509.34320	0.60351
507.28939	0.61066
505.23559	0.61723
503.18179	0.62026
501.12798	0.61970
499.07418	0.61928
497.02038	0.61977
494.96657	0.61819
492.91277	0.61232
490.85897	0.60305
488.80516	0.59192
486.75136	0.57816
484.69756	0.56159
482.64375	0.54375
480.58995	0.52473
478.53615	0.50542
476.48234	0.48649
474.42854	0.46753
472.37474	0.45169
470.32093	0.44126
468.26713	0.43279
466.21333	0.42587
464.15953	0.42367
462.10572	0.42583
460.05192	0.42962
457.99812	0.43468
455.94431	0.44299
453.89051	0.45234
451.83671	0.45827
449.78290	0.46380
447.72910	0.47292
445.67530	0.48168
443.62149	0.48585
441.56769	0.48621
439.51389	0.48513
437.46008	0.48213
435.40628	0.47623
433.35248	0.46961
431.29867	0.46526
429.24487	0.46213
427.19107	0.45723
425.13726	0.45306
423.08346	0.45261
421.02966	0.45321
418.97585	0.45586
416.92205	0.46583
414.86825	0.47656
412.81445	0.48186
410.76064	0.48474
408.70684	0.49309
406.65304	0.50529
404.59923	0.51183
402.54543	0.51107
400.49163	0.50638
398.43782	0.49830
