3996.71440	0.97216
3994.66059	0.97181
3992.60678	0.97163
3990.55297	0.97176
3988.49916	0.97192
3986.44535	0.97190
3984.39154	0.97183
3982.33773	0.97197
3980.28391	0.97224
3978.23010	0.97236
3976.17629	0.97232
3974.12248	0.97224
3972.06867	0.97216
3970.01486	0.97221
3967.96105	0.97224
3965.90724	0.97198
3963.85343	0.97194
3961.79962	0.97230
3959.74581	0.97249
3957.69200	0.97242
3955.63819	0.97250
3953.58438	0.97277
3951.53057	0.97296
3949.47676	0.97296
3947.42295	0.97270
3945.36914	0.97237
3943.31533	0.97242
3941.26152	0.97259
3939.20771	0.97233
3937.15390	0.97195
3935.10009	0.97201
3933.04628	0.97233
3930.99247	0.97239
3928.93866	0.97249
3926.88485	0.97275
3924.83104	0.97275
3922.77723	0.97252
3920.72342	0.97243
3918.66961	0.97230
3916.61580	0.97205
3914.56199	0.97203
3912.50818	0.97218
3910.45437	0.97242
3908.40056	0.97259
3906.34675	0.97253
3904.29294	0.97268
3902.23913	0.97298
3900.18532	0.97293
3898.13151	0.97275
3896.07770	0.97268
3894.02389	0.97270
3891.97008	0.97269
3889.91627	0.97273
3887.86246	0.97297
3885.80865	0.97320
3883.75484	0.97326
3881.70103	0.97337
3879.64722	0.97343
3877.59341	0.97325
3875.53960	0.97291
3873.48579	0.97264
3871.43198	0.97262
3869.37817	0.97266
3867.32436	0.97256
3865.27055	0.97240
3863.21674	0.97214
3861.16293	0.97193
3859.10912	0.97202
3857.05531	0.97225
3855.00150	0.97223
3852.94769	0.97223
3850.89388	0.97248
3848.84007	0.97255
3846.78626	0.97261
3844.73245	0.97289
3842.67864	0.97328
3840.62483	0.97359
3838.57102	0.97367
3836.51721	0.97337
3834.46340	0.97313
3832.40959	0.97319
3830.35578	0.97347
3828.30197	0.97353
3826.24816	0.97325
3824.19435	0.97304
3822.14054	0.97276
3820.08673	0.97230
3818.03292	0.97210
3815.97911	0.97213
3813.92530	0.97251
3811.87149	0.97303
3809.81768	0.97331
3807.76387	0.97324
3805.71006	0.97297
3803.65625	0.97282
3801.60244	0.97300
3799.54863	0.97318
3797.49482	0.97320
3795.44101	0.97334
3793.38720	0.97361
3791.33339	0.97368
3789.27958	0.97341
3787.22577	0.97325
3785.17196	0.97325
3783.11815	0.97303
3781.06434	0.97290
3779.01053	0.97308
3776.95672	0.97301
3774.90291	0.97277
3772.84910	0.97278
3770.79529	0.97309
3768.74148	0.97336
3766.68767	0.97348
3764.63386	0.97362
3762.58005	0.97367
3760.52624	0.97351
3758.47243	0.97321
3756.41862	0.97314
3754.36481	0.97334
3752.31100	0.97370
3750.25719	0.97448
3748.20338	0.97516
3746.14957	0.97521
3744.09576	0.97492
3742.04195	0.97467
3739.98814	0.97453
3737.93433	0.97438
3735.88052	0.97406
3733.82671	0.97360
3731.77290	0.97322
3729.71909	0.97312
3727.66528	0.97322
3725.61147	0.97340
3723.55766	0.97364
3721.50385	0.97383
3719.45004	0.97376
3717.39623	0.97350
3715.34242	0.97332
3713.28861	0.97307
3711.23480	0.97296
3709.18099	0.97325
3707.12718	0.97327
3705.07337	0.97276
3703.01956	0.97214
3700.96575	0.97186
3698.91194	0.97181
3696.85813	0.97182
3694.80432	0.97185
3692.75051	0.97196
3690.69670	0.97193
3688.64289	0.97138
3686.58907	0.97086
3684.53526	0.97077
3682.48145	0.97089
3680.42764	0.97105
3678.37383	0.97117
3676.32002	0.97096
3674.26621	0.97093
3672.21240	0.97151
3670.15859	0.97164
3668.10478	0.97102
3666.05097	0.97059
3663.99716	0.97068
3661.94335	0.97089
3659.88954	0.97070
3657.83573	0.97030
3655.78192	0.97007
3653.72811	0.96978
3651.67430	0.96946
3649.62049	0.96941
3647.56668	0.96944
3645.51287	0.96930
3643.45906	0.96902
3641.40525	0.96873
3639.35144	0.96848
3637.29763	0.96836
3635.24382	0.96859
3633.19001	0.96869
3631.13620	0.96826
3629.08239	0.96772
3627.02858	0.96753
3624.97477	0.96757
3622.92096	0.96742
3620.86715	0.96717
3618.81334	0.96706
3616.75953	0.96685
3614.70572	0.96664
3612.65191	0.96668
3610.59810	0.96707
3608.54429	0.96762
3606.49048	0.96747
3604.43667	0.96665
3602.38286	0.96618
3600.32905	0.96646
3598.27524	0.96707
3596.22143	0.96736
3594.16762	0.96723
3592.11381	0.96711
3590.06000	0.96708
3588.00619	0.96712
3585.95238	0.96735
3583.89857	0.96755
3581.84476	0.96740
3579.79095	0.96703
3577.73714	0.96692
3575.68333	0.96721
3573.62952	0.96734
3571.57571	0.96724
3569.52190	0.96736
3567.46809	0.96762
3565.41428	0.96764
3563.36047	0.96743
3561.30666	0.96727
3559.25285	0.96731
3557.19904	0.96720
3555.14523	0.96692
3553.09142	0.96686
3551.03761	0.96701
3548.98380	0.96687
3546.92999	0.96653
3544.87618	0.96644
3542.82237	0.96641
3540.76856	0.96627
3538.71475	0.96632
3536.66094	0.96639
3534.60713	0.96613
3532.55332	0.96576
3530.49951	0.96569
3528.44570	0.96577
3526.39189	0.96567
3524.33808	0.96572
3522.28427	0.96601
3520.23046	0.96616
3518.17665	0.96604
3516.12284	0.96590
3514.06903	0.96574
3512.01522	0.96542
3509.96141	0.96519
3507.90760	0.96529
3505.85379	0.96557
3503.79998	0.96582
3501.74617	0.96596
3499.69236	0.96582
3497.63855	0.96550
3495.58474	0.96544
3493.53093	0.96573
3491.47712	0.96587
3489.42331	0.96562
3487.36950	0.96530
3485.31569	0.96512
3483.26188	0.96512
3481.20807	0.96511
3479.15426	0.96476
3477.10045	0.96451
3475.04664	0.96478
3472.99283	0.96516
3470.93902	0.96520
3468.88521	0.96507
3466.83140	0.96491
3464.77759	0.96466
3462.72378	0.96463
3460.66997	0.96481
3458.61616	0.96489
3456.56235	0.96495
3454.50854	0.96504
3452.45473	0.96501
3450.40092	0.96500
3448.34711	0.96510
3446.29330	0.96502
3444.23949	0.96475
3442.18568	0.96454
3440.13187	0.96443
3438.07806	0.96446
3436.02425	0.96449
3433.97044	0.96434
3431.91663	0.96412
3429.86282	0.96407
3427.80901	0.96418
3425.75520	0.96417
3423.70139	0.96412
3421.64758	0.96421
3419.59377	0.96425
3417.53996	0.96425
3415.48615	0.96434
3413.43234	0.96439
3411.37853	0.96435
3409.32472	0.96417
3407.27091	0.96399
3405.21710	0.96400
3403.16329	0.96416
3401.10948	0.96427
3399.05567	0.96424
3397.00186	0.96417
3394.94805	0.96402
3392.89424	0.96374
3390.84042	0.96337
3388.78661	0.96320
3386.73280	0.96346
3384.67899	0.96385
3382.62518	0.96407
3380.57137	0.96415
3378.51756	0.96408
3376.46375	0.96373
3374.40994	0.96341
3372.35613	0.96343
3370.30232	0.96379
3368.24851	0.96431
3366.19470	0.96449
3364.14089	0.96426
3362.08708	0.96427
3360.03327	0.96444
3357.97946	0.96432
3355.92565	0.96422
3353.87184	0.96444
3351.81803	0.96458
3349.76422	0.96443
3347.71041	0.96429
3345.65660	0.96418
3343.60279	0.96418
3341.54898	0.96435
3339.49517	0.96442
3337.44136	0.96442
3335.38755	0.96450
3333.33374	0.96463
3331.27993	0.96474
3329.22612	0.96479
3327.17231	0.96488
3325.11850	0.96488
3323.06469	0.96457
3321.01088	0.96443
3318.95707	0.96449
3316.90326	0.96433
3314.84945	0.96423
3312.79564	0.96450
3310.74183	0.96485
3308.68802	0.96484
3306.63421	0.96462
3304.58040	0.96449
3302.52659	0.96464
3300.47278	0.96509
3298.41897	0.96529
3296.36516	0.96504
3294.31135	0.96479
3292.25754	0.96476
3290.20373	0.96495
3288.14992	0.96531
3286.09611	0.96571
3284.04230	0.96604
3281.98849	0.96613
3279.93468	0.96590
3277.88087	0.96547
3275.82706	0.96525
3273.77325	0.96550
3271.71944	0.96575
3269.66563	0.96573
3267.61182	0.96572
3265.55801	0.96589
3263.50420	0.96592
3261.45039	0.96560
3259.39658	0.96548
3257.34277	0.96577
3255.28896	0.96603
3253.23515	0.96596
3251.18134	0.96594
3249.12753	0.96627
3247.07372	0.96660
3245.01991	0.96661
3242.96610	0.96637
3240.91229	0.96626
3238.85848	0.96654
3236.80467	0.96686
3234.75086	0.96690
3232.69705	0.96682
3230.64324	0.96681
3228.58943	0.96672
3226.53562	0.96672
3224.48181	0.96699
3222.42800	0.96718
3220.37419	0.96710
3218.32038	0.96699
3216.26657	0.96706
3214.21276	0.96732
3212.15895	0.96757
3210.10514	0.96758
3208.05133	0.96728
3205.99752	0.96709
3203.94371	0.96734
3201.88990	0.96773
3199.83609	0.96782
3197.78228	0.96767
3195.72847	0.96779
3193.67466	0.96804
3191.62085	0.96806
3189.56704	0.96810
3187.51323	0.96816
3185.45942	0.96815
3183.40561	0.96828
3181.35180	0.96847
3179.29799	0.96842
3177.24418	0.96822
3175.19037	0.96825
3173.13656	0.96854
3171.08275	0.96886
3169.02894	0.96898
3166.97513	0.96888
3164.92132	0.96878
3162.86751	0.96874
3160.81370	0.96869
3158.75989	0.96866
3156.70608	0.96875
3154.65227	0.96905
3152.59846	0.96931
3150.54465	0.96934
3148.49084	0.96932
3146.43703	0.96943
3144.38322	0.96958
3142.32941	0.96958
3140.27560	0.96961
3138.22179	0.96967
3136.16798	0.96963
3134.11417	0.96962
3132.06036	0.96971
3130.00655	0.96993
3127.95274	0.97021
3125.89893	0.97039
3123.84512	0.97036
3121.79131	0.97024
3119.73750	0.97026
3117.68369	0.97043
3115.62988	0.97066
3113.57607	0.97080
3111.52226	0.97058
3109.46845	0.97023
3107.41464	0.97014
3105.36083	0.97017
3103.30702	0.97009
3101.25321	0.97009
3099.19940	0.97030
3097.14559	0.97046
3095.09177	0.97021
3093.03796	0.96978
3090.98415	0.96959
3088.93034	0.96972
3086.87653	0.97005
3084.82272	0.97032
3082.76891	0.97045
3080.71510	0.97055
3078.66129	0.97040
3076.60748	0.97003
3074.55367	0.96981
3072.49986	0.96971
3070.44605	0.96966
3068.39224	0.96992
3066.33843	0.97030
3064.28462	0.97044
3062.23081	0.97031
3060.17700	0.97008
3058.12319	0.96993
3056.06938	0.96990
3054.01557	0.96992
3051.96176	0.96998
3049.90795	0.97005
3047.85414	0.97019
3045.80033	0.97035
3043.74652	0.97037
3041.69271	0.97023
3039.63890	0.97000
3037.58509	0.96992
3035.53128	0.97005
3033.47747	0.97010
3031.42366	0.96990
3029.36985	0.96969
3027.31604	0.96967
3025.26223	0.96979
3023.20842	0.96996
3021.15461	0.97019
3019.10080	0.97031
3017.04699	0.97019
3014.99318	0.96998
3012.93937	0.96971
3010.88556	0.96956
3008.83175	0.96955
3006.77794	0.96956
3004.72413	0.96944
3002.67032	0.96929
3000.61651	0.96926
2998.56270	0.96917
2996.50889	0.96887
2994.45508	0.96846
2992.40127	0.96809
2990.34746	0.96772
2988.29365	0.96730
2986.23984	0.96662
2984.18603	0.96577
2982.13222	0.96508
2980.07841	0.96437
2978.02460	0.96313
2975.97079	0.96126
2973.91698	0.95917
2971.86317	0.95703
2969.80936	0.95439
2967.75555	0.95101
2965.70174	0.94729
2963.64793	0.94371
2961.59412	0.94049
2959.54031	0.93768
2957.48650	0.93527
2955.43269	0.93328
2953.37888	0.93162
2951.32507	0.92988
2949.27126	0.92751
2947.21745	0.92388
2945.16364	0.91823
2943.10983	0.91011
2941.05602	0.89965
2939.00221	0.88694
2936.94840	0.87164
2934.89459	0.85387
2932.84078	0.83386
2930.78697	0.81118
2928.73316	0.78531
2926.67935	0.75596
2924.62554	0.72273
2922.57173	0.68519
2920.51792	0.64457
2918.46411	0.60579
2916.41030	0.57830
2914.35649	0.57195
2912.30268	0.58836
2910.24887	0.61873
2908.19506	0.65168
2906.14125	0.68062
2904.08744	0.70402
2902.03363	0.72269
2899.97982	0.73796
2897.92601	0.75103
2895.87220	0.76298
2893.81839	0.77466
2891.76458	0.78653
2889.71077	0.79881
2887.65696	0.81149
2885.60315	0.82411
2883.54934	0.83612
2881.49553	0.84741
2879.44172	0.85786
2877.38791	0.86701
2875.33410	0.87427
2873.28029	0.87934
2871.22648	0.88254
2869.17267	0.88408
2867.11886	0.88333
2865.06505	0.87911
2863.01124	0.87039
2860.95743	0.85597
2858.90362	0.83398
2856.84981	0.80212
2854.79600	0.75846
2852.74219	0.70411
2850.68838	0.64902
2848.63457	0.61308
2846.58076	0.61264
2844.52695	0.64557
2842.47314	0.69517
2840.41933	0.74524
2838.36552	0.78770
2836.31171	0.82084
2834.25790	0.84582
2832.20409	0.86455
2830.15028	0.87889
2828.09647	0.89022
2826.04266	0.89941
2823.98885	0.90683
2821.93504	0.91276
2819.88123	0.91761
2817.82742	0.92170
2815.77361	0.92524
2813.71980	0.92825
2811.66599	0.93062
2809.61218	0.93267
2807.55837	0.93485
2805.50456	0.93696
2803.45075	0.93873
2801.39693	0.94028
2799.34312	0.94173
2797.28931	0.94307
2795.23550	0.94428
2793.18169	0.94542
2791.12788	0.94647
2789.07407	0.94744
2787.02026	0.94848
2784.96645	0.94957
2782.91264	0.95053
2780.85883	0.95131
2778.80502	0.95205
2776.75121	0.95278
2774.69740	0.95352
2772.64359	0.95435
2770.58978	0.95501
2768.53597	0.95536
2766.48216	0.95570
2764.42835	0.95612
2762.37454	0.95638
2760.32073	0.95643
2758.26692	0.95652
2756.21311	0.95683
2754.15930	0.95727
2752.10549	0.95767
2750.05168	0.95792
2747.99787	0.95821
2745.94406	0.95856
2743.89025	0.95873
2741.83644	0.95882
2739.78263	0.95892
2737.72882	0.95897
2735.67501	0.95901
2733.62120	0.95915
2731.56739	0.95936
2729.51358	0.95951
2727.45977	0.95972
2725.40596	0.96002
2723.35215	0.96023
2721.29834	0.96037
2719.24453	0.96064
2717.19072	0.96105
2715.13691	0.96139
2713.08310	0.96147
2711.02929	0.96140
2708.97548	0.96141
2706.92167	0.96153
2704.86786	0.96173
2702.81405	0.96196
2700.76024	0.96214
2698.70643	0.96232
2696.65262	0.96249
2694.59881	0.96251
2692.54500	0.96246
2690.49119	0.96246
2688.43738	0.96243
2686.38357	0.96241
2684.32976	0.96243
2682.27595	0.96253
2680.22214	0.96262
2678.16833	0.96258
2676.11452	0.96263
2674.06071	0.96268
2672.00690	0.96246
2669.95309	0.96218
2667.89928	0.96208
2665.84547	0.96221
2663.79166	0.96239
2661.73785	0.96223
2659.68404	0.96190
2657.63023	0.96190
2655.57642	0.96208
2653.52261	0.96205
2651.46880	0.96200
2649.41499	0.96212
2647.36118	0.96234
2645.30737	0.96249
2643.25356	0.96247
2641.19975	0.96251
2639.14594	0.96267
2637.09213	0.96276
2635.03832	0.96282
2632.98451	0.96293
2630.93070	0.96303
2628.87689	0.96318
2626.82308	0.96349
2624.76927	0.96375
2622.71546	0.96387
2620.66165	0.96413
2618.60784	0.96456
2616.55403	0.96505
2614.50022	0.96553
2612.44641	0.96576
2610.39260	0.96569
2608.33879	0.96554
2606.28498	0.96566
2604.23117	0.96603
2602.17736	0.96628
2600.12355	0.96632
2598.06974	0.96637
2596.01593	0.96656
2593.96212	0.96684
2591.90831	0.96717
2589.85450	0.96752
2587.80069	0.96771
2585.74688	0.96775
2583.69307	0.96776
2581.63926	0.96780
2579.58545	0.96791
2577.53164	0.96806
2575.47783	0.96832
2573.42402	0.96879
2571.37021	0.96907
2569.31640	0.96891
2567.26259	0.96876
2565.20878	0.96880
2563.15497	0.96887
2561.10116	0.96914
2559.04735	0.96952
2556.99354	0.96947
2554.93973	0.96918
2552.88592	0.96921
2550.83211	0.96922
2548.77830	0.96908
2546.72449	0.96917
2544.67068	0.96949
2542.61687	0.96976
2540.56306	0.96976
2538.50925	0.96956
2536.45544	0.96937
2534.40163	0.96921
2532.34782	0.96921
2530.29401	0.96957
2528.24020	0.97009
2526.18639	0.97030
2524.13258	0.97038
2522.07877	0.97053
2520.02496	0.97050
2517.97115	0.97020
2515.91734	0.97013
2513.86353	0.97050
2511.80972	0.97080
2509.75591	0.97081
2507.70210	0.97068
2505.64828	0.97062
2503.59447	0.97085
2501.54066	0.97111
2499.48685	0.97107
2497.43304	0.97116
2495.37923	0.97146
2493.32542	0.97142
2491.27161	0.97113
2489.21780	0.97103
2487.16399	0.97116
2485.11018	0.97120
2483.05637	0.97129
2481.00256	0.97167
2478.94875	0.97174
2476.89494	0.97137
2474.84113	0.97134
2472.78732	0.97148
2470.73351	0.97120
2468.67970	0.97102
2466.62589	0.97127
2464.57208	0.97138
2462.51827	0.97140
2460.46446	0.97172
2458.41065	0.97196
2456.35684	0.97175
2454.30303	0.97143
2452.24922	0.97163
2450.19541	0.97211
2448.14160	0.97211
2446.08779	0.97211
2444.03398	0.97253
2441.98017	0.97262
2439.92636	0.97224
2437.87255	0.97195
2435.81874	0.97200
2433.76493	0.97227
2431.71112	0.97255
2429.65731	0.97280
2427.60350	0.97287
2425.54969	0.97270
2423.49588	0.97259
2421.44207	0.97250
2419.38826	0.97221
2417.33445	0.97180
2415.28064	0.97147
2413.22683	0.97149
2411.17302	0.97184
2409.11921	0.97205
2407.06540	0.97201
2405.01159	0.97217
2402.95778	0.97242
2400.90397	0.97259
2398.85016	0.97277
2396.79635	0.97276
2394.74254	0.97252
2392.68873	0.97215
2390.63492	0.97165
2388.58111	0.97135
2386.52730	0.97158
2384.47349	0.97212
2382.41968	0.97239
2380.36587	0.97232
2378.31206	0.97230
2376.25825	0.97263
2374.20444	0.97301
2372.15063	0.97307
2370.09682	0.97311
2368.04301	0.97321
2365.98920	0.97319
2363.93539	0.97295
2361.88158	0.97213
2359.82777	0.97115
2357.77396	0.97125
2355.72015	0.97230
2353.66634	0.97265
2351.61253	0.97171
2349.55872	0.97070
2347.50491	0.97001
2345.45110	0.96941
2343.39729	0.96940
2341.34348	0.96982
2339.28967	0.97000
2337.23586	0.97022
2335.18205	0.97045
2333.12824	0.97022
2331.07443	0.96988
2329.02062	0.97001
2326.96681	0.97043
2324.91300	0.97043
2322.85919	0.96985
2320.80538	0.96944
2318.75157	0.96973
2316.69776	0.97012
2314.64395	0.97009
2312.59014	0.97046
2310.53633	0.97150
2308.48252	0.97181
2306.42871	0.97136
2304.37490	0.97149
2302.32109	0.97213
2300.26728	0.97239
2298.21347	0.97215
2296.15966	0.97191
2294.10585	0.97194
2292.05204	0.97180
2289.99823	0.97131
2287.94442	0.97093
2285.89061	0.97103
2283.83680	0.97129
2281.78299	0.97140
2279.72918	0.97183
2277.67537	0.97257
2275.62156	0.97290
2273.56775	0.97265
2271.51394	0.97233
2269.46013	0.97228
2267.40632	0.97206
2265.35251	0.97168
2263.29870	0.97195
2261.24489	0.97292
2259.19108	0.97358
2257.13727	0.97332
2255.08346	0.97262
2253.02965	0.97247
2250.97584	0.97287
2248.92203	0.97308
2246.86822	0.97297
2244.81441	0.97266
2242.76060	0.97211
2240.70679	0.97167
2238.65298	0.97182
2236.59917	0.97224
2234.54536	0.97257
2232.49155	0.97289
2230.43774	0.97313
2228.38393	0.97323
2226.33012	0.97307
2224.27631	0.97335
2222.22250	0.97418
2220.16869	0.97437
2218.11488	0.97380
2216.06107	0.97339
2214.00726	0.97366
2211.95344	0.97461
2209.89963	0.97573
2207.84582	0.97648
2205.79201	0.97654
2203.73820	0.97612
2201.68439	0.97634
2199.63058	0.97675
2197.57677	0.97611
2195.52296	0.97505
2193.46915	0.97438
2191.41534	0.97421
2189.36153	0.97435
2187.30772	0.97445
2185.25391	0.97423
2183.20010	0.97434
2181.14629	0.97515
2179.09248	0.97600
2177.03867	0.97655
2174.98486	0.97674
2172.93105	0.97614
2170.87724	0.97499
2168.82343	0.97417
2166.76962	0.97348
2164.71581	0.97289
2162.66200	0.97301
2160.60819	0.97363
2158.55438	0.97491
2156.50057	0.97577
2154.44676	0.97490
2152.39295	0.97426
2150.33914	0.97491
2148.28533	0.97556
2146.23152	0.97593
2144.17771	0.97654
2142.12390	0.97664
2140.07009	0.97604
2138.01628	0.97600
2135.96247	0.97648
2133.90866	0.97663
2131.85485	0.97633
2129.80104	0.97564
2127.74723	0.97497
2125.69342	0.97490
2123.63961	0.97535
2121.58580	0.97564
2119.53199	0.97559
2117.47818	0.97533
2115.42437	0.97467
2113.37056	0.97404
2111.31675	0.97399
2109.26294	0.97450
2107.20913	0.97513
2105.15532	0.97525
2103.10151	0.97490
2101.04770	0.97472
2098.99389	0.97500
2096.94008	0.97542
2094.88627	0.97572
2092.83246	0.97587
2090.77865	0.97583
2088.72484	0.97546
2086.67103	0.97471
2084.61722	0.97384
2082.56341	0.97341
2080.50960	0.97372
2078.45579	0.97416
2076.40198	0.97420
2074.34817	0.97447
2072.29436	0.97498
2070.24055	0.97494
2068.18674	0.97462
2066.13293	0.97468
2064.07912	0.97502
2062.02531	0.97495
2059.97150	0.97397
2057.91769	0.97293
2055.86388	0.97330
2053.81007	0.97447
2051.75626	0.97480
2049.70245	0.97462
2047.64864	0.97530
2045.59483	0.97641
2043.54102	0.97604
2041.48721	0.97475
2039.43340	0.97416
2037.37959	0.97431
2035.32578	0.97435
2033.27197	0.97385
2031.21816	0.97390
2029.16435	0.97486
2027.11054	0.97561
2025.05673	0.97570
2023.00292	0.97566
2020.94911	0.97472
2018.89530	0.97334
2016.84149	0.97338
2014.78768	0.97373
2012.73387	0.97330
2010.68006	0.97250
2008.62625	0.97198
2006.57244	0.97300
2004.51863	0.97493
2002.46482	0.97607
2000.41101	0.97672
1998.35720	0.97665
1996.30339	0.97546
1994.24958	0.97468
1992.19577	0.97528
1990.14196	0.97649
1988.08815	0.97676
1986.03434	0.97609
1983.98053	0.97541
1981.92672	0.97484
1979.87291	0.97394
1977.81910	0.97340
1975.76529	0.97440
1973.71148	0.97479
1971.65767	0.97352
1969.60386	0.97348
1967.55005	0.97581
1965.49624	0.97773
1963.44243	0.97761
1961.38862	0.97737
1959.33481	0.97663
1957.28100	0.97484
1955.22719	0.97468
1953.17338	0.97632
1951.11957	0.97766
1949.06576	0.97777
1947.01195	0.97664
1944.95814	0.97525
1942.90433	0.97437
1940.85052	0.97399
1938.79671	0.97398
1936.74290	0.97449
1934.68909	0.97538
1932.63528	0.97594
1930.58147	0.97650
1928.52766	0.97720
1926.47385	0.97666
1924.42004	0.97468
1922.36623	0.97323
1920.31242	0.97332
1918.25861	0.97410
1916.20479	0.97513
1914.15098	0.97581
1912.09717	0.97581
1910.04336	0.97564
1907.98955	0.97557
1905.93574	0.97525
1903.88193	0.97478
1901.82812	0.97475
1899.77431	0.97493
1897.72050	0.97467
1895.66669	0.97421
1893.61288	0.97425
1891.55907	0.97469
1889.50526	0.97495
1887.45145	0.97512
1885.39764	0.97543
1883.34383	0.97537
1881.29002	0.97484
1879.23621	0.97463
1877.18240	0.97471
1875.12859	0.97479
1873.07478	0.97486
1871.02097	0.97478
1868.96716	0.97468
1866.91335	0.97473
1864.85954	0.97474
1862.80573	0.97459
1860.75192	0.97439
1858.69811	0.97414
1856.64430	0.97408
1854.59049	0.97445
1852.53668	0.97481
1850.48287	0.97477
1848.42906	0.97463
1846.37525	0.97474
1844.32144	0.97503
1842.26763	0.97494
1840.21382	0.97452
1838.16001	0.97425
1836.10620	0.97431
1834.05239	0.97462
1831.99858	0.97487
1829.94477	0.97488
1827.89096	0.97454
1825.83715	0.97390
1823.78334	0.97355
1821.72953	0.97382
1819.67572	0.97429
1817.62191	0.97442
1815.56810	0.97418
1813.51429	0.97397
1811.46048	0.97385
1809.40667	0.97375
1807.35286	0.97369
1805.29905	0.97369
1803.24524	0.97357
1801.19143	0.97314
1799.13762	0.97273
1797.08381	0.97271
1795.03000	0.97273
1792.97619	0.97258
1790.92238	0.97245
1788.86857	0.97233
1786.81476	0.97215
1784.76095	0.97199
1782.70714	0.97180
1780.65333	0.97145
1778.59952	0.97119
1776.54571	0.97124
1774.49190	0.97123
1772.43809	0.97100
1770.38428	0.97070
1768.33047	0.97053
1766.27666	0.97061
1764.22285	0.97082
1762.16904	0.97072
1760.11523	0.97018
1758.06142	0.96968
1756.00761	0.96929
1753.95380	0.96891
1751.89999	0.96866
1749.84618	0.96842
1747.79237	0.96794
1745.73856	0.96726
1743.68475	0.96640
1741.63094	0.96544
1739.57713	0.96453
1737.52332	0.96384
1735.46951	0.96342
1733.41570	0.96301
1731.36189	0.96229
1729.30808	0.96117
1727.25427	0.95949
1725.20046	0.95722
1723.14665	0.95473
1721.09284	0.95271
1719.03903	0.95114
1716.98522	0.94969
1714.93141	0.94874
1712.87760	0.94832
1710.82379	0.94846
1708.76998	0.94946
1706.71617	0.95124
1704.66236	0.95327
1702.60855	0.95486
1700.55474	0.95611
1698.50093	0.95705
1696.44712	0.95790
1694.39331	0.95871
1692.33950	0.95918
1690.28569	0.95954
1688.23188	0.95982
1686.17807	0.95997
1684.12426	0.96016
1682.07045	0.96005
1680.01664	0.95959
1677.96283	0.95925
1675.90902	0.95909
1673.85521	0.95882
1671.80140	0.95863
1669.74759	0.95849
1667.69378	0.95812
1665.63997	0.95783
1663.58616	0.95759
1661.53235	0.95720
1659.47854	0.95695
1657.42473	0.95689
1655.37092	0.95683
1653.31711	0.95671
1651.26330	0.95671
1649.20949	0.95695
1647.15568	0.95716
1645.10187	0.95711
1643.04806	0.95700
1640.99425	0.95691
1638.94044	0.95680
1636.88663	0.95658
1634.83282	0.95615
1632.77901	0.95582
1630.72520	0.95574
1628.67139	0.95585
1626.61758	0.95603
1624.56377	0.95630
1622.50996	0.95686
1620.45614	0.95765
1618.40233	0.95852
1616.34852	0.95934
1614.29471	0.95980
1612.24090	0.95995
1610.18709	0.96018
1608.13328	0.96045
1606.07947	0.96054
1604.02566	0.96075
1601.97185	0.96104
1599.91804	0.96112
1597.86423	0.96125
1595.81042	0.96144
1593.75661	0.96141
1591.70280	0.96127
1589.64899	0.96127
1587.59518	0.96134
1585.54137	0.96129
1583.48756	0.96127
1581.43375	0.96157
1579.37994	0.96208
1577.32613	0.96243
1575.27232	0.96237
1573.21851	0.96228
1571.16470	0.96242
1569.11089	0.96259
1567.05708	0.96263
1565.00327	0.96264
1562.94946	0.96260
1560.89565	0.96260
1558.84184	0.96290
1556.78803	0.96317
1554.73422	0.96300
1552.68041	0.96276
1550.62660	0.96281
1548.57279	0.96300
1546.51898	0.96331
1544.46517	0.96388
1542.41136	0.96429
1540.35755	0.96440
1538.30374	0.96457
1536.24993	0.96473
1534.19612	0.96487
1532.14231	0.96495
1530.08850	0.96511
1528.03469	0.96559
1525.98088	0.96625
1523.92707	0.96668
1521.87326	0.96668
1519.81945	0.96638
1517.76564	0.96628
1515.71183	0.96640
1513.65802	0.96651
1511.60421	0.96674
1509.55040	0.96717
1507.49659	0.96742
1505.44278	0.96697
1503.38897	0.96661
1501.33516	0.96665
1499.28135	0.96665
1497.22754	0.96635
1495.17373	0.96586
1493.11992	0.96540
1491.06611	0.96504
1489.01230	0.96445
1486.95849	0.96334
1484.90468	0.96204
1482.85087	0.96024
1480.79706	0.95678
1478.74325	0.94885
1476.68944	0.92801
1474.63563	0.88685
1472.58182	0.84367
1470.52801	0.83088
1468.47420	0.83453
1466.42039	0.83288
1464.36658	0.82520
1462.31277	0.82729
1460.25896	0.84440
1458.20515	0.86887
1456.15134	0.88985
1454.09753	0.90131
1452.04372	0.90960
1449.98991	0.91678
1447.93610	0.92209
1445.88229	0.92571
1443.82848	0.92820
1441.77467	0.93013
1439.72086	0.93204
1437.66705	0.93445
1435.61324	0.93705
1433.55943	0.93925
1431.50562	0.94172
1429.45181	0.94464
1427.39800	0.94710
1425.34419	0.94881
1423.29038	0.94993
1421.23657	0.95048
1419.18276	0.95088
1417.12895	0.95120
1415.07514	0.95125
1413.02133	0.95123
1410.96752	0.95148
1408.91371	0.95203
1406.85990	0.95276
1404.80609	0.95352
1402.75228	0.95416
1400.69847	0.95477
1398.64466	0.95536
1396.59085	0.95581
1394.53704	0.95609
1392.48323	0.95622
1390.42942	0.95610
1388.37561	0.95553
1386.32180	0.95438
1384.26799	0.95260
1382.21418	0.94984
1380.16037	0.94631
1378.10656	0.94360
1376.05275	0.94312
1373.99894	0.94434
1371.94513	0.94533
1369.89132	0.94552
1367.83751	0.94580
1365.78370	0.94668
1363.72989	0.94788
1361.67608	0.94887
1359.62227	0.94943
1357.56846	0.94988
1355.51465	0.95031
1353.46084	0.95058
1351.40703	0.95074
1349.35322	0.95106
1347.29941	0.95178
1345.24560	0.95262
1343.19179	0.95320
1341.13798	0.95368
1339.08417	0.95436
1337.03036	0.95503
1334.97655	0.95549
1332.92274	0.95565
1330.86893	0.95534
1328.81512	0.95493
1326.76130	0.95486
1324.70749	0.95488
1322.65368	0.95465
1320.59987	0.95409
1318.54606	0.95329
1316.49225	0.95271
1314.43844	0.95261
1312.38463	0.95267
1310.33082	0.95253
1308.27701	0.95218
1306.22320	0.95181
1304.16939	0.95163
1302.11558	0.95166
1300.06177	0.95174
1298.00796	0.95180
1295.95415	0.95190
1293.90034	0.95207
1291.84653	0.95225
1289.79272	0.95232
1287.73891	0.95233
1285.68510	0.95225
1283.63129	0.95213
1281.57748	0.95205
1279.52367	0.95191
1277.46986	0.95165
1275.41605	0.95144
1273.36224	0.95129
1271.30843	0.95107
1269.25462	0.95098
1267.20081	0.95115
1265.14700	0.95123
1263.09319	0.95102
1261.03938	0.95072
1258.98557	0.95057
1256.93176	0.95045
1254.87795	0.95029
1252.82414	0.95010
1250.77033	0.94994
1248.71652	0.94982
1246.66271	0.94951
1244.60890	0.94909
1242.55509	0.94885
1240.50128	0.94880
1238.44747	0.94877
1236.39366	0.94871
1234.33985	0.94867
1232.28604	0.94868
1230.23223	0.94869
1228.17842	0.94863
1226.12461	0.94852
1224.07080	0.94820
1222.01699	0.94772
1219.96318	0.94727
1217.90937	0.94675
1215.85556	0.94617
1213.80175	0.94569
1211.74794	0.94524
1209.69413	0.94472
1207.64032	0.94426
1205.58651	0.94379
1203.53270	0.94294
1201.47889	0.94176
1199.42508	0.94070
1197.37127	0.93995
1195.31746	0.93924
1193.26365	0.93846
1191.20984	0.93766
1189.15603	0.93675
1187.10222	0.93571
1185.04841	0.93473
1182.99460	0.93386
1180.94079	0.93292
1178.88698	0.93176
1176.83317	0.93042
1174.77936	0.92904
1172.72555	0.92782
1170.67174	0.92685
1168.61793	0.92597
1166.56412	0.92497
1164.51031	0.92392
1162.45650	0.92308
1160.40269	0.92255
1158.34888	0.92219
1156.29507	0.92169
1154.24126	0.92087
1152.18745	0.91991
1150.13364	0.91893
1148.07983	0.91796
1146.02602	0.91714
1143.97221	0.91637
1141.91840	0.91540
1139.86459	0.91420
1137.81078	0.91279
1135.75697	0.91133
1133.70316	0.90994
1131.64935	0.90836
1129.59554	0.90649
1127.54173	0.90470
1125.48792	0.90312
1123.43411	0.90162
1121.38030	0.90010
1119.32649	0.89835
1117.27268	0.89633
1115.21887	0.89420
1113.16506	0.89208
1111.11125	0.89001
1109.05744	0.88792
1107.00363	0.88588
1104.94982	0.88413
1102.89601	0.88257
1100.84220	0.88100
1098.78839	0.87932
1096.73458	0.87763
1094.68077	0.87610
1092.62696	0.87471
1090.57315	0.87351
1088.51934	0.87273
1086.46553	0.87226
1084.41172	0.87172
1082.35791	0.87096
1080.30410	0.86996
1078.25029	0.86886
1076.19648	0.86801
1074.14267	0.86740
1072.08886	0.86665
1070.03505	0.86562
1067.98124	0.86418
1065.92743	0.86215
1063.87362	0.85989
1061.81981	0.85770
1059.76600	0.85570
1057.71219	0.85400
1055.65838	0.85206
1053.60457	0.84970
1051.55076	0.84739
1049.49695	0.84514
1047.44314	0.84285
1045.38933	0.84082
1043.33552	0.83896
1041.28171	0.83694
1039.22790	0.83506
1037.17409	0.83372
1035.12028	0.83269
1033.06647	0.83186
1031.01265	0.83132
1028.95884	0.83108
1026.90503	0.83134
1024.85122	0.83197
1022.79741	0.83254
1020.74360	0.83305
1018.68979	0.83370
1016.63598	0.83458
1014.58217	0.83560
1012.52836	0.83680
1010.47455	0.83830
1008.42074	0.84008
1006.36693	0.84240
1004.31312	0.84540
1002.25931	0.84852
1000.20550	0.85146
998.15169	0.85439
996.09788	0.85743
994.04407	0.86055
991.99026	0.86374
989.93645	0.86704
987.88264	0.87047
985.82883	0.87381
983.77502	0.87695
981.72121	0.88015
979.66740	0.88353
977.61359	0.88668
975.55978	0.88954
973.50597	0.89244
971.45216	0.89525
969.39835	0.89777
967.34454	0.90025
965.29073	0.90277
963.23692	0.90517
961.18311	0.90734
959.12930	0.90928
957.07549	0.91107
955.02168	0.91286
952.96787	0.91467
950.91406	0.91629
948.86025	0.91766
946.80644	0.91893
944.75263	0.91997
942.69882	0.92077
940.64501	0.92152
938.59120	0.92241
936.53739	0.92332
934.48358	0.92403
932.42977	0.92464
930.37596	0.92527
928.32215	0.92583
926.26834	0.92628
924.21453	0.92659
922.16072	0.92681
920.10691	0.92706
918.05310	0.92738
915.99929	0.92769
913.94548	0.92798
911.89167	0.92835
909.83786	0.92892
907.78405	0.92984
905.73024	0.93123
903.67643	0.93278
901.62262	0.93394
899.56881	0.93461
897.51500	0.93508
895.46119	0.93557
893.40738	0.93625
891.35357	0.93712
889.29976	0.93792
887.24595	0.93868
885.19214	0.93929
883.13833	0.93964
881.08452	0.93988
879.03071	0.93995
876.97690	0.93993
874.92309	0.94012
872.86928	0.94061
870.81547	0.94151
868.76166	0.94264
866.70785	0.94349
864.65404	0.94412
862.60023	0.94484
860.54642	0.94540
858.49261	0.94583
856.43880	0.94655
854.38499	0.94727
852.33118	0.94775
850.27737	0.94817
848.22356	0.94843
846.16975	0.94869
844.11594	0.94929
842.06213	0.94967
840.00832	0.94942
837.95451	0.94931
835.90070	0.94947
833.84689	0.94915
831.79308	0.94847
829.73927	0.94832
827.68546	0.94878
825.63165	0.94913
823.57784	0.94912
821.52403	0.94900
819.47022	0.94900
817.41641	0.94926
815.36260	0.94930
813.30879	0.94864
811.25498	0.94777
809.20117	0.94672
807.14736	0.94486
805.09355	0.94250
803.03974	0.94035
800.98593	0.93871
798.93212	0.93795
796.87831	0.93815
794.82450	0.93877
792.77069	0.93940
790.71688	0.93997
788.66307	0.94012
786.60926	0.93966
784.55545	0.93896
782.50164	0.93790
780.44783	0.93687
778.39402	0.93693
776.34021	0.93775
774.28640	0.93831
772.23259	0.93842
770.17878	0.93878
768.12497	0.93964
766.07116	0.94038
764.01735	0.94041
761.96354	0.94010
759.90973	0.94026
757.85592	0.94046
755.80211	0.94008
753.74830	0.93948
751.69449	0.93887
749.64068	0.93846
747.58687	0.93815
745.53306	0.93713
743.47925	0.93565
741.42544	0.93470
739.37163	0.93353
737.31781	0.93006
735.26400	0.92097
733.21019	0.90061
731.15638	0.87331
729.10257	0.85858
727.04876	0.86078
724.99495	0.85995
722.94114	0.84018
720.88733	0.80523
718.83352	0.78312
716.77971	0.79809
714.72590	0.83691
712.67209	0.87297
710.61828	0.89562
708.56447	0.90794
706.51066	0.91509
704.45685	0.91988
702.40304	0.92321
700.34923	0.92530
698.29542	0.92639
696.24161	0.92730
694.18780	0.92868
692.13399	0.92958
690.08018	0.92973
688.02637	0.93019
685.97256	0.93058
683.91875	0.93049
681.86494	0.93078
679.81113	0.93127
677.75732	0.93167
675.70351	0.93189
673.64970	0.93176
671.59589	0.93181
669.54208	0.93196
667.48827	0.93197
665.43446	0.93223
663.38065	0.93219
661.32684	0.93138
659.27303	0.93052
657.21922	0.93062
655.16541	0.93093
653.11160	0.93086
651.05779	0.93084
649.00398	0.93022
646.95017	0.92907
644.89636	0.92815
642.84255	0.92704
640.78874	0.92597
638.73493	0.92579
636.68112	0.92592
634.62731	0.92540
632.57350	0.92433
630.51969	0.92384
628.46588	0.92445
626.41207	0.92485
624.35826	0.92403
622.30445	0.92284
620.25064	0.92194
618.19683	0.92139
616.14302	0.92119
614.08921	0.92060
612.03540	0.91959
609.98159	0.91908
607.92778	0.91912
605.87397	0.91859
603.82016	0.91713
601.76635	0.91574
599.71254	0.91446
597.65873	0.91324
595.60492	0.91297
593.55111	0.91353
591.49730	0.91367
589.44349	0.91271
587.38968	0.91096
585.33587	0.90944
583.28206	0.90912
581.22825	0.90908
579.17444	0.90861
577.12063	0.90844
575.06682	0.90800
573.01301	0.90741
570.95920	0.90801
568.90539	0.90811
566.85158	0.90609
564.79777	0.90420
562.74396	0.90368
560.69015	0.90348
558.63634	0.90270
556.58253	0.90145
554.52872	0.90093
552.47491	0.90102
550.42110	0.90025
548.36729	0.89818
546.31348	0.89558
544.25967	0.89329
542.20586	0.89200
540.15205	0.89212
538.09824	0.89213
536.04443	0.89047
533.99062	0.88844
531.93681	0.88752
529.88300	0.88741
527.82919	0.88788
525.77538	0.88819
523.72157	0.88749
521.66776	0.88676
519.61395	0.88659
517.56014	0.88645
515.50633	0.88627
513.45252	0.88695
511.39871	0.88884
509.34490	0.89065
507.29109	0.89103
505.23728	0.89005
503.18347	0.88922
501.12966	0.88936
499.07585	0.88929
497.02204	0.88885
494.96823	0.88878
492.91442	0.88845
490.86061	0.88698
488.80680	0.88470
486.75299	0.88182
484.69918	0.87819
482.64537	0.87437
480.59156	0.87067
478.53775	0.86746
476.48394	0.86451
474.43013	0.86080
472.37632	0.85772
470.32251	0.85635
468.26870	0.85507
466.21489	0.85546
464.16108	0.85839
462.10727	0.86042
460.05346	0.86109
457.99965	0.86300
455.94584	0.86669
453.89203	0.87150
451.83822	0.87557
449.78441	0.87620
447.73060	0.87584
445.67679	0.87823
443.62298	0.88166
441.56916	0.88311
439.51535	0.88267
437.46154	0.88224
435.40773	0.88264
433.35392	0.88317
431.30011	0.88370
429.24630	0.88424
427.19249	0.88386
425.13868	0.88276
423.08487	0.88246
421.03106	0.88358
418.97725	0.88628
416.92344	0.88980
414.86963	0.89428
412.81582	0.89904
410.76201	0.90013
408.70820	0.89860
406.65439	0.89986
404.60058	0.90244
402.54677	0.90344
400.49296	0.90358
398.43915	0.89878
