3996.70104	0.97366
3994.64724	0.97348
3992.59344	0.97381
3990.53964	0.97467
3988.48583	0.97492
3986.43203	0.97423
3984.37823	0.97328
3982.32442	0.97262
3980.27062	0.97289
3978.21682	0.97380
3976.16301	0.97416
3974.10921	0.97392
3972.05541	0.97395
3970.00160	0.97428
3967.94780	0.97431
3965.89400	0.97396
3963.84019	0.97382
3961.78639	0.97413
3959.73259	0.97447
3957.67878	0.97472
3955.62498	0.97483
3953.57118	0.97479
3951.51737	0.97476
3949.46357	0.97488
3947.40977	0.97520
3945.35596	0.97537
3943.30216	0.97497
3941.24836	0.97426
3939.19455	0.97402
3937.14075	0.97414
3935.08695	0.97402
3933.03315	0.97353
3930.97934	0.97292
3928.92554	0.97287
3926.87174	0.97353
3924.81793	0.97418
3922.76413	0.97437
3920.71033	0.97424
3918.65652	0.97421
3916.60272	0.97444
3914.54892	0.97443
3912.49511	0.97435
3910.44131	0.97445
3908.38751	0.97435
3906.33370	0.97404
3904.27990	0.97390
3902.22610	0.97419
3900.17229	0.97444
3898.11849	0.97412
3896.06469	0.97361
3894.01088	0.97341
3891.95708	0.97416
3889.90328	0.97540
3887.84947	0.97556
3885.79567	0.97484
3883.74187	0.97437
3881.68807	0.97465
3879.63426	0.97527
3877.58046	0.97539
3875.52666	0.97486
3873.47285	0.97416
3871.41905	0.97365
3869.36525	0.97344
3867.31144	0.97368
3865.25764	0.97391
3863.20384	0.97426
3861.15003	0.97492
3859.09623	0.97536
3857.04243	0.97544
3854.98862	0.97529
3852.93482	0.97539
3850.88102	0.97594
3848.82721	0.97587
3846.77341	0.97513
3844.71961	0.97439
3842.66580	0.97427
3840.61200	0.97431
3838.55820	0.97409
3836.50439	0.97403
3834.45059	0.97417
3832.39679	0.97472
3830.34298	0.97560
3828.28918	0.97638
3826.23538	0.97654
3824.18158	0.97535
3822.12777	0.97373
3820.07397	0.97365
3818.02017	0.97389
3815.96636	0.97326
3813.91256	0.97345
3811.85876	0.97443
3809.80495	0.97516
3807.75115	0.97553
3805.69735	0.97584
3803.64354	0.97604
3801.58974	0.97589
3799.53594	0.97532
3797.48213	0.97508
3795.42833	0.97553
3793.37453	0.97565
3791.32072	0.97519
3789.26692	0.97500
3787.21312	0.97506
3785.15931	0.97473
3783.10551	0.97433
3781.05171	0.97443
3778.99790	0.97512
3776.94410	0.97577
3774.89030	0.97589
3772.83650	0.97585
3770.78269	0.97564
3768.72889	0.97494
3766.67509	0.97460
3764.62128	0.97479
3762.56748	0.97465
3760.51368	0.97431
3758.45987	0.97429
3756.40607	0.97466
3754.35227	0.97512
3752.29846	0.97573
3750.24466	0.97677
3748.19086	0.97675
3746.13705	0.97570
3744.08325	0.97568
3742.02945	0.97607
3739.97564	0.97595
3737.92184	0.97612
3735.86804	0.97597
3733.81423	0.97504
3731.76043	0.97408
3729.70663	0.97322
3727.65282	0.97259
3725.59902	0.97222
3723.54522	0.97173
3721.49141	0.97116
3719.43761	0.96966
3717.38381	0.96733
3715.33001	0.96549
3713.27620	0.96284
3711.22240	0.95724
3709.16860	0.95065
3707.11479	0.94472
3705.06099	0.93846
3703.00719	0.93123
3700.95338	0.92441
3698.89958	0.92078
3696.84578	0.91965
3694.79197	0.92015
3692.73817	0.92286
3690.68437	0.92792
3688.63056	0.93278
3686.57676	0.93417
3684.52296	0.93480
3682.46915	0.93640
3680.41535	0.93767
3678.36155	0.93774
3676.30774	0.93715
3674.25394	0.93616
3672.20014	0.93503
3670.14633	0.93340
3668.09253	0.93175
3666.03873	0.93082
3663.98492	0.92969
3661.93112	0.92823
3659.87732	0.92701
3657.82352	0.92596
3655.76971	0.92460
3653.71591	0.92346
3651.66211	0.92217
3649.60830	0.91940
3647.55450	0.91733
3645.50070	0.91765
3643.44689	0.91766
3641.39309	0.91628
3639.33929	0.91483
3637.28548	0.91425
3635.23168	0.91336
3633.17788	0.91139
3631.12407	0.90871
3629.07027	0.90450
3627.01647	0.90057
3624.96266	0.89895
3622.90886	0.89748
3620.85506	0.89573
3618.80125	0.89512
3616.74745	0.89687
3614.69365	0.90001
3612.63984	0.90315
3610.58604	0.90518
3608.53224	0.90612
3606.47844	0.90650
3604.42463	0.90656
3602.37083	0.90645
3600.31703	0.90646
3598.26322	0.90660
3596.20942	0.90653
3594.15562	0.90601
3592.10181	0.90571
3590.04801	0.90605
3587.99421	0.90599
3585.94040	0.90518
3583.88660	0.90515
3581.83280	0.90579
3579.77899	0.90593
3577.72519	0.90511
3575.67139	0.90408
3573.61758	0.90344
3571.56378	0.90312
3569.50998	0.90306
3567.45617	0.90270
3565.40237	0.90135
3563.34857	0.90010
3561.29476	0.89940
3559.24096	0.89881
3557.18716	0.89828
3555.13335	0.89794
3553.07955	0.89742
3551.02575	0.89664
3548.97195	0.89601
3546.91814	0.89547
3544.86434	0.89520
3542.81054	0.89510
3540.75673	0.89469
3538.70293	0.89439
3536.64913	0.89421
3534.59532	0.89382
3532.54152	0.89387
3530.48772	0.89456
3528.43391	0.89464
3526.38011	0.89380
3524.32631	0.89351
3522.27250	0.89374
3520.21870	0.89332
3518.16490	0.89292
3516.11109	0.89314
3514.05729	0.89302
3512.00349	0.89240
3509.94968	0.89223
3507.89588	0.89262
3505.84208	0.89297
3503.78827	0.89280
3501.73447	0.89202
3499.68067	0.89101
3497.62687	0.89041
3495.57306	0.89026
3493.51926	0.89006
3491.46546	0.88982
3489.41165	0.88973
3487.35785	0.88971
3485.30405	0.88940
3483.25024	0.88851
3481.19644	0.88757
3479.14264	0.88684
3477.08883	0.88598
3475.03503	0.88557
3472.98123	0.88597
3470.92742	0.88602
3468.87362	0.88525
3466.81982	0.88458
3464.76601	0.88419
3462.71221	0.88336
3460.65841	0.88244
3458.60460	0.88208
3456.55080	0.88185
3454.49700	0.88141
3452.44319	0.88094
3450.38939	0.88058
3448.33559	0.88007
3446.28178	0.87889
3444.22798	0.87768
3442.17418	0.87726
3440.12038	0.87760
3438.06657	0.87787
3436.01277	0.87711
3433.95897	0.87582
3431.90516	0.87491
3429.85136	0.87431
3427.79756	0.87376
3425.74375	0.87344
3423.68995	0.87338
3421.63615	0.87294
3419.58234	0.87184
3417.52854	0.87083
3415.47474	0.86997
3413.42093	0.86908
3411.36713	0.86856
3409.31333	0.86831
3407.25952	0.86798
3405.20572	0.86784
3403.15192	0.86802
3401.09811	0.86800
3399.04431	0.86737
3396.99051	0.86688
3394.93670	0.86740
3392.88290	0.86793
3390.82910	0.86753
3388.77529	0.86710
3386.72149	0.86734
3384.66769	0.86783
3382.61389	0.86794
3380.56008	0.86784
3378.50628	0.86812
3376.45248	0.86842
3374.39867	0.86853
3372.34487	0.86917
3370.29107	0.87020
3368.23726	0.87060
3366.18346	0.87047
3364.12966	0.87050
3362.07585	0.87084
3360.02205	0.87146
3357.96825	0.87211
3355.91444	0.87229
3353.86064	0.87198
3351.80684	0.87174
3349.75303	0.87188
3347.69923	0.87237
3345.64543	0.87319
3343.59162	0.87391
3341.53782	0.87413
3339.48402	0.87424
3337.43021	0.87465
3335.37641	0.87511
3333.32261	0.87531
3331.26881	0.87551
3329.21500	0.87574
3327.16120	0.87600
3325.10740	0.87657
3323.05359	0.87692
3320.99979	0.87674
3318.94599	0.87677
3316.89218	0.87710
3314.83838	0.87738
3312.78458	0.87785
3310.73077	0.87849
3308.67697	0.87893
3306.62317	0.87931
3304.56936	0.87974
3302.51556	0.87993
3300.46176	0.87987
3298.40795	0.87988
3296.35415	0.87991
3294.30035	0.87980
3292.24654	0.88004
3290.19274	0.88052
3288.13894	0.88097
3286.08513	0.88176
3284.03133	0.88261
3281.97753	0.88311
3279.92372	0.88351
3277.86992	0.88377
3275.81612	0.88368
3273.76232	0.88360
3271.70851	0.88420
3269.65471	0.88522
3267.60091	0.88575
3265.54710	0.88612
3263.49330	0.88677
3261.43950	0.88694
3259.38569	0.88673
3257.33189	0.88713
3255.27809	0.88802
3253.22428	0.88879
3251.17048	0.88920
3249.11668	0.88958
3247.06287	0.89000
3245.00907	0.88997
3242.95527	0.89023
3240.90146	0.89126
3238.84766	0.89186
3236.79386	0.89205
3234.74005	0.89272
3232.68625	0.89349
3230.63245	0.89377
3228.57864	0.89388
3226.52484	0.89450
3224.47104	0.89545
3222.41724	0.89607
3220.36343	0.89661
3218.30963	0.89739
3216.25583	0.89813
3214.20202	0.89884
3212.14822	0.89981
3210.09442	0.90066
3208.04061	0.90099
3205.98681	0.90117
3203.93301	0.90151
3201.87920	0.90215
3199.82540	0.90305
3197.77160	0.90369
3195.71779	0.90384
3193.66399	0.90400
3191.61019	0.90470
3189.55638	0.90565
3187.50258	0.90639
3185.44878	0.90716
3183.39497	0.90784
3181.34117	0.90825
3179.28737	0.90868
3177.23356	0.90894
3175.17976	0.90933
3173.12596	0.91050
3171.07215	0.91196
3169.01835	0.91299
3166.96455	0.91375
3164.91075	0.91423
3162.85694	0.91456
3160.80314	0.91529
3158.74934	0.91613
3156.69553	0.91696
3154.64173	0.91791
3152.58793	0.91840
3150.53412	0.91851
3148.48032	0.91907
3146.42652	0.92014
3144.37271	0.92130
3142.31891	0.92194
3140.26511	0.92211
3138.21130	0.92272
3136.15750	0.92373
3134.10370	0.92434
3132.04989	0.92464
3129.99609	0.92513
3127.94229	0.92553
3125.88848	0.92578
3123.83468	0.92624
3121.78088	0.92689
3119.72707	0.92761
3117.67327	0.92797
3115.61947	0.92795
3113.56566	0.92808
3111.51186	0.92863
3109.45806	0.92931
3107.40426	0.93000
3105.35045	0.93074
3103.29665	0.93101
3101.24285	0.93091
3099.18904	0.93127
3097.13524	0.93195
3095.08144	0.93240
3093.02763	0.93287
3090.97383	0.93337
3088.92003	0.93337
3086.86622	0.93308
3084.81242	0.93328
3082.75862	0.93385
3080.70481	0.93441
3078.65101	0.93516
3076.59721	0.93615
3074.54340	0.93682
3072.48960	0.93696
3070.43580	0.93707
3068.38199	0.93731
3066.32819	0.93778
3064.27439	0.93854
3062.22058	0.93912
3060.16678	0.93945
3058.11298	0.93969
3056.05918	0.93999
3054.00537	0.94067
3051.95157	0.94158
3049.89777	0.94229
3047.84396	0.94249
3045.79016	0.94229
3043.73636	0.94226
3041.68255	0.94284
3039.62875	0.94373
3037.57495	0.94409
3035.52114	0.94408
3033.46734	0.94450
3031.41354	0.94508
3029.35973	0.94537
3027.30593	0.94529
3025.25213	0.94506
3023.19832	0.94521
3021.14452	0.94584
3019.09072	0.94668
3017.03691	0.94717
3014.98311	0.94719
3012.92931	0.94726
3010.87550	0.94739
3008.82170	0.94755
3006.76790	0.94782
3004.71409	0.94810
3002.66029	0.94851
3000.60649	0.94882
2998.55269	0.94888
2996.49888	0.94882
2994.44508	0.94848
2992.39128	0.94799
2990.33747	0.94773
2988.28367	0.94763
2986.22987	0.94735
2984.17606	0.94674
2982.12226	0.94594
2980.06846	0.94498
2978.01465	0.94394
2975.96085	0.94316
2973.90705	0.94239
2971.85324	0.94120
2969.79944	0.93953
2967.74564	0.93729
2965.69183	0.93491
2963.63803	0.93304
2961.58423	0.93146
2959.53042	0.92977
2957.47662	0.92809
2955.42282	0.92686
2953.36901	0.92606
2951.31521	0.92535
2949.26141	0.92448
2947.20761	0.92256
2945.15380	0.91876
2943.10000	0.91370
2941.04620	0.90780
2938.99239	0.90051
2936.93859	0.89135
2934.88479	0.87978
2932.83098	0.86587
2930.77718	0.85028
2928.72338	0.83279
2926.66957	0.81218
2924.61577	0.78687
2922.56197	0.75698
2920.50816	0.72544
2918.45436	0.69669
2916.40056	0.67666
2914.34675	0.67186
2912.29295	0.68350
2910.23915	0.70517
2908.18534	0.72944
2906.13154	0.75183
2904.07774	0.76981
2902.02393	0.78340
2899.97013	0.79467
2897.91633	0.80470
2895.86252	0.81337
2893.80872	0.82140
2891.75492	0.82972
2889.70112	0.83844
2887.64731	0.84759
2885.59351	0.85692
2883.53971	0.86608
2881.48590	0.87503
2879.43210	0.88342
2877.37830	0.89096
2875.32449	0.89739
2873.27069	0.90250
2871.21689	0.90626
2869.16308	0.90840
2867.10928	0.90862
2865.05548	0.90648
2863.00167	0.90124
2860.94787	0.89196
2858.89407	0.87742
2856.84026	0.85566
2854.78646	0.82408
2852.73266	0.78246
2850.67885	0.73803
2848.62505	0.70700
2846.57125	0.70354
2844.51744	0.72643
2842.46364	0.76237
2840.40984	0.79891
2838.35603	0.83001
2836.30223	0.85423
2834.24843	0.87251
2832.19463	0.88649
2830.14082	0.89732
2828.08702	0.90611
2826.03322	0.91340
2823.97941	0.91917
2821.92561	0.92372
2819.87181	0.92745
2817.81800	0.93068
2815.76420	0.93351
2813.71040	0.93590
2811.65659	0.93780
2809.60279	0.93940
2807.54899	0.94116
2805.49518	0.94304
2803.44138	0.94440
2801.38758	0.94528
2799.33377	0.94641
2797.27997	0.94788
2795.22617	0.94912
2793.17236	0.95014
2791.11856	0.95118
2789.06476	0.95211
2787.01095	0.95285
2784.95715	0.95373
2782.90335	0.95469
2780.84955	0.95543
2778.79574	0.95596
2776.74194	0.95632
2774.68814	0.95680
2772.63433	0.95750
2770.58053	0.95811
2768.52673	0.95856
2766.47292	0.95889
2764.41912	0.95927
2762.36532	0.95983
2760.31151	0.96033
2758.25771	0.96052
2756.20391	0.96046
2754.15010	0.96065
2752.09630	0.96123
2750.04250	0.96159
2747.98869	0.96162
2745.93489	0.96171
2743.88109	0.96187
2741.82728	0.96180
2739.77348	0.96163
2737.71968	0.96183
2735.66587	0.96243
2733.61207	0.96302
2731.55827	0.96325
2729.50446	0.96313
2727.45066	0.96317
2725.39686	0.96340
2723.34306	0.96357
2721.28925	0.96383
2719.23545	0.96405
2717.18165	0.96420
2715.12784	0.96441
2713.07404	0.96463
2711.02024	0.96475
2708.96643	0.96466
2706.91263	0.96451
2704.85883	0.96459
2702.80502	0.96493
2700.75122	0.96537
2698.69742	0.96576
2696.64361	0.96593
2694.58981	0.96587
2692.53601	0.96571
2690.48220	0.96557
2688.42840	0.96583
2686.37460	0.96630
2684.32079	0.96649
2682.26699	0.96653
2680.21319	0.96653
2678.15938	0.96665
2676.10558	0.96697
2674.05178	0.96706
2671.99797	0.96684
2669.94417	0.96661
2667.89037	0.96657
2665.83657	0.96666
2663.78276	0.96660
2661.72896	0.96642
2659.67516	0.96622
2657.62135	0.96613
2655.56755	0.96621
2653.51375	0.96617
2651.45994	0.96612
2649.40614	0.96639
2647.35234	0.96690
2645.29853	0.96733
2643.24473	0.96740
2641.19093	0.96732
2639.13712	0.96752
2637.08332	0.96775
2635.02952	0.96752
2632.97571	0.96727
2630.92191	0.96729
2628.86811	0.96747
2626.81430	0.96797
2624.76050	0.96847
2622.70670	0.96851
2620.65289	0.96842
2618.59909	0.96878
2616.54529	0.96961
2614.49149	0.97035
2612.43768	0.97059
2610.38388	0.97067
2608.33008	0.97072
2606.27627	0.97048
2604.22247	0.97009
2602.16867	0.97005
2600.11486	0.97061
2598.06106	0.97126
2596.00726	0.97151
2593.95345	0.97186
2591.89965	0.97229
2589.84585	0.97231
2587.79204	0.97230
2585.73824	0.97261
2583.68444	0.97295
2581.63063	0.97304
2579.57683	0.97299
2577.52303	0.97300
2575.46922	0.97303
2573.41542	0.97310
2571.36162	0.97301
2569.30781	0.97290
2567.25401	0.97339
2565.20021	0.97373
2563.14640	0.97348
2561.09260	0.97372
2559.03880	0.97427
2556.98500	0.97408
2554.93119	0.97351
2552.87739	0.97355
2550.82359	0.97396
2548.76978	0.97391
2546.71598	0.97374
2544.66218	0.97420
2542.60837	0.97499
2540.55457	0.97509
2538.50077	0.97441
2536.44696	0.97411
2534.39316	0.97428
2532.33936	0.97416
2530.28555	0.97378
2528.23175	0.97365
2526.17795	0.97402
2524.12414	0.97444
2522.07034	0.97450
2520.01654	0.97436
2517.96273	0.97387
2515.90893	0.97320
2513.85513	0.97333
2511.80132	0.97462
2509.74752	0.97563
2507.69372	0.97541
2505.63992	0.97473
2503.58611	0.97436
2501.53231	0.97454
2499.47851	0.97482
2497.42470	0.97427
2495.37090	0.97340
2493.31710	0.97380
2491.26329	0.97508
2489.20949	0.97569
2487.15569	0.97569
2485.10188	0.97526
2483.04808	0.97459
2480.99428	0.97460
2478.94047	0.97497
2476.88667	0.97491
2474.83287	0.97466
2472.77906	0.97482
2470.72526	0.97545
2468.67146	0.97576
2466.61765	0.97538
2464.56385	0.97516
2462.51005	0.97567
2460.45624	0.97626
2458.40244	0.97651
2456.34864	0.97662
2454.29483	0.97639
2452.24103	0.97612
2450.18723	0.97624
2448.13343	0.97636
2446.07962	0.97631
2444.02582	0.97623
2441.97202	0.97608
2439.91821	0.97619
2437.86441	0.97665
2435.81061	0.97692
2433.75680	0.97645
2431.70300	0.97545
2429.64920	0.97483
2427.59539	0.97504
2425.54159	0.97580
2423.48779	0.97682
2421.43398	0.97740
2419.38018	0.97666
2417.32638	0.97554
2415.27257	0.97559
2413.21877	0.97621
2411.16497	0.97651
2409.11116	0.97685
2407.05736	0.97738
2405.00356	0.97743
2402.94975	0.97671
2400.89595	0.97580
2398.84215	0.97530
2396.78834	0.97532
2394.73454	0.97575
2392.68074	0.97632
2390.62694	0.97658
2388.57313	0.97666
2386.51933	0.97674
2384.46553	0.97663
2382.41172	0.97640
2380.35792	0.97624
2378.30412	0.97578
2376.25031	0.97516
2374.19651	0.97552
2372.14271	0.97694
2370.08890	0.97809
2368.03510	0.97824
2365.98130	0.97742
2363.92749	0.97588
2361.87369	0.97459
2359.81989	0.97473
2357.76608	0.97511
2355.71228	0.97500
2353.65848	0.97603
2351.60467	0.97715
2349.55087	0.97666
2347.49707	0.97553
2345.44326	0.97498
2343.38946	0.97488
2341.33566	0.97471
2339.28186	0.97457
2337.22805	0.97463
2335.17425	0.97509
2333.12045	0.97546
2331.06664	0.97572
2329.01284	0.97594
2326.95904	0.97531
2324.90523	0.97396
2322.85143	0.97292
2320.79763	0.97304
2318.74382	0.97394
2316.69002	0.97453
2314.63622	0.97480
2312.58241	0.97539
2310.52861	0.97622
2308.47481	0.97644
2306.42100	0.97583
2304.36720	0.97552
2302.31340	0.97609
2300.25959	0.97658
2298.20579	0.97660
2296.15199	0.97673
2294.09818	0.97642
2292.04438	0.97561
2289.99058	0.97521
2287.93677	0.97501
2285.88297	0.97497
2283.82917	0.97563
2281.77537	0.97617
2279.72156	0.97564
2277.66776	0.97535
2275.61396	0.97647
2273.56015	0.97813
2271.50635	0.97899
2269.45255	0.97803
2267.39874	0.97632
2265.34494	0.97573
2263.29114	0.97620
2261.23733	0.97679
2259.18353	0.97774
2257.12973	0.97934
2255.07592	0.98068
2253.02212	0.98072
2250.96832	0.97946
2248.91451	0.97779
2246.86071	0.97658
2244.80691	0.97581
2242.75310	0.97485
2240.69930	0.97403
2238.64550	0.97408
2236.59169	0.97519
2234.53789	0.97701
2232.48409	0.97802
2230.43029	0.97746
2228.37648	0.97679
2226.32268	0.97707
2224.26888	0.97773
2222.21507	0.97878
2220.16127	0.97942
2218.10747	0.97873
2216.05366	0.97859
2213.99986	0.98028
2211.94606	0.98233
2209.89225	0.98263
2207.83845	0.98064
2205.78465	0.97744
2203.73084	0.97588
2201.67704	0.97800
2199.62324	0.98084
2197.56943	0.98084
2195.51563	0.97895
2193.46183	0.97813
2191.40802	0.97912
2189.35422	0.97986
2187.30042	0.97847
2185.24661	0.97715
2183.19281	0.97895
2181.13901	0.98138
2179.08520	0.98276
2177.03140	0.98444
2174.97760	0.98423
2172.92380	0.98228
2170.86999	0.98133
2168.81619	0.98077
2166.76239	0.98021
2164.70858	0.97971
2162.65478	0.97987
2160.60098	0.98196
2158.54717	0.98469
2156.49337	0.98518
2154.43957	0.98349
2152.38576	0.98244
2150.33196	0.98225
2148.27816	0.98150
2146.22435	0.98042
2144.17055	0.97914
2142.11675	0.97832
2140.06294	0.97901
2138.00914	0.98008
2135.95534	0.98041
2133.90153	0.98111
2131.84773	0.98184
2129.79393	0.98128
2127.74012	0.98060
2125.68632	0.98011
2123.63252	0.97897
2121.57871	0.97824
2119.52491	0.97863
2117.47111	0.97913
2115.41731	0.97880
2113.36350	0.97844
2111.30970	0.97889
2109.25590	0.97934
2107.20209	0.97974
2105.14829	0.98041
2103.09449	0.98026
2101.04068	0.97857
2098.98688	0.97725
2096.93308	0.97899
2094.87927	0.98217
2092.82547	0.98239
2090.77167	0.97989
2088.71786	0.97811
2086.66406	0.97814
2084.61026	0.97913
2082.55645	0.97982
2080.50265	0.98063
2078.44885	0.98223
2076.39504	0.98259
2074.34124	0.98146
2072.28744	0.98041
2070.23363	0.97920
2068.17983	0.97763
2066.12603	0.97679
2064.07223	0.97718
2062.01842	0.97830
2059.96462	0.97959
2057.91082	0.97988
2055.85701	0.97927
2053.80321	0.97932
2051.74941	0.97941
2049.69560	0.97937
2047.64180	0.98047
2045.58800	0.98075
2043.53419	0.97950
2041.48039	0.97950
2039.42659	0.98059
2037.37278	0.98056
2035.31898	0.97937
2033.26518	0.97784
2031.21137	0.97677
2029.15757	0.97829
2027.10377	0.98188
2025.04996	0.98420
2022.99616	0.98484
2020.94236	0.98607
2018.88855	0.98694
2016.83475	0.98531
2014.78095	0.98371
2012.72714	0.98302
2010.67334	0.98242
2008.61954	0.98240
2006.56574	0.98274
2004.51193	0.98328
2002.45813	0.98359
2000.40433	0.98336
1998.35052	0.98300
1996.29672	0.98342
1994.24292	0.98472
1992.18911	0.98468
1990.13531	0.98218
1988.08151	0.98028
1986.02770	0.98088
1983.97390	0.98168
1981.92010	0.98021
1979.86629	0.97765
1977.81249	0.97694
1975.75869	0.98030
1973.70488	0.98534
1971.65108	0.98675
1969.59728	0.98484
1967.54347	0.98321
1965.48967	0.98274
1963.43587	0.98208
1961.38206	0.98144
1959.32826	0.98242
1957.27446	0.98375
1955.22066	0.98348
1953.16685	0.98269
1951.11305	0.98209
1949.05925	0.98099
1947.00544	0.98043
1944.95164	0.98109
1942.89784	0.98099
1940.84403	0.97930
1938.79023	0.97795
1936.73643	0.97744
1934.68262	0.97804
1932.62882	0.97970
1930.57502	0.98063
1928.52121	0.98047
1926.46741	0.98054
1924.41361	0.98169
1922.35980	0.98259
1920.30600	0.98164
1918.25220	0.98023
1916.19839	0.97981
1914.14459	0.97981
1912.09079	0.98005
1910.03698	0.98082
1907.98318	0.98117
1905.92938	0.98073
1903.87557	0.98035
1901.82177	0.97984
1899.76797	0.97931
1897.71417	0.97949
1895.66036	0.97996
1893.60656	0.98044
1891.55276	0.98082
1889.49895	0.98033
1887.44515	0.97946
1885.39135	0.97933
1883.33754	0.97939
1881.28374	0.97961
1879.22994	0.98034
1877.17613	0.98046
1875.12233	0.98006
1873.06853	0.97986
1871.01472	0.97956
1868.96092	0.97967
1866.90712	0.98063
1864.85331	0.98128
1862.79951	0.98113
1860.74571	0.98064
1858.69190	0.98009
1856.63810	0.97954
1854.58430	0.97914
1852.53049	0.97878
1850.47669	0.97865
1848.42289	0.97926
1846.36908	0.97994
1844.31528	0.97949
1842.26148	0.97868
1840.20768	0.97868
1838.15387	0.97908
1836.10007	0.97938
1834.04627	0.97972
1831.99246	0.98031
1829.93866	0.98029
1827.88486	0.97916
1825.83105	0.97860
1823.77725	0.97907
1821.72345	0.97943
1819.66964	0.97907
1817.61584	0.97848
1815.56204	0.97816
1813.50823	0.97792
1811.45443	0.97783
1809.40063	0.97781
1807.34682	0.97776
1805.29302	0.97796
1803.23922	0.97813
1801.18541	0.97760
1799.13161	0.97655
1797.07781	0.97602
1795.02400	0.97647
1792.97020	0.97738
1790.91640	0.97782
1788.86260	0.97754
1786.80879	0.97700
1784.75499	0.97654
1782.70119	0.97621
1780.64738	0.97607
1778.59358	0.97629
1776.53978	0.97657
1774.48597	0.97623
1772.43217	0.97517
1770.37837	0.97453
1768.32456	0.97428
1766.27076	0.97370
1764.21696	0.97314
1762.16315	0.97285
1760.10935	0.97250
1758.05555	0.97200
1756.00174	0.97147
1753.94794	0.97089
1751.89414	0.97007
1749.84033	0.96834
1747.78653	0.96583
1745.73273	0.96356
1743.67892	0.96157
1741.62512	0.95968
1739.57132	0.95790
1737.51751	0.95639
1735.46371	0.95494
1733.40991	0.95397
1731.35611	0.95415
1729.30230	0.95426
1727.24850	0.95443
1725.19470	0.95466
1723.14089	0.95443
1721.08709	0.95387
1719.03329	0.95310
1716.97948	0.95206
1714.92568	0.95123
1712.87188	0.95087
1710.81807	0.95062
1708.76427	0.95011
1706.71047	0.94923
1704.65666	0.94827
1702.60286	0.94719
1700.54906	0.94507
1698.49525	0.94237
1696.44145	0.94009
1694.38765	0.93769
1692.33384	0.93567
1690.28004	0.93320
1688.22624	0.93012
1686.17243	0.92724
1684.11863	0.92360
1682.06483	0.92077
1680.01103	0.91903
1677.95722	0.91654
1675.90342	0.91315
1673.84962	0.91004
1671.79581	0.90789
1669.74201	0.90512
1667.68821	0.90219
1665.63440	0.90034
1663.58060	0.89826
1661.52680	0.89568
1659.47299	0.89392
1657.41919	0.89298
1655.36539	0.89201
1653.31158	0.88949
1651.25778	0.88762
1649.20398	0.88765
1647.15017	0.88733
1645.09637	0.88655
1643.04257	0.88618
1640.98876	0.88595
1638.93496	0.88599
1636.88116	0.88678
1634.82735	0.88798
1632.77355	0.88870
1630.71975	0.88937
1628.66594	0.89029
1626.61214	0.89131
1624.55834	0.89253
1622.50454	0.89404
1620.45073	0.89563
1618.39693	0.89808
1616.34313	0.90228
1614.28932	0.90607
1612.23552	0.90857
1610.18172	0.91085
1608.12791	0.91303
1606.07411	0.91496
1604.02031	0.91679
1601.96650	0.91841
1599.91270	0.91979
1597.85890	0.92119
1595.80509	0.92235
1593.75129	0.92315
1591.69749	0.92421
1589.64368	0.92554
1587.58988	0.92654
1585.53608	0.92698
1583.48227	0.92711
1581.42847	0.92726
1579.37467	0.92752
1577.32086	0.92783
1575.26706	0.92837
1573.21326	0.92912
1571.15945	0.92984
1569.10565	0.93010
1567.05185	0.92998
1564.99805	0.93013
1562.94424	0.93025
1560.89044	0.93014
1558.83664	0.92987
1556.78283	0.92943
1554.72903	0.92927
1552.67523	0.92940
1550.62142	0.92950
1548.56762	0.92937
1546.51382	0.92943
1544.46001	0.92972
1542.40621	0.92982
1540.35241	0.93005
1538.29860	0.93119
1536.24480	0.93255
1534.19100	0.93423
1532.13719	0.93607
1530.08339	0.93742
1528.02959	0.93866
1525.97578	0.93994
1523.92198	0.94126
1521.86818	0.94293
1519.81437	0.94451
1517.76057	0.94564
1515.70677	0.94676
1513.65297	0.94783
1511.59916	0.94869
1509.54536	0.94942
1507.49156	0.95066
1505.43775	0.95199
1503.38395	0.95251
1501.33015	0.95301
1499.27634	0.95352
1497.22254	0.95398
1495.16874	0.95439
1493.11493	0.95466
1491.06113	0.95461
1489.00733	0.95409
1486.95352	0.95321
1484.89972	0.95215
1482.84592	0.95070
1480.79211	0.94772
1478.73831	0.94069
1476.68451	0.92292
1474.63070	0.88881
1472.57690	0.85655
1470.52310	0.85433
1468.46929	0.86301
1466.41549	0.86278
1464.36169	0.84936
1462.30788	0.84167
1460.25408	0.85340
1458.20028	0.87843
1456.14648	0.90090
1454.09267	0.91016
1452.03887	0.91516
1449.98507	0.91889
1447.93126	0.92168
1445.87746	0.92372
1443.82366	0.92506
1441.76985	0.92619
1439.71605	0.92745
1437.66225	0.92881
1435.60844	0.93028
1433.55464	0.93162
1431.50084	0.93293
1429.44703	0.93441
1427.39323	0.93573
1425.33943	0.93659
1423.28562	0.93700
1421.23182	0.93709
1419.17802	0.93726
1417.12421	0.93756
1415.07041	0.93766
1413.01661	0.93789
1410.96280	0.93867
1408.90900	0.93957
1406.85520	0.94012
1404.80139	0.94057
1402.74759	0.94122
1400.69379	0.94199
1398.63999	0.94252
1396.58618	0.94276
1394.53238	0.94302
1392.47858	0.94330
1390.42477	0.94340
1388.37097	0.94322
1386.31717	0.94287
1384.26336	0.94242
1382.20956	0.94163
1380.15576	0.94064
1378.10195	0.93993
1376.04815	0.93971
1373.99435	0.93991
1371.94054	0.93991
1369.88674	0.93947
1367.83294	0.93934
1365.77913	0.94032
1363.72533	0.94191
1361.67153	0.94309
1359.61772	0.94361
1357.56392	0.94404
1355.51012	0.94465
1353.45631	0.94514
1351.40251	0.94544
1349.34871	0.94581
1347.29491	0.94647
1345.24110	0.94731
1343.18730	0.94797
1341.13350	0.94834
1339.07969	0.94878
1337.02589	0.94925
1334.97209	0.94940
1332.91828	0.94943
1330.86448	0.94955
1328.81068	0.94964
1326.75687	0.94958
1324.70307	0.94935
1322.64927	0.94908
1320.59546	0.94872
1318.54166	0.94827
1316.48786	0.94794
1314.43405	0.94779
1312.38025	0.94763
1310.32645	0.94743
1308.27264	0.94730
1306.21884	0.94707
1304.16504	0.94673
1302.11123	0.94643
1300.05743	0.94627
1298.00363	0.94623
1295.94982	0.94620
1293.89602	0.94615
1291.84222	0.94604
1289.78842	0.94557
1287.73461	0.94484
1285.68081	0.94452
1283.62701	0.94439
1281.57320	0.94394
1279.51940	0.94343
1277.46560	0.94304
1275.41179	0.94258
1273.35799	0.94200
1271.30419	0.94116
1269.25038	0.93971
1267.19658	0.93792
1265.14278	0.93640
1263.08897	0.93526
1261.03517	0.93435
1258.98137	0.93375
1256.92756	0.93333
1254.87376	0.93283
1252.81996	0.93223
1250.76615	0.93140
1248.71235	0.93034
1246.65855	0.92924
1244.60474	0.92820
1242.55094	0.92735
1240.49714	0.92657
1238.44334	0.92566
1236.38953	0.92504
1234.33573	0.92470
1232.28193	0.92391
1230.22812	0.92292
1228.17432	0.92223
1226.12052	0.92163
1224.06671	0.92109
1222.01291	0.92056
1219.95911	0.91990
1217.90530	0.91926
1215.85150	0.91859
1213.79770	0.91755
1211.74389	0.91619
1209.69009	0.91503
1207.63629	0.91408
1205.58248	0.91285
1203.52868	0.91139
1201.47488	0.90985
1199.42107	0.90795
1197.36727	0.90587
1195.31347	0.90389
1193.25966	0.90174
1191.20586	0.89922
1189.15206	0.89626
1187.09825	0.89306
1185.04445	0.88986
1182.99065	0.88660
1180.93685	0.88322
1178.88304	0.87964
1176.82924	0.87580
1174.77544	0.87173
1172.72163	0.86769
1170.66783	0.86372
1168.61403	0.85990
1166.56022	0.85659
1164.50642	0.85355
1162.45262	0.85050
1160.39881	0.84785
1158.34501	0.84546
1156.29121	0.84263
1154.23740	0.83942
1152.18360	0.83640
1150.12980	0.83344
1148.07599	0.83029
1146.02219	0.82702
1143.96839	0.82355
1141.91458	0.81999
1139.86078	0.81644
1137.80698	0.81258
1135.75317	0.80818
1133.69937	0.80314
1131.64557	0.79732
1129.59176	0.79068
1127.53796	0.78310
1125.48416	0.77464
1123.43036	0.76525
1121.37655	0.75490
1119.32275	0.74440
1117.26895	0.73496
1115.21514	0.72663
1113.16134	0.71858
1111.10754	0.71102
1109.05373	0.70445
1106.99993	0.69832
1104.94613	0.69231
1102.89232	0.68661
1100.83852	0.68132
1098.78472	0.67674
1096.73091	0.67309
1094.67711	0.67019
1092.62331	0.66770
1090.56950	0.66529
1088.51570	0.66285
1086.46190	0.66039
1084.40809	0.65794
1082.35429	0.65535
1080.30049	0.65221
1078.24668	0.64877
1076.19288	0.64550
1074.13908	0.64205
1072.08528	0.63795
1070.03147	0.63301
1067.97767	0.62721
1065.92387	0.62072
1063.87006	0.61366
1061.81626	0.60590
1059.76246	0.59710
1057.70865	0.58723
1055.65485	0.57665
1053.60105	0.56533
1051.54724	0.55292
1049.49344	0.53978
1047.43964	0.52650
1045.38583	0.51318
1043.33203	0.50002
1041.27823	0.48734
1039.22442	0.47510
1037.17062	0.46344
1035.11682	0.45316
1033.06301	0.44460
1031.00921	0.43739
1028.95541	0.43204
1026.90160	0.42894
1024.84780	0.42717
1022.79400	0.42543
1020.74019	0.42370
1018.68639	0.42254
1016.63259	0.42138
1014.57879	0.41976
1012.52498	0.41783
1010.47118	0.41558
1008.41738	0.41333
1006.36357	0.41224
1004.30977	0.41324
1002.25597	0.41620
1000.20216	0.42086
998.14836	0.42733
996.09456	0.43558
994.04075	0.44516
991.98695	0.45549
989.93315	0.46631
987.87934	0.47788
985.82554	0.49022
983.77174	0.50282
981.71793	0.51547
979.66413	0.52839
977.61033	0.54136
975.55652	0.55396
973.50272	0.56625
971.44892	0.57863
969.39511	0.59087
967.34131	0.60231
965.28751	0.61309
963.23371	0.62349
961.17990	0.63271
959.12610	0.64035
957.07230	0.64772
955.01849	0.65524
952.96469	0.66190
950.91089	0.66754
948.85708	0.67247
946.80328	0.67667
944.74948	0.68027
942.69567	0.68360
940.64187	0.68634
938.58807	0.68800
936.53426	0.68936
934.48046	0.69172
932.42666	0.69449
930.37285	0.69624
928.31905	0.69716
926.26525	0.69739
924.21144	0.69600
922.15764	0.69286
920.10384	0.68844
918.05003	0.68283
915.99623	0.67692
913.94243	0.67257
911.88862	0.67123
909.83482	0.67392
907.78102	0.68129
905.72722	0.69230
903.67341	0.70482
901.61961	0.71722
899.56581	0.72877
897.51200	0.73953
895.45820	0.74928
893.40440	0.75738
891.35059	0.76388
889.29679	0.76921
887.24299	0.77380
885.18918	0.77765
883.13538	0.78096
881.08158	0.78412
879.02777	0.78681
876.97397	0.78944
874.92017	0.79280
872.86636	0.79688
870.81256	0.80168
868.75876	0.80700
866.70495	0.81209
864.65115	0.81658
862.59735	0.82074
860.54354	0.82491
858.48974	0.82932
856.43594	0.83346
854.38213	0.83683
852.32833	0.83964
850.27453	0.84196
848.22073	0.84377
846.16692	0.84492
844.11312	0.84537
842.05932	0.84577
840.00551	0.84599
837.95171	0.84524
835.89791	0.84380
833.84410	0.84224
831.79030	0.84066
829.73650	0.83945
827.68269	0.83866
825.62889	0.83775
823.57509	0.83686
821.52128	0.83610
819.46748	0.83522
817.41368	0.83476
815.35987	0.83439
813.30607	0.83324
811.25227	0.83198
809.19846	0.83106
807.14466	0.82911
805.09086	0.82493
803.03705	0.82013
800.98325	0.81650
798.92945	0.81374
796.87565	0.81210
794.82184	0.81207
792.76804	0.81237
790.71424	0.81172
788.66043	0.81101
786.60663	0.81092
784.55283	0.81066
782.49902	0.81046
780.44522	0.81080
778.39142	0.81103
776.33761	0.81104
774.28381	0.81148
772.23001	0.81169
770.17620	0.81123
768.12240	0.81089
766.06860	0.81012
764.01479	0.80774
761.96099	0.80426
759.90719	0.80087
757.85338	0.79739
755.79958	0.79412
753.74578	0.79218
751.69197	0.79097
749.63817	0.78999
747.58437	0.78965
745.53056	0.78982
743.47676	0.79060
741.42296	0.79217
739.36916	0.79343
737.31535	0.79224
735.26155	0.78358
733.20775	0.76069
731.15394	0.73265
729.10014	0.72439
727.04634	0.73722
724.99253	0.74592
722.93873	0.73272
720.88493	0.69923
718.83112	0.67250
716.77732	0.67743
714.72352	0.70317
712.66971	0.72822
710.61591	0.74386
708.56211	0.74986
706.50830	0.74940
704.45450	0.74619
702.40070	0.74166
700.34689	0.73642
698.29309	0.73185
696.23929	0.72795
694.18548	0.72419
692.13168	0.72170
690.07788	0.72085
688.02408	0.72094
685.97027	0.72199
683.91647	0.72361
681.86267	0.72443
679.80886	0.72393
677.75506	0.72359
675.70126	0.72413
673.64745	0.72422
671.59365	0.72348
669.53985	0.72315
667.48604	0.72515
665.43224	0.72876
663.37844	0.73274
661.32463	0.73633
659.27083	0.73721
657.21703	0.73599
655.16322	0.73582
653.10942	0.73667
651.05562	0.73669
649.00181	0.73619
646.94801	0.73623
644.89421	0.73659
642.84040	0.73673
640.78660	0.73647
638.73280	0.73575
636.67899	0.73502
634.62519	0.73509
632.57139	0.73601
630.51759	0.73613
628.46378	0.73466
626.40998	0.73336
624.35618	0.73302
622.30237	0.73217
620.24857	0.73048
618.19477	0.72870
616.14096	0.72692
614.08716	0.72523
612.03336	0.72340
609.97955	0.72053
607.92575	0.71630
605.87195	0.71281
603.81814	0.71063
601.76434	0.70820
599.71054	0.70606
597.65673	0.70381
595.60293	0.70104
593.54913	0.69905
591.49532	0.69697
589.44152	0.69428
587.38772	0.69209
585.33391	0.68955
583.28011	0.68664
581.22631	0.68475
579.17250	0.68294
577.11870	0.67950
575.06490	0.67489
573.01110	0.67075
570.95729	0.66620
568.90349	0.65892
566.84969	0.65034
564.79588	0.64349
562.74208	0.63850
560.68828	0.63351
558.63447	0.62812
556.58067	0.62221
554.52687	0.61472
552.47306	0.60667
550.41926	0.59965
548.36546	0.59385
546.31165	0.58717
544.25785	0.57777
542.20405	0.56788
540.15024	0.55889
538.09644	0.55057
536.04264	0.54383
533.98883	0.53826
531.93503	0.53382
529.88123	0.53151
527.82742	0.53077
525.77362	0.53148
523.71982	0.53332
521.66602	0.53570
519.61221	0.54013
517.55841	0.54681
515.50461	0.55345
513.45080	0.55827
511.39700	0.56159
509.34320	0.56592
507.28939	0.57214
505.23559	0.57751
503.18179	0.58026
501.12798	0.58181
499.07418	0.58326
497.02038	0.58500
494.96657	0.58754
492.91277	0.58749
490.85897	0.58278
488.80516	0.57775
486.75136	0.57332
484.69756	0.56676
482.64375	0.55755
480.58995	0.54553
478.53615	0.53094
476.48234	0.51567
474.42854	0.50095
472.37474	0.48543
470.32093	0.46929
468.26713	0.45611
466.21333	0.44866
464.15953	0.44732
462.10572	0.45163
460.05192	0.46006
457.99812	0.46837
455.94431	0.47369
453.89051	0.47838
451.83671	0.48426
449.78290	0.48949
447.72910	0.49396
445.67530	0.49892
443.62149	0.50155
441.56769	0.50042
439.51389	0.50084
437.46008	0.50378
435.40628	0.50274
433.35248	0.49565
431.29867	0.48960
429.24487	0.48807
427.19107	0.48887
425.13726	0.49095
423.08346	0.49257
421.02966	0.49550
418.97585	0.50451
416.92205	0.51486
414.86825	0.52448
412.81445	0.53578
410.76064	0.54546
408.70684	0.55205
406.65304	0.55854
404.59923	0.56744
402.54543	0.57653
400.49163	0.58254
398.43782	0.59073
