3996.70104	0.02164
3994.64724	0.02140
3992.59344	0.02131
3990.53964	0.02160
3988.48583	0.02189
3986.43203	0.02191
3984.37823	0.02188
3982.32442	0.02195
3980.27062	0.02186
3978.21682	0.02159
3976.16301	0.02144
3974.10921	0.02153
3972.05541	0.02152
3970.00160	0.02127
3967.94780	0.02108
3965.89400	0.02105
3963.84019	0.02123
3961.78639	0.02151
3959.73259	0.02167
3957.67878	0.02154
3955.62498	0.02122
3953.57118	0.02111
3951.51737	0.02126
3949.46357	0.02138
3947.40977	0.02130
3945.35596	0.02120
3943.30216	0.02124
3941.24836	0.02137
3939.19455	0.02154
3937.14075	0.02171
3935.08695	0.02161
3933.03315	0.02124
3930.97934	0.02095
3928.92554	0.02089
3926.87174	0.02102
3924.81793	0.02119
3922.76413	0.02115
3920.71033	0.02118
3918.65652	0.02164
3916.60272	0.02216
3914.54892	0.02218
3912.49511	0.02180
3910.44131	0.02148
3908.38751	0.02135
3906.33370	0.02134
3904.27990	0.02126
3902.22610	0.02103
3900.17229	0.02101
3898.11849	0.02119
3896.06469	0.02138
3894.01088	0.02170
3891.95708	0.02184
3889.90328	0.02149
3887.84947	0.02122
3885.79567	0.02133
3883.74187	0.02156
3881.68807	0.02174
3879.63426	0.02189
3877.58046	0.02178
3875.52666	0.02155
3873.47285	0.02149
3871.41905	0.02146
3869.36525	0.02109
3867.31144	0.02092
3865.25764	0.02131
3863.20384	0.02181
3861.15003	0.02188
3859.09623	0.02159
3857.04243	0.02124
3854.98862	0.02127
3852.93482	0.02174
3850.88102	0.02167
3848.82721	0.02140
3846.77341	0.02136
3844.71961	0.02147
3842.66580	0.02146
3840.61200	0.02131
3838.55820	0.02118
3836.50439	0.02113
3834.45059	0.02139
3832.39679	0.02177
3830.34298	0.02181
3828.28918	0.02165
3826.23538	0.02168
3824.18158	0.02175
3822.12777	0.02164
3820.07397	0.02131
3818.02017	0.02108
3815.96636	0.02122
3813.91256	0.02133
3811.85876	0.02113
3809.80495	0.02097
3807.75115	0.02115
3805.69735	0.02136
3803.64354	0.02138
3801.58974	0.02153
3799.53594	0.02165
3797.48213	0.02150
3795.42833	0.02118
3793.37453	0.02100
3791.32072	0.02105
3789.26692	0.02102
3787.21312	0.02084
3785.15931	0.02074
3783.10551	0.02069
3781.05171	0.02066
3778.99790	0.02073
3776.94410	0.02065
3774.89030	0.02043
3772.83650	0.02035
3770.78269	0.02033
3768.72889	0.02048
3766.67509	0.02082
3764.62128	0.02096
3762.56748	0.02080
3760.51368	0.02050
3758.45987	0.02009
3756.40607	0.01981
3754.35227	0.01957
3752.29846	0.01920
3750.24466	0.01939
3748.19086	0.02030
3746.13705	0.02075
3744.08325	0.02037
3742.02945	0.01989
3739.97564	0.01979
3737.92184	0.01995
3735.86804	0.02016
3733.81423	0.02002
3731.76043	0.01962
3729.70663	0.01931
3727.65282	0.01928
3725.59902	0.01962
3723.54522	0.02017
3721.49141	0.02061
3719.43761	0.02089
3717.38381	0.02117
3715.33001	0.02148
3713.27620	0.02177
3711.22240	0.02213
3709.16860	0.02242
3707.11479	0.02263
3705.06099	0.02315
3703.00719	0.02402
3700.95338	0.02510
3698.89958	0.02586
3696.84578	0.02598
3694.79197	0.02589
3692.73817	0.02590
3690.68437	0.02572
3688.63056	0.02522
3686.57676	0.02497
3684.52296	0.02507
3682.46915	0.02521
3680.41535	0.02521
3678.36155	0.02502
3676.30774	0.02494
3674.25394	0.02517
3672.20014	0.02550
3670.14633	0.02613
3668.09253	0.02668
3666.03873	0.02689
3663.98492	0.02731
3661.93112	0.02789
3659.87732	0.02827
3657.82352	0.02841
3655.76971	0.02861
3653.71591	0.02891
3651.66211	0.02920
3649.60830	0.02949
3647.55450	0.02995
3645.50070	0.03042
3643.44689	0.03055
3641.39309	0.03052
3639.33929	0.03066
3637.28548	0.03105
3635.23168	0.03152
3633.17788	0.03182
3631.12407	0.03184
3629.07027	0.03221
3627.01647	0.03314
3624.96266	0.03357
3622.90886	0.03335
3620.85506	0.03318
3618.80125	0.03373
3616.74745	0.03417
3614.69365	0.03396
3612.63984	0.03358
3610.58604	0.03330
3608.53224	0.03321
3606.47844	0.03337
3604.42463	0.03359
3602.37083	0.03360
3600.31703	0.03344
3598.26322	0.03342
3596.20942	0.03348
3594.15562	0.03344
3592.10181	0.03333
3590.04801	0.03304
3587.99421	0.03283
3585.94040	0.03308
3583.88660	0.03348
3581.83280	0.03366
3579.77899	0.03371
3577.72519	0.03385
3575.67139	0.03414
3573.61758	0.03443
3571.56378	0.03459
3569.50998	0.03452
3567.45617	0.03446
3565.40237	0.03485
3563.34857	0.03519
3561.29476	0.03532
3559.24096	0.03560
3557.18716	0.03590
3555.13335	0.03603
3553.07955	0.03609
3551.02575	0.03599
3548.97195	0.03607
3546.91814	0.03664
3544.86434	0.03717
3542.81054	0.03722
3540.75673	0.03708
3538.70293	0.03717
3536.64913	0.03742
3534.59532	0.03743
3532.54152	0.03723
3530.48772	0.03710
3528.43391	0.03720
3526.38011	0.03738
3524.32631	0.03736
3522.27250	0.03741
3520.21870	0.03771
3518.16490	0.03786
3516.11109	0.03779
3514.05729	0.03782
3512.00349	0.03773
3509.94968	0.03751
3507.89588	0.03745
3505.84208	0.03757
3503.78827	0.03784
3501.73447	0.03813
3499.68067	0.03830
3497.62687	0.03845
3495.57306	0.03861
3493.51926	0.03874
3491.46546	0.03864
3489.41165	0.03849
3487.35785	0.03855
3485.30405	0.03858
3483.25024	0.03852
3481.19644	0.03868
3479.14264	0.03899
3477.08883	0.03899
3475.03503	0.03883
3472.98123	0.03888
3470.92742	0.03906
3468.87362	0.03933
3466.81982	0.03960
3464.76601	0.03983
3462.71221	0.04024
3460.65841	0.04047
3458.60460	0.04037
3456.55080	0.04035
3454.49700	0.04051
3452.44319	0.04073
3450.38939	0.04096
3448.33559	0.04092
3446.28178	0.04081
3444.22798	0.04100
3442.17418	0.04127
3440.12038	0.04141
3438.06657	0.04163
3436.01277	0.04180
3433.95897	0.04160
3431.90516	0.04140
3429.85136	0.04170
3427.79756	0.04209
3425.74375	0.04221
3423.68995	0.04241
3421.63615	0.04274
3419.58234	0.04296
3417.52854	0.04309
3415.47474	0.04310
3413.42093	0.04323
3411.36713	0.04352
3409.31333	0.04366
3407.25952	0.04365
3405.20572	0.04364
3403.15192	0.04370
3401.09811	0.04381
3399.04431	0.04381
3396.99051	0.04375
3394.93670	0.04372
3392.88290	0.04364
3390.82910	0.04363
3388.77529	0.04380
3386.72149	0.04397
3384.66769	0.04402
3382.61389	0.04387
3380.56008	0.04358
3378.50628	0.04337
3376.45248	0.04321
3374.39867	0.04303
3372.34487	0.04297
3370.29107	0.04314
3368.23726	0.04335
3366.18346	0.04344
3364.12966	0.04356
3362.07585	0.04346
3360.02205	0.04307
3357.96825	0.04280
3355.91444	0.04278
3353.86064	0.04286
3351.80684	0.04302
3349.75303	0.04311
3347.69923	0.04289
3345.64543	0.04245
3343.59162	0.04217
3341.53782	0.04219
3339.48402	0.04235
3337.43021	0.04244
3335.37641	0.04234
3333.32261	0.04216
3331.26881	0.04198
3329.21500	0.04177
3327.16120	0.04179
3325.10740	0.04205
3323.05359	0.04211
3320.99979	0.04202
3318.94599	0.04188
3316.89218	0.04156
3314.83838	0.04133
3312.78458	0.04142
3310.73077	0.04157
3308.67697	0.04149
3306.62317	0.04117
3304.56936	0.04086
3302.51556	0.04080
3300.46176	0.04096
3298.40795	0.04110
3296.35415	0.04109
3294.30035	0.04103
3292.24654	0.04106
3290.19274	0.04110
3288.13894	0.04099
3286.08513	0.04079
3284.03133	0.04071
3281.97753	0.04075
3279.92372	0.04081
3277.86992	0.04081
3275.81612	0.04054
3273.76232	0.04011
3271.70851	0.03980
3269.65471	0.03977
3267.60091	0.03978
3265.54710	0.03955
3263.49330	0.03931
3261.43950	0.03925
3259.38569	0.03922
3257.33189	0.03908
3255.27809	0.03895
3253.22428	0.03903
3251.17048	0.03915
3249.11668	0.03895
3247.06287	0.03855
3245.00907	0.03843
3242.95527	0.03846
3240.90146	0.03830
3238.84766	0.03812
3236.79386	0.03802
3234.74005	0.03795
3232.68625	0.03800
3230.63245	0.03810
3228.57864	0.03805
3226.52484	0.03793
3224.47104	0.03793
3222.41724	0.03781
3220.36343	0.03742
3218.30963	0.03718
3216.25583	0.03711
3214.20202	0.03698
3212.14822	0.03689
3210.09442	0.03691
3208.04061	0.03683
3205.98681	0.03650
3203.93301	0.03615
3201.87920	0.03614
3199.82540	0.03629
3197.77160	0.03616
3195.71779	0.03585
3193.66399	0.03575
3191.61019	0.03561
3189.55638	0.03533
3187.50258	0.03527
3185.44878	0.03532
3183.39497	0.03516
3181.34117	0.03495
3179.28737	0.03498
3177.23356	0.03511
3175.17976	0.03507
3173.12596	0.03488
3171.07215	0.03470
3169.01835	0.03464
3166.96455	0.03453
3164.91075	0.03423
3162.85694	0.03384
3160.80314	0.03356
3158.74934	0.03359
3156.69553	0.03371
3154.64173	0.03377
3152.58793	0.03385
3150.53412	0.03382
3148.48032	0.03360
3146.42652	0.03325
3144.37271	0.03276
3142.31891	0.03241
3140.26511	0.03232
3138.21130	0.03208
3136.15750	0.03167
3134.10370	0.03148
3132.04989	0.03157
3129.99609	0.03160
3127.94229	0.03152
3125.88848	0.03150
3123.83468	0.03135
3121.78088	0.03119
3119.72707	0.03131
3117.67327	0.03149
3115.61947	0.03147
3113.56566	0.03133
3111.51186	0.03120
3109.45806	0.03120
3107.40426	0.03137
3105.35045	0.03133
3103.29665	0.03108
3101.24285	0.03104
3099.18904	0.03114
3097.13524	0.03112
3095.08144	0.03102
3093.02763	0.03101
3090.97383	0.03122
3088.92003	0.03167
3086.86622	0.03227
3084.81242	0.03267
3082.75862	0.03275
3080.70481	0.03265
3078.65101	0.03228
3076.59721	0.03177
3074.54340	0.03156
3072.48960	0.03158
3070.43580	0.03159
3068.38199	0.03179
3066.32819	0.03228
3064.27439	0.03295
3062.22058	0.03370
3060.16678	0.03428
3058.11298	0.03424
3056.05918	0.03355
3054.00537	0.03269
3051.95157	0.03185
3049.89777	0.03111
3047.84396	0.03076
3045.79016	0.03066
3043.73636	0.03055
3041.68255	0.03053
3039.62875	0.03063
3037.57495	0.03087
3035.52114	0.03149
3033.46734	0.03258
3031.41354	0.03405
3029.35973	0.03585
3027.30593	0.03760
3025.25213	0.03863
3023.19832	0.03841
3021.14452	0.03703
3019.09072	0.03512
3017.03691	0.03318
3014.98311	0.03164
3012.92931	0.03074
3010.87550	0.03022
3008.82170	0.02992
3006.76790	0.02993
3004.71409	0.03012
3002.66029	0.03030
3000.60649	0.03031
2998.55269	0.02994
2996.49888	0.02926
2994.44508	0.02865
2992.39128	0.02826
2990.33747	0.02790
2988.28367	0.02762
2986.22987	0.02762
2984.17606	0.02778
2982.12226	0.02786
2980.06846	0.02780
2978.01465	0.02781
2975.96085	0.02790
2973.90705	0.02780
2971.85324	0.02759
2969.79944	0.02771
2967.74564	0.02817
2965.69183	0.02839
2963.63803	0.02822
2961.58423	0.02831
2959.53042	0.02885
2957.47662	0.02930
2955.42282	0.02947
2953.36901	0.02954
2951.31521	0.02960
2949.26141	0.02973
2947.20761	0.03006
2945.15380	0.03073
2943.10000	0.03158
2941.04620	0.03237
2938.99239	0.03328
2936.93859	0.03455
2934.88479	0.03599
2932.83098	0.03726
2930.77718	0.03832
2928.72338	0.03941
2926.66957	0.04053
2924.61577	0.04143
2922.56197	0.04203
2920.50816	0.04237
2918.45436	0.04235
2916.40056	0.04194
2914.34675	0.04122
2912.29295	0.04029
2910.23915	0.03931
2908.18534	0.03834
2906.13154	0.03740
2904.07774	0.03649
2902.02393	0.03557
2899.97013	0.03470
2897.91633	0.03403
2895.86252	0.03346
2893.80872	0.03282
2891.75492	0.03234
2889.70112	0.03221
2887.64731	0.03200
2885.59351	0.03143
2883.53971	0.03085
2881.48590	0.03063
2879.43210	0.03063
2877.37830	0.03052
2875.32449	0.03020
2873.27069	0.02990
2871.21689	0.02979
2869.16308	0.02977
2867.10928	0.02975
2865.05548	0.02991
2863.00167	0.03019
2860.94787	0.03050
2858.89407	0.03096
2856.84026	0.03147
2854.78646	0.03190
2852.73266	0.03238
2850.67885	0.03273
2848.62505	0.03260
2846.57125	0.03217
2844.51744	0.03165
2842.46364	0.03096
2840.40984	0.03016
2838.35603	0.02941
2836.30223	0.02877
2834.24843	0.02816
2832.19463	0.02758
2830.14082	0.02721
2828.08702	0.02702
2826.03322	0.02678
2823.97941	0.02654
2821.92561	0.02641
2819.87181	0.02631
2817.81800	0.02615
2815.76420	0.02605
2813.71040	0.02602
2811.65659	0.02596
2809.60279	0.02596
2807.54899	0.02603
2805.49518	0.02596
2803.44138	0.02579
2801.38758	0.02564
2799.33377	0.02552
2797.27997	0.02539
2795.22617	0.02532
2793.17236	0.02533
2791.11856	0.02529
2789.06476	0.02518
2787.01095	0.02518
2784.95715	0.02523
2782.90335	0.02508
2780.84955	0.02479
2778.79574	0.02476
2776.74194	0.02487
2774.68814	0.02480
2772.63433	0.02463
2770.58053	0.02453
2768.52673	0.02452
2766.47292	0.02457
2764.41912	0.02455
2762.36532	0.02450
2760.31151	0.02456
2758.25771	0.02464
2756.20391	0.02464
2754.15010	0.02460
2752.09630	0.02453
2750.04250	0.02434
2747.98869	0.02417
2745.93489	0.02420
2743.88109	0.02431
2741.82728	0.02438
2739.77348	0.02436
2737.71968	0.02428
2735.66587	0.02435
2733.61207	0.02442
2731.55827	0.02428
2729.50446	0.02412
2727.45066	0.02401
2725.39686	0.02397
2723.34306	0.02408
2721.28925	0.02418
2719.23545	0.02416
2717.18165	0.02408
2715.12784	0.02394
2713.07404	0.02386
2711.02024	0.02393
2708.96643	0.02403
2706.91263	0.02412
2704.85883	0.02418
2702.80502	0.02412
2700.75122	0.02397
2698.69742	0.02385
2696.64361	0.02383
2694.58981	0.02386
2692.53601	0.02381
2690.48220	0.02368
2688.42840	0.02358
2686.37460	0.02357
2684.32079	0.02365
2682.26699	0.02372
2680.21319	0.02373
2678.15938	0.02372
2676.10558	0.02365
2674.05178	0.02355
2671.99797	0.02353
2669.94417	0.02363
2667.89037	0.02369
2665.83657	0.02363
2663.78276	0.02364
2661.72896	0.02369
2659.67516	0.02364
2657.62135	0.02349
2655.56755	0.02339
2653.51375	0.02344
2651.45994	0.02353
2649.40614	0.02345
2647.35234	0.02335
2645.29853	0.02333
2643.24473	0.02327
2641.19093	0.02323
2639.13712	0.02322
2637.08332	0.02319
2635.02952	0.02324
2632.97571	0.02333
2630.92191	0.02334
2628.86811	0.02328
2626.81430	0.02314
2624.76050	0.02294
2622.70670	0.02289
2620.65289	0.02302
2618.59909	0.02315
2616.54529	0.02311
2614.49149	0.02287
2612.43768	0.02259
2610.38388	0.02240
2608.33008	0.02245
2606.27627	0.02271
2604.22247	0.02292
2602.16867	0.02294
2600.11486	0.02284
2598.06106	0.02272
2596.00726	0.02267
2593.95345	0.02269
2591.89965	0.02256
2589.84585	0.02232
2587.79204	0.02223
2585.73824	0.02230
2583.68444	0.02237
2581.63063	0.02237
2579.57683	0.02237
2577.52303	0.02249
2575.46922	0.02261
2573.41542	0.02257
2571.36162	0.02246
2569.30781	0.02225
2567.25401	0.02203
2565.20021	0.02205
2563.14640	0.02204
2561.09260	0.02196
2559.03880	0.02212
2556.98500	0.02232
2554.93119	0.02253
2552.87739	0.02279
2550.82359	0.02268
2548.76978	0.02226
2546.71598	0.02177
2544.66218	0.02139
2542.60837	0.02144
2540.55457	0.02177
2538.50077	0.02191
2536.44696	0.02194
2534.39316	0.02203
2532.33936	0.02194
2530.28555	0.02166
2528.23175	0.02134
2526.17795	0.02123
2524.12414	0.02151
2522.07034	0.02192
2520.01654	0.02212
2517.96273	0.02203
2515.90893	0.02180
2513.85513	0.02160
2511.80132	0.02151
2509.74752	0.02156
2507.69372	0.02155
2505.63992	0.02139
2503.58611	0.02127
2501.53231	0.02125
2499.47851	0.02116
2497.42470	0.02114
2495.37090	0.02131
2493.31710	0.02157
2491.26329	0.02175
2489.20949	0.02165
2487.15569	0.02143
2485.10188	0.02134
2483.04808	0.02139
2480.99428	0.02143
2478.94047	0.02132
2476.88667	0.02128
2474.83287	0.02144
2472.77906	0.02149
2470.72526	0.02130
2468.67146	0.02114
2466.61765	0.02101
2464.56385	0.02080
2462.51005	0.02084
2460.45624	0.02136
2458.40244	0.02184
2456.34864	0.02178
2454.29483	0.02132
2452.24103	0.02083
2450.18723	0.02072
2448.13343	0.02119
2446.07962	0.02177
2444.02582	0.02190
2441.97202	0.02181
2439.91821	0.02175
2437.86441	0.02152
2435.81061	0.02125
2433.75680	0.02115
2431.70300	0.02102
2429.64920	0.02081
2427.59539	0.02074
2425.54159	0.02088
2423.48779	0.02111
2421.43398	0.02133
2419.38018	0.02130
2417.32638	0.02095
2415.27257	0.02082
2413.21877	0.02110
2411.16497	0.02118
2409.11116	0.02097
2407.05736	0.02102
2405.00356	0.02132
2402.94975	0.02136
2400.89595	0.02118
2398.84215	0.02110
2396.78834	0.02098
2394.73454	0.02078
2392.68074	0.02087
2390.62694	0.02115
2388.57313	0.02128
2386.51933	0.02133
2384.46553	0.02129
2382.41172	0.02115
2380.35792	0.02113
2378.30412	0.02138
2376.25031	0.02171
2374.19651	0.02178
2372.14271	0.02169
2370.08890	0.02170
2368.03510	0.02166
2365.98130	0.02150
2363.92749	0.02151
2361.87369	0.02146
2359.81989	0.02128
2357.76608	0.02117
2355.71228	0.02101
2353.65848	0.02131
2351.60467	0.02183
2349.55087	0.02200
2347.49707	0.02205
2345.44326	0.02195
2343.38946	0.02156
2341.33566	0.02129
2339.28186	0.02124
2337.22805	0.02125
2335.17425	0.02137
2333.12045	0.02159
2331.06664	0.02169
2329.01284	0.02149
2326.95904	0.02156
2324.90523	0.02207
2322.85143	0.02231
2320.79763	0.02206
2318.74382	0.02177
2316.69002	0.02182
2314.63622	0.02204
2312.58241	0.02193
2310.52861	0.02161
2308.47481	0.02156
2306.42100	0.02169
2304.36720	0.02151
2302.31340	0.02128
2300.25959	0.02144
2298.20579	0.02163
2296.15199	0.02159
2294.09818	0.02133
2292.04438	0.02106
2289.99058	0.02115
2287.93677	0.02134
2285.88297	0.02125
2283.82917	0.02118
2281.77537	0.02130
2279.72156	0.02136
2277.66776	0.02142
2275.61396	0.02159
2273.56015	0.02155
2271.50635	0.02132
2269.45255	0.02139
2267.39874	0.02151
2265.34494	0.02123
2263.29114	0.02111
2261.23733	0.02106
2259.18353	0.02046
2257.12973	0.02004
2255.07592	0.02043
2253.02212	0.02111
2250.96832	0.02124
2248.91451	0.02075
2246.86071	0.02030
2244.80691	0.01999
2242.75310	0.01986
2240.69930	0.02002
2238.64550	0.02048
2236.59169	0.02102
2234.53789	0.02114
2232.48409	0.02037
2230.43029	0.01913
2228.37648	0.01869
2226.32268	0.01912
2224.26888	0.01975
2222.21507	0.02031
2220.16127	0.01981
2218.10747	0.01863
2216.05366	0.01868
2213.99986	0.01948
2211.94606	0.01944
2209.89225	0.01901
2207.83845	0.01899
2205.78465	0.01913
2203.73084	0.01947
2201.67704	0.02016
2199.62324	0.02056
2197.56943	0.02050
2195.51563	0.02035
2193.46183	0.02038
2191.40802	0.02030
2189.35422	0.01972
2187.30042	0.01947
2185.24661	0.01978
2183.19281	0.01972
2181.13901	0.01935
2179.08520	0.01923
2177.03140	0.01913
2174.97760	0.01881
2172.92380	0.01865
2170.86999	0.01916
2168.81619	0.01965
2166.76239	0.01977
2164.70858	0.01988
2162.65478	0.01917
2160.60098	0.01736
2158.54717	0.01581
2156.49337	0.01577
2154.43957	0.01651
2152.38576	0.01733
2150.33196	0.01784
2148.27816	0.01745
2146.22435	0.01709
2144.17055	0.01784
2142.11675	0.01892
2140.06294	0.01936
2138.00914	0.01913
2135.95534	0.01842
2133.90153	0.01794
2131.84773	0.01812
2129.79393	0.01865
2127.74012	0.01903
2125.68632	0.01886
2123.63252	0.01868
2121.57871	0.01902
2119.52491	0.01961
2117.47111	0.01983
2115.41731	0.01953
2113.36350	0.01938
2111.30970	0.01936
2109.25590	0.01922
2107.20209	0.01897
2105.14829	0.01848
2103.09449	0.01801
2101.04068	0.01813
2098.98688	0.01881
2096.93308	0.01910
2094.87927	0.01877
2092.82547	0.01844
2090.77167	0.01846
2088.71786	0.01901
2086.66406	0.01968
2084.61026	0.01982
2082.55645	0.01973
2080.50265	0.01979
2078.44885	0.01984
2076.39504	0.01975
2074.34124	0.01950
2072.28744	0.01950
2070.23363	0.01991
2068.17983	0.02014
2066.12603	0.01985
2064.07223	0.01948
2062.01842	0.01928
2059.96462	0.01910
2057.91082	0.01888
2055.85701	0.01864
2053.80321	0.01833
2051.74941	0.01810
2049.69560	0.01791
2047.64180	0.01781
2045.58800	0.01763
2043.53419	0.01699
2041.48039	0.01672
2039.42659	0.01759
2037.37278	0.01876
2035.31898	0.01903
2033.26518	0.01883
2031.21137	0.01877
2029.15757	0.01761
2027.10377	0.01568
2025.04996	0.01506
2022.99616	0.01595
2020.94236	0.01684
2018.88855	0.01703
2016.83475	0.01724
2014.78095	0.01795
2012.72714	0.01895
2010.67334	0.01903
2008.61954	0.01767
2006.56574	0.01665
2004.51193	0.01687
2002.45813	0.01699
2000.40433	0.01637
1998.35052	0.01610
1996.29672	0.01688
1994.24292	0.01740
1992.18911	0.01694
1990.13531	0.01660
1988.08151	0.01663
1986.02770	0.01708
1983.97390	0.01805
1981.92010	0.01837
1979.86629	0.01794
1977.81249	0.01766
1975.75869	0.01725
1973.70488	0.01700
1971.65108	0.01772
1969.59728	0.01867
1967.54347	0.01791
1965.48967	0.01651
1963.43587	0.01676
1961.38206	0.01732
1959.32826	0.01702
1957.27446	0.01676
1955.22066	0.01695
1953.16685	0.01757
1951.11305	0.01859
1949.05925	0.01923
1947.00544	0.01915
1944.95164	0.01884
1942.89784	0.01866
1940.84403	0.01876
1938.79023	0.01911
1936.73643	0.01960
1934.68262	0.01965
1932.62882	0.01889
1930.57502	0.01791
1928.52121	0.01762
1926.46741	0.01802
1924.41361	0.01840
1922.35980	0.01858
1920.30600	0.01865
1918.25220	0.01854
1916.19839	0.01850
1914.14459	0.01857
1912.09079	0.01866
1910.03698	0.01882
1907.98318	0.01858
1905.92938	0.01820
1903.87557	0.01822
1901.82177	0.01822
1899.76797	0.01814
1897.71417	0.01824
1895.66036	0.01839
1893.60656	0.01858
1891.55276	0.01876
1889.49895	0.01892
1887.44515	0.01922
1885.39135	0.01963
1883.33754	0.02008
1881.28374	0.02040
1879.22994	0.02033
1877.17613	0.01999
1875.12233	0.01991
1873.06853	0.01987
1871.01472	0.01955
1868.96092	0.01948
1866.90712	0.01979
1864.85331	0.01997
1862.79951	0.01989
1860.74571	0.01964
1858.69190	0.01952
1856.63810	0.01953
1854.58430	0.01938
1852.53049	0.01918
1850.47669	0.01918
1848.42289	0.01926
1846.36908	0.01916
1844.31528	0.01893
1842.26148	0.01876
1840.20768	0.01865
1838.15387	0.01867
1836.10007	0.01886
1834.04627	0.01903
1831.99246	0.01920
1829.93866	0.01927
1827.88486	0.01900
1825.83105	0.01875
1823.77725	0.01878
1821.72345	0.01895
1819.66964	0.01914
1817.61584	0.01914
1815.56204	0.01911
1813.50823	0.01931
1811.45443	0.01965
1809.40063	0.01997
1807.34682	0.02017
1805.29302	0.02027
1803.23922	0.02023
1801.18541	0.02014
1799.13161	0.02014
1797.07781	0.02017
1795.02400	0.02018
1792.97020	0.02010
1790.91640	0.01989
1788.86260	0.01977
1786.80879	0.01971
1784.75499	0.01955
1782.70119	0.01944
1780.64738	0.01957
1778.59358	0.01970
1776.53978	0.01963
1774.48597	0.01959
1772.43217	0.01975
1770.37837	0.01982
1768.32456	0.01964
1766.27076	0.01940
1764.21696	0.01930
1762.16315	0.01938
1760.10935	0.01952
1758.05555	0.01963
1756.00174	0.01984
1753.94794	0.02004
1751.89414	0.02009
1749.84033	0.02033
1747.78653	0.02094
1745.73273	0.02147
1743.67892	0.02166
1741.62512	0.02169
1739.57132	0.02181
1737.51751	0.02200
1735.46371	0.02217
1733.40991	0.02218
1731.35611	0.02212
1729.30230	0.02220
1727.24850	0.02219
1725.19470	0.02208
1723.14089	0.02209
1721.08709	0.02204
1719.03329	0.02182
1716.97948	0.02165
1714.92568	0.02181
1712.87188	0.02207
1710.81807	0.02234
1708.76427	0.02257
1706.71047	0.02278
1704.65666	0.02290
1702.60286	0.02296
1700.54906	0.02327
1698.49525	0.02372
1696.44145	0.02403
1694.38765	0.02440
1692.33384	0.02476
1690.28004	0.02526
1688.22624	0.02596
1686.17243	0.02673
1684.11863	0.02765
1682.06483	0.02821
1680.01103	0.02840
1677.95722	0.02868
1675.90342	0.02927
1673.84962	0.02998
1671.79581	0.03051
1669.74201	0.03114
1667.68821	0.03160
1665.63440	0.03174
1663.58060	0.03201
1661.52680	0.03247
1659.47299	0.03295
1657.41919	0.03345
1655.36539	0.03379
1653.31158	0.03392
1651.25778	0.03396
1649.20398	0.03388
1647.15017	0.03391
1645.09637	0.03405
1643.04257	0.03406
1640.98876	0.03407
1638.93496	0.03412
1636.88116	0.03415
1634.82735	0.03401
1632.77355	0.03386
1630.71975	0.03389
1628.66594	0.03411
1626.61214	0.03429
1624.55834	0.03426
1622.50454	0.03414
1620.45073	0.03391
1618.39693	0.03348
1616.34313	0.03295
1614.28932	0.03266
1612.23552	0.03259
1610.18172	0.03289
1608.12791	0.03388
1606.07411	0.03566
1604.02031	0.03794
1601.96650	0.03966
1599.91270	0.03965
1597.85890	0.03804
1595.80509	0.03596
1593.75129	0.03435
1591.69749	0.03332
1589.64368	0.03252
1587.58988	0.03210
1585.53608	0.03235
1583.48227	0.03270
1581.42847	0.03231
1579.37467	0.03136
1577.32086	0.03042
1575.26706	0.02972
1573.21326	0.02930
1571.15945	0.02895
1569.10565	0.02861
1567.05185	0.02843
1564.99805	0.02830
1562.94424	0.02809
1560.89044	0.02794
1558.83664	0.02806
1556.78283	0.02821
1554.72903	0.02813
1552.67523	0.02807
1550.62142	0.02814
1548.56762	0.02832
1546.51382	0.02844
1544.46001	0.02841
1542.40621	0.02818
1540.35241	0.02791
1538.29860	0.02795
1536.24480	0.02799
1534.19100	0.02793
1532.13719	0.02788
1530.08339	0.02778
1528.02959	0.02764
1525.97578	0.02763
1523.92198	0.02773
1521.86818	0.02785
1519.81437	0.02795
1517.76057	0.02799
1515.70677	0.02804
1513.65297	0.02811
1511.59916	0.02817
1509.54536	0.02808
1507.49156	0.02793
1505.43775	0.02851
1503.38395	0.02939
1501.33015	0.03029
1499.27634	0.03232
1497.22254	0.03852
1495.16874	0.04862
1493.11493	0.05520
1491.06113	0.05422
1489.00733	0.04701
1486.95352	0.04086
1484.89972	0.03786
1482.84592	0.03607
1480.79211	0.03483
1478.73831	0.03412
1476.68451	0.03387
1474.63070	0.03398
1472.57690	0.03417
1470.52310	0.03408
1468.46929	0.03395
1466.41549	0.03401
1464.36169	0.03419
1462.30788	0.03442
1460.25408	0.03493
1458.20028	0.03776
1456.14648	0.04657
1454.09267	0.05545
1452.03887	0.05941
1449.98507	0.05832
1447.93126	0.05409
1445.87746	0.04995
1443.82366	0.04700
1441.76985	0.04464
1439.71605	0.04269
1437.66225	0.04082
1435.60844	0.03896
1433.55464	0.03763
1431.50084	0.03660
1429.44703	0.03566
1427.39323	0.03494
1425.33943	0.03443
1423.28562	0.03406
1421.23182	0.03377
1419.17802	0.03336
1417.12421	0.03279
1415.07041	0.03230
1413.01661	0.03185
1410.96280	0.03125
1408.90900	0.03060
1406.85520	0.03008
1404.80139	0.02969
1402.74759	0.02928
1400.69379	0.02887
1398.63999	0.02863
1396.58618	0.02853
1394.53238	0.02836
1392.47858	0.02818
1390.42477	0.02808
1388.37097	0.02818
1386.31717	0.02850
1384.26336	0.02873
1382.20956	0.02881
1380.15576	0.02892
1378.10195	0.02913
1376.04815	0.02930
1373.99435	0.02935
1371.94054	0.02938
1369.88674	0.02943
1367.83294	0.02949
1365.77913	0.02946
1363.72533	0.02925
1361.67153	0.02901
1359.61772	0.02885
1357.56392	0.02860
1355.51012	0.02832
1353.45631	0.02809
1351.40251	0.02791
1349.34871	0.02774
1347.29491	0.02756
1345.24110	0.02739
1343.18730	0.02719
1341.13350	0.02690
1339.07969	0.02661
1337.02589	0.02650
1334.97209	0.02653
1332.91828	0.02662
1330.86448	0.02683
1328.81068	0.02713
1326.75687	0.02720
1324.70307	0.02690
1322.64927	0.02654
1320.59546	0.02643
1318.54166	0.02649
1316.48786	0.02656
1314.43405	0.02658
1312.38025	0.02654
1310.32645	0.02650
1308.27264	0.02640
1306.21884	0.02627
1304.16504	0.02617
1302.11123	0.02603
1300.05743	0.02580
1298.00363	0.02567
1295.94982	0.02566
1293.89602	0.02565
1291.84222	0.02567
1289.78842	0.02566
1287.73461	0.02564
1285.68081	0.02574
1283.62701	0.02589
1281.57320	0.02599
1279.51940	0.02611
1277.46560	0.02631
1275.41179	0.02647
1273.35799	0.02657
1271.30419	0.02670
1269.25038	0.02682
1267.19658	0.02688
1265.14278	0.02686
1263.08897	0.02679
1261.03517	0.02681
1258.98137	0.02694
1256.92756	0.02712
1254.87376	0.02724
1252.81996	0.02725
1250.76615	0.02742
1248.71235	0.02778
1246.65855	0.02812
1244.60474	0.02839
1242.55094	0.02853
1240.49714	0.02860
1238.44334	0.02875
1236.38953	0.02887
1234.33573	0.02899
1232.28193	0.02928
1230.22812	0.02966
1228.17432	0.02997
1226.12052	0.03035
1224.06671	0.03094
1222.01291	0.03163
1219.95911	0.03231
1217.90530	0.03295
1215.85150	0.03357
1213.79770	0.03432
1211.74389	0.03536
1209.69009	0.03656
1207.63629	0.03770
1205.58248	0.03878
1203.52868	0.04003
1201.47488	0.04152
1199.42107	0.04301
1197.36727	0.04448
1195.31347	0.04607
1193.25966	0.04782
1191.20586	0.04958
1189.15206	0.05127
1187.09825	0.05312
1185.04445	0.05526
1182.99065	0.05744
1180.93685	0.05945
1178.88304	0.06116
1176.82924	0.06254
1174.77544	0.06394
1172.72163	0.06573
1170.66783	0.06789
1168.61403	0.07000
1166.56022	0.07175
1164.50642	0.07319
1162.45262	0.07452
1160.39881	0.07570
1158.34501	0.07686
1156.29121	0.07839
1154.23740	0.08010
1152.18360	0.08144
1150.12980	0.08223
1148.07599	0.08278
1146.02219	0.08354
1143.96839	0.08461
1141.91458	0.08577
1139.86078	0.08692
1137.80698	0.08807
1135.75317	0.08932
1133.69937	0.09080
1131.64557	0.09266
1129.59176	0.09481
1127.53796	0.09700
1125.48416	0.09937
1123.43036	0.10209
1121.37655	0.10498
1119.32275	0.10808
1117.26895	0.11165
1115.21514	0.11564
1113.16134	0.11948
1111.10754	0.12267
1109.05373	0.12540
1106.99993	0.12813
1104.94613	0.13073
1102.89232	0.13307
1100.83852	0.13517
1098.78472	0.13694
1096.73091	0.13861
1094.67711	0.14030
1092.62331	0.14181
1090.56950	0.14329
1088.51570	0.14483
1086.46190	0.14621
1084.40809	0.14765
1082.35429	0.14950
1080.30049	0.15145
1078.24668	0.15306
1076.19288	0.15458
1074.13908	0.15649
1072.08528	0.15886
1070.03147	0.16145
1067.97767	0.16419
1065.92387	0.16720
1063.87006	0.17041
1061.81626	0.17353
1059.76246	0.17656
1057.70865	0.17980
1055.65485	0.18326
1053.60105	0.18717
1051.54724	0.19196
1049.49344	0.19751
1047.43964	0.20335
1045.38583	0.20964
1043.33203	0.21674
1041.27823	0.22443
1039.22442	0.23228
1037.17062	0.24025
1035.11682	0.24859
1033.06301	0.25725
1031.00921	0.26576
1028.95541	0.27324
1026.90160	0.27897
1024.84780	0.28295
1022.79400	0.28594
1020.74019	0.28868
1018.68639	0.29124
1016.63259	0.29379
1014.57879	0.29690
1012.52498	0.30046
1010.47118	0.30366
1008.41738	0.30639
1006.36357	0.30898
1004.30977	0.31141
1002.25597	0.31306
1000.20216	0.31348
998.14836	0.31279
996.09456	0.31110
994.04075	0.30870
991.98695	0.30594
989.93315	0.30289
987.87934	0.29937
985.82554	0.29513
983.77174	0.29015
981.71793	0.28438
979.66413	0.27760
977.61033	0.26965
975.55652	0.26068
973.50272	0.25145
971.44892	0.24228
969.39511	0.23302
967.34131	0.22418
965.28751	0.21614
963.23371	0.20863
961.17990	0.20139
959.12610	0.19450
957.07230	0.18806
955.01849	0.18220
952.96469	0.17713
950.91089	0.17276
948.85708	0.16888
946.80328	0.16529
944.74948	0.16193
942.69567	0.15875
940.64187	0.15566
938.58807	0.15282
936.53426	0.15009
934.48046	0.14701
932.42666	0.14366
930.37285	0.14065
928.31905	0.13834
926.26525	0.13671
924.21144	0.13557
922.15764	0.13474
920.10384	0.13416
918.05003	0.13418
915.99623	0.13490
913.94243	0.13577
911.88862	0.13634
909.83482	0.13616
907.78102	0.13466
905.72722	0.13167
903.67341	0.12721
901.61961	0.12144
899.56581	0.11498
897.51200	0.10885
895.45820	0.10384
893.40440	0.09998
891.35059	0.09659
889.29679	0.09342
887.24299	0.09089
885.18918	0.08906
883.13538	0.08767
881.08158	0.08660
879.02777	0.08571
876.97397	0.08474
874.92017	0.08325
872.86636	0.08106
870.81256	0.07854
868.75876	0.07620
866.70495	0.07419
864.65115	0.07256
862.59735	0.07139
860.54354	0.07053
858.48974	0.06955
856.43594	0.06809
854.38213	0.06641
852.32833	0.06511
850.27453	0.06427
848.22073	0.06399
846.16692	0.06453
844.11312	0.06521
842.05932	0.06558
840.00551	0.06587
837.95171	0.06618
835.89791	0.06646
833.84410	0.06676
831.79030	0.06716
829.73650	0.06749
827.68269	0.06758
825.62889	0.06745
823.57509	0.06727
821.52128	0.06692
819.46748	0.06612
817.41368	0.06529
815.35987	0.06502
813.30607	0.06543
811.25227	0.06677
809.19846	0.06922
807.14466	0.07251
805.09086	0.07658
803.03705	0.08087
800.98325	0.08412
798.92945	0.08550
796.87565	0.08513
794.82184	0.08398
792.76804	0.08292
790.71424	0.08243
788.66043	0.08268
786.60663	0.08353
784.55283	0.08496
782.49902	0.08680
780.44522	0.08875
778.39142	0.09052
776.33761	0.09190
774.28381	0.09340
772.23001	0.09561
770.17620	0.09902
768.12240	0.10413
766.06860	0.11042
764.01479	0.11700
761.96099	0.12351
759.90719	0.12973
757.85338	0.13493
755.79958	0.13782
753.74578	0.13842
751.69197	0.13816
749.63817	0.13768
747.58437	0.13624
745.53056	0.13264
743.47676	0.12629
741.42296	0.11839
739.36916	0.11058
737.31535	0.10376
735.26155	0.09827
733.20775	0.09374
731.15394	0.08989
729.10014	0.08706
727.04634	0.08549
724.99253	0.08462
722.93873	0.08341
720.88493	0.08177
718.83112	0.08021
716.77732	0.07901
714.72352	0.07866
712.66971	0.07997
710.61591	0.08406
708.56211	0.09296
706.50830	0.10916
704.45450	0.13439
702.40070	0.16918
700.34689	0.21237
698.29309	0.25811
696.23929	0.28736
694.18548	0.27660
692.13168	0.23445
690.07788	0.19160
688.02408	0.16266
685.97027	0.14582
683.91647	0.13611
681.86267	0.13023
679.80886	0.12659
677.75506	0.12434
675.70126	0.12298
673.64745	0.12200
671.59365	0.12099
669.53985	0.11957
667.48604	0.11793
665.43224	0.11673
663.37844	0.11543
661.32463	0.11421
659.27083	0.11388
657.21703	0.11456
655.16322	0.11598
653.10942	0.11757
651.05562	0.11866
649.00181	0.11903
646.94801	0.11893
644.89421	0.11831
642.84040	0.11714
640.78660	0.11572
638.73280	0.11428
636.67899	0.11337
634.62519	0.11318
632.57139	0.11322
630.51759	0.11299
628.46378	0.11246
626.40998	0.11218
624.35618	0.11275
622.30237	0.11406
620.24857	0.11551
618.19477	0.11714
616.14096	0.11895
614.08716	0.12059
612.03336	0.12259
609.97955	0.12505
607.92575	0.12680
605.87195	0.12778
603.81814	0.12912
601.76434	0.13106
599.71054	0.13349
597.65673	0.13577
595.60293	0.13735
593.54913	0.13902
591.49532	0.14126
589.44152	0.14315
587.38772	0.14437
585.33391	0.14537
583.28011	0.14586
581.22631	0.14595
579.17250	0.14709
577.11870	0.14958
575.06490	0.15243
573.01110	0.15542
570.95729	0.15871
568.90349	0.16230
566.84969	0.16618
564.79588	0.17048
562.74208	0.17527
560.68828	0.18017
558.63447	0.18550
556.58067	0.19193
554.52687	0.19872
552.47306	0.20514
550.41926	0.21096
548.36546	0.21653
546.31165	0.22366
544.25785	0.23331
542.20405	0.24475
540.15024	0.25693
538.09644	0.26742
536.04264	0.27468
533.98883	0.27951
531.93503	0.28171
529.88123	0.28068
527.82742	0.27714
525.77362	0.27248
523.71982	0.26850
521.66602	0.26515
519.61221	0.26166
517.55841	0.25814
515.50461	0.25406
513.45080	0.24910
511.39700	0.24393
509.34320	0.23872
507.28939	0.23392
505.23559	0.23053
503.18179	0.22841
501.12798	0.22704
499.07418	0.22602
497.02038	0.22611
494.96657	0.22890
492.91277	0.23422
490.85897	0.24101
488.80516	0.24871
486.75136	0.25772
484.69756	0.26839
482.64375	0.28034
480.58995	0.29394
478.53615	0.30994
476.48234	0.32694
474.42854	0.34248
472.37474	0.35632
470.32093	0.36845
468.26713	0.37792
466.21333	0.38444
464.15953	0.38674
462.10572	0.38418
460.05192	0.37962
457.99812	0.37223
455.94431	0.36091
453.89051	0.35217
451.83671	0.34623
449.78290	0.33933
447.72910	0.33197
445.67530	0.32671
443.62149	0.32439
441.56769	0.32496
439.51389	0.32770
437.46008	0.33031
435.40628	0.33257
433.35248	0.33692
431.29867	0.34222
429.24487	0.34374
427.19107	0.34106
425.13726	0.33810
423.08346	0.33586
421.02966	0.33221
418.97585	0.32771
416.92205	0.32463
414.86825	0.32065
412.81445	0.31543
410.76064	0.31119
408.70684	0.30801
406.65304	0.30391
404.59923	0.29873
402.54543	0.29613
400.49163	0.29786
398.43782	0.29920
