3996.70104	0.96886
3994.64724	0.96907
3992.59344	0.96926
3990.53964	0.96915
3988.48583	0.96890
3986.43203	0.96926
3984.37823	0.96981
3982.32442	0.96988
3980.27062	0.96975
3978.21682	0.96937
3976.16301	0.96873
3974.10921	0.96870
3972.05541	0.96910
3970.00160	0.96858
3967.94780	0.96779
3965.89400	0.96785
3963.84019	0.96819
3961.78639	0.96841
3959.73259	0.96883
3957.67878	0.96936
3955.62498	0.96956
3953.57118	0.96932
3951.51737	0.96901
3949.46357	0.96884
3947.40977	0.96892
3945.35596	0.96936
3943.30216	0.96977
3941.24836	0.96980
3939.19455	0.96947
3937.14075	0.96906
3935.08695	0.96915
3933.03315	0.96953
3930.97934	0.96941
3928.92554	0.96916
3926.87174	0.96918
3924.81793	0.96898
3922.76413	0.96847
3920.71033	0.96828
3918.65652	0.96858
3916.60272	0.96899
3914.54892	0.96933
3912.49511	0.96918
3910.44131	0.96863
3908.38751	0.96841
3906.33370	0.96848
3904.27990	0.96884
3902.22610	0.96934
3900.17229	0.96914
3898.11849	0.96865
3896.06469	0.96871
3894.01088	0.96922
3891.95708	0.96955
3889.90328	0.96969
3887.84947	0.97011
3885.79567	0.97019
3883.74187	0.96943
3881.68807	0.96868
3879.63426	0.96816
3877.58046	0.96812
3875.52666	0.96890
3873.47285	0.97017
3871.41905	0.97094
3869.36525	0.97075
3867.31144	0.97043
3865.25764	0.97016
3863.20384	0.96964
3861.15003	0.96959
3859.09623	0.96977
3857.04243	0.96951
3854.98862	0.96894
3852.93482	0.96847
3850.88102	0.96876
3848.82721	0.96921
3846.77341	0.96924
3844.71961	0.96908
3842.66580	0.96911
3840.61200	0.96915
3838.55820	0.96872
3836.50439	0.96849
3834.45059	0.96937
3832.39679	0.97032
3830.34298	0.97006
3828.28918	0.96930
3826.23538	0.96929
3824.18158	0.96994
3822.12777	0.97042
3820.07397	0.97026
3818.02017	0.96976
3815.96636	0.96893
3813.91256	0.96856
3811.85876	0.96932
3809.80495	0.97034
3807.75115	0.97048
3805.69735	0.96952
3803.64354	0.96853
3801.58974	0.96826
3799.53594	0.96928
3797.48213	0.97051
3795.42833	0.97098
3793.37453	0.97104
3791.32072	0.97092
3789.26692	0.97019
3787.21312	0.96918
3785.15931	0.96875
3783.10551	0.96899
3781.05171	0.96933
3778.99790	0.96919
3776.94410	0.96875
3774.89030	0.96908
3772.83650	0.97017
3770.78269	0.97072
3768.72889	0.97037
3766.67509	0.97033
3764.62128	0.97058
3762.56748	0.97066
3760.51368	0.97074
3758.45987	0.97091
3756.40607	0.97113
3754.35227	0.97112
3752.29846	0.97114
3750.24466	0.97178
3748.19086	0.97229
3746.13705	0.97209
3744.08325	0.97132
3742.02945	0.97118
3739.97564	0.97172
3737.92184	0.97198
3735.86804	0.97200
3733.81423	0.97185
3731.76043	0.97165
3729.70663	0.97186
3727.65282	0.97164
3725.59902	0.97096
3723.54522	0.97076
3721.49141	0.97054
3719.43761	0.96968
3717.38381	0.96859
3715.33001	0.96765
3713.27620	0.96622
3711.22240	0.96343
3709.16860	0.96068
3707.11479	0.95867
3705.06099	0.95627
3703.00719	0.95325
3700.95338	0.95038
3698.89958	0.94862
3696.84578	0.94809
3694.79197	0.94876
3692.73817	0.95014
3690.68437	0.95152
3688.63056	0.95306
3686.57676	0.95425
3684.52296	0.95475
3682.46915	0.95524
3680.41535	0.95591
3678.36155	0.95626
3676.30774	0.95567
3674.25394	0.95498
3672.20014	0.95522
3670.14633	0.95497
3668.09253	0.95394
3666.03873	0.95326
3663.98492	0.95262
3661.93112	0.95170
3659.87732	0.95073
3657.82352	0.94983
3655.76971	0.94901
3653.71591	0.94875
3651.66211	0.94858
3649.60830	0.94733
3647.55450	0.94638
3645.50070	0.94670
3643.44689	0.94686
3641.39309	0.94635
3639.33929	0.94545
3637.28548	0.94439
3635.23168	0.94333
3633.17788	0.94283
3631.12407	0.94250
3629.07027	0.94068
3627.01647	0.93783
3624.96266	0.93618
3622.90886	0.93539
3620.85506	0.93511
3618.80125	0.93505
3616.74745	0.93528
3614.69365	0.93564
3612.63984	0.93613
3610.58604	0.93645
3608.53224	0.93599
3606.47844	0.93546
3604.42463	0.93552
3602.37083	0.93579
3600.31703	0.93589
3598.26322	0.93547
3596.20942	0.93447
3594.15562	0.93358
3592.10181	0.93309
3590.04801	0.93244
3587.99421	0.93155
3585.94040	0.93121
3583.88660	0.93143
3581.83280	0.93133
3579.77899	0.93063
3577.72519	0.92972
3575.67139	0.92905
3573.61758	0.92855
3571.56378	0.92793
3569.50998	0.92719
3567.45617	0.92606
3565.40237	0.92471
3563.34857	0.92362
3561.29476	0.92236
3559.24096	0.92154
3557.18716	0.92173
3555.13335	0.92202
3553.07955	0.92141
3551.02575	0.92029
3548.97195	0.91992
3546.91814	0.91965
3544.86434	0.91818
3542.81054	0.91667
3540.75673	0.91614
3538.70293	0.91579
3536.64913	0.91499
3534.59532	0.91411
3532.54152	0.91342
3530.48772	0.91280
3528.43391	0.91241
3526.38011	0.91219
3524.32631	0.91162
3522.27250	0.91025
3520.21870	0.90892
3518.16490	0.90838
3516.11109	0.90811
3514.05729	0.90768
3512.00349	0.90702
3509.94968	0.90619
3507.89588	0.90562
3505.84208	0.90541
3503.78827	0.90478
3501.73447	0.90363
3499.68067	0.90260
3497.62687	0.90180
3495.57306	0.90106
3493.51926	0.90011
3491.46546	0.89893
3489.41165	0.89784
3487.35785	0.89692
3485.30405	0.89623
3483.25024	0.89577
3481.19644	0.89511
3479.14264	0.89428
3477.08883	0.89384
3475.03503	0.89367
3472.98123	0.89297
3470.92742	0.89174
3468.87362	0.89056
3466.81982	0.88984
3464.76601	0.88977
3462.71221	0.88964
3460.65841	0.88843
3458.60460	0.88668
3456.55080	0.88563
3454.49700	0.88543
3452.44319	0.88523
3450.38939	0.88444
3448.33559	0.88336
3446.28178	0.88225
3444.22798	0.88111
3442.17418	0.88022
3440.12038	0.87954
3438.06657	0.87866
3436.01277	0.87773
3433.95897	0.87708
3431.90516	0.87679
3429.85136	0.87659
3427.79756	0.87605
3425.74375	0.87540
3423.68995	0.87485
3421.63615	0.87415
3419.58234	0.87336
3417.52854	0.87260
3415.47474	0.87214
3413.42093	0.87187
3411.36713	0.87154
3409.31333	0.87119
3407.25952	0.87058
3405.20572	0.86962
3403.15192	0.86884
3401.09811	0.86852
3399.04431	0.86822
3396.99051	0.86775
3394.93670	0.86734
3392.88290	0.86683
3390.82910	0.86637
3388.77529	0.86633
3386.72149	0.86636
3384.66769	0.86628
3382.61389	0.86594
3380.56008	0.86533
3378.50628	0.86476
3376.45248	0.86428
3374.39867	0.86373
3372.34487	0.86331
3370.29107	0.86353
3368.23726	0.86416
3366.18346	0.86422
3364.12966	0.86365
3362.07585	0.86329
3360.02205	0.86336
3357.96825	0.86348
3355.91444	0.86313
3353.86064	0.86267
3351.80684	0.86261
3349.75303	0.86236
3347.69923	0.86197
3345.64543	0.86203
3343.59162	0.86234
3341.53782	0.86262
3339.48402	0.86276
3337.43021	0.86268
3335.37641	0.86280
3333.32261	0.86328
3331.26881	0.86377
3329.21500	0.86399
3327.16120	0.86377
3325.10740	0.86310
3323.05359	0.86251
3320.99979	0.86267
3318.94599	0.86336
3316.89218	0.86394
3314.83838	0.86414
3312.78458	0.86415
3310.73077	0.86437
3308.67697	0.86468
3306.62317	0.86499
3304.56936	0.86533
3302.51556	0.86542
3300.46176	0.86543
3298.40795	0.86556
3296.35415	0.86572
3294.30035	0.86604
3292.24654	0.86637
3290.19274	0.86640
3288.13894	0.86638
3286.08513	0.86649
3284.03133	0.86690
3281.97753	0.86740
3279.92372	0.86762
3277.86992	0.86781
3275.81612	0.86788
3273.76232	0.86763
3271.70851	0.86745
3269.65471	0.86751
3267.60091	0.86758
3265.54710	0.86767
3263.49330	0.86814
3261.43950	0.86889
3259.38569	0.86948
3257.33189	0.86987
3255.27809	0.87013
3253.22428	0.87043
3251.17048	0.87096
3249.11668	0.87143
3247.06287	0.87157
3245.00907	0.87183
3242.95527	0.87263
3240.90146	0.87348
3238.84766	0.87354
3236.79386	0.87316
3234.74005	0.87344
3232.68625	0.87419
3230.63245	0.87480
3228.57864	0.87541
3226.52484	0.87584
3224.47104	0.87614
3222.41724	0.87696
3220.36343	0.87784
3218.30963	0.87807
3216.25583	0.87777
3214.20202	0.87758
3212.14822	0.87839
3210.09442	0.87965
3208.04061	0.88005
3205.98681	0.87983
3203.93301	0.88021
3201.87920	0.88147
3199.82540	0.88259
3197.77160	0.88281
3195.71779	0.88289
3193.66399	0.88371
3191.61019	0.88480
3189.55638	0.88555
3187.50258	0.88608
3185.44878	0.88661
3183.39497	0.88725
3181.34117	0.88800
3179.28737	0.88862
3177.23356	0.88923
3175.17976	0.89012
3173.12596	0.89093
3171.07215	0.89158
3169.01835	0.89234
3166.96455	0.89316
3164.91075	0.89400
3162.85694	0.89473
3160.80314	0.89517
3158.74934	0.89554
3156.69553	0.89602
3154.64173	0.89641
3152.58793	0.89678
3150.53412	0.89717
3148.48032	0.89758
3146.42652	0.89826
3144.37271	0.89900
3142.31891	0.89945
3140.26511	0.90003
3138.21130	0.90108
3136.15750	0.90239
3134.10370	0.90339
3132.04989	0.90385
3129.99609	0.90424
3127.94229	0.90479
3125.88848	0.90538
3123.83468	0.90600
3121.78088	0.90664
3119.72707	0.90734
3117.67327	0.90785
3115.61947	0.90814
3113.56566	0.90861
3111.51186	0.90911
3109.45806	0.90981
3107.40426	0.91058
3105.35045	0.91091
3103.29665	0.91127
3101.24285	0.91195
3099.18904	0.91262
3097.13524	0.91318
3095.08144	0.91369
3093.02763	0.91411
3090.97383	0.91467
3088.92003	0.91532
3086.86622	0.91576
3084.81242	0.91610
3082.75862	0.91649
3080.70481	0.91706
3078.65101	0.91764
3076.59721	0.91765
3074.54340	0.91749
3072.48960	0.91780
3070.43580	0.91821
3068.38199	0.91865
3066.32819	0.91954
3064.27439	0.92032
3062.22058	0.92055
3060.16678	0.92087
3058.11298	0.92156
3056.05918	0.92225
3054.00537	0.92288
3051.95157	0.92353
3049.89777	0.92400
3047.84396	0.92427
3045.79016	0.92459
3043.73636	0.92510
3041.68255	0.92567
3039.62875	0.92613
3037.57495	0.92643
3035.52114	0.92668
3033.46734	0.92716
3031.41354	0.92777
3029.35973	0.92798
3027.30593	0.92798
3025.25213	0.92832
3023.19832	0.92900
3021.14452	0.92974
3019.09072	0.93013
3017.03691	0.93023
3014.98311	0.93031
3012.92931	0.93062
3010.87550	0.93114
3008.82170	0.93161
3006.76790	0.93209
3004.71409	0.93276
3002.66029	0.93330
3000.60649	0.93332
2998.55269	0.93307
2996.49888	0.93308
2994.44508	0.93322
2992.39128	0.93340
2990.33747	0.93349
2988.28367	0.93302
2986.22987	0.93241
2984.17606	0.93217
2982.12226	0.93204
2980.06846	0.93164
2978.01465	0.93076
2975.96085	0.92976
2973.90705	0.92906
2971.85324	0.92838
2969.79944	0.92706
2967.74564	0.92513
2965.69183	0.92303
2963.63803	0.92078
2961.58423	0.91847
2959.53042	0.91636
2957.47662	0.91433
2955.42282	0.91190
2953.36901	0.90880
2951.31521	0.90513
2949.26141	0.90134
2947.20761	0.89776
2945.15380	0.89392
2943.10000	0.88950
2941.04620	0.88483
2938.99239	0.88030
2936.93859	0.87602
2934.88479	0.87176
2932.83098	0.86761
2930.77718	0.86403
2928.72338	0.86130
2926.66957	0.85943
2924.61577	0.85839
2922.56197	0.85842
2920.50816	0.85961
2918.45436	0.86174
2916.40056	0.86478
2914.34675	0.86840
2912.29295	0.87217
2910.23915	0.87591
2908.18534	0.87935
2906.13154	0.88257
2904.07774	0.88560
2902.02393	0.88826
2899.97013	0.89083
2897.91633	0.89364
2895.86252	0.89654
2893.80872	0.89927
2891.75492	0.90162
2889.70112	0.90394
2887.64731	0.90653
2885.59351	0.90897
2883.53971	0.91086
2881.48590	0.91204
2879.43210	0.91259
2877.37830	0.91271
2875.32449	0.91248
2873.27069	0.91185
2871.21689	0.91052
2869.16308	0.90828
2867.10928	0.90550
2865.05548	0.90221
2863.00167	0.89820
2860.94787	0.89375
2858.89407	0.88928
2856.84026	0.88517
2854.78646	0.88215
2852.73266	0.88108
2850.67885	0.88245
2848.62505	0.88636
2846.57125	0.89232
2844.51744	0.89912
2842.46364	0.90537
2840.40984	0.91066
2838.35603	0.91528
2836.30223	0.91893
2834.24843	0.92151
2832.19463	0.92368
2830.14082	0.92573
2828.08702	0.92731
2826.03322	0.92845
2823.97941	0.92935
2821.92561	0.93019
2819.87181	0.93106
2817.81800	0.93170
2815.76420	0.93210
2813.71040	0.93265
2811.65659	0.93342
2809.60279	0.93399
2807.54899	0.93443
2805.49518	0.93514
2803.44138	0.93588
2801.38758	0.93609
2799.33377	0.93603
2797.27997	0.93627
2795.22617	0.93693
2793.17236	0.93771
2791.11856	0.93832
2789.06476	0.93896
2787.01095	0.93971
2784.95715	0.94002
2782.90335	0.93983
2780.84955	0.93981
2778.79574	0.94009
2776.74194	0.94026
2774.68814	0.94030
2772.63433	0.94042
2770.58053	0.94066
2768.52673	0.94104
2766.47292	0.94130
2764.41912	0.94144
2762.36532	0.94178
2760.31151	0.94207
2758.25771	0.94218
2756.20391	0.94238
2754.15010	0.94251
2752.09630	0.94246
2750.04250	0.94262
2747.98869	0.94298
2745.93489	0.94313
2743.88109	0.94300
2741.82728	0.94299
2739.77348	0.94311
2737.71968	0.94301
2735.66587	0.94279
2733.61207	0.94255
2731.55827	0.94254
2729.50446	0.94308
2727.45066	0.94393
2725.39686	0.94438
2723.34306	0.94412
2721.28925	0.94381
2719.23545	0.94393
2717.18165	0.94414
2715.12784	0.94426
2713.07404	0.94428
2711.02024	0.94420
2708.96643	0.94426
2706.91263	0.94445
2704.85883	0.94468
2702.80502	0.94507
2700.75122	0.94540
2698.69742	0.94534
2696.64361	0.94507
2694.58981	0.94491
2692.53601	0.94500
2690.48220	0.94533
2688.42840	0.94571
2686.37460	0.94602
2684.32079	0.94613
2682.26699	0.94606
2680.21319	0.94591
2678.15938	0.94581
2676.10558	0.94588
2674.05178	0.94612
2671.99797	0.94647
2669.94417	0.94667
2667.89037	0.94637
2665.83657	0.94585
2663.78276	0.94572
2661.72896	0.94593
2659.67516	0.94607
2657.62135	0.94607
2655.56755	0.94615
2653.51375	0.94641
2651.45994	0.94675
2649.40614	0.94696
2647.35234	0.94695
2645.29853	0.94691
2643.24473	0.94697
2641.19093	0.94702
2639.13712	0.94729
2637.08332	0.94786
2635.02952	0.94811
2632.97571	0.94787
2630.92191	0.94761
2628.86811	0.94744
2626.81430	0.94753
2624.76050	0.94799
2622.70670	0.94843
2620.65289	0.94856
2618.59909	0.94835
2616.54529	0.94792
2614.49149	0.94795
2612.43768	0.94836
2610.38388	0.94842
2608.33008	0.94847
2606.27627	0.94872
2604.22247	0.94879
2602.16867	0.94900
2600.11486	0.94975
2598.06106	0.95054
2596.00726	0.95054
2593.95345	0.94977
2591.89965	0.94935
2589.84585	0.94965
2587.79204	0.94988
2585.73824	0.95003
2583.68444	0.95024
2581.63063	0.95002
2579.57683	0.94992
2577.52303	0.95032
2575.46922	0.95049
2573.41542	0.95031
2571.36162	0.95012
2569.30781	0.95011
2567.25401	0.95030
2565.20021	0.95024
2563.14640	0.95000
2561.09260	0.95011
2559.03880	0.95060
2556.98500	0.95108
2554.93119	0.95103
2552.87739	0.95068
2550.82359	0.95083
2548.76978	0.95128
2546.71598	0.95153
2544.66218	0.95180
2542.60837	0.95197
2540.55457	0.95187
2538.50077	0.95165
2536.44696	0.95144
2534.39316	0.95170
2532.33936	0.95183
2530.28555	0.95099
2528.23175	0.95038
2526.17795	0.95106
2524.12414	0.95198
2522.07034	0.95224
2520.01654	0.95198
2517.96273	0.95154
2515.90893	0.95149
2513.85513	0.95153
2511.80132	0.95129
2509.74752	0.95146
2507.69372	0.95185
2505.63992	0.95186
2503.58611	0.95201
2501.53231	0.95270
2499.47851	0.95339
2497.42470	0.95362
2495.37090	0.95337
2493.31710	0.95298
2491.26329	0.95267
2489.20949	0.95221
2487.15569	0.95177
2485.10188	0.95144
2483.04808	0.95121
2480.99428	0.95132
2478.94047	0.95183
2476.88667	0.95244
2474.83287	0.95267
2472.77906	0.95218
2470.72526	0.95139
2468.67146	0.95137
2466.61765	0.95209
2464.56385	0.95237
2462.51005	0.95216
2460.45624	0.95212
2458.40244	0.95219
2456.34864	0.95230
2454.29483	0.95254
2452.24103	0.95270
2450.18723	0.95289
2448.13343	0.95320
2446.07962	0.95304
2444.02582	0.95272
2441.97202	0.95266
2439.91821	0.95247
2437.86441	0.95224
2435.81061	0.95240
2433.75680	0.95266
2431.70300	0.95279
2429.64920	0.95314
2427.59539	0.95333
2425.54159	0.95303
2423.48779	0.95280
2421.43398	0.95289
2419.38018	0.95302
2417.32638	0.95296
2415.27257	0.95288
2413.21877	0.95276
2411.16497	0.95237
2409.11116	0.95185
2407.05736	0.95181
2405.00356	0.95239
2402.94975	0.95283
2400.89595	0.95263
2398.84215	0.95238
2396.78834	0.95264
2394.73454	0.95287
2392.68074	0.95280
2390.62694	0.95252
2388.57313	0.95189
2386.51933	0.95151
2384.46553	0.95202
2382.41172	0.95278
2380.35792	0.95310
2378.30412	0.95299
2376.25031	0.95261
2374.19651	0.95214
2372.14271	0.95150
2370.08890	0.95160
2368.03510	0.95337
2365.98130	0.95478
2363.92749	0.95416
2361.87369	0.95307
2359.81989	0.95222
2357.76608	0.95121
2355.71228	0.95107
2353.65848	0.95191
2351.60467	0.95231
2349.55087	0.95199
2347.49707	0.95174
2345.44326	0.95199
2343.38946	0.95227
2341.33566	0.95175
2339.28186	0.95058
2337.22805	0.95018
2335.17425	0.95115
2333.12045	0.95158
2331.06664	0.95078
2329.01284	0.95052
2326.95904	0.95036
2324.90523	0.94880
2322.85143	0.94764
2320.79763	0.94842
2318.74382	0.94952
2316.69002	0.95002
2314.63622	0.95020
2312.58241	0.95027
2310.52861	0.95084
2308.47481	0.95191
2306.42100	0.95232
2304.36720	0.95202
2302.31340	0.95193
2300.25959	0.95169
2298.20579	0.95122
2296.15199	0.95123
2294.09818	0.95126
2292.04438	0.95093
2289.99058	0.95103
2287.93677	0.95127
2285.88297	0.95132
2283.82917	0.95122
2281.77537	0.95057
2279.72156	0.95018
2277.66776	0.95048
2275.61396	0.95084
2273.56015	0.95131
2271.50635	0.95213
2269.45255	0.95310
2267.39874	0.95394
2265.34494	0.95422
2263.29114	0.95406
2261.23733	0.95387
2259.18353	0.95382
2257.12973	0.95312
2255.07592	0.95177
2253.02212	0.95194
2250.96832	0.95342
2248.91451	0.95441
2246.86071	0.95445
2244.80691	0.95393
2242.75310	0.95405
2240.69930	0.95493
2238.64550	0.95468
2236.59169	0.95313
2234.53789	0.95278
2232.48409	0.95355
2230.43029	0.95318
2228.37648	0.95281
2226.32268	0.95397
2224.26888	0.95415
2222.21507	0.95283
2220.16127	0.95354
2218.10747	0.95536
2216.05366	0.95518
2213.99986	0.95421
2211.94606	0.95385
2209.89225	0.95455
2207.83845	0.95637
2205.78465	0.95674
2203.73084	0.95448
2201.67704	0.95245
2199.62324	0.95243
2197.56943	0.95294
2195.51563	0.95343
2193.46183	0.95524
2191.40802	0.95640
2189.35422	0.95410
2187.30042	0.95274
2185.24661	0.95564
2183.19281	0.95837
2181.13901	0.95909
2179.08520	0.95896
2177.03140	0.95754
2174.97760	0.95577
2172.92380	0.95437
2170.86999	0.95248
2168.81619	0.95186
2166.76239	0.95241
2164.70858	0.95184
2162.65478	0.95299
2160.60098	0.95712
2158.54717	0.96050
2156.49337	0.96089
2154.43957	0.95966
2152.38576	0.95909
2150.33196	0.95925
2148.27816	0.95862
2146.22435	0.95743
2144.17055	0.95707
2142.11675	0.95647
2140.06294	0.95464
2138.00914	0.95286
2135.95534	0.95283
2133.90153	0.95503
2131.84773	0.95733
2129.79393	0.95763
2127.74012	0.95708
2125.68632	0.95707
2123.63252	0.95692
2121.57871	0.95667
2119.52491	0.95620
2117.47111	0.95470
2115.41731	0.95349
2113.36350	0.95371
2111.30970	0.95406
2109.25590	0.95393
2107.20209	0.95403
2105.14829	0.95440
2103.09449	0.95505
2101.04068	0.95566
2098.98688	0.95587
2096.93308	0.95588
2094.87927	0.95583
2092.82547	0.95605
2090.77167	0.95668
2088.71786	0.95730
2086.66406	0.95681
2084.61026	0.95527
2082.55645	0.95389
2080.50265	0.95275
2078.44885	0.95215
2076.39504	0.95268
2074.34124	0.95368
2072.28744	0.95428
2070.23363	0.95445
2068.17983	0.95487
2066.12603	0.95525
2064.07223	0.95500
2062.01842	0.95509
2059.96462	0.95570
2057.91082	0.95545
2055.85701	0.95450
2053.80321	0.95418
2051.74941	0.95377
2049.69560	0.95297
2047.64180	0.95293
2045.58800	0.95310
2043.53419	0.95380
2041.48039	0.95521
2039.42659	0.95580
2037.37278	0.95570
2035.31898	0.95550
2033.26518	0.95412
2031.21137	0.95231
2029.15757	0.95312
2027.10377	0.95616
2025.04996	0.95788
2022.99616	0.95724
2020.94236	0.95589
2018.88855	0.95479
2016.83475	0.95468
2014.78095	0.95739
2012.72714	0.96108
2010.67334	0.96075
2008.61954	0.95728
2006.56574	0.95462
2004.51193	0.95300
2002.45813	0.95268
2000.40433	0.95376
1998.35052	0.95444
1996.29672	0.95528
1994.24292	0.95796
1992.18911	0.95947
1990.13531	0.95729
1988.08151	0.95450
1986.02770	0.95377
1983.97390	0.95522
1981.92010	0.95736
1979.86629	0.95870
1977.81249	0.95905
1975.75869	0.95765
1973.70488	0.95498
1971.65108	0.95476
1969.59728	0.95797
1967.54347	0.96132
1965.48967	0.96174
1963.43587	0.96020
1961.38206	0.95908
1959.32826	0.95815
1957.27446	0.95771
1955.22066	0.95816
1953.16685	0.95816
1951.11305	0.95796
1949.05925	0.95909
1947.00544	0.96040
1944.95164	0.95889
1942.89784	0.95594
1940.84403	0.95664
1938.79023	0.95962
1936.73643	0.96046
1934.68262	0.95944
1932.62882	0.95825
1930.57502	0.95781
1928.52121	0.95909
1926.46741	0.96099
1924.41361	0.96152
1922.35980	0.96003
1920.30600	0.95822
1918.25220	0.95828
1916.19839	0.95914
1914.14459	0.95927
1912.09079	0.95917
1910.03698	0.95856
1907.98318	0.95783
1905.92938	0.95815
1903.87557	0.95883
1901.82177	0.95893
1899.76797	0.95869
1897.71417	0.95844
1895.66036	0.95808
1893.60656	0.95796
1891.55276	0.95796
1889.49895	0.95754
1887.44515	0.95739
1885.39135	0.95785
1883.33754	0.95858
1881.28374	0.95919
1879.22994	0.95929
1877.17613	0.95932
1875.12233	0.95945
1873.06853	0.95922
1871.01472	0.95888
1868.96092	0.95886
1866.90712	0.95878
1864.85331	0.95830
1862.79951	0.95793
1860.74571	0.95828
1858.69190	0.95895
1856.63810	0.95912
1854.58430	0.95902
1852.53049	0.95871
1850.47669	0.95846
1848.42289	0.95857
1846.36908	0.95817
1844.31528	0.95755
1842.26148	0.95804
1840.20768	0.95888
1838.15387	0.95899
1836.10007	0.95880
1834.04627	0.95889
1831.99246	0.95893
1829.93866	0.95899
1827.88486	0.95914
1825.83105	0.95914
1823.77725	0.95908
1821.72345	0.95898
1819.66964	0.95895
1817.61584	0.95912
1815.56204	0.95933
1813.50823	0.95969
1811.45443	0.95992
1809.40063	0.95926
1807.34682	0.95846
1805.29302	0.95815
1803.23922	0.95810
1801.18541	0.95826
1799.13161	0.95847
1797.07781	0.95862
1795.02400	0.95858
1792.97020	0.95808
1790.91640	0.95740
1788.86260	0.95690
1786.80879	0.95653
1784.75499	0.95633
1782.70119	0.95616
1780.64738	0.95588
1778.59358	0.95555
1776.53978	0.95523
1774.48597	0.95489
1772.43217	0.95430
1770.37837	0.95353
1768.32456	0.95298
1766.27076	0.95263
1764.21696	0.95227
1762.16315	0.95159
1760.10935	0.95069
1758.05555	0.94959
1756.00174	0.94803
1753.94794	0.94642
1751.89414	0.94411
1749.84033	0.93992
1747.78653	0.93463
1745.73273	0.92838
1743.67892	0.91969
1741.62512	0.90818
1739.57132	0.89437
1737.51751	0.88250
1735.46371	0.87221
1733.40991	0.85864
1731.35611	0.84900
1729.30230	0.84494
1727.24850	0.84373
1725.19470	0.84510
1723.14089	0.84837
1721.08709	0.85225
1719.03329	0.85597
1716.97948	0.85884
1714.92568	0.86027
1712.87188	0.86154
1710.81807	0.86310
1708.76427	0.86479
1706.71047	0.86647
1704.65666	0.86837
1702.60286	0.87020
1700.54906	0.87236
1698.49525	0.87531
1696.44145	0.87764
1694.38765	0.87885
1692.33384	0.87999
1690.28004	0.88111
1688.22624	0.88172
1686.17243	0.88219
1684.11863	0.88155
1682.06483	0.87963
1680.01103	0.87855
1677.95722	0.87796
1675.90342	0.87694
1673.84962	0.87548
1671.79581	0.87435
1669.74201	0.87243
1667.68821	0.87005
1665.63440	0.86891
1663.58060	0.86781
1661.52680	0.86601
1659.47299	0.86450
1657.41919	0.86350
1655.36539	0.86236
1653.31158	0.85933
1651.25778	0.85692
1649.20398	0.85708
1647.15017	0.85690
1645.09637	0.85573
1643.04257	0.85490
1640.98876	0.85445
1638.93496	0.85419
1636.88116	0.85339
1634.82735	0.85158
1632.77355	0.85097
1630.71975	0.85114
1628.66594	0.85112
1626.61214	0.85132
1624.55834	0.85208
1622.50454	0.85314
1620.45073	0.85445
1618.39693	0.85542
1616.34313	0.85588
1614.28932	0.85689
1612.23552	0.85839
1610.18172	0.85987
1608.12791	0.86141
1606.07411	0.86309
1604.02031	0.86476
1601.96650	0.86618
1599.91270	0.86753
1597.85890	0.86913
1595.80509	0.87086
1593.75129	0.87265
1591.69749	0.87440
1589.64368	0.87607
1587.58988	0.87777
1585.53608	0.87938
1583.48227	0.88092
1581.42847	0.88269
1579.37467	0.88460
1577.32086	0.88621
1575.26706	0.88717
1573.21326	0.88788
1571.15945	0.88856
1569.10565	0.88915
1567.05185	0.88991
1564.99805	0.89055
1562.94424	0.89097
1560.89044	0.89159
1558.83664	0.89231
1556.78283	0.89225
1554.72903	0.89208
1552.67523	0.89228
1550.62142	0.89274
1548.56762	0.89335
1546.51382	0.89410
1544.46001	0.89514
1542.40621	0.89661
1540.35241	0.89727
1538.29860	0.89746
1536.24480	0.89878
1534.19100	0.90020
1532.13719	0.90107
1530.08339	0.90197
1528.02959	0.90309
1525.97578	0.90383
1523.92198	0.90366
1521.86818	0.90224
1519.81437	0.90068
1517.76057	0.90004
1515.70677	0.89983
1513.65297	0.90067
1511.59916	0.90271
1509.54536	0.90540
1507.49156	0.90872
1505.43775	0.91166
1503.38395	0.91327
1501.33015	0.91470
1499.27634	0.91619
1497.22254	0.91757
1495.16874	0.91858
1493.11493	0.91941
1491.06113	0.92032
1489.00733	0.92114
1486.95352	0.92149
1484.89972	0.92145
1482.84592	0.92103
1480.79211	0.92026
1478.73831	0.91933
1476.68451	0.91796
1474.63070	0.91489
1472.57690	0.90822
1470.52310	0.90036
1468.46929	0.89433
1466.41549	0.88882
1464.36169	0.88383
1462.30788	0.88125
1460.25408	0.88055
1458.20028	0.88002
1456.14648	0.87898
1454.09267	0.87898
1452.03887	0.88012
1449.98507	0.88152
1447.93126	0.88214
1445.87746	0.88202
1443.82366	0.88204
1441.76985	0.88195
1439.71605	0.88144
1437.66225	0.88077
1435.60844	0.88069
1433.55464	0.88155
1431.50084	0.88247
1429.44703	0.88311
1427.39323	0.88380
1425.33943	0.88468
1423.28562	0.88516
1421.23182	0.88481
1419.17802	0.88372
1417.12421	0.88277
1415.07041	0.88293
1413.01661	0.88385
1410.96280	0.88513
1408.90900	0.88657
1406.85520	0.88805
1404.80139	0.88922
1402.74759	0.89010
1400.69379	0.89087
1398.63999	0.89118
1396.58618	0.89097
1394.53238	0.89043
1392.47858	0.88990
1390.42477	0.88951
1388.37097	0.88893
1386.31717	0.88825
1384.26336	0.88758
1382.20956	0.88679
1380.15576	0.88577
1378.10195	0.88464
1376.04815	0.88372
1373.99435	0.88284
1371.94054	0.88196
1369.88674	0.88156
1367.83294	0.88170
1365.77913	0.88230
1363.72533	0.88301
1361.67153	0.88342
1359.61772	0.88361
1357.56392	0.88368
1355.51012	0.88375
1353.45631	0.88415
1351.40251	0.88479
1349.34871	0.88540
1347.29491	0.88587
1345.24110	0.88612
1343.18730	0.88645
1341.13350	0.88708
1339.07969	0.88756
1337.02589	0.88786
1334.97209	0.88822
1332.91828	0.88839
1330.86448	0.88843
1328.81068	0.88844
1326.75687	0.88809
1324.70307	0.88747
1322.64927	0.88706
1320.59546	0.88687
1318.54166	0.88672
1316.48786	0.88657
1314.43405	0.88641
1312.38025	0.88607
1310.32645	0.88572
1308.27264	0.88570
1306.21884	0.88581
1304.16504	0.88573
1302.11123	0.88554
1300.05743	0.88539
1298.00363	0.88537
1295.94982	0.88534
1293.89602	0.88519
1291.84222	0.88493
1289.78842	0.88441
1287.73461	0.88346
1285.68081	0.88210
1283.62701	0.88066
1281.57320	0.87938
1279.51940	0.87801
1277.46560	0.87654
1275.41179	0.87513
1273.35799	0.87358
1271.30419	0.87194
1269.25038	0.87049
1267.19658	0.86921
1265.14278	0.86789
1263.08897	0.86659
1261.03517	0.86533
1258.98137	0.86398
1256.92756	0.86272
1254.87376	0.86176
1252.81996	0.86091
1250.76615	0.85979
1248.71235	0.85856
1246.65855	0.85763
1244.60474	0.85716
1242.55094	0.85698
1240.49714	0.85691
1238.44334	0.85701
1236.38953	0.85734
1234.33573	0.85781
1232.28193	0.85828
1230.22812	0.85866
1228.17432	0.85890
1226.12052	0.85903
1224.06671	0.85923
1222.01291	0.85953
1219.95911	0.85954
1217.90530	0.85891
1215.85150	0.85832
1213.79770	0.85826
1211.74389	0.85818
1209.69009	0.85770
1207.63629	0.85685
1205.58248	0.85552
1203.52868	0.85373
1201.47488	0.85179
1199.42107	0.84984
1197.36727	0.84787
1195.31347	0.84594
1193.25966	0.84394
1191.20586	0.84155
1189.15206	0.83897
1187.09825	0.83641
1185.04445	0.83349
1182.99065	0.83012
1180.93685	0.82676
1178.88304	0.82337
1176.82924	0.81949
1174.77544	0.81529
1172.72163	0.81133
1170.66783	0.80790
1168.61403	0.80531
1166.56022	0.80350
1164.50642	0.80223
1162.45262	0.80169
1160.39881	0.80206
1158.34501	0.80307
1156.29121	0.80407
1154.23740	0.80453
1152.18360	0.80498
1150.12980	0.80600
1148.07599	0.80732
1146.02219	0.80841
1143.96839	0.80908
1141.91458	0.80984
1139.86078	0.81083
1137.80698	0.81167
1135.75317	0.81215
1133.69937	0.81192
1131.64557	0.81084
1129.59176	0.80925
1127.53796	0.80710
1125.48416	0.80394
1123.43036	0.79954
1121.37655	0.79424
1119.32275	0.78892
1117.26895	0.78388
1115.21514	0.77850
1113.16134	0.77267
1111.10754	0.76689
1109.05373	0.76103
1106.99993	0.75497
1104.94613	0.74946
1102.89232	0.74523
1100.83852	0.74238
1098.78472	0.74094
1096.73091	0.74077
1094.67711	0.74121
1092.62331	0.74171
1090.56950	0.74217
1088.51570	0.74255
1086.46190	0.74258
1084.40809	0.74226
1082.35429	0.74184
1080.30049	0.74123
1078.24668	0.74024
1076.19288	0.73872
1074.13908	0.73668
1072.08528	0.73417
1070.03147	0.73143
1067.97767	0.72913
1065.92387	0.72707
1063.87006	0.72411
1061.81626	0.72014
1059.76246	0.71588
1057.70865	0.71153
1055.65485	0.70676
1053.60105	0.70118
1051.54724	0.69503
1049.49344	0.68884
1047.43964	0.68249
1045.38583	0.67600
1043.33203	0.66977
1041.27823	0.66347
1039.22442	0.65697
1037.17062	0.65107
1035.11682	0.64634
1033.06301	0.64269
1031.00921	0.64010
1028.95541	0.63880
1026.90160	0.63885
1024.84780	0.63971
1022.79400	0.64086
1020.74019	0.64193
1018.68639	0.64225
1016.63259	0.64189
1014.57879	0.64143
1012.52498	0.64058
1010.47118	0.63901
1008.41738	0.63729
1006.36357	0.63656
1004.30977	0.63762
1002.25597	0.64044
1000.20216	0.64464
998.14836	0.65018
996.09456	0.65699
994.04075	0.66433
991.98695	0.67175
989.93315	0.67957
987.87934	0.68772
985.82554	0.69549
983.77174	0.70284
981.71793	0.71006
979.66413	0.71698
977.61033	0.72347
975.55652	0.72954
973.50272	0.73531
971.44892	0.74075
969.39511	0.74582
967.34131	0.75055
965.28751	0.75461
963.23371	0.75809
961.17990	0.76192
959.12610	0.76619
957.07230	0.77014
955.01849	0.77352
952.96469	0.77690
950.91089	0.78044
948.85708	0.78359
946.80328	0.78613
944.74948	0.78822
942.69567	0.79003
940.64187	0.79159
938.58807	0.79289
936.53426	0.79398
934.48046	0.79492
932.42666	0.79582
930.37285	0.79653
928.31905	0.79693
926.26525	0.79689
924.21144	0.79617
922.15764	0.79478
920.10384	0.79292
918.05003	0.79069
915.99623	0.78834
913.94243	0.78664
911.88862	0.78656
909.83482	0.78837
907.78102	0.79151
905.72722	0.79552
903.67341	0.80008
901.61961	0.80429
899.56581	0.80779
897.51200	0.81117
895.45820	0.81464
893.40440	0.81765
891.35059	0.81972
889.29679	0.82126
887.24299	0.82289
885.18918	0.82474
883.13538	0.82644
881.08158	0.82776
879.02777	0.82904
876.97397	0.83036
874.92017	0.83168
872.86636	0.83312
870.81256	0.83441
868.75876	0.83531
866.70495	0.83677
864.65115	0.83864
862.59735	0.83984
860.54354	0.84066
858.48974	0.84152
856.43594	0.84290
854.38213	0.84438
852.32833	0.84469
850.27453	0.84418
848.22073	0.84376
846.16692	0.84342
844.11312	0.84297
842.05932	0.84220
840.00551	0.84068
837.95171	0.83867
835.89791	0.83689
833.84410	0.83554
831.79030	0.83512
829.73650	0.83571
827.68269	0.83670
825.62889	0.83719
823.57509	0.83692
821.52128	0.83711
819.46748	0.83786
817.41368	0.83763
815.35987	0.83664
813.30607	0.83644
811.25227	0.83643
809.19846	0.83565
807.14466	0.83471
805.09086	0.83394
803.03705	0.83301
800.98325	0.83147
798.92945	0.82975
796.87565	0.82874
794.82184	0.82896
792.76804	0.82965
790.71424	0.82937
788.66043	0.82843
786.60663	0.82753
784.55283	0.82646
782.49902	0.82579
780.44522	0.82616
778.39142	0.82654
776.33761	0.82585
774.28381	0.82455
772.23001	0.82351
770.17620	0.82291
768.12240	0.82223
766.06860	0.82098
764.01479	0.81909
761.96099	0.81730
759.90719	0.81626
757.85338	0.81521
755.79958	0.81380
753.74578	0.81278
751.69197	0.81196
749.63817	0.81102
747.58437	0.81048
745.53056	0.80998
743.47676	0.80922
741.42296	0.80887
739.36916	0.80842
737.31535	0.80745
735.26155	0.80646
733.20775	0.80516
731.15394	0.80296
729.10014	0.80021
727.04634	0.79767
724.99253	0.79545
722.93873	0.79366
720.88493	0.79287
718.83112	0.79339
716.77732	0.79474
714.72352	0.79595
712.66971	0.79628
710.61591	0.79545
708.56211	0.79421
706.50830	0.79300
704.45450	0.79103
702.40070	0.78812
700.34689	0.78512
698.29309	0.78292
696.23929	0.78152
694.18548	0.78058
692.13168	0.77971
690.07788	0.77892
688.02408	0.77855
685.97027	0.77817
683.91647	0.77776
681.86267	0.77715
679.80886	0.77583
677.75506	0.77436
675.70126	0.77348
673.64745	0.77279
671.59365	0.77216
669.53985	0.77248
667.48604	0.77313
665.43224	0.77237
663.37844	0.77166
661.32463	0.77169
659.27083	0.77213
657.21703	0.77242
655.16322	0.77213
653.10942	0.77132
651.05562	0.77031
649.00181	0.76927
646.94801	0.76833
644.89421	0.76788
642.84040	0.76797
640.78660	0.76841
638.73280	0.76908
636.67899	0.76926
634.62519	0.76862
632.57139	0.76757
630.51759	0.76607
628.46378	0.76427
626.40998	0.76302
624.35618	0.76211
622.30237	0.76081
620.24857	0.75960
618.19477	0.75861
616.14096	0.75770
614.08716	0.75697
612.03336	0.75593
609.97955	0.75455
607.92575	0.75284
605.87195	0.75018
603.81814	0.74742
601.76434	0.74636
599.71054	0.74681
597.65673	0.74720
595.60293	0.74680
593.54913	0.74622
591.49532	0.74595
589.44152	0.74521
587.38772	0.74345
585.33391	0.74074
583.28011	0.73757
581.22631	0.73563
579.17250	0.73516
577.11870	0.73412
575.06490	0.73175
573.01110	0.72931
570.95729	0.72720
568.90349	0.72476
566.84969	0.72177
564.79588	0.71890
562.74208	0.71737
560.68828	0.71608
558.63447	0.71299
556.58067	0.70936
554.52687	0.70667
552.47306	0.70457
550.41926	0.70251
548.36546	0.69924
546.31165	0.69459
544.25785	0.68960
542.20405	0.68455
540.15024	0.67915
538.09644	0.67387
536.04264	0.67008
533.98883	0.66817
531.93503	0.66680
529.88123	0.66506
527.82742	0.66430
525.77362	0.66582
523.71982	0.66844
521.66602	0.67041
519.61221	0.67215
517.55841	0.67483
515.50461	0.67780
513.45080	0.68082
511.39700	0.68457
509.34320	0.68804
507.28939	0.69102
505.23559	0.69470
503.18179	0.69751
501.12798	0.69790
499.07418	0.69736
497.02038	0.69684
494.96657	0.69654
492.91277	0.69693
490.85897	0.69747
488.80516	0.69756
486.75136	0.69632
484.69756	0.69273
482.64375	0.68747
480.58995	0.68085
478.53615	0.67263
476.48234	0.66347
474.42854	0.65215
472.37474	0.63948
470.32093	0.63234
468.26713	0.62981
466.21333	0.62679
464.15953	0.62616
462.10572	0.63077
460.05192	0.63667
457.99812	0.64141
455.94431	0.64669
453.89051	0.65136
451.83671	0.65473
449.78290	0.65853
447.72910	0.66345
445.67530	0.66625
443.62149	0.66547
441.56769	0.66473
439.51389	0.66288
437.46008	0.65747
435.40628	0.65188
433.35248	0.64955
431.29867	0.65029
429.24487	0.65129
427.19107	0.64990
425.13726	0.64943
423.08346	0.65326
421.02966	0.65894
418.97585	0.66534
416.92205	0.67038
414.86825	0.67200
412.81445	0.67218
410.76064	0.67434
408.70684	0.68141
406.65304	0.68873
404.59923	0.69024
402.54543	0.68992
400.49163	0.69203
398.43782	0.69630
