3996.70104	0.97155
3994.64724	0.97134
3992.59344	0.97198
3990.53964	0.97271
3988.48583	0.97283
3986.43203	0.97268
3984.37823	0.97283
3982.32442	0.97343
3980.27062	0.97343
3978.21682	0.97251
3976.16301	0.97199
3974.10921	0.97251
3972.05541	0.97311
3970.00160	0.97307
3967.94780	0.97264
3965.89400	0.97243
3963.84019	0.97234
3961.78639	0.97177
3959.73259	0.97112
3957.67878	0.97139
3955.62498	0.97252
3953.57118	0.97351
3951.51737	0.97381
3949.46357	0.97327
3947.40977	0.97249
3945.35596	0.97262
3943.30216	0.97350
3941.24836	0.97398
3939.19455	0.97363
3937.14075	0.97308
3935.08695	0.97313
3933.03315	0.97363
3930.97934	0.97379
3928.92554	0.97361
3926.87174	0.97341
3924.81793	0.97314
3922.76413	0.97271
3920.71033	0.97230
3918.65652	0.97221
3916.60272	0.97215
3914.54892	0.97201
3912.49511	0.97228
3910.44131	0.97295
3908.38751	0.97350
3906.33370	0.97360
3904.27990	0.97313
3902.22610	0.97242
3900.17229	0.97224
3898.11849	0.97259
3896.06469	0.97258
3894.01088	0.97221
3891.95708	0.97192
3889.90328	0.97167
3887.84947	0.97166
3885.79567	0.97232
3883.74187	0.97333
3881.68807	0.97361
3879.63426	0.97297
3877.58046	0.97267
3875.52666	0.97293
3873.47285	0.97308
3871.41905	0.97311
3869.36525	0.97322
3867.31144	0.97350
3865.25764	0.97369
3863.20384	0.97366
3861.15003	0.97365
3859.09623	0.97378
3857.04243	0.97400
3854.98862	0.97372
3852.93482	0.97269
3850.88102	0.97277
3848.82721	0.97336
3846.77341	0.97332
3844.71961	0.97296
3842.66580	0.97312
3840.61200	0.97386
3838.55820	0.97415
3836.50439	0.97347
3834.45059	0.97300
3832.39679	0.97283
3830.34298	0.97246
3828.28918	0.97258
3826.23538	0.97348
3824.18158	0.97419
3822.12777	0.97414
3820.07397	0.97373
3818.02017	0.97362
3815.96636	0.97365
3813.91256	0.97331
3811.85876	0.97289
3809.80495	0.97278
3807.75115	0.97296
3805.69735	0.97311
3803.64354	0.97307
3801.58974	0.97302
3799.53594	0.97302
3797.48213	0.97286
3795.42833	0.97315
3793.37453	0.97401
3791.32072	0.97431
3789.26692	0.97403
3787.21312	0.97383
3785.15931	0.97361
3783.10551	0.97337
3781.05171	0.97330
3778.99790	0.97324
3776.94410	0.97335
3774.89030	0.97363
3772.83650	0.97375
3770.78269	0.97380
3768.72889	0.97390
3766.67509	0.97415
3764.62128	0.97427
3762.56748	0.97409
3760.51368	0.97369
3758.45987	0.97302
3756.40607	0.97278
3754.35227	0.97347
3752.29846	0.97462
3750.24466	0.97491
3748.19086	0.97449
3746.13705	0.97482
3744.08325	0.97518
3742.02945	0.97454
3739.97564	0.97432
3737.92184	0.97479
3735.86804	0.97453
3733.81423	0.97370
3731.76043	0.97376
3729.70663	0.97408
3727.65282	0.97409
3725.59902	0.97385
3723.54522	0.97372
3721.49141	0.97321
3719.43761	0.97213
3717.38381	0.97147
3715.33001	0.97113
3713.27620	0.97000
3711.22240	0.96757
3709.16860	0.96511
3707.11479	0.96293
3705.06099	0.96058
3703.00719	0.95849
3700.95338	0.95677
3698.89958	0.95587
3696.84578	0.95628
3694.79197	0.95696
3692.73817	0.95677
3690.68437	0.95646
3688.63056	0.95765
3686.57676	0.95915
3684.52296	0.95990
3682.46915	0.96041
3680.41535	0.96049
3678.36155	0.96014
3676.30774	0.95951
3674.25394	0.95896
3672.20014	0.95825
3670.14633	0.95611
3668.09253	0.95406
3666.03873	0.95390
3663.98492	0.95437
3661.93112	0.95401
3659.87732	0.95276
3657.82352	0.95178
3655.76971	0.95083
3653.71591	0.95023
3651.66211	0.95057
3649.60830	0.95051
3647.55450	0.94918
3645.50070	0.94849
3643.44689	0.94848
3641.39309	0.94796
3639.33929	0.94696
3637.28548	0.94614
3635.23168	0.94529
3633.17788	0.94424
3631.12407	0.94298
3629.07027	0.94091
3627.01647	0.93969
3624.96266	0.94068
3622.90886	0.94177
3620.85506	0.94129
3618.80125	0.93949
3616.74745	0.93885
3614.69365	0.93966
3612.63984	0.94030
3610.58604	0.94026
3608.53224	0.94057
3606.47844	0.94131
3604.42463	0.94153
3602.37083	0.94165
3600.31703	0.94227
3598.26322	0.94285
3596.20942	0.94267
3594.15562	0.94175
3592.10181	0.94104
3590.04801	0.94110
3587.99421	0.94123
3585.94040	0.94078
3583.88660	0.94062
3581.83280	0.94096
3579.77899	0.94118
3577.72519	0.94125
3575.67139	0.94119
3573.61758	0.94063
3571.56378	0.93983
3569.50998	0.93912
3567.45617	0.93818
3565.40237	0.93748
3563.34857	0.93785
3561.29476	0.93844
3559.24096	0.93831
3557.18716	0.93803
3555.13335	0.93802
3553.07955	0.93791
3551.02575	0.93763
3548.97195	0.93756
3546.91814	0.93739
3544.86434	0.93681
3542.81054	0.93642
3540.75673	0.93659
3538.70293	0.93699
3536.64913	0.93664
3534.59532	0.93547
3532.54152	0.93511
3530.48772	0.93559
3528.43391	0.93594
3526.38011	0.93613
3524.32631	0.93596
3522.27250	0.93534
3520.21870	0.93495
3518.16490	0.93512
3516.11109	0.93520
3514.05729	0.93489
3512.00349	0.93476
3509.94968	0.93474
3507.89588	0.93480
3505.84208	0.93515
3503.78827	0.93519
3501.73447	0.93476
3499.68067	0.93457
3497.62687	0.93444
3495.57306	0.93386
3493.51926	0.93338
3491.46546	0.93331
3489.41165	0.93321
3487.35785	0.93286
3485.30405	0.93226
3483.25024	0.93183
3481.19644	0.93211
3479.14264	0.93267
3477.08883	0.93281
3475.03503	0.93253
3472.98123	0.93221
3470.92742	0.93193
3468.87362	0.93142
3466.81982	0.93065
3464.76601	0.92995
3462.71221	0.92973
3460.65841	0.92980
3458.60460	0.92994
3456.55080	0.92982
3454.49700	0.92897
3452.44319	0.92801
3450.38939	0.92774
3448.33559	0.92789
3446.28178	0.92776
3444.22798	0.92734
3442.17418	0.92706
3440.12038	0.92662
3438.06657	0.92583
3436.01277	0.92552
3433.95897	0.92581
3431.90516	0.92553
3429.85136	0.92478
3427.79756	0.92479
3425.74375	0.92521
3423.68995	0.92517
3421.63615	0.92478
3419.58234	0.92417
3417.52854	0.92359
3415.47474	0.92324
3413.42093	0.92270
3411.36713	0.92206
3409.31333	0.92165
3407.25952	0.92156
3405.20572	0.92150
3403.15192	0.92118
3401.09811	0.92114
3399.04431	0.92124
3396.99051	0.92092
3394.93670	0.92074
3392.88290	0.92086
3390.82910	0.92078
3388.77529	0.92046
3386.72149	0.92025
3384.66769	0.92033
3382.61389	0.92022
3380.56008	0.91989
3378.50628	0.91988
3376.45248	0.92005
3374.39867	0.92031
3372.34487	0.92059
3370.29107	0.92022
3368.23726	0.91941
3366.18346	0.91897
3364.12966	0.91910
3362.07585	0.91942
3360.02205	0.91953
3357.96825	0.91930
3355.91444	0.91909
3353.86064	0.91921
3351.80684	0.91956
3349.75303	0.91993
3347.69923	0.92009
3345.64543	0.92010
3343.59162	0.92005
3341.53782	0.91980
3339.48402	0.91968
3337.43021	0.91982
3335.37641	0.91989
3333.32261	0.91991
3331.26881	0.92007
3329.21500	0.92028
3327.16120	0.92013
3325.10740	0.91991
3323.05359	0.91989
3320.99979	0.91986
3318.94599	0.92006
3316.89218	0.92051
3314.83838	0.92075
3312.78458	0.92043
3310.73077	0.91982
3308.67697	0.91945
3306.62317	0.91912
3304.56936	0.91900
3302.51556	0.91946
3300.46176	0.92016
3298.40795	0.92067
3296.35415	0.92081
3294.30035	0.92076
3292.24654	0.92091
3290.19274	0.92106
3288.13894	0.92085
3286.08513	0.92050
3284.03133	0.92054
3281.97753	0.92111
3279.92372	0.92171
3277.86992	0.92207
3275.81612	0.92250
3273.76232	0.92298
3271.70851	0.92336
3269.65471	0.92347
3267.60091	0.92335
3265.54710	0.92321
3263.49330	0.92312
3261.43950	0.92334
3259.38569	0.92385
3257.33189	0.92405
3255.27809	0.92408
3253.22428	0.92406
3251.17048	0.92366
3249.11668	0.92350
3247.06287	0.92412
3245.00907	0.92488
3242.95527	0.92537
3240.90146	0.92611
3238.84766	0.92716
3236.79386	0.92795
3234.74005	0.92799
3232.68625	0.92746
3230.63245	0.92743
3228.57864	0.92805
3226.52484	0.92860
3224.47104	0.92906
3222.41724	0.92954
3220.36343	0.93015
3218.30963	0.93055
3216.25583	0.93046
3214.20202	0.93052
3212.14822	0.93097
3210.09442	0.93123
3208.04061	0.93119
3205.98681	0.93132
3203.93301	0.93206
3201.87920	0.93322
3199.82540	0.93392
3197.77160	0.93383
3195.71779	0.93377
3193.66399	0.93424
3191.61019	0.93470
3189.55638	0.93474
3187.50258	0.93506
3185.44878	0.93566
3183.39497	0.93586
3181.34117	0.93634
3179.28737	0.93718
3177.23356	0.93759
3175.17976	0.93758
3173.12596	0.93744
3171.07215	0.93737
3169.01835	0.93772
3166.96455	0.93883
3164.91075	0.93995
3162.85694	0.94013
3160.80314	0.93996
3158.74934	0.94026
3156.69553	0.94060
3154.64173	0.94054
3152.58793	0.94042
3150.53412	0.94057
3148.48032	0.94080
3146.42652	0.94097
3144.37271	0.94126
3142.31891	0.94169
3140.26511	0.94207
3138.21130	0.94238
3136.15750	0.94283
3134.10370	0.94347
3132.04989	0.94396
3129.99609	0.94412
3127.94229	0.94452
3125.88848	0.94527
3123.83468	0.94585
3121.78088	0.94586
3119.72707	0.94543
3117.67327	0.94517
3115.61947	0.94537
3113.56566	0.94562
3111.51186	0.94571
3109.45806	0.94562
3107.40426	0.94550
3105.35045	0.94552
3103.29665	0.94549
3101.24285	0.94546
3099.18904	0.94547
3097.13524	0.94563
3095.08144	0.94613
3093.02763	0.94612
3090.97383	0.94532
3088.92003	0.94467
3086.86622	0.94377
3084.81242	0.94233
3082.75862	0.94187
3080.70481	0.94285
3078.65101	0.94397
3076.59721	0.94456
3074.54340	0.94493
3072.48960	0.94488
3070.43580	0.94434
3068.38199	0.94370
3066.32819	0.94285
3064.27439	0.94172
3062.22058	0.94071
3060.16678	0.94036
3058.11298	0.94088
3056.05918	0.94221
3054.00537	0.94365
3051.95157	0.94485
3049.89777	0.94604
3047.84396	0.94689
3045.79016	0.94713
3043.73636	0.94695
3041.68255	0.94684
3039.62875	0.94676
3037.57495	0.94614
3035.52114	0.94463
3033.46734	0.94199
3031.41354	0.93857
3029.35973	0.93548
3027.30593	0.93368
3025.25213	0.93337
3023.19832	0.93431
3021.14452	0.93644
3019.09072	0.93945
3017.03691	0.94249
3014.98311	0.94505
3012.92931	0.94690
3010.87550	0.94796
3008.82170	0.94870
3006.76790	0.94917
3004.71409	0.94919
3002.66029	0.94928
3000.60649	0.94968
2998.55269	0.95004
2996.49888	0.95027
2994.44508	0.95070
2992.39128	0.95109
2990.33747	0.95090
2988.28367	0.95036
2986.22987	0.94976
2984.17606	0.94914
2982.12226	0.94848
2980.06846	0.94777
2978.01465	0.94710
2975.96085	0.94643
2973.90705	0.94582
2971.85324	0.94553
2969.79944	0.94548
2967.74564	0.94503
2965.69183	0.94403
2963.63803	0.94310
2961.58423	0.94269
2959.53042	0.94264
2957.47662	0.94247
2955.42282	0.94193
2953.36901	0.94111
2951.31521	0.94009
2949.26141	0.93898
2947.20761	0.93778
2945.15380	0.93602
2943.10000	0.93338
2941.04620	0.93069
2938.99239	0.92828
2936.93859	0.92538
2934.88479	0.92186
2932.83098	0.91832
2930.77718	0.91464
2928.72338	0.91092
2926.66957	0.90779
2924.61577	0.90515
2922.56197	0.90313
2920.50816	0.90251
2918.45436	0.90343
2916.40056	0.90543
2914.34675	0.90817
2912.29295	0.91147
2910.23915	0.91481
2908.18534	0.91739
2906.13154	0.91953
2904.07774	0.92218
2902.02393	0.92506
2899.97013	0.92742
2897.91633	0.92928
2895.86252	0.93077
2893.80872	0.93174
2891.75492	0.93259
2889.70112	0.93375
2887.64731	0.93518
2885.59351	0.93661
2883.53971	0.93757
2881.48590	0.93811
2879.43210	0.93844
2877.37830	0.93863
2875.32449	0.93885
2873.27069	0.93912
2871.21689	0.93918
2869.16308	0.93898
2867.10928	0.93861
2865.05548	0.93812
2863.00167	0.93732
2860.94787	0.93620
2858.89407	0.93483
2856.84026	0.93291
2854.78646	0.93045
2852.73266	0.92835
2850.67885	0.92782
2848.62505	0.92935
2846.57125	0.93257
2844.51744	0.93666
2842.46364	0.94039
2840.40984	0.94320
2838.35603	0.94576
2836.30223	0.94862
2834.24843	0.95114
2832.19463	0.95244
2830.14082	0.95306
2828.08702	0.95401
2826.03322	0.95505
2823.97941	0.95585
2821.92561	0.95641
2819.87181	0.95650
2817.81800	0.95629
2815.76420	0.95641
2813.71040	0.95721
2811.65659	0.95813
2809.60279	0.95837
2807.54899	0.95820
2805.49518	0.95830
2803.44138	0.95878
2801.38758	0.95920
2799.33377	0.95946
2797.27997	0.95988
2795.22617	0.96034
2793.17236	0.96078
2791.11856	0.96133
2789.06476	0.96140
2787.01095	0.96097
2784.95715	0.96090
2782.90335	0.96127
2780.84955	0.96145
2778.79574	0.96138
2776.74194	0.96148
2774.68814	0.96199
2772.63433	0.96233
2770.58053	0.96218
2768.52673	0.96224
2766.47292	0.96269
2764.41912	0.96294
2762.36532	0.96295
2760.31151	0.96292
2758.25771	0.96283
2756.20391	0.96305
2754.15010	0.96355
2752.09630	0.96380
2750.04250	0.96386
2747.98869	0.96370
2745.93489	0.96321
2743.88109	0.96283
2741.82728	0.96298
2739.77348	0.96337
2737.71968	0.96358
2735.66587	0.96394
2733.61207	0.96434
2731.55827	0.96425
2729.50446	0.96408
2727.45066	0.96414
2725.39686	0.96413
2723.34306	0.96414
2721.28925	0.96448
2719.23545	0.96486
2717.18165	0.96487
2715.12784	0.96454
2713.07404	0.96441
2711.02024	0.96449
2708.96643	0.96454
2706.91263	0.96477
2704.85883	0.96490
2702.80502	0.96482
2700.75122	0.96503
2698.69742	0.96527
2696.64361	0.96511
2694.58981	0.96508
2692.53601	0.96547
2690.48220	0.96578
2688.42840	0.96566
2686.37460	0.96539
2684.32079	0.96537
2682.26699	0.96534
2680.21319	0.96532
2678.15938	0.96564
2676.10558	0.96576
2674.05178	0.96531
2671.99797	0.96498
2669.94417	0.96514
2667.89037	0.96531
2665.83657	0.96528
2663.78276	0.96516
2661.72896	0.96513
2659.67516	0.96527
2657.62135	0.96547
2655.56755	0.96558
2653.51375	0.96544
2651.45994	0.96536
2649.40614	0.96563
2647.35234	0.96592
2645.29853	0.96604
2643.24473	0.96589
2641.19093	0.96556
2639.13712	0.96542
2637.08332	0.96553
2635.02952	0.96584
2632.97571	0.96605
2630.92191	0.96599
2628.86811	0.96606
2626.81430	0.96643
2624.76050	0.96675
2622.70670	0.96659
2620.65289	0.96645
2618.59909	0.96670
2616.54529	0.96685
2614.49149	0.96693
2612.43768	0.96709
2610.38388	0.96736
2608.33008	0.96758
2606.27627	0.96740
2604.22247	0.96720
2602.16867	0.96745
2600.11486	0.96773
2598.06106	0.96735
2596.00726	0.96685
2593.95345	0.96701
2591.89965	0.96765
2589.84585	0.96803
2587.79204	0.96803
2585.73824	0.96818
2583.68444	0.96844
2581.63063	0.96873
2579.57683	0.96922
2577.52303	0.96956
2575.46922	0.96953
2573.41542	0.96936
2571.36162	0.96938
2569.30781	0.96933
2567.25401	0.96890
2565.20021	0.96867
2563.14640	0.96903
2561.09260	0.96934
2559.03880	0.96922
2556.98500	0.96896
2554.93119	0.96880
2552.87739	0.96909
2550.82359	0.96936
2548.76978	0.96905
2546.71598	0.96881
2544.66218	0.96901
2542.60837	0.96929
2540.55457	0.96925
2538.50077	0.96892
2536.44696	0.96894
2534.39316	0.96945
2532.33936	0.97000
2530.28555	0.97045
2528.23175	0.97059
2526.17795	0.97051
2524.12414	0.97062
2522.07034	0.97069
2520.01654	0.97057
2517.96273	0.97025
2515.90893	0.96973
2513.85513	0.96950
2511.80132	0.96973
2509.74752	0.96995
2507.69372	0.97016
2505.63992	0.97025
2503.58611	0.96995
2501.53231	0.96975
2499.47851	0.96991
2497.42470	0.97006
2495.37090	0.97013
2493.31710	0.97044
2491.26329	0.97088
2489.20949	0.97096
2487.15569	0.97094
2485.10188	0.97108
2483.04808	0.97121
2480.99428	0.97125
2478.94047	0.97085
2476.88667	0.97027
2474.83287	0.97034
2472.77906	0.97092
2470.72526	0.97159
2468.67146	0.97212
2466.61765	0.97216
2464.56385	0.97182
2462.51005	0.97130
2460.45624	0.97068
2458.40244	0.97047
2456.34864	0.97085
2454.29483	0.97134
2452.24103	0.97156
2450.18723	0.97140
2448.13343	0.97127
2446.07962	0.97142
2444.02582	0.97139
2441.97202	0.97101
2439.91821	0.97048
2437.86441	0.97004
2435.81061	0.97016
2433.75680	0.97108
2431.70300	0.97213
2429.64920	0.97227
2427.59539	0.97181
2425.54159	0.97179
2423.48779	0.97196
2421.43398	0.97185
2419.38018	0.97172
2417.32638	0.97159
2415.27257	0.97145
2413.21877	0.97160
2411.16497	0.97160
2409.11116	0.97131
2407.05736	0.97165
2405.00356	0.97213
2402.94975	0.97154
2400.89595	0.97076
2398.84215	0.97104
2396.78834	0.97160
2394.73454	0.97172
2392.68074	0.97183
2390.62694	0.97203
2388.57313	0.97219
2386.51933	0.97232
2384.46553	0.97239
2382.41172	0.97197
2380.35792	0.97126
2378.30412	0.97130
2376.25031	0.97156
2374.19651	0.97122
2372.14271	0.97146
2370.08890	0.97200
2368.03510	0.97094
2365.98130	0.96922
2363.92749	0.96874
2361.87369	0.96930
2359.81989	0.96993
2357.76608	0.96999
2355.71228	0.96998
2353.65848	0.97061
2351.60467	0.97131
2349.55087	0.97151
2347.49707	0.97114
2345.44326	0.97003
2343.38946	0.96923
2341.33566	0.96982
2339.28186	0.96971
2337.22805	0.96881
2335.17425	0.96915
2333.12045	0.96972
2331.06664	0.96937
2329.01284	0.96929
2326.95904	0.96965
2324.90523	0.96926
2322.85143	0.96855
2320.79763	0.96873
2318.74382	0.96935
2316.69002	0.96946
2314.63622	0.96932
2312.58241	0.96963
2310.52861	0.97002
2308.47481	0.96991
2306.42100	0.96950
2304.36720	0.96926
2302.31340	0.96946
2300.25959	0.96999
2298.20579	0.97055
2296.15199	0.97098
2294.09818	0.97120
2292.04438	0.97087
2289.99058	0.97024
2287.93677	0.96963
2285.88297	0.96901
2283.82917	0.96900
2281.77537	0.96977
2279.72156	0.97047
2277.66776	0.97098
2275.61396	0.97137
2273.56015	0.97116
2271.50635	0.97076
2269.45255	0.97113
2267.39874	0.97122
2265.34494	0.97029
2263.29114	0.97019
2261.23733	0.97132
2259.18353	0.97192
2257.12973	0.97183
2255.07592	0.97188
2253.02212	0.97111
2250.96832	0.97002
2248.91451	0.97051
2246.86071	0.97103
2244.80691	0.97004
2242.75310	0.96866
2240.69930	0.96772
2238.64550	0.96783
2236.59169	0.96961
2234.53789	0.97171
2232.48409	0.97255
2230.43029	0.97323
2228.37648	0.97388
2226.32268	0.97282
2224.26888	0.97104
2222.21507	0.97111
2220.16127	0.97319
2218.10747	0.97483
2216.05366	0.97443
2213.99986	0.97369
2211.94606	0.97368
2209.89225	0.97370
2207.83845	0.97380
2205.78465	0.97292
2203.73084	0.97165
2201.67704	0.97201
2199.62324	0.97225
2197.56943	0.97161
2195.51563	0.97263
2193.46183	0.97555
2191.40802	0.97778
2189.35422	0.97716
2187.30042	0.97352
2185.24661	0.97007
2183.19281	0.96992
2181.13901	0.97166
2179.08520	0.97305
2177.03140	0.97485
2174.97760	0.97670
2172.92380	0.97642
2170.86999	0.97534
2168.81619	0.97521
2166.76239	0.97586
2164.70858	0.97600
2162.65478	0.97288
2160.60098	0.97059
2158.54717	0.97480
2156.49337	0.97924
2154.43957	0.97918
2152.38576	0.97810
2150.33196	0.97694
2148.27816	0.97606
2146.22435	0.97679
2144.17055	0.97825
2142.11675	0.97925
2140.06294	0.97837
2138.00914	0.97634
2135.95534	0.97587
2133.90153	0.97666
2131.84773	0.97755
2129.79393	0.97831
2127.74012	0.97813
2125.68632	0.97660
2123.63252	0.97498
2121.57871	0.97418
2119.52491	0.97360
2117.47111	0.97300
2115.41731	0.97307
2113.36350	0.97374
2111.30970	0.97403
2109.25590	0.97381
2107.20209	0.97358
2105.14829	0.97350
2103.09449	0.97383
2101.04068	0.97453
2098.98688	0.97504
2096.93308	0.97544
2094.87927	0.97540
2092.82547	0.97397
2090.77167	0.97200
2088.71786	0.97081
2086.66406	0.97085
2084.61026	0.97142
2082.55645	0.97242
2080.50265	0.97458
2078.44885	0.97589
2076.39504	0.97509
2074.34124	0.97360
2072.28744	0.97305
2070.23363	0.97419
2068.17983	0.97467
2066.12603	0.97346
2064.07223	0.97315
2062.01842	0.97391
2059.96462	0.97449
2057.91082	0.97496
2055.85701	0.97437
2053.80321	0.97304
2051.74941	0.97218
2049.69560	0.97156
2047.64180	0.97209
2045.58800	0.97458
2043.53419	0.97742
2041.48039	0.97760
2039.42659	0.97510
2037.37278	0.97337
2035.31898	0.97385
2033.26518	0.97630
2031.21137	0.97817
2029.15757	0.97510
2027.10377	0.97080
2025.04996	0.97156
2022.99616	0.97403
2020.94236	0.97386
2018.88855	0.97268
2016.83475	0.97282
2014.78095	0.97361
2012.72714	0.97399
2010.67334	0.97544
2008.61954	0.97821
2006.56574	0.97940
2004.51193	0.97827
2002.45813	0.97743
2000.40433	0.97753
1998.35052	0.97697
1996.29672	0.97538
1994.24292	0.97486
1992.18911	0.97691
1990.13531	0.97895
1988.08151	0.97775
1986.02770	0.97457
1983.97390	0.97282
1981.92010	0.97303
1979.86629	0.97391
1977.81249	0.97548
1975.75869	0.97700
1973.70488	0.97685
1971.65108	0.97643
1969.59728	0.97758
1967.54347	0.97859
1965.48967	0.97724
1963.43587	0.97544
1961.38206	0.97498
1959.32826	0.97421
1957.27446	0.97174
1955.22066	0.96943
1953.16685	0.96989
1951.11305	0.97155
1949.05925	0.97226
1947.00544	0.97260
1944.95164	0.97266
1942.89784	0.97207
1940.84403	0.97217
1938.79023	0.97379
1936.73643	0.97487
1934.68262	0.97412
1932.62882	0.97311
1930.57502	0.97299
1928.52121	0.97324
1926.46741	0.97342
1924.41361	0.97375
1922.35980	0.97376
1920.30600	0.97276
1918.25220	0.97171
1916.19839	0.97166
1914.14459	0.97229
1912.09079	0.97324
1910.03698	0.97422
1907.98318	0.97459
1905.92938	0.97404
1903.87557	0.97348
1901.82177	0.97368
1899.76797	0.97411
1897.71417	0.97431
1895.66036	0.97430
1893.60656	0.97425
1891.55276	0.97433
1889.49895	0.97407
1887.44515	0.97303
1885.39135	0.97192
1883.33754	0.97123
1881.28374	0.97099
1879.22994	0.97117
1877.17613	0.97132
1875.12233	0.97105
1873.06853	0.97083
1871.01472	0.97106
1868.96092	0.97096
1866.90712	0.97024
1864.85331	0.96988
1862.79951	0.96993
1860.74571	0.97035
1858.69190	0.97107
1856.63810	0.97154
1854.58430	0.97207
1852.53049	0.97296
1850.47669	0.97338
1848.42289	0.97280
1846.36908	0.97219
1844.31528	0.97271
1842.26148	0.97342
1840.20768	0.97308
1838.15387	0.97241
1836.10007	0.97274
1834.04627	0.97377
1831.99246	0.97419
1829.93866	0.97385
1827.88486	0.97325
1825.83105	0.97291
1823.77725	0.97298
1821.72345	0.97321
1819.66964	0.97336
1817.61584	0.97335
1815.56204	0.97300
1813.50823	0.97228
1811.45443	0.97165
1809.40063	0.97131
1807.34682	0.97103
1805.29302	0.97084
1803.23922	0.97075
1801.18541	0.97071
1799.13161	0.97079
1797.07781	0.97071
1795.02400	0.97051
1792.97020	0.97057
1790.91640	0.97085
1788.86260	0.97134
1786.80879	0.97178
1784.75499	0.97189
1782.70119	0.97184
1780.64738	0.97172
1778.59358	0.97144
1776.53978	0.97113
1774.48597	0.97086
1772.43217	0.97068
1770.37837	0.97073
1768.32456	0.97077
1766.27076	0.97058
1764.21696	0.97048
1762.16315	0.97045
1760.10935	0.97005
1758.05555	0.96928
1756.00174	0.96843
1753.94794	0.96765
1751.89414	0.96648
1749.84033	0.96453
1747.78653	0.96241
1745.73273	0.96103
1743.67892	0.96036
1741.62512	0.95987
1739.57132	0.95959
1737.51751	0.95981
1735.46371	0.96014
1733.40991	0.95984
1731.35611	0.95938
1729.30230	0.95941
1727.24850	0.95978
1725.19470	0.96022
1723.14089	0.96055
1721.08709	0.96088
1719.03329	0.96137
1716.97948	0.96171
1714.92568	0.96152
1712.87188	0.96142
1710.81807	0.96152
1708.76427	0.96168
1706.71047	0.96174
1704.65666	0.96141
1702.60286	0.96095
1700.54906	0.96006
1698.49525	0.95866
1696.44145	0.95777
1694.38765	0.95730
1692.33384	0.95682
1690.28004	0.95591
1688.22624	0.95490
1686.17243	0.95430
1684.11863	0.95281
1682.06483	0.95089
1680.01103	0.95004
1677.95722	0.94930
1675.90342	0.94807
1673.84962	0.94676
1671.79581	0.94593
1669.74201	0.94474
1667.68821	0.94344
1665.63440	0.94295
1663.58060	0.94235
1661.52680	0.94132
1659.47299	0.94074
1657.41919	0.94073
1655.36539	0.94088
1653.31158	0.93978
1651.25778	0.93825
1649.20398	0.93836
1647.15017	0.93836
1645.09637	0.93758
1643.04257	0.93717
1640.98876	0.93714
1638.93496	0.93714
1636.88116	0.93703
1634.82735	0.93685
1632.77355	0.93696
1630.71975	0.93699
1628.66594	0.93657
1626.61214	0.93600
1624.55834	0.93534
1622.50454	0.93454
1620.45073	0.93431
1618.39693	0.93418
1616.34313	0.93305
1614.28932	0.93183
1612.23552	0.93084
1610.18172	0.92898
1608.12791	0.92559
1606.07411	0.92047
1604.02031	0.91394
1601.96650	0.90761
1599.91270	0.90414
1597.85890	0.90412
1595.80509	0.90572
1593.75129	0.90703
1591.69749	0.90715
1589.64368	0.90557
1587.58988	0.90194
1585.53608	0.89663
1583.48227	0.89117
1581.42847	0.88756
1579.37467	0.88670
1577.32086	0.88752
1575.26706	0.88824
1573.21326	0.88844
1571.15945	0.88791
1569.10565	0.88586
1567.05185	0.88360
1564.99805	0.88198
1562.94424	0.88104
1560.89044	0.88050
1558.83664	0.87792
1556.78283	0.87627
1554.72903	0.87713
1552.67523	0.87831
1550.62142	0.88016
1548.56762	0.88256
1546.51382	0.88517
1544.46001	0.88827
1542.40621	0.89201
1540.35241	0.89749
1538.29860	0.90378
1536.24480	0.90802
1534.19100	0.91161
1532.13719	0.91488
1530.08339	0.91705
1528.02959	0.91856
1525.97578	0.91949
1523.92198	0.91959
1521.86818	0.91860
1519.81437	0.91708
1517.76057	0.91561
1515.70677	0.91377
1513.65297	0.91218
1511.59916	0.91071
1509.54536	0.90949
1507.49156	0.90745
1505.43775	0.90353
1503.38395	0.90109
1501.33015	0.89876
1499.27634	0.89348
1497.22254	0.88065
1495.16874	0.86296
1493.11493	0.85251
1491.06113	0.85369
1489.00733	0.86508
1486.95352	0.87723
1484.89972	0.88550
1482.84592	0.89136
1480.79211	0.89561
1478.73831	0.89882
1476.68451	0.90143
1474.63070	0.90348
1472.57690	0.90489
1470.52310	0.90561
1468.46929	0.90609
1466.41549	0.90629
1464.36169	0.90596
1462.30788	0.90536
1460.25408	0.90403
1458.20028	0.89732
1456.14648	0.87963
1454.09267	0.86436
1452.03887	0.85767
1449.98507	0.85825
1447.93126	0.86383
1445.87746	0.87013
1443.82366	0.87546
1441.76985	0.88027
1439.71605	0.88439
1437.66225	0.88809
1435.60844	0.89148
1433.55464	0.89377
1431.50084	0.89517
1429.44703	0.89610
1427.39323	0.89695
1425.33943	0.89780
1423.28562	0.89850
1421.23182	0.89875
1419.17802	0.89791
1417.12421	0.89618
1415.07041	0.89516
1413.01661	0.89536
1410.96280	0.89689
1408.90900	0.89933
1406.85520	0.90186
1404.80139	0.90386
1402.74759	0.90511
1400.69379	0.90602
1398.63999	0.90712
1396.58618	0.90830
1394.53238	0.90887
1392.47858	0.90865
1390.42477	0.90801
1388.37097	0.90672
1386.31717	0.90464
1384.26336	0.90248
1382.20956	0.90058
1380.15576	0.89863
1378.10195	0.89665
1376.04815	0.89503
1373.99435	0.89369
1371.94054	0.89306
1369.88674	0.89339
1367.83294	0.89386
1365.77913	0.89442
1363.72533	0.89541
1361.67153	0.89649
1359.61772	0.89735
1357.56392	0.89799
1355.51012	0.89820
1353.45631	0.89772
1351.40251	0.89634
1349.34871	0.89396
1347.29491	0.89097
1345.24110	0.88798
1343.18730	0.88546
1341.13350	0.88340
1339.07969	0.88122
1337.02589	0.87906
1334.97209	0.87741
1332.91828	0.87627
1330.86448	0.87529
1328.81068	0.87435
1326.75687	0.87396
1324.70307	0.87438
1322.64927	0.87546
1320.59546	0.87746
1318.54166	0.88039
1316.48786	0.88377
1314.43405	0.88722
1312.38025	0.89018
1310.32645	0.89206
1308.27264	0.89283
1306.21884	0.89315
1304.16504	0.89425
1302.11123	0.89659
1300.05743	0.89937
1298.00363	0.90162
1295.94982	0.90279
1293.89602	0.90293
1291.84222	0.90269
1289.78842	0.90296
1287.73461	0.90413
1285.68081	0.90596
1283.62701	0.90764
1281.57320	0.90842
1279.51940	0.90844
1277.46560	0.90841
1275.41179	0.90889
1273.35799	0.91011
1271.30419	0.91201
1269.25038	0.91434
1267.19658	0.91690
1265.14278	0.91944
1263.08897	0.92126
1261.03517	0.92234
1258.98137	0.92328
1256.92756	0.92402
1254.87376	0.92425
1252.81996	0.92404
1250.76615	0.92387
1248.71235	0.92391
1246.65855	0.92413
1244.60474	0.92445
1242.55094	0.92438
1240.49714	0.92366
1238.44334	0.92269
1236.38953	0.92198
1234.33573	0.92144
1232.28193	0.92049
1230.22812	0.91926
1228.17432	0.91804
1226.12052	0.91650
1224.06671	0.91439
1222.01291	0.91208
1219.95911	0.91022
1217.90530	0.90897
1215.85150	0.90806
1213.79770	0.90737
1211.74389	0.90685
1209.69009	0.90625
1207.63629	0.90534
1205.58248	0.90423
1203.52868	0.90308
1201.47488	0.90169
1199.42107	0.89978
1197.36727	0.89734
1195.31347	0.89398
1193.25966	0.88945
1191.20586	0.88402
1189.15206	0.87819
1187.09825	0.87301
1185.04445	0.86954
1182.99065	0.86802
1180.93685	0.86784
1178.88304	0.86820
1176.82924	0.86861
1174.77544	0.86808
1172.72163	0.86542
1170.66783	0.86014
1168.61403	0.85220
1166.56022	0.84201
1164.50642	0.83059
1162.45262	0.81908
1160.39881	0.80861
1158.34501	0.79982
1156.29121	0.79320
1154.23740	0.78983
1152.18360	0.79002
1150.12980	0.79303
1148.07599	0.79811
1146.02219	0.80420
1143.96839	0.80990
1141.91458	0.81458
1139.86078	0.81831
1137.80698	0.82064
1135.75317	0.82145
1133.69937	0.82135
1131.64557	0.82059
1129.59176	0.81905
1127.53796	0.81675
1125.48416	0.81388
1123.43036	0.81068
1121.37655	0.80696
1119.32275	0.80280
1117.26895	0.79878
1115.21514	0.79488
1113.16134	0.79093
1111.10754	0.78699
1109.05373	0.78317
1106.99993	0.77993
1104.94613	0.77729
1102.89232	0.77447
1100.83852	0.77106
1098.78472	0.76699
1096.73091	0.76219
1094.67711	0.75694
1092.62331	0.75209
1090.56950	0.74867
1088.51570	0.74688
1086.46190	0.74601
1084.40809	0.74512
1082.35429	0.74358
1080.30049	0.74177
1078.24668	0.73995
1076.19288	0.73768
1074.13908	0.73494
1072.08528	0.73182
1070.03147	0.72842
1067.97767	0.72531
1065.92387	0.72262
1063.87006	0.71971
1061.81626	0.71647
1059.76246	0.71346
1057.70865	0.71062
1055.65485	0.70719
1053.60105	0.70276
1051.54724	0.69762
1049.49344	0.69223
1047.43964	0.68652
1045.38583	0.68033
1043.33203	0.67390
1041.27823	0.66721
1039.22442	0.66027
1037.17062	0.65339
1035.11682	0.64633
1033.06301	0.63913
1031.00921	0.63248
1028.95541	0.62684
1026.90160	0.62299
1024.84780	0.62134
1022.79400	0.62077
1020.74019	0.62018
1018.68639	0.61930
1016.63259	0.61814
1014.57879	0.61688
1012.52498	0.61563
1010.47118	0.61386
1008.41738	0.61161
1006.36357	0.60994
1004.30977	0.60915
1002.25597	0.60920
1000.20216	0.61059
998.14836	0.61295
996.09456	0.61537
994.04075	0.61791
991.98695	0.62094
989.93315	0.62459
987.87934	0.62888
985.82554	0.63351
983.77174	0.63849
981.71793	0.64443
979.66413	0.65136
977.61033	0.65877
975.55652	0.66673
973.50272	0.67530
971.44892	0.68403
969.39511	0.69223
967.34131	0.69949
965.28751	0.70632
963.23371	0.71315
961.17990	0.71994
959.12610	0.72646
957.07230	0.73251
955.01849	0.73809
952.96469	0.74311
950.91089	0.74747
948.85708	0.75126
946.80328	0.75451
944.74948	0.75737
942.69567	0.76010
940.64187	0.76266
938.58807	0.76474
936.53426	0.76670
934.48046	0.76882
932.42666	0.77082
930.37285	0.77254
928.31905	0.77382
926.26525	0.77478
924.21144	0.77549
922.15764	0.77535
920.10384	0.77414
918.05003	0.77264
915.99623	0.77132
913.94243	0.77014
911.88862	0.76948
909.83482	0.76987
907.78102	0.77173
905.72722	0.77536
903.67341	0.78041
901.61961	0.78656
899.56581	0.79374
897.51200	0.80135
895.45820	0.80838
893.40440	0.81457
891.35059	0.82015
889.29679	0.82454
887.24299	0.82785
885.18918	0.83073
883.13538	0.83271
881.08158	0.83368
879.02777	0.83424
876.97397	0.83510
874.92017	0.83716
872.86636	0.84080
870.81256	0.84491
868.75876	0.84792
866.70495	0.84969
864.65115	0.85131
862.59735	0.85306
860.54354	0.85447
858.48974	0.85573
856.43594	0.85701
854.38213	0.85798
852.32833	0.85819
850.27453	0.85691
848.22073	0.85455
846.16692	0.85229
844.11312	0.84999
842.05932	0.84752
840.00551	0.84498
837.95171	0.84248
835.89791	0.84089
833.84410	0.84040
831.79030	0.84033
829.73650	0.84055
827.68269	0.84153
825.62889	0.84298
823.57509	0.84364
821.52128	0.84111
819.46748	0.83437
817.41368	0.82616
815.35987	0.81858
813.30607	0.81216
811.25227	0.80939
809.19846	0.81235
807.14466	0.81886
805.09086	0.82494
803.03705	0.82867
800.98325	0.83052
798.92945	0.83221
796.87565	0.83462
794.82184	0.83677
792.76804	0.83785
790.71424	0.83888
788.66043	0.84049
786.60663	0.84164
784.55283	0.84190
782.49902	0.84129
780.44522	0.83984
778.39142	0.83811
776.33761	0.83590
774.28381	0.83216
772.23001	0.82633
770.17620	0.81858
768.12240	0.80944
766.06860	0.79980
764.01479	0.79035
761.96099	0.78104
759.90719	0.77229
757.85338	0.76592
755.79958	0.76285
753.74578	0.76195
751.69197	0.76225
749.63817	0.76342
747.58437	0.76582
745.53056	0.77087
743.47676	0.77896
741.42296	0.78877
739.36916	0.79949
737.31535	0.81076
735.26155	0.82114
733.20775	0.82919
731.15394	0.83502
729.10014	0.83980
727.04634	0.84411
724.99253	0.84752
722.93873	0.84972
720.88493	0.85118
718.83112	0.85206
716.77732	0.85165
714.72352	0.84965
712.66971	0.84479
710.61591	0.83463
708.56211	0.81820
706.50830	0.79529
704.45450	0.76517
702.40070	0.72857
700.34689	0.68824
698.29309	0.64804
696.23929	0.61896
694.18548	0.61781
692.13168	0.64638
690.07788	0.68499
688.02408	0.71555
685.97027	0.73576
683.91647	0.74859
681.86267	0.75658
679.80886	0.76242
677.75506	0.76635
675.70126	0.76788
673.64745	0.76801
671.59365	0.76755
669.53985	0.76552
667.48604	0.76176
665.43224	0.76029
663.37844	0.76034
661.32463	0.76078
659.27083	0.76256
657.21703	0.76522
655.16322	0.76854
653.10942	0.77387
651.05562	0.78081
649.00181	0.78707
646.94801	0.79162
644.89421	0.79535
642.84040	0.79853
640.78660	0.80103
638.73280	0.80286
636.67899	0.80297
634.62519	0.80211
632.57139	0.80267
630.51759	0.80427
628.46378	0.80535
626.40998	0.80613
624.35618	0.80638
622.30237	0.80487
620.24857	0.80289
618.19477	0.80210
616.14096	0.80158
614.08716	0.80032
612.03336	0.79841
609.97955	0.79693
607.92575	0.79632
605.87195	0.79555
603.81814	0.79379
601.76434	0.79106
599.71054	0.78783
597.65673	0.78458
595.60293	0.78195
593.54913	0.78015
591.49532	0.77822
589.44152	0.77614
587.38772	0.77483
585.33391	0.77324
583.28011	0.77116
581.22631	0.76979
579.17250	0.76796
577.11870	0.76429
575.06490	0.76077
573.01110	0.75857
570.95729	0.75502
568.90349	0.74963
566.84969	0.74409
564.79588	0.73770
562.74208	0.72989
560.68828	0.72143
558.63447	0.71233
556.58067	0.70307
554.52687	0.69506
552.47306	0.68726
550.41926	0.67717
548.36546	0.66640
546.31165	0.65858
544.25785	0.65337
542.20405	0.64948
540.15024	0.64541
538.09644	0.63922
536.04264	0.63360
533.98883	0.63271
531.93503	0.63498
529.88123	0.63729
527.82742	0.64056
525.77362	0.64533
523.71982	0.65012
521.66602	0.65616
519.61221	0.66368
517.55841	0.66854
515.50461	0.67051
513.45080	0.67317
511.39700	0.67718
509.34320	0.68190
507.28939	0.68675
505.23559	0.69083
503.18179	0.69287
501.12798	0.69314
499.07418	0.69361
497.02038	0.69478
494.96657	0.69417
492.91277	0.69040
490.85897	0.68558
488.80516	0.68074
486.75136	0.67539
484.69756	0.66822
482.64375	0.65969
480.58995	0.65132
478.53615	0.64216
476.48234	0.63152
474.42854	0.62065
472.37474	0.61360
470.32093	0.61148
468.26713	0.61035
466.21333	0.61068
464.15953	0.61378
462.10572	0.61811
460.05192	0.62243
457.99812	0.62743
455.94431	0.63468
453.89051	0.64294
451.83671	0.64894
449.78290	0.65163
447.72910	0.65410
445.67530	0.65712
443.62149	0.65895
441.56769	0.66039
439.51389	0.66113
437.46008	0.65948
435.40628	0.65833
433.35248	0.65917
431.29867	0.65905
429.24487	0.65945
427.19107	0.66176
425.13726	0.66262
423.08346	0.66114
421.02966	0.66079
418.97585	0.66345
416.92205	0.66505
414.86825	0.66381
412.81445	0.66488
410.76064	0.67099
408.70684	0.68073
406.65304	0.69187
404.59923	0.69810
402.54543	0.69816
400.49163	0.69692
398.43782	0.69598
