3996.70104	0.98603
3994.64724	0.98672
3992.59344	0.98703
3990.53964	0.98701
3988.48583	0.98668
3986.43203	0.98624
3984.37823	0.98638
3982.32442	0.98704
3980.27062	0.98709
3978.21682	0.98632
3976.16301	0.98573
3974.10921	0.98573
3972.05541	0.98597
3970.00160	0.98628
3967.94780	0.98635
3965.89400	0.98588
3963.84019	0.98560
3961.78639	0.98617
3959.73259	0.98683
3957.67878	0.98695
3955.62498	0.98684
3953.57118	0.98691
3951.51737	0.98687
3949.46357	0.98642
3947.40977	0.98637
3945.35596	0.98670
3943.30216	0.98655
3941.24836	0.98601
3939.19455	0.98606
3937.14075	0.98664
3935.08695	0.98694
3933.03315	0.98707
3930.97934	0.98753
3928.92554	0.98780
3926.87174	0.98734
3924.81793	0.98629
3922.76413	0.98558
3920.71033	0.98555
3918.65652	0.98583
3916.60272	0.98647
3914.54892	0.98701
3912.49511	0.98693
3910.44131	0.98671
3908.38751	0.98662
3906.33370	0.98684
3904.27990	0.98777
3902.22610	0.98854
3900.17229	0.98819
3898.11849	0.98771
3896.06469	0.98733
3894.01088	0.98691
3891.95708	0.98695
3889.90328	0.98739
3887.84947	0.98735
3885.79567	0.98704
3883.74187	0.98703
3881.68807	0.98709
3879.63426	0.98728
3877.58046	0.98747
3875.52666	0.98743
3873.47285	0.98725
3871.41905	0.98709
3869.36525	0.98690
3867.31144	0.98647
3865.25764	0.98624
3863.20384	0.98662
3861.15003	0.98708
3859.09623	0.98721
3857.04243	0.98754
3854.98862	0.98833
3852.93482	0.98862
3850.88102	0.98793
3848.82721	0.98721
3846.77341	0.98655
3844.71961	0.98641
3842.66580	0.98684
3840.61200	0.98673
3838.55820	0.98594
3836.50439	0.98596
3834.45059	0.98698
3832.39679	0.98760
3830.34298	0.98735
3828.28918	0.98701
3826.23538	0.98692
3824.18158	0.98736
3822.12777	0.98879
3820.07397	0.98989
3818.02017	0.98912
3815.96636	0.98836
3813.91256	0.98790
3811.85876	0.98691
3809.80495	0.98632
3807.75115	0.98699
3805.69735	0.98771
3803.64354	0.98702
3801.58974	0.98629
3799.53594	0.98680
3797.48213	0.98728
3795.42833	0.98714
3793.37453	0.98669
3791.32072	0.98628
3789.26692	0.98652
3787.21312	0.98730
3785.15931	0.98771
3783.10551	0.98783
3781.05171	0.98783
3778.99790	0.98733
3776.94410	0.98640
3774.89030	0.98554
3772.83650	0.98512
3770.78269	0.98549
3768.72889	0.98623
3766.67509	0.98633
3764.62128	0.98641
3762.56748	0.98660
3760.51368	0.98630
3758.45987	0.98583
3756.40607	0.98541
3754.35227	0.98513
3752.29846	0.98570
3750.24466	0.98722
3748.19086	0.98865
3746.13705	0.98995
3744.08325	0.99039
3742.02945	0.98907
3739.97564	0.98770
3737.92184	0.98700
3735.86804	0.98675
3733.81423	0.98634
3731.76043	0.98583
3729.70663	0.98612
3727.65282	0.98669
3725.59902	0.98660
3723.54522	0.98591
3721.49141	0.98453
3719.43761	0.98263
3717.38381	0.98064
3715.33001	0.97852
3713.27620	0.97598
3711.22240	0.97207
3709.16860	0.96709
3707.11479	0.96209
3705.06099	0.95735
3703.00719	0.95249
3700.95338	0.94753
3698.89958	0.94484
3696.84578	0.94486
3694.79197	0.94597
3692.73817	0.94802
3690.68437	0.95163
3688.63056	0.95589
3686.57676	0.95890
3684.52296	0.96046
3682.46915	0.96120
3680.41535	0.96150
3678.36155	0.96122
3676.30774	0.96029
3674.25394	0.95970
3672.20014	0.95974
3670.14633	0.95921
3668.09253	0.95837
3666.03873	0.95802
3663.98492	0.95726
3661.93112	0.95549
3659.87732	0.95368
3657.82352	0.95269
3655.76971	0.95206
3653.71591	0.95141
3651.66211	0.95112
3649.60830	0.95150
3647.55450	0.95197
3645.50070	0.95145
3643.44689	0.95045
3641.39309	0.94960
3639.33929	0.94898
3637.28548	0.94825
3635.23168	0.94700
3633.17788	0.94564
3631.12407	0.94470
3629.07027	0.94309
3627.01647	0.94079
3624.96266	0.93968
3622.90886	0.93955
3620.85506	0.94001
3618.80125	0.94116
3616.74745	0.94245
3614.69365	0.94368
3612.63984	0.94495
3610.58604	0.94564
3608.53224	0.94537
3606.47844	0.94443
3604.42463	0.94421
3602.37083	0.94481
3600.31703	0.94513
3598.26322	0.94479
3596.20942	0.94465
3594.15562	0.94517
3592.10181	0.94536
3590.04801	0.94480
3587.99421	0.94406
3585.94040	0.94357
3583.88660	0.94370
3581.83280	0.94439
3579.77899	0.94455
3577.72519	0.94353
3575.67139	0.94241
3573.61758	0.94183
3571.56378	0.94111
3569.50998	0.94025
3567.45617	0.94041
3565.40237	0.94102
3563.34857	0.94036
3561.29476	0.93935
3559.24096	0.93880
3557.18716	0.93851
3555.13335	0.93824
3553.07955	0.93779
3551.02575	0.93707
3548.97195	0.93650
3546.91814	0.93631
3544.86434	0.93599
3542.81054	0.93561
3540.75673	0.93552
3538.70293	0.93533
3536.64913	0.93501
3534.59532	0.93500
3532.54152	0.93530
3530.48772	0.93562
3528.43391	0.93567
3526.38011	0.93564
3524.32631	0.93601
3522.27250	0.93650
3520.21870	0.93687
3518.16490	0.93738
3516.11109	0.93757
3514.05729	0.93716
3512.00349	0.93688
3509.94968	0.93693
3507.89588	0.93691
3505.84208	0.93694
3503.78827	0.93724
3501.73447	0.93764
3499.68067	0.93763
3497.62687	0.93727
3495.57306	0.93690
3493.51926	0.93667
3491.46546	0.93673
3489.41165	0.93674
3487.35785	0.93645
3485.30405	0.93617
3483.25024	0.93583
3481.19644	0.93515
3479.14264	0.93471
3477.08883	0.93487
3475.03503	0.93512
3472.98123	0.93518
3470.92742	0.93499
3468.87362	0.93431
3466.81982	0.93372
3464.76601	0.93401
3462.71221	0.93430
3460.65841	0.93395
3458.60460	0.93361
3456.55080	0.93356
3454.49700	0.93333
3452.44319	0.93252
3450.38939	0.93149
3448.33559	0.93128
3446.28178	0.93182
3444.22798	0.93175
3442.17418	0.93104
3440.12038	0.93067
3438.06657	0.93074
3436.01277	0.93058
3433.95897	0.92985
3431.90516	0.92925
3429.85136	0.92914
3427.79756	0.92901
3425.74375	0.92871
3423.68995	0.92838
3421.63615	0.92818
3419.58234	0.92781
3417.52854	0.92710
3415.47474	0.92642
3413.42093	0.92595
3411.36713	0.92551
3409.31333	0.92501
3407.25952	0.92468
3405.20572	0.92460
3403.15192	0.92439
3401.09811	0.92398
3399.04431	0.92384
3396.99051	0.92407
3394.93670	0.92432
3392.88290	0.92464
3390.82910	0.92504
3388.77529	0.92544
3386.72149	0.92586
3384.66769	0.92613
3382.61389	0.92625
3380.56008	0.92658
3378.50628	0.92689
3376.45248	0.92673
3374.39867	0.92664
3372.34487	0.92737
3370.29107	0.92849
3368.23726	0.92895
3366.18346	0.92846
3364.12966	0.92809
3362.07585	0.92868
3360.02205	0.92957
3357.96825	0.92984
3355.91444	0.92963
3353.86064	0.92948
3351.80684	0.92946
3349.75303	0.92962
3347.69923	0.93005
3345.64543	0.93069
3343.59162	0.93109
3341.53782	0.93113
3339.48402	0.93110
3337.43021	0.93093
3335.37641	0.93093
3333.32261	0.93114
3331.26881	0.93139
3329.21500	0.93172
3327.16120	0.93184
3325.10740	0.93213
3323.05359	0.93262
3320.99979	0.93263
3318.94599	0.93257
3316.89218	0.93311
3314.83838	0.93374
3312.78458	0.93385
3310.73077	0.93368
3308.67697	0.93358
3306.62317	0.93382
3304.56936	0.93474
3302.51556	0.93571
3300.46176	0.93601
3298.40795	0.93589
3296.35415	0.93598
3294.30035	0.93643
3292.24654	0.93679
3290.19274	0.93702
3288.13894	0.93712
3286.08513	0.93679
3284.03133	0.93646
3281.97753	0.93674
3279.92372	0.93742
3277.86992	0.93798
3275.81612	0.93828
3273.76232	0.93842
3271.70851	0.93872
3269.65471	0.93920
3267.60091	0.93936
3265.54710	0.93950
3263.49330	0.94013
3261.43950	0.94054
3259.38569	0.94054
3257.33189	0.94078
3255.27809	0.94125
3253.22428	0.94174
3251.17048	0.94209
3249.11668	0.94226
3247.06287	0.94263
3245.00907	0.94328
3242.95527	0.94357
3240.90146	0.94348
3238.84766	0.94371
3236.79386	0.94435
3234.74005	0.94504
3232.68625	0.94552
3230.63245	0.94575
3228.57864	0.94579
3226.52484	0.94607
3224.47104	0.94658
3222.41724	0.94682
3220.36343	0.94690
3218.30963	0.94720
3216.25583	0.94764
3214.20202	0.94805
3212.14822	0.94843
3210.09442	0.94881
3208.04061	0.94922
3205.98681	0.94968
3203.93301	0.95033
3201.87920	0.95111
3199.82540	0.95162
3197.77160	0.95160
3195.71779	0.95153
3193.66399	0.95180
3191.61019	0.95213
3189.55638	0.95245
3187.50258	0.95271
3185.44878	0.95296
3183.39497	0.95354
3181.34117	0.95419
3179.28737	0.95464
3177.23356	0.95529
3175.17976	0.95610
3173.12596	0.95657
3171.07215	0.95651
3169.01835	0.95631
3166.96455	0.95660
3164.91075	0.95722
3162.85694	0.95785
3160.80314	0.95845
3158.74934	0.95870
3156.69553	0.95846
3154.64173	0.95823
3152.58793	0.95864
3150.53412	0.95952
3148.48032	0.96039
3146.42652	0.96090
3144.37271	0.96108
3142.31891	0.96159
3140.26511	0.96231
3138.21130	0.96260
3136.15750	0.96247
3134.10370	0.96225
3132.04989	0.96233
3129.99609	0.96287
3127.94229	0.96350
3125.88848	0.96405
3123.83468	0.96439
3121.78088	0.96433
3119.72707	0.96387
3117.67327	0.96342
3115.61947	0.96360
3113.56566	0.96419
3111.51186	0.96438
3109.45806	0.96439
3107.40426	0.96467
3105.35045	0.96487
3103.29665	0.96505
3101.24285	0.96535
3099.18904	0.96546
3097.13524	0.96529
3095.08144	0.96519
3093.02763	0.96543
3090.97383	0.96561
3088.92003	0.96551
3086.86622	0.96535
3084.81242	0.96556
3082.75862	0.96609
3080.70481	0.96622
3078.65101	0.96591
3076.59721	0.96576
3074.54340	0.96578
3072.48960	0.96592
3070.43580	0.96639
3068.38199	0.96707
3066.32819	0.96765
3064.27439	0.96797
3062.22058	0.96766
3060.16678	0.96685
3058.11298	0.96658
3056.05918	0.96699
3054.00537	0.96736
3051.95157	0.96746
3049.89777	0.96747
3047.84396	0.96748
3045.79016	0.96772
3043.73636	0.96812
3041.68255	0.96817
3039.62875	0.96783
3037.57495	0.96754
3035.52114	0.96773
3033.46734	0.96817
3031.41354	0.96821
3029.35973	0.96779
3027.30593	0.96722
3025.25213	0.96688
3023.19832	0.96704
3021.14452	0.96747
3019.09072	0.96759
3017.03691	0.96736
3014.98311	0.96710
3012.92931	0.96699
3010.87550	0.96703
3008.82170	0.96676
3006.76790	0.96611
3004.71409	0.96573
3002.66029	0.96566
3000.60649	0.96539
2998.55269	0.96502
2996.49888	0.96465
2994.44508	0.96392
2992.39128	0.96279
2990.33747	0.96170
2988.28367	0.96075
2986.22987	0.95960
2984.17606	0.95817
2982.12226	0.95638
2980.06846	0.95439
2978.01465	0.95239
2975.96085	0.94971
2973.90705	0.94594
2971.85324	0.94168
2969.79944	0.93724
2967.74564	0.93219
2965.69183	0.92610
2963.63803	0.91947
2961.58423	0.91333
2959.53042	0.90796
2957.47662	0.90343
2955.42282	0.89991
2953.36901	0.89693
2951.31521	0.89412
2949.26141	0.89067
2947.20761	0.88472
2945.15380	0.87495
2943.10000	0.86126
2941.04620	0.84363
2938.99239	0.82204
2936.93859	0.79648
2934.88479	0.76718
2932.83098	0.73443
2930.77718	0.69802
2928.72338	0.65764
2926.66957	0.61318
2924.61577	0.56415
2922.56197	0.51057
2920.50816	0.45543
2918.45436	0.40600
2916.40056	0.37405
2914.34675	0.37087
2912.29295	0.39707
2910.23915	0.44082
2908.18534	0.48841
2906.13154	0.53189
2904.07774	0.56793
2902.02393	0.59647
2899.97013	0.61997
2897.91633	0.64105
2895.86252	0.66116
2893.80872	0.68111
2891.75492	0.70144
2889.70112	0.72209
2887.64731	0.74269
2885.59351	0.76297
2883.53971	0.78236
2881.48590	0.79993
2879.43210	0.81505
2877.37830	0.82720
2875.32449	0.83597
2873.27069	0.84125
2871.21689	0.84363
2869.16308	0.84361
2867.10928	0.84004
2865.05548	0.83078
2863.00167	0.81404
2860.94787	0.78814
2858.89407	0.75098
2856.84026	0.70030
2854.78646	0.63440
2852.73266	0.55486
2850.67885	0.47540
2848.62505	0.42687
2846.57125	0.43623
2844.51744	0.49841
2842.46364	0.58373
2840.40984	0.66549
2838.35603	0.73173
2836.30223	0.78159
2834.24843	0.81835
2832.19463	0.84547
2830.14082	0.86599
2828.08702	0.88204
2826.03322	0.89476
2823.97941	0.90479
2821.92561	0.91252
2819.87181	0.91884
2817.81800	0.92446
2815.76420	0.92919
2813.71040	0.93308
2811.65659	0.93655
2809.60279	0.93969
2807.54899	0.94251
2805.49518	0.94496
2803.44138	0.94699
2801.38758	0.94877
2799.33377	0.95070
2797.27997	0.95262
2795.22617	0.95422
2793.17236	0.95566
2791.11856	0.95721
2789.06476	0.95905
2787.01095	0.96074
2784.95715	0.96191
2782.90335	0.96291
2780.84955	0.96382
2778.79574	0.96470
2776.74194	0.96573
2774.68814	0.96662
2772.63433	0.96730
2770.58053	0.96788
2768.52673	0.96845
2766.47292	0.96910
2764.41912	0.96982
2762.36532	0.97044
2760.31151	0.97073
2758.25771	0.97081
2756.20391	0.97106
2754.15010	0.97150
2752.09630	0.97188
2750.04250	0.97207
2747.98869	0.97199
2745.93489	0.97174
2743.88109	0.97172
2741.82728	0.97181
2739.77348	0.97183
2737.71968	0.97220
2735.66587	0.97257
2733.61207	0.97245
2731.55827	0.97223
2729.50446	0.97226
2727.45066	0.97265
2725.39686	0.97334
2723.34306	0.97395
2721.28925	0.97437
2719.23545	0.97483
2717.18165	0.97495
2715.12784	0.97461
2713.07404	0.97445
2711.02024	0.97449
2708.96643	0.97447
2706.91263	0.97472
2704.85883	0.97528
2702.80502	0.97578
2700.75122	0.97605
2698.69742	0.97615
2696.64361	0.97616
2694.58981	0.97614
2692.53601	0.97625
2690.48220	0.97639
2688.42840	0.97634
2686.37460	0.97609
2684.32079	0.97575
2682.26699	0.97558
2680.21319	0.97559
2678.15938	0.97566
2676.10558	0.97577
2674.05178	0.97590
2671.99797	0.97593
2669.94417	0.97573
2667.89037	0.97543
2665.83657	0.97536
2663.78276	0.97546
2661.72896	0.97555
2659.67516	0.97576
2657.62135	0.97613
2655.56755	0.97638
2653.51375	0.97649
2651.45994	0.97657
2649.40614	0.97649
2647.35234	0.97646
2645.29853	0.97672
2643.24473	0.97701
2641.19093	0.97709
2639.13712	0.97714
2637.08332	0.97719
2635.02952	0.97701
2632.97571	0.97661
2630.92191	0.97638
2628.86811	0.97689
2626.81430	0.97792
2624.76050	0.97863
2622.70670	0.97871
2620.65289	0.97862
2618.59909	0.97897
2616.54529	0.97943
2614.49149	0.97978
2612.43768	0.98019
2610.38388	0.98036
2608.33008	0.98038
2606.27627	0.98075
2604.22247	0.98120
2602.16867	0.98140
2600.11486	0.98134
2598.06106	0.98135
2596.00726	0.98170
2593.95345	0.98211
2591.89965	0.98246
2589.84585	0.98258
2587.79204	0.98247
2585.73824	0.98258
2583.68444	0.98285
2581.63063	0.98302
2579.57683	0.98315
2577.52303	0.98331
2575.46922	0.98305
2573.41542	0.98277
2571.36162	0.98343
2569.30781	0.98426
2567.25401	0.98433
2565.20021	0.98415
2563.14640	0.98442
2561.09260	0.98483
2559.03880	0.98463
2556.98500	0.98430
2554.93119	0.98484
2552.87739	0.98551
2550.82359	0.98572
2548.76978	0.98621
2546.71598	0.98660
2544.66218	0.98617
2542.60837	0.98561
2540.55457	0.98546
2538.50077	0.98575
2536.44696	0.98626
2534.39316	0.98629
2532.33936	0.98604
2530.28555	0.98615
2528.23175	0.98630
2526.17795	0.98622
2524.12414	0.98609
2522.07034	0.98592
2520.01654	0.98569
2517.96273	0.98572
2515.90893	0.98624
2513.85513	0.98701
2511.80132	0.98732
2509.74752	0.98686
2507.69372	0.98663
2505.63992	0.98741
2503.58611	0.98812
2501.53231	0.98763
2499.47851	0.98699
2497.42470	0.98728
2495.37090	0.98786
2493.31710	0.98794
2491.26329	0.98771
2489.20949	0.98779
2487.15569	0.98835
2485.10188	0.98852
2483.04808	0.98799
2480.99428	0.98771
2478.94047	0.98783
2476.88667	0.98789
2474.83287	0.98786
2472.77906	0.98791
2470.72526	0.98805
2468.67146	0.98786
2466.61765	0.98737
2464.56385	0.98711
2462.51005	0.98732
2460.45624	0.98795
2458.40244	0.98839
2456.34864	0.98833
2454.29483	0.98795
2452.24103	0.98732
2450.18723	0.98729
2448.13343	0.98834
2446.07962	0.98926
2444.02582	0.98926
2441.97202	0.98891
2439.91821	0.98881
2437.86441	0.98895
2435.81061	0.98892
2433.75680	0.98840
2431.70300	0.98787
2429.64920	0.98760
2427.59539	0.98742
2425.54159	0.98734
2423.48779	0.98754
2421.43398	0.98800
2419.38018	0.98811
2417.32638	0.98810
2415.27257	0.98859
2413.21877	0.98900
2411.16497	0.98888
2409.11116	0.98871
2407.05736	0.98907
2405.00356	0.98950
2402.94975	0.98941
2400.89595	0.98923
2398.84215	0.98907
2396.78834	0.98853
2394.73454	0.98803
2392.68074	0.98790
2390.62694	0.98790
2388.57313	0.98800
2386.51933	0.98830
2384.46553	0.98849
2382.41172	0.98847
2380.35792	0.98842
2378.30412	0.98808
2376.25031	0.98740
2374.19651	0.98683
2372.14271	0.98666
2370.08890	0.98664
2368.03510	0.98663
2365.98130	0.98755
2363.92749	0.98937
2361.87369	0.99037
2359.81989	0.98985
2357.76608	0.98820
2355.71228	0.98648
2353.65848	0.98616
2351.60467	0.98649
2349.55087	0.98642
2347.49707	0.98610
2345.44326	0.98555
2343.38946	0.98472
2341.33566	0.98387
2339.28186	0.98347
2337.22805	0.98369
2335.17425	0.98404
2333.12045	0.98466
2331.06664	0.98569
2329.01284	0.98653
2326.95904	0.98637
2324.90523	0.98563
2322.85143	0.98576
2320.79763	0.98655
2318.74382	0.98675
2316.69002	0.98623
2314.63622	0.98584
2312.58241	0.98644
2310.52861	0.98729
2308.47481	0.98734
2306.42100	0.98699
2304.36720	0.98674
2302.31340	0.98675
2300.25959	0.98728
2298.20579	0.98786
2296.15199	0.98765
2294.09818	0.98693
2292.04438	0.98652
2289.99058	0.98665
2287.93677	0.98660
2285.88297	0.98626
2283.82917	0.98644
2281.77537	0.98721
2279.72156	0.98768
2277.66776	0.98714
2275.61396	0.98615
2273.56015	0.98636
2271.50635	0.98808
2269.45255	0.98901
2267.39874	0.98855
2265.34494	0.98849
2263.29114	0.98904
2261.23733	0.98924
2259.18353	0.98873
2257.12973	0.98809
2255.07592	0.98872
2253.02212	0.98958
2250.96832	0.98847
2248.91451	0.98711
2246.86071	0.98734
2244.80691	0.98826
2242.75310	0.98919
2240.69930	0.98935
2238.64550	0.98842
2236.59169	0.98792
2234.53789	0.98837
2232.48409	0.98810
2230.43029	0.98696
2228.37648	0.98659
2226.32268	0.98752
2224.26888	0.98913
2222.21507	0.99052
2220.16127	0.99117
2218.10747	0.99139
2216.05366	0.99209
2213.99986	0.99245
2211.94606	0.99116
2209.89225	0.99031
2207.83845	0.99087
2205.78465	0.99114
2203.73084	0.99068
2201.67704	0.98961
2199.62324	0.98833
2197.56943	0.98752
2195.51563	0.98721
2193.46183	0.98822
2191.40802	0.99035
2189.35422	0.99015
2187.30042	0.98795
2185.24661	0.98688
2183.19281	0.98685
2181.13901	0.98774
2179.08520	0.98822
2177.03140	0.98824
2174.97760	0.98960
2172.92380	0.98998
2170.86999	0.98897
2168.81619	0.98831
2166.76239	0.98682
2164.70858	0.98547
2162.65478	0.98728
2160.60098	0.99254
2158.54717	0.99728
2156.49337	0.99726
2154.43957	0.99472
2152.38576	0.99268
2150.33196	0.99139
2148.27816	0.99044
2146.22435	0.99022
2144.17055	0.99039
2142.11675	0.99061
2140.06294	0.99167
2138.00914	0.99263
2135.95534	0.99344
2133.90153	0.99476
2131.84773	0.99396
2129.79393	0.99111
2127.74012	0.99007
2125.68632	0.99095
2123.63252	0.99124
2121.57871	0.99061
2119.52491	0.99030
2117.47111	0.99103
2115.41731	0.99235
2113.36350	0.99281
2111.30970	0.99097
2109.25590	0.98823
2107.20209	0.98769
2105.14829	0.98915
2103.09449	0.99063
2101.04068	0.99108
2098.98688	0.99005
2096.93308	0.98932
2094.87927	0.99010
2092.82547	0.99023
2090.77167	0.98889
2088.71786	0.98774
2086.66406	0.98828
2084.61026	0.99032
2082.55645	0.99141
2080.50265	0.99050
2078.44885	0.98891
2076.39504	0.98725
2074.34124	0.98651
2072.28744	0.98762
2070.23363	0.98995
2068.17983	0.99159
2066.12603	0.99093
2064.07223	0.98937
2062.01842	0.98875
2059.96462	0.98900
2057.91082	0.99016
2055.85701	0.99161
2053.80321	0.99231
2051.74941	0.99247
2049.69560	0.99277
2047.64180	0.99330
2045.58800	0.99235
2043.53419	0.99005
2041.48039	0.98977
2039.42659	0.99268
2037.37278	0.99582
2035.31898	0.99703
2033.26518	0.99731
2031.21137	0.99495
2029.15757	0.99026
2027.10377	0.98838
2025.04996	0.98879
2022.99616	0.98867
2020.94236	0.98878
2018.88855	0.99039
2016.83475	0.99187
2014.78095	0.99142
2012.72714	0.98979
2010.67334	0.98776
2008.61954	0.98857
2006.56574	0.99368
2004.51193	0.99702
2002.45813	0.99526
2000.40433	0.99273
1998.35052	0.99222
1996.29672	0.99220
1994.24292	0.99226
1992.18911	0.99239
1990.13531	0.99233
1988.08151	0.99302
1986.02770	0.99432
1983.97390	0.99515
1981.92010	0.99433
1979.86629	0.99126
1977.81249	0.98853
1975.75869	0.98877
1973.70488	0.98996
1971.65108	0.99040
1969.59728	0.99223
1967.54347	0.99540
1965.48967	0.99553
1963.43587	0.99289
1961.38206	0.99118
1959.32826	0.99142
1957.27446	0.99183
1955.22066	0.99074
1953.16685	0.98949
1951.11305	0.98954
1949.05925	0.99081
1947.00544	0.99205
1944.95164	0.99162
1942.89784	0.98990
1940.84403	0.98883
1938.79023	0.98905
1936.73643	0.98973
1934.68262	0.99017
1932.62882	0.98986
1930.57502	0.98946
1928.52121	0.99036
1926.46741	0.99208
1924.41361	0.99301
1922.35980	0.99302
1920.30600	0.99231
1918.25220	0.99100
1916.19839	0.99015
1914.14459	0.98996
1912.09079	0.98988
1910.03698	0.98986
1907.98318	0.98947
1905.92938	0.98889
1903.87557	0.98855
1901.82177	0.98831
1899.76797	0.98852
1897.71417	0.98897
1895.66036	0.98924
1893.60656	0.98963
1891.55276	0.98996
1889.49895	0.99003
1887.44515	0.98953
1885.39135	0.98874
1883.33754	0.98860
1881.28374	0.98936
1879.22994	0.99022
1877.17613	0.99018
1875.12233	0.98959
1873.06853	0.98974
1871.01472	0.99012
1868.96092	0.98959
1866.90712	0.98937
1864.85331	0.99002
1862.79951	0.99051
1860.74571	0.99037
1858.69190	0.98975
1856.63810	0.98910
1854.58430	0.98873
1852.53049	0.98893
1850.47669	0.98954
1848.42289	0.98987
1846.36908	0.98973
1844.31528	0.98935
1842.26148	0.98909
1840.20768	0.98922
1838.15387	0.98913
1836.10007	0.98892
1834.04627	0.98917
1831.99246	0.98930
1829.93866	0.98915
1827.88486	0.98925
1825.83105	0.98937
1823.77725	0.98909
1821.72345	0.98846
1819.66964	0.98808
1817.61584	0.98814
1815.56204	0.98811
1813.50823	0.98829
1811.45443	0.98862
1809.40063	0.98835
1807.34682	0.98789
1805.29302	0.98759
1803.23922	0.98767
1801.18541	0.98806
1799.13161	0.98789
1797.07781	0.98719
1795.02400	0.98649
1792.97020	0.98609
1790.91640	0.98605
1788.86260	0.98595
1786.80879	0.98601
1784.75499	0.98632
1782.70119	0.98629
1780.64738	0.98593
1778.59358	0.98565
1776.53978	0.98540
1774.48597	0.98498
1772.43217	0.98482
1770.37837	0.98512
1768.32456	0.98501
1766.27076	0.98439
1764.21696	0.98365
1762.16315	0.98310
1760.10935	0.98283
1758.05555	0.98251
1756.00174	0.98166
1753.94794	0.98027
1751.89414	0.97863
1749.84033	0.97666
1747.78653	0.97462
1745.73273	0.97286
1743.67892	0.97116
1741.62512	0.96988
1739.57132	0.96944
1737.51751	0.96942
1735.46371	0.96969
1733.40991	0.97050
1731.35611	0.97117
1729.30230	0.97130
1727.24850	0.97092
1725.19470	0.97032
1723.14089	0.96987
1721.08709	0.96962
1719.03329	0.96939
1716.97948	0.96889
1714.92568	0.96835
1712.87188	0.96828
1710.81807	0.96832
1708.76427	0.96830
1706.71047	0.96803
1704.65666	0.96708
1702.60286	0.96556
1700.54906	0.96377
1698.49525	0.96258
1696.44145	0.96148
1694.38765	0.95993
1692.33384	0.95859
1690.28004	0.95726
1688.22624	0.95580
1686.17243	0.95394
1684.11863	0.95125
1682.06483	0.94964
1680.01103	0.94867
1677.95722	0.94722
1675.90342	0.94576
1673.84962	0.94458
1671.79581	0.94345
1669.74201	0.94189
1667.68821	0.94036
1665.63440	0.93922
1663.58060	0.93753
1661.52680	0.93543
1659.47299	0.93401
1657.41919	0.93296
1655.36539	0.93180
1653.31158	0.93087
1651.25778	0.93045
1649.20398	0.92984
1647.15017	0.92932
1645.09637	0.92930
1643.04257	0.92926
1640.98876	0.92911
1638.93496	0.92919
1636.88116	0.92986
1634.82735	0.93101
1632.77355	0.93187
1630.71975	0.93267
1628.66594	0.93329
1626.61214	0.93350
1624.55834	0.93380
1622.50454	0.93456
1620.45073	0.93552
1618.39693	0.93692
1616.34313	0.93940
1614.28932	0.94168
1612.23552	0.94301
1610.18172	0.94424
1608.12791	0.94557
1606.07411	0.94661
1604.02031	0.94749
1601.96650	0.94844
1599.91270	0.94926
1597.85890	0.94995
1595.80509	0.95055
1593.75129	0.95073
1591.69749	0.95078
1589.64368	0.95133
1587.58988	0.95200
1585.53608	0.95229
1583.48227	0.95248
1581.42847	0.95275
1579.37467	0.95286
1577.32086	0.95300
1575.26706	0.95368
1573.21326	0.95413
1571.15945	0.95421
1569.10565	0.95474
1567.05185	0.95548
1564.99805	0.95585
1562.94424	0.95613
1560.89044	0.95666
1558.83664	0.95672
1556.78283	0.95533
1554.72903	0.95479
1552.67523	0.95503
1550.62142	0.95539
1548.56762	0.95551
1546.51382	0.95533
1544.46001	0.95490
1542.40621	0.95436
1540.35241	0.95417
1538.29860	0.95473
1536.24480	0.95532
1534.19100	0.95594
1532.13719	0.95633
1530.08339	0.95637
1528.02959	0.95680
1525.97578	0.95760
1523.92198	0.95802
1521.86818	0.95806
1519.81437	0.95803
1517.76057	0.95835
1515.70677	0.95912
1513.65297	0.95958
1511.59916	0.95965
1509.54536	0.95926
1507.49156	0.95839
1505.43775	0.95857
1503.38395	0.95926
1501.33015	0.95950
1499.27634	0.95908
1497.22254	0.95798
1495.16874	0.95681
1493.11493	0.95597
1491.06113	0.95485
1489.00733	0.95295
1486.95352	0.95055
1484.89972	0.94775
1482.84592	0.94394
1480.79211	0.93807
1478.73831	0.92699
1476.68451	0.90003
1474.63070	0.84735
1472.57690	0.79142
1470.52310	0.77354
1468.46929	0.77293
1466.41549	0.76422
1464.36169	0.74810
1462.30788	0.74800
1460.25408	0.76988
1458.20028	0.80335
1456.14648	0.83383
1454.09267	0.85032
1452.03887	0.86210
1449.98507	0.87186
1447.93126	0.87908
1445.87746	0.88413
1443.82366	0.88767
1441.76985	0.89075
1439.71605	0.89361
1437.66225	0.89677
1435.60844	0.90057
1433.55464	0.90414
1431.50084	0.90811
1429.44703	0.91256
1427.39323	0.91605
1425.33943	0.91891
1423.28562	0.92158
1421.23182	0.92346
1419.17802	0.92517
1417.12421	0.92687
1415.07041	0.92825
1413.01661	0.92980
1410.96280	0.93175
1408.90900	0.93386
1406.85520	0.93595
1404.80139	0.93799
1402.74759	0.93953
1400.69379	0.94071
1398.63999	0.94192
1396.58618	0.94320
1394.53238	0.94440
1392.47858	0.94505
1390.42477	0.94517
1388.37097	0.94526
1386.31717	0.94485
1384.26336	0.94298
1382.20956	0.93911
1380.15576	0.93356
1378.10195	0.92898
1376.04815	0.92809
1373.99435	0.93001
1371.94054	0.93143
1369.88674	0.93163
1367.83294	0.93187
1365.77913	0.93309
1363.72533	0.93574
1361.67153	0.93915
1359.61772	0.94140
1357.56392	0.94224
1355.51012	0.94252
1353.45631	0.94295
1351.40251	0.94388
1349.34871	0.94535
1347.29491	0.94708
1345.24110	0.94849
1343.18730	0.94959
1341.13350	0.95079
1339.07969	0.95215
1337.02589	0.95324
1334.97209	0.95397
1332.91828	0.95446
1330.86448	0.95467
1328.81068	0.95449
1326.75687	0.95387
1324.70307	0.95320
1322.64927	0.95270
1320.59546	0.95243
1318.54166	0.95231
1316.48786	0.95192
1314.43405	0.95117
1312.38025	0.95041
1310.32645	0.94993
1308.27264	0.94975
1306.21884	0.94978
1304.16504	0.94996
1302.11123	0.95009
1300.05743	0.95011
1298.00363	0.95031
1295.94982	0.95083
1293.89602	0.95133
1291.84222	0.95160
1289.78842	0.95191
1287.73461	0.95221
1285.68081	0.95243
1283.62701	0.95259
1281.57320	0.95263
1279.51940	0.95255
1277.46560	0.95239
1275.41179	0.95227
1273.35799	0.95216
1271.30419	0.95177
1269.25038	0.95092
1267.19658	0.94982
1265.14278	0.94879
1263.08897	0.94809
1261.03517	0.94778
1258.98137	0.94762
1256.92756	0.94739
1254.87376	0.94708
1252.81996	0.94669
1250.76615	0.94622
1248.71235	0.94544
1246.65855	0.94435
1244.60474	0.94341
1242.55094	0.94274
1240.49714	0.94221
1238.44334	0.94183
1236.38953	0.94176
1234.33573	0.94209
1232.28193	0.94254
1230.22812	0.94296
1228.17432	0.94331
1226.12052	0.94333
1224.06671	0.94305
1222.01291	0.94258
1219.95911	0.94191
1217.90530	0.94127
1215.85150	0.94072
1213.79770	0.94000
1211.74389	0.93912
1209.69009	0.93816
1207.63629	0.93696
1205.58248	0.93566
1203.52868	0.93466
1201.47488	0.93374
1199.42107	0.93251
1197.36727	0.93118
1195.31347	0.92953
1193.25966	0.92750
1191.20586	0.92564
1189.15206	0.92378
1187.09825	0.92158
1185.04445	0.91911
1182.99065	0.91624
1180.93685	0.91298
1178.88304	0.90944
1176.82924	0.90564
1174.77544	0.90178
1172.72163	0.89815
1170.66783	0.89463
1168.61403	0.89129
1166.56022	0.88828
1164.50642	0.88546
1162.45262	0.88285
1160.39881	0.88066
1158.34501	0.87868
1156.29121	0.87638
1154.23740	0.87372
1152.18360	0.87126
1150.12980	0.86916
1148.07599	0.86716
1146.02219	0.86493
1143.96839	0.86238
1141.91458	0.85970
1139.86078	0.85744
1137.80698	0.85570
1135.75317	0.85368
1133.69937	0.85081
1131.64557	0.84710
1129.59176	0.84250
1127.53796	0.83702
1125.48416	0.83074
1123.43036	0.82353
1121.37655	0.81567
1119.32275	0.80761
1117.26895	0.79970
1115.21514	0.79232
1113.16134	0.78544
1111.10754	0.77886
1109.05373	0.77256
1106.99993	0.76681
1104.94613	0.76235
1102.89232	0.75944
1100.83852	0.75737
1098.78472	0.75591
1096.73091	0.75510
1094.67711	0.75446
1092.62331	0.75374
1090.56950	0.75314
1088.51570	0.75277
1086.46190	0.75241
1084.40809	0.75187
1082.35429	0.75118
1080.30049	0.75026
1078.24668	0.74893
1076.19288	0.74711
1074.13908	0.74500
1072.08528	0.74289
1070.03147	0.74047
1067.97767	0.73707
1065.92387	0.73280
1063.87006	0.72847
1061.81626	0.72425
1059.76246	0.71952
1057.70865	0.71412
1055.65485	0.70831
1053.60105	0.70175
1051.54724	0.69436
1049.49344	0.68674
1047.43964	0.67904
1045.38583	0.67125
1043.33203	0.66380
1041.27823	0.65709
1039.22442	0.65120
1037.17062	0.64611
1035.11682	0.64211
1033.06301	0.64009
1031.00921	0.64050
1028.95541	0.64263
1026.90160	0.64606
1024.84780	0.65071
1022.79400	0.65546
1020.74019	0.65927
1018.68639	0.66220
1016.63259	0.66448
1014.57879	0.66632
1012.52498	0.66805
1010.47118	0.67025
1008.41738	0.67357
1006.36357	0.67866
1004.30977	0.68566
1002.25597	0.69445
1000.20216	0.70494
998.14836	0.71667
996.09456	0.72904
994.04075	0.74173
991.98695	0.75442
989.93315	0.76666
987.87934	0.77835
985.82554	0.78946
983.77174	0.79970
981.71793	0.80910
979.66413	0.81815
977.61033	0.82699
975.55652	0.83519
973.50272	0.84266
971.44892	0.84969
969.39511	0.85594
967.34131	0.86084
965.28751	0.86489
963.23371	0.86889
961.17990	0.87298
959.12610	0.87704
957.07230	0.88058
955.01849	0.88329
952.96469	0.88537
950.91089	0.88675
948.85708	0.88754
946.80328	0.88845
944.74948	0.88950
942.69567	0.89030
940.64187	0.89076
938.58807	0.89086
936.53426	0.89110
934.48046	0.89181
932.42666	0.89239
930.37285	0.89267
928.31905	0.89287
926.26525	0.89242
924.21144	0.89098
922.15764	0.88913
920.10384	0.88721
918.05003	0.88518
915.99623	0.88337
913.94243	0.88271
911.88862	0.88400
909.83482	0.88681
907.78102	0.89045
905.72722	0.89538
903.67341	0.90116
901.61961	0.90585
899.56581	0.90916
897.51200	0.91235
895.45820	0.91545
893.40440	0.91772
891.35059	0.91927
889.29679	0.92024
887.24299	0.92025
885.18918	0.91912
883.13538	0.91750
881.08158	0.91554
879.02777	0.91246
876.97397	0.90900
874.92017	0.90811
872.86636	0.91200
870.81256	0.91895
868.75876	0.92501
866.70495	0.92838
864.65115	0.93025
862.59735	0.93198
860.54354	0.93356
858.48974	0.93466
856.43594	0.93544
854.38213	0.93601
852.32833	0.93640
850.27453	0.93671
848.22073	0.93677
846.16692	0.93668
844.11312	0.93691
842.05932	0.93712
840.00551	0.93686
837.95171	0.93639
835.89791	0.93538
833.84410	0.93369
831.79030	0.93245
829.73650	0.93193
827.68269	0.93154
825.62889	0.93097
823.57509	0.93023
821.52128	0.92988
819.46748	0.93002
817.41368	0.92987
815.35987	0.92915
813.30607	0.92798
811.25227	0.92639
809.19846	0.92511
807.14466	0.92436
805.09086	0.92302
803.03705	0.92058
800.98325	0.91787
798.92945	0.91555
796.87565	0.91407
794.82184	0.91355
792.76804	0.91339
790.71424	0.91308
788.66043	0.91262
786.60663	0.91214
784.55283	0.91140
782.49902	0.91022
780.44522	0.90921
778.39142	0.90854
776.33761	0.90769
774.28381	0.90695
772.23001	0.90621
770.17620	0.90495
768.12240	0.90340
766.06860	0.90122
764.01479	0.89802
761.96099	0.89511
759.90719	0.89364
757.85338	0.89214
755.79958	0.88957
753.74578	0.88689
751.69197	0.88463
749.63817	0.88247
747.58437	0.88015
745.53056	0.87767
743.47676	0.87542
741.42296	0.87363
739.36916	0.87114
737.31535	0.86590
735.26155	0.85314
733.20775	0.82394
731.15394	0.78473
729.10014	0.76435
727.04634	0.76893
724.99253	0.77016
722.93873	0.74637
720.88493	0.70300
718.83112	0.67489
716.77732	0.68897
714.72352	0.72977
712.66971	0.76922
710.61591	0.79515
708.56211	0.80897
706.50830	0.81477
704.45450	0.81654
702.40070	0.81752
700.34689	0.81820
698.29309	0.81817
696.23929	0.81785
694.18548	0.81786
692.13168	0.81795
690.07788	0.81761
688.02408	0.81753
685.97027	0.81832
683.91647	0.81884
681.86267	0.81868
679.80886	0.81881
677.75506	0.81942
675.70126	0.81964
673.64745	0.81892
671.59365	0.81821
669.53985	0.81885
667.48604	0.82139
665.43224	0.82374
663.37844	0.82518
661.32463	0.82633
659.27083	0.82687
657.21703	0.82718
655.16322	0.82833
653.10942	0.82939
651.05562	0.82979
649.00181	0.82945
646.94801	0.82825
644.89421	0.82801
642.84040	0.82887
640.78660	0.82957
638.73280	0.83076
636.67899	0.83243
634.62519	0.83313
632.57139	0.83265
630.51759	0.83185
628.46378	0.83092
626.40998	0.82965
624.35618	0.82889
622.30237	0.82874
620.24857	0.82787
618.19477	0.82699
616.14096	0.82671
614.08716	0.82607
612.03336	0.82487
609.97955	0.82241
607.92575	0.81920
605.87195	0.81771
603.81814	0.81786
601.76434	0.81760
599.71054	0.81615
597.65673	0.81440
595.60293	0.81343
593.54913	0.81293
591.49532	0.81299
589.44152	0.81301
587.38772	0.81142
585.33391	0.81018
583.28011	0.81064
581.22631	0.81008
579.17250	0.80792
577.11870	0.80534
575.06490	0.80261
573.01110	0.80142
570.95729	0.80155
568.90349	0.80069
566.84969	0.79914
564.79588	0.79770
562.74208	0.79594
560.68828	0.79355
558.63447	0.79051
556.58067	0.78770
554.52687	0.78513
552.47306	0.78153
550.41926	0.77772
548.36546	0.77484
546.31165	0.77142
544.25785	0.76747
542.20405	0.76477
540.15024	0.76285
538.09644	0.75961
536.04264	0.75510
533.98883	0.75165
531.93503	0.75041
529.88123	0.75215
527.82742	0.75627
525.77362	0.76015
523.71982	0.76316
521.66602	0.76704
519.61221	0.77240
517.55841	0.77742
515.50461	0.78099
513.45080	0.78414
511.39700	0.78709
509.34320	0.79059
507.28939	0.79589
505.23559	0.80048
503.18179	0.80204
501.12798	0.80161
499.07418	0.80082
497.02038	0.80102
494.96657	0.80177
492.91277	0.80117
490.85897	0.79909
488.80516	0.79666
486.75136	0.79362
484.69756	0.78871
482.64375	0.78168
480.58995	0.77408
478.53615	0.76583
476.48234	0.75667
474.42854	0.74872
472.37474	0.74239
470.32093	0.73553
468.26713	0.72869
466.21333	0.72607
464.15953	0.72995
462.10572	0.73905
460.05192	0.75044
457.99812	0.76114
455.94431	0.76894
453.89051	0.77259
451.83671	0.77281
449.78290	0.77341
447.72910	0.77632
445.67530	0.77822
443.62149	0.77640
441.56769	0.77321
439.51389	0.77280
437.46008	0.77231
435.40628	0.76651
433.35248	0.75917
431.29867	0.75668
429.24487	0.75818
427.19107	0.76216
425.13726	0.76830
423.08346	0.77550
421.02966	0.78723
418.97585	0.79877
416.92205	0.79634
414.86825	0.79389
412.81445	0.80029
410.76064	0.81010
408.70684	0.81704
406.65304	0.82190
404.59923	0.82588
402.54543	0.82808
400.49163	0.83195
398.43782	0.84061
