3996.70104	0.99531
3994.64724	0.99526
3992.59344	0.99529
3990.53964	0.99513
3988.48583	0.99517
3986.43203	0.99554
3984.37823	0.99596
3982.32442	0.99628
3980.27062	0.99600
3978.21682	0.99514
3976.16301	0.99467
3974.10921	0.99502
3972.05541	0.99541
3970.00160	0.99524
3967.94780	0.99515
3965.89400	0.99537
3963.84019	0.99549
3961.78639	0.99530
3959.73259	0.99494
3957.67878	0.99473
3955.62498	0.99484
3953.57118	0.99509
3951.51737	0.99539
3949.46357	0.99573
3947.40977	0.99588
3945.35596	0.99603
3943.30216	0.99601
3941.24836	0.99529
3939.19455	0.99458
3937.14075	0.99446
3935.08695	0.99460
3933.03315	0.99481
3930.97934	0.99534
3928.92554	0.99608
3926.87174	0.99639
3924.81793	0.99619
3922.76413	0.99596
3920.71033	0.99552
3918.65652	0.99521
3916.60272	0.99577
3914.54892	0.99606
3912.49511	0.99555
3910.44131	0.99515
3908.38751	0.99530
3906.33370	0.99583
3904.27990	0.99628
3902.22610	0.99617
3900.17229	0.99597
3898.11849	0.99578
3896.06469	0.99540
3894.01088	0.99524
3891.95708	0.99524
3889.90328	0.99499
3887.84947	0.99506
3885.79567	0.99593
3883.74187	0.99638
3881.68807	0.99576
3879.63426	0.99530
3877.58046	0.99546
3875.52666	0.99554
3873.47285	0.99512
3871.41905	0.99444
3869.36525	0.99475
3867.31144	0.99537
3865.25764	0.99514
3863.20384	0.99485
3861.15003	0.99496
3859.09623	0.99486
3857.04243	0.99454
3854.98862	0.99469
3852.93482	0.99544
3850.88102	0.99533
3848.82721	0.99501
3846.77341	0.99528
3844.71961	0.99557
3842.66580	0.99516
3840.61200	0.99449
3838.55820	0.99436
3836.50439	0.99449
3834.45059	0.99459
3832.39679	0.99503
3830.34298	0.99543
3828.28918	0.99550
3826.23538	0.99559
3824.18158	0.99589
3822.12777	0.99582
3820.07397	0.99528
3818.02017	0.99527
3815.96636	0.99576
3813.91256	0.99603
3811.85876	0.99577
3809.80495	0.99534
3807.75115	0.99500
3805.69735	0.99466
3803.64354	0.99434
3801.58974	0.99488
3799.53594	0.99629
3797.48213	0.99678
3795.42833	0.99634
3793.37453	0.99554
3791.32072	0.99498
3789.26692	0.99513
3787.21312	0.99560
3785.15931	0.99598
3783.10551	0.99591
3781.05171	0.99522
3778.99790	0.99453
3776.94410	0.99447
3774.89030	0.99466
3772.83650	0.99465
3770.78269	0.99469
3768.72889	0.99498
3766.67509	0.99552
3764.62128	0.99603
3762.56748	0.99590
3760.51368	0.99526
3758.45987	0.99532
3756.40607	0.99616
3754.35227	0.99644
3752.29846	0.99628
3750.24466	0.99663
3748.19086	0.99715
3746.13705	0.99730
3744.08325	0.99673
3742.02945	0.99641
3739.97564	0.99700
3737.92184	0.99733
3735.86804	0.99645
3733.81423	0.99582
3731.76043	0.99641
3729.70663	0.99632
3727.65282	0.99552
3725.59902	0.99506
3723.54522	0.99461
3721.49141	0.99430
3719.43761	0.99496
3717.38381	0.99557
3715.33001	0.99524
3713.27620	0.99463
3711.22240	0.99464
3709.16860	0.99499
3707.11479	0.99517
3705.06099	0.99528
3703.00719	0.99494
3700.95338	0.99438
3698.89958	0.99432
3696.84578	0.99448
3694.79197	0.99480
3692.73817	0.99519
3690.68437	0.99507
3688.63056	0.99485
3686.57676	0.99543
3684.52296	0.99590
3682.46915	0.99595
3680.41535	0.99604
3678.36155	0.99597
3676.30774	0.99556
3674.25394	0.99511
3672.20014	0.99493
3670.14633	0.99479
3668.09253	0.99472
3666.03873	0.99493
3663.98492	0.99498
3661.93112	0.99514
3659.87732	0.99564
3657.82352	0.99576
3655.76971	0.99546
3653.71591	0.99529
3651.66211	0.99495
3649.60830	0.99414
3647.55450	0.99417
3645.50070	0.99482
3643.44689	0.99453
3641.39309	0.99369
3639.33929	0.99355
3637.28548	0.99409
3635.23168	0.99435
3633.17788	0.99433
3631.12407	0.99410
3629.07027	0.99325
3627.01647	0.99259
3624.96266	0.99289
3622.90886	0.99332
3620.85506	0.99327
3618.80125	0.99308
3616.74745	0.99355
3614.69365	0.99445
3612.63984	0.99502
3610.58604	0.99506
3608.53224	0.99501
3606.47844	0.99488
3604.42463	0.99436
3602.37083	0.99387
3600.31703	0.99393
3598.26322	0.99408
3596.20942	0.99401
3594.15562	0.99420
3592.10181	0.99456
3590.04801	0.99471
3587.99421	0.99485
3585.94040	0.99507
3583.88660	0.99520
3581.83280	0.99475
3579.77899	0.99392
3577.72519	0.99353
3575.67139	0.99381
3573.61758	0.99474
3571.56378	0.99536
3569.50998	0.99529
3567.45617	0.99519
3565.40237	0.99468
3563.34857	0.99378
3561.29476	0.99334
3559.24096	0.99377
3557.18716	0.99443
3555.13335	0.99450
3553.07955	0.99449
3551.02575	0.99484
3548.97195	0.99515
3546.91814	0.99511
3544.86434	0.99471
3542.81054	0.99420
3540.75673	0.99366
3538.70293	0.99341
3536.64913	0.99379
3534.59532	0.99446
3532.54152	0.99477
3530.48772	0.99461
3528.43391	0.99429
3526.38011	0.99432
3524.32631	0.99493
3522.27250	0.99501
3520.21870	0.99444
3518.16490	0.99417
3516.11109	0.99393
3514.05729	0.99348
3512.00349	0.99326
3509.94968	0.99338
3507.89588	0.99368
3505.84208	0.99393
3503.78827	0.99398
3501.73447	0.99411
3499.68067	0.99438
3497.62687	0.99459
3495.57306	0.99467
3493.51926	0.99459
3491.46546	0.99446
3489.41165	0.99436
3487.35785	0.99424
3485.30405	0.99389
3483.25024	0.99353
3481.19644	0.99368
3479.14264	0.99434
3477.08883	0.99501
3475.03503	0.99520
3472.98123	0.99494
3470.92742	0.99468
3468.87362	0.99451
3466.81982	0.99449
3464.76601	0.99451
3462.71221	0.99424
3460.65841	0.99394
3458.60460	0.99394
3456.55080	0.99409
3454.49700	0.99413
3452.44319	0.99402
3450.38939	0.99415
3448.33559	0.99426
3446.28178	0.99397
3444.22798	0.99391
3442.17418	0.99415
3440.12038	0.99442
3438.06657	0.99461
3436.01277	0.99440
3433.95897	0.99393
3431.90516	0.99353
3429.85136	0.99349
3427.79756	0.99377
3425.74375	0.99381
3423.68995	0.99349
3421.63615	0.99333
3419.58234	0.99353
3417.52854	0.99361
3415.47474	0.99353
3413.42093	0.99355
3411.36713	0.99361
3409.31333	0.99346
3407.25952	0.99292
3405.20572	0.99257
3403.15192	0.99278
3401.09811	0.99307
3399.04431	0.99354
3396.99051	0.99401
3394.93670	0.99373
3392.88290	0.99318
3390.82910	0.99325
3388.77529	0.99375
3386.72149	0.99407
3384.66769	0.99411
3382.61389	0.99399
3380.56008	0.99366
3378.50628	0.99307
3376.45248	0.99269
3374.39867	0.99296
3372.34487	0.99326
3370.29107	0.99294
3368.23726	0.99261
3366.18346	0.99297
3364.12966	0.99358
3362.07585	0.99394
3360.02205	0.99388
3357.96825	0.99341
3355.91444	0.99303
3353.86064	0.99312
3351.80684	0.99314
3349.75303	0.99282
3347.69923	0.99277
3345.64543	0.99321
3343.59162	0.99353
3341.53782	0.99328
3339.48402	0.99298
3337.43021	0.99291
3335.37641	0.99265
3333.32261	0.99235
3331.26881	0.99228
3329.21500	0.99223
3327.16120	0.99203
3325.10740	0.99169
3323.05359	0.99172
3320.99979	0.99214
3318.94599	0.99215
3316.89218	0.99213
3314.83838	0.99251
3312.78458	0.99256
3310.73077	0.99232
3308.67697	0.99221
3306.62317	0.99204
3304.56936	0.99189
3302.51556	0.99203
3300.46176	0.99219
3298.40795	0.99229
3296.35415	0.99251
3294.30035	0.99248
3292.24654	0.99211
3290.19274	0.99169
3288.13894	0.99156
3286.08513	0.99186
3284.03133	0.99207
3281.97753	0.99210
3279.92372	0.99238
3277.86992	0.99239
3275.81612	0.99201
3273.76232	0.99198
3271.70851	0.99220
3269.65471	0.99235
3267.60091	0.99254
3265.54710	0.99273
3263.49330	0.99268
3261.43950	0.99211
3259.38569	0.99165
3257.33189	0.99244
3255.27809	0.99363
3253.22428	0.99360
3251.17048	0.99286
3249.11668	0.99262
3247.06287	0.99284
3245.00907	0.99272
3242.95527	0.99218
3240.90146	0.99202
3238.84766	0.99260
3236.79386	0.99301
3234.74005	0.99278
3232.68625	0.99281
3230.63245	0.99305
3228.57864	0.99272
3226.52484	0.99249
3224.47104	0.99270
3222.41724	0.99265
3220.36343	0.99266
3218.30963	0.99310
3216.25583	0.99349
3214.20202	0.99361
3212.14822	0.99349
3210.09442	0.99309
3208.04061	0.99257
3205.98681	0.99242
3203.93301	0.99265
3201.87920	0.99292
3199.82540	0.99320
3197.77160	0.99366
3195.71779	0.99397
3193.66399	0.99387
3191.61019	0.99363
3189.55638	0.99331
3187.50258	0.99288
3185.44878	0.99278
3183.39497	0.99326
3181.34117	0.99376
3179.28737	0.99378
3177.23356	0.99375
3175.17976	0.99401
3173.12596	0.99396
3171.07215	0.99347
3169.01835	0.99326
3166.96455	0.99333
3164.91075	0.99344
3162.85694	0.99372
3160.80314	0.99375
3158.74934	0.99355
3156.69553	0.99372
3154.64173	0.99389
3152.58793	0.99360
3150.53412	0.99341
3148.48032	0.99346
3146.42652	0.99324
3144.37271	0.99302
3142.31891	0.99311
3140.26511	0.99336
3138.21130	0.99363
3136.15750	0.99360
3134.10370	0.99323
3132.04989	0.99275
3129.99609	0.99271
3127.94229	0.99339
3125.88848	0.99399
3123.83468	0.99404
3121.78088	0.99426
3119.72707	0.99502
3117.67327	0.99555
3115.61947	0.99531
3113.56566	0.99463
3111.51186	0.99409
3109.45806	0.99393
3107.40426	0.99400
3105.35045	0.99405
3103.29665	0.99416
3101.24285	0.99441
3099.18904	0.99473
3097.13524	0.99496
3095.08144	0.99492
3093.02763	0.99465
3090.97383	0.99424
3088.92003	0.99366
3086.86622	0.99328
3084.81242	0.99344
3082.75862	0.99406
3080.70481	0.99481
3078.65101	0.99489
3076.59721	0.99438
3074.54340	0.99427
3072.48960	0.99440
3070.43580	0.99435
3068.38199	0.99432
3066.32819	0.99406
3064.27439	0.99358
3062.22058	0.99356
3060.16678	0.99416
3058.11298	0.99479
3056.05918	0.99486
3054.00537	0.99455
3051.95157	0.99454
3049.89777	0.99490
3047.84396	0.99526
3045.79016	0.99525
3043.73636	0.99486
3041.68255	0.99461
3039.62875	0.99465
3037.57495	0.99451
3035.52114	0.99437
3033.46734	0.99476
3031.41354	0.99526
3029.35973	0.99500
3027.30593	0.99451
3025.25213	0.99462
3023.19832	0.99473
3021.14452	0.99431
3019.09072	0.99410
3017.03691	0.99450
3014.98311	0.99491
3012.92931	0.99480
3010.87550	0.99460
3008.82170	0.99494
3006.76790	0.99555
3004.71409	0.99600
3002.66029	0.99603
3000.60649	0.99552
2998.55269	0.99499
2996.49888	0.99480
2994.44508	0.99490
2992.39128	0.99517
2990.33747	0.99538
2988.28367	0.99539
2986.22987	0.99510
2984.17606	0.99455
2982.12226	0.99424
2980.06846	0.99455
2978.01465	0.99530
2975.96085	0.99607
2973.90705	0.99653
2971.85324	0.99666
2969.79944	0.99687
2967.74564	0.99744
2965.69183	0.99797
2963.63803	0.99818
2961.58423	0.99829
2959.53042	0.99848
2957.47662	0.99894
2955.42282	0.99908
2953.36901	0.99845
2951.31521	0.99788
2949.26141	0.99798
2947.20761	0.99844
2945.15380	0.99897
2943.10000	0.99952
2941.04620	0.99991
2938.99239	1.00008
2936.93859	1.00034
2934.88479	1.00087
2932.83098	1.00166
2930.77718	1.00256
2928.72338	1.00322
2926.66957	1.00356
2924.61577	1.00372
2922.56197	1.00347
2920.50816	1.00283
2918.45436	1.00199
2916.40056	1.00103
2914.34675	1.00022
2912.29295	0.99972
2910.23915	0.99944
2908.18534	0.99918
2906.13154	0.99884
2904.07774	0.99835
2902.02393	0.99784
2899.97013	0.99758
2897.91633	0.99746
2895.86252	0.99726
2893.80872	0.99710
2891.75492	0.99699
2889.70112	0.99679
2887.64731	0.99660
2885.59351	0.99650
2883.53971	0.99645
2881.48590	0.99638
2879.43210	0.99640
2877.37830	0.99648
2875.32449	0.99666
2873.27069	0.99708
2871.21689	0.99732
2869.16308	0.99724
2867.10928	0.99721
2865.05548	0.99747
2863.00167	0.99800
2860.94787	0.99835
2858.89407	0.99857
2856.84026	0.99907
2854.78646	0.99948
2852.73266	0.99944
2850.67885	0.99899
2848.62505	0.99827
2846.57125	0.99741
2844.51744	0.99671
2842.46364	0.99648
2840.40984	0.99645
2838.35603	0.99615
2836.30223	0.99574
2834.24843	0.99565
2832.19463	0.99585
2830.14082	0.99605
2828.08702	0.99595
2826.03322	0.99560
2823.97941	0.99527
2821.92561	0.99493
2819.87181	0.99486
2817.81800	0.99507
2815.76420	0.99511
2813.71040	0.99514
2811.65659	0.99518
2809.60279	0.99477
2807.54899	0.99424
2805.49518	0.99415
2803.44138	0.99438
2801.38758	0.99469
2799.33377	0.99489
2797.27997	0.99483
2795.22617	0.99468
2793.17236	0.99475
2791.11856	0.99505
2789.06476	0.99521
2787.01095	0.99500
2784.95715	0.99480
2782.90335	0.99478
2780.84955	0.99472
2778.79574	0.99475
2776.74194	0.99474
2774.68814	0.99456
2772.63433	0.99447
2770.58053	0.99444
2768.52673	0.99464
2766.47292	0.99511
2764.41912	0.99527
2762.36532	0.99499
2760.31151	0.99484
2758.25771	0.99488
2756.20391	0.99496
2754.15010	0.99498
2752.09630	0.99491
2750.04250	0.99497
2747.98869	0.99526
2745.93489	0.99573
2743.88109	0.99612
2741.82728	0.99594
2739.77348	0.99548
2737.71968	0.99534
2735.66587	0.99545
2733.61207	0.99555
2731.55827	0.99534
2729.50446	0.99493
2727.45066	0.99485
2725.39686	0.99521
2723.34306	0.99540
2721.28925	0.99514
2719.23545	0.99488
2717.18165	0.99472
2715.12784	0.99445
2713.07404	0.99428
2711.02024	0.99445
2708.96643	0.99461
2706.91263	0.99472
2704.85883	0.99503
2702.80502	0.99525
2700.75122	0.99531
2698.69742	0.99561
2696.64361	0.99605
2694.58981	0.99614
2692.53601	0.99587
2690.48220	0.99564
2688.42840	0.99564
2686.37460	0.99537
2684.32079	0.99471
2682.26699	0.99448
2680.21319	0.99483
2678.15938	0.99509
2676.10558	0.99500
2674.05178	0.99481
2671.99797	0.99465
2669.94417	0.99484
2667.89037	0.99527
2665.83657	0.99530
2663.78276	0.99488
2661.72896	0.99451
2659.67516	0.99440
2657.62135	0.99436
2655.56755	0.99438
2653.51375	0.99472
2651.45994	0.99510
2649.40614	0.99499
2647.35234	0.99464
2645.29853	0.99428
2643.24473	0.99400
2641.19093	0.99395
2639.13712	0.99389
2637.08332	0.99380
2635.02952	0.99406
2632.97571	0.99450
2630.92191	0.99463
2628.86811	0.99442
2626.81430	0.99416
2624.76050	0.99396
2622.70670	0.99395
2620.65289	0.99441
2618.59909	0.99494
2616.54529	0.99533
2614.49149	0.99568
2612.43768	0.99567
2610.38388	0.99528
2608.33008	0.99481
2606.27627	0.99447
2604.22247	0.99439
2602.16867	0.99467
2600.11486	0.99518
2598.06106	0.99539
2596.00726	0.99505
2593.95345	0.99485
2591.89965	0.99503
2589.84585	0.99505
2587.79204	0.99540
2585.73824	0.99594
2583.68444	0.99568
2581.63063	0.99491
2579.57683	0.99459
2577.52303	0.99495
2575.46922	0.99549
2573.41542	0.99589
2571.36162	0.99618
2569.30781	0.99588
2567.25401	0.99522
2565.20021	0.99538
2563.14640	0.99595
2561.09260	0.99576
2559.03880	0.99543
2556.98500	0.99577
2554.93119	0.99599
2552.87739	0.99580
2550.82359	0.99588
2548.76978	0.99599
2546.71598	0.99562
2544.66218	0.99520
2542.60837	0.99572
2540.55457	0.99682
2538.50077	0.99693
2536.44696	0.99600
2534.39316	0.99526
2532.33936	0.99516
2530.28555	0.99549
2528.23175	0.99569
2526.17795	0.99559
2524.12414	0.99567
2522.07034	0.99579
2520.01654	0.99580
2517.96273	0.99590
2515.90893	0.99565
2513.85513	0.99516
2511.80132	0.99519
2509.74752	0.99540
2507.69372	0.99538
2505.63992	0.99545
2503.58611	0.99563
2501.53231	0.99539
2499.47851	0.99486
2497.42470	0.99496
2495.37090	0.99566
2493.31710	0.99605
2491.26329	0.99595
2489.20949	0.99572
2487.15569	0.99542
2485.10188	0.99508
2483.04808	0.99484
2480.99428	0.99504
2478.94047	0.99515
2476.88667	0.99472
2474.83287	0.99465
2472.77906	0.99496
2470.72526	0.99516
2468.67146	0.99517
2466.61765	0.99499
2464.56385	0.99501
2462.51005	0.99517
2460.45624	0.99508
2458.40244	0.99481
2456.34864	0.99463
2454.29483	0.99476
2452.24103	0.99511
2450.18723	0.99534
2448.13343	0.99547
2446.07962	0.99569
2444.02582	0.99591
2441.97202	0.99624
2439.91821	0.99633
2437.86441	0.99581
2435.81061	0.99560
2433.75680	0.99616
2431.70300	0.99663
2429.64920	0.99613
2427.59539	0.99526
2425.54159	0.99527
2423.48779	0.99578
2421.43398	0.99577
2419.38018	0.99533
2417.32638	0.99521
2415.27257	0.99543
2413.21877	0.99556
2411.16497	0.99552
2409.11116	0.99549
2407.05736	0.99594
2405.00356	0.99652
2402.94975	0.99627
2400.89595	0.99561
2398.84215	0.99538
2396.78834	0.99548
2394.73454	0.99543
2392.68074	0.99557
2390.62694	0.99591
2388.57313	0.99580
2386.51933	0.99549
2384.46553	0.99576
2382.41172	0.99635
2380.35792	0.99647
2378.30412	0.99644
2376.25031	0.99697
2374.19651	0.99753
2372.14271	0.99721
2370.08890	0.99573
2368.03510	0.99377
2365.98130	0.99291
2363.92749	0.99325
2361.87369	0.99359
2359.81989	0.99445
2357.76608	0.99581
2355.71228	0.99632
2353.65848	0.99595
2351.60467	0.99514
2349.55087	0.99471
2347.49707	0.99491
2345.44326	0.99491
2343.38946	0.99454
2341.33566	0.99499
2339.28186	0.99615
2337.22805	0.99645
2335.17425	0.99578
2333.12045	0.99537
2331.06664	0.99553
2329.01284	0.99543
2326.95904	0.99494
2324.90523	0.99435
2322.85143	0.99334
2320.79763	0.99208
2318.74382	0.99154
2316.69002	0.99223
2314.63622	0.99343
2312.58241	0.99407
2310.52861	0.99406
2308.47481	0.99430
2306.42100	0.99493
2304.36720	0.99519
2302.31340	0.99492
2300.25959	0.99467
2298.20579	0.99438
2296.15199	0.99380
2294.09818	0.99370
2292.04438	0.99442
2289.99058	0.99520
2287.93677	0.99548
2285.88297	0.99509
2283.82917	0.99435
2281.77537	0.99396
2279.72156	0.99396
2277.66776	0.99339
2275.61396	0.99275
2273.56015	0.99328
2271.50635	0.99405
2269.45255	0.99423
2267.39874	0.99458
2265.34494	0.99537
2263.29114	0.99611
2261.23733	0.99624
2259.18353	0.99587
2257.12973	0.99563
2255.07592	0.99523
2253.02212	0.99496
2250.96832	0.99517
2248.91451	0.99516
2246.86071	0.99453
2244.80691	0.99314
2242.75310	0.99276
2240.69930	0.99452
2238.64550	0.99636
2236.59169	0.99752
2234.53789	0.99800
2232.48409	0.99739
2230.43029	0.99658
2228.37648	0.99578
2226.32268	0.99550
2224.26888	0.99636
2222.21507	0.99740
2220.16127	0.99721
2218.10747	0.99562
2216.05366	0.99443
2213.99986	0.99543
2211.94606	0.99653
2209.89225	0.99556
2207.83845	0.99455
2205.78465	0.99466
2203.73084	0.99504
2201.67704	0.99605
2199.62324	0.99837
2197.56943	0.99917
2195.51563	0.99697
2193.46183	0.99549
2191.40802	0.99575
2189.35422	0.99544
2187.30042	0.99504
2185.24661	0.99613
2183.19281	0.99780
2181.13901	0.99867
2179.08520	0.99769
2177.03140	0.99552
2174.97760	0.99497
2172.92380	0.99609
2170.86999	0.99640
2168.81619	0.99553
2166.76239	0.99487
2164.70858	0.99498
2162.65478	0.99542
2160.60098	0.99564
2158.54717	0.99700
2156.49337	0.99862
2154.43957	0.99668
2152.38576	0.99339
2150.33196	0.99291
2148.27816	0.99398
2146.22435	0.99428
2144.17055	0.99431
2142.11675	0.99421
2140.06294	0.99464
2138.00914	0.99573
2135.95534	0.99647
2133.90153	0.99720
2131.84773	0.99715
2129.79393	0.99630
2127.74012	0.99640
2125.68632	0.99697
2123.63252	0.99703
2121.57871	0.99663
2119.52491	0.99597
2117.47111	0.99554
2115.41731	0.99534
2113.36350	0.99574
2111.30970	0.99681
2109.25590	0.99686
2107.20209	0.99587
2105.14829	0.99576
2103.09449	0.99663
2101.04068	0.99702
2098.98688	0.99619
2096.93308	0.99529
2094.87927	0.99574
2092.82547	0.99658
2090.77167	0.99641
2088.71786	0.99575
2086.66406	0.99513
2084.61026	0.99464
2082.55645	0.99454
2080.50265	0.99427
2078.44885	0.99365
2076.39504	0.99399
2074.34124	0.99493
2072.28744	0.99442
2070.23363	0.99329
2068.17983	0.99325
2066.12603	0.99433
2064.07223	0.99677
2062.01842	0.99930
2059.96462	1.00003
2057.91082	0.99895
2055.85701	0.99696
2053.80321	0.99497
2051.74941	0.99428
2049.69560	0.99482
2047.64180	0.99389
2045.58800	0.99171
2043.53419	0.99238
2041.48039	0.99542
2039.42659	0.99736
2037.37278	0.99738
2035.31898	0.99548
2033.26518	0.99322
2031.21137	0.99359
2029.15757	0.99549
2027.10377	0.99543
2025.04996	0.99423
2022.99616	0.99447
2020.94236	0.99682
2018.88855	0.99996
2016.83475	1.00057
2014.78095	0.99874
2012.72714	0.99784
2010.67334	0.99890
2008.61954	1.00106
2006.56574	1.00287
2004.51193	1.00177
2002.45813	0.99769
2000.40433	0.99521
1998.35052	0.99670
1996.29672	0.99965
1994.24292	1.00097
1992.18911	0.99970
1990.13531	0.99747
1988.08151	0.99607
1986.02770	0.99554
1983.97390	0.99552
1981.92010	0.99545
1979.86629	0.99541
1977.81249	0.99652
1975.75869	0.99837
1973.70488	0.99987
1971.65108	1.00137
1969.59728	1.00138
1967.54347	0.99909
1965.48967	0.99744
1963.43587	0.99728
1961.38206	0.99729
1959.32826	0.99732
1957.27446	0.99757
1955.22066	0.99826
1953.16685	0.99894
1951.11305	0.99936
1949.05925	0.99958
1947.00544	0.99911
1944.95164	0.99886
1942.89784	0.99954
1940.84403	0.99936
1938.79023	0.99817
1936.73643	0.99716
1934.68262	0.99650
1932.62882	0.99679
1930.57502	0.99835
1928.52121	0.99977
1926.46741	0.99993
1924.41361	0.99921
1922.35980	0.99746
1920.30600	0.99544
1918.25220	0.99474
1916.19839	0.99470
1914.14459	0.99448
1912.09079	0.99452
1910.03698	0.99533
1907.98318	0.99665
1905.92938	0.99723
1903.87557	0.99694
1901.82177	0.99668
1899.76797	0.99659
1897.71417	0.99667
1895.66036	0.99730
1893.60656	0.99816
1891.55276	0.99852
1889.49895	0.99850
1887.44515	0.99864
1885.39135	0.99857
1883.33754	0.99754
1881.28374	0.99600
1879.22994	0.99513
1877.17613	0.99503
1875.12233	0.99565
1873.06853	0.99698
1871.01472	0.99783
1868.96092	0.99740
1866.90712	0.99686
1864.85331	0.99686
1862.79951	0.99674
1860.74571	0.99655
1858.69190	0.99685
1856.63810	0.99711
1854.58430	0.99667
1852.53049	0.99601
1850.47669	0.99592
1848.42289	0.99647
1846.36908	0.99671
1844.31528	0.99603
1842.26148	0.99581
1840.20768	0.99682
1838.15387	0.99781
1836.10007	0.99762
1834.04627	0.99664
1831.99246	0.99605
1829.93866	0.99611
1827.88486	0.99611
1825.83105	0.99608
1823.77725	0.99637
1821.72345	0.99639
1819.66964	0.99624
1817.61584	0.99657
1815.56204	0.99707
1813.50823	0.99696
1811.45443	0.99628
1809.40063	0.99563
1807.34682	0.99537
1805.29302	0.99548
1803.23922	0.99579
1801.18541	0.99606
1799.13161	0.99644
1797.07781	0.99707
1795.02400	0.99753
1792.97020	0.99736
1790.91640	0.99680
1788.86260	0.99665
1786.80879	0.99666
1784.75499	0.99643
1782.70119	0.99614
1780.64738	0.99612
1778.59358	0.99637
1776.53978	0.99663
1774.48597	0.99685
1772.43217	0.99684
1770.37837	0.99663
1768.32456	0.99664
1766.27076	0.99666
1764.21696	0.99660
1762.16315	0.99668
1760.10935	0.99681
1758.05555	0.99706
1756.00174	0.99745
1753.94794	0.99785
1751.89414	0.99839
1749.84033	0.99898
1747.78653	0.99926
1745.73273	0.99941
1743.67892	0.99948
1741.62512	0.99928
1739.57132	0.99882
1737.51751	0.99835
1735.46371	0.99801
1733.40991	0.99793
1731.35611	0.99820
1729.30230	0.99840
1727.24850	0.99840
1725.19470	0.99832
1723.14089	0.99831
1721.08709	0.99837
1719.03329	0.99837
1716.97948	0.99840
1714.92568	0.99838
1712.87188	0.99835
1710.81807	0.99845
1708.76427	0.99854
1706.71047	0.99848
1704.65666	0.99791
1702.60286	0.99695
1700.54906	0.99623
1698.49525	0.99619
1696.44145	0.99643
1694.38765	0.99639
1692.33384	0.99629
1690.28004	0.99645
1688.22624	0.99656
1686.17243	0.99633
1684.11863	0.99602
1682.06483	0.99602
1680.01103	0.99621
1677.95722	0.99646
1675.90342	0.99651
1673.84962	0.99628
1671.79581	0.99605
1669.74201	0.99603
1667.68821	0.99631
1665.63440	0.99646
1663.58060	0.99646
1661.52680	0.99651
1659.47299	0.99666
1657.41919	0.99676
1655.36539	0.99651
1653.31158	0.99610
1651.25778	0.99622
1649.20398	0.99623
1647.15017	0.99584
1645.09637	0.99548
1643.04257	0.99539
1640.98876	0.99532
1638.93496	0.99537
1636.88116	0.99578
1634.82735	0.99621
1632.77355	0.99590
1630.71975	0.99549
1628.66594	0.99550
1626.61214	0.99554
1624.55834	0.99543
1622.50454	0.99568
1620.45073	0.99602
1618.39693	0.99617
1616.34313	0.99627
1614.28932	0.99615
1612.23552	0.99598
1610.18172	0.99587
1608.12791	0.99557
1606.07411	0.99539
1604.02031	0.99574
1601.96650	0.99619
1599.91270	0.99616
1597.85890	0.99577
1595.80509	0.99553
1593.75129	0.99553
1591.69749	0.99579
1589.64368	0.99619
1587.58988	0.99646
1585.53608	0.99628
1583.48227	0.99566
1581.42847	0.99536
1579.37467	0.99573
1577.32086	0.99635
1575.26706	0.99652
1573.21326	0.99615
1571.15945	0.99569
1569.10565	0.99532
1567.05185	0.99520
1564.99805	0.99544
1562.94424	0.99593
1560.89044	0.99646
1558.83664	0.99677
1556.78283	0.99642
1554.72903	0.99603
1552.67523	0.99584
1550.62142	0.99579
1548.56762	0.99592
1546.51382	0.99609
1544.46001	0.99626
1542.40621	0.99650
1540.35241	0.99661
1538.29860	0.99630
1536.24480	0.99604
1534.19100	0.99614
1532.13719	0.99635
1530.08339	0.99630
1528.02959	0.99620
1525.97578	0.99622
1523.92198	0.99632
1521.86818	0.99650
1519.81437	0.99654
1517.76057	0.99648
1515.70677	0.99635
1513.65297	0.99606
1511.59916	0.99595
1509.54536	0.99627
1507.49156	0.99641
1505.43775	0.99607
1503.38395	0.99614
1501.33015	0.99621
1499.27634	0.99616
1497.22254	0.99639
1495.16874	0.99678
1493.11493	0.99694
1491.06113	0.99697
1489.00733	0.99703
1486.95352	0.99669
1484.89972	0.99619
1482.84592	0.99607
1480.79211	0.99630
1478.73831	0.99652
1476.68451	0.99648
1474.63070	0.99627
1472.57690	0.99650
1470.52310	0.99707
1468.46929	0.99729
1466.41549	0.99746
1464.36169	0.99779
1462.30788	0.99782
1460.25408	0.99766
1458.20028	0.99753
1456.14648	0.99719
1454.09267	0.99678
1452.03887	0.99656
1449.98507	0.99633
1447.93126	0.99620
1445.87746	0.99652
1443.82366	0.99691
1441.76985	0.99686
1439.71605	0.99641
1437.66225	0.99595
1435.60844	0.99572
1433.55464	0.99572
1431.50084	0.99582
1429.44703	0.99589
1427.39323	0.99593
1425.33943	0.99582
1423.28562	0.99540
1421.23182	0.99511
1419.17802	0.99530
1417.12421	0.99559
1415.07041	0.99573
1413.01661	0.99590
1410.96280	0.99600
1408.90900	0.99586
1406.85520	0.99572
1404.80139	0.99590
1402.74759	0.99626
1400.69379	0.99629
1398.63999	0.99586
1396.58618	0.99553
1394.53238	0.99567
1392.47858	0.99605
1390.42477	0.99634
1388.37097	0.99644
1386.31717	0.99657
1384.26336	0.99679
1382.20956	0.99685
1380.15576	0.99671
1378.10195	0.99648
1376.04815	0.99623
1373.99435	0.99603
1371.94054	0.99585
1369.88674	0.99569
1367.83294	0.99558
1365.77913	0.99555
1363.72533	0.99556
1361.67153	0.99550
1359.61772	0.99522
1357.56392	0.99488
1355.51012	0.99477
1353.45631	0.99486
1351.40251	0.99485
1349.34871	0.99503
1347.29491	0.99531
1345.24110	0.99537
1343.18730	0.99551
1341.13350	0.99550
1339.07969	0.99521
1337.02589	0.99512
1334.97209	0.99511
1332.91828	0.99491
1330.86448	0.99476
1328.81068	0.99509
1326.75687	0.99555
1324.70307	0.99534
1322.64927	0.99491
1320.59546	0.99483
1318.54166	0.99486
1316.48786	0.99467
1314.43405	0.99441
1312.38025	0.99450
1310.32645	0.99485
1308.27264	0.99529
1306.21884	0.99568
1304.16504	0.99562
1302.11123	0.99537
1300.05743	0.99555
1298.00363	0.99597
1295.94982	0.99597
1293.89602	0.99564
1291.84222	0.99547
1289.78842	0.99540
1287.73461	0.99528
1285.68081	0.99519
1283.62701	0.99528
1281.57320	0.99550
1279.51940	0.99564
1277.46560	0.99562
1275.41179	0.99560
1273.35799	0.99563
1271.30419	0.99556
1269.25038	0.99528
1267.19658	0.99513
1265.14278	0.99529
1263.08897	0.99528
1261.03517	0.99494
1258.98137	0.99455
1256.92756	0.99431
1254.87376	0.99443
1252.81996	0.99474
1250.76615	0.99476
1248.71235	0.99462
1246.65855	0.99466
1244.60474	0.99454
1242.55094	0.99409
1240.49714	0.99374
1238.44334	0.99360
1236.38953	0.99343
1234.33573	0.99316
1232.28193	0.99291
1230.22812	0.99275
1228.17432	0.99258
1226.12052	0.99229
1224.06671	0.99213
1222.01291	0.99217
1219.95911	0.99202
1217.90530	0.99151
1215.85150	0.99079
1213.79770	0.99013
1211.74389	0.98962
1209.69009	0.98882
1207.63629	0.98767
1205.58248	0.98679
1203.52868	0.98630
1201.47488	0.98577
1199.42107	0.98487
1197.36727	0.98374
1195.31347	0.98273
1193.25966	0.98192
1191.20586	0.98121
1189.15206	0.98036
1187.09825	0.97923
1185.04445	0.97796
1182.99065	0.97665
1180.93685	0.97530
1178.88304	0.97386
1176.82924	0.97214
1174.77544	0.97003
1172.72163	0.96794
1170.66783	0.96610
1168.61403	0.96390
1166.56022	0.96116
1164.50642	0.95869
1162.45262	0.95694
1160.39881	0.95551
1158.34501	0.95436
1156.29121	0.95365
1154.23740	0.95299
1152.18360	0.95197
1150.12980	0.95056
1148.07599	0.94901
1146.02219	0.94743
1143.96839	0.94614
1141.91458	0.94532
1139.86078	0.94441
1137.80698	0.94310
1135.75317	0.94170
1133.69937	0.94059
1131.64557	0.93949
1129.59176	0.93823
1127.53796	0.93742
1125.48416	0.93732
1123.43036	0.93740
1121.37655	0.93719
1119.32275	0.93661
1117.26895	0.93552
1115.21514	0.93412
1113.16134	0.93281
1111.10754	0.93149
1109.05373	0.93033
1106.99993	0.92972
1104.94613	0.92955
1102.89232	0.92945
1100.83852	0.92925
1098.78472	0.92869
1096.73091	0.92780
1094.67711	0.92730
1092.62331	0.92709
1090.56950	0.92657
1088.51570	0.92603
1086.46190	0.92565
1084.40809	0.92512
1082.35429	0.92441
1080.30049	0.92356
1078.24668	0.92266
1076.19288	0.92152
1074.13908	0.92016
1072.08528	0.91879
1070.03147	0.91723
1067.97767	0.91510
1065.92387	0.91234
1063.87006	0.90909
1061.81626	0.90545
1059.76246	0.90202
1057.70865	0.89907
1055.65485	0.89622
1053.60105	0.89360
1051.54724	0.89158
1049.49344	0.88980
1047.43964	0.88817
1045.38583	0.88694
1043.33203	0.88601
1041.27823	0.88496
1039.22442	0.88308
1037.17062	0.88066
1035.11682	0.87877
1033.06301	0.87786
1031.00921	0.87715
1028.95541	0.87615
1026.90160	0.87525
1024.84780	0.87470
1022.79400	0.87435
1020.74019	0.87385
1018.68639	0.87294
1016.63259	0.87188
1014.57879	0.87103
1012.52498	0.87037
1010.47118	0.86966
1008.41738	0.86884
1006.36357	0.86803
1004.30977	0.86726
1002.25597	0.86690
1000.20216	0.86728
998.14836	0.86795
996.09456	0.86846
994.04075	0.86884
991.98695	0.86952
989.93315	0.87060
987.87934	0.87155
985.82554	0.87223
983.77174	0.87315
981.71793	0.87459
979.66413	0.87637
977.61033	0.87838
975.55652	0.88058
973.50272	0.88266
971.44892	0.88457
969.39511	0.88689
967.34131	0.88965
965.28751	0.89200
963.23371	0.89374
961.17990	0.89562
959.12610	0.89797
957.07230	0.90039
955.01849	0.90260
952.96469	0.90481
950.91089	0.90708
948.85708	0.90899
946.80328	0.91046
944.74948	0.91203
942.69567	0.91381
940.64187	0.91544
938.58807	0.91702
936.53426	0.91894
934.48046	0.92090
932.42666	0.92204
930.37285	0.92258
928.31905	0.92358
926.26525	0.92496
924.21144	0.92616
922.15764	0.92725
920.10384	0.92832
918.05003	0.92945
915.99623	0.93089
913.94243	0.93243
911.88862	0.93336
909.83482	0.93386
907.78102	0.93453
905.72722	0.93562
903.67341	0.93706
901.61961	0.93842
899.56581	0.93970
897.51200	0.94087
895.45820	0.94162
893.40440	0.94224
891.35059	0.94324
889.29679	0.94481
887.24299	0.94628
885.18918	0.94723
883.13538	0.94831
881.08158	0.94982
879.02777	0.95116
876.97397	0.95204
874.92017	0.95301
872.86636	0.95444
870.81256	0.95575
868.75876	0.95666
866.70495	0.95773
864.65115	0.95904
862.59735	0.96044
860.54354	0.96185
858.48974	0.96288
856.43594	0.96368
854.38213	0.96462
852.32833	0.96545
850.27453	0.96639
848.22073	0.96756
846.16692	0.96820
844.11312	0.96865
842.05932	0.96928
840.00551	0.96963
837.95171	0.96992
835.89791	0.97039
833.84410	0.97073
831.79030	0.97127
829.73650	0.97221
827.68269	0.97292
825.62889	0.97293
823.57509	0.97250
821.52128	0.97256
819.46748	0.97326
817.41368	0.97333
815.35987	0.97232
813.30607	0.97164
811.25227	0.97174
809.19846	0.97123
807.14466	0.96945
805.09086	0.96664
803.03705	0.96377
800.98325	0.96154
798.92945	0.95963
796.87565	0.95771
794.82184	0.95630
792.76804	0.95591
790.71424	0.95565
788.66043	0.95472
786.60663	0.95306
784.55283	0.95092
782.49902	0.94949
780.44522	0.94861
778.39142	0.94707
776.33761	0.94523
774.28381	0.94421
772.23001	0.94459
770.17620	0.94566
768.12240	0.94598
766.06860	0.94551
764.01479	0.94551
761.96099	0.94661
759.90719	0.94811
757.85338	0.94864
755.79958	0.94823
753.74578	0.94799
751.69197	0.94799
749.63817	0.94815
747.58437	0.94846
745.53056	0.94834
743.47676	0.94823
741.42296	0.94865
739.36916	0.94900
737.31535	0.94926
735.26155	0.94953
733.20775	0.94918
731.15394	0.94804
729.10014	0.94666
727.04634	0.94593
724.99253	0.94609
722.93873	0.94613
720.88493	0.94569
718.83112	0.94556
716.77732	0.94626
714.72352	0.94775
712.66971	0.94925
710.61591	0.95064
708.56211	0.95231
706.50830	0.95372
704.45450	0.95454
702.40070	0.95527
700.34689	0.95649
698.29309	0.95762
696.23929	0.95722
694.18548	0.95607
692.13168	0.95638
690.07788	0.95832
688.02408	0.96118
685.97027	0.96384
683.91647	0.96529
681.86267	0.96605
679.80886	0.96602
677.75506	0.96508
675.70126	0.96464
673.64745	0.96529
671.59365	0.96595
669.53985	0.96595
667.48604	0.96498
665.43224	0.96340
663.37844	0.96174
661.32463	0.96050
659.27083	0.95995
657.21703	0.95846
655.16322	0.95544
653.10942	0.95252
651.05562	0.94996
649.00181	0.94751
646.94801	0.94584
644.89421	0.94469
642.84040	0.94443
640.78660	0.94584
638.73280	0.94872
636.67899	0.95170
634.62519	0.95332
632.57139	0.95368
630.51759	0.95366
628.46378	0.95422
626.40998	0.95499
624.35618	0.95506
622.30237	0.95384
620.24857	0.95164
618.19477	0.94975
616.14096	0.94723
614.08716	0.94362
612.03336	0.94065
609.97955	0.93787
607.92575	0.93402
605.87195	0.92960
603.81814	0.92569
601.76434	0.92232
599.71054	0.91901
597.65673	0.91645
595.60293	0.91497
593.54913	0.91335
591.49532	0.91165
589.44152	0.91062
587.38772	0.90979
585.33391	0.90901
583.28011	0.90790
581.22631	0.90689
579.17250	0.90783
577.11870	0.90982
575.06490	0.91022
573.01110	0.90982
570.95729	0.91104
568.90349	0.91321
566.84969	0.91514
564.79588	0.91666
562.74208	0.91760
560.68828	0.91822
558.63447	0.91856
556.58067	0.91910
554.52687	0.92019
552.47306	0.92122
550.41926	0.92208
548.36546	0.92153
546.31165	0.91828
544.25785	0.91454
542.20405	0.91155
540.15024	0.90882
538.09644	0.90727
536.04264	0.90725
533.98883	0.90764
531.93503	0.90799
529.88123	0.90905
527.82742	0.91175
525.77362	0.91603
523.71982	0.91873
521.66602	0.91850
519.61221	0.91849
517.55841	0.92076
515.50461	0.92447
513.45080	0.92747
511.39700	0.92833
509.34320	0.92845
507.28939	0.92972
505.23559	0.93151
503.18179	0.93318
501.12798	0.93386
499.07418	0.93289
497.02038	0.93293
494.96657	0.93499
492.91277	0.93601
490.85897	0.93506
488.80516	0.93360
486.75136	0.93136
484.69756	0.92826
482.64375	0.92467
480.58995	0.92157
478.53615	0.91958
476.48234	0.91685
474.42854	0.91243
472.37474	0.90717
470.32093	0.90302
468.26713	0.90166
466.21333	0.90118
464.15953	0.89915
462.10572	0.89653
460.05192	0.89444
457.99812	0.89127
455.94431	0.88599
453.89051	0.88209
451.83671	0.88219
449.78290	0.88270
447.72910	0.87955
445.67530	0.87532
443.62149	0.87203
441.56769	0.86712
439.51389	0.86210
437.46008	0.86001
435.40628	0.85675
433.35248	0.85030
431.29867	0.84811
429.24487	0.85249
427.19107	0.85771
425.13726	0.85912
423.08346	0.85687
421.02966	0.85749
418.97585	0.85992
416.92205	0.85320
414.86825	0.84744
412.81445	0.85041
410.76064	0.85615
408.70684	0.86041
406.65304	0.86315
404.59923	0.86076
402.54543	0.85495
400.49163	0.85270
398.43782	0.85610
