3996.70104	0.96790
3994.64724	0.96777
3992.59344	0.96777
3990.53964	0.96742
3988.48583	0.96694
3986.43203	0.96686
3984.37823	0.96728
3982.32442	0.96790
3980.27062	0.96828
3978.21682	0.96837
3976.16301	0.96812
3974.10921	0.96766
3972.05541	0.96748
3970.00160	0.96746
3967.94780	0.96731
3965.89400	0.96727
3963.84019	0.96765
3961.78639	0.96822
3959.73259	0.96837
3957.67878	0.96823
3955.62498	0.96788
3953.57118	0.96707
3951.51737	0.96661
3949.46357	0.96694
3947.40977	0.96743
3945.35596	0.96795
3943.30216	0.96834
3941.24836	0.96819
3939.19455	0.96786
3937.14075	0.96771
3935.08695	0.96761
3933.03315	0.96781
3930.97934	0.96804
3928.92554	0.96774
3926.87174	0.96725
3924.81793	0.96696
3922.76413	0.96711
3920.71033	0.96762
3918.65652	0.96801
3916.60272	0.96809
3914.54892	0.96830
3912.49511	0.96861
3910.44131	0.96853
3908.38751	0.96789
3906.33370	0.96743
3904.27990	0.96792
3902.22610	0.96864
3900.17229	0.96854
3898.11849	0.96816
3896.06469	0.96815
3894.01088	0.96822
3891.95708	0.96859
3889.90328	0.96929
3887.84947	0.96963
3885.79567	0.96944
3883.74187	0.96880
3881.68807	0.96834
3879.63426	0.96852
3877.58046	0.96891
3875.52666	0.96898
3873.47285	0.96845
3871.41905	0.96780
3869.36525	0.96819
3867.31144	0.96924
3865.25764	0.96946
3863.20384	0.96863
3861.15003	0.96819
3859.09623	0.96858
3857.04243	0.96909
3854.98862	0.96920
3852.93482	0.96904
3850.88102	0.96929
3848.82721	0.96952
3846.77341	0.96960
3844.71961	0.96979
3842.66580	0.96985
3840.61200	0.96915
3838.55820	0.96785
3836.50439	0.96755
3834.45059	0.96846
3832.39679	0.96933
3830.34298	0.96957
3828.28918	0.96954
3826.23538	0.96946
3824.18158	0.96966
3822.12777	0.97079
3820.07397	0.97179
3818.02017	0.97115
3815.96636	0.97010
3813.91256	0.96972
3811.85876	0.96958
3809.80495	0.96928
3807.75115	0.96898
3805.69735	0.96921
3803.64354	0.96997
3801.58974	0.97048
3799.53594	0.97016
3797.48213	0.96995
3795.42833	0.97009
3793.37453	0.96988
3791.32072	0.96934
3789.26692	0.96927
3787.21312	0.96987
3785.15931	0.97034
3783.10551	0.97022
3781.05171	0.96997
3778.99790	0.96992
3776.94410	0.97016
3774.89030	0.97073
3772.83650	0.97120
3770.78269	0.97103
3768.72889	0.97067
3766.67509	0.97081
3764.62128	0.97103
3762.56748	0.97126
3760.51368	0.97128
3758.45987	0.97038
3756.40607	0.96945
3754.35227	0.96947
3752.29846	0.96980
3750.24466	0.97022
3748.19086	0.97149
3746.13705	0.97243
3744.08325	0.97174
3742.02945	0.97086
3739.97564	0.97093
3737.92184	0.97100
3735.86804	0.97111
3733.81423	0.97220
3731.76043	0.97287
3729.70663	0.97224
3727.65282	0.97122
3725.59902	0.97078
3723.54522	0.97082
3721.49141	0.97069
3719.43761	0.97114
3717.38381	0.97212
3715.33001	0.97244
3713.27620	0.97204
3711.22240	0.97129
3709.16860	0.96966
3707.11479	0.96784
3705.06099	0.96703
3703.00719	0.96720
3700.95338	0.96726
3698.89958	0.96689
3696.84578	0.96607
3694.79197	0.96473
3692.73817	0.96397
3690.68437	0.96488
3688.63056	0.96658
3686.57676	0.96711
3684.52296	0.96701
3682.46915	0.96695
3680.41535	0.96704
3678.36155	0.96750
3676.30774	0.96750
3674.25394	0.96629
3672.20014	0.96574
3670.14633	0.96559
3668.09253	0.96473
3666.03873	0.96411
3663.98492	0.96391
3661.93112	0.96351
3659.87732	0.96298
3657.82352	0.96233
3655.76971	0.96179
3653.71591	0.96181
3651.66211	0.96173
3649.60830	0.96131
3647.55450	0.96093
3645.50070	0.96032
3643.44689	0.95978
3641.39309	0.95950
3639.33929	0.95914
3637.28548	0.95874
3635.23168	0.95896
3633.17788	0.95909
3631.12407	0.95788
3629.07027	0.95564
3627.01647	0.95432
3624.96266	0.95411
3622.90886	0.95436
3620.85506	0.95473
3618.80125	0.95374
3616.74745	0.95242
3614.69365	0.95285
3612.63984	0.95416
3610.58604	0.95479
3608.53224	0.95450
3606.47844	0.95398
3604.42463	0.95354
3602.37083	0.95326
3600.31703	0.95329
3598.26322	0.95334
3596.20942	0.95301
3594.15562	0.95250
3592.10181	0.95261
3590.04801	0.95362
3587.99421	0.95419
3585.94040	0.95275
3583.88660	0.95121
3581.83280	0.95067
3579.77899	0.94986
3577.72519	0.94863
3575.67139	0.94828
3573.61758	0.94867
3571.56378	0.94883
3569.50998	0.94889
3567.45617	0.94892
3565.40237	0.94843
3563.34857	0.94762
3561.29476	0.94668
3559.24096	0.94583
3557.18716	0.94544
3555.13335	0.94537
3553.07955	0.94515
3551.02575	0.94501
3548.97195	0.94510
3546.91814	0.94476
3544.86434	0.94387
3542.81054	0.94325
3540.75673	0.94327
3538.70293	0.94339
3536.64913	0.94278
3534.59532	0.94180
3532.54152	0.94149
3530.48772	0.94146
3528.43391	0.94089
3526.38011	0.94011
3524.32631	0.93952
3522.27250	0.93924
3520.21870	0.93912
3518.16490	0.93858
3516.11109	0.93780
3514.05729	0.93731
3512.00349	0.93709
3509.94968	0.93715
3507.89588	0.93705
3505.84208	0.93645
3503.78827	0.93575
3501.73447	0.93506
3499.68067	0.93418
3497.62687	0.93345
3495.57306	0.93348
3493.51926	0.93385
3491.46546	0.93379
3489.41165	0.93293
3487.35785	0.93137
3485.30405	0.93014
3483.25024	0.93007
3481.19644	0.93031
3479.14264	0.92982
3477.08883	0.92922
3475.03503	0.92919
3472.98123	0.92927
3470.92742	0.92898
3468.87362	0.92836
3466.81982	0.92760
3464.76601	0.92680
3462.71221	0.92584
3460.65841	0.92506
3458.60460	0.92471
3456.55080	0.92466
3454.49700	0.92458
3452.44319	0.92376
3450.38939	0.92244
3448.33559	0.92132
3446.28178	0.92054
3444.22798	0.92025
3442.17418	0.92021
3440.12038	0.92008
3438.06657	0.91982
3436.01277	0.91915
3433.95897	0.91828
3431.90516	0.91797
3429.85136	0.91777
3427.79756	0.91695
3425.74375	0.91610
3423.68995	0.91543
3421.63615	0.91459
3419.58234	0.91403
3417.52854	0.91386
3415.47474	0.91340
3413.42093	0.91292
3411.36713	0.91281
3409.31333	0.91224
3407.25952	0.91098
3405.20572	0.90995
3403.15192	0.90960
3401.09811	0.90949
3399.04431	0.90932
3396.99051	0.90922
3394.93670	0.90898
3392.88290	0.90834
3390.82910	0.90774
3388.77529	0.90747
3386.72149	0.90712
3384.66769	0.90652
3382.61389	0.90593
3380.56008	0.90551
3378.50628	0.90545
3376.45248	0.90574
3374.39867	0.90565
3372.34487	0.90497
3370.29107	0.90434
3368.23726	0.90401
3366.18346	0.90374
3364.12966	0.90348
3362.07585	0.90323
3360.02205	0.90269
3357.96825	0.90186
3355.91444	0.90102
3353.86064	0.90058
3351.80684	0.90070
3349.75303	0.90068
3347.69923	0.90012
3345.64543	0.89936
3343.59162	0.89861
3341.53782	0.89824
3339.48402	0.89823
3337.43021	0.89808
3335.37641	0.89803
3333.32261	0.89852
3331.26881	0.89916
3329.21500	0.89939
3327.16120	0.89930
3325.10740	0.89923
3323.05359	0.89910
3320.99979	0.89902
3318.94599	0.89918
3316.89218	0.89921
3314.83838	0.89910
3312.78458	0.89918
3310.73077	0.89943
3308.67697	0.89969
3306.62317	0.89982
3304.56936	0.89989
3302.51556	0.90018
3300.46176	0.90051
3298.40795	0.90027
3296.35415	0.89972
3294.30035	0.89962
3292.24654	0.90002
3290.19274	0.90024
3288.13894	0.90024
3286.08513	0.90024
3284.03133	0.90011
3281.97753	0.90004
3279.92372	0.90012
3277.86992	0.90044
3275.81612	0.90096
3273.76232	0.90128
3271.70851	0.90150
3269.65471	0.90175
3267.60091	0.90197
3265.54710	0.90232
3263.49330	0.90269
3261.43950	0.90308
3259.38569	0.90346
3257.33189	0.90374
3255.27809	0.90432
3253.22428	0.90493
3251.17048	0.90519
3249.11668	0.90549
3247.06287	0.90593
3245.00907	0.90642
3242.95527	0.90683
3240.90146	0.90709
3238.84766	0.90757
3236.79386	0.90834
3234.74005	0.90887
3232.68625	0.90889
3230.63245	0.90880
3228.57864	0.90886
3226.52484	0.90918
3224.47104	0.90994
3222.41724	0.91101
3220.36343	0.91186
3218.30963	0.91228
3216.25583	0.91253
3214.20202	0.91279
3212.14822	0.91309
3210.09442	0.91344
3208.04061	0.91397
3205.98681	0.91491
3203.93301	0.91559
3201.87920	0.91551
3199.82540	0.91546
3197.77160	0.91594
3195.71779	0.91657
3193.66399	0.91715
3191.61019	0.91769
3189.55638	0.91799
3187.50258	0.91822
3185.44878	0.91872
3183.39497	0.91949
3181.34117	0.92021
3179.28737	0.92066
3177.23356	0.92087
3175.17976	0.92088
3173.12596	0.92100
3171.07215	0.92167
3169.01835	0.92263
3166.96455	0.92337
3164.91075	0.92407
3162.85694	0.92474
3160.80314	0.92494
3158.74934	0.92494
3156.69553	0.92533
3154.64173	0.92605
3152.58793	0.92649
3150.53412	0.92647
3148.48032	0.92659
3146.42652	0.92697
3144.37271	0.92732
3142.31891	0.92800
3140.26511	0.92878
3138.21130	0.92904
3136.15750	0.92929
3134.10370	0.92967
3132.04989	0.92966
3129.99609	0.92961
3127.94229	0.93023
3125.88848	0.93111
3123.83468	0.93158
3121.78088	0.93166
3119.72707	0.93158
3117.67327	0.93181
3115.61947	0.93254
3113.56566	0.93295
3111.51186	0.93290
3109.45806	0.93331
3107.40426	0.93405
3105.35045	0.93437
3103.29665	0.93425
3101.24285	0.93425
3099.18904	0.93481
3097.13524	0.93542
3095.08144	0.93578
3093.02763	0.93636
3090.97383	0.93701
3088.92003	0.93725
3086.86622	0.93706
3084.81242	0.93685
3082.75862	0.93706
3080.70481	0.93770
3078.65101	0.93834
3076.59721	0.93840
3074.54340	0.93829
3072.48960	0.93841
3070.43580	0.93825
3068.38199	0.93789
3066.32819	0.93804
3064.27439	0.93875
3062.22058	0.93942
3060.16678	0.93985
3058.11298	0.93985
3056.05918	0.93961
3054.00537	0.94011
3051.95157	0.94107
3049.89777	0.94161
3047.84396	0.94158
3045.79016	0.94140
3043.73636	0.94151
3041.68255	0.94197
3039.62875	0.94228
3037.57495	0.94227
3035.52114	0.94237
3033.46734	0.94284
3031.41354	0.94321
3029.35973	0.94311
3027.30593	0.94319
3025.25213	0.94389
3023.19832	0.94456
3021.14452	0.94469
3019.09072	0.94458
3017.03691	0.94466
3014.98311	0.94485
3012.92931	0.94480
3010.87550	0.94483
3008.82170	0.94526
3006.76790	0.94551
3004.71409	0.94545
3002.66029	0.94559
3000.60649	0.94591
2998.55269	0.94582
2996.49888	0.94524
2994.44508	0.94482
2992.39128	0.94495
2990.33747	0.94555
2988.28367	0.94603
2986.22987	0.94585
2984.17606	0.94537
2982.12226	0.94512
2980.06846	0.94512
2978.01465	0.94518
2975.96085	0.94494
2973.90705	0.94439
2971.85324	0.94396
2969.79944	0.94374
2967.74564	0.94348
2965.69183	0.94301
2963.63803	0.94257
2961.58423	0.94251
2959.53042	0.94268
2957.47662	0.94263
2955.42282	0.94216
2953.36901	0.94174
2951.31521	0.94166
2949.26141	0.94139
2947.20761	0.94070
2945.15380	0.93991
2943.10000	0.93915
2941.04620	0.93854
2938.99239	0.93828
2936.93859	0.93811
2934.88479	0.93748
2932.83098	0.93665
2930.77718	0.93614
2928.72338	0.93541
2926.66957	0.93424
2924.61577	0.93326
2922.56197	0.93217
2920.50816	0.93048
2918.45436	0.92896
2916.40056	0.92864
2914.34675	0.92968
2912.29295	0.93134
2910.23915	0.93262
2908.18534	0.93327
2906.13154	0.93373
2904.07774	0.93420
2902.02393	0.93440
2899.97013	0.93414
2897.91633	0.93367
2895.86252	0.93364
2893.80872	0.93415
2891.75492	0.93474
2889.70112	0.93516
2887.64731	0.93558
2885.59351	0.93628
2883.53971	0.93710
2881.48590	0.93754
2879.43210	0.93742
2877.37830	0.93726
2875.32449	0.93740
2873.27069	0.93758
2871.21689	0.93767
2869.16308	0.93780
2867.10928	0.93811
2865.05548	0.93843
2863.00167	0.93842
2860.94787	0.93814
2858.89407	0.93790
2856.84026	0.93782
2854.78646	0.93736
2852.73266	0.93633
2850.67885	0.93559
2848.62505	0.93604
2846.57125	0.93750
2844.51744	0.93901
2842.46364	0.94011
2840.40984	0.94116
2838.35603	0.94213
2836.30223	0.94294
2834.24843	0.94359
2832.19463	0.94398
2830.14082	0.94425
2828.08702	0.94463
2826.03322	0.94503
2823.97941	0.94548
2821.92561	0.94612
2819.87181	0.94662
2817.81800	0.94678
2815.76420	0.94663
2813.71040	0.94638
2811.65659	0.94661
2809.60279	0.94737
2807.54899	0.94786
2805.49518	0.94785
2803.44138	0.94785
2801.38758	0.94815
2799.33377	0.94858
2797.27997	0.94880
2795.22617	0.94888
2793.17236	0.94909
2791.11856	0.94947
2789.06476	0.94983
2787.01095	0.95002
2784.95715	0.94986
2782.90335	0.94960
2780.84955	0.94963
2778.79574	0.94996
2776.74194	0.95041
2774.68814	0.95073
2772.63433	0.95081
2770.58053	0.95076
2768.52673	0.95064
2766.47292	0.95043
2764.41912	0.95031
2762.36532	0.95035
2760.31151	0.95040
2758.25771	0.95049
2756.20391	0.95064
2754.15010	0.95074
2752.09630	0.95081
2750.04250	0.95094
2747.98869	0.95104
2745.93489	0.95101
2743.88109	0.95107
2741.82728	0.95126
2739.77348	0.95144
2737.71968	0.95162
2735.66587	0.95182
2733.61207	0.95187
2731.55827	0.95176
2729.50446	0.95175
2727.45066	0.95177
2725.39686	0.95167
2723.34306	0.95174
2721.28925	0.95205
2719.23545	0.95223
2717.18165	0.95211
2715.12784	0.95189
2713.07404	0.95179
2711.02024	0.95192
2708.96643	0.95231
2706.91263	0.95263
2704.85883	0.95261
2702.80502	0.95245
2700.75122	0.95238
2698.69742	0.95232
2696.64361	0.95216
2694.58981	0.95223
2692.53601	0.95272
2690.48220	0.95314
2688.42840	0.95313
2686.37460	0.95297
2684.32079	0.95291
2682.26699	0.95311
2680.21319	0.95342
2678.15938	0.95342
2676.10558	0.95329
2674.05178	0.95338
2671.99797	0.95352
2669.94417	0.95365
2667.89037	0.95383
2665.83657	0.95400
2663.78276	0.95407
2661.72896	0.95395
2659.67516	0.95372
2657.62135	0.95353
2655.56755	0.95350
2653.51375	0.95344
2651.45994	0.95330
2649.40614	0.95349
2647.35234	0.95394
2645.29853	0.95444
2643.24473	0.95492
2641.19093	0.95490
2639.13712	0.95441
2637.08332	0.95417
2635.02952	0.95428
2632.97571	0.95458
2630.92191	0.95495
2628.86811	0.95517
2626.81430	0.95515
2624.76050	0.95486
2622.70670	0.95467
2620.65289	0.95460
2618.59909	0.95447
2616.54529	0.95458
2614.49149	0.95473
2612.43768	0.95492
2610.38388	0.95516
2608.33008	0.95527
2606.27627	0.95543
2604.22247	0.95552
2602.16867	0.95546
2600.11486	0.95560
2598.06106	0.95602
2596.00726	0.95618
2593.95345	0.95612
2591.89965	0.95615
2589.84585	0.95639
2587.79204	0.95721
2585.73824	0.95788
2583.68444	0.95737
2581.63063	0.95624
2579.57683	0.95567
2577.52303	0.95611
2575.46922	0.95671
2573.41542	0.95686
2571.36162	0.95694
2569.30781	0.95695
2567.25401	0.95720
2565.20021	0.95791
2563.14640	0.95821
2561.09260	0.95781
2559.03880	0.95744
2556.98500	0.95743
2554.93119	0.95730
2552.87739	0.95677
2550.82359	0.95614
2548.76978	0.95591
2546.71598	0.95617
2544.66218	0.95651
2542.60837	0.95685
2540.55457	0.95740
2538.50077	0.95785
2536.44696	0.95787
2534.39316	0.95751
2532.33936	0.95699
2530.28555	0.95683
2528.23175	0.95713
2526.17795	0.95722
2524.12414	0.95720
2522.07034	0.95773
2520.01654	0.95807
2517.96273	0.95775
2515.90893	0.95766
2513.85513	0.95800
2511.80132	0.95831
2509.74752	0.95821
2507.69372	0.95775
2505.63992	0.95775
2503.58611	0.95828
2501.53231	0.95864
2499.47851	0.95869
2497.42470	0.95856
2495.37090	0.95855
2493.31710	0.95877
2491.26329	0.95907
2489.20949	0.95908
2487.15569	0.95844
2485.10188	0.95802
2483.04808	0.95860
2480.99428	0.95915
2478.94047	0.95899
2476.88667	0.95875
2474.83287	0.95852
2472.77906	0.95844
2470.72526	0.95891
2468.67146	0.95939
2466.61765	0.95952
2464.56385	0.95961
2462.51005	0.95964
2460.45624	0.95933
2458.40244	0.95880
2456.34864	0.95863
2454.29483	0.95868
2452.24103	0.95843
2450.18723	0.95836
2448.13343	0.95887
2446.07962	0.95943
2444.02582	0.95945
2441.97202	0.95919
2439.91821	0.95913
2437.86441	0.95909
2435.81061	0.95901
2433.75680	0.95898
2431.70300	0.95918
2429.64920	0.95969
2427.59539	0.95987
2425.54159	0.95938
2423.48779	0.95886
2421.43398	0.95891
2419.38018	0.95919
2417.32638	0.95943
2415.27257	0.95957
2413.21877	0.95954
2411.16497	0.95961
2409.11116	0.96009
2407.05736	0.96046
2405.00356	0.96011
2402.94975	0.95963
2400.89595	0.95938
2398.84215	0.95919
2396.78834	0.95950
2394.73454	0.96034
2392.68074	0.96098
2390.62694	0.96103
2388.57313	0.96069
2386.51933	0.96034
2384.46553	0.95997
2382.41172	0.95953
2380.35792	0.95937
2378.30412	0.95943
2376.25031	0.95922
2374.19651	0.95880
2372.14271	0.95829
2370.08890	0.95805
2368.03510	0.95851
2365.98130	0.95934
2363.92749	0.96048
2361.87369	0.96081
2359.81989	0.95930
2357.76608	0.95745
2355.71228	0.95733
2353.65848	0.95899
2351.60467	0.95998
2349.55087	0.95979
2347.49707	0.95978
2345.44326	0.96006
2343.38946	0.95961
2341.33566	0.95850
2339.28186	0.95812
2337.22805	0.95863
2335.17425	0.95911
2333.12045	0.95928
2331.06664	0.95934
2329.01284	0.95933
2326.95904	0.95888
2324.90523	0.95838
2322.85143	0.95861
2320.79763	0.95871
2318.74382	0.95823
2316.69002	0.95848
2314.63622	0.95961
2312.58241	0.96066
2310.52861	0.96099
2308.47481	0.96078
2306.42100	0.96025
2304.36720	0.95978
2302.31340	0.96007
2300.25959	0.96057
2298.20579	0.96050
2296.15199	0.96041
2294.09818	0.96070
2292.04438	0.96064
2289.99058	0.96008
2287.93677	0.95988
2285.88297	0.95988
2283.82917	0.95953
2281.77537	0.95899
2279.72156	0.95842
2277.66776	0.95801
2275.61396	0.95828
2273.56015	0.95877
2271.50635	0.95930
2269.45255	0.96056
2267.39874	0.96146
2265.34494	0.96113
2263.29114	0.96064
2261.23733	0.96092
2259.18353	0.96156
2257.12973	0.96154
2255.07592	0.96114
2253.02212	0.96119
2250.96832	0.96213
2248.91451	0.96386
2246.86071	0.96441
2244.80691	0.96288
2242.75310	0.96139
2240.69930	0.96171
2238.64550	0.96316
2236.59169	0.96324
2234.53789	0.96163
2232.48409	0.96081
2230.43029	0.96194
2228.37648	0.96350
2226.32268	0.96321
2224.26888	0.96211
2222.21507	0.96216
2220.16127	0.96211
2218.10747	0.96190
2216.05366	0.96281
2213.99986	0.96324
2211.94606	0.96166
2209.89225	0.96035
2207.83845	0.96106
2205.78465	0.96125
2203.73084	0.95950
2201.67704	0.95863
2199.62324	0.96108
2197.56943	0.96461
2195.51563	0.96534
2193.46183	0.96320
2191.40802	0.96137
2189.35422	0.96233
2187.30042	0.96429
2185.24661	0.96457
2183.19281	0.96490
2181.13901	0.96588
2179.08520	0.96474
2177.03140	0.96264
2174.97760	0.96219
2172.92380	0.96202
2170.86999	0.96127
2168.81619	0.96091
2166.76239	0.96123
2164.70858	0.96291
2162.65478	0.96494
2160.60098	0.96527
2158.54717	0.96632
2156.49337	0.96771
2154.43957	0.96624
2152.38576	0.96406
2150.33196	0.96284
2148.27816	0.96190
2146.22435	0.96202
2144.17055	0.96350
2142.11675	0.96443
2140.06294	0.96448
2138.00914	0.96459
2135.95534	0.96476
2133.90153	0.96472
2131.84773	0.96473
2129.79393	0.96454
2127.74012	0.96395
2125.68632	0.96446
2123.63252	0.96583
2121.57871	0.96535
2119.52491	0.96337
2117.47111	0.96236
2115.41731	0.96257
2113.36350	0.96321
2111.30970	0.96353
2109.25590	0.96284
2107.20209	0.96153
2105.14829	0.96044
2103.09449	0.96076
2101.04068	0.96165
2098.98688	0.96178
2096.93308	0.96258
2094.87927	0.96442
2092.82547	0.96589
2090.77167	0.96561
2088.71786	0.96356
2086.66406	0.96209
2084.61026	0.96202
2082.55645	0.96282
2080.50265	0.96402
2078.44885	0.96439
2076.39504	0.96430
2074.34124	0.96471
2072.28744	0.96496
2070.23363	0.96376
2068.17983	0.96176
2066.12603	0.96035
2064.07223	0.95961
2062.01842	0.95985
2059.96462	0.96072
2057.91082	0.96120
2055.85701	0.96170
2053.80321	0.96282
2051.74941	0.96361
2049.69560	0.96369
2047.64180	0.96411
2045.58800	0.96430
2043.53419	0.96371
2041.48039	0.96372
2039.42659	0.96486
2037.37278	0.96661
2035.31898	0.96728
2033.26518	0.96592
2031.21137	0.96553
2029.15757	0.96652
2027.10377	0.96652
2025.04996	0.96531
2022.99616	0.96247
2020.94236	0.96035
2018.88855	0.96312
2016.83475	0.96722
2014.78095	0.96677
2012.72714	0.96486
2010.67334	0.96419
2008.61954	0.96340
2006.56574	0.96413
2004.51193	0.96635
2002.45813	0.96726
2000.40433	0.96685
1998.35052	0.96530
1996.29672	0.96384
1994.24292	0.96520
1992.18911	0.96801
1990.13531	0.96939
1988.08151	0.97014
1986.02770	0.97018
1983.97390	0.96794
1981.92010	0.96589
1979.86629	0.96619
1977.81249	0.96753
1975.75869	0.96855
1973.70488	0.96697
1971.65108	0.96357
1969.59728	0.96208
1967.54347	0.96296
1965.48967	0.96482
1963.43587	0.96738
1961.38206	0.97015
1959.32826	0.97102
1957.27446	0.96964
1955.22066	0.96754
1953.16685	0.96547
1951.11305	0.96461
1949.05925	0.96561
1947.00544	0.96752
1944.95164	0.96886
1942.89784	0.96885
1940.84403	0.96802
1938.79023	0.96724
1936.73643	0.96676
1934.68262	0.96660
1932.62882	0.96668
1930.57502	0.96663
1928.52121	0.96652
1926.46741	0.96648
1924.41361	0.96670
1922.35980	0.96775
1920.30600	0.96812
1918.25220	0.96643
1916.19839	0.96481
1914.14459	0.96498
1912.09079	0.96567
1910.03698	0.96593
1907.98318	0.96614
1905.92938	0.96650
1903.87557	0.96670
1901.82177	0.96648
1899.76797	0.96587
1897.71417	0.96591
1895.66036	0.96702
1893.60656	0.96752
1891.55276	0.96720
1889.49895	0.96722
1887.44515	0.96725
1885.39135	0.96678
1883.33754	0.96618
1881.28374	0.96591
1879.22994	0.96590
1877.17613	0.96598
1875.12233	0.96577
1873.06853	0.96533
1871.01472	0.96480
1868.96092	0.96404
1866.90712	0.96386
1864.85331	0.96479
1862.79951	0.96592
1860.74571	0.96643
1858.69190	0.96638
1856.63810	0.96635
1854.58430	0.96643
1852.53049	0.96643
1850.47669	0.96640
1848.42289	0.96634
1846.36908	0.96634
1844.31528	0.96609
1842.26148	0.96576
1840.20768	0.96584
1838.15387	0.96593
1836.10007	0.96602
1834.04627	0.96648
1831.99246	0.96717
1829.93866	0.96766
1827.88486	0.96784
1825.83105	0.96785
1823.77725	0.96731
1821.72345	0.96656
1819.66964	0.96612
1817.61584	0.96582
1815.56204	0.96588
1813.50823	0.96644
1811.45443	0.96686
1809.40063	0.96675
1807.34682	0.96644
1805.29302	0.96600
1803.23922	0.96515
1801.18541	0.96443
1799.13161	0.96481
1797.07781	0.96563
1795.02400	0.96580
1792.97020	0.96565
1790.91640	0.96604
1788.86260	0.96657
1786.80879	0.96664
1784.75499	0.96652
1782.70119	0.96655
1780.64738	0.96639
1778.59358	0.96594
1776.53978	0.96605
1774.48597	0.96674
1772.43217	0.96655
1770.37837	0.96518
1768.32456	0.96447
1766.27076	0.96453
1764.21696	0.96454
1762.16315	0.96415
1760.10935	0.96358
1758.05555	0.96297
1756.00174	0.96196
1753.94794	0.96090
1751.89414	0.96009
1749.84033	0.95926
1747.78653	0.95843
1745.73273	0.95774
1743.67892	0.95720
1741.62512	0.95674
1739.57132	0.95593
1737.51751	0.95488
1735.46371	0.95432
1733.40991	0.95443
1731.35611	0.95461
1729.30230	0.95451
1727.24850	0.95436
1725.19470	0.95445
1723.14089	0.95470
1721.08709	0.95499
1719.03329	0.95551
1716.97948	0.95601
1714.92568	0.95581
1712.87188	0.95535
1710.81807	0.95511
1708.76427	0.95515
1706.71047	0.95532
1704.65666	0.95549
1702.60286	0.95548
1700.54906	0.95462
1698.49525	0.95336
1696.44145	0.95295
1694.38765	0.95249
1692.33384	0.95184
1690.28004	0.95123
1688.22624	0.95039
1686.17243	0.94931
1684.11863	0.94742
1682.06483	0.94517
1680.01103	0.94379
1677.95722	0.94292
1675.90342	0.94188
1673.84962	0.94036
1671.79581	0.93880
1669.74201	0.93715
1667.68821	0.93551
1665.63440	0.93421
1663.58060	0.93291
1661.52680	0.93146
1659.47299	0.93021
1657.41919	0.92919
1655.36539	0.92806
1653.31158	0.92627
1651.25778	0.92527
1649.20398	0.92532
1647.15017	0.92505
1645.09637	0.92412
1643.04257	0.92337
1640.98876	0.92302
1638.93496	0.92287
1636.88116	0.92273
1634.82735	0.92244
1632.77355	0.92207
1630.71975	0.92187
1628.66594	0.92198
1626.61214	0.92239
1624.55834	0.92278
1622.50454	0.92298
1620.45073	0.92316
1618.39693	0.92344
1616.34313	0.92358
1614.28932	0.92331
1612.23552	0.92294
1610.18172	0.92255
1608.12791	0.92207
1606.07411	0.92170
1604.02031	0.92146
1601.96650	0.92105
1599.91270	0.92054
1597.85890	0.92012
1595.80509	0.91974
1593.75129	0.91949
1591.69749	0.91953
1589.64368	0.92016
1587.58988	0.92168
1585.53608	0.92370
1583.48227	0.92567
1581.42847	0.92741
1579.37467	0.92892
1577.32086	0.93070
1575.26706	0.93269
1573.21326	0.93380
1571.15945	0.93456
1569.10565	0.93569
1567.05185	0.93686
1564.99805	0.93779
1562.94424	0.93834
1560.89044	0.93870
1558.83664	0.93961
1556.78283	0.94003
1554.72903	0.94001
1552.67523	0.94025
1550.62142	0.94044
1548.56762	0.94052
1546.51382	0.94068
1544.46001	0.94098
1542.40621	0.94136
1540.35241	0.94173
1538.29860	0.94211
1536.24480	0.94237
1534.19100	0.94259
1532.13719	0.94290
1530.08339	0.94300
1528.02959	0.94261
1525.97578	0.94150
1523.92198	0.94000
1521.86818	0.93791
1519.81437	0.93501
1517.76057	0.93188
1515.70677	0.92827
1513.65297	0.92502
1511.59916	0.92243
1509.54536	0.92055
1507.49156	0.91947
1505.43775	0.91914
1503.38395	0.91999
1501.33015	0.92169
1499.27634	0.92402
1497.22254	0.92676
1495.16874	0.92884
1493.11493	0.93001
1491.06113	0.93125
1489.00733	0.93259
1486.95352	0.93301
1484.89972	0.93278
1482.84592	0.93245
1480.79211	0.93196
1478.73831	0.93112
1476.68451	0.92980
1474.63070	0.92760
1472.57690	0.92409
1470.52310	0.92069
1468.46929	0.91839
1466.41549	0.91616
1464.36169	0.91420
1462.30788	0.91371
1460.25408	0.91428
1458.20028	0.91461
1456.14648	0.91361
1454.09267	0.91270
1452.03887	0.91276
1449.98507	0.91342
1447.93126	0.91458
1445.87746	0.91633
1443.82366	0.91802
1441.76985	0.91888
1439.71605	0.91891
1437.66225	0.91808
1435.60844	0.91625
1433.55464	0.91432
1431.50084	0.91239
1429.44703	0.91021
1427.39323	0.90826
1425.33943	0.90688
1423.28562	0.90613
1421.23182	0.90628
1419.17802	0.90717
1417.12421	0.90828
1415.07041	0.90975
1413.01661	0.91165
1410.96280	0.91360
1408.90900	0.91527
1406.85520	0.91660
1404.80139	0.91782
1402.74759	0.91910
1400.69379	0.92029
1398.63999	0.92118
1396.58618	0.92188
1394.53238	0.92261
1392.47858	0.92299
1390.42477	0.92291
1388.37097	0.92252
1386.31717	0.92159
1384.26336	0.92038
1382.20956	0.91938
1380.15576	0.91845
1378.10195	0.91744
1376.04815	0.91657
1373.99435	0.91578
1371.94054	0.91493
1369.88674	0.91439
1367.83294	0.91457
1365.77913	0.91519
1363.72533	0.91589
1361.67153	0.91672
1359.61772	0.91762
1357.56392	0.91851
1355.51012	0.91916
1353.45631	0.91949
1351.40251	0.91998
1349.34871	0.92065
1347.29491	0.92089
1345.24110	0.92061
1343.18730	0.92017
1341.13350	0.91963
1339.07969	0.91849
1337.02589	0.91699
1334.97209	0.91605
1332.91828	0.91548
1330.86448	0.91487
1328.81068	0.91450
1326.75687	0.91444
1324.70307	0.91433
1322.64927	0.91379
1320.59546	0.91285
1318.54166	0.91210
1316.48786	0.91198
1314.43405	0.91236
1312.38025	0.91329
1310.32645	0.91492
1308.27264	0.91688
1306.21884	0.91860
1304.16504	0.92007
1302.11123	0.92160
1300.05743	0.92312
1298.00363	0.92428
1295.94982	0.92492
1293.89602	0.92504
1291.84222	0.92464
1289.78842	0.92383
1287.73461	0.92268
1285.68081	0.92128
1283.62701	0.91974
1281.57320	0.91804
1279.51940	0.91616
1277.46560	0.91391
1275.41179	0.91144
1273.35799	0.90908
1271.30419	0.90698
1269.25038	0.90529
1267.19658	0.90412
1265.14278	0.90332
1263.08897	0.90269
1261.03517	0.90259
1258.98137	0.90327
1256.92756	0.90424
1254.87376	0.90513
1252.81996	0.90596
1250.76615	0.90650
1248.71235	0.90666
1246.65855	0.90695
1244.60474	0.90751
1242.55094	0.90794
1240.49714	0.90813
1238.44334	0.90824
1236.38953	0.90811
1234.33573	0.90771
1232.28193	0.90732
1230.22812	0.90716
1228.17432	0.90705
1226.12052	0.90680
1224.06671	0.90668
1222.01291	0.90689
1219.95911	0.90715
1217.90530	0.90740
1215.85150	0.90769
1213.79770	0.90787
1211.74389	0.90763
1209.69009	0.90710
1207.63629	0.90679
1205.58248	0.90665
1203.52868	0.90642
1201.47488	0.90624
1199.42107	0.90623
1197.36727	0.90661
1195.31347	0.90722
1193.25966	0.90728
1191.20586	0.90664
1189.15206	0.90588
1187.09825	0.90504
1185.04445	0.90357
1182.99065	0.90149
1180.93685	0.89893
1178.88304	0.89572
1176.82924	0.89187
1174.77544	0.88722
1172.72163	0.88145
1170.66783	0.87457
1168.61403	0.86695
1166.56022	0.85913
1164.50642	0.85187
1162.45262	0.84647
1160.39881	0.84371
1158.34501	0.84286
1156.29121	0.84272
1154.23740	0.84267
1152.18360	0.84278
1150.12980	0.84307
1148.07599	0.84281
1146.02219	0.84174
1143.96839	0.84047
1141.91458	0.83936
1139.86078	0.83817
1137.80698	0.83653
1135.75317	0.83402
1133.69937	0.83074
1131.64557	0.82712
1129.59176	0.82274
1127.53796	0.81737
1125.48416	0.81190
1123.43036	0.80709
1121.37655	0.80236
1119.32275	0.79721
1117.26895	0.79182
1115.21514	0.78569
1113.16134	0.77889
1111.10754	0.77272
1109.05373	0.76789
1106.99993	0.76434
1104.94613	0.76183
1102.89232	0.75987
1100.83852	0.75853
1098.78472	0.75798
1096.73091	0.75743
1094.67711	0.75604
1092.62331	0.75409
1090.56950	0.75244
1088.51570	0.75109
1086.46190	0.74932
1084.40809	0.74693
1082.35429	0.74402
1080.30049	0.74043
1078.24668	0.73648
1076.19288	0.73271
1074.13908	0.72906
1072.08528	0.72466
1070.03147	0.71887
1067.97767	0.71207
1065.92387	0.70439
1063.87006	0.69556
1061.81626	0.68592
1059.76246	0.67652
1057.70865	0.66828
1055.65485	0.66109
1053.60105	0.65469
1051.54724	0.64904
1049.49344	0.64389
1047.43964	0.63873
1045.38583	0.63308
1043.33203	0.62661
1041.27823	0.61882
1039.22442	0.60941
1037.17062	0.59937
1035.11682	0.59016
1033.06301	0.58230
1031.00921	0.57601
1028.95541	0.57166
1026.90160	0.56906
1024.84780	0.56738
1022.79400	0.56615
1020.74019	0.56548
1018.68639	0.56550
1016.63259	0.56584
1014.57879	0.56597
1012.52498	0.56548
1010.47118	0.56455
1008.41738	0.56350
1006.36357	0.56249
1004.30977	0.56168
1002.25597	0.56117
1000.20216	0.56146
998.14836	0.56269
996.09456	0.56426
994.04075	0.56594
991.98695	0.56764
989.93315	0.56940
987.87934	0.57155
985.82554	0.57437
983.77174	0.57882
981.71793	0.58541
979.66413	0.59323
977.61033	0.60149
975.55652	0.61001
973.50272	0.61880
971.44892	0.62804
969.39511	0.63733
967.34131	0.64610
965.28751	0.65504
963.23371	0.66450
961.17990	0.67354
959.12610	0.68185
957.07230	0.68998
955.01849	0.69824
952.96469	0.70634
950.91089	0.71340
948.85708	0.71915
946.80328	0.72458
944.74948	0.73021
942.69567	0.73542
940.64187	0.73987
938.58807	0.74411
936.53426	0.74852
934.48046	0.75264
932.42666	0.75612
930.37285	0.75936
928.31905	0.76284
926.26525	0.76606
924.21144	0.76838
922.15764	0.77021
920.10384	0.77171
918.05003	0.77252
915.99623	0.77261
913.94243	0.77236
911.88862	0.77278
909.83482	0.77435
907.78102	0.77646
905.72722	0.77880
903.67341	0.78137
901.61961	0.78384
899.56581	0.78603
897.51200	0.78843
895.45820	0.79202
893.40440	0.79664
891.35059	0.80115
889.29679	0.80542
887.24299	0.80997
885.18918	0.81446
883.13538	0.81790
881.08158	0.82000
879.02777	0.82165
876.97397	0.82383
874.92017	0.82634
872.86636	0.82906
870.81256	0.83223
868.75876	0.83501
866.70495	0.83683
864.65115	0.83814
862.59735	0.83939
860.54354	0.84097
858.48974	0.84269
856.43594	0.84426
854.38213	0.84632
852.32833	0.84888
850.27453	0.85106
848.22073	0.85299
846.16692	0.85462
844.11312	0.85533
842.05932	0.85556
840.00551	0.85523
837.95171	0.85419
835.89791	0.85358
833.84410	0.85319
831.79030	0.85202
829.73650	0.85098
827.68269	0.85087
825.62889	0.85110
823.57509	0.85137
821.52128	0.85162
819.46748	0.85164
817.41368	0.85147
815.35987	0.85130
813.30607	0.85125
811.25227	0.85078
809.19846	0.84883
807.14466	0.84526
805.09086	0.84059
803.03705	0.83557
800.98325	0.83153
798.92945	0.82895
796.87565	0.82778
794.82184	0.82848
792.76804	0.83016
790.71424	0.83105
788.66043	0.83112
786.60663	0.83110
784.55283	0.83062
782.49902	0.82930
780.44522	0.82722
778.39142	0.82516
776.33761	0.82476
774.28381	0.82605
772.23001	0.82746
770.17620	0.82814
768.12240	0.82809
766.06860	0.82692
764.01479	0.82508
761.96099	0.82358
759.90719	0.82224
757.85338	0.82108
755.79958	0.82061
753.74578	0.82052
751.69197	0.81981
749.63817	0.81843
747.58437	0.81732
745.53056	0.81700
743.47676	0.81751
741.42296	0.81834
739.36916	0.81908
737.31535	0.81989
735.26155	0.82056
733.20775	0.82008
731.15394	0.81871
729.10014	0.81753
727.04634	0.81601
724.99253	0.81422
722.93873	0.81339
720.88493	0.81306
718.83112	0.81264
716.77732	0.81278
714.72352	0.81276
712.66971	0.81208
710.61591	0.81168
708.56211	0.81143
706.50830	0.81047
704.45450	0.80822
702.40070	0.80537
700.34689	0.80320
698.29309	0.80124
696.23929	0.79867
694.18548	0.79666
692.13168	0.79620
690.07788	0.79638
688.02408	0.79600
685.97027	0.79435
683.91647	0.79231
681.86267	0.79083
679.80886	0.78930
677.75506	0.78759
675.70126	0.78580
673.64745	0.78368
671.59365	0.78155
669.53985	0.77915
667.48604	0.77628
665.43224	0.77490
663.37844	0.77417
661.32463	0.77243
659.27083	0.76983
657.21703	0.76793
655.16322	0.76681
653.10942	0.76486
651.05562	0.76212
649.00181	0.76055
646.94801	0.76021
644.89421	0.75983
642.84040	0.75994
640.78660	0.76061
638.73280	0.76080
636.67899	0.76064
634.62519	0.76057
632.57139	0.76045
630.51759	0.76015
628.46378	0.75884
626.40998	0.75657
624.35618	0.75404
622.30237	0.75067
620.24857	0.74665
618.19477	0.74319
616.14096	0.74040
614.08716	0.73789
612.03336	0.73583
609.97955	0.73389
607.92575	0.73173
605.87195	0.72972
603.81814	0.72779
601.76434	0.72546
599.71054	0.72306
597.65673	0.72069
595.60293	0.71757
593.54913	0.71475
591.49532	0.71272
589.44152	0.71061
587.38772	0.71017
585.33391	0.71089
583.28011	0.70938
581.22631	0.70666
579.17250	0.70472
577.11870	0.70262
575.06490	0.70071
573.01110	0.69982
570.95729	0.69812
568.90349	0.69467
566.84969	0.69138
564.79588	0.68805
562.74208	0.68296
560.68828	0.67695
558.63447	0.67174
556.58067	0.66778
554.52687	0.66434
552.47306	0.66018
550.41926	0.65520
548.36546	0.65057
546.31165	0.64652
544.25785	0.64262
542.20405	0.63776
540.15024	0.63065
538.09644	0.62188
536.04264	0.61330
533.98883	0.60673
531.93503	0.60264
529.88123	0.60028
527.82742	0.59953
525.77362	0.60000
523.71982	0.59987
521.66602	0.59922
519.61221	0.60046
517.55841	0.60447
515.50461	0.60942
513.45080	0.61377
511.39700	0.61713
509.34320	0.61970
507.28939	0.62247
505.23559	0.62535
503.18179	0.62713
501.12798	0.62739
499.07418	0.62709
497.02038	0.62576
494.96657	0.62289
492.91277	0.62075
490.85897	0.61873
488.80516	0.61310
486.75136	0.60331
484.69756	0.59121
482.64375	0.57884
480.58995	0.56726
478.53615	0.55692
476.48234	0.54807
474.42854	0.53954
472.37474	0.53075
470.32093	0.52298
468.26713	0.51633
466.21333	0.51119
464.15953	0.50895
462.10572	0.50904
460.05192	0.51166
457.99812	0.51614
455.94431	0.51849
453.89051	0.51959
451.83671	0.52272
449.78290	0.52733
447.72910	0.53060
445.67530	0.53191
443.62149	0.53203
441.56769	0.53014
439.51389	0.52877
437.46008	0.52914
435.40628	0.52717
433.35248	0.52290
431.29867	0.52079
429.24487	0.52030
427.19107	0.51826
425.13726	0.51751
423.08346	0.52173
421.02966	0.52648
418.97585	0.52746
416.92205	0.52759
414.86825	0.52768
412.81445	0.52773
410.76064	0.53099
408.70684	0.53774
406.65304	0.54420
404.59923	0.54630
402.54543	0.54202
400.49163	0.53409
398.43782	0.52779
