3996.71440	0.98792
3994.66059	0.98805
3992.60678	0.98830
3990.55297	0.98843
3988.49916	0.98839
3986.44535	0.98839
3984.39154	0.98842
3982.33773	0.98836
3980.28391	0.98840
3978.23010	0.98853
3976.17629	0.98847
3974.12248	0.98825
3972.06867	0.98819
3970.01486	0.98833
3967.96105	0.98849
3965.90724	0.98829
3963.85343	0.98804
3961.79962	0.98835
3959.74581	0.98883
3957.69200	0.98905
3955.63819	0.98902
3953.58438	0.98874
3951.53057	0.98857
3949.47676	0.98880
3947.42295	0.98904
3945.36914	0.98884
3943.31533	0.98829
3941.26152	0.98793
3939.20771	0.98797
3937.15390	0.98826
3935.10009	0.98857
3933.04628	0.98865
3930.99247	0.98881
3928.93866	0.98904
3926.88485	0.98887
3924.83104	0.98861
3922.77723	0.98871
3920.72342	0.98877
3918.66961	0.98843
3916.61580	0.98822
3914.56199	0.98860
3912.50818	0.98901
3910.45437	0.98907
3908.40056	0.98900
3906.34675	0.98903
3904.29294	0.98893
3902.23913	0.98849
3900.18532	0.98830
3898.13151	0.98856
3896.07770	0.98860
3894.02389	0.98819
3891.97008	0.98765
3889.91627	0.98749
3887.86246	0.98776
3885.80865	0.98818
3883.75484	0.98843
3881.70103	0.98830
3879.64722	0.98817
3877.59341	0.98853
3875.53960	0.98888
3873.48579	0.98845
3871.43198	0.98754
3869.37817	0.98724
3867.32436	0.98774
3865.27055	0.98838
3863.21674	0.98894
3861.16293	0.98919
3859.10912	0.98915
3857.05531	0.98907
3855.00150	0.98900
3852.94769	0.98898
3850.89388	0.98867
3848.84007	0.98831
3846.78626	0.98823
3844.73245	0.98839
3842.67864	0.98846
3840.62483	0.98828
3838.57102	0.98819
3836.51721	0.98818
3834.46340	0.98817
3832.40959	0.98833
3830.35578	0.98867
3828.30197	0.98878
3826.24816	0.98866
3824.19435	0.98873
3822.14054	0.98879
3820.08673	0.98856
3818.03292	0.98835
3815.97911	0.98827
3813.92530	0.98832
3811.87149	0.98841
3809.81768	0.98849
3807.76387	0.98846
3805.71006	0.98806
3803.65625	0.98733
3801.60244	0.98690
3799.54863	0.98728
3797.49482	0.98801
3795.44101	0.98862
3793.38720	0.98880
3791.33339	0.98873
3789.27958	0.98870
3787.22577	0.98848
3785.17196	0.98821
3783.11815	0.98827
3781.06434	0.98833
3779.01053	0.98824
3776.95672	0.98845
3774.90291	0.98869
3772.84910	0.98872
3770.79529	0.98887
3768.74148	0.98901
3766.68767	0.98889
3764.63386	0.98851
3762.58005	0.98798
3760.52624	0.98764
3758.47243	0.98779
3756.41862	0.98835
3754.36481	0.98897
3752.31100	0.98926
3750.25719	0.98894
3748.20338	0.98851
3746.14957	0.98827
3744.09576	0.98817
3742.04195	0.98823
3739.98814	0.98807
3737.93433	0.98751
3735.88052	0.98667
3733.82671	0.98662
3731.77290	0.98762
3729.71909	0.98845
3727.66528	0.98873
3725.61147	0.98858
3723.55766	0.98824
3721.50385	0.98831
3719.45004	0.98857
3717.39623	0.98847
3715.34242	0.98825
3713.28861	0.98806
3711.23480	0.98781
3709.18099	0.98788
3707.12718	0.98814
3705.07337	0.98828
3703.01956	0.98836
3700.96575	0.98841
3698.91194	0.98844
3696.85813	0.98836
3694.80432	0.98805
3692.75051	0.98761
3690.69670	0.98721
3688.64289	0.98721
3686.58907	0.98745
3684.53526	0.98755
3682.48145	0.98759
3680.42764	0.98735
3678.37383	0.98673
3676.32002	0.98617
3674.26621	0.98596
3672.21240	0.98573
3670.15859	0.98544
3668.10478	0.98570
3666.05097	0.98620
3663.99716	0.98659
3661.94335	0.98681
3659.88954	0.98666
3657.83573	0.98644
3655.78192	0.98619
3653.72811	0.98573
3651.67430	0.98538
3649.62049	0.98515
3647.56668	0.98493
3645.51287	0.98479
3643.45906	0.98468
3641.40525	0.98467
3639.35144	0.98481
3637.29763	0.98470
3635.24382	0.98419
3633.19001	0.98362
3631.13620	0.98291
3629.08239	0.98210
3627.02858	0.98229
3624.97477	0.98298
3622.92096	0.98316
3620.86715	0.98273
3618.81334	0.98219
3616.75953	0.98183
3614.70572	0.98127
3612.65191	0.98070
3610.59810	0.98061
3608.54429	0.98081
3606.49048	0.98101
3604.43667	0.98106
3602.38286	0.98058
3600.32905	0.97976
3598.27524	0.97944
3596.22143	0.97957
3594.16762	0.97974
3592.11381	0.97975
3590.06000	0.97957
3588.00619	0.97919
3585.95238	0.97858
3583.89857	0.97799
3581.84476	0.97759
3579.79095	0.97756
3577.73714	0.97772
3575.68333	0.97763
3573.62952	0.97718
3571.57571	0.97668
3569.52190	0.97622
3567.46809	0.97558
3565.41428	0.97511
3563.36047	0.97530
3561.30666	0.97559
3559.25285	0.97553
3557.19904	0.97528
3555.14523	0.97497
3553.09142	0.97448
3551.03761	0.97399
3548.98380	0.97368
3546.92999	0.97319
3544.87618	0.97284
3542.82237	0.97297
3540.76856	0.97301
3538.71475	0.97283
3536.66094	0.97287
3534.60713	0.97292
3532.55332	0.97271
3530.49951	0.97240
3528.44570	0.97211
3526.39189	0.97199
3524.33808	0.97190
3522.28427	0.97175
3520.23046	0.97177
3518.17665	0.97171
3516.12284	0.97126
3514.06903	0.97084
3512.01522	0.97079
3509.96141	0.97064
3507.90760	0.97023
3505.85379	0.96992
3503.79998	0.96959
3501.74617	0.96943
3499.69236	0.96968
3497.63855	0.96974
3495.58474	0.96948
3493.53093	0.96928
3491.47712	0.96916
3489.42331	0.96899
3487.36950	0.96862
3485.31569	0.96814
3483.26188	0.96779
3481.20807	0.96784
3479.15426	0.96822
3477.10045	0.96822
3475.04664	0.96771
3472.99283	0.96724
3470.93902	0.96720
3468.88521	0.96734
3466.83140	0.96740
3464.77759	0.96747
3462.72378	0.96719
3460.66997	0.96676
3458.61616	0.96679
3456.56235	0.96690
3454.50854	0.96685
3452.45473	0.96682
3450.40092	0.96681
3448.34711	0.96683
3446.29330	0.96669
3444.23949	0.96642
3442.18568	0.96633
3440.13187	0.96630
3438.07806	0.96618
3436.02425	0.96604
3433.97044	0.96590
3431.91663	0.96566
3429.86282	0.96540
3427.80901	0.96525
3425.75520	0.96526
3423.70139	0.96531
3421.64758	0.96528
3419.59377	0.96509
3417.53996	0.96493
3415.48615	0.96495
3413.43234	0.96494
3411.37853	0.96477
3409.32472	0.96467
3407.27091	0.96465
3405.21710	0.96454
3403.16329	0.96460
3401.10948	0.96490
3399.05567	0.96507
3397.00186	0.96506
3394.94805	0.96513
3392.89424	0.96518
3390.84042	0.96516
3388.78661	0.96509
3386.73280	0.96496
3384.67899	0.96490
3382.62518	0.96499
3380.57137	0.96517
3378.51756	0.96531
3376.46375	0.96547
3374.40994	0.96562
3372.35613	0.96568
3370.30232	0.96561
3368.24851	0.96550
3366.19470	0.96560
3364.14089	0.96566
3362.08708	0.96557
3360.03327	0.96563
3357.97946	0.96578
3355.92565	0.96585
3353.87184	0.96596
3351.81803	0.96623
3349.76422	0.96656
3347.71041	0.96684
3345.65660	0.96713
3343.60279	0.96734
3341.54898	0.96717
3339.49517	0.96679
3337.44136	0.96662
3335.38755	0.96672
3333.33374	0.96700
3331.27993	0.96729
3329.22612	0.96725
3327.17231	0.96700
3325.11850	0.96688
3323.06469	0.96699
3321.01088	0.96728
3318.95707	0.96765
3316.90326	0.96793
3314.84945	0.96810
3312.79564	0.96832
3310.74183	0.96827
3308.68802	0.96797
3306.63421	0.96794
3304.58040	0.96813
3302.52659	0.96832
3300.47278	0.96828
3298.41897	0.96799
3296.36516	0.96799
3294.31135	0.96822
3292.25754	0.96841
3290.20373	0.96859
3288.14992	0.96876
3286.09611	0.96892
3284.04230	0.96891
3281.98849	0.96881
3279.93468	0.96890
3277.88087	0.96919
3275.82706	0.96941
3273.77325	0.96949
3271.71944	0.96953
3269.66563	0.96952
3267.61182	0.96945
3265.55801	0.96948
3263.50420	0.96973
3261.45039	0.96998
3259.39658	0.97007
3257.34277	0.97017
3255.28896	0.97029
3253.23515	0.97041
3251.18134	0.97056
3249.12753	0.97071
3247.07372	0.97094
3245.01991	0.97106
3242.96610	0.97091
3240.91229	0.97073
3238.85848	0.97058
3236.80467	0.97061
3234.75086	0.97093
3232.69705	0.97136
3230.64324	0.97167
3228.58943	0.97165
3226.53562	0.97124
3224.48181	0.97085
3222.42800	0.97083
3220.37419	0.97100
3218.32038	0.97112
3216.26657	0.97124
3214.21276	0.97152
3212.15895	0.97182
3210.10514	0.97190
3208.05133	0.97199
3205.99752	0.97228
3203.94371	0.97245
3201.88990	0.97248
3199.83609	0.97254
3197.78228	0.97263
3195.72847	0.97285
3193.67466	0.97314
3191.62085	0.97332
3189.56704	0.97339
3187.51323	0.97324
3185.45942	0.97313
3183.40561	0.97337
3181.35180	0.97363
3179.29799	0.97395
3177.24418	0.97434
3175.19037	0.97434
3173.13656	0.97421
3171.08275	0.97434
3169.02894	0.97450
3166.97513	0.97457
3164.92132	0.97475
3162.86751	0.97493
3160.81370	0.97485
3158.75989	0.97473
3156.70608	0.97482
3154.65227	0.97493
3152.59846	0.97505
3150.54465	0.97535
3148.49084	0.97575
3146.43703	0.97595
3144.38322	0.97607
3142.32941	0.97637
3140.27560	0.97662
3138.22179	0.97660
3136.16798	0.97646
3134.11417	0.97651
3132.06036	0.97693
3130.00655	0.97731
3127.95274	0.97730
3125.89893	0.97720
3123.84512	0.97733
3121.79131	0.97757
3119.73750	0.97782
3117.68369	0.97817
3115.62988	0.97845
3113.57607	0.97852
3111.52226	0.97846
3109.46845	0.97836
3107.41464	0.97826
3105.36083	0.97814
3103.30702	0.97822
3101.25321	0.97854
3099.19940	0.97873
3097.14559	0.97879
3095.09177	0.97905
3093.03796	0.97941
3090.98415	0.97941
3088.93034	0.97919
3086.87653	0.97915
3084.82272	0.97915
3082.76891	0.97911
3080.71510	0.97926
3078.66129	0.97959
3076.60748	0.97964
3074.55367	0.97928
3072.49986	0.97907
3070.44605	0.97923
3068.39224	0.97955
3066.33843	0.97985
3064.28462	0.98001
3062.23081	0.98001
3060.17700	0.97990
3058.12319	0.97973
3056.06938	0.97965
3054.01557	0.97970
3051.96176	0.97966
3049.90795	0.97957
3047.85414	0.97972
3045.80033	0.97998
3043.74652	0.98023
3041.69271	0.98049
3039.63890	0.98048
3037.58509	0.98029
3035.53128	0.98023
3033.47747	0.98009
3031.42366	0.97998
3029.36985	0.98013
3027.31604	0.98023
3025.26223	0.98009
3023.20842	0.97989
3021.15461	0.97969
3019.10080	0.97944
3017.04699	0.97928
3014.99318	0.97916
3012.93937	0.97883
3010.88556	0.97842
3008.83175	0.97812
3006.77794	0.97776
3004.72413	0.97706
3002.67032	0.97624
3000.61651	0.97564
2998.56270	0.97492
2996.50889	0.97380
2994.45508	0.97243
2992.40127	0.97087
2990.34746	0.96914
2988.29365	0.96706
2986.23984	0.96446
2984.18603	0.96121
2982.13222	0.95676
2980.07841	0.95080
2978.02460	0.94324
2975.97079	0.93364
2973.91698	0.92135
2971.86317	0.90572
2969.80936	0.88672
2967.75555	0.86471
2965.70174	0.84026
2963.64793	0.81589
2961.59412	0.79711
2959.54031	0.78787
2957.48650	0.78466
2955.43269	0.77903
2953.37888	0.76714
2951.32507	0.75474
2949.27126	0.75178
2947.21745	0.76338
2945.16364	0.78633
2943.10983	0.81257
2941.05602	0.83403
2939.00221	0.84611
2936.94840	0.84842
2934.89459	0.84223
2932.84078	0.82881
2930.78697	0.80995
2928.73316	0.78809
2926.67935	0.76595
2924.62554	0.74571
2922.57173	0.72763
2920.51792	0.71161
2918.46411	0.70074
2916.41030	0.70013
2914.35649	0.71064
2912.30268	0.72686
2910.24887	0.74242
2908.19506	0.75503
2906.14125	0.76622
2904.08744	0.77837
2902.03363	0.79215
2899.97982	0.80631
2897.92601	0.81957
2895.87220	0.83094
2893.81839	0.83954
2891.76458	0.84502
2889.71077	0.84761
2887.65696	0.84812
2885.60315	0.84724
2883.54934	0.84511
2881.49553	0.84211
2879.44172	0.83926
2877.38791	0.83794
2875.33410	0.83855
2873.28029	0.83896
2871.22648	0.83667
2869.17267	0.83210
2867.11886	0.82932
2865.06505	0.83421
2863.01124	0.84926
2860.95743	0.86956
2858.90362	0.88719
2856.84981	0.89820
2854.79600	0.90350
2852.74219	0.90479
2850.68838	0.90240
2848.63457	0.89573
2846.58076	0.88414
2844.52695	0.86822
2842.47314	0.85035
2840.41933	0.83524
2838.36552	0.82918
2836.31171	0.83639
2834.25790	0.85546
2832.20409	0.87944
2830.15028	0.90104
2828.09647	0.91712
2826.04266	0.92799
2823.98885	0.93522
2821.93504	0.94045
2819.88123	0.94452
2817.82742	0.94775
2815.77361	0.95043
2813.71980	0.95271
2811.66599	0.95462
2809.61218	0.95616
2807.55837	0.95755
2805.50456	0.95921
2803.45075	0.96110
2801.39693	0.96284
2799.34312	0.96407
2797.28931	0.96479
2795.23550	0.96549
2793.18169	0.96632
2791.12788	0.96713
2789.07407	0.96815
2787.02026	0.96942
2784.96645	0.97052
2782.91264	0.97120
2780.85883	0.97175
2778.80502	0.97242
2776.75121	0.97302
2774.69740	0.97336
2772.64359	0.97364
2770.58978	0.97404
2768.53597	0.97439
2766.48216	0.97457
2764.42835	0.97478
2762.37454	0.97517
2760.32073	0.97568
2758.26692	0.97600
2756.21311	0.97598
2754.15930	0.97589
2752.10549	0.97595
2750.05168	0.97611
2747.99787	0.97610
2745.94406	0.97600
2743.89025	0.97588
2741.83644	0.97553
2739.78263	0.97512
2737.72882	0.97484
2735.67501	0.97457
2733.62120	0.97423
2731.56739	0.97389
2729.51358	0.97341
2727.45977	0.97263
2725.40596	0.97166
2723.35215	0.97101
2721.29834	0.97118
2719.24453	0.97188
2717.19072	0.97275
2715.13691	0.97379
2713.08310	0.97462
2711.02929	0.97497
2708.97548	0.97524
2706.92167	0.97570
2704.86786	0.97625
2702.81405	0.97679
2700.76024	0.97720
2698.70643	0.97746
2696.65262	0.97749
2694.59881	0.97741
2692.54500	0.97747
2690.49119	0.97756
2688.43738	0.97742
2686.38357	0.97721
2684.32976	0.97715
2682.27595	0.97709
2680.22214	0.97704
2678.16833	0.97725
2676.11452	0.97759
2674.06071	0.97775
2672.00690	0.97778
2669.95309	0.97780
2667.89928	0.97779
2665.84547	0.97771
2663.79166	0.97756
2661.73785	0.97736
2659.68404	0.97733
2657.63023	0.97746
2655.57642	0.97751
2653.52261	0.97765
2651.46880	0.97805
2649.41499	0.97834
2647.36118	0.97819
2645.30737	0.97792
2643.25356	0.97805
2641.19975	0.97842
2639.14594	0.97863
2637.09213	0.97888
2635.03832	0.97910
2632.98451	0.97914
2630.93070	0.97914
2628.87689	0.97911
2626.82308	0.97892
2624.76927	0.97873
2622.71546	0.97883
2620.66165	0.97910
2618.60784	0.97920
2616.55403	0.97910
2614.50022	0.97883
2612.44641	0.97853
2610.39260	0.97861
2608.33879	0.97907
2606.28498	0.97948
2604.23117	0.97967
2602.17736	0.97976
2600.12355	0.98002
2598.06974	0.98034
2596.01593	0.98047
2593.96212	0.98044
2591.90831	0.98034
2589.85450	0.98030
2587.80069	0.98026
2585.74688	0.98005
2583.69307	0.97988
2581.63926	0.98009
2579.58545	0.98031
2577.53164	0.98044
2575.47783	0.98074
2573.42402	0.98078
2571.37021	0.98060
2569.31640	0.98076
2567.26259	0.98114
2565.20878	0.98134
2563.15497	0.98135
2561.10116	0.98142
2559.04735	0.98155
2556.99354	0.98160
2554.93973	0.98168
2552.88592	0.98188
2550.83211	0.98200
2548.77830	0.98172
2546.72449	0.98128
2544.67068	0.98141
2542.61687	0.98183
2540.56306	0.98183
2538.50925	0.98162
2536.45544	0.98157
2534.40163	0.98162
2532.34782	0.98205
2530.29401	0.98284
2528.24020	0.98305
2526.18639	0.98278
2524.13258	0.98276
2522.07877	0.98294
2520.02496	0.98307
2517.97115	0.98309
2515.91734	0.98303
2513.86353	0.98301
2511.80972	0.98316
2509.75591	0.98353
2507.70210	0.98380
2505.64828	0.98345
2503.59447	0.98297
2501.54066	0.98298
2499.48685	0.98303
2497.43304	0.98298
2495.37923	0.98312
2493.32542	0.98322
2491.27161	0.98329
2489.21780	0.98348
2487.16399	0.98351
2485.11018	0.98340
2483.05637	0.98348
2481.00256	0.98367
2478.94875	0.98362
2476.89494	0.98353
2474.84113	0.98373
2472.78732	0.98395
2470.73351	0.98397
2468.67970	0.98382
2466.62589	0.98360
2464.57208	0.98340
2462.51827	0.98340
2460.46446	0.98361
2458.41065	0.98364
2456.35684	0.98336
2454.30303	0.98302
2452.24922	0.98306
2450.19541	0.98343
2448.14160	0.98352
2446.08779	0.98337
2444.03398	0.98348
2441.98017	0.98366
2439.92636	0.98348
2437.87255	0.98335
2435.81874	0.98348
2433.76493	0.98350
2431.71112	0.98336
2429.65731	0.98328
2427.60350	0.98324
2425.54969	0.98326
2423.49588	0.98365
2421.44207	0.98415
2419.38826	0.98430
2417.33445	0.98413
2415.28064	0.98377
2413.22683	0.98353
2411.17302	0.98366
2409.11921	0.98404
2407.06540	0.98423
2405.01159	0.98419
2402.95778	0.98420
2400.90397	0.98427
2398.85016	0.98428
2396.79635	0.98440
2394.74254	0.98450
2392.68873	0.98413
2390.63492	0.98363
2388.58111	0.98348
2386.52730	0.98345
2384.47349	0.98341
2382.41968	0.98340
2380.36587	0.98338
2378.31206	0.98335
2376.25825	0.98342
2374.20444	0.98390
2372.15063	0.98422
2370.09682	0.98386
2368.04301	0.98358
2365.98920	0.98348
2363.93539	0.98333
2361.88158	0.98363
2359.82777	0.98419
2357.77396	0.98453
2355.72015	0.98462
2353.66634	0.98452
2351.61253	0.98422
2349.55872	0.98391
2347.50491	0.98371
2345.45110	0.98347
2343.39729	0.98300
2341.34348	0.98252
2339.28967	0.98248
2337.23586	0.98295
2335.18205	0.98352
2333.12824	0.98377
2331.07443	0.98374
2329.02062	0.98333
2326.96681	0.98270
2324.91300	0.98208
2322.85919	0.98154
2320.80538	0.98182
2318.75157	0.98269
2316.69776	0.98303
2314.64395	0.98300
2312.59014	0.98301
2310.53633	0.98292
2308.48252	0.98300
2306.42871	0.98330
2304.37490	0.98350
2302.32109	0.98341
2300.26728	0.98328
2298.21347	0.98328
2296.15966	0.98319
2294.10585	0.98298
2292.05204	0.98249
2289.99823	0.98196
2287.94442	0.98208
2285.89061	0.98250
2283.83680	0.98265
2281.78299	0.98276
2279.72918	0.98271
2277.67537	0.98261
2275.62156	0.98332
2273.56775	0.98446
2271.51394	0.98482
2269.46013	0.98457
2267.40632	0.98424
2265.35251	0.98398
2263.29870	0.98371
2261.24489	0.98304
2259.19108	0.98270
2257.13727	0.98340
2255.08346	0.98374
2253.02965	0.98316
2250.97584	0.98313
2248.92203	0.98397
2246.86822	0.98430
2244.81441	0.98385
2242.76060	0.98355
2240.70679	0.98377
2238.65298	0.98390
2236.59917	0.98363
2234.54536	0.98311
2232.49155	0.98253
2230.43774	0.98303
2228.38393	0.98452
2226.33012	0.98478
2224.27631	0.98376
2222.22250	0.98356
2220.16869	0.98452
2218.11488	0.98460
2216.06107	0.98346
2214.00726	0.98324
2211.95344	0.98440
2209.89963	0.98534
2207.84582	0.98514
2205.79201	0.98452
2203.73820	0.98469
2201.68439	0.98620
2199.63058	0.98782
2197.57677	0.98738
2195.52296	0.98578
2193.46915	0.98495
2191.41534	0.98439
2189.36153	0.98367
2187.30772	0.98355
2185.25391	0.98290
2183.20010	0.98164
2181.14629	0.98251
2179.09248	0.98396
2177.03867	0.98351
2174.98486	0.98297
2172.93105	0.98361
2170.87724	0.98420
2168.82343	0.98336
2166.76962	0.98165
2164.71581	0.98021
2162.66200	0.97944
2160.60819	0.98042
2158.55438	0.98330
2156.50057	0.98515
2154.44676	0.98532
2152.39295	0.98521
2150.33914	0.98487
2148.28533	0.98464
2146.23152	0.98424
2144.17771	0.98354
2142.12390	0.98340
2140.07009	0.98371
2138.01628	0.98447
2135.96247	0.98583
2133.90866	0.98674
2131.85485	0.98683
2129.80104	0.98668
2127.74723	0.98635
2125.69342	0.98627
2123.63961	0.98632
2121.58580	0.98563
2119.53199	0.98498
2117.47818	0.98522
2115.42437	0.98503
2113.37056	0.98394
2111.31675	0.98340
2109.26294	0.98377
2107.20913	0.98403
2105.15532	0.98394
2103.10151	0.98405
2101.04770	0.98440
2098.99389	0.98476
2096.94008	0.98505
2094.88627	0.98496
2092.83246	0.98478
2090.77865	0.98503
2088.72484	0.98525
2086.67103	0.98505
2084.61722	0.98471
2082.56341	0.98430
2080.50960	0.98382
2078.45579	0.98331
2076.40198	0.98303
2074.34817	0.98387
2072.29436	0.98524
2070.24055	0.98524
2068.18674	0.98451
2066.13293	0.98440
2064.07912	0.98443
2062.02531	0.98459
2059.97150	0.98549
2057.91769	0.98572
2055.86388	0.98468
2053.81007	0.98406
2051.75626	0.98379
2049.70245	0.98378
2047.64864	0.98427
2045.59483	0.98386
2043.54102	0.98345
2041.48721	0.98474
2039.43340	0.98594
2037.37959	0.98543
2035.32578	0.98512
2033.27197	0.98596
2031.21816	0.98606
2029.16435	0.98456
2027.11054	0.98333
2025.05673	0.98424
2023.00292	0.98525
2020.94911	0.98432
2018.89530	0.98341
2016.84149	0.98419
2014.78768	0.98515
2012.73387	0.98452
2010.68006	0.98410
2008.62625	0.98576
2006.57244	0.98709
2004.51863	0.98663
2002.46482	0.98548
2000.41101	0.98409
1998.35720	0.98360
1996.30339	0.98434
1994.24958	0.98446
1992.19577	0.98359
1990.14196	0.98340
1988.08815	0.98402
1986.03434	0.98467
1983.98053	0.98550
1981.92672	0.98582
1979.87291	0.98524
1977.81910	0.98506
1975.76529	0.98550
1973.71148	0.98586
1971.65767	0.98620
1969.60386	0.98671
1967.55005	0.98758
1965.49624	0.98812
1963.44243	0.98681
1961.38862	0.98473
1959.33481	0.98510
1957.28100	0.98756
1955.22719	0.98862
1953.17338	0.98744
1951.11957	0.98613
1949.06576	0.98615
1947.01195	0.98707
1944.95814	0.98718
1942.90433	0.98607
1940.85052	0.98520
1938.79671	0.98504
1936.74290	0.98520
1934.68909	0.98551
1932.63528	0.98541
1930.58147	0.98484
1928.52766	0.98442
1926.47385	0.98453
1924.42004	0.98469
1922.36623	0.98405
1920.31242	0.98329
1918.25861	0.98356
1916.20479	0.98435
1914.15098	0.98479
1912.09717	0.98485
1910.04336	0.98483
1907.98955	0.98504
1905.93574	0.98544
1903.88193	0.98560
1901.82812	0.98516
1899.77431	0.98431
1897.72050	0.98359
1895.66669	0.98367
1893.61288	0.98426
1891.55907	0.98449
1889.50526	0.98433
1887.45145	0.98388
1885.39764	0.98337
1883.34383	0.98344
1881.29002	0.98402
1879.23621	0.98446
1877.18240	0.98456
1875.12859	0.98424
1873.07478	0.98390
1871.02097	0.98408
1868.96716	0.98428
1866.91335	0.98401
1864.85954	0.98382
1862.80573	0.98379
1860.75192	0.98387
1858.69811	0.98400
1856.64430	0.98400
1854.59049	0.98397
1852.53668	0.98373
1850.48287	0.98344
1848.42906	0.98356
1846.37525	0.98378
1844.32144	0.98377
1842.26763	0.98382
1840.21382	0.98401
1838.16001	0.98390
1836.10620	0.98343
1834.05239	0.98322
1831.99858	0.98304
1829.94477	0.98227
1827.89096	0.98161
1825.83715	0.98184
1823.78334	0.98260
1821.72953	0.98299
1819.67572	0.98305
1817.62191	0.98331
1815.56810	0.98342
1813.51429	0.98308
1811.46048	0.98257
1809.40667	0.98213
1807.35286	0.98176
1805.29905	0.98161
1803.24524	0.98170
1801.19143	0.98175
1799.13762	0.98161
1797.08381	0.98108
1795.03000	0.98025
1792.97619	0.97946
1790.92238	0.97884
1788.86857	0.97850
1786.81476	0.97807
1784.76095	0.97727
1782.70714	0.97646
1780.65333	0.97583
1778.59952	0.97533
1776.54571	0.97497
1774.49190	0.97457
1772.43809	0.97381
1770.38428	0.97289
1768.33047	0.97239
1766.27666	0.97236
1764.22285	0.97238
1762.16904	0.97199
1760.11523	0.97136
1758.06142	0.97081
1756.00761	0.97024
1753.95380	0.96973
1751.89999	0.96910
1749.84618	0.96815
1747.79237	0.96741
1745.73856	0.96704
1743.68475	0.96662
1741.63094	0.96602
1739.57713	0.96554
1737.52332	0.96529
1735.46951	0.96466
1733.41570	0.96358
1731.36189	0.96309
1729.30808	0.96289
1727.25427	0.96250
1725.20046	0.96179
1723.14665	0.96072
1721.09284	0.95969
1719.03903	0.95887
1716.98522	0.95809
1714.93141	0.95742
1712.87760	0.95692
1710.82379	0.95671
1708.76998	0.95682
1706.71617	0.95717
1704.66236	0.95779
1702.60855	0.95852
1700.55474	0.95962
1698.50093	0.96100
1696.44712	0.96208
1694.39331	0.96330
1692.33950	0.96438
1690.28569	0.96508
1688.23188	0.96557
1686.17807	0.96595
1684.12426	0.96618
1682.07045	0.96625
1680.01664	0.96623
1677.96283	0.96624
1675.90902	0.96633
1673.85521	0.96639
1671.80140	0.96632
1669.74759	0.96618
1667.69378	0.96602
1665.63997	0.96575
1663.58616	0.96534
1661.53235	0.96494
1659.47854	0.96470
1657.42473	0.96447
1655.37092	0.96402
1653.31711	0.96334
1651.26330	0.96339
1649.20949	0.96386
1647.15568	0.96426
1645.10187	0.96461
1643.04806	0.96485
1640.99425	0.96518
1638.94044	0.96574
1636.88663	0.96630
1634.83282	0.96664
1632.77901	0.96706
1630.72520	0.96760
1628.67139	0.96822
1626.61758	0.96892
1624.56377	0.96940
1622.50996	0.96971
1620.45614	0.97017
1618.40233	0.97060
1616.34852	0.97092
1614.29471	0.97136
1612.24090	0.97175
1610.18709	0.97192
1608.13328	0.97203
1606.07947	0.97212
1604.02566	0.97224
1601.97185	0.97250
1599.91804	0.97278
1597.86423	0.97289
1595.81042	0.97270
1593.75661	0.97230
1591.70280	0.97196
1589.64899	0.97181
1587.59518	0.97170
1585.54137	0.97151
1583.48756	0.97124
1581.43375	0.97078
1579.37994	0.97025
1577.32613	0.96977
1575.27232	0.96927
1573.21851	0.96890
1571.16470	0.96871
1569.11089	0.96878
1567.05708	0.96898
1565.00327	0.96897
1562.94946	0.96870
1560.89565	0.96829
1558.84184	0.96796
1556.78803	0.96817
1554.73422	0.96851
1552.68041	0.96860
1550.62660	0.96834
1548.57279	0.96808
1546.51898	0.96804
1544.46517	0.96809
1542.41136	0.96824
1540.35755	0.96890
1538.30374	0.97004
1536.24993	0.97066
1534.19612	0.97097
1532.14231	0.97141
1530.08850	0.97192
1528.03469	0.97231
1525.98088	0.97260
1523.92707	0.97283
1521.87326	0.97298
1519.81945	0.97322
1517.76564	0.97357
1515.71183	0.97393
1513.65802	0.97420
1511.60421	0.97425
1509.55040	0.97386
1507.49659	0.97326
1505.44278	0.97348
1503.38897	0.97402
1501.33516	0.97422
1499.28135	0.97408
1497.22754	0.97380
1495.17373	0.97352
1493.11992	0.97296
1491.06611	0.97194
1489.01230	0.97081
1486.95849	0.96984
1484.90468	0.96858
1482.85087	0.96663
1480.79706	0.96394
1478.74325	0.96052
1476.68944	0.95574
1474.63563	0.94815
1472.58182	0.93524
1470.52801	0.91906
1468.47420	0.90335
1466.42039	0.88512
1464.36658	0.86423
1462.31277	0.84883
1460.25896	0.84035
1458.20515	0.83377
1456.15134	0.82793
1454.09753	0.82560
1452.04372	0.82631
1449.98991	0.83201
1447.93610	0.84706
1445.88229	0.86894
1443.82848	0.88914
1441.77467	0.90387
1439.72086	0.91191
1437.66705	0.91446
1435.61324	0.91665
1433.55943	0.92394
1431.50562	0.93455
1429.45181	0.94401
1427.39800	0.94944
1425.34419	0.95211
1423.29038	0.95338
1421.23657	0.95383
1419.18276	0.95424
1417.12895	0.95497
1415.07514	0.95564
1413.02133	0.95596
1410.96752	0.95612
1408.91371	0.95628
1406.85990	0.95649
1404.80609	0.95660
1402.75228	0.95683
1400.69847	0.95690
1398.64466	0.95662
1396.59085	0.95639
1394.53704	0.95595
1392.48323	0.95498
1390.42942	0.95322
1388.37561	0.94898
1386.32180	0.93962
1384.26799	0.92338
1382.21418	0.89650
1380.16037	0.85344
1378.10656	0.80004
1376.05275	0.76472
1373.99894	0.77646
1371.94513	0.82277
1369.89132	0.86803
1367.83751	0.89844
1365.78370	0.91291
1363.72989	0.91595
1361.67608	0.91253
1359.62227	0.90898
1357.56846	0.91092
1355.51465	0.91900
1353.46084	0.92927
1351.40703	0.93774
1349.35322	0.94375
1347.29941	0.94786
1345.24560	0.95063
1343.19179	0.95253
1341.13798	0.95381
1339.08417	0.95481
1337.03036	0.95548
1334.97655	0.95540
1332.92274	0.95457
1330.86893	0.95355
1328.81512	0.95326
1326.76130	0.95411
1324.70749	0.95557
1322.65368	0.95686
1320.59987	0.95765
1318.54606	0.95817
1316.49225	0.95863
1314.43844	0.95883
1312.38463	0.95856
1310.33082	0.95754
1308.27701	0.95509
1306.22320	0.95153
1304.16939	0.94921
1302.11558	0.94954
1300.06177	0.95101
1298.00796	0.95201
1295.95415	0.95263
1293.90034	0.95349
1291.84653	0.95468
1289.79272	0.95575
1287.73891	0.95664
1285.68510	0.95750
1283.63129	0.95815
1281.57748	0.95840
1279.52367	0.95845
1277.46986	0.95852
1275.41605	0.95863
1273.36224	0.95876
1271.30843	0.95879
1269.25462	0.95861
1267.20081	0.95819
1265.14700	0.95753
1263.09319	0.95651
1261.03938	0.95484
1258.98557	0.95243
1256.93176	0.95011
1254.87795	0.94953
1252.82414	0.95104
1250.77033	0.95309
1248.71652	0.95455
1246.66271	0.95544
1244.60890	0.95579
1242.55509	0.95574
1240.50128	0.95564
1238.44747	0.95561
1236.39366	0.95549
1234.33985	0.95535
1232.28604	0.95533
1230.23223	0.95520
1228.17842	0.95459
1226.12461	0.95359
1224.07080	0.95261
1222.01699	0.95165
1219.96318	0.95080
1217.90937	0.95040
1215.85556	0.95041
1213.80175	0.95067
1211.74794	0.95096
1209.69413	0.95111
1207.64032	0.95109
1205.58651	0.95092
1203.53270	0.95072
1201.47889	0.95053
1199.42508	0.95029
1197.37127	0.94991
1195.31746	0.94935
1193.26365	0.94870
1191.20984	0.94801
1189.15603	0.94713
1187.10222	0.94602
1185.04841	0.94489
1182.99460	0.94395
1180.94079	0.94313
1178.88698	0.94183
1176.83317	0.93914
1174.77936	0.93415
1172.72555	0.92629
1170.67174	0.91593
1168.61793	0.90625
1166.56412	0.90227
1164.51031	0.90518
1162.45650	0.91129
1160.40269	0.91704
1158.34888	0.92121
1156.29507	0.92368
1154.24126	0.92511
1152.18745	0.92662
1150.13364	0.92885
1148.07983	0.93177
1146.02602	0.93460
1143.97221	0.93672
1141.91840	0.93837
1139.86459	0.93970
1137.81078	0.94047
1135.75697	0.94089
1133.70316	0.94121
1131.64935	0.94162
1129.59554	0.94222
1127.54173	0.94293
1125.48792	0.94353
1123.43411	0.94392
1121.38030	0.94416
1119.32649	0.94435
1117.27268	0.94440
1115.21887	0.94420
1113.16506	0.94385
1111.11125	0.94365
1109.05744	0.94349
1107.00363	0.94292
1104.94982	0.94197
1102.89601	0.94165
1100.84220	0.94266
1098.78839	0.94452
1096.73458	0.94643
1094.68077	0.94802
1092.62696	0.94929
1090.57315	0.95022
1088.51934	0.95104
1086.46553	0.95197
1084.41172	0.95261
1082.35791	0.95287
1080.30410	0.95319
1078.25029	0.95378
1076.19648	0.95466
1074.14267	0.95538
1072.08886	0.95566
1070.03505	0.95581
1067.98124	0.95593
1065.92743	0.95594
1063.87362	0.95585
1061.81981	0.95594
1059.76600	0.95635
1057.71219	0.95669
1055.65838	0.95659
1053.60457	0.95620
1051.55076	0.95570
1049.49695	0.95487
1047.44314	0.95386
1045.38933	0.95346
1043.33552	0.95401
1041.28171	0.95504
1039.22790	0.95607
1037.17409	0.95689
1035.12028	0.95753
1033.06647	0.95815
1031.01265	0.95879
1028.95884	0.95942
1026.90503	0.95983
1024.85122	0.95981
1022.79741	0.95960
1020.74360	0.95946
1018.68979	0.95936
1016.63598	0.95914
1014.58217	0.95875
1012.52836	0.95821
1010.47455	0.95761
1008.42074	0.95687
1006.36693	0.95492
1004.31312	0.95026
1002.25931	0.94117
1000.20550	0.92783
998.15169	0.91726
996.09788	0.91833
994.04407	0.92951
991.99026	0.94166
989.93645	0.94943
987.88264	0.95283
985.82883	0.95338
983.77502	0.95203
981.72121	0.94845
979.66740	0.94186
977.61359	0.93187
975.55978	0.91917
973.50597	0.90891
971.45216	0.90950
969.39835	0.92140
967.34454	0.93520
965.29073	0.94423
963.23692	0.94916
961.18311	0.95208
959.12930	0.95388
957.07549	0.95514
955.02168	0.95589
952.96787	0.95598
950.91406	0.95591
948.86025	0.95601
946.80644	0.95589
944.75263	0.95543
942.69882	0.95488
940.64501	0.95462
938.59120	0.95516
936.53739	0.95663
934.48358	0.95834
932.42977	0.95947
930.37596	0.96010
928.32215	0.96051
926.26834	0.96053
924.21453	0.96034
922.16072	0.96042
920.10691	0.96057
918.05310	0.96041
915.99929	0.96019
913.94548	0.95998
911.89167	0.95954
909.83786	0.95907
907.78405	0.95863
905.73024	0.95746
903.67643	0.95436
901.62262	0.94956
899.56881	0.94593
897.51500	0.94634
895.46119	0.95008
893.40738	0.95404
891.35357	0.95650
889.29976	0.95791
887.24595	0.95873
885.19214	0.95902
883.13833	0.95933
881.08452	0.95998
879.03071	0.96043
876.97690	0.96041
874.92309	0.96021
872.86928	0.96002
870.81547	0.95998
868.76166	0.95990
866.70785	0.95933
864.65404	0.95851
862.60023	0.95808
860.54642	0.95807
858.49261	0.95813
856.43880	0.95779
854.38499	0.95702
852.33118	0.95622
850.27737	0.95498
848.22356	0.95182
846.16975	0.94469
844.11594	0.93144
842.06213	0.91658
840.00832	0.91371
837.95451	0.92592
835.90070	0.93978
833.84689	0.94700
831.79308	0.94983
829.73927	0.95119
827.68546	0.95206
825.63165	0.95249
823.57784	0.95261
821.52403	0.95256
819.47022	0.95217
817.41641	0.95090
815.36260	0.94800
813.30879	0.94381
811.25498	0.93975
809.20117	0.93758
807.14736	0.93859
805.09355	0.94198
803.03974	0.94570
800.98593	0.94873
798.93212	0.95051
796.87831	0.95116
794.82450	0.95192
792.77069	0.95305
790.71688	0.95401
788.66307	0.95462
786.60926	0.95496
784.55545	0.95541
782.50164	0.95608
780.44783	0.95646
778.39402	0.95648
776.34021	0.95654
774.28640	0.95648
772.23259	0.95609
770.17878	0.95563
768.12497	0.95528
766.07116	0.95489
764.01735	0.95473
761.96354	0.95512
759.90973	0.95551
757.85592	0.95535
755.80211	0.95493
753.74830	0.95477
751.69449	0.95505
749.64068	0.95534
747.58687	0.95545
745.53306	0.95537
743.47925	0.95457
741.42544	0.95305
739.37163	0.95165
737.31781	0.95091
735.26400	0.95069
733.21019	0.95065
731.15638	0.95064
729.10257	0.95069
727.04876	0.95088
724.99495	0.95150
722.94114	0.95220
720.88733	0.95225
718.83352	0.95223
716.77971	0.95310
714.72590	0.95377
712.67209	0.95328
710.61828	0.95253
708.56447	0.95220
706.51066	0.95229
704.45685	0.95257
702.40304	0.95267
700.34923	0.95276
698.29542	0.95303
696.24161	0.95319
694.18780	0.95295
692.13399	0.95206
690.08018	0.95128
688.02637	0.95167
685.97256	0.95243
683.91875	0.95270
681.86494	0.95256
679.81113	0.95180
677.75732	0.95121
675.70351	0.95147
673.64970	0.95127
671.59589	0.95036
669.54208	0.94974
667.48827	0.95018
665.43446	0.95120
663.38065	0.95166
661.32684	0.95156
659.27303	0.95156
657.21922	0.95167
655.16541	0.95127
653.11160	0.95009
651.05779	0.94876
649.00398	0.94828
646.95017	0.94817
644.89636	0.94766
642.84255	0.94735
640.78874	0.94762
638.73493	0.94774
636.68112	0.94734
634.62731	0.94669
632.57350	0.94623
630.51969	0.94583
628.46588	0.94470
626.41207	0.94368
624.35826	0.94404
622.30445	0.94488
620.25064	0.94511
618.19683	0.94439
616.14302	0.94306
614.08921	0.94242
612.03540	0.94302
609.98159	0.94369
607.92778	0.94385
605.87397	0.94451
603.82016	0.94552
601.76635	0.94581
599.71254	0.94594
597.65873	0.94596
595.60492	0.94505
593.55111	0.94406
591.49730	0.94410
589.44349	0.94533
587.38968	0.94666
585.33587	0.94709
583.28206	0.94682
581.22825	0.94579
579.17444	0.94431
577.12063	0.94357
575.06682	0.94372
573.01301	0.94415
570.95920	0.94413
568.90539	0.94401
566.85158	0.94493
564.79777	0.94595
562.74396	0.94566
560.69015	0.94414
558.63634	0.94254
556.58253	0.94280
554.52872	0.94442
552.47491	0.94507
550.42110	0.94507
548.36729	0.94546
546.31348	0.94584
544.25967	0.94585
542.20586	0.94486
540.15205	0.94316
538.09824	0.94219
536.04443	0.94207
533.99062	0.94188
531.93681	0.94135
529.88300	0.94119
527.82919	0.94115
525.77538	0.94070
523.72157	0.94076
521.66776	0.94154
519.61395	0.94243
517.56014	0.94342
515.50633	0.94406
513.45252	0.94356
511.39871	0.94313
509.34490	0.94418
507.29109	0.94570
505.23728	0.94644
503.18347	0.94668
501.12966	0.94618
499.07585	0.94482
497.02204	0.94365
494.96823	0.94293
492.91442	0.94326
490.86061	0.94509
488.80680	0.94618
486.75299	0.94509
484.69918	0.94344
482.64537	0.94285
480.59156	0.94367
478.53775	0.94494
476.48394	0.94443
474.43013	0.94257
472.37632	0.94263
470.32251	0.94469
468.26870	0.94539
466.21489	0.94336
464.16108	0.93990
462.10727	0.93676
460.05346	0.93476
457.99965	0.93309
455.94584	0.93268
453.89203	0.93452
451.83822	0.93676
449.78441	0.93807
447.73060	0.93905
445.67679	0.94061
443.62298	0.94202
441.56916	0.94291
439.51535	0.94325
437.46154	0.94266
435.40773	0.94291
433.35392	0.94419
431.30011	0.94513
429.24630	0.94664
427.19249	0.94779
425.13868	0.94810
423.08487	0.95025
421.03106	0.95189
418.97725	0.95027
416.92344	0.94832
414.86963	0.94621
412.81582	0.94496
410.76201	0.94598
408.70820	0.94678
406.65439	0.94592
404.60058	0.94521
402.54677	0.94593
400.49296	0.94749
398.43915	0.94956
