3996.70104	0.99326
3994.64724	0.99348
3992.59344	0.99356
3990.53964	0.99353
3988.48583	0.99323
3986.43203	0.99322
3984.37823	0.99378
3982.32442	0.99408
3980.27062	0.99375
3978.21682	0.99340
3976.16301	0.99351
3974.10921	0.99374
3972.05541	0.99337
3970.00160	0.99266
3967.94780	0.99263
3965.89400	0.99324
3963.84019	0.99342
3961.78639	0.99322
3959.73259	0.99337
3957.67878	0.99359
3955.62498	0.99352
3953.57118	0.99338
3951.51737	0.99318
3949.46357	0.99300
3947.40977	0.99317
3945.35596	0.99372
3943.30216	0.99416
3941.24836	0.99412
3939.19455	0.99372
3937.14075	0.99323
3935.08695	0.99295
3933.03315	0.99288
3930.97934	0.99288
3928.92554	0.99320
3926.87174	0.99369
3924.81793	0.99380
3922.76413	0.99364
3920.71033	0.99391
3918.65652	0.99457
3916.60272	0.99480
3914.54892	0.99407
3912.49511	0.99335
3910.44131	0.99352
3908.38751	0.99392
3906.33370	0.99394
3904.27990	0.99401
3902.22610	0.99380
3900.17229	0.99345
3898.11849	0.99373
3896.06469	0.99344
3894.01088	0.99251
3891.95708	0.99217
3889.90328	0.99274
3887.84947	0.99334
3885.79567	0.99357
3883.74187	0.99341
3881.68807	0.99318
3879.63426	0.99345
3877.58046	0.99366
3875.52666	0.99360
3873.47285	0.99410
3871.41905	0.99469
3869.36525	0.99445
3867.31144	0.99387
3865.25764	0.99350
3863.20384	0.99344
3861.15003	0.99395
3859.09623	0.99448
3857.04243	0.99414
3854.98862	0.99370
3852.93482	0.99496
3850.88102	0.99539
3848.82721	0.99444
3846.77341	0.99378
3844.71961	0.99337
3842.66580	0.99309
3840.61200	0.99303
3838.55820	0.99329
3836.50439	0.99400
3834.45059	0.99390
3832.39679	0.99329
3830.34298	0.99328
3828.28918	0.99360
3826.23538	0.99398
3824.18158	0.99428
3822.12777	0.99436
3820.07397	0.99437
3818.02017	0.99436
3815.96636	0.99442
3813.91256	0.99420
3811.85876	0.99366
3809.80495	0.99354
3807.75115	0.99399
3805.69735	0.99418
3803.64354	0.99412
3801.58974	0.99452
3799.53594	0.99462
3797.48213	0.99423
3795.42833	0.99401
3793.37453	0.99355
3791.32072	0.99305
3789.26692	0.99308
3787.21312	0.99311
3785.15931	0.99306
3783.10551	0.99348
3781.05171	0.99420
3778.99790	0.99473
3776.94410	0.99474
3774.89030	0.99415
3772.83650	0.99354
3770.78269	0.99373
3768.72889	0.99422
3766.67509	0.99410
3764.62128	0.99388
3762.56748	0.99358
3760.51368	0.99349
3758.45987	0.99427
3756.40607	0.99487
3754.35227	0.99470
3752.29846	0.99450
3750.24466	0.99437
3748.19086	0.99387
3746.13705	0.99353
3744.08325	0.99358
3742.02945	0.99322
3739.97564	0.99275
3737.92184	0.99300
3735.86804	0.99395
3733.81423	0.99395
3731.76043	0.99322
3729.70663	0.99345
3727.65282	0.99415
3725.59902	0.99436
3723.54522	0.99429
3721.49141	0.99455
3719.43761	0.99455
3717.38381	0.99386
3715.33001	0.99322
3713.27620	0.99317
3711.22240	0.99375
3709.16860	0.99436
3707.11479	0.99383
3705.06099	0.99236
3703.00719	0.99113
3700.95338	0.99136
3698.89958	0.99209
3696.84578	0.99194
3694.79197	0.99155
3692.73817	0.99129
3690.68437	0.99095
3688.63056	0.99113
3686.57676	0.99150
3684.52296	0.99173
3682.46915	0.99214
3680.41535	0.99236
3678.36155	0.99245
3676.30774	0.99324
3674.25394	0.99345
3672.20014	0.99212
3670.14633	0.99170
3668.09253	0.99204
3666.03873	0.99117
3663.98492	0.99009
3661.93112	0.98937
3659.87732	0.98863
3657.82352	0.98864
3655.76971	0.98962
3653.71591	0.98976
3651.66211	0.98867
3649.60830	0.98816
3647.55450	0.98944
3645.50070	0.98994
3643.44689	0.98935
3641.39309	0.98850
3639.33929	0.98812
3637.28548	0.98817
3635.23168	0.98810
3633.17788	0.98761
3631.12407	0.98683
3629.07027	0.98704
3627.01647	0.98800
3624.96266	0.98771
3622.90886	0.98699
3620.85506	0.98676
3618.80125	0.98707
3616.74745	0.98712
3614.69365	0.98739
3612.63984	0.98827
3610.58604	0.98798
3608.53224	0.98702
3606.47844	0.98661
3604.42463	0.98601
3602.37083	0.98551
3600.31703	0.98542
3598.26322	0.98524
3596.20942	0.98527
3594.15562	0.98555
3592.10181	0.98521
3590.04801	0.98466
3587.99421	0.98485
3585.94040	0.98525
3583.88660	0.98505
3581.83280	0.98425
3579.77899	0.98296
3577.72519	0.98234
3575.67139	0.98299
3573.61758	0.98384
3571.56378	0.98372
3569.50998	0.98300
3567.45617	0.98279
3565.40237	0.98301
3563.34857	0.98299
3561.29476	0.98281
3559.24096	0.98233
3557.18716	0.98149
3555.13335	0.98066
3553.07955	0.98021
3551.02575	0.97992
3548.97195	0.97977
3546.91814	0.98017
3544.86434	0.98044
3542.81054	0.98014
3540.75673	0.97986
3538.70293	0.97959
3536.64913	0.97962
3534.59532	0.97995
3532.54152	0.97993
3530.48772	0.97951
3528.43391	0.97927
3526.38011	0.97953
3524.32631	0.97973
3522.27250	0.97921
3520.21870	0.97863
3518.16490	0.97852
3516.11109	0.97809
3514.05729	0.97737
3512.00349	0.97694
3509.94968	0.97667
3507.89588	0.97632
3505.84208	0.97585
3503.78827	0.97555
3501.73447	0.97561
3499.68067	0.97579
3497.62687	0.97604
3495.57306	0.97623
3493.51926	0.97582
3491.46546	0.97524
3489.41165	0.97533
3487.35785	0.97564
3485.30405	0.97576
3483.25024	0.97607
3481.19644	0.97614
3479.14264	0.97525
3477.08883	0.97422
3475.03503	0.97384
3472.98123	0.97400
3470.92742	0.97424
3468.87362	0.97438
3466.81982	0.97473
3464.76601	0.97497
3462.71221	0.97445
3460.65841	0.97324
3458.60460	0.97231
3456.55080	0.97267
3454.49700	0.97355
3452.44319	0.97359
3450.38939	0.97301
3448.33559	0.97252
3446.28178	0.97225
3444.22798	0.97205
3442.17418	0.97192
3440.12038	0.97161
3438.06657	0.97090
3436.01277	0.97028
3433.95897	0.97007
3431.90516	0.97008
3429.85136	0.96994
3427.79756	0.96958
3425.74375	0.96918
3423.68995	0.96846
3421.63615	0.96753
3419.58234	0.96723
3417.52854	0.96748
3415.47474	0.96746
3413.42093	0.96725
3411.36713	0.96697
3409.31333	0.96631
3407.25952	0.96552
3405.20572	0.96501
3403.15192	0.96484
3401.09811	0.96483
3399.04431	0.96490
3396.99051	0.96487
3394.93670	0.96456
3392.88290	0.96420
3390.82910	0.96395
3388.77529	0.96362
3386.72149	0.96316
3384.66769	0.96294
3382.61389	0.96285
3380.56008	0.96250
3378.50628	0.96224
3376.45248	0.96243
3374.39867	0.96271
3372.34487	0.96275
3370.29107	0.96250
3368.23726	0.96191
3366.18346	0.96128
3364.12966	0.96118
3362.07585	0.96147
3360.02205	0.96124
3357.96825	0.96070
3355.91444	0.96066
3353.86064	0.96068
3351.80684	0.96042
3349.75303	0.95993
3347.69923	0.95951
3345.64543	0.95973
3343.59162	0.96026
3341.53782	0.96046
3339.48402	0.96043
3337.43021	0.96037
3335.37641	0.96013
3333.32261	0.95956
3331.26881	0.95908
3329.21500	0.95893
3327.16120	0.95906
3325.10740	0.95933
3323.05359	0.95939
3320.99979	0.95931
3318.94599	0.95927
3316.89218	0.95959
3314.83838	0.95999
3312.78458	0.95990
3310.73077	0.95984
3308.67697	0.96021
3306.62317	0.96050
3304.56936	0.96053
3302.51556	0.96058
3300.46176	0.96060
3298.40795	0.96049
3296.35415	0.96038
3294.30035	0.96001
3292.24654	0.95944
3290.19274	0.95924
3288.13894	0.95964
3286.08513	0.96040
3284.03133	0.96083
3281.97753	0.96063
3279.92372	0.96032
3277.86992	0.96062
3275.81612	0.96141
3273.76232	0.96173
3271.70851	0.96144
3269.65471	0.96125
3267.60091	0.96131
3265.54710	0.96134
3263.49330	0.96143
3261.43950	0.96162
3259.38569	0.96204
3257.33189	0.96263
3255.27809	0.96285
3253.22428	0.96295
3251.17048	0.96357
3249.11668	0.96418
3247.06287	0.96422
3245.00907	0.96392
3242.95527	0.96367
3240.90146	0.96393
3238.84766	0.96463
3236.79386	0.96526
3234.74005	0.96581
3232.68625	0.96617
3230.63245	0.96621
3228.57864	0.96630
3226.52484	0.96669
3224.47104	0.96714
3222.41724	0.96739
3220.36343	0.96747
3218.30963	0.96766
3216.25583	0.96810
3214.20202	0.96860
3212.14822	0.96879
3210.09442	0.96864
3208.04061	0.96849
3205.98681	0.96855
3203.93301	0.96891
3201.87920	0.96929
3199.82540	0.96949
3197.77160	0.97004
3195.71779	0.97075
3193.66399	0.97125
3191.61019	0.97157
3189.55638	0.97132
3187.50258	0.97072
3185.44878	0.97069
3183.39497	0.97108
3181.34117	0.97132
3179.28737	0.97147
3177.23356	0.97164
3175.17976	0.97190
3173.12596	0.97252
3171.07215	0.97340
3169.01835	0.97392
3166.96455	0.97383
3164.91075	0.97379
3162.85694	0.97426
3160.80314	0.97480
3158.74934	0.97516
3156.69553	0.97542
3154.64173	0.97546
3152.58793	0.97525
3150.53412	0.97522
3148.48032	0.97532
3146.42652	0.97525
3144.37271	0.97540
3142.31891	0.97615
3140.26511	0.97701
3138.21130	0.97740
3136.15750	0.97750
3134.10370	0.97764
3132.04989	0.97770
3129.99609	0.97754
3127.94229	0.97721
3125.88848	0.97697
3123.83468	0.97714
3121.78088	0.97751
3119.72707	0.97790
3117.67327	0.97837
3115.61947	0.97859
3113.56566	0.97829
3111.51186	0.97806
3109.45806	0.97811
3107.40426	0.97782
3105.35045	0.97739
3103.29665	0.97750
3101.24285	0.97781
3099.18904	0.97792
3097.13524	0.97783
3095.08144	0.97759
3093.02763	0.97742
3090.97383	0.97757
3088.92003	0.97805
3086.86622	0.97832
3084.81242	0.97799
3082.75862	0.97757
3080.70481	0.97726
3078.65101	0.97704
3076.59721	0.97716
3074.54340	0.97777
3072.48960	0.97860
3070.43580	0.97883
3068.38199	0.97829
3066.32819	0.97776
3064.27439	0.97760
3062.22058	0.97755
3060.16678	0.97768
3058.11298	0.97802
3056.05918	0.97806
3054.00537	0.97806
3051.95157	0.97852
3049.89777	0.97875
3047.84396	0.97868
3045.79016	0.97902
3043.73636	0.97928
3041.68255	0.97901
3039.62875	0.97886
3037.57495	0.97909
3035.52114	0.97932
3033.46734	0.97953
3031.41354	0.97995
3029.35973	0.98044
3027.30593	0.98071
3025.25213	0.98041
3023.19832	0.98007
3021.14452	0.98037
3019.09072	0.98065
3017.03691	0.98052
3014.98311	0.98044
3012.92931	0.98040
3010.87550	0.98032
3008.82170	0.98050
3006.76790	0.98075
3004.71409	0.98069
3002.66029	0.98054
3000.60649	0.98017
2998.55269	0.97932
2996.49888	0.97839
2994.44508	0.97794
2992.39128	0.97794
2990.33747	0.97793
2988.28367	0.97753
2986.22987	0.97661
2984.17606	0.97564
2982.12226	0.97480
2980.06846	0.97374
2978.01465	0.97266
2975.96085	0.97159
2973.90705	0.97026
2971.85324	0.96919
2969.79944	0.96836
2967.74564	0.96718
2965.69183	0.96594
2963.63803	0.96490
2961.58423	0.96393
2959.53042	0.96321
2957.47662	0.96277
2955.42282	0.96267
2953.36901	0.96329
2951.31521	0.96438
2949.26141	0.96514
2947.20761	0.96529
2945.15380	0.96537
2943.10000	0.96539
2941.04620	0.96517
2938.99239	0.96494
2936.93859	0.96470
2934.88479	0.96423
2932.83098	0.96361
2930.77718	0.96337
2928.72338	0.96376
2926.66957	0.96428
2924.61577	0.96436
2922.56197	0.96427
2920.50816	0.96454
2918.45436	0.96499
2916.40056	0.96547
2914.34675	0.96609
2912.29295	0.96691
2910.23915	0.96783
2908.18534	0.96857
2906.13154	0.96910
2904.07774	0.96978
2902.02393	0.97052
2899.97013	0.97086
2897.91633	0.97098
2895.86252	0.97111
2893.80872	0.97103
2891.75492	0.97121
2889.70112	0.97186
2887.64731	0.97214
2885.59351	0.97206
2883.53971	0.97197
2881.48590	0.97186
2879.43210	0.97160
2877.37830	0.97081
2875.32449	0.97008
2873.27069	0.97000
2871.21689	0.97000
2869.16308	0.97010
2867.10928	0.97057
2865.05548	0.97133
2863.00167	0.97214
2860.94787	0.97260
2858.89407	0.97293
2856.84026	0.97343
2854.78646	0.97398
2852.73266	0.97435
2850.67885	0.97449
2848.62505	0.97510
2846.57125	0.97642
2844.51744	0.97763
2842.46364	0.97837
2840.40984	0.97895
2838.35603	0.97955
2836.30223	0.98021
2834.24843	0.98086
2832.19463	0.98125
2830.14082	0.98114
2828.08702	0.98107
2826.03322	0.98161
2823.97941	0.98225
2821.92561	0.98244
2819.87181	0.98248
2817.81800	0.98277
2815.76420	0.98321
2813.71040	0.98344
2811.65659	0.98354
2809.60279	0.98365
2807.54899	0.98367
2805.49518	0.98367
2803.44138	0.98381
2801.38758	0.98432
2799.33377	0.98501
2797.27997	0.98521
2795.22617	0.98489
2793.17236	0.98474
2791.11856	0.98499
2789.06476	0.98534
2787.01095	0.98562
2784.95715	0.98569
2782.90335	0.98567
2780.84955	0.98586
2778.79574	0.98601
2776.74194	0.98612
2774.68814	0.98639
2772.63433	0.98644
2770.58053	0.98623
2768.52673	0.98623
2766.47292	0.98633
2764.41912	0.98627
2762.36532	0.98631
2760.31151	0.98665
2758.25771	0.98684
2756.20391	0.98664
2754.15010	0.98649
2752.09630	0.98654
2750.04250	0.98663
2747.98869	0.98671
2745.93489	0.98682
2743.88109	0.98712
2741.82728	0.98723
2739.77348	0.98701
2737.71968	0.98695
2735.66587	0.98716
2733.61207	0.98738
2731.55827	0.98746
2729.50446	0.98754
2727.45066	0.98776
2725.39686	0.98810
2723.34306	0.98843
2721.28925	0.98856
2719.23545	0.98858
2717.18165	0.98852
2715.12784	0.98835
2713.07404	0.98820
2711.02024	0.98799
2708.96643	0.98778
2706.91263	0.98778
2704.85883	0.98804
2702.80502	0.98837
2700.75122	0.98844
2698.69742	0.98837
2696.64361	0.98857
2694.58981	0.98884
2692.53601	0.98872
2690.48220	0.98850
2688.42840	0.98872
2686.37460	0.98907
2684.32079	0.98905
2682.26699	0.98901
2680.21319	0.98922
2678.15938	0.98929
2676.10558	0.98914
2674.05178	0.98904
2671.99797	0.98911
2669.94417	0.98931
2667.89037	0.98941
2665.83657	0.98935
2663.78276	0.98937
2661.72896	0.98941
2659.67516	0.98935
2657.62135	0.98934
2655.56755	0.98942
2653.51375	0.98929
2651.45994	0.98892
2649.40614	0.98865
2647.35234	0.98875
2645.29853	0.98881
2643.24473	0.98863
2641.19093	0.98871
2639.13712	0.98889
2637.08332	0.98899
2635.02952	0.98918
2632.97571	0.98912
2630.92191	0.98899
2628.86811	0.98912
2626.81430	0.98931
2624.76050	0.98968
2622.70670	0.99004
2620.65289	0.98994
2618.59909	0.98976
2616.54529	0.98970
2614.49149	0.98955
2612.43768	0.98957
2610.38388	0.98965
2608.33008	0.98964
2606.27627	0.98990
2604.22247	0.99023
2602.16867	0.99041
2600.11486	0.99072
2598.06106	0.99078
2596.00726	0.99040
2593.95345	0.98997
2591.89965	0.98993
2589.84585	0.99029
2587.79204	0.99060
2585.73824	0.99084
2583.68444	0.99073
2581.63063	0.99029
2579.57683	0.99012
2577.52303	0.98987
2575.46922	0.98940
2573.41542	0.98974
2571.36162	0.99073
2569.30781	0.99102
2567.25401	0.99086
2565.20021	0.99096
2563.14640	0.99069
2561.09260	0.99018
2559.03880	0.99046
2556.98500	0.99095
2554.93119	0.99072
2552.87739	0.99035
2550.82359	0.99008
2548.76978	0.98988
2546.71598	0.99019
2544.66218	0.99055
2542.60837	0.99010
2540.55457	0.98918
2538.50077	0.98874
2536.44696	0.98902
2534.39316	0.98958
2532.33936	0.98968
2530.28555	0.98932
2528.23175	0.98964
2526.17795	0.99094
2524.12414	0.99189
2522.07034	0.99177
2520.01654	0.99122
2517.96273	0.99090
2515.90893	0.99094
2513.85513	0.99087
2511.80132	0.99005
2509.74752	0.98938
2507.69372	0.99004
2505.63992	0.99070
2503.58611	0.99022
2501.53231	0.99008
2499.47851	0.99062
2497.42470	0.99056
2495.37090	0.99047
2493.31710	0.99112
2491.26329	0.99194
2489.20949	0.99234
2487.15569	0.99205
2485.10188	0.99168
2483.04808	0.99174
2480.99428	0.99174
2478.94047	0.99139
2476.88667	0.99148
2474.83287	0.99226
2472.77906	0.99280
2470.72526	0.99268
2468.67146	0.99216
2466.61765	0.99153
2464.56385	0.99141
2462.51005	0.99182
2460.45624	0.99194
2458.40244	0.99155
2456.34864	0.99143
2454.29483	0.99160
2452.24103	0.99145
2450.18723	0.99125
2448.13343	0.99145
2446.07962	0.99147
2444.02582	0.99099
2441.97202	0.99091
2439.91821	0.99148
2437.86441	0.99148
2435.81061	0.99100
2433.75680	0.99087
2431.70300	0.99090
2429.64920	0.99124
2427.59539	0.99183
2425.54159	0.99219
2423.48779	0.99215
2421.43398	0.99183
2419.38018	0.99128
2417.32638	0.99074
2415.27257	0.99084
2413.21877	0.99157
2411.16497	0.99201
2409.11116	0.99202
2407.05736	0.99185
2405.00356	0.99148
2402.94975	0.99148
2400.89595	0.99182
2398.84215	0.99186
2396.78834	0.99180
2394.73454	0.99174
2392.68074	0.99159
2390.62694	0.99167
2388.57313	0.99206
2386.51933	0.99207
2384.46553	0.99131
2382.41172	0.99079
2380.35792	0.99099
2378.30412	0.99106
2376.25031	0.99097
2374.19651	0.99116
2372.14271	0.99087
2370.08890	0.98994
2368.03510	0.99010
2365.98130	0.99107
2363.92749	0.99119
2361.87369	0.99082
2359.81989	0.99044
2357.76608	0.99067
2355.71228	0.99133
2353.65848	0.99164
2351.60467	0.99221
2349.55087	0.99287
2347.49707	0.99244
2345.44326	0.99079
2343.38946	0.98967
2341.33566	0.99010
2339.28186	0.99106
2337.22805	0.99178
2335.17425	0.99176
2333.12045	0.99132
2331.06664	0.99156
2329.01284	0.99210
2326.95904	0.99158
2324.90523	0.99019
2322.85143	0.98976
2320.79763	0.99044
2318.74382	0.99053
2316.69002	0.99046
2314.63622	0.99117
2312.58241	0.99202
2310.52861	0.99223
2308.47481	0.99183
2306.42100	0.99140
2304.36720	0.99126
2302.31340	0.99157
2300.25959	0.99215
2298.20579	0.99204
2296.15199	0.99151
2294.09818	0.99151
2292.04438	0.99160
2289.99058	0.99139
2287.93677	0.99107
2285.88297	0.99108
2283.82917	0.99132
2281.77537	0.99084
2279.72156	0.99011
2277.66776	0.99007
2275.61396	0.99056
2273.56015	0.99176
2271.50635	0.99300
2269.45255	0.99245
2267.39874	0.99113
2265.34494	0.99161
2263.29114	0.99312
2261.23733	0.99356
2259.18353	0.99255
2257.12973	0.99095
2255.07592	0.99076
2253.02212	0.99224
2250.96832	0.99332
2248.91451	0.99322
2246.86071	0.99227
2244.80691	0.99203
2242.75310	0.99352
2240.69930	0.99413
2238.64550	0.99314
2236.59169	0.99278
2234.53789	0.99316
2232.48409	0.99316
2230.43029	0.99227
2228.37648	0.99067
2226.32268	0.99050
2224.26888	0.99237
2222.21507	0.99282
2220.16127	0.99147
2218.10747	0.99100
2216.05366	0.99120
2213.99986	0.99062
2211.94606	0.98978
2209.89225	0.99048
2207.83845	0.99266
2205.78465	0.99446
2203.73084	0.99509
2201.67704	0.99443
2199.62324	0.99323
2197.56943	0.99344
2195.51563	0.99456
2193.46183	0.99447
2191.40802	0.99348
2189.35422	0.99337
2187.30042	0.99392
2185.24661	0.99412
2183.19281	0.99357
2181.13901	0.99252
2179.08520	0.99262
2177.03140	0.99364
2174.97760	0.99480
2172.92380	0.99497
2170.86999	0.99374
2168.81619	0.99359
2166.76239	0.99351
2164.70858	0.99064
2162.65478	0.98794
2160.60098	0.98955
2158.54717	0.99397
2156.49337	0.99822
2154.43957	0.99996
2152.38576	0.99767
2150.33196	0.99401
2148.27816	0.99189
2146.22435	0.99192
2144.17055	0.99385
2142.11675	0.99564
2140.06294	0.99572
2138.00914	0.99515
2135.95534	0.99538
2133.90153	0.99639
2131.84773	0.99696
2129.79393	0.99677
2127.74012	0.99620
2125.68632	0.99497
2123.63252	0.99367
2121.57871	0.99333
2119.52491	0.99310
2117.47111	0.99268
2115.41731	0.99301
2113.36350	0.99333
2111.30970	0.99306
2109.25590	0.99279
2107.20209	0.99247
2105.14829	0.99263
2103.09449	0.99400
2101.04068	0.99514
2098.98688	0.99496
2096.93308	0.99445
2094.87927	0.99385
2092.82547	0.99291
2090.77167	0.99206
2088.71786	0.99141
2086.66406	0.99103
2084.61026	0.99159
2082.55645	0.99320
2080.50265	0.99442
2078.44885	0.99401
2076.39504	0.99287
2074.34124	0.99249
2072.28744	0.99262
2070.23363	0.99279
2068.17983	0.99299
2066.12603	0.99288
2064.07223	0.99276
2062.01842	0.99324
2059.96462	0.99413
2057.91082	0.99421
2055.85701	0.99365
2053.80321	0.99342
2051.74941	0.99261
2049.69560	0.99146
2047.64180	0.99149
2045.58800	0.99274
2043.53419	0.99343
2041.48039	0.99296
2039.42659	0.99257
2037.37278	0.99144
2035.31898	0.98994
2033.26518	0.99160
2031.21137	0.99556
2029.15757	0.99684
2027.10377	0.99544
2025.04996	0.99459
2022.99616	0.99536
2020.94236	0.99661
2018.88855	0.99583
2016.83475	0.99398
2014.78095	0.99363
2012.72714	0.99374
2010.67334	0.99410
2008.61954	0.99481
2006.56574	0.99438
2004.51193	0.99303
2002.45813	0.99133
2000.40433	0.99148
1998.35052	0.99390
1996.29672	0.99441
1994.24292	0.99319
1992.18911	0.99352
1990.13531	0.99292
1988.08151	0.99008
1986.02770	0.99034
1983.97390	0.99410
1981.92010	0.99557
1979.86629	0.99313
1977.81249	0.99114
1975.75869	0.99283
1973.70488	0.99628
1971.65108	0.99771
1969.59728	0.99585
1967.54347	0.99387
1965.48967	0.99436
1963.43587	0.99551
1961.38206	0.99524
1959.32826	0.99373
1957.27446	0.99287
1955.22066	0.99423
1953.16685	0.99666
1951.11305	0.99708
1949.05925	0.99463
1947.00544	0.99240
1944.95164	0.99328
1942.89784	0.99431
1940.84403	0.99311
1938.79023	0.99333
1936.73643	0.99493
1934.68262	0.99567
1932.62882	0.99591
1930.57502	0.99558
1928.52121	0.99513
1926.46741	0.99538
1924.41361	0.99573
1922.35980	0.99529
1920.30600	0.99419
1918.25220	0.99339
1916.19839	0.99291
1914.14459	0.99262
1912.09079	0.99277
1910.03698	0.99336
1907.98318	0.99435
1905.92938	0.99529
1903.87557	0.99557
1901.82177	0.99501
1899.76797	0.99408
1897.71417	0.99369
1895.66036	0.99392
1893.60656	0.99412
1891.55276	0.99426
1889.49895	0.99449
1887.44515	0.99433
1885.39135	0.99385
1883.33754	0.99371
1881.28374	0.99409
1879.22994	0.99444
1877.17613	0.99472
1875.12233	0.99503
1873.06853	0.99460
1871.01472	0.99385
1868.96092	0.99352
1866.90712	0.99306
1864.85331	0.99296
1862.79951	0.99357
1860.74571	0.99438
1858.69190	0.99496
1856.63810	0.99501
1854.58430	0.99454
1852.53049	0.99403
1850.47669	0.99393
1848.42289	0.99403
1846.36908	0.99424
1844.31528	0.99472
1842.26148	0.99459
1840.20768	0.99353
1838.15387	0.99290
1836.10007	0.99381
1834.04627	0.99501
1831.99246	0.99528
1829.93866	0.99518
1827.88486	0.99482
1825.83105	0.99390
1823.77725	0.99322
1821.72345	0.99353
1819.66964	0.99435
1817.61584	0.99472
1815.56204	0.99406
1813.50823	0.99308
1811.45443	0.99287
1809.40063	0.99305
1807.34682	0.99302
1805.29302	0.99305
1803.23922	0.99309
1801.18541	0.99299
1799.13161	0.99296
1797.07781	0.99305
1795.02400	0.99349
1792.97020	0.99399
1790.91640	0.99355
1788.86260	0.99288
1786.80879	0.99290
1784.75499	0.99319
1782.70119	0.99310
1780.64738	0.99284
1778.59358	0.99268
1776.53978	0.99254
1774.48597	0.99237
1772.43217	0.99235
1770.37837	0.99261
1768.32456	0.99264
1766.27076	0.99241
1764.21696	0.99201
1762.16315	0.99141
1760.10935	0.99115
1758.05555	0.99160
1756.00174	0.99192
1753.94794	0.99158
1751.89414	0.99100
1749.84033	0.99020
1747.78653	0.98906
1745.73273	0.98781
1743.67892	0.98647
1741.62512	0.98495
1739.57132	0.98310
1737.51751	0.98098
1735.46371	0.97862
1733.40991	0.97570
1731.35611	0.97317
1729.30230	0.97110
1727.24850	0.96879
1725.19470	0.96639
1723.14089	0.96423
1721.08709	0.96255
1719.03329	0.96127
1716.97948	0.95987
1714.92568	0.95809
1712.87188	0.95640
1710.81807	0.95490
1708.76427	0.95403
1706.71047	0.95419
1704.65666	0.95448
1702.60286	0.95395
1700.54906	0.95377
1698.49525	0.95446
1696.44145	0.95459
1694.38765	0.95368
1692.33384	0.95189
1690.28004	0.94994
1688.22624	0.94800
1686.17243	0.94600
1684.11863	0.94384
1682.06483	0.94141
1680.01103	0.93879
1677.95722	0.93621
1675.90342	0.93378
1673.84962	0.93145
1671.79581	0.92927
1669.74201	0.92700
1667.68821	0.92446
1665.63440	0.92184
1663.58060	0.91939
1661.52680	0.91724
1659.47299	0.91506
1657.41919	0.91272
1655.36539	0.91077
1653.31158	0.91011
1651.25778	0.90898
1649.20398	0.90668
1647.15017	0.90562
1645.09637	0.90625
1643.04257	0.90622
1640.98876	0.90578
1638.93496	0.90565
1636.88116	0.90722
1634.82735	0.91065
1632.77355	0.91205
1630.71975	0.91273
1628.66594	0.91466
1626.61214	0.91708
1624.55834	0.91921
1622.50454	0.92140
1620.45073	0.92274
1618.39693	0.92373
1616.34313	0.92558
1614.28932	0.92660
1612.23552	0.92647
1610.18172	0.92647
1608.12791	0.92651
1606.07411	0.92608
1604.02031	0.92526
1601.96650	0.92423
1599.91270	0.92266
1597.85890	0.92036
1595.80509	0.91761
1593.75129	0.91442
1591.69749	0.91103
1589.64368	0.90801
1587.58988	0.90592
1585.53608	0.90491
1583.48227	0.90470
1581.42847	0.90443
1579.37467	0.90358
1577.32086	0.90289
1575.26706	0.90253
1573.21326	0.90118
1571.15945	0.89941
1569.10565	0.89790
1567.05185	0.89612
1564.99805	0.89374
1562.94424	0.89060
1560.89044	0.88708
1558.83664	0.88460
1556.78283	0.88274
1554.72903	0.87961
1552.67523	0.87643
1550.62142	0.87383
1548.56762	0.87148
1546.51382	0.86917
1544.46001	0.86707
1542.40621	0.86569
1540.35241	0.86700
1538.29860	0.86973
1536.24480	0.87028
1534.19100	0.87191
1532.13719	0.87534
1530.08339	0.87730
1528.02959	0.87891
1525.97578	0.88151
1523.92198	0.88398
1521.86818	0.88733
1519.81437	0.89104
1517.76057	0.89266
1515.70677	0.89237
1513.65297	0.89045
1511.59916	0.88809
1509.54536	0.88625
1507.49156	0.88605
1505.43775	0.88703
1503.38395	0.88679
1501.33015	0.88666
1499.27634	0.88725
1497.22254	0.88837
1495.16874	0.88894
1493.11493	0.88832
1491.06113	0.88780
1489.00733	0.88828
1486.95352	0.88871
1484.89972	0.88861
1482.84592	0.88858
1480.79211	0.88874
1478.73831	0.88876
1476.68451	0.88878
1474.63070	0.88900
1472.57690	0.88920
1470.52310	0.88894
1468.46929	0.88867
1466.41549	0.89001
1464.36169	0.89346
1462.30788	0.89591
1460.25408	0.89651
1458.20028	0.89780
1456.14648	0.90083
1454.09267	0.90216
1452.03887	0.90268
1449.98507	0.90393
1447.93126	0.90621
1445.87746	0.90857
1443.82366	0.91019
1441.76985	0.91126
1439.71605	0.91169
1437.66225	0.91228
1435.60844	0.91401
1433.55464	0.91593
1431.50084	0.91839
1429.44703	0.92187
1427.39323	0.92493
1425.33943	0.92711
1423.28562	0.92855
1421.23182	0.92869
1419.17802	0.92756
1417.12421	0.92506
1415.07041	0.92165
1413.01661	0.91774
1410.96280	0.91399
1408.90900	0.91154
1406.85520	0.91100
1404.80139	0.91271
1402.74759	0.91515
1400.69379	0.91625
1398.63999	0.91612
1396.58618	0.91512
1394.53238	0.91359
1392.47858	0.91198
1390.42477	0.91014
1388.37097	0.90787
1386.31717	0.90493
1384.26336	0.90181
1382.20956	0.89969
1380.15576	0.89890
1378.10195	0.89870
1376.04815	0.89861
1373.99435	0.89872
1371.94054	0.89874
1369.88674	0.89836
1367.83294	0.89776
1365.77913	0.89734
1363.72533	0.89828
1361.67153	0.90086
1359.61772	0.90305
1357.56392	0.90425
1355.51012	0.90526
1353.45631	0.90619
1351.40251	0.90659
1349.34871	0.90608
1347.29491	0.90439
1345.24110	0.90150
1343.18730	0.89793
1341.13350	0.89474
1339.07969	0.89344
1337.02589	0.89504
1334.97209	0.89909
1332.91828	0.90443
1330.86448	0.90963
1328.81068	0.91355
1326.75687	0.91615
1324.70307	0.91804
1322.64927	0.91941
1320.59546	0.92040
1318.54166	0.92154
1316.48786	0.92264
1314.43405	0.92314
1312.38025	0.92321
1310.32645	0.92313
1308.27264	0.92279
1306.21884	0.92195
1304.16504	0.92074
1302.11123	0.91962
1300.05743	0.91833
1298.00363	0.91639
1295.94982	0.91419
1293.89602	0.91190
1291.84222	0.90933
1289.78842	0.90658
1287.73461	0.90363
1285.68081	0.90047
1283.62701	0.89718
1281.57320	0.89375
1279.51940	0.89032
1277.46560	0.88741
1275.41179	0.88540
1273.35799	0.88424
1271.30419	0.88324
1269.25038	0.88183
1267.19658	0.88032
1265.14278	0.87890
1263.08897	0.87722
1261.03517	0.87527
1258.98137	0.87352
1256.92756	0.87192
1254.87376	0.87004
1252.81996	0.86775
1250.76615	0.86514
1248.71235	0.86228
1246.65855	0.85963
1244.60474	0.85769
1242.55094	0.85629
1240.49714	0.85497
1238.44334	0.85375
1236.38953	0.85300
1234.33573	0.85296
1232.28193	0.85361
1230.22812	0.85456
1228.17432	0.85569
1226.12052	0.85713
1224.06671	0.85864
1222.01291	0.86027
1219.95911	0.86225
1217.90530	0.86459
1215.85150	0.86727
1213.79770	0.87007
1211.74389	0.87261
1209.69009	0.87507
1207.63629	0.87760
1205.58248	0.87955
1203.52868	0.88078
1201.47488	0.88182
1199.42107	0.88261
1197.36727	0.88325
1195.31347	0.88420
1193.25966	0.88517
1191.20586	0.88553
1189.15206	0.88497
1187.09825	0.88347
1185.04445	0.88085
1182.99065	0.87771
1180.93685	0.87603
1178.88304	0.87721
1176.82924	0.88088
1174.77544	0.88571
1172.72163	0.89035
1170.66783	0.89420
1168.61403	0.89735
1166.56022	0.89982
1164.50642	0.90167
1162.45262	0.90307
1160.39881	0.90412
1158.34501	0.90493
1156.29121	0.90566
1154.23740	0.90643
1152.18360	0.90716
1150.12980	0.90757
1148.07599	0.90743
1146.02219	0.90693
1143.96839	0.90611
1141.91458	0.90464
1139.86078	0.90218
1137.80698	0.89831
1135.75317	0.89321
1133.69937	0.88796
1131.64557	0.88333
1129.59176	0.87936
1127.53796	0.87601
1125.48416	0.87323
1123.43036	0.87083
1121.37655	0.86856
1119.32275	0.86676
1117.26895	0.86592
1115.21514	0.86575
1113.16134	0.86536
1111.10754	0.86420
1109.05373	0.86252
1106.99993	0.86021
1104.94613	0.85702
1102.89232	0.85326
1100.83852	0.84926
1098.78472	0.84503
1096.73091	0.84059
1094.67711	0.83633
1092.62331	0.83249
1090.56950	0.82897
1088.51570	0.82591
1086.46190	0.82320
1084.40809	0.82033
1082.35429	0.81755
1080.30049	0.81554
1078.24668	0.81397
1076.19288	0.81260
1074.13908	0.81215
1072.08528	0.81266
1070.03147	0.81356
1067.97767	0.81444
1065.92387	0.81531
1063.87006	0.81629
1061.81626	0.81688
1059.76246	0.81731
1057.70865	0.81822
1055.65485	0.81919
1053.60105	0.81956
1051.54724	0.81931
1049.49344	0.81870
1047.43964	0.81787
1045.38583	0.81661
1043.33203	0.81471
1041.27823	0.81274
1039.22442	0.81157
1037.17062	0.81131
1035.11682	0.81169
1033.06301	0.81259
1031.00921	0.81401
1028.95541	0.81582
1026.90160	0.81704
1024.84780	0.81614
1022.79400	0.81314
1020.74019	0.80899
1018.68639	0.80372
1016.63259	0.79821
1014.57879	0.79428
1012.52498	0.79297
1010.47118	0.79431
1008.41738	0.79740
1006.36357	0.80091
1004.30977	0.80413
1002.25597	0.80733
1000.20216	0.81076
998.14836	0.81441
996.09456	0.81833
994.04075	0.82215
991.98695	0.82559
989.93315	0.82856
987.87934	0.83116
985.82554	0.83385
983.77174	0.83645
981.71793	0.83867
979.66413	0.84076
977.61033	0.84277
975.55652	0.84421
973.50272	0.84474
971.44892	0.84437
969.39511	0.84375
967.34131	0.84406
965.28751	0.84539
963.23371	0.84715
961.17990	0.84912
959.12610	0.85143
957.07230	0.85409
955.01849	0.85662
952.96469	0.85845
950.91089	0.85982
948.85708	0.86147
946.80328	0.86341
944.74948	0.86519
942.69567	0.86687
940.64187	0.86871
938.58807	0.87071
936.53426	0.87288
934.48046	0.87538
932.42666	0.87776
930.37285	0.87966
928.31905	0.88132
926.26525	0.88290
924.21144	0.88446
922.15764	0.88591
920.10384	0.88712
918.05003	0.88799
915.99623	0.88820
913.94243	0.88789
911.88862	0.88745
909.83482	0.88700
907.78102	0.88695
905.72722	0.88759
903.67341	0.88868
901.61961	0.89005
899.56581	0.89135
897.51200	0.89237
895.45820	0.89354
893.40440	0.89513
891.35059	0.89654
889.29679	0.89717
887.24299	0.89764
885.18918	0.89811
883.13538	0.89761
881.08158	0.89569
879.02777	0.89212
876.97397	0.88623
874.92017	0.87630
872.86636	0.86377
870.81256	0.85662
868.75876	0.86004
866.70495	0.86938
864.65115	0.87775
862.59735	0.88284
860.54354	0.88524
858.48974	0.88599
856.43594	0.88634
854.38213	0.88650
852.32833	0.88536
850.27453	0.88257
848.22073	0.87863
846.16692	0.87453
844.11312	0.87178
842.05932	0.87094
840.00551	0.87125
837.95171	0.87187
835.89791	0.87256
833.84410	0.87303
831.79030	0.87319
829.73650	0.87418
827.68269	0.87663
825.62889	0.87977
823.57509	0.88241
821.52128	0.88224
819.46748	0.87734
817.41368	0.86957
815.35987	0.86381
813.30607	0.86460
811.25227	0.87219
809.19846	0.88158
807.14466	0.88786
805.09086	0.89134
803.03705	0.89434
800.98325	0.89679
798.92945	0.89764
796.87565	0.89622
794.82184	0.89296
792.76804	0.89004
790.71424	0.88880
788.66043	0.88843
786.60663	0.88835
784.55283	0.88871
782.49902	0.88893
780.44522	0.88895
778.39142	0.88904
776.33761	0.88893
774.28381	0.88897
772.23001	0.88950
770.17620	0.89061
768.12240	0.89221
766.06860	0.89386
764.01479	0.89570
761.96099	0.89824
759.90719	0.90077
757.85338	0.90269
755.79958	0.90468
753.74578	0.90671
751.69197	0.90881
749.63817	0.91158
747.58437	0.91474
745.53056	0.91699
743.47676	0.91774
741.42296	0.91631
739.36916	0.91021
737.31535	0.89829
735.26155	0.88153
733.20775	0.86134
731.15394	0.83938
729.10014	0.81726
727.04634	0.79601
724.99253	0.77724
722.93873	0.76353
720.88493	0.75648
718.83112	0.75592
716.77732	0.75956
714.72352	0.76425
712.66971	0.76849
710.61591	0.77246
708.56211	0.77648
706.50830	0.78030
704.45450	0.78358
702.40070	0.78654
700.34689	0.78985
698.29309	0.79400
696.23929	0.79952
694.18548	0.80566
692.13168	0.81040
690.07788	0.81344
688.02408	0.81493
685.97027	0.81463
683.91647	0.81442
681.86267	0.81628
679.80886	0.81921
677.75506	0.82154
675.70126	0.82338
673.64745	0.82474
671.59365	0.82553
669.53985	0.82627
667.48604	0.82628
665.43224	0.82533
663.37844	0.82509
661.32463	0.82578
659.27083	0.82677
657.21703	0.82768
655.16322	0.82868
653.10942	0.83041
651.05562	0.83237
649.00181	0.83354
646.94801	0.83405
644.89421	0.83401
642.84040	0.83418
640.78660	0.83560
638.73280	0.83691
636.67899	0.83669
634.62519	0.83511
632.57139	0.83274
630.51759	0.83113
628.46378	0.83115
626.40998	0.83196
624.35618	0.83289
622.30237	0.83446
620.24857	0.83661
618.19477	0.83788
616.14096	0.83733
614.08716	0.83612
612.03336	0.83560
609.97955	0.83576
607.92575	0.83685
605.87195	0.83886
603.81814	0.83972
601.76434	0.83841
599.71054	0.83700
597.65673	0.83657
595.60293	0.83644
593.54913	0.83620
591.49532	0.83590
589.44152	0.83549
587.38772	0.83426
585.33391	0.83274
583.28011	0.83230
581.22631	0.83247
579.17250	0.83230
577.11870	0.83125
575.06490	0.82880
573.01110	0.82706
570.95729	0.82809
568.90349	0.82973
566.84969	0.82972
564.79588	0.82882
562.74208	0.82831
560.68828	0.82817
558.63447	0.82691
556.58067	0.82579
554.52687	0.82664
552.47306	0.82708
550.41926	0.82645
548.36546	0.82642
546.31165	0.82658
544.25785	0.82628
542.20405	0.82664
540.15024	0.82722
538.09644	0.82623
536.04264	0.82486
533.98883	0.82462
531.93503	0.82415
529.88123	0.82307
527.82742	0.82232
525.77362	0.82102
523.71982	0.82009
521.66602	0.82112
519.61221	0.82310
517.55841	0.82554
515.50461	0.82708
513.45080	0.82672
511.39700	0.82495
509.34320	0.82079
507.28939	0.81510
505.23559	0.81105
503.18179	0.80885
501.12798	0.80744
499.07418	0.80713
497.02038	0.80743
494.96657	0.80699
492.91277	0.80666
490.85897	0.80665
488.80516	0.80608
486.75136	0.80626
484.69756	0.80702
482.64375	0.80687
480.58995	0.80576
478.53615	0.80386
476.48234	0.80242
474.42854	0.80311
472.37474	0.80433
470.32093	0.80385
468.26713	0.80249
466.21333	0.80161
464.15953	0.80211
462.10572	0.80331
460.05192	0.80407
457.99812	0.80402
455.94431	0.80369
453.89051	0.80595
451.83671	0.81144
449.78290	0.81571
447.72910	0.81696
445.67530	0.81652
443.62149	0.81409
441.56769	0.80836
439.51389	0.79906
437.46008	0.79025
435.40628	0.78534
433.35248	0.78260
431.29867	0.78152
429.24487	0.78305
427.19107	0.78480
425.13726	0.78679
423.08346	0.79279
421.02966	0.80174
418.97585	0.80940
416.92205	0.81530
414.86825	0.81991
412.81445	0.82089
410.76064	0.82039
408.70684	0.82309
406.65304	0.82733
404.59923	0.83110
402.54543	0.83510
400.49163	0.83735
398.43782	0.83481
