3996.70104	0.95447
3994.64724	0.95425
3992.59344	0.95418
3990.53964	0.95421
3988.48583	0.95419
3986.43203	0.95448
3984.37823	0.95516
3982.32442	0.95564
3980.27062	0.95564
3978.21682	0.95553
3976.16301	0.95547
3974.10921	0.95541
3972.05541	0.95523
3970.00160	0.95488
3967.94780	0.95482
3965.89400	0.95498
3963.84019	0.95496
3961.78639	0.95494
3959.73259	0.95492
3957.67878	0.95443
3955.62498	0.95391
3953.57118	0.95406
3951.51737	0.95469
3949.46357	0.95538
3947.40977	0.95550
3945.35596	0.95481
3943.30216	0.95413
3941.24836	0.95443
3939.19455	0.95549
3937.14075	0.95608
3935.08695	0.95562
3933.03315	0.95495
3930.97934	0.95477
3928.92554	0.95459
3926.87174	0.95428
3924.81793	0.95431
3922.76413	0.95466
3920.71033	0.95510
3918.65652	0.95540
3916.60272	0.95539
3914.54892	0.95551
3912.49511	0.95585
3910.44131	0.95602
3908.38751	0.95604
3906.33370	0.95594
3904.27990	0.95549
3902.22610	0.95520
3900.17229	0.95570
3898.11849	0.95601
3896.06469	0.95575
3894.01088	0.95581
3891.95708	0.95664
3889.90328	0.95714
3887.84947	0.95640
3885.79567	0.95536
3883.74187	0.95513
3881.68807	0.95519
3879.63426	0.95548
3877.58046	0.95623
3875.52666	0.95656
3873.47285	0.95623
3871.41905	0.95596
3869.36525	0.95594
3867.31144	0.95601
3865.25764	0.95617
3863.20384	0.95600
3861.15003	0.95547
3859.09623	0.95549
3857.04243	0.95625
3854.98862	0.95708
3852.93482	0.95713
3850.88102	0.95648
3848.82721	0.95609
3846.77341	0.95602
3844.71961	0.95624
3842.66580	0.95677
3840.61200	0.95676
3838.55820	0.95619
3836.50439	0.95621
3834.45059	0.95682
3832.39679	0.95716
3830.34298	0.95678
3828.28918	0.95643
3826.23538	0.95648
3824.18158	0.95631
3822.12777	0.95628
3820.07397	0.95669
3818.02017	0.95643
3815.96636	0.95594
3813.91256	0.95612
3811.85876	0.95665
3809.80495	0.95711
3807.75115	0.95713
3805.69735	0.95665
3803.64354	0.95633
3801.58974	0.95645
3799.53594	0.95665
3797.48213	0.95701
3795.42833	0.95757
3793.37453	0.95794
3791.32072	0.95787
3789.26692	0.95719
3787.21312	0.95647
3785.15931	0.95632
3783.10551	0.95630
3781.05171	0.95622
3778.99790	0.95649
3776.94410	0.95689
3774.89030	0.95677
3772.83650	0.95638
3770.78269	0.95643
3768.72889	0.95658
3766.67509	0.95627
3764.62128	0.95597
3762.56748	0.95641
3760.51368	0.95768
3758.45987	0.95894
3756.40607	0.95909
3754.35227	0.95841
3752.29846	0.95806
3750.24466	0.95901
3748.19086	0.95969
3746.13705	0.95934
3744.08325	0.95901
3742.02945	0.95901
3739.97564	0.95903
3737.92184	0.95906
3735.86804	0.95920
3733.81423	0.95917
3731.76043	0.95857
3729.70663	0.95767
3727.65282	0.95680
3725.59902	0.95661
3723.54522	0.95711
3721.49141	0.95776
3719.43761	0.95834
3717.38381	0.95832
3715.33001	0.95767
3713.27620	0.95690
3711.22240	0.95620
3709.16860	0.95527
3707.11479	0.95420
3705.06099	0.95340
3703.00719	0.95263
3700.95338	0.95167
3698.89958	0.95107
3696.84578	0.95079
3694.79197	0.95073
3692.73817	0.95114
3690.68437	0.95185
3688.63056	0.95194
3686.57676	0.95163
3684.52296	0.95151
3682.46915	0.95120
3680.41535	0.95104
3678.36155	0.95120
3676.30774	0.95087
3674.25394	0.95059
3672.20014	0.95097
3670.14633	0.95085
3668.09253	0.94986
3666.03873	0.94883
3663.98492	0.94801
3661.93112	0.94775
3659.87732	0.94810
3657.82352	0.94826
3655.76971	0.94704
3653.71591	0.94485
3651.66211	0.94358
3649.60830	0.94428
3647.55450	0.94503
3645.50070	0.94428
3643.44689	0.94350
3641.39309	0.94289
3639.33929	0.94220
3637.28548	0.94188
3635.23168	0.94187
3633.17788	0.94098
3631.12407	0.93902
3629.07027	0.93697
3627.01647	0.93615
3624.96266	0.93610
3622.90886	0.93567
3620.85506	0.93514
3618.80125	0.93537
3616.74745	0.93552
3614.69365	0.93432
3612.63984	0.93303
3610.58604	0.93343
3608.53224	0.93457
3606.47844	0.93518
3604.42463	0.93517
3602.37083	0.93440
3600.31703	0.93336
3598.26322	0.93271
3596.20942	0.93253
3594.15562	0.93283
3592.10181	0.93319
3590.04801	0.93329
3587.99421	0.93317
3585.94040	0.93295
3583.88660	0.93241
3581.83280	0.93150
3579.77899	0.93060
3577.72519	0.93012
3575.67139	0.93009
3573.61758	0.93010
3571.56378	0.92995
3569.50998	0.92979
3567.45617	0.92959
3565.40237	0.92892
3563.34857	0.92817
3561.29476	0.92741
3559.24096	0.92655
3557.18716	0.92623
3555.13335	0.92601
3553.07955	0.92512
3551.02575	0.92417
3548.97195	0.92389
3546.91814	0.92379
3544.86434	0.92324
3542.81054	0.92278
3540.75673	0.92241
3538.70293	0.92170
3536.64913	0.92106
3534.59532	0.92039
3532.54152	0.91966
3530.48772	0.91950
3528.43391	0.91984
3526.38011	0.91992
3524.32631	0.91960
3522.27250	0.91926
3520.21870	0.91903
3518.16490	0.91871
3516.11109	0.91810
3514.05729	0.91757
3512.00349	0.91749
3509.94968	0.91771
3507.89588	0.91789
3505.84208	0.91756
3503.78827	0.91654
3501.73447	0.91584
3499.68067	0.91609
3497.62687	0.91614
3495.57306	0.91516
3493.51926	0.91399
3491.46546	0.91344
3489.41165	0.91351
3487.35785	0.91374
3485.30405	0.91363
3483.25024	0.91302
3481.19644	0.91223
3479.14264	0.91164
3477.08883	0.91118
3475.03503	0.91067
3472.98123	0.91011
3470.92742	0.90977
3468.87362	0.90961
3466.81982	0.90938
3464.76601	0.90931
3462.71221	0.90892
3460.65841	0.90772
3458.60460	0.90643
3456.55080	0.90596
3454.49700	0.90631
3452.44319	0.90650
3450.38939	0.90585
3448.33559	0.90480
3446.28178	0.90398
3444.22798	0.90339
3442.17418	0.90304
3440.12038	0.90323
3438.06657	0.90354
3436.01277	0.90351
3433.95897	0.90317
3431.90516	0.90220
3429.85136	0.90073
3427.79756	0.89973
3425.74375	0.89917
3423.68995	0.89845
3421.63615	0.89781
3419.58234	0.89771
3417.52854	0.89784
3415.47474	0.89747
3413.42093	0.89690
3411.36713	0.89687
3409.31333	0.89697
3407.25952	0.89669
3405.20572	0.89618
3403.15192	0.89603
3401.09811	0.89620
3399.04431	0.89585
3396.99051	0.89481
3394.93670	0.89388
3392.88290	0.89352
3390.82910	0.89382
3388.77529	0.89442
3386.72149	0.89460
3384.66769	0.89467
3382.61389	0.89501
3380.56008	0.89503
3378.50628	0.89426
3376.45248	0.89344
3374.39867	0.89344
3372.34487	0.89397
3370.29107	0.89411
3368.23726	0.89355
3366.18346	0.89287
3364.12966	0.89247
3362.07585	0.89241
3360.02205	0.89290
3357.96825	0.89354
3355.91444	0.89334
3353.86064	0.89266
3351.80684	0.89261
3349.75303	0.89282
3347.69923	0.89279
3345.64543	0.89290
3343.59162	0.89312
3341.53782	0.89311
3339.48402	0.89286
3337.43021	0.89271
3335.37641	0.89297
3333.32261	0.89334
3331.26881	0.89314
3329.21500	0.89285
3327.16120	0.89327
3325.10740	0.89387
3323.05359	0.89417
3320.99979	0.89447
3318.94599	0.89461
3316.89218	0.89425
3314.83838	0.89402
3312.78458	0.89410
3310.73077	0.89383
3308.67697	0.89340
3306.62317	0.89359
3304.56936	0.89424
3302.51556	0.89461
3300.46176	0.89460
3298.40795	0.89484
3296.35415	0.89536
3294.30035	0.89545
3292.24654	0.89508
3290.19274	0.89503
3288.13894	0.89528
3286.08513	0.89527
3284.03133	0.89527
3281.97753	0.89566
3279.92372	0.89597
3277.86992	0.89591
3275.81612	0.89563
3273.76232	0.89560
3271.70851	0.89619
3269.65471	0.89682
3267.60091	0.89691
3265.54710	0.89693
3263.49330	0.89696
3261.43950	0.89672
3259.38569	0.89679
3257.33189	0.89753
3255.27809	0.89834
3253.22428	0.89879
3251.17048	0.89915
3249.11668	0.89966
3247.06287	0.90007
3245.00907	0.90009
3242.95527	0.90002
3240.90146	0.90046
3238.84766	0.90123
3236.79386	0.90147
3234.74005	0.90107
3232.68625	0.90105
3230.63245	0.90157
3228.57864	0.90182
3226.52484	0.90208
3224.47104	0.90262
3222.41724	0.90299
3220.36343	0.90341
3218.30963	0.90405
3216.25583	0.90452
3214.20202	0.90490
3212.14822	0.90539
3210.09442	0.90594
3208.04061	0.90651
3205.98681	0.90712
3203.93301	0.90763
3201.87920	0.90781
3199.82540	0.90805
3197.77160	0.90854
3195.71779	0.90905
3193.66399	0.90943
3191.61019	0.90983
3189.55638	0.91067
3187.50258	0.91158
3185.44878	0.91185
3183.39497	0.91175
3181.34117	0.91194
3179.28737	0.91238
3177.23356	0.91275
3175.17976	0.91318
3173.12596	0.91382
3171.07215	0.91446
3169.01835	0.91484
3166.96455	0.91501
3164.91075	0.91540
3162.85694	0.91617
3160.80314	0.91707
3158.74934	0.91763
3156.69553	0.91758
3154.64173	0.91780
3152.58793	0.91873
3150.53412	0.91942
3148.48032	0.91967
3146.42652	0.91999
3144.37271	0.92038
3142.31891	0.92069
3140.26511	0.92080
3138.21130	0.92094
3136.15750	0.92154
3134.10370	0.92243
3132.04989	0.92287
3129.99609	0.92288
3127.94229	0.92332
3125.88848	0.92407
3123.83468	0.92431
3121.78088	0.92418
3119.72707	0.92427
3117.67327	0.92451
3115.61947	0.92468
3113.56566	0.92489
3111.51186	0.92492
3109.45806	0.92461
3107.40426	0.92424
3105.35045	0.92405
3103.29665	0.92409
3101.24285	0.92446
3099.18904	0.92500
3097.13524	0.92529
3095.08144	0.92541
3093.02763	0.92546
3090.97383	0.92523
3088.92003	0.92469
3086.86622	0.92384
3084.81242	0.92288
3082.75862	0.92218
3080.70481	0.92220
3078.65101	0.92283
3076.59721	0.92345
3074.54340	0.92414
3072.48960	0.92508
3070.43580	0.92549
3068.38199	0.92484
3066.32819	0.92348
3064.27439	0.92185
3062.22058	0.92023
3060.16678	0.91928
3058.11298	0.91992
3056.05918	0.92177
3054.00537	0.92350
3051.95157	0.92475
3049.89777	0.92582
3047.84396	0.92694
3045.79016	0.92815
3043.73636	0.92896
3041.68255	0.92894
3039.62875	0.92837
3037.57495	0.92733
3035.52114	0.92570
3033.46734	0.92349
3031.41354	0.92026
3029.35973	0.91604
3027.30593	0.91205
3025.25213	0.90991
3023.19832	0.91070
3021.14452	0.91427
3019.09072	0.91891
3017.03691	0.92259
3014.98311	0.92525
3012.92931	0.92768
3010.87550	0.92967
3008.82170	0.93061
3006.76790	0.93073
3004.71409	0.93048
3002.66029	0.93020
3000.60649	0.93041
2998.55269	0.93100
2996.49888	0.93177
2994.44508	0.93272
2992.39128	0.93354
2990.33747	0.93419
2988.28367	0.93439
2986.22987	0.93393
2984.17606	0.93349
2982.12226	0.93330
2980.06846	0.93286
2978.01465	0.93218
2975.96085	0.93144
2973.90705	0.93077
2971.85324	0.93013
2969.79944	0.92930
2967.74564	0.92835
2965.69183	0.92709
2963.63803	0.92512
2961.58423	0.92288
2959.53042	0.92127
2957.47662	0.92047
2955.42282	0.91989
2953.36901	0.91927
2951.31521	0.91881
2949.26141	0.91834
2947.20761	0.91756
2945.15380	0.91610
2943.10000	0.91361
2941.04620	0.91049
2938.99239	0.90683
2936.93859	0.90238
2934.88479	0.89746
2932.83098	0.89200
2930.77718	0.88590
2928.72338	0.87946
2926.66957	0.87280
2924.61577	0.86623
2922.56197	0.85988
2920.50816	0.85424
2918.45436	0.85046
2916.40056	0.85017
2914.34675	0.85459
2912.29295	0.86245
2910.23915	0.87096
2908.18534	0.87842
2906.13154	0.88463
2904.07774	0.88975
2902.02393	0.89392
2899.97013	0.89756
2897.91633	0.90099
2895.86252	0.90398
2893.80872	0.90668
2891.75492	0.90936
2889.70112	0.91180
2887.64731	0.91400
2885.59351	0.91588
2883.53971	0.91695
2881.48590	0.91757
2879.43210	0.91822
2877.37830	0.91860
2875.32449	0.91868
2873.27069	0.91888
2871.21689	0.91951
2869.16308	0.92031
2867.10928	0.92059
2865.05548	0.91988
2863.00167	0.91797
2860.94787	0.91501
2858.89407	0.91144
2856.84026	0.90700
2854.78646	0.90109
2852.73266	0.89386
2850.67885	0.88737
2848.62505	0.88554
2846.57125	0.89055
2844.51744	0.89969
2842.46364	0.90859
2840.40984	0.91579
2838.35603	0.92159
2836.30223	0.92589
2834.24843	0.92895
2832.19463	0.93146
2830.14082	0.93336
2828.08702	0.93462
2826.03322	0.93561
2823.97941	0.93640
2821.92561	0.93703
2819.87181	0.93788
2817.81800	0.93873
2815.76420	0.93906
2813.71040	0.93934
2811.65659	0.94008
2809.60279	0.94074
2807.54899	0.94084
2805.49518	0.94081
2803.44138	0.94121
2801.38758	0.94181
2799.33377	0.94229
2797.27997	0.94256
2795.22617	0.94254
2793.17236	0.94253
2791.11856	0.94267
2789.06476	0.94280
2787.01095	0.94297
2784.95715	0.94324
2782.90335	0.94365
2780.84955	0.94409
2778.79574	0.94423
2776.74194	0.94412
2774.68814	0.94420
2772.63433	0.94455
2770.58053	0.94506
2768.52673	0.94574
2766.47292	0.94611
2764.41912	0.94579
2762.36532	0.94523
2760.31151	0.94513
2758.25771	0.94542
2756.20391	0.94587
2754.15010	0.94635
2752.09630	0.94643
2750.04250	0.94620
2747.98869	0.94608
2745.93489	0.94622
2743.88109	0.94651
2741.82728	0.94675
2739.77348	0.94696
2737.71968	0.94708
2735.66587	0.94690
2733.61207	0.94671
2731.55827	0.94688
2729.50446	0.94718
2727.45066	0.94727
2725.39686	0.94717
2723.34306	0.94709
2721.28925	0.94724
2719.23545	0.94752
2717.18165	0.94766
2715.12784	0.94768
2713.07404	0.94777
2711.02024	0.94796
2708.96643	0.94807
2706.91263	0.94800
2704.85883	0.94783
2702.80502	0.94783
2700.75122	0.94816
2698.69742	0.94845
2696.64361	0.94843
2694.58981	0.94849
2692.53601	0.94868
2690.48220	0.94866
2688.42840	0.94854
2686.37460	0.94858
2684.32079	0.94857
2682.26699	0.94826
2680.21319	0.94785
2678.15938	0.94786
2676.10558	0.94833
2674.05178	0.94873
2671.99797	0.94896
2669.94417	0.94908
2667.89037	0.94913
2665.83657	0.94922
2663.78276	0.94918
2661.72896	0.94907
2659.67516	0.94921
2657.62135	0.94917
2655.56755	0.94879
2653.51375	0.94866
2651.45994	0.94892
2649.40614	0.94926
2647.35234	0.94944
2645.29853	0.94962
2643.24473	0.94986
2641.19093	0.94981
2639.13712	0.94957
2637.08332	0.94968
2635.02952	0.94984
2632.97571	0.94950
2630.92191	0.94911
2628.86811	0.94910
2626.81430	0.94934
2624.76050	0.94963
2622.70670	0.94997
2620.65289	0.95045
2618.59909	0.95086
2616.54529	0.95097
2614.49149	0.95061
2612.43768	0.95017
2610.38388	0.95047
2608.33008	0.95128
2606.27627	0.95196
2604.22247	0.95239
2602.16867	0.95227
2600.11486	0.95151
2598.06106	0.95120
2596.00726	0.95194
2593.95345	0.95289
2591.89965	0.95361
2589.84585	0.95380
2587.79204	0.95339
2585.73824	0.95308
2583.68444	0.95286
2581.63063	0.95263
2579.57683	0.95249
2577.52303	0.95203
2575.46922	0.95158
2573.41542	0.95161
2571.36162	0.95191
2569.30781	0.95238
2567.25401	0.95261
2565.20021	0.95233
2563.14640	0.95225
2561.09260	0.95255
2559.03880	0.95255
2556.98500	0.95234
2554.93119	0.95254
2552.87739	0.95317
2550.82359	0.95378
2548.76978	0.95417
2546.71598	0.95439
2544.66218	0.95446
2542.60837	0.95423
2540.55457	0.95409
2538.50077	0.95451
2536.44696	0.95475
2534.39316	0.95435
2532.33936	0.95396
2530.28555	0.95404
2528.23175	0.95438
2526.17795	0.95457
2524.12414	0.95433
2522.07034	0.95377
2520.01654	0.95333
2517.96273	0.95334
2515.90893	0.95361
2513.85513	0.95362
2511.80132	0.95343
2509.74752	0.95345
2507.69372	0.95367
2505.63992	0.95417
2503.58611	0.95496
2501.53231	0.95536
2499.47851	0.95490
2497.42470	0.95437
2495.37090	0.95427
2493.31710	0.95425
2491.26329	0.95460
2489.20949	0.95546
2487.15569	0.95616
2485.10188	0.95610
2483.04808	0.95537
2480.99428	0.95448
2478.94047	0.95411
2476.88667	0.95431
2474.83287	0.95432
2472.77906	0.95391
2470.72526	0.95389
2468.67146	0.95446
2466.61765	0.95486
2464.56385	0.95484
2462.51005	0.95498
2460.45624	0.95526
2458.40244	0.95526
2456.34864	0.95532
2454.29483	0.95556
2452.24103	0.95584
2450.18723	0.95606
2448.13343	0.95568
2446.07962	0.95501
2444.02582	0.95484
2441.97202	0.95508
2439.91821	0.95546
2437.86441	0.95585
2435.81061	0.95622
2433.75680	0.95630
2431.70300	0.95570
2429.64920	0.95487
2427.59539	0.95511
2425.54159	0.95641
2423.48779	0.95699
2421.43398	0.95636
2419.38018	0.95585
2417.32638	0.95604
2415.27257	0.95600
2413.21877	0.95531
2411.16497	0.95491
2409.11116	0.95488
2407.05736	0.95488
2405.00356	0.95545
2402.94975	0.95612
2400.89595	0.95619
2398.84215	0.95590
2396.78834	0.95558
2394.73454	0.95530
2392.68074	0.95515
2390.62694	0.95507
2388.57313	0.95468
2386.51933	0.95444
2384.46553	0.95486
2382.41172	0.95546
2380.35792	0.95572
2378.30412	0.95523
2376.25031	0.95443
2374.19651	0.95413
2372.14271	0.95468
2370.08890	0.95618
2368.03510	0.95649
2365.98130	0.95439
2363.92749	0.95269
2361.87369	0.95236
2359.81989	0.95248
2357.76608	0.95348
2355.71228	0.95504
2353.65848	0.95617
2351.60467	0.95645
2349.55087	0.95611
2347.49707	0.95536
2345.44326	0.95458
2343.38946	0.95466
2341.33566	0.95501
2339.28186	0.95435
2337.22805	0.95339
2335.17425	0.95365
2333.12045	0.95418
2331.06664	0.95389
2329.01284	0.95395
2326.95904	0.95397
2324.90523	0.95322
2322.85143	0.95338
2320.79763	0.95466
2318.74382	0.95535
2316.69002	0.95543
2314.63622	0.95518
2312.58241	0.95473
2310.52861	0.95484
2308.47481	0.95490
2306.42100	0.95411
2304.36720	0.95351
2302.31340	0.95400
2300.25959	0.95472
2298.20579	0.95477
2296.15199	0.95472
2294.09818	0.95465
2292.04438	0.95458
2289.99058	0.95525
2287.93677	0.95587
2285.88297	0.95554
2283.82917	0.95496
2281.77537	0.95480
2279.72156	0.95522
2277.66776	0.95587
2275.61396	0.95649
2273.56015	0.95707
2271.50635	0.95703
2269.45255	0.95673
2267.39874	0.95693
2265.34494	0.95679
2263.29114	0.95614
2261.23733	0.95609
2259.18353	0.95695
2257.12973	0.95754
2255.07592	0.95789
2253.02212	0.95894
2250.96832	0.95950
2248.91451	0.95903
2246.86071	0.95808
2244.80691	0.95627
2242.75310	0.95504
2240.69930	0.95559
2238.64550	0.95638
2236.59169	0.95684
2234.53789	0.95666
2232.48409	0.95604
2230.43029	0.95652
2228.37648	0.95804
2226.32268	0.95956
2224.26888	0.96021
2222.21507	0.95999
2220.16127	0.95952
2218.10747	0.95910
2216.05366	0.95874
2213.99986	0.95848
2211.94606	0.95871
2209.89225	0.95848
2207.83845	0.95744
2205.78465	0.95754
2203.73084	0.95900
2201.67704	0.95983
2199.62324	0.95932
2197.56943	0.95834
2195.51563	0.95744
2193.46183	0.95653
2191.40802	0.95631
2189.35422	0.95699
2187.30042	0.95742
2185.24661	0.95864
2183.19281	0.96070
2181.13901	0.96123
2179.08520	0.96124
2177.03140	0.96156
2174.97760	0.96064
2172.92380	0.95938
2170.86999	0.95876
2168.81619	0.95847
2166.76239	0.95962
2164.70858	0.96154
2162.65478	0.96178
2160.60098	0.96127
2158.54717	0.96373
2156.49337	0.96631
2154.43957	0.96467
2152.38576	0.96216
2150.33196	0.96154
2148.27816	0.96245
2146.22435	0.96360
2144.17055	0.96452
2142.11675	0.96518
2140.06294	0.96424
2138.00914	0.96206
2135.95534	0.96104
2133.90153	0.96217
2131.84773	0.96326
2129.79393	0.96294
2127.74012	0.96240
2125.68632	0.96248
2123.63252	0.96242
2121.57871	0.96156
2119.52491	0.96000
2117.47111	0.95832
2115.41731	0.95821
2113.36350	0.95925
2111.30970	0.95954
2109.25590	0.95867
2107.20209	0.95709
2105.14829	0.95671
2103.09449	0.95780
2101.04068	0.95922
2098.98688	0.96099
2096.93308	0.96229
2094.87927	0.96228
2092.82547	0.96148
2090.77167	0.96059
2088.71786	0.95978
2086.66406	0.95978
2084.61026	0.96071
2082.55645	0.96105
2080.50265	0.96021
2078.44885	0.95935
2076.39504	0.95933
2074.34124	0.96022
2072.28744	0.96143
2070.23363	0.96182
2068.17983	0.96206
2066.12603	0.96262
2064.07223	0.96265
2062.01842	0.96265
2059.96462	0.96273
2057.91082	0.96242
2055.85701	0.96223
2053.80321	0.96146
2051.74941	0.95877
2049.69560	0.95549
2047.64180	0.95551
2045.58800	0.95899
2043.53419	0.96089
2041.48039	0.96021
2039.42659	0.96100
2037.37278	0.96303
2035.31898	0.96251
2033.26518	0.96108
2031.21137	0.96166
2029.15757	0.96156
2027.10377	0.96069
2025.04996	0.96186
2022.99616	0.96266
2020.94236	0.96082
2018.88855	0.95885
2016.83475	0.95863
2014.78095	0.96006
2012.72714	0.96181
2010.67334	0.96309
2008.61954	0.96533
2006.56574	0.96677
2004.51193	0.96439
2002.45813	0.96200
2000.40433	0.96190
1998.35052	0.96219
1996.29672	0.96281
1994.24292	0.96347
1992.18911	0.96318
1990.13531	0.96269
1988.08151	0.96388
1986.02770	0.96588
1983.97390	0.96601
1981.92010	0.96480
1979.86629	0.96493
1977.81249	0.96690
1975.75869	0.96743
1973.70488	0.96594
1971.65108	0.96594
1969.59728	0.96719
1967.54347	0.96706
1965.48967	0.96498
1963.43587	0.96224
1961.38206	0.96151
1959.32826	0.96289
1957.27446	0.96366
1955.22066	0.96338
1953.16685	0.96329
1951.11305	0.96351
1949.05925	0.96295
1947.00544	0.96212
1944.95164	0.96193
1942.89784	0.96105
1940.84403	0.95920
1938.79023	0.95873
1936.73643	0.95985
1934.68262	0.96099
1932.62882	0.96155
1930.57502	0.96079
1928.52121	0.95983
1926.46741	0.96064
1924.41361	0.96177
1922.35980	0.96173
1920.30600	0.96084
1918.25220	0.95964
1916.19839	0.95937
1914.14459	0.96032
1912.09079	0.96124
1910.03698	0.96152
1907.98318	0.96135
1905.92938	0.96132
1903.87557	0.96173
1901.82177	0.96226
1899.76797	0.96282
1897.71417	0.96272
1895.66036	0.96142
1893.60656	0.96033
1891.55276	0.96050
1889.49895	0.96128
1887.44515	0.96133
1885.39135	0.96064
1883.33754	0.96024
1881.28374	0.96033
1879.22994	0.96049
1877.17613	0.96014
1875.12233	0.95962
1873.06853	0.95956
1871.01472	0.95968
1868.96092	0.96013
1866.90712	0.96094
1864.85331	0.96123
1862.79951	0.96080
1860.74571	0.95990
1858.69190	0.95939
1856.63810	0.96026
1854.58430	0.96135
1852.53049	0.96165
1850.47669	0.96181
1848.42289	0.96180
1846.36908	0.96147
1844.31528	0.96138
1842.26148	0.96161
1840.20768	0.96191
1838.15387	0.96242
1836.10007	0.96256
1834.04627	0.96195
1831.99246	0.96186
1829.93866	0.96254
1827.88486	0.96251
1825.83105	0.96209
1823.77725	0.96201
1821.72345	0.96196
1819.66964	0.96179
1817.61584	0.96155
1815.56204	0.96101
1813.50823	0.96023
1811.45443	0.95992
1809.40063	0.96004
1807.34682	0.96003
1805.29302	0.95991
1803.23922	0.95979
1801.18541	0.95968
1799.13161	0.95937
1797.07781	0.95916
1795.02400	0.95932
1792.97020	0.95947
1790.91640	0.95982
1788.86260	0.96051
1786.80879	0.96096
1784.75499	0.96113
1782.70119	0.96122
1780.64738	0.96095
1778.59358	0.96057
1776.53978	0.96039
1774.48597	0.96000
1772.43217	0.95939
1770.37837	0.95919
1768.32456	0.95947
1766.27076	0.95962
1764.21696	0.95935
1762.16315	0.95912
1760.10935	0.95902
1758.05555	0.95842
1756.00174	0.95719
1753.94794	0.95577
1751.89414	0.95401
1749.84033	0.95206
1747.78653	0.95074
1745.73273	0.94953
1743.67892	0.94803
1741.62512	0.94677
1739.57132	0.94604
1737.51751	0.94525
1735.46371	0.94359
1733.40991	0.94134
1731.35611	0.94041
1729.30230	0.94022
1727.24850	0.93999
1725.19470	0.94004
1723.14089	0.94052
1721.08709	0.94140
1719.03329	0.94303
1716.97948	0.94490
1714.92568	0.94522
1712.87188	0.94530
1710.81807	0.94578
1708.76427	0.94580
1706.71047	0.94502
1704.65666	0.94395
1702.60286	0.94319
1700.54906	0.94214
1698.49525	0.94051
1696.44145	0.93892
1694.38765	0.93713
1692.33384	0.93538
1690.28004	0.93343
1688.22624	0.93112
1686.17243	0.92887
1684.11863	0.92605
1682.06483	0.92349
1680.01103	0.92192
1677.95722	0.92015
1675.90342	0.91759
1673.84962	0.91497
1671.79581	0.91300
1669.74201	0.91079
1667.68821	0.90853
1665.63440	0.90680
1663.58060	0.90478
1661.52680	0.90262
1659.47299	0.90117
1657.41919	0.90014
1655.36539	0.89929
1653.31158	0.89776
1651.25778	0.89631
1649.20398	0.89622
1647.15017	0.89645
1645.09637	0.89637
1643.04257	0.89596
1640.98876	0.89544
1638.93496	0.89493
1636.88116	0.89434
1634.82735	0.89385
1632.77355	0.89368
1630.71975	0.89327
1628.66594	0.89284
1626.61214	0.89334
1624.55834	0.89484
1622.50454	0.89659
1620.45073	0.89804
1618.39693	0.89983
1616.34313	0.90258
1614.28932	0.90467
1612.23552	0.90547
1610.18172	0.90549
1608.12791	0.90420
1606.07411	0.90101
1604.02031	0.89657
1601.96650	0.89318
1599.91270	0.89321
1597.85890	0.89650
1595.80509	0.90080
1593.75129	0.90401
1591.69749	0.90544
1589.64368	0.90514
1587.58988	0.90274
1585.53608	0.89796
1583.48227	0.89157
1581.42847	0.88541
1579.37467	0.88076
1577.32086	0.87720
1575.26706	0.87566
1573.21326	0.87755
1571.15945	0.88179
1569.10565	0.88809
1567.05185	0.89358
1564.99805	0.89741
1562.94424	0.90034
1560.89044	0.90246
1558.83664	0.90412
1556.78283	0.90401
1554.72903	0.90273
1552.67523	0.90098
1550.62142	0.89829
1548.56762	0.89428
1546.51382	0.88906
1544.46001	0.88221
1542.40621	0.87519
1540.35241	0.87066
1538.29860	0.87104
1536.24480	0.87481
1534.19100	0.88180
1532.13719	0.89113
1530.08339	0.89848
1528.02959	0.90450
1525.97578	0.90998
1523.92198	0.91407
1521.86818	0.91709
1519.81437	0.91940
1517.76057	0.92144
1515.70677	0.92363
1513.65297	0.92542
1511.59916	0.92685
1509.54536	0.92827
1507.49156	0.92987
1505.43775	0.93124
1503.38395	0.93130
1501.33015	0.92990
1499.27634	0.92486
1497.22254	0.91046
1495.16874	0.88859
1493.11493	0.87464
1491.06113	0.87667
1489.00733	0.89243
1486.95352	0.90565
1484.89972	0.91048
1482.84592	0.91093
1480.79211	0.90883
1478.73831	0.90539
1476.68451	0.90142
1474.63070	0.89665
1472.57690	0.89127
1470.52310	0.88804
1468.46929	0.88741
1466.41549	0.88773
1464.36169	0.88896
1462.30788	0.89101
1460.25408	0.89237
1458.20028	0.88833
1456.14648	0.87121
1454.09267	0.85361
1452.03887	0.84611
1449.98507	0.84930
1447.93126	0.85916
1445.87746	0.86842
1443.82366	0.87505
1441.76985	0.88012
1439.71605	0.88352
1437.66225	0.88590
1435.60844	0.88810
1433.55464	0.89023
1431.50084	0.89264
1429.44703	0.89508
1427.39323	0.89666
1425.33943	0.89706
1423.28562	0.89652
1421.23182	0.89573
1419.17802	0.89552
1417.12421	0.89653
1415.07041	0.89835
1413.01661	0.90068
1410.96280	0.90355
1408.90900	0.90647
1406.85520	0.90891
1404.80139	0.91125
1402.74759	0.91374
1400.69379	0.91598
1398.63999	0.91781
1396.58618	0.91932
1394.53238	0.92048
1392.47858	0.92094
1390.42477	0.92075
1388.37097	0.92008
1386.31717	0.91910
1384.26336	0.91808
1382.20956	0.91684
1380.15576	0.91546
1378.10195	0.91469
1376.04815	0.91487
1373.99435	0.91548
1371.94054	0.91610
1369.88674	0.91688
1367.83294	0.91773
1365.77913	0.91862
1363.72533	0.91956
1361.67153	0.92014
1359.61772	0.92051
1357.56392	0.92121
1355.51012	0.92186
1353.45631	0.92206
1351.40251	0.92221
1349.34871	0.92252
1347.29491	0.92298
1345.24110	0.92381
1343.18730	0.92462
1341.13350	0.92486
1339.07969	0.92482
1337.02589	0.92480
1334.97209	0.92475
1332.91828	0.92463
1330.86448	0.92437
1328.81068	0.92392
1326.75687	0.92357
1324.70307	0.92360
1322.64927	0.92358
1320.59546	0.92316
1318.54166	0.92275
1316.48786	0.92273
1314.43405	0.92306
1312.38025	0.92353
1310.32645	0.92389
1308.27264	0.92396
1306.21884	0.92372
1304.16504	0.92360
1302.11123	0.92392
1300.05743	0.92428
1298.00363	0.92432
1295.94982	0.92410
1293.89602	0.92373
1291.84222	0.92344
1289.78842	0.92317
1287.73461	0.92283
1285.68081	0.92265
1283.62701	0.92252
1281.57320	0.92204
1279.51940	0.92145
1277.46560	0.92141
1275.41179	0.92187
1273.35799	0.92240
1271.30419	0.92306
1269.25038	0.92356
1267.19658	0.92340
1265.14278	0.92280
1263.08897	0.92229
1261.03517	0.92196
1258.98137	0.92164
1256.92756	0.92145
1254.87376	0.92151
1252.81996	0.92163
1250.76615	0.92162
1248.71235	0.92144
1246.65855	0.92137
1244.60474	0.92165
1242.55094	0.92163
1240.49714	0.92091
1238.44334	0.92017
1236.38953	0.91979
1234.33573	0.91945
1232.28193	0.91905
1230.22812	0.91869
1228.17432	0.91813
1226.12052	0.91748
1224.06671	0.91710
1222.01291	0.91670
1219.95911	0.91606
1217.90530	0.91521
1215.85150	0.91412
1213.79770	0.91280
1211.74389	0.91123
1209.69009	0.90953
1207.63629	0.90794
1205.58248	0.90639
1203.52868	0.90453
1201.47488	0.90223
1199.42107	0.89977
1197.36727	0.89737
1195.31347	0.89495
1193.25966	0.89233
1191.20586	0.88934
1189.15206	0.88597
1187.09825	0.88250
1185.04445	0.87897
1182.99065	0.87520
1180.93685	0.87163
1178.88304	0.86883
1176.82924	0.86648
1174.77544	0.86427
1172.72163	0.86201
1170.66783	0.85921
1168.61403	0.85605
1166.56022	0.85339
1164.50642	0.85119
1162.45262	0.84893
1160.39881	0.84701
1158.34501	0.84518
1156.29121	0.84262
1154.23740	0.84009
1152.18360	0.83863
1150.12980	0.83786
1148.07599	0.83716
1146.02219	0.83631
1143.96839	0.83524
1141.91458	0.83414
1139.86078	0.83303
1137.80698	0.83165
1135.75317	0.82968
1133.69937	0.82698
1131.64557	0.82385
1129.59176	0.82072
1127.53796	0.81798
1125.48416	0.81546
1123.43036	0.81236
1121.37655	0.80820
1119.32275	0.80291
1117.26895	0.79665
1115.21514	0.79050
1113.16134	0.78555
1111.10754	0.78156
1109.05373	0.77806
1106.99993	0.77504
1104.94613	0.77244
1102.89232	0.76992
1100.83852	0.76728
1098.78472	0.76450
1096.73091	0.76162
1094.67711	0.75914
1092.62331	0.75737
1090.56950	0.75561
1088.51570	0.75352
1086.46190	0.75151
1084.40809	0.74951
1082.35429	0.74736
1080.30049	0.74541
1078.24668	0.74361
1076.19288	0.74127
1074.13908	0.73800
1072.08528	0.73433
1070.03147	0.73074
1067.97767	0.72721
1065.92387	0.72383
1063.87006	0.72075
1061.81626	0.71780
1059.76246	0.71495
1057.70865	0.71210
1055.65485	0.70871
1053.60105	0.70469
1051.54724	0.70040
1049.49344	0.69593
1047.43964	0.69076
1045.38583	0.68448
1043.33203	0.67749
1041.27823	0.67037
1039.22442	0.66308
1037.17062	0.65523
1035.11682	0.64660
1033.06301	0.63737
1031.00921	0.62856
1028.95541	0.62171
1026.90160	0.61766
1024.84780	0.61621
1022.79400	0.61650
1020.74019	0.61737
1018.68639	0.61770
1016.63259	0.61730
1014.57879	0.61651
1012.52498	0.61548
1010.47118	0.61432
1008.41738	0.61302
1006.36357	0.61192
1004.30977	0.61180
1002.25597	0.61302
1000.20216	0.61562
998.14836	0.61914
996.09456	0.62293
994.04075	0.62691
991.98695	0.63111
989.93315	0.63557
987.87934	0.64032
985.82554	0.64510
983.77174	0.65013
981.71793	0.65612
979.66413	0.66338
977.61033	0.67177
975.55652	0.68102
973.50272	0.69058
971.44892	0.69976
969.39511	0.70817
967.34131	0.71580
965.28751	0.72325
963.23371	0.73098
961.17990	0.73861
959.12610	0.74603
957.07230	0.75322
955.01849	0.75979
952.96469	0.76581
950.91089	0.77137
948.85708	0.77607
946.80328	0.77980
944.74948	0.78276
942.69567	0.78547
940.64187	0.78834
938.58807	0.79113
936.53426	0.79380
934.48046	0.79704
932.42666	0.80071
930.37285	0.80382
928.31905	0.80645
926.26525	0.80895
924.21144	0.81066
922.15764	0.81116
920.10384	0.81101
918.05003	0.81043
915.99623	0.80925
913.94243	0.80768
911.88862	0.80590
909.83482	0.80472
907.78102	0.80545
905.72722	0.80877
903.67341	0.81437
901.61961	0.82123
899.56581	0.82827
897.51200	0.83496
895.45820	0.84111
893.40440	0.84665
891.35059	0.85138
889.29679	0.85511
887.24299	0.85777
885.18918	0.85946
883.13538	0.86083
881.08158	0.86223
879.02777	0.86355
876.97397	0.86488
874.92017	0.86664
872.86636	0.86926
870.81256	0.87235
868.75876	0.87518
866.70495	0.87778
864.65115	0.88020
862.59735	0.88198
860.54354	0.88280
858.48974	0.88333
856.43594	0.88444
854.38213	0.88574
852.32833	0.88680
850.27453	0.88750
848.22073	0.88692
846.16692	0.88517
844.11312	0.88364
842.05932	0.88218
840.00551	0.88052
837.95171	0.87978
835.89791	0.88018
833.84410	0.88065
831.79030	0.88010
829.73650	0.87884
827.68269	0.87808
825.62889	0.87798
823.57509	0.87842
821.52128	0.87939
819.46748	0.88022
817.41368	0.88028
815.35987	0.87959
813.30607	0.87828
811.25227	0.87653
809.19846	0.87427
807.14466	0.87062
805.09086	0.86584
803.03705	0.86152
800.98325	0.85782
798.92945	0.85495
796.87565	0.85455
794.82184	0.85589
792.76804	0.85604
790.71424	0.85494
788.66043	0.85447
786.60663	0.85340
784.55283	0.84972
782.49902	0.84515
780.44522	0.84128
778.39142	0.83707
776.33761	0.83251
774.28381	0.82816
772.23001	0.82263
770.17620	0.81462
768.12240	0.80449
766.06860	0.79350
764.01479	0.78299
761.96099	0.77302
759.90719	0.76322
757.85338	0.75474
755.79958	0.74947
753.74578	0.74798
751.69197	0.74858
749.63817	0.74949
747.58437	0.75178
745.53056	0.75806
743.47676	0.76874
741.42296	0.78101
739.36916	0.79208
737.31535	0.80158
735.26155	0.81021
733.20775	0.81766
731.15394	0.82221
729.10014	0.82354
727.04634	0.82412
724.99253	0.82529
722.93873	0.82651
720.88493	0.82826
718.83112	0.83166
716.77732	0.83558
714.72352	0.83712
712.66971	0.83472
710.61591	0.82662
708.56211	0.80901
706.50830	0.77853
704.45450	0.73333
702.40070	0.67569
700.34689	0.61227
698.29309	0.55397
696.23929	0.52264
694.18548	0.53989
692.13168	0.59650
690.07788	0.65770
688.02408	0.70108
685.97027	0.72745
683.91647	0.74323
681.86267	0.75256
679.80886	0.75850
677.75506	0.76320
675.70126	0.76701
673.64745	0.76911
671.59365	0.76999
669.53985	0.77124
667.48604	0.77334
665.43224	0.77455
663.37844	0.77544
661.32463	0.77707
659.27083	0.77798
657.21703	0.77749
655.16322	0.77746
653.10942	0.77769
651.05562	0.77749
649.00181	0.77785
646.94801	0.77835
644.89421	0.77862
642.84040	0.77988
640.78660	0.78217
638.73280	0.78368
636.67899	0.78371
634.62519	0.78389
632.57139	0.78474
630.51759	0.78448
628.46378	0.78291
626.40998	0.78175
624.35618	0.78128
622.30237	0.78000
620.24857	0.77801
618.19477	0.77720
616.14096	0.77668
614.08716	0.77451
612.03336	0.77217
609.97955	0.77119
607.92575	0.76979
605.87195	0.76666
603.81814	0.76324
601.76434	0.76053
599.71054	0.75808
597.65673	0.75585
595.60293	0.75433
593.54913	0.75324
591.49532	0.75235
589.44152	0.75139
587.38772	0.75101
585.33391	0.75154
583.28011	0.75003
581.22631	0.74672
579.17250	0.74397
577.11870	0.74089
575.06490	0.73779
573.01110	0.73504
570.95729	0.73121
568.90349	0.72632
566.84969	0.72150
564.79588	0.71626
562.74208	0.71030
560.68828	0.70398
558.63447	0.69670
556.58067	0.68912
554.52687	0.68332
552.47306	0.67824
550.41926	0.67110
548.36546	0.66232
546.31165	0.65200
544.25785	0.63996
542.20405	0.62830
540.15024	0.61784
538.09644	0.60929
536.04264	0.60523
533.98883	0.60621
531.93503	0.60931
529.88123	0.61307
527.82742	0.61843
525.77362	0.62492
523.71982	0.63121
521.66602	0.63732
519.61221	0.64252
517.55841	0.64697
515.50461	0.65177
513.45080	0.65542
511.39700	0.65808
509.34320	0.66305
507.28939	0.67109
505.23559	0.67750
503.18179	0.67997
501.12798	0.68040
499.07418	0.68008
497.02038	0.67923
494.96657	0.67619
492.91277	0.67089
490.85897	0.66548
488.80516	0.65968
486.75136	0.65166
484.69756	0.64066
482.64375	0.62704
480.58995	0.61246
478.53615	0.60007
476.48234	0.59028
474.42854	0.57972
472.37474	0.56984
470.32093	0.56499
468.26713	0.56306
466.21333	0.56356
464.15953	0.56699
462.10572	0.57089
460.05192	0.57527
457.99812	0.58190
455.94431	0.58965
453.89051	0.59688
451.83671	0.60401
449.78290	0.60983
447.72910	0.61471
445.67530	0.61874
443.62149	0.62137
441.56769	0.62453
439.51389	0.62624
437.46008	0.62499
435.40628	0.62365
433.35248	0.62240
431.29867	0.62086
429.24487	0.62021
427.19107	0.61851
425.13726	0.61485
423.08346	0.61161
421.02966	0.60923
418.97585	0.60948
416.92205	0.61603
414.86825	0.62426
412.81445	0.63294
410.76064	0.64085
408.70684	0.64620
406.65304	0.65142
404.59923	0.65586
402.54543	0.65605
400.49163	0.65133
398.43782	0.64961
