3996.70104	0.93082
3994.64724	0.93148
3992.59344	0.93150
3990.53964	0.93071
3988.48583	0.92999
3986.43203	0.93006
3984.37823	0.93042
3982.32442	0.93034
3980.27062	0.93016
3978.21682	0.93035
3976.16301	0.93072
3974.10921	0.93105
3972.05541	0.93094
3970.00160	0.93044
3967.94780	0.93037
3965.89400	0.93073
3963.84019	0.93068
3961.78639	0.93037
3959.73259	0.93042
3957.67878	0.93078
3955.62498	0.93113
3953.57118	0.93117
3951.51737	0.93113
3949.46357	0.93130
3947.40977	0.93162
3945.35596	0.93183
3943.30216	0.93166
3941.24836	0.93146
3939.19455	0.93161
3937.14075	0.93179
3935.08695	0.93188
3933.03315	0.93209
3930.97934	0.93228
3928.92554	0.93225
3926.87174	0.93203
3924.81793	0.93206
3922.76413	0.93220
3920.71033	0.93182
3918.65652	0.93163
3916.60272	0.93194
3914.54892	0.93171
3912.49511	0.93095
3910.44131	0.93065
3908.38751	0.93091
3906.33370	0.93118
3904.27990	0.93177
3902.22610	0.93265
3900.17229	0.93267
3898.11849	0.93208
3896.06469	0.93175
3894.01088	0.93165
3891.95708	0.93140
3889.90328	0.93115
3887.84947	0.93117
3885.79567	0.93155
3883.74187	0.93224
3881.68807	0.93278
3879.63426	0.93265
3877.58046	0.93214
3875.52666	0.93231
3873.47285	0.93323
3871.41905	0.93392
3869.36525	0.93330
3867.31144	0.93174
3865.25764	0.93091
3863.20384	0.93116
3861.15003	0.93142
3859.09623	0.93157
3857.04243	0.93214
3854.98862	0.93322
3852.93482	0.93429
3850.88102	0.93408
3848.82721	0.93336
3846.77341	0.93285
3844.71961	0.93289
3842.66580	0.93322
3840.61200	0.93255
3838.55820	0.93113
3836.50439	0.93089
3834.45059	0.93136
3832.39679	0.93137
3830.34298	0.93141
3828.28918	0.93219
3826.23538	0.93354
3824.18158	0.93476
3822.12777	0.93512
3820.07397	0.93400
3818.02017	0.93245
3815.96636	0.93202
3813.91256	0.93294
3811.85876	0.93336
3809.80495	0.93304
3807.75115	0.93328
3805.69735	0.93374
3803.64354	0.93351
3801.58974	0.93358
3799.53594	0.93343
3797.48213	0.93279
3795.42833	0.93267
3793.37453	0.93298
3791.32072	0.93312
3789.26692	0.93301
3787.21312	0.93290
3785.15931	0.93308
3783.10551	0.93348
3781.05171	0.93386
3778.99790	0.93443
3776.94410	0.93523
3774.89030	0.93583
3772.83650	0.93556
3770.78269	0.93442
3768.72889	0.93366
3766.67509	0.93370
3764.62128	0.93397
3762.56748	0.93426
3760.51368	0.93438
3758.45987	0.93447
3756.40607	0.93437
3754.35227	0.93364
3752.29846	0.93311
3750.24466	0.93457
3748.19086	0.93667
3746.13705	0.93781
3744.08325	0.93859
3742.02945	0.93850
3739.97564	0.93751
3737.92184	0.93641
3735.86804	0.93595
3733.81423	0.93652
3731.76043	0.93681
3729.70663	0.93631
3727.65282	0.93586
3725.59902	0.93600
3723.54522	0.93636
3721.49141	0.93619
3719.43761	0.93514
3717.38381	0.93379
3715.33001	0.93292
3713.27620	0.93242
3711.22240	0.93193
3709.16860	0.93146
3707.11479	0.93054
3705.06099	0.92893
3703.00719	0.92678
3700.95338	0.92438
3698.89958	0.92291
3696.84578	0.92293
3694.79197	0.92392
3692.73817	0.92487
3690.68437	0.92504
3688.63056	0.92476
3686.57676	0.92481
3684.52296	0.92505
3682.46915	0.92547
3680.41535	0.92575
3678.36155	0.92528
3676.30774	0.92484
3674.25394	0.92514
3672.20014	0.92439
3670.14633	0.92273
3668.09253	0.92183
3666.03873	0.92166
3663.98492	0.92138
3661.93112	0.92101
3659.87732	0.92054
3657.82352	0.91984
3655.76971	0.91885
3653.71591	0.91797
3651.66211	0.91703
3649.60830	0.91579
3647.55450	0.91531
3645.50070	0.91514
3643.44689	0.91498
3641.39309	0.91470
3639.33929	0.91371
3637.28548	0.91287
3635.23168	0.91273
3633.17788	0.91235
3631.12407	0.91148
3629.07027	0.90982
3627.01647	0.90818
3624.96266	0.90756
3622.90886	0.90695
3620.85506	0.90583
3618.80125	0.90456
3616.74745	0.90451
3614.69365	0.90534
3612.63984	0.90570
3610.58604	0.90537
3608.53224	0.90500
3606.47844	0.90491
3604.42463	0.90490
3602.37083	0.90460
3600.31703	0.90411
3598.26322	0.90410
3596.20942	0.90423
3594.15562	0.90346
3592.10181	0.90223
3590.04801	0.90140
3587.99421	0.90105
3585.94040	0.90133
3583.88660	0.90130
3581.83280	0.90050
3579.77899	0.89977
3577.72519	0.89929
3575.67139	0.89881
3573.61758	0.89841
3571.56378	0.89806
3569.50998	0.89803
3567.45617	0.89813
3565.40237	0.89717
3563.34857	0.89550
3561.29476	0.89448
3559.24096	0.89450
3557.18716	0.89441
3555.13335	0.89357
3553.07955	0.89295
3551.02575	0.89287
3548.97195	0.89294
3546.91814	0.89288
3544.86434	0.89216
3542.81054	0.89115
3540.75673	0.89074
3538.70293	0.89042
3536.64913	0.88946
3534.59532	0.88860
3532.54152	0.88827
3530.48772	0.88776
3528.43391	0.88716
3526.38011	0.88681
3524.32631	0.88663
3522.27250	0.88660
3520.21870	0.88647
3518.16490	0.88626
3516.11109	0.88575
3514.05729	0.88512
3512.00349	0.88524
3509.94968	0.88556
3507.89588	0.88517
3505.84208	0.88425
3503.78827	0.88328
3501.73447	0.88279
3499.68067	0.88249
3497.62687	0.88190
3495.57306	0.88113
3493.51926	0.88034
3491.46546	0.87995
3489.41165	0.87980
3487.35785	0.87931
3485.30405	0.87864
3483.25024	0.87792
3481.19644	0.87707
3479.14264	0.87673
3477.08883	0.87706
3475.03503	0.87716
3472.98123	0.87667
3470.92742	0.87602
3468.87362	0.87518
3466.81982	0.87428
3464.76601	0.87364
3462.71221	0.87284
3460.65841	0.87250
3458.60460	0.87323
3456.55080	0.87337
3454.49700	0.87209
3452.44319	0.87086
3450.38939	0.87042
3448.33559	0.86992
3446.28178	0.86895
3444.22798	0.86825
3442.17418	0.86800
3440.12038	0.86780
3438.06657	0.86740
3436.01277	0.86684
3433.95897	0.86643
3431.90516	0.86612
3429.85136	0.86570
3427.79756	0.86549
3425.74375	0.86552
3423.68995	0.86504
3421.63615	0.86414
3419.58234	0.86360
3417.52854	0.86359
3415.47474	0.86353
3413.42093	0.86300
3411.36713	0.86246
3409.31333	0.86207
3407.25952	0.86167
3405.20572	0.86152
3403.15192	0.86145
3401.09811	0.86129
3399.04431	0.86126
3396.99051	0.86117
3394.93670	0.86086
3392.88290	0.86079
3390.82910	0.86108
3388.77529	0.86111
3386.72149	0.86072
3384.66769	0.86051
3382.61389	0.86064
3380.56008	0.86071
3378.50628	0.86044
3376.45248	0.86013
3374.39867	0.86026
3372.34487	0.86084
3370.29107	0.86140
3368.23726	0.86122
3366.18346	0.86076
3364.12966	0.86083
3362.07585	0.86089
3360.02205	0.86052
3357.96825	0.86012
3355.91444	0.86016
3353.86064	0.86063
3351.80684	0.86090
3349.75303	0.86088
3347.69923	0.86124
3345.64543	0.86188
3343.59162	0.86199
3341.53782	0.86148
3339.48402	0.86131
3337.43021	0.86199
3335.37641	0.86277
3333.32261	0.86315
3331.26881	0.86329
3329.21500	0.86324
3327.16120	0.86329
3325.10740	0.86386
3323.05359	0.86445
3320.99979	0.86479
3318.94599	0.86526
3316.89218	0.86561
3314.83838	0.86570
3312.78458	0.86592
3310.73077	0.86641
3308.67697	0.86693
3306.62317	0.86692
3304.56936	0.86648
3302.51556	0.86643
3300.46176	0.86687
3298.40795	0.86723
3296.35415	0.86748
3294.30035	0.86788
3292.24654	0.86791
3290.19274	0.86746
3288.13894	0.86733
3286.08513	0.86776
3284.03133	0.86830
3281.97753	0.86881
3279.92372	0.86953
3277.86992	0.87027
3275.81612	0.87066
3273.76232	0.87089
3271.70851	0.87109
3269.65471	0.87124
3267.60091	0.87135
3265.54710	0.87136
3263.49330	0.87161
3261.43950	0.87225
3259.38569	0.87261
3257.33189	0.87240
3255.27809	0.87232
3253.22428	0.87244
3251.17048	0.87244
3249.11668	0.87281
3247.06287	0.87371
3245.00907	0.87428
3242.95527	0.87438
3240.90146	0.87471
3238.84766	0.87512
3236.79386	0.87550
3234.74005	0.87608
3232.68625	0.87663
3230.63245	0.87687
3228.57864	0.87670
3226.52484	0.87658
3224.47104	0.87711
3222.41724	0.87802
3220.36343	0.87856
3218.30963	0.87889
3216.25583	0.87936
3214.20202	0.87961
3212.14822	0.87984
3210.09442	0.88067
3208.04061	0.88173
3205.98681	0.88243
3203.93301	0.88282
3201.87920	0.88310
3199.82540	0.88317
3197.77160	0.88299
3195.71779	0.88330
3193.66399	0.88426
3191.61019	0.88509
3189.55638	0.88553
3187.50258	0.88589
3185.44878	0.88653
3183.39497	0.88716
3181.34117	0.88737
3179.28737	0.88750
3177.23356	0.88792
3175.17976	0.88851
3173.12596	0.88899
3171.07215	0.88900
3169.01835	0.88885
3166.96455	0.88912
3164.91075	0.88963
3162.85694	0.89036
3160.80314	0.89090
3158.74934	0.89097
3156.69553	0.89154
3154.64173	0.89277
3152.58793	0.89368
3150.53412	0.89428
3148.48032	0.89491
3146.42652	0.89534
3144.37271	0.89581
3142.31891	0.89644
3140.26511	0.89672
3138.21130	0.89684
3136.15750	0.89739
3134.10370	0.89812
3132.04989	0.89876
3129.99609	0.89937
3127.94229	0.89986
3125.88848	0.90033
3123.83468	0.90088
3121.78088	0.90120
3119.72707	0.90129
3117.67327	0.90156
3115.61947	0.90180
3113.56566	0.90185
3111.51186	0.90202
3109.45806	0.90218
3107.40426	0.90192
3105.35045	0.90126
3103.29665	0.90057
3101.24285	0.90041
3099.18904	0.90082
3097.13524	0.90146
3095.08144	0.90217
3093.02763	0.90244
3090.97383	0.90159
3088.92003	0.89954
3086.86622	0.89702
3084.81242	0.89474
3082.75862	0.89307
3080.70481	0.89271
3078.65101	0.89381
3076.59721	0.89557
3074.54340	0.89715
3072.48960	0.89799
3070.43580	0.89792
3068.38199	0.89704
3066.32819	0.89528
3064.27439	0.89263
3062.22058	0.88996
3060.16678	0.88838
3058.11298	0.88840
3056.05918	0.89017
3054.00537	0.89305
3051.95157	0.89607
3049.89777	0.89890
3047.84396	0.90121
3045.79016	0.90259
3043.73636	0.90304
3041.68255	0.90291
3039.62875	0.90230
3037.57495	0.90086
3035.52114	0.89799
3033.46734	0.89309
3031.41354	0.88610
3029.35973	0.87806
3027.30593	0.87074
3025.25213	0.86671
3023.19832	0.86834
3021.14452	0.87521
3019.09072	0.88418
3017.03691	0.89187
3014.98311	0.89704
3012.92931	0.90055
3010.87550	0.90295
3008.82170	0.90414
3006.76790	0.90463
3004.71409	0.90464
3002.66029	0.90417
3000.60649	0.90420
2998.55269	0.90552
2996.49888	0.90782
2994.44508	0.91020
2992.39128	0.91180
2990.33747	0.91248
2988.28367	0.91277
2986.22987	0.91305
2984.17606	0.91344
2982.12226	0.91376
2980.06846	0.91367
2978.01465	0.91311
2975.96085	0.91269
2973.90705	0.91280
2971.85324	0.91257
2969.79944	0.91178
2967.74564	0.91103
2965.69183	0.90998
2963.63803	0.90821
2961.58423	0.90662
2959.53042	0.90594
2957.47662	0.90539
2955.42282	0.90426
2953.36901	0.90310
2951.31521	0.90226
2949.26141	0.90112
2947.20761	0.89926
2945.15380	0.89674
2943.10000	0.89356
2941.04620	0.88964
2938.99239	0.88494
2936.93859	0.87934
2934.88479	0.87304
2932.83098	0.86659
2930.77718	0.86008
2928.72338	0.85359
2926.66957	0.84780
2924.61577	0.84308
2922.56197	0.83979
2920.50816	0.83845
2918.45436	0.83880
2916.40056	0.84063
2914.34675	0.84441
2912.29295	0.84984
2910.23915	0.85549
2908.18534	0.86040
2906.13154	0.86509
2904.07774	0.86993
2902.02393	0.87422
2899.97013	0.87763
2897.91633	0.88112
2895.86252	0.88508
2893.80872	0.88837
2891.75492	0.89066
2889.70112	0.89253
2887.64731	0.89438
2885.59351	0.89620
2883.53971	0.89774
2881.48590	0.89910
2879.43210	0.90034
2877.37830	0.90131
2875.32449	0.90185
2873.27069	0.90229
2871.21689	0.90289
2869.16308	0.90325
2867.10928	0.90291
2865.05548	0.90212
2863.00167	0.90083
2860.94787	0.89837
2858.89407	0.89511
2856.84026	0.89187
2854.78646	0.88841
2852.73266	0.88488
2850.67885	0.88273
2848.62505	0.88326
2846.57125	0.88614
2844.51744	0.89024
2842.46364	0.89491
2840.40984	0.89980
2838.35603	0.90430
2836.30223	0.90800
2834.24843	0.91092
2832.19463	0.91301
2830.14082	0.91444
2828.08702	0.91554
2826.03322	0.91637
2823.97941	0.91698
2821.92561	0.91774
2819.87181	0.91875
2817.81800	0.91934
2815.76420	0.91930
2813.71040	0.91925
2811.65659	0.91967
2809.60279	0.92021
2807.54899	0.92067
2805.49518	0.92130
2803.44138	0.92160
2801.38758	0.92148
2799.33377	0.92160
2797.27997	0.92193
2795.22617	0.92223
2793.17236	0.92272
2791.11856	0.92332
2789.06476	0.92365
2787.01095	0.92388
2784.95715	0.92401
2782.90335	0.92395
2780.84955	0.92428
2778.79574	0.92497
2776.74194	0.92539
2774.68814	0.92538
2772.63433	0.92515
2770.58053	0.92513
2768.52673	0.92552
2766.47292	0.92591
2764.41912	0.92599
2762.36532	0.92592
2760.31151	0.92595
2758.25771	0.92612
2756.20391	0.92621
2754.15010	0.92625
2752.09630	0.92627
2750.04250	0.92625
2747.98869	0.92627
2745.93489	0.92636
2743.88109	0.92651
2741.82728	0.92664
2739.77348	0.92676
2737.71968	0.92700
2735.66587	0.92726
2733.61207	0.92735
2731.55827	0.92730
2729.50446	0.92716
2727.45066	0.92695
2725.39686	0.92688
2723.34306	0.92715
2721.28925	0.92766
2719.23545	0.92805
2717.18165	0.92795
2715.12784	0.92762
2713.07404	0.92769
2711.02024	0.92797
2708.96643	0.92803
2706.91263	0.92794
2704.85883	0.92793
2702.80502	0.92819
2700.75122	0.92841
2698.69742	0.92825
2696.64361	0.92817
2694.58981	0.92840
2692.53601	0.92846
2690.48220	0.92837
2688.42840	0.92850
2686.37460	0.92871
2684.32079	0.92887
2682.26699	0.92915
2680.21319	0.92941
2678.15938	0.92942
2676.10558	0.92927
2674.05178	0.92922
2671.99797	0.92939
2669.94417	0.92966
2667.89037	0.92983
2665.83657	0.92979
2663.78276	0.92963
2661.72896	0.92956
2659.67516	0.92948
2657.62135	0.92926
2655.56755	0.92910
2653.51375	0.92924
2651.45994	0.92967
2649.40614	0.93002
2647.35234	0.93014
2645.29853	0.93018
2643.24473	0.93019
2641.19093	0.93009
2639.13712	0.92976
2637.08332	0.92959
2635.02952	0.93008
2632.97571	0.93078
2630.92191	0.93085
2628.86811	0.93055
2626.81430	0.93061
2624.76050	0.93089
2622.70670	0.93110
2620.65289	0.93153
2618.59909	0.93194
2616.54529	0.93186
2614.49149	0.93179
2612.43768	0.93190
2610.38388	0.93177
2608.33008	0.93168
2606.27627	0.93180
2604.22247	0.93192
2602.16867	0.93224
2600.11486	0.93284
2598.06106	0.93334
2596.00726	0.93346
2593.95345	0.93333
2591.89965	0.93347
2589.84585	0.93406
2587.79204	0.93440
2585.73824	0.93410
2583.68444	0.93353
2581.63063	0.93315
2579.57683	0.93328
2577.52303	0.93377
2575.46922	0.93429
2573.41542	0.93441
2571.36162	0.93409
2569.30781	0.93421
2567.25401	0.93455
2565.20021	0.93382
2563.14640	0.93232
2561.09260	0.93169
2559.03880	0.93226
2556.98500	0.93292
2554.93119	0.93337
2552.87739	0.93392
2550.82359	0.93476
2548.76978	0.93569
2546.71598	0.93613
2544.66218	0.93576
2542.60837	0.93478
2540.55457	0.93420
2538.50077	0.93472
2536.44696	0.93579
2534.39316	0.93602
2532.33936	0.93499
2530.28555	0.93406
2528.23175	0.93392
2526.17795	0.93411
2524.12414	0.93430
2522.07034	0.93438
2520.01654	0.93445
2517.96273	0.93463
2515.90893	0.93502
2513.85513	0.93574
2511.80132	0.93645
2509.74752	0.93664
2507.69372	0.93630
2505.63992	0.93591
2503.58611	0.93594
2501.53231	0.93615
2499.47851	0.93619
2497.42470	0.93632
2495.37090	0.93668
2493.31710	0.93678
2491.26329	0.93619
2489.20949	0.93522
2487.15569	0.93480
2485.10188	0.93545
2483.04808	0.93653
2480.99428	0.93680
2478.94047	0.93628
2476.88667	0.93597
2474.83287	0.93600
2472.77906	0.93620
2470.72526	0.93646
2468.67146	0.93648
2466.61765	0.93606
2464.56385	0.93539
2462.51005	0.93513
2460.45624	0.93526
2458.40244	0.93529
2456.34864	0.93560
2454.29483	0.93608
2452.24103	0.93607
2450.18723	0.93602
2448.13343	0.93617
2446.07962	0.93623
2444.02582	0.93634
2441.97202	0.93633
2439.91821	0.93615
2437.86441	0.93649
2435.81061	0.93682
2433.75680	0.93614
2431.70300	0.93530
2429.64920	0.93535
2427.59539	0.93599
2425.54159	0.93642
2423.48779	0.93692
2421.43398	0.93780
2419.38018	0.93811
2417.32638	0.93765
2415.27257	0.93744
2413.21877	0.93772
2411.16497	0.93772
2409.11116	0.93746
2407.05736	0.93731
2405.00356	0.93744
2402.94975	0.93775
2400.89595	0.93776
2398.84215	0.93759
2396.78834	0.93757
2394.73454	0.93740
2392.68074	0.93721
2390.62694	0.93768
2388.57313	0.93808
2386.51933	0.93762
2384.46553	0.93710
2382.41172	0.93698
2380.35792	0.93694
2378.30412	0.93678
2376.25031	0.93700
2374.19651	0.93744
2372.14271	0.93695
2370.08890	0.93595
2368.03510	0.93583
2365.98130	0.93648
2363.92749	0.93752
2361.87369	0.93853
2359.81989	0.93835
2357.76608	0.93689
2355.71228	0.93574
2353.65848	0.93632
2351.60467	0.93719
2349.55087	0.93672
2347.49707	0.93582
2345.44326	0.93578
2343.38946	0.93659
2341.33566	0.93700
2339.28186	0.93691
2337.22805	0.93745
2335.17425	0.93787
2333.12045	0.93751
2331.06664	0.93726
2329.01284	0.93656
2326.95904	0.93518
2324.90523	0.93441
2322.85143	0.93457
2320.79763	0.93514
2318.74382	0.93556
2316.69002	0.93553
2314.63622	0.93562
2312.58241	0.93617
2310.52861	0.93660
2308.47481	0.93699
2306.42100	0.93719
2304.36720	0.93652
2302.31340	0.93568
2300.25959	0.93586
2298.20579	0.93691
2296.15199	0.93768
2294.09818	0.93776
2292.04438	0.93745
2289.99058	0.93694
2287.93677	0.93652
2285.88297	0.93635
2283.82917	0.93667
2281.77537	0.93730
2279.72156	0.93763
2277.66776	0.93790
2275.61396	0.93834
2273.56015	0.93905
2271.50635	0.94019
2269.45255	0.94109
2267.39874	0.94178
2265.34494	0.94275
2263.29114	0.94304
2261.23733	0.94193
2259.18353	0.94030
2257.12973	0.93893
2255.07592	0.93822
2253.02212	0.93885
2250.96832	0.93990
2248.91451	0.93975
2246.86071	0.93911
2244.80691	0.93946
2242.75310	0.94022
2240.69930	0.93998
2238.64550	0.93922
2236.59169	0.93948
2234.53789	0.94060
2232.48409	0.94169
2230.43029	0.94280
2228.37648	0.94312
2226.32268	0.94284
2224.26888	0.94357
2222.21507	0.94450
2220.16127	0.94392
2218.10747	0.94250
2216.05366	0.94185
2213.99986	0.94214
2211.94606	0.94215
2209.89225	0.94107
2207.83845	0.94046
2205.78465	0.94099
2203.73084	0.94184
2201.67704	0.94309
2199.62324	0.94400
2197.56943	0.94528
2195.51563	0.94718
2193.46183	0.94764
2191.40802	0.94606
2189.35422	0.94368
2187.30042	0.94196
2185.24661	0.94180
2183.19281	0.94237
2181.13901	0.94170
2179.08520	0.94111
2177.03140	0.94201
2174.97760	0.94203
2172.92380	0.94102
2170.86999	0.94152
2168.81619	0.94264
2166.76239	0.94195
2164.70858	0.94089
2162.65478	0.94124
2160.60098	0.94209
2158.54717	0.94334
2156.49337	0.94498
2154.43957	0.94606
2152.38576	0.94634
2150.33196	0.94596
2148.27816	0.94667
2146.22435	0.94879
2144.17055	0.94906
2142.11675	0.94716
2140.06294	0.94611
2138.00914	0.94640
2135.95534	0.94641
2133.90153	0.94563
2131.84773	0.94483
2129.79393	0.94462
2127.74012	0.94449
2125.68632	0.94412
2123.63252	0.94411
2121.57871	0.94426
2119.52491	0.94410
2117.47111	0.94415
2115.41731	0.94509
2113.36350	0.94599
2111.30970	0.94467
2109.25590	0.94191
2107.20209	0.94090
2105.14829	0.94161
2103.09449	0.94183
2101.04068	0.94190
2098.98688	0.94371
2096.93308	0.94569
2094.87927	0.94487
2092.82547	0.94312
2090.77167	0.94292
2088.71786	0.94334
2086.66406	0.94341
2084.61026	0.94293
2082.55645	0.94196
2080.50265	0.94176
2078.44885	0.94295
2076.39504	0.94430
2074.34124	0.94551
2072.28744	0.94645
2070.23363	0.94613
2068.17983	0.94535
2066.12603	0.94544
2064.07223	0.94540
2062.01842	0.94440
2059.96462	0.94384
2057.91082	0.94428
2055.85701	0.94495
2053.80321	0.94526
2051.74941	0.94473
2049.69560	0.94425
2047.64180	0.94509
2045.58800	0.94692
2043.53419	0.94846
2041.48039	0.94886
2039.42659	0.94798
2037.37278	0.94746
2035.31898	0.94976
2033.26518	0.95383
2031.21137	0.95667
2029.15757	0.95639
2027.10377	0.95334
2025.04996	0.95079
2022.99616	0.95112
2020.94236	0.95291
2018.88855	0.95281
2016.83475	0.95107
2014.78095	0.95040
2012.72714	0.95028
2010.67334	0.94883
2008.61954	0.94679
2006.56574	0.94670
2004.51193	0.94849
2002.45813	0.94915
2000.40433	0.94768
1998.35052	0.94609
1996.29672	0.94618
1994.24292	0.94750
1992.18911	0.94805
1990.13531	0.94792
1988.08151	0.94877
1986.02770	0.94911
1983.97390	0.94759
1981.92010	0.94616
1979.86629	0.94599
1977.81249	0.94629
1975.75869	0.94639
1973.70488	0.94731
1971.65108	0.94895
1969.59728	0.94891
1967.54347	0.94849
1965.48967	0.94933
1963.43587	0.95013
1961.38206	0.95109
1959.32826	0.95201
1957.27446	0.95065
1955.22066	0.94741
1953.16685	0.94453
1951.11305	0.94265
1949.05925	0.94192
1947.00544	0.94135
1944.95164	0.94053
1942.89784	0.94104
1940.84403	0.94224
1938.79023	0.94256
1936.73643	0.94292
1934.68262	0.94412
1932.62882	0.94512
1930.57502	0.94484
1928.52121	0.94419
1926.46741	0.94529
1924.41361	0.94755
1922.35980	0.94815
1920.30600	0.94740
1918.25220	0.94765
1916.19839	0.94803
1914.14459	0.94745
1912.09079	0.94715
1910.03698	0.94730
1907.98318	0.94729
1905.92938	0.94718
1903.87557	0.94683
1901.82177	0.94642
1899.76797	0.94665
1897.71417	0.94713
1895.66036	0.94671
1893.60656	0.94580
1891.55276	0.94541
1889.49895	0.94507
1887.44515	0.94474
1885.39135	0.94481
1883.33754	0.94451
1881.28374	0.94363
1879.22994	0.94289
1877.17613	0.94275
1875.12233	0.94309
1873.06853	0.94337
1871.01472	0.94300
1868.96092	0.94192
1866.90712	0.94129
1864.85331	0.94184
1862.79951	0.94303
1860.74571	0.94415
1858.69190	0.94470
1856.63810	0.94516
1854.58430	0.94591
1852.53049	0.94638
1850.47669	0.94645
1848.42289	0.94620
1846.36908	0.94568
1844.31528	0.94588
1842.26148	0.94697
1840.20768	0.94765
1838.15387	0.94772
1836.10007	0.94754
1834.04627	0.94749
1831.99246	0.94751
1829.93866	0.94696
1827.88486	0.94616
1825.83105	0.94594
1823.77725	0.94581
1821.72345	0.94569
1819.66964	0.94599
1817.61584	0.94629
1815.56204	0.94585
1813.50823	0.94496
1811.45443	0.94437
1809.40063	0.94385
1807.34682	0.94297
1805.29302	0.94224
1803.23922	0.94217
1801.18541	0.94244
1799.13161	0.94263
1797.07781	0.94310
1795.02400	0.94390
1792.97020	0.94443
1790.91640	0.94462
1788.86260	0.94472
1786.80879	0.94479
1784.75499	0.94499
1782.70119	0.94544
1780.64738	0.94607
1778.59358	0.94658
1776.53978	0.94659
1774.48597	0.94594
1772.43217	0.94515
1770.37837	0.94500
1768.32456	0.94514
1766.27076	0.94499
1764.21696	0.94438
1762.16315	0.94335
1760.10935	0.94238
1758.05555	0.94159
1756.00174	0.94027
1753.94794	0.93870
1751.89414	0.93693
1749.84033	0.93452
1747.78653	0.93214
1745.73273	0.93027
1743.67892	0.92870
1741.62512	0.92774
1739.57132	0.92799
1737.51751	0.92885
1735.46371	0.92960
1733.40991	0.93041
1731.35611	0.93098
1729.30230	0.93148
1727.24850	0.93224
1725.19470	0.93295
1723.14089	0.93326
1721.08709	0.93345
1719.03329	0.93399
1716.97948	0.93479
1714.92568	0.93550
1712.87188	0.93603
1710.81807	0.93608
1708.76427	0.93546
1706.71047	0.93453
1704.65666	0.93387
1702.60286	0.93360
1700.54906	0.93313
1698.49525	0.93195
1696.44145	0.93024
1694.38765	0.92830
1692.33384	0.92695
1690.28004	0.92586
1688.22624	0.92472
1686.17243	0.92357
1684.11863	0.92151
1682.06483	0.91933
1680.01103	0.91796
1677.95722	0.91650
1675.90342	0.91476
1673.84962	0.91311
1671.79581	0.91193
1669.74201	0.91062
1667.68821	0.90901
1665.63440	0.90776
1663.58060	0.90658
1661.52680	0.90508
1659.47299	0.90377
1657.41919	0.90315
1655.36539	0.90321
1653.31158	0.90330
1651.25778	0.90229
1649.20398	0.90162
1647.15017	0.90159
1645.09637	0.90128
1643.04257	0.90077
1640.98876	0.90071
1638.93496	0.90083
1636.88116	0.90069
1634.82735	0.90058
1632.77355	0.90088
1630.71975	0.90130
1628.66594	0.90165
1626.61214	0.90197
1624.55834	0.90232
1622.50454	0.90273
1620.45073	0.90346
1618.39693	0.90458
1616.34313	0.90545
1614.28932	0.90533
1612.23552	0.90500
1610.18172	0.90410
1608.12791	0.90067
1606.07411	0.89368
1604.02031	0.88491
1601.96650	0.87824
1599.91270	0.87797
1597.85890	0.88416
1595.80509	0.89266
1593.75129	0.89960
1591.69749	0.90410
1589.64368	0.90678
1587.58988	0.90753
1585.53608	0.90628
1583.48227	0.90466
1581.42847	0.90517
1579.37467	0.90797
1577.32086	0.91181
1575.26706	0.91509
1573.21326	0.91649
1571.15945	0.91748
1569.10565	0.91858
1567.05185	0.91884
1564.99805	0.91882
1562.94424	0.91916
1560.89044	0.91957
1558.83664	0.91976
1556.78283	0.91994
1554.72903	0.92025
1552.67523	0.92046
1550.62142	0.92038
1548.56762	0.92003
1546.51382	0.91957
1544.46001	0.91918
1542.40621	0.91906
1540.35241	0.91968
1538.29860	0.92144
1536.24480	0.92307
1534.19100	0.92450
1532.13719	0.92565
1530.08339	0.92638
1528.02959	0.92720
1525.97578	0.92811
1523.92198	0.92890
1521.86818	0.92988
1519.81437	0.93119
1517.76057	0.93212
1515.70677	0.93236
1513.65297	0.93238
1511.59916	0.93256
1509.54536	0.93286
1507.49156	0.93300
1505.43775	0.93232
1503.38395	0.93096
1501.33015	0.92799
1499.27634	0.91958
1497.22254	0.89538
1495.16874	0.85834
1493.11493	0.83584
1491.06113	0.84096
1489.00733	0.87126
1486.95352	0.89769
1484.89972	0.90991
1482.84592	0.91633
1480.79211	0.92031
1478.73831	0.92225
1476.68451	0.92276
1474.63070	0.92256
1472.57690	0.92147
1470.52310	0.91967
1468.46929	0.91807
1466.41549	0.91689
1464.36169	0.91594
1462.30788	0.91494
1460.25408	0.91269
1458.20028	0.90117
1456.14648	0.86698
1454.09267	0.83568
1452.03887	0.82299
1449.98507	0.82776
1447.93126	0.84348
1445.87746	0.85867
1443.82366	0.86969
1441.76985	0.87878
1439.71605	0.88596
1437.66225	0.89242
1435.60844	0.89947
1433.55464	0.90452
1431.50084	0.90787
1429.44703	0.91071
1427.39323	0.91272
1425.33943	0.91409
1423.28562	0.91525
1421.23182	0.91616
1419.17802	0.91690
1417.12421	0.91723
1415.07041	0.91748
1413.01661	0.91818
1410.96280	0.91920
1408.90900	0.92023
1406.85520	0.92123
1404.80139	0.92234
1402.74759	0.92333
1400.69379	0.92406
1398.63999	0.92441
1396.58618	0.92433
1394.53238	0.92430
1392.47858	0.92439
1390.42477	0.92398
1388.37097	0.92294
1386.31717	0.92165
1384.26336	0.92038
1382.20956	0.91899
1380.15576	0.91738
1378.10195	0.91599
1376.04815	0.91514
1373.99435	0.91488
1371.94054	0.91530
1369.88674	0.91604
1367.83294	0.91649
1365.77913	0.91685
1363.72533	0.91763
1361.67153	0.91861
1359.61772	0.91939
1357.56392	0.92001
1355.51012	0.92065
1353.45631	0.92121
1351.40251	0.92164
1349.34871	0.92206
1347.29491	0.92266
1345.24110	0.92343
1343.18730	0.92404
1341.13350	0.92447
1339.07969	0.92493
1337.02589	0.92506
1334.97209	0.92463
1332.91828	0.92402
1330.86448	0.92350
1328.81068	0.92323
1326.75687	0.92347
1324.70307	0.92434
1322.64927	0.92520
1320.59546	0.92531
1318.54166	0.92477
1316.48786	0.92438
1314.43405	0.92425
1312.38025	0.92392
1310.32645	0.92383
1308.27264	0.92444
1306.21884	0.92538
1304.16504	0.92616
1302.11123	0.92677
1300.05743	0.92731
1298.00363	0.92764
1295.94982	0.92788
1293.89602	0.92805
1291.84222	0.92786
1289.78842	0.92746
1287.73461	0.92731
1285.68081	0.92756
1283.62701	0.92788
1281.57320	0.92790
1279.51940	0.92769
1277.46560	0.92737
1275.41179	0.92713
1273.35799	0.92724
1271.30419	0.92742
1269.25038	0.92737
1267.19658	0.92737
1265.14278	0.92749
1263.08897	0.92744
1261.03517	0.92722
1258.98137	0.92699
1256.92756	0.92677
1254.87376	0.92651
1252.81996	0.92628
1250.76615	0.92592
1248.71235	0.92525
1246.65855	0.92451
1244.60474	0.92388
1242.55094	0.92345
1240.49714	0.92312
1238.44334	0.92262
1236.38953	0.92209
1234.33573	0.92162
1232.28193	0.92098
1230.22812	0.92040
1228.17432	0.91999
1226.12052	0.91934
1224.06671	0.91840
1222.01291	0.91745
1219.95911	0.91643
1217.90530	0.91505
1215.85150	0.91346
1213.79770	0.91187
1211.74389	0.90996
1209.69009	0.90753
1207.63629	0.90502
1205.58248	0.90251
1203.52868	0.89953
1201.47488	0.89627
1199.42107	0.89312
1197.36727	0.88981
1195.31347	0.88620
1193.25966	0.88254
1191.20586	0.87899
1189.15206	0.87530
1187.09825	0.87083
1185.04445	0.86561
1182.99065	0.86025
1180.93685	0.85516
1178.88304	0.85130
1176.82924	0.84903
1174.77544	0.84721
1172.72163	0.84482
1170.66783	0.84160
1168.61403	0.83795
1166.56022	0.83463
1164.50642	0.83210
1162.45262	0.82989
1160.39881	0.82707
1158.34501	0.82341
1156.29121	0.81948
1154.23740	0.81631
1152.18360	0.81461
1150.12980	0.81405
1148.07599	0.81366
1146.02219	0.81303
1143.96839	0.81237
1141.91458	0.81153
1139.86078	0.81055
1137.80698	0.80975
1135.75317	0.80880
1133.69937	0.80741
1131.64557	0.80567
1129.59176	0.80339
1127.53796	0.80047
1125.48416	0.79693
1123.43036	0.79267
1121.37655	0.78754
1119.32275	0.78166
1117.26895	0.77573
1115.21514	0.76980
1113.16134	0.76370
1111.10754	0.75797
1109.05373	0.75311
1106.99993	0.74908
1104.94613	0.74551
1102.89232	0.74172
1100.83852	0.73778
1098.78472	0.73465
1096.73091	0.73250
1094.67711	0.73092
1092.62331	0.72957
1090.56950	0.72813
1088.51570	0.72679
1086.46190	0.72578
1084.40809	0.72470
1082.35429	0.72292
1080.30049	0.72056
1078.24668	0.71836
1076.19288	0.71648
1074.13908	0.71424
1072.08528	0.71114
1070.03147	0.70775
1067.97767	0.70482
1065.92387	0.70255
1063.87006	0.70046
1061.81626	0.69792
1059.76246	0.69484
1057.70865	0.69149
1055.65485	0.68784
1053.60105	0.68347
1051.54724	0.67798
1049.49344	0.67160
1047.43964	0.66492
1045.38583	0.65795
1043.33203	0.65012
1041.27823	0.64140
1039.22442	0.63239
1037.17062	0.62322
1035.11682	0.61327
1033.06301	0.60200
1031.00921	0.59027
1028.95541	0.58094
1026.90160	0.57618
1024.84780	0.57516
1022.79400	0.57560
1020.74019	0.57607
1018.68639	0.57608
1016.63259	0.57532
1014.57879	0.57398
1012.52498	0.57279
1010.47118	0.57181
1008.41738	0.57046
1006.36357	0.56899
1004.30977	0.56845
1002.25597	0.56971
1000.20216	0.57275
998.14836	0.57718
996.09456	0.58265
994.04075	0.58851
991.98695	0.59411
989.93315	0.59946
987.87934	0.60519
985.82554	0.61194
983.77174	0.61964
981.71793	0.62786
979.66413	0.63666
977.61033	0.64623
975.55652	0.65662
973.50272	0.66759
971.44892	0.67801
969.39511	0.68712
967.34131	0.69561
965.28751	0.70374
963.23371	0.71139
961.17990	0.71916
959.12610	0.72733
957.07230	0.73527
955.01849	0.74213
952.96469	0.74787
950.91089	0.75299
948.85708	0.75724
946.80328	0.76051
944.74948	0.76331
942.69567	0.76642
940.64187	0.77002
938.58807	0.77348
936.53426	0.77709
934.48046	0.78142
932.42666	0.78567
930.37285	0.78899
928.31905	0.79124
926.26525	0.79253
924.21144	0.79331
922.15764	0.79368
920.10384	0.79307
918.05003	0.79129
915.99623	0.78858
913.94243	0.78546
911.88862	0.78297
909.83482	0.78151
907.78102	0.78135
905.72722	0.78394
903.67341	0.79015
901.61961	0.79885
899.56581	0.80845
897.51200	0.81756
895.45820	0.82502
893.40440	0.83080
891.35059	0.83556
889.29679	0.83944
887.24299	0.84230
885.18918	0.84455
883.13538	0.84682
881.08158	0.84890
879.02777	0.85000
876.97397	0.85061
874.92017	0.85240
872.86636	0.85542
870.81256	0.85832
868.75876	0.86078
866.70495	0.86336
864.65115	0.86625
862.59735	0.86930
860.54354	0.87189
858.48974	0.87315
856.43594	0.87356
854.38213	0.87408
852.32833	0.87432
850.27453	0.87347
848.22073	0.87162
846.16692	0.86948
844.11312	0.86786
842.05932	0.86690
840.00551	0.86618
837.95171	0.86630
835.89791	0.86743
833.84410	0.86873
831.79030	0.86937
829.73650	0.86904
827.68269	0.86874
825.62889	0.86905
823.57509	0.86937
821.52128	0.86940
819.46748	0.86922
817.41368	0.86904
815.35987	0.86863
813.30607	0.86752
811.25227	0.86590
809.19846	0.86371
807.14466	0.85979
805.09086	0.85396
803.03705	0.84766
800.98325	0.84204
798.92945	0.83849
796.87565	0.83809
794.82184	0.83925
792.76804	0.83948
790.71424	0.83854
788.66043	0.83731
786.60663	0.83513
784.55283	0.83133
782.49902	0.82688
780.44522	0.82266
778.39142	0.81816
776.33761	0.81255
774.28381	0.80586
772.23001	0.79749
770.17620	0.78619
768.12240	0.77288
766.06860	0.75890
764.01479	0.74411
761.96099	0.72930
759.90719	0.71575
757.85338	0.70491
755.79958	0.69912
753.74578	0.69814
751.69197	0.69915
749.63817	0.70085
747.58437	0.70441
745.53056	0.71237
743.47676	0.72630
741.42296	0.74400
739.36916	0.76120
737.31535	0.77560
735.26155	0.78770
733.20775	0.79837
731.15394	0.80698
729.10014	0.81302
727.04634	0.81720
724.99253	0.82019
722.93873	0.82224
720.88493	0.82422
718.83112	0.82666
716.77732	0.82864
714.72352	0.82915
712.66971	0.82576
710.61591	0.81401
708.56211	0.78885
706.50830	0.74580
704.45450	0.68339
702.40070	0.60543
700.34689	0.51978
698.29309	0.44142
696.23929	0.40099
694.18548	0.42828
692.13168	0.50975
690.07788	0.59609
688.02408	0.65536
685.97027	0.68894
683.91647	0.70905
681.86267	0.72246
679.80886	0.73111
677.75506	0.73704
675.70126	0.74151
673.64745	0.74458
671.59365	0.74685
669.53985	0.74882
667.48604	0.74985
665.43224	0.75071
663.37844	0.75235
661.32463	0.75390
659.27083	0.75435
657.21703	0.75359
655.16322	0.75201
653.10942	0.75044
651.05562	0.74949
649.00181	0.74945
646.94801	0.75053
644.89421	0.75236
642.84040	0.75475
640.78660	0.75725
638.73280	0.75923
636.67899	0.76061
634.62519	0.76087
632.57139	0.76011
630.51759	0.75906
628.46378	0.75785
626.40998	0.75710
624.35618	0.75699
622.30237	0.75627
620.24857	0.75457
618.19477	0.75246
616.14096	0.74984
614.08716	0.74668
612.03336	0.74369
609.97955	0.74135
607.92575	0.73942
605.87195	0.73670
603.81814	0.73275
601.76434	0.72869
599.71054	0.72493
597.65673	0.72156
595.60293	0.71947
593.54913	0.71835
591.49532	0.71735
589.44152	0.71615
587.38772	0.71490
585.33391	0.71376
583.28011	0.71247
581.22631	0.71093
579.17250	0.70853
577.11870	0.70472
575.06490	0.70087
573.01110	0.69840
570.95729	0.69560
568.90349	0.69082
566.84969	0.68526
564.79588	0.67957
562.74208	0.67342
560.68828	0.66729
558.63447	0.66097
556.58067	0.65361
554.52687	0.64584
552.47306	0.63818
550.41926	0.63009
548.36546	0.62091
546.31165	0.61074
544.25785	0.59982
542.20405	0.58717
540.15024	0.57370
538.09644	0.56284
536.04264	0.55676
533.98883	0.55594
531.93503	0.55928
529.88123	0.56409
527.82742	0.56944
525.77362	0.57587
523.71982	0.58223
521.66602	0.58844
519.61221	0.59481
517.55841	0.59999
515.50461	0.60370
513.45080	0.60795
511.39700	0.61396
509.34320	0.62023
507.28939	0.62519
505.23559	0.62916
503.18179	0.63278
501.12798	0.63600
499.07418	0.63852
497.02038	0.63979
494.96657	0.63856
492.91277	0.63435
490.85897	0.62788
488.80516	0.61975
486.75136	0.60946
484.69756	0.59699
482.64375	0.58417
480.58995	0.57166
478.53615	0.55701
476.48234	0.54053
474.42854	0.52611
472.37474	0.51453
470.32093	0.50481
468.26713	0.49646
466.21333	0.49099
464.15953	0.49129
462.10572	0.49611
460.05192	0.50158
457.99812	0.50742
455.94431	0.51425
453.89051	0.52013
451.83671	0.52537
449.78290	0.53013
447.72910	0.53363
445.67530	0.53607
443.62149	0.53847
441.56769	0.54062
439.51389	0.53890
437.46008	0.53342
435.40628	0.52876
433.35248	0.52691
431.29867	0.52491
429.24487	0.52061
427.19107	0.51689
425.13726	0.51657
423.08346	0.51909
421.02966	0.52113
418.97585	0.52322
416.92205	0.53246
414.86825	0.54230
412.81445	0.54554
410.76064	0.54467
408.70684	0.54591
406.65304	0.55154
404.59923	0.56230
402.54543	0.57275
400.49163	0.57323
398.43782	0.56337
