3996.70104	0.97948
3994.64724	0.97938
3992.59344	0.97922
3990.53964	0.97901
3988.48583	0.97880
3986.43203	0.97874
3984.37823	0.97862
3982.32442	0.97842
3980.27062	0.97849
3978.21682	0.97871
3976.16301	0.97863
3974.10921	0.97852
3972.05541	0.97871
3970.00160	0.97884
3967.94780	0.97877
3965.89400	0.97872
3963.84019	0.97873
3961.78639	0.97851
3959.73259	0.97843
3957.67878	0.97902
3955.62498	0.97938
3953.57118	0.97879
3951.51737	0.97802
3949.46357	0.97810
3947.40977	0.97877
3945.35596	0.97892
3943.30216	0.97855
3941.24836	0.97863
3939.19455	0.97919
3937.14075	0.97932
3935.08695	0.97910
3933.03315	0.97914
3930.97934	0.97929
3928.92554	0.97908
3926.87174	0.97860
3924.81793	0.97838
3922.76413	0.97868
3920.71033	0.97899
3918.65652	0.97899
3916.60272	0.97897
3914.54892	0.97900
3912.49511	0.97885
3910.44131	0.97860
3908.38751	0.97848
3906.33370	0.97828
3904.27990	0.97786
3902.22610	0.97772
3900.17229	0.97813
3898.11849	0.97871
3896.06469	0.97928
3894.01088	0.97965
3891.95708	0.97931
3889.90328	0.97887
3887.84947	0.97906
3885.79567	0.97920
3883.74187	0.97918
3881.68807	0.97910
3879.63426	0.97850
3877.58046	0.97806
3875.52666	0.97826
3873.47285	0.97874
3871.41905	0.97907
3869.36525	0.97919
3867.31144	0.97916
3865.25764	0.97909
3863.20384	0.97877
3861.15003	0.97835
3859.09623	0.97845
3857.04243	0.97852
3854.98862	0.97777
3852.93482	0.97732
3850.88102	0.97824
3848.82721	0.97903
3846.77341	0.97958
3844.71961	0.97981
3842.66580	0.97924
3840.61200	0.97809
3838.55820	0.97739
3836.50439	0.97790
3834.45059	0.97877
3832.39679	0.97906
3830.34298	0.97910
3828.28918	0.97946
3826.23538	0.97987
3824.18158	0.98007
3822.12777	0.97979
3820.07397	0.97860
3818.02017	0.97779
3815.96636	0.97811
3813.91256	0.97882
3811.85876	0.97934
3809.80495	0.97959
3807.75115	0.97922
3805.69735	0.97868
3803.64354	0.97855
3801.58974	0.97851
3799.53594	0.97874
3797.48213	0.97912
3795.42833	0.97911
3793.37453	0.97887
3791.32072	0.97880
3789.26692	0.97906
3787.21312	0.97953
3785.15931	0.97974
3783.10551	0.97929
3781.05171	0.97833
3778.99790	0.97820
3776.94410	0.97914
3774.89030	0.97953
3772.83650	0.97946
3770.78269	0.97957
3768.72889	0.97969
3766.67509	0.97969
3764.62128	0.97948
3762.56748	0.97919
3760.51368	0.97883
3758.45987	0.97847
3756.40607	0.97848
3754.35227	0.97885
3752.29846	0.97962
3750.24466	0.98074
3748.19086	0.98148
3746.13705	0.98181
3744.08325	0.98186
3742.02945	0.98142
3739.97564	0.98103
3737.92184	0.98102
3735.86804	0.98105
3733.81423	0.98052
3731.76043	0.97978
3729.70663	0.97933
3727.65282	0.97895
3725.59902	0.97850
3723.54522	0.97837
3721.49141	0.97867
3719.43761	0.97844
3717.38381	0.97750
3715.33001	0.97612
3713.27620	0.97412
3711.22240	0.97179
3709.16860	0.96973
3707.11479	0.96742
3705.06099	0.96490
3703.00719	0.96261
3700.95338	0.96043
3698.89958	0.95878
3696.84578	0.95801
3694.79197	0.95767
3692.73817	0.95813
3690.68437	0.96014
3688.63056	0.96229
3686.57676	0.96295
3684.52296	0.96358
3682.46915	0.96432
3680.41535	0.96481
3678.36155	0.96532
3676.30774	0.96572
3674.25394	0.96534
3672.20014	0.96463
3670.14633	0.96403
3668.09253	0.96361
3666.03873	0.96348
3663.98492	0.96305
3661.93112	0.96151
3659.87732	0.95977
3657.82352	0.95957
3655.76971	0.95983
3653.71591	0.95928
3651.66211	0.95852
3649.60830	0.95740
3647.55450	0.95662
3645.50070	0.95652
3643.44689	0.95665
3641.39309	0.95678
3639.33929	0.95619
3637.28548	0.95508
3635.23168	0.95394
3633.17788	0.95240
3631.12407	0.95059
3629.07027	0.94889
3627.01647	0.94815
3624.96266	0.94817
3622.90886	0.94788
3620.85506	0.94756
3618.80125	0.94707
3616.74745	0.94661
3614.69365	0.94779
3612.63984	0.94985
3610.58604	0.95024
3608.53224	0.94936
3606.47844	0.94923
3604.42463	0.94968
3602.37083	0.95019
3600.31703	0.95049
3598.26322	0.95057
3596.20942	0.95087
3594.15562	0.95071
3592.10181	0.94999
3590.04801	0.94971
3587.99421	0.94975
3585.94040	0.94926
3583.88660	0.94850
3581.83280	0.94798
3579.77899	0.94783
3577.72519	0.94785
3575.67139	0.94752
3573.61758	0.94675
3571.56378	0.94590
3569.50998	0.94537
3567.45617	0.94531
3565.40237	0.94505
3563.34857	0.94430
3561.29476	0.94349
3559.24096	0.94284
3557.18716	0.94270
3555.13335	0.94247
3553.07955	0.94138
3551.02575	0.94070
3548.97195	0.94121
3546.91814	0.94129
3544.86434	0.94018
3542.81054	0.93911
3540.75673	0.93835
3538.70293	0.93777
3536.64913	0.93771
3534.59532	0.93805
3532.54152	0.93834
3530.48772	0.93861
3528.43391	0.93902
3526.38011	0.93909
3524.32631	0.93858
3522.27250	0.93815
3520.21870	0.93794
3518.16490	0.93790
3516.11109	0.93828
3514.05729	0.93868
3512.00349	0.93880
3509.94968	0.93879
3507.89588	0.93864
3505.84208	0.93818
3503.78827	0.93762
3501.73447	0.93734
3499.68067	0.93720
3497.62687	0.93710
3495.57306	0.93727
3493.51926	0.93774
3491.46546	0.93808
3489.41165	0.93786
3487.35785	0.93737
3485.30405	0.93680
3483.25024	0.93605
3481.19644	0.93556
3479.14264	0.93568
3477.08883	0.93580
3475.03503	0.93532
3472.98123	0.93454
3470.92742	0.93407
3468.87362	0.93404
3466.81982	0.93402
3464.76601	0.93394
3462.71221	0.93386
3460.65841	0.93348
3458.60460	0.93294
3456.55080	0.93259
3454.49700	0.93240
3452.44319	0.93251
3450.38939	0.93291
3448.33559	0.93308
3446.28178	0.93270
3444.22798	0.93216
3442.17418	0.93159
3440.12038	0.93096
3438.06657	0.93024
3436.01277	0.92943
3433.95897	0.92887
3431.90516	0.92861
3429.85136	0.92829
3427.79756	0.92773
3425.74375	0.92732
3423.68995	0.92698
3421.63615	0.92608
3419.58234	0.92514
3417.52854	0.92495
3415.47474	0.92484
3413.42093	0.92421
3411.36713	0.92352
3409.31333	0.92299
3407.25952	0.92269
3405.20572	0.92261
3403.15192	0.92250
3401.09811	0.92255
3399.04431	0.92264
3396.99051	0.92257
3394.93670	0.92283
3392.88290	0.92339
3390.82910	0.92372
3388.77529	0.92383
3386.72149	0.92378
3384.66769	0.92384
3382.61389	0.92394
3380.56008	0.92365
3378.50628	0.92353
3376.45248	0.92384
3374.39867	0.92389
3372.34487	0.92393
3370.29107	0.92436
3368.23726	0.92473
3366.18346	0.92489
3364.12966	0.92498
3362.07585	0.92501
3360.02205	0.92508
3357.96825	0.92498
3355.91444	0.92501
3353.86064	0.92567
3351.80684	0.92639
3349.75303	0.92644
3347.69923	0.92588
3345.64543	0.92537
3343.59162	0.92543
3341.53782	0.92602
3339.48402	0.92676
3337.43021	0.92719
3335.37641	0.92730
3333.32261	0.92714
3331.26881	0.92693
3329.21500	0.92705
3327.16120	0.92724
3325.10740	0.92726
3323.05359	0.92749
3320.99979	0.92795
3318.94599	0.92831
3316.89218	0.92845
3314.83838	0.92832
3312.78458	0.92825
3310.73077	0.92846
3308.67697	0.92859
3306.62317	0.92858
3304.56936	0.92868
3302.51556	0.92899
3300.46176	0.92939
3298.40795	0.92961
3296.35415	0.92962
3294.30035	0.92959
3292.24654	0.92954
3290.19274	0.92965
3288.13894	0.93003
3286.08513	0.93027
3284.03133	0.93012
3281.97753	0.93015
3279.92372	0.93090
3277.86992	0.93166
3275.81612	0.93176
3273.76232	0.93140
3271.70851	0.93111
3269.65471	0.93146
3267.60091	0.93224
3265.54710	0.93303
3263.49330	0.93353
3261.43950	0.93340
3259.38569	0.93321
3257.33189	0.93351
3255.27809	0.93369
3253.22428	0.93363
3251.17048	0.93377
3249.11668	0.93395
3247.06287	0.93421
3245.00907	0.93441
3242.95527	0.93414
3240.90146	0.93405
3238.84766	0.93464
3236.79386	0.93542
3234.74005	0.93620
3232.68625	0.93667
3230.63245	0.93661
3228.57864	0.93651
3226.52484	0.93672
3224.47104	0.93734
3222.41724	0.93827
3220.36343	0.93893
3218.30963	0.93902
3216.25583	0.93908
3214.20202	0.93948
3212.14822	0.93995
3210.09442	0.94002
3208.04061	0.93983
3205.98681	0.94011
3203.93301	0.94083
3201.87920	0.94132
3199.82540	0.94166
3197.77160	0.94214
3195.71779	0.94271
3193.66399	0.94327
3191.61019	0.94367
3189.55638	0.94382
3187.50258	0.94372
3185.44878	0.94385
3183.39497	0.94458
3181.34117	0.94538
3179.28737	0.94587
3177.23356	0.94604
3175.17976	0.94581
3173.12596	0.94568
3171.07215	0.94621
3169.01835	0.94708
3166.96455	0.94796
3164.91075	0.94873
3162.85694	0.94894
3160.80314	0.94837
3158.74934	0.94795
3156.69553	0.94852
3154.64173	0.94933
3152.58793	0.94964
3150.53412	0.94975
3148.48032	0.95007
3146.42652	0.95070
3144.37271	0.95143
3142.31891	0.95195
3140.26511	0.95225
3138.21130	0.95240
3136.15750	0.95251
3134.10370	0.95289
3132.04989	0.95358
3129.99609	0.95433
3127.94229	0.95502
3125.88848	0.95563
3123.83468	0.95582
3121.78088	0.95531
3119.72707	0.95452
3117.67327	0.95417
3115.61947	0.95450
3113.56566	0.95523
3111.51186	0.95608
3109.45806	0.95667
3107.40426	0.95673
3105.35045	0.95668
3103.29665	0.95684
3101.24285	0.95690
3099.18904	0.95708
3097.13524	0.95752
3095.08144	0.95780
3093.02763	0.95769
3090.97383	0.95730
3088.92003	0.95702
3086.86622	0.95724
3084.81242	0.95778
3082.75862	0.95809
3080.70481	0.95809
3078.65101	0.95811
3076.59721	0.95841
3074.54340	0.95882
3072.48960	0.95921
3070.43580	0.95947
3068.38199	0.95948
3066.32819	0.95965
3064.27439	0.96034
3062.22058	0.96105
3060.16678	0.96118
3058.11298	0.96095
3056.05918	0.96086
3054.00537	0.96114
3051.95157	0.96166
3049.89777	0.96199
3047.84396	0.96190
3045.79016	0.96181
3043.73636	0.96219
3041.68255	0.96258
3039.62875	0.96277
3037.57495	0.96305
3035.52114	0.96321
3033.46734	0.96317
3031.41354	0.96313
3029.35973	0.96307
3027.30593	0.96332
3025.25213	0.96396
3023.19832	0.96417
3021.14452	0.96383
3019.09072	0.96373
3017.03691	0.96390
3014.98311	0.96405
3012.92931	0.96412
3010.87550	0.96411
3008.82170	0.96401
3006.76790	0.96398
3004.71409	0.96421
3002.66029	0.96478
3000.60649	0.96534
2998.55269	0.96538
2996.49888	0.96504
2994.44508	0.96471
2992.39128	0.96439
2990.33747	0.96417
2988.28367	0.96428
2986.22987	0.96438
2984.17606	0.96408
2982.12226	0.96351
2980.06846	0.96284
2978.01465	0.96228
2975.96085	0.96174
2973.90705	0.96096
2971.85324	0.96010
2969.79944	0.95894
2967.74564	0.95737
2965.69183	0.95561
2963.63803	0.95405
2961.58423	0.95291
2959.53042	0.95163
2957.47662	0.95007
2955.42282	0.94859
2953.36901	0.94746
2951.31521	0.94669
2949.26141	0.94550
2947.20761	0.94320
2945.15380	0.93989
2943.10000	0.93570
2941.04620	0.93019
2938.99239	0.92323
2936.93859	0.91467
2934.88479	0.90410
2932.83098	0.89156
2930.77718	0.87686
2928.72338	0.85983
2926.66957	0.84025
2924.61577	0.81708
2922.56197	0.78988
2920.50816	0.76044
2918.45436	0.73309
2916.40056	0.71440
2914.34675	0.71030
2912.29295	0.72117
2910.23915	0.74143
2908.18534	0.76385
2906.13154	0.78371
2904.07774	0.79969
2902.02393	0.81212
2899.97013	0.82173
2897.91633	0.82978
2895.86252	0.83754
2893.80872	0.84538
2891.75492	0.85338
2889.70112	0.86171
2887.64731	0.87004
2885.59351	0.87801
2883.53971	0.88570
2881.48590	0.89319
2879.43210	0.90041
2877.37830	0.90719
2875.32449	0.91314
2873.27069	0.91794
2871.21689	0.92133
2869.16308	0.92292
2867.10928	0.92279
2865.05548	0.92093
2863.00167	0.91626
2860.94787	0.90753
2858.89407	0.89360
2856.84026	0.87256
2854.78646	0.84260
2852.73266	0.80459
2850.67885	0.76572
2848.62505	0.74022
2846.57125	0.73930
2844.51744	0.76059
2842.46364	0.79234
2840.40984	0.82411
2838.35603	0.85093
2836.30223	0.87204
2834.24843	0.88833
2832.19463	0.90072
2830.14082	0.91027
2828.08702	0.91790
2826.03322	0.92397
2823.97941	0.92879
2821.92561	0.93271
2819.87181	0.93620
2817.81800	0.93935
2815.76420	0.94189
2813.71040	0.94399
2811.65659	0.94593
2809.60279	0.94782
2807.54899	0.94964
2805.49518	0.95111
2803.44138	0.95209
2801.38758	0.95306
2799.33377	0.95412
2797.27997	0.95482
2795.22617	0.95540
2793.17236	0.95643
2791.11856	0.95766
2789.06476	0.95872
2787.01095	0.95952
2784.95715	0.96015
2782.90335	0.96074
2780.84955	0.96130
2778.79574	0.96202
2776.74194	0.96291
2774.68814	0.96356
2772.63433	0.96384
2770.58053	0.96406
2768.52673	0.96449
2766.47292	0.96483
2764.41912	0.96503
2762.36532	0.96546
2760.31151	0.96603
2758.25771	0.96639
2756.20391	0.96650
2754.15010	0.96658
2752.09630	0.96672
2750.04250	0.96692
2747.98869	0.96701
2745.93489	0.96696
2743.88109	0.96705
2741.82728	0.96720
2739.77348	0.96720
2737.71968	0.96714
2735.66587	0.96724
2733.61207	0.96772
2731.55827	0.96811
2729.50446	0.96809
2727.45066	0.96820
2725.39686	0.96860
2723.34306	0.96888
2721.28925	0.96898
2719.23545	0.96910
2717.18165	0.96915
2715.12784	0.96905
2713.07404	0.96911
2711.02024	0.96930
2708.96643	0.96938
2706.91263	0.96948
2704.85883	0.96976
2702.80502	0.96996
2700.75122	0.96996
2698.69742	0.97001
2696.64361	0.97029
2694.58981	0.97067
2692.53601	0.97084
2690.48220	0.97070
2688.42840	0.97061
2686.37460	0.97076
2684.32079	0.97096
2682.26699	0.97100
2680.21319	0.97091
2678.15938	0.97087
2676.10558	0.97099
2674.05178	0.97132
2671.99797	0.97167
2669.94417	0.97177
2667.89037	0.97137
2665.83657	0.97085
2663.78276	0.97066
2661.72896	0.97043
2659.67516	0.97018
2657.62135	0.97024
2655.56755	0.97035
2653.51375	0.97058
2651.45994	0.97098
2649.40614	0.97104
2647.35234	0.97085
2645.29853	0.97089
2643.24473	0.97104
2641.19093	0.97098
2639.13712	0.97085
2637.08332	0.97085
2635.02952	0.97095
2632.97571	0.97106
2630.92191	0.97120
2628.86811	0.97146
2626.81430	0.97176
2624.76050	0.97187
2622.70670	0.97199
2620.65289	0.97255
2618.59909	0.97308
2616.54529	0.97310
2614.49149	0.97291
2612.43768	0.97301
2610.38388	0.97361
2608.33008	0.97405
2606.27627	0.97391
2604.22247	0.97378
2602.16867	0.97403
2600.11486	0.97446
2598.06106	0.97464
2596.00726	0.97438
2593.95345	0.97401
2591.89965	0.97416
2589.84585	0.97473
2587.79204	0.97478
2585.73824	0.97465
2583.68444	0.97560
2581.63063	0.97689
2579.57683	0.97704
2577.52303	0.97620
2575.46922	0.97522
2573.41542	0.97484
2571.36162	0.97512
2569.30781	0.97525
2567.25401	0.97505
2565.20021	0.97523
2563.14640	0.97582
2561.09260	0.97604
2559.03880	0.97604
2556.98500	0.97633
2554.93119	0.97666
2552.87739	0.97697
2550.82359	0.97699
2548.76978	0.97672
2546.71598	0.97677
2544.66218	0.97680
2542.60837	0.97641
2540.55457	0.97644
2538.50077	0.97695
2536.44696	0.97726
2534.39316	0.97786
2532.33936	0.97838
2530.28555	0.97770
2528.23175	0.97672
2526.17795	0.97641
2524.12414	0.97612
2522.07034	0.97581
2520.01654	0.97607
2517.96273	0.97641
2515.90893	0.97615
2513.85513	0.97584
2511.80132	0.97614
2509.74752	0.97655
2507.69372	0.97682
2505.63992	0.97764
2503.58611	0.97846
2501.53231	0.97832
2499.47851	0.97758
2497.42470	0.97710
2495.37090	0.97715
2493.31710	0.97742
2491.26329	0.97778
2489.20949	0.97797
2487.15569	0.97766
2485.10188	0.97706
2483.04808	0.97690
2480.99428	0.97740
2478.94047	0.97789
2476.88667	0.97796
2474.83287	0.97783
2472.77906	0.97761
2470.72526	0.97756
2468.67146	0.97827
2466.61765	0.97889
2464.56385	0.97848
2462.51005	0.97772
2460.45624	0.97738
2458.40244	0.97754
2456.34864	0.97757
2454.29483	0.97724
2452.24103	0.97713
2450.18723	0.97724
2448.13343	0.97728
2446.07962	0.97756
2444.02582	0.97801
2441.97202	0.97831
2439.91821	0.97861
2437.86441	0.97879
2435.81061	0.97843
2433.75680	0.97803
2431.70300	0.97822
2429.64920	0.97879
2427.59539	0.97929
2425.54159	0.97919
2423.48779	0.97849
2421.43398	0.97794
2419.38018	0.97832
2417.32638	0.97919
2415.27257	0.97958
2413.21877	0.97955
2411.16497	0.97914
2409.11116	0.97796
2407.05736	0.97700
2405.00356	0.97752
2402.94975	0.97864
2400.89595	0.97889
2398.84215	0.97871
2396.78834	0.97897
2394.73454	0.97935
2392.68074	0.97946
2390.62694	0.97933
2388.57313	0.97892
2386.51933	0.97849
2384.46553	0.97849
2382.41172	0.97904
2380.35792	0.97977
2378.30412	0.97990
2376.25031	0.97977
2374.19651	0.98002
2372.14271	0.97968
2370.08890	0.97839
2368.03510	0.97697
2365.98130	0.97659
2363.92749	0.97682
2361.87369	0.97570
2359.81989	0.97471
2357.76608	0.97543
2355.71228	0.97637
2353.65848	0.97680
2351.60467	0.97701
2349.55087	0.97728
2347.49707	0.97815
2345.44326	0.97929
2343.38946	0.97934
2341.33566	0.97857
2339.28186	0.97816
2337.22805	0.97792
2335.17425	0.97784
2333.12045	0.97803
2331.06664	0.97805
2329.01284	0.97798
2326.95904	0.97776
2324.90523	0.97694
2322.85143	0.97575
2320.79763	0.97546
2318.74382	0.97599
2316.69002	0.97613
2314.63622	0.97655
2312.58241	0.97749
2310.52861	0.97776
2308.47481	0.97737
2306.42100	0.97682
2304.36720	0.97655
2302.31340	0.97691
2300.25959	0.97700
2298.20579	0.97665
2296.15199	0.97670
2294.09818	0.97684
2292.04438	0.97651
2289.99058	0.97603
2287.93677	0.97616
2285.88297	0.97686
2283.82917	0.97738
2281.77537	0.97841
2279.72156	0.98015
2277.66776	0.98089
2275.61396	0.98046
2273.56015	0.97974
2271.50635	0.97901
2269.45255	0.97847
2267.39874	0.97793
2265.34494	0.97768
2263.29114	0.97784
2261.23733	0.97807
2259.18353	0.97889
2257.12973	0.97974
2255.07592	0.97918
2253.02212	0.97786
2250.96832	0.97709
2248.91451	0.97733
2246.86071	0.97833
2244.80691	0.97901
2242.75310	0.97953
2240.69930	0.97934
2238.64550	0.97767
2236.59169	0.97691
2234.53789	0.97729
2232.48409	0.97734
2230.43029	0.97722
2228.37648	0.97674
2226.32268	0.97716
2224.26888	0.97806
2222.21507	0.97747
2220.16127	0.97707
2218.10747	0.97822
2216.05366	0.97952
2213.99986	0.98026
2211.94606	0.98028
2209.89225	0.97945
2207.83845	0.97953
2205.78465	0.98012
2203.73084	0.97839
2201.67704	0.97599
2199.62324	0.97548
2197.56943	0.97562
2195.51563	0.97548
2193.46183	0.97648
2191.40802	0.97899
2189.35422	0.98131
2187.30042	0.98108
2185.24661	0.97955
2183.19281	0.98111
2181.13901	0.98426
2179.08520	0.98404
2177.03140	0.98189
2174.97760	0.98246
2172.92380	0.98435
2170.86999	0.98417
2168.81619	0.98268
2166.76239	0.98133
2164.70858	0.98174
2162.65478	0.98397
2160.60098	0.98607
2158.54717	0.98663
2156.49337	0.98595
2154.43957	0.98444
2152.38576	0.98239
2150.33196	0.98171
2148.27816	0.98281
2146.22435	0.98375
2144.17055	0.98254
2142.11675	0.98005
2140.06294	0.97888
2138.00914	0.97905
2135.95534	0.97875
2133.90153	0.97828
2131.84773	0.97920
2129.79393	0.98093
2127.74012	0.98181
2125.68632	0.98149
2123.63252	0.98084
2121.57871	0.98041
2119.52491	0.98016
2117.47111	0.98021
2115.41731	0.98056
2113.36350	0.98100
2111.30970	0.98101
2109.25590	0.98059
2107.20209	0.98039
2105.14829	0.98043
2103.09449	0.98060
2101.04068	0.98065
2098.98688	0.98004
2096.93308	0.97908
2094.87927	0.97880
2092.82547	0.97940
2090.77167	0.98020
2088.71786	0.98136
2086.66406	0.98301
2084.61026	0.98398
2082.55645	0.98361
2080.50265	0.98235
2078.44885	0.98115
2076.39504	0.98073
2074.34124	0.98101
2072.28744	0.98138
2070.23363	0.98177
2068.17983	0.98264
2066.12603	0.98347
2064.07223	0.98355
2062.01842	0.98278
2059.96462	0.98112
2057.91082	0.97990
2055.85701	0.98022
2053.80321	0.98109
2051.74941	0.98135
2049.69560	0.98120
2047.64180	0.98208
2045.58800	0.98303
2043.53419	0.98201
2041.48039	0.98036
2039.42659	0.97960
2037.37278	0.98005
2035.31898	0.98153
2033.26518	0.98247
2031.21137	0.98219
2029.15757	0.98122
2027.10377	0.98032
2025.04996	0.97995
2022.99616	0.97851
2020.94236	0.97675
2018.88855	0.97860
2016.83475	0.98326
2014.78095	0.98551
2012.72714	0.98364
2010.67334	0.98098
2008.61954	0.98091
2006.56574	0.98173
2004.51193	0.98185
2002.45813	0.98199
2000.40433	0.98085
1998.35052	0.97879
1996.29672	0.97895
1994.24292	0.98187
1992.18911	0.98457
1990.13531	0.98475
1988.08151	0.98333
1986.02770	0.98169
1983.97390	0.98041
1981.92010	0.97981
1979.86629	0.97991
1977.81249	0.98085
1975.75869	0.98182
1973.70488	0.98269
1971.65108	0.98460
1969.59728	0.98497
1967.54347	0.98171
1965.48967	0.97897
1963.43587	0.98023
1961.38206	0.98297
1959.32826	0.98431
1957.27446	0.98425
1955.22066	0.98383
1953.16685	0.98376
1951.11305	0.98337
1949.05925	0.98232
1947.00544	0.98130
1944.95164	0.98098
1942.89784	0.98143
1940.84403	0.98202
1938.79023	0.98247
1936.73643	0.98271
1934.68262	0.98291
1932.62882	0.98257
1930.57502	0.98185
1928.52121	0.98174
1926.46741	0.98196
1924.41361	0.98168
1922.35980	0.98074
1920.30600	0.97999
1918.25220	0.97996
1916.19839	0.98053
1914.14459	0.98133
1912.09079	0.98172
1910.03698	0.98109
1907.98318	0.98056
1905.92938	0.98081
1903.87557	0.98070
1901.82177	0.98053
1899.76797	0.98102
1897.71417	0.98144
1895.66036	0.98138
1893.60656	0.98134
1891.55276	0.98143
1889.49895	0.98142
1887.44515	0.98155
1885.39135	0.98160
1883.33754	0.98124
1881.28374	0.98093
1879.22994	0.98093
1877.17613	0.98062
1875.12233	0.97988
1873.06853	0.97975
1871.01472	0.98059
1868.96092	0.98155
1866.90712	0.98194
1864.85331	0.98193
1862.79951	0.98169
1860.74571	0.98111
1858.69190	0.98034
1856.63810	0.97991
1854.58430	0.98027
1852.53049	0.98108
1850.47669	0.98152
1848.42289	0.98151
1846.36908	0.98141
1844.31528	0.98105
1842.26148	0.98073
1840.20768	0.98079
1838.15387	0.98073
1836.10007	0.98051
1834.04627	0.98052
1831.99246	0.98065
1829.93866	0.98041
1827.88486	0.98032
1825.83105	0.98091
1823.77725	0.98109
1821.72345	0.98070
1819.66964	0.98053
1817.61584	0.98044
1815.56204	0.98027
1813.50823	0.98046
1811.45443	0.98089
1809.40063	0.98122
1807.34682	0.98111
1805.29302	0.98063
1803.23922	0.98034
1801.18541	0.98002
1799.13161	0.97954
1797.07781	0.97948
1795.02400	0.97999
1792.97020	0.98056
1790.91640	0.98074
1788.86260	0.98060
1786.80879	0.98027
1784.75499	0.97988
1782.70119	0.97951
1780.64738	0.97949
1778.59358	0.97976
1776.53978	0.97953
1774.48597	0.97866
1772.43217	0.97802
1770.37837	0.97814
1768.32456	0.97818
1766.27076	0.97801
1764.21696	0.97799
1762.16315	0.97788
1760.10935	0.97736
1758.05555	0.97655
1756.00174	0.97590
1753.94794	0.97568
1751.89414	0.97524
1749.84033	0.97430
1747.78653	0.97376
1745.73273	0.97345
1743.67892	0.97283
1741.62512	0.97204
1739.57132	0.97092
1737.51751	0.96959
1735.46371	0.96879
1733.40991	0.96857
1731.35611	0.96858
1729.30230	0.96872
1727.24850	0.96876
1725.19470	0.96851
1723.14089	0.96817
1721.08709	0.96795
1719.03329	0.96769
1716.97948	0.96719
1714.92568	0.96675
1712.87188	0.96654
1710.81807	0.96603
1708.76427	0.96513
1706.71047	0.96422
1704.65666	0.96349
1702.60286	0.96257
1700.54906	0.96096
1698.49525	0.95940
1696.44145	0.95815
1694.38765	0.95649
1692.33384	0.95493
1690.28004	0.95309
1688.22624	0.95120
1686.17243	0.94984
1684.11863	0.94757
1682.06483	0.94450
1680.01103	0.94239
1677.95722	0.94102
1675.90342	0.93958
1673.84962	0.93775
1671.79581	0.93640
1669.74201	0.93505
1667.68821	0.93329
1665.63440	0.93175
1663.58060	0.93021
1661.52680	0.92874
1659.47299	0.92775
1657.41919	0.92708
1655.36539	0.92636
1653.31158	0.92473
1651.25778	0.92385
1649.20398	0.92431
1647.15017	0.92469
1645.09637	0.92477
1643.04257	0.92464
1640.98876	0.92445
1638.93496	0.92419
1636.88116	0.92374
1634.82735	0.92379
1632.77355	0.92445
1630.71975	0.92484
1628.66594	0.92484
1626.61214	0.92473
1624.55834	0.92494
1622.50454	0.92576
1620.45073	0.92697
1618.39693	0.92857
1616.34313	0.93090
1614.28932	0.93305
1612.23552	0.93467
1610.18172	0.93636
1608.12791	0.93797
1606.07411	0.93905
1604.02031	0.93994
1601.96650	0.94115
1599.91270	0.94236
1597.85890	0.94319
1595.80509	0.94381
1593.75129	0.94427
1591.69749	0.94462
1589.64368	0.94503
1587.58988	0.94537
1585.53608	0.94543
1583.48227	0.94522
1581.42847	0.94507
1579.37467	0.94509
1577.32086	0.94497
1575.26706	0.94475
1573.21326	0.94508
1571.15945	0.94579
1569.10565	0.94657
1567.05185	0.94692
1564.99805	0.94678
1562.94424	0.94671
1560.89044	0.94690
1558.83664	0.94653
1556.78283	0.94599
1554.72903	0.94594
1552.67523	0.94564
1550.62142	0.94539
1548.56762	0.94547
1546.51382	0.94551
1544.46001	0.94512
1542.40621	0.94447
1540.35241	0.94472
1538.29860	0.94608
1536.24480	0.94701
1534.19100	0.94812
1532.13719	0.94989
1530.08339	0.95125
1528.02959	0.95217
1525.97578	0.95340
1523.92198	0.95501
1521.86818	0.95640
1519.81437	0.95680
1517.76057	0.95685
1515.70677	0.95740
1513.65297	0.95805
1511.59916	0.95881
1509.54536	0.95994
1507.49156	0.96113
1505.43775	0.96200
1503.38395	0.96241
1501.33015	0.96264
1499.27634	0.96294
1497.22254	0.96325
1495.16874	0.96336
1493.11493	0.96366
1491.06113	0.96410
1489.00733	0.96398
1486.95352	0.96313
1484.89972	0.96200
1482.84592	0.96022
1480.79211	0.95732
1478.73831	0.95120
1476.68451	0.93522
1474.63070	0.90396
1472.57690	0.87143
1470.52310	0.86458
1468.46929	0.87120
1466.41549	0.87391
1464.36169	0.87014
1462.30788	0.87178
1460.25408	0.88448
1458.20028	0.90328
1456.14648	0.91883
1454.09267	0.92567
1452.03887	0.92989
1449.98507	0.93331
1447.93126	0.93593
1445.87746	0.93794
1443.82366	0.93943
1441.76985	0.94065
1439.71605	0.94168
1437.66225	0.94252
1435.60844	0.94325
1433.55464	0.94418
1431.50084	0.94534
1429.44703	0.94671
1427.39323	0.94814
1425.33943	0.94898
1423.28562	0.94908
1421.23182	0.94917
1419.17802	0.94966
1417.12421	0.95022
1415.07041	0.95066
1413.01661	0.95095
1410.96280	0.95116
1408.90900	0.95144
1406.85520	0.95184
1404.80139	0.95229
1402.74759	0.95273
1400.69379	0.95335
1398.63999	0.95412
1396.58618	0.95454
1394.53238	0.95445
1392.47858	0.95430
1390.42477	0.95422
1388.37097	0.95416
1386.31717	0.95421
1384.26336	0.95412
1382.20956	0.95350
1380.15576	0.95246
1378.10195	0.95167
1376.04815	0.95147
1373.99435	0.95161
1371.94054	0.95182
1369.88674	0.95197
1367.83294	0.95206
1365.77913	0.95229
1363.72533	0.95294
1361.67153	0.95386
1359.61772	0.95443
1357.56392	0.95469
1355.51012	0.95492
1353.45631	0.95518
1351.40251	0.95552
1349.34871	0.95589
1347.29491	0.95634
1345.24110	0.95679
1343.18730	0.95707
1341.13350	0.95726
1339.07969	0.95739
1337.02589	0.95743
1334.97209	0.95748
1332.91828	0.95767
1330.86448	0.95790
1328.81068	0.95795
1326.75687	0.95791
1324.70307	0.95792
1322.64927	0.95788
1320.59546	0.95775
1318.54166	0.95764
1316.48786	0.95741
1314.43405	0.95711
1312.38025	0.95697
1310.32645	0.95702
1308.27264	0.95711
1306.21884	0.95705
1304.16504	0.95694
1302.11123	0.95696
1300.05743	0.95695
1298.00363	0.95684
1295.94982	0.95670
1293.89602	0.95663
1291.84222	0.95672
1289.78842	0.95673
1287.73461	0.95653
1285.68081	0.95633
1283.62701	0.95613
1281.57320	0.95573
1279.51940	0.95499
1277.46560	0.95419
1275.41179	0.95390
1273.35799	0.95405
1271.30419	0.95407
1269.25038	0.95369
1267.19658	0.95306
1265.14278	0.95240
1263.08897	0.95186
1261.03517	0.95144
1258.98137	0.95096
1256.92756	0.95034
1254.87376	0.94969
1252.81996	0.94913
1250.76615	0.94882
1248.71235	0.94877
1246.65855	0.94846
1244.60474	0.94769
1242.55094	0.94695
1240.49714	0.94639
1238.44334	0.94584
1236.38953	0.94537
1234.33573	0.94491
1232.28193	0.94438
1230.22812	0.94402
1228.17432	0.94367
1226.12052	0.94318
1224.06671	0.94295
1222.01291	0.94287
1219.95911	0.94249
1217.90530	0.94192
1215.85150	0.94134
1213.79770	0.94060
1211.74389	0.93963
1209.69009	0.93848
1207.63629	0.93720
1205.58248	0.93592
1203.52868	0.93491
1201.47488	0.93421
1199.42107	0.93331
1197.36727	0.93186
1195.31347	0.93037
1193.25966	0.92889
1191.20586	0.92684
1189.15206	0.92433
1187.09825	0.92198
1185.04445	0.91990
1182.99065	0.91739
1180.93685	0.91429
1178.88304	0.91114
1176.82924	0.90811
1174.77544	0.90508
1172.72163	0.90189
1170.66783	0.89853
1168.61403	0.89558
1166.56022	0.89324
1164.50642	0.89073
1162.45262	0.88790
1160.39881	0.88535
1158.34501	0.88311
1156.29121	0.88106
1154.23740	0.87894
1152.18360	0.87632
1150.12980	0.87351
1148.07599	0.87100
1146.02219	0.86872
1143.96839	0.86677
1141.91458	0.86534
1139.86078	0.86393
1137.80698	0.86188
1135.75317	0.85942
1133.69937	0.85686
1131.64557	0.85393
1129.59176	0.85054
1127.53796	0.84658
1125.48416	0.84201
1123.43036	0.83731
1121.37655	0.83224
1119.32275	0.82659
1117.26895	0.82115
1115.21514	0.81634
1113.16134	0.81193
1111.10754	0.80777
1109.05373	0.80404
1106.99993	0.80083
1104.94613	0.79797
1102.89232	0.79535
1100.83852	0.79288
1098.78472	0.79089
1096.73091	0.78986
1094.67711	0.78937
1092.62331	0.78857
1090.56950	0.78729
1088.51570	0.78606
1086.46190	0.78540
1084.40809	0.78511
1082.35429	0.78435
1080.30049	0.78307
1078.24668	0.78183
1076.19288	0.78053
1074.13908	0.77872
1072.08528	0.77627
1070.03147	0.77340
1067.97767	0.77047
1065.92387	0.76716
1063.87006	0.76305
1061.81626	0.75855
1059.76246	0.75396
1057.70865	0.74910
1055.65485	0.74379
1053.60105	0.73798
1051.54724	0.73181
1049.49344	0.72537
1047.43964	0.71891
1045.38583	0.71244
1043.33203	0.70575
1041.27823	0.69913
1039.22442	0.69283
1037.17062	0.68724
1035.11682	0.68273
1033.06301	0.67934
1031.00921	0.67724
1028.95541	0.67644
1026.90160	0.67673
1024.84780	0.67792
1022.79400	0.67940
1020.74019	0.68071
1018.68639	0.68188
1016.63259	0.68226
1014.57879	0.68149
1012.52498	0.68051
1010.47118	0.68007
1008.41738	0.68004
1006.36357	0.68053
1004.30977	0.68239
1002.25597	0.68610
1000.20216	0.69120
998.14836	0.69721
996.09456	0.70418
994.04075	0.71188
991.98695	0.71987
989.93315	0.72829
987.87934	0.73709
985.82554	0.74560
983.77174	0.75376
981.71793	0.76198
979.66413	0.77020
977.61033	0.77819
975.55652	0.78588
973.50272	0.79327
971.44892	0.80032
969.39511	0.80700
967.34131	0.81311
965.28751	0.81846
963.23371	0.82349
961.17990	0.82839
959.12610	0.83310
957.07230	0.83751
955.01849	0.84118
952.96469	0.84423
950.91089	0.84710
948.85708	0.84965
946.80328	0.85166
944.74948	0.85340
942.69567	0.85497
940.64187	0.85625
938.58807	0.85721
936.53426	0.85813
934.48046	0.85934
932.42666	0.86054
930.37285	0.86149
928.31905	0.86206
926.26525	0.86167
924.21144	0.86049
922.15764	0.85918
920.10384	0.85749
918.05003	0.85531
915.99623	0.85368
913.94243	0.85301
911.88862	0.85322
909.83482	0.85507
907.78102	0.85910
905.72722	0.86465
903.67341	0.87045
901.61961	0.87564
899.56581	0.88036
897.51200	0.88476
895.45820	0.88865
893.40440	0.89207
891.35059	0.89466
889.29679	0.89604
887.24299	0.89693
885.18918	0.89862
883.13538	0.90093
881.08158	0.90262
879.02777	0.90364
876.97397	0.90470
874.92017	0.90576
872.86636	0.90650
870.81256	0.90759
868.75876	0.90951
866.70495	0.91191
864.65115	0.91394
862.59735	0.91517
860.54354	0.91631
858.48974	0.91763
856.43594	0.91878
854.38213	0.91973
852.32833	0.92048
850.27453	0.92111
848.22073	0.92162
846.16692	0.92184
844.11312	0.92183
842.05932	0.92188
840.00551	0.92181
837.95171	0.92135
835.89791	0.92041
833.84410	0.91940
831.79030	0.91888
829.73650	0.91884
827.68269	0.91855
825.62889	0.91771
823.57509	0.91702
821.52128	0.91678
819.46748	0.91652
817.41368	0.91538
815.35987	0.91376
813.30607	0.91313
811.25227	0.91290
809.19846	0.91166
807.14466	0.90936
805.09086	0.90695
803.03705	0.90531
800.98325	0.90418
798.92945	0.90282
796.87565	0.90155
794.82184	0.90107
792.76804	0.90062
790.71424	0.89981
788.66043	0.89939
786.60663	0.89913
784.55283	0.89832
782.49902	0.89725
780.44522	0.89699
778.39142	0.89784
776.33761	0.89919
774.28381	0.90032
772.23001	0.90053
770.17620	0.89955
768.12240	0.89841
766.06860	0.89768
764.01479	0.89618
761.96099	0.89418
759.90719	0.89296
757.85338	0.89181
755.79958	0.89052
753.74578	0.88997
751.69197	0.89005
749.63817	0.89016
747.58437	0.88985
745.53056	0.88941
743.47676	0.88939
741.42296	0.88942
739.36916	0.88904
737.31535	0.88758
735.26155	0.88210
733.20775	0.86821
731.15394	0.85007
729.10014	0.84145
727.04634	0.84463
724.99253	0.84585
722.93873	0.83338
720.88493	0.80772
718.83112	0.78551
716.77732	0.78490
714.72352	0.80440
712.66971	0.82873
710.61591	0.84572
708.56211	0.85409
706.50830	0.85703
704.45450	0.85665
702.40070	0.85502
700.34689	0.85341
698.29309	0.85212
696.23929	0.85197
694.18548	0.85245
692.13168	0.85250
690.07788	0.85265
688.02408	0.85336
685.97027	0.85346
683.91647	0.85251
681.86267	0.85244
679.80886	0.85319
677.75506	0.85336
675.70126	0.85310
673.64745	0.85211
671.59365	0.85069
669.53985	0.85033
667.48604	0.85219
665.43224	0.85461
663.37844	0.85624
661.32463	0.85781
659.27083	0.85968
657.21703	0.86075
655.16322	0.86104
653.10942	0.86160
651.05562	0.86153
649.00181	0.85961
646.94801	0.85723
644.89421	0.85671
642.84040	0.85752
640.78660	0.85807
638.73280	0.85836
636.67899	0.85833
634.62519	0.85784
632.57139	0.85682
630.51759	0.85575
628.46378	0.85556
626.40998	0.85488
624.35618	0.85243
622.30237	0.85069
620.24857	0.85121
618.19477	0.85128
616.14096	0.84923
614.08716	0.84705
612.03336	0.84498
609.97955	0.84186
607.92575	0.83865
605.87195	0.83629
603.81814	0.83356
601.76434	0.83093
599.71054	0.82995
597.65673	0.82925
595.60293	0.82789
593.54913	0.82701
591.49532	0.82731
589.44152	0.82784
587.38772	0.82711
585.33391	0.82523
583.28011	0.82332
581.22631	0.82176
579.17250	0.82127
577.11870	0.82186
575.06490	0.82110
573.01110	0.81871
570.95729	0.81675
568.90349	0.81464
566.84969	0.81161
564.79588	0.80934
562.74208	0.80704
560.68828	0.80328
558.63447	0.79997
556.58067	0.79770
554.52687	0.79446
552.47306	0.78917
550.41926	0.78327
548.36546	0.77884
546.31165	0.77545
544.25785	0.77103
542.20405	0.76526
540.15024	0.76022
538.09644	0.75796
536.04264	0.75624
533.98883	0.75220
531.93503	0.74861
529.88123	0.74816
527.82742	0.74991
525.77362	0.75253
523.71982	0.75503
521.66602	0.75775
519.61221	0.76146
517.55841	0.76506
515.50461	0.76685
513.45080	0.76842
511.39700	0.77185
509.34320	0.77530
507.28939	0.77689
505.23559	0.77785
503.18179	0.77914
501.12798	0.78001
499.07418	0.77958
497.02038	0.77847
494.96657	0.77720
492.91277	0.77560
490.85897	0.77403
488.80516	0.77244
486.75136	0.76942
484.69756	0.76340
482.64375	0.75643
480.58995	0.75016
478.53615	0.74096
476.48234	0.72911
474.42854	0.71855
472.37474	0.70944
470.32093	0.70289
468.26713	0.69857
466.21333	0.69526
464.15953	0.69536
462.10572	0.69908
460.05192	0.70536
457.99812	0.71416
455.94431	0.72052
453.89051	0.72258
451.83671	0.72463
449.78290	0.72771
447.72910	0.73083
445.67530	0.73300
443.62149	0.73372
441.56769	0.73367
439.51389	0.73375
437.46008	0.73151
435.40628	0.72680
433.35248	0.72507
431.29867	0.72646
429.24487	0.72902
427.19107	0.73310
425.13726	0.73636
423.08346	0.73715
421.02966	0.73663
418.97585	0.73514
416.92205	0.74064
414.86825	0.75333
412.81445	0.76462
410.76064	0.77248
408.70684	0.77685
406.65304	0.77659
404.59923	0.77596
402.54543	0.77886
400.49163	0.78576
398.43782	0.79436
