3996.70104	0.95903
3994.64724	0.95890
3992.59344	0.95842
3990.53964	0.95792
3988.48583	0.95820
3986.43203	0.95853
3984.37823	0.95863
3982.32442	0.95904
3980.27062	0.95947
3978.21682	0.95974
3976.16301	0.95951
3974.10921	0.95860
3972.05541	0.95800
3970.00160	0.95862
3967.94780	0.95943
3965.89400	0.95921
3963.84019	0.95849
3961.78639	0.95856
3959.73259	0.95959
3957.67878	0.95990
3955.62498	0.95888
3953.57118	0.95777
3951.51737	0.95773
3949.46357	0.95832
3947.40977	0.95820
3945.35596	0.95801
3943.30216	0.95882
3941.24836	0.95975
3939.19455	0.95940
3937.14075	0.95842
3935.08695	0.95833
3933.03315	0.95870
3930.97934	0.95839
3928.92554	0.95816
3926.87174	0.95853
3924.81793	0.95889
3922.76413	0.95926
3920.71033	0.95931
3918.65652	0.95872
3916.60272	0.95840
3914.54892	0.95826
3912.49511	0.95772
3910.44131	0.95705
3908.38751	0.95701
3906.33370	0.95848
3904.27990	0.96112
3902.22610	0.96266
3900.17229	0.96199
3898.11849	0.96089
3896.06469	0.96041
3894.01088	0.95975
3891.95708	0.95898
3889.90328	0.95904
3887.84947	0.95941
3885.79567	0.95957
3883.74187	0.95957
3881.68807	0.95905
3879.63426	0.95842
3877.58046	0.95871
3875.52666	0.95956
3873.47285	0.95986
3871.41905	0.95924
3869.36525	0.95838
3867.31144	0.95803
3865.25764	0.95835
3863.20384	0.95887
3861.15003	0.95928
3859.09623	0.95971
3857.04243	0.95989
3854.98862	0.95938
3852.93482	0.95880
3850.88102	0.95875
3848.82721	0.95848
3846.77341	0.95832
3844.71961	0.95805
3842.66580	0.95783
3840.61200	0.95870
3838.55820	0.95996
3836.50439	0.96044
3834.45059	0.95994
3832.39679	0.95897
3830.34298	0.95840
3828.28918	0.95882
3826.23538	0.95989
3824.18158	0.96067
3822.12777	0.96113
3820.07397	0.96098
3818.02017	0.96002
3815.96636	0.95944
3813.91256	0.96002
3811.85876	0.96102
3809.80495	0.96154
3807.75115	0.96153
3805.69735	0.96136
3803.64354	0.96130
3801.58974	0.96101
3799.53594	0.96056
3797.48213	0.96080
3795.42833	0.96110
3793.37453	0.96079
3791.32072	0.96007
3789.26692	0.95945
3787.21312	0.95934
3785.15931	0.95910
3783.10551	0.95876
3781.05171	0.95924
3778.99790	0.96024
3776.94410	0.96087
3774.89030	0.96106
3772.83650	0.96096
3770.78269	0.96075
3768.72889	0.96069
3766.67509	0.96009
3764.62128	0.95955
3762.56748	0.96046
3760.51368	0.96186
3758.45987	0.96214
3756.40607	0.96154
3754.35227	0.96135
3752.29846	0.96125
3750.24466	0.96086
3748.19086	0.96053
3746.13705	0.95983
3744.08325	0.96012
3742.02945	0.96224
3739.97564	0.96358
3737.92184	0.96353
3735.86804	0.96299
3733.81423	0.96258
3731.76043	0.96211
3729.70663	0.96197
3727.65282	0.96179
3725.59902	0.96079
3723.54522	0.96054
3721.49141	0.96129
3719.43761	0.96133
3717.38381	0.96111
3715.33001	0.96108
3713.27620	0.96138
3711.22240	0.96067
3709.16860	0.95795
3707.11479	0.95605
3705.06099	0.95524
3703.00719	0.95471
3700.95338	0.95407
3698.89958	0.95334
3696.84578	0.95343
3694.79197	0.95456
3692.73817	0.95634
3690.68437	0.95803
3688.63056	0.95960
3686.57676	0.96119
3684.52296	0.96114
3682.46915	0.95984
3680.41535	0.95925
3678.36155	0.95964
3676.30774	0.95960
3674.25394	0.95830
3672.20014	0.95723
3670.14633	0.95754
3668.09253	0.95842
3666.03873	0.95812
3663.98492	0.95703
3661.93112	0.95606
3659.87732	0.95525
3657.82352	0.95488
3655.76971	0.95547
3653.71591	0.95634
3651.66211	0.95693
3649.60830	0.95705
3647.55450	0.95640
3645.50070	0.95614
3643.44689	0.95592
3641.39309	0.95526
3639.33929	0.95466
3637.28548	0.95451
3635.23168	0.95486
3633.17788	0.95524
3631.12407	0.95505
3629.07027	0.95454
3627.01647	0.95379
3624.96266	0.95315
3622.90886	0.95342
3620.85506	0.95407
3618.80125	0.95414
3616.74745	0.95488
3614.69365	0.95633
3612.63984	0.95732
3610.58604	0.95723
3608.53224	0.95641
3606.47844	0.95657
3604.42463	0.95804
3602.37083	0.95977
3600.31703	0.96134
3598.26322	0.96232
3596.20942	0.96218
3594.15562	0.96224
3592.10181	0.96360
3590.04801	0.96495
3587.99421	0.96577
3585.94040	0.96638
3583.88660	0.96684
3581.83280	0.96744
3579.77899	0.96861
3577.72519	0.97023
3575.67139	0.97163
3573.61758	0.97204
3571.56378	0.97182
3569.50998	0.97263
3567.45617	0.97490
3565.40237	0.97589
3563.34857	0.97516
3561.29476	0.97550
3559.24096	0.97686
3557.18716	0.97809
3555.13335	0.97895
3553.07955	0.97959
3551.02575	0.98116
3548.97195	0.98304
3546.91814	0.98381
3544.86434	0.98450
3542.81054	0.98624
3540.75673	0.98858
3538.70293	0.99079
3536.64913	0.99233
3534.59532	0.99352
3532.54152	0.99488
3530.48772	0.99636
3528.43391	0.99772
3526.38011	0.99922
3524.32631	1.00117
3522.27250	1.00313
3520.21870	1.00486
3518.16490	1.00629
3516.11109	1.00783
3514.05729	1.01024
3512.00349	1.01280
3509.94968	1.01461
3507.89588	1.01614
3505.84208	1.01746
3503.78827	1.01863
3501.73447	1.02029
3499.68067	1.02268
3497.62687	1.02551
3495.57306	1.02857
3493.51926	1.03129
3491.46546	1.03294
3489.41165	1.03382
3487.35785	1.03459
3485.30405	1.03600
3483.25024	1.03805
3481.19644	1.04019
3479.14264	1.04288
3477.08883	1.04631
3475.03503	1.04966
3472.98123	1.05211
3470.92742	1.05361
3468.87362	1.05495
3466.81982	1.05755
3464.76601	1.06102
3462.71221	1.06305
3460.65841	1.06415
3458.60460	1.06680
3456.55080	1.07086
3454.49700	1.07463
3452.44319	1.07733
3450.38939	1.07940
3448.33559	1.08182
3446.28178	1.08470
3444.22798	1.08708
3442.17418	1.08922
3440.12038	1.09238
3438.06657	1.09566
3436.01277	1.09769
3433.95897	1.10015
3431.90516	1.10419
3429.85136	1.10829
3427.79756	1.11136
3425.74375	1.11379
3423.68995	1.11627
3421.63615	1.11869
3419.58234	1.12100
3417.52854	1.12356
3415.47474	1.12703
3413.42093	1.13169
3411.36713	1.13570
3409.31333	1.13819
3407.25952	1.14000
3405.20572	1.14101
3403.15192	1.14228
3401.09811	1.14518
3399.04431	1.14903
3396.99051	1.15283
3394.93670	1.15636
3392.88290	1.15991
3390.82910	1.16331
3388.77529	1.16565
3386.72149	1.16697
3384.66769	1.16884
3382.61389	1.17197
3380.56008	1.17483
3378.50628	1.17721
3376.45248	1.18002
3374.39867	1.18263
3372.34487	1.18483
3370.29107	1.18676
3368.23726	1.18812
3366.18346	1.18924
3364.12966	1.19013
3362.07585	1.18994
3360.02205	1.18947
3357.96825	1.19044
3355.91444	1.19226
3353.86064	1.19382
3351.80684	1.19559
3349.75303	1.19774
3347.69923	1.19896
3345.64543	1.19834
3343.59162	1.19682
3341.53782	1.19638
3339.48402	1.19797
3337.43021	1.19964
3335.37641	1.19960
3333.32261	1.19933
3331.26881	1.19972
3329.21500	1.19961
3327.16120	1.19853
3325.10740	1.19653
3323.05359	1.19444
3320.99979	1.19303
3318.94599	1.19152
3316.89218	1.18928
3314.83838	1.18783
3312.78458	1.18779
3310.73077	1.18755
3308.67697	1.18599
3306.62317	1.18384
3304.56936	1.18269
3302.51556	1.18219
3300.46176	1.18089
3298.40795	1.17861
3296.35415	1.17693
3294.30035	1.17664
3292.24654	1.17635
3290.19274	1.17543
3288.13894	1.17353
3286.08513	1.17110
3284.03133	1.16948
3281.97753	1.16756
3279.92372	1.16432
3277.86992	1.16171
3275.81612	1.16036
3273.76232	1.15813
3271.70851	1.15444
3269.65471	1.15129
3267.60091	1.14947
3265.54710	1.14791
3263.49330	1.14571
3261.43950	1.14280
3259.38569	1.14033
3257.33189	1.13939
3255.27809	1.13875
3253.22428	1.13664
3251.17048	1.13334
3249.11668	1.13058
3247.06287	1.12882
3245.00907	1.12582
3242.95527	1.12141
3240.90146	1.11882
3238.84766	1.11763
3236.79386	1.11510
3234.74005	1.11191
3232.68625	1.10957
3230.63245	1.10752
3228.57864	1.10436
3226.52484	1.10022
3224.47104	1.09707
3222.41724	1.09483
3220.36343	1.09275
3218.30963	1.09109
3216.25583	1.08900
3214.20202	1.08651
3212.14822	1.08494
3210.09442	1.08363
3208.04061	1.08054
3205.98681	1.07625
3203.93301	1.07332
3201.87920	1.07215
3199.82540	1.07055
3197.77160	1.06787
3195.71779	1.06579
3193.66399	1.06425
3191.61019	1.06205
3189.55638	1.05952
3187.50258	1.05729
3185.44878	1.05482
3183.39497	1.05216
3181.34117	1.04995
3179.28737	1.04773
3177.23356	1.04506
3175.17976	1.04262
3173.12596	1.04061
3171.07215	1.03837
3169.01835	1.03670
3166.96455	1.03579
3164.91075	1.03414
3162.85694	1.03138
3160.80314	1.02831
3158.74934	1.02629
3156.69553	1.02558
3154.64173	1.02488
3152.58793	1.02351
3150.53412	1.02187
3148.48032	1.02036
3146.42652	1.01893
3144.37271	1.01674
3142.31891	1.01431
3140.26511	1.01307
3138.21130	1.01206
3136.15750	1.01055
3134.10370	1.00913
3132.04989	1.00764
3129.99609	1.00637
3127.94229	1.00591
3125.88848	1.00512
3123.83468	1.00290
3121.78088	1.00087
3119.72707	1.00028
3117.67327	0.99991
3115.61947	0.99850
3113.56566	0.99660
3111.51186	0.99549
3109.45806	0.99509
3107.40426	0.99394
3105.35045	0.99175
3103.29665	0.99009
3101.24285	0.98956
3099.18904	0.98945
3097.13524	0.98934
3095.08144	0.98878
3093.02763	0.98750
3090.97383	0.98569
3088.92003	0.98371
3086.86622	0.98187
3084.81242	0.98035
3082.75862	0.97931
3080.70481	0.97867
3078.65101	0.97827
3076.59721	0.97809
3074.54340	0.97795
3072.48960	0.97749
3070.43580	0.97674
3068.38199	0.97547
3066.32819	0.97348
3064.27439	0.97170
3062.22058	0.97022
3060.16678	0.96856
3058.11298	0.96783
3056.05918	0.96848
3054.00537	0.96958
3051.95157	0.97127
3049.89777	0.97339
3047.84396	0.97488
3045.79016	0.97553
3043.73636	0.97544
3041.68255	0.97453
3039.62875	0.97279
3037.57495	0.97055
3035.52114	0.96840
3033.46734	0.96652
3031.41354	0.96464
3029.35973	0.96204
3027.30593	0.95815
3025.25213	0.95484
3023.19832	0.95531
3021.14452	0.95926
3019.09072	0.96390
3017.03691	0.96780
3014.98311	0.97115
3012.92931	0.97456
3010.87550	0.97769
3008.82170	0.97955
3006.76790	0.98050
3004.71409	0.98177
3002.66029	0.98387
3000.60649	0.98715
2998.55269	0.99178
2996.49888	0.99766
2994.44508	1.00519
2992.39128	1.01484
2990.33747	1.02717
2988.28367	1.04375
2986.22987	1.06634
2984.17606	1.09692
2982.12226	1.13777
2980.06846	1.18943
2978.01465	1.25104
2975.96085	1.32144
2973.90705	1.39496
2971.85324	1.45271
2969.79944	1.46866
2967.74564	1.43293
2965.69183	1.36073
2963.63803	1.27906
2961.58423	1.20714
2959.53042	1.15079
2957.47662	1.10963
2955.42282	1.08183
2953.36901	1.06421
2951.31521	1.05268
2949.26141	1.04523
2947.20761	1.04189
2945.15380	1.04247
2943.10000	1.04571
2941.04620	1.04933
2938.99239	1.05235
2936.93859	1.05478
2934.88479	1.05530
2932.83098	1.05286
2930.77718	1.04818
2928.72338	1.04243
2926.66957	1.03625
2924.61577	1.03010
2922.56197	1.02563
2920.50816	1.02385
2918.45436	1.02359
2916.40056	1.02332
2914.34675	1.02234
2912.29295	1.02204
2910.23915	1.02381
2908.18534	1.02644
2906.13154	1.02872
2904.07774	1.03119
2902.02393	1.03432
2899.97013	1.03777
2897.91633	1.04149
2895.86252	1.04525
2893.80872	1.04916
2891.75492	1.05424
2889.70112	1.05959
2887.64731	1.06325
2885.59351	1.06518
2883.53971	1.06634
2881.48590	1.06638
2879.43210	1.06407
2877.37830	1.05974
2875.32449	1.05522
2873.27069	1.05138
2871.21689	1.04719
2869.16308	1.04202
2867.10928	1.03699
2865.05548	1.03235
2863.00167	1.02742
2860.94787	1.02174
2858.89407	1.01510
2856.84026	1.00887
2854.78646	1.00389
2852.73266	0.99961
2850.67885	0.99603
2848.62505	0.99331
2846.57125	0.99167
2844.51744	0.99108
2842.46364	0.99052
2840.40984	0.98968
2838.35603	0.98937
2836.30223	0.98974
2834.24843	0.99037
2832.19463	0.99095
2830.14082	0.99151
2828.08702	0.99184
2826.03322	0.99152
2823.97941	0.99061
2821.92561	0.98943
2819.87181	0.98849
2817.81800	0.98793
2815.76420	0.98696
2813.71040	0.98590
2811.65659	0.98572
2809.60279	0.98573
2807.54899	0.98563
2805.49518	0.98549
2803.44138	0.98480
2801.38758	0.98383
2799.33377	0.98288
2797.27997	0.98166
2795.22617	0.98028
2793.17236	0.97981
2791.11856	0.98036
2789.06476	0.98102
2787.01095	0.98146
2784.95715	0.98161
2782.90335	0.98148
2780.84955	0.98111
2778.79574	0.98038
2776.74194	0.97940
2774.68814	0.97855
2772.63433	0.97817
2770.58053	0.97828
2768.52673	0.97842
2766.47292	0.97836
2764.41912	0.97801
2762.36532	0.97721
2760.31151	0.97638
2758.25771	0.97593
2756.20391	0.97575
2754.15010	0.97572
2752.09630	0.97534
2750.04250	0.97464
2747.98869	0.97443
2745.93489	0.97493
2743.88109	0.97558
2741.82728	0.97565
2739.77348	0.97493
2737.71968	0.97444
2735.66587	0.97503
2733.61207	0.97593
2731.55827	0.97652
2729.50446	0.97749
2727.45066	0.97859
2725.39686	0.97869
2723.34306	0.97791
2721.28925	0.97729
2719.23545	0.97698
2717.18165	0.97669
2715.12784	0.97645
2713.07404	0.97622
2711.02024	0.97595
2708.96643	0.97589
2706.91263	0.97609
2704.85883	0.97608
2702.80502	0.97578
2700.75122	0.97548
2698.69742	0.97525
2696.64361	0.97496
2694.58981	0.97429
2692.53601	0.97325
2690.48220	0.97183
2688.42840	0.97061
2686.37460	0.97066
2684.32079	0.97146
2682.26699	0.97170
2680.21319	0.97128
2678.15938	0.97112
2676.10558	0.97127
2674.05178	0.97149
2671.99797	0.97243
2669.94417	0.97378
2667.89037	0.97459
2665.83657	0.97500
2663.78276	0.97552
2661.72896	0.97599
2659.67516	0.97621
2657.62135	0.97593
2655.56755	0.97539
2653.51375	0.97527
2651.45994	0.97513
2649.40614	0.97460
2647.35234	0.97398
2645.29853	0.97308
2643.24473	0.97198
2641.19093	0.97103
2639.13712	0.96996
2637.08332	0.96886
2635.02952	0.96877
2632.97571	0.96948
2630.92191	0.96986
2628.86811	0.97006
2626.81430	0.97039
2624.76050	0.97062
2622.70670	0.97091
2620.65289	0.97099
2618.59909	0.97048
2616.54529	0.96968
2614.49149	0.96897
2612.43768	0.96860
2610.38388	0.96876
2608.33008	0.96994
2606.27627	0.97161
2604.22247	0.97232
2602.16867	0.97185
2600.11486	0.97094
2598.06106	0.97023
2596.00726	0.96974
2593.95345	0.96880
2591.89965	0.96802
2589.84585	0.96861
2587.79204	0.96996
2585.73824	0.97112
2583.68444	0.97150
2581.63063	0.97103
2579.57683	0.97084
2577.52303	0.97104
2575.46922	0.97078
2573.41542	0.97043
2571.36162	0.97035
2569.30781	0.97000
2567.25401	0.96949
2565.20021	0.96897
2563.14640	0.96842
2561.09260	0.96831
2559.03880	0.96849
2556.98500	0.96783
2554.93119	0.96690
2552.87739	0.96712
2550.82359	0.96771
2548.76978	0.96779
2546.71598	0.96841
2544.66218	0.97015
2542.60837	0.97150
2540.55457	0.97107
2538.50077	0.96972
2536.44696	0.96889
2534.39316	0.96870
2532.33936	0.96827
2530.28555	0.96741
2528.23175	0.96773
2526.17795	0.96970
2524.12414	0.97139
2522.07034	0.97158
2520.01654	0.97065
2517.96273	0.97048
2515.90893	0.97140
2513.85513	0.97074
2511.80132	0.96788
2509.74752	0.96559
2507.69372	0.96542
2505.63992	0.96601
2503.58611	0.96617
2501.53231	0.96640
2499.47851	0.96710
2497.42470	0.96715
2495.37090	0.96584
2493.31710	0.96450
2491.26329	0.96459
2489.20949	0.96583
2487.15569	0.96667
2485.10188	0.96632
2483.04808	0.96526
2480.99428	0.96490
2478.94047	0.96613
2476.88667	0.96713
2474.83287	0.96629
2472.77906	0.96524
2470.72526	0.96557
2468.67146	0.96637
2466.61765	0.96612
2464.56385	0.96570
2462.51005	0.96613
2460.45624	0.96663
2458.40244	0.96649
2456.34864	0.96535
2454.29483	0.96358
2452.24103	0.96266
2450.18723	0.96319
2448.13343	0.96380
2446.07962	0.96399
2444.02582	0.96450
2441.97202	0.96521
2439.91821	0.96555
2437.86441	0.96557
2435.81061	0.96552
2433.75680	0.96512
2431.70300	0.96465
2429.64920	0.96451
2427.59539	0.96457
2425.54159	0.96523
2423.48779	0.96671
2421.43398	0.96760
2419.38018	0.96762
2417.32638	0.96818
2415.27257	0.96864
2413.21877	0.96761
2411.16497	0.96588
2409.11116	0.96525
2407.05736	0.96603
2405.00356	0.96703
2402.94975	0.96732
2400.89595	0.96710
2398.84215	0.96729
2396.78834	0.96765
2394.73454	0.96702
2392.68074	0.96544
2390.62694	0.96437
2388.57313	0.96495
2386.51933	0.96634
2384.46553	0.96691
2382.41172	0.96653
2380.35792	0.96660
2378.30412	0.96708
2376.25031	0.96673
2374.19651	0.96648
2372.14271	0.96624
2370.08890	0.96475
2368.03510	0.96358
2365.98130	0.96316
2363.92749	0.96276
2361.87369	0.96276
2359.81989	0.96238
2357.76608	0.96165
2355.71228	0.96156
2353.65848	0.96206
2351.60467	0.96285
2349.55087	0.96350
2347.49707	0.96359
2345.44326	0.96308
2343.38946	0.96388
2341.33566	0.96609
2339.28186	0.96614
2337.22805	0.96463
2335.17425	0.96398
2333.12045	0.96433
2331.06664	0.96469
2329.01284	0.96395
2326.95904	0.96233
2324.90523	0.96111
2322.85143	0.96170
2320.79763	0.96320
2318.74382	0.96365
2316.69002	0.96340
2314.63622	0.96334
2312.58241	0.96336
2310.52861	0.96321
2308.47481	0.96318
2306.42100	0.96356
2304.36720	0.96430
2302.31340	0.96445
2300.25959	0.96363
2298.20579	0.96312
2296.15199	0.96359
2294.09818	0.96381
2292.04438	0.96289
2289.99058	0.96222
2287.93677	0.96282
2285.88297	0.96367
2283.82917	0.96418
2281.77537	0.96492
2279.72156	0.96635
2277.66776	0.96706
2275.61396	0.96538
2273.56015	0.96209
2271.50635	0.95974
2269.45255	0.96113
2267.39874	0.96415
2265.34494	0.96442
2263.29114	0.96350
2261.23733	0.96446
2259.18353	0.96642
2257.12973	0.96665
2255.07592	0.96572
2253.02212	0.96585
2250.96832	0.96528
2248.91451	0.96322
2246.86071	0.96188
2244.80691	0.96208
2242.75310	0.96350
2240.69930	0.96443
2238.64550	0.96404
2236.59169	0.96400
2234.53789	0.96505
2232.48409	0.96597
2230.43029	0.96595
2228.37648	0.96440
2226.32268	0.96132
2224.26888	0.96014
2222.21507	0.96117
2220.16127	0.96200
2218.10747	0.96258
2216.05366	0.96260
2213.99986	0.96276
2211.94606	0.96331
2209.89225	0.96406
2207.83845	0.96588
2205.78465	0.96823
2203.73084	0.96900
2201.67704	0.96827
2199.62324	0.96914
2197.56943	0.97090
2195.51563	0.97053
2193.46183	0.96824
2191.40802	0.96582
2189.35422	0.96509
2187.30042	0.96689
2185.24661	0.96830
2183.19281	0.96705
2181.13901	0.96627
2179.08520	0.96870
2177.03140	0.97303
2174.97760	0.97499
2172.92380	0.97116
2170.86999	0.96501
2168.81619	0.96229
2166.76239	0.96395
2164.70858	0.96553
2162.65478	0.96353
2160.60098	0.96491
2158.54717	0.97267
2156.49337	0.97510
2154.43957	0.97144
2152.38576	0.96840
2150.33196	0.96642
2148.27816	0.96541
2146.22435	0.96574
2144.17055	0.96776
2142.11675	0.97077
2140.06294	0.97220
2138.00914	0.97186
2135.95534	0.97097
2133.90153	0.96993
2131.84773	0.96956
2129.79393	0.96961
2127.74012	0.96862
2125.68632	0.96735
2123.63252	0.96772
2121.57871	0.96866
2119.52491	0.96912
2117.47111	0.96957
2115.41731	0.96957
2113.36350	0.96816
2111.30970	0.96569
2109.25590	0.96390
2107.20209	0.96383
2105.14829	0.96568
2103.09449	0.96791
2101.04068	0.96878
2098.98688	0.96928
2096.93308	0.97082
2094.87927	0.97179
2092.82547	0.97021
2090.77167	0.96750
2088.71786	0.96537
2086.66406	0.96471
2084.61026	0.96604
2082.55645	0.96775
2080.50265	0.96951
2078.44885	0.97241
2076.39504	0.97427
2074.34124	0.97311
2072.28744	0.97032
2070.23363	0.96787
2068.17983	0.96636
2066.12603	0.96583
2064.07223	0.96581
2062.01842	0.96715
2059.96462	0.97047
2057.91082	0.97202
2055.85701	0.97074
2053.80321	0.96955
2051.74941	0.96878
2049.69560	0.96569
2047.64180	0.96108
2045.58800	0.96072
2043.53419	0.96438
2041.48039	0.96980
2039.42659	0.97557
2037.37278	0.97682
2035.31898	0.97573
2033.26518	0.97801
2031.21137	0.97772
2029.15757	0.97183
2027.10377	0.96844
2025.04996	0.96805
2022.99616	0.96910
2020.94236	0.97370
2018.88855	0.97622
2016.83475	0.97448
2014.78095	0.97577
2012.72714	0.97812
2010.67334	0.97495
2008.61954	0.97002
2006.56574	0.96863
2004.51193	0.96905
2002.45813	0.96817
2000.40433	0.96785
1998.35052	0.96984
1996.29672	0.97236
1994.24292	0.97485
1992.18911	0.97576
1990.13531	0.97164
1988.08151	0.96558
1986.02770	0.96443
1983.97390	0.96638
1981.92010	0.96607
1979.86629	0.96520
1977.81249	0.96840
1975.75869	0.97449
1973.70488	0.97501
1971.65108	0.96833
1969.59728	0.96297
1967.54347	0.96445
1965.48967	0.96915
1963.43587	0.97074
1961.38206	0.97005
1959.32826	0.97182
1957.27446	0.97414
1955.22066	0.97264
1953.16685	0.96969
1951.11305	0.96768
1949.05925	0.96503
1947.00544	0.96222
1944.95164	0.96059
1942.89784	0.96072
1940.84403	0.96341
1938.79023	0.96584
1936.73643	0.96636
1934.68262	0.96634
1932.62882	0.96719
1930.57502	0.96907
1928.52121	0.96927
1926.46741	0.96754
1924.41361	0.96720
1922.35980	0.96904
1920.30600	0.97003
1918.25220	0.96913
1916.19839	0.96815
1914.14459	0.96791
1912.09079	0.96846
1910.03698	0.96906
1907.98318	0.96861
1905.92938	0.96808
1903.87557	0.96874
1901.82177	0.96981
1899.76797	0.97042
1897.71417	0.97104
1895.66036	0.97121
1893.60656	0.97084
1891.55276	0.97066
1889.49895	0.96942
1887.44515	0.96731
1885.39135	0.96697
1883.33754	0.96791
1881.28374	0.96783
1879.22994	0.96717
1877.17613	0.96751
1875.12233	0.96810
1873.06853	0.96789
1871.01472	0.96728
1868.96092	0.96631
1866.90712	0.96518
1864.85331	0.96520
1862.79951	0.96579
1860.74571	0.96634
1858.69190	0.96816
1856.63810	0.97016
1854.58430	0.96982
1852.53049	0.96817
1850.47669	0.96769
1848.42289	0.96838
1846.36908	0.96863
1844.31528	0.96826
1842.26148	0.96877
1840.20768	0.97000
1838.15387	0.97055
1836.10007	0.97017
1834.04627	0.96977
1831.99246	0.96985
1829.93866	0.96993
1827.88486	0.96932
1825.83105	0.96841
1823.77725	0.96824
1821.72345	0.96896
1819.66964	0.96920
1817.61584	0.96858
1815.56204	0.96839
1813.50823	0.96867
1811.45443	0.96828
1809.40063	0.96738
1807.34682	0.96700
1805.29302	0.96678
1803.23922	0.96625
1801.18541	0.96645
1799.13161	0.96783
1797.07781	0.96894
1795.02400	0.96939
1792.97020	0.97013
1790.91640	0.97112
1788.86260	0.97108
1786.80879	0.97036
1784.75499	0.97008
1782.70119	0.97013
1780.64738	0.97006
1778.59358	0.97081
1776.53978	0.97242
1774.48597	0.97389
1772.43217	0.97507
1770.37837	0.97596
1768.32456	0.97610
1766.27076	0.97577
1764.21696	0.97546
1762.16315	0.97475
1760.10935	0.97366
1758.05555	0.97306
1756.00174	0.97273
1753.94794	0.97209
1751.89414	0.97146
1749.84033	0.97112
1747.78653	0.97025
1745.73273	0.96862
1743.67892	0.96697
1741.62512	0.96619
1739.57132	0.96660
1737.51751	0.96714
1735.46371	0.96710
1733.40991	0.96685
1731.35611	0.96703
1729.30230	0.96765
1727.24850	0.96831
1725.19470	0.96830
1723.14089	0.96821
1721.08709	0.96879
1719.03329	0.96938
1716.97948	0.96966
1714.92568	0.97036
1712.87188	0.97135
1710.81807	0.97191
1708.76427	0.97179
1706.71047	0.97123
1704.65666	0.97044
1702.60286	0.96999
1700.54906	0.97033
1698.49525	0.97076
1696.44145	0.97085
1694.38765	0.97118
1692.33384	0.97138
1690.28004	0.97105
1688.22624	0.97084
1686.17243	0.97176
1684.11863	0.97288
1682.06483	0.97237
1680.01103	0.97157
1677.95722	0.97111
1675.90342	0.97110
1673.84962	0.97159
1671.79581	0.97198
1669.74201	0.97200
1667.68821	0.97196
1665.63440	0.97193
1663.58060	0.97144
1661.52680	0.97104
1659.47299	0.97141
1657.41919	0.97199
1655.36539	0.97272
1653.31158	0.97320
1651.25778	0.97248
1649.20398	0.97211
1647.15017	0.97169
1645.09637	0.97073
1643.04257	0.96974
1640.98876	0.96879
1638.93496	0.96832
1636.88116	0.96847
1634.82735	0.96850
1632.77355	0.96811
1630.71975	0.96752
1628.66594	0.96634
1626.61214	0.96452
1624.55834	0.96283
1622.50454	0.96153
1620.45073	0.96099
1618.39693	0.96106
1616.34313	0.96079
1614.28932	0.95974
1612.23552	0.95830
1610.18172	0.95613
1608.12791	0.95251
1606.07411	0.94743
1604.02031	0.94193
1601.96650	0.93821
1599.91270	0.93822
1597.85890	0.94121
1595.80509	0.94542
1593.75129	0.94956
1591.69749	0.95232
1589.64368	0.95336
1587.58988	0.95306
1585.53608	0.95203
1583.48227	0.95150
1581.42847	0.95216
1579.37467	0.95364
1577.32086	0.95568
1575.26706	0.95779
1573.21326	0.95929
1571.15945	0.96038
1569.10565	0.96094
1567.05185	0.96114
1564.99805	0.96149
1562.94424	0.96151
1560.89044	0.96064
1558.83664	0.95942
1556.78283	0.96054
1554.72903	0.96200
1552.67523	0.96210
1550.62142	0.96166
1548.56762	0.96214
1546.51382	0.96314
1544.46001	0.96279
1542.40621	0.96108
1540.35241	0.96135
1538.29860	0.96443
1536.24480	0.96674
1534.19100	0.96790
1532.13719	0.96845
1530.08339	0.96908
1528.02959	0.96956
1525.97578	0.96941
1523.92198	0.96865
1521.86818	0.96786
1519.81437	0.96784
1517.76057	0.96847
1515.70677	0.96944
1513.65297	0.97062
1511.59916	0.97171
1509.54536	0.97269
1507.49156	0.97361
1505.43775	0.97333
1503.38395	0.97262
1501.33015	0.97176
1499.27634	0.96838
1497.22254	0.95616
1495.16874	0.93621
1493.11493	0.92424
1491.06113	0.92864
1489.00733	0.94791
1486.95352	0.96628
1484.89972	0.97774
1482.84592	0.98662
1480.79211	0.99505
1478.73831	1.00348
1476.68451	1.01333
1474.63070	1.02773
1472.57690	1.04995
1470.52310	1.07129
1468.46929	1.08283
1466.41549	1.08602
1464.36169	1.08008
1462.30788	1.06949
1460.25408	1.05839
1458.20028	1.04076
1456.14648	1.01024
1454.09267	0.98441
1452.03887	0.96974
1449.98507	0.96462
1447.93126	0.96663
1445.87746	0.97071
1443.82366	0.97462
1441.76985	0.97863
1439.71605	0.98302
1437.66225	0.98961
1435.60844	0.99870
1433.55464	1.00545
1431.50084	1.01093
1429.44703	1.01810
1427.39323	1.02534
1425.33943	1.03079
1423.28562	1.03527
1421.23182	1.04009
1419.17802	1.04680
1417.12421	1.05402
1415.07041	1.05992
1413.01661	1.06617
1410.96280	1.07237
1408.90900	1.07643
1406.85520	1.07770
1404.80139	1.07643
1402.74759	1.07339
1400.69379	1.06985
1398.63999	1.06614
1396.58618	1.06365
1394.53238	1.06369
1392.47858	1.06696
1390.42477	1.07517
1388.37097	1.09310
1386.31717	1.12557
1384.26336	1.16894
1382.20956	1.21651
1380.15576	1.25211
1378.10195	1.25539
1376.04815	1.23010
1373.99435	1.19963
1371.94054	1.18476
1369.88674	1.18319
1367.83294	1.17994
1365.77913	1.16456
1363.72533	1.13456
1361.67153	1.09729
1359.61772	1.06862
1357.56392	1.05120
1355.51012	1.04118
1353.45631	1.03717
1351.40251	1.03812
1349.34871	1.04386
1347.29491	1.05472
1345.24110	1.06922
1343.18730	1.08281
1341.13350	1.08952
1339.07969	1.08595
1337.02589	1.07573
1334.97209	1.06590
1332.91828	1.05985
1330.86448	1.05823
1328.81068	1.06069
1326.75687	1.06658
1324.70307	1.07497
1322.64927	1.08502
1320.59546	1.09629
1318.54166	1.10823
1316.48786	1.11935
1314.43405	1.12851
1312.38025	1.13614
1310.32645	1.14245
1308.27264	1.14710
1306.21884	1.14959
1304.16504	1.14874
1302.11123	1.14492
1300.05743	1.13997
1298.00363	1.13371
1295.94982	1.12526
1293.89602	1.11603
1291.84222	1.10721
1289.78842	1.09761
1287.73461	1.08627
1285.68081	1.07472
1283.62701	1.06466
1281.57320	1.05549
1279.51940	1.04654
1277.46560	1.03844
1275.41179	1.03159
1273.35799	1.02604
1271.30419	1.02159
1269.25038	1.01752
1267.19658	1.01358
1265.14278	1.01017
1263.08897	1.00711
1261.03517	1.00378
1258.98137	1.00068
1256.92756	0.99896
1254.87376	0.99788
1252.81996	0.99624
1250.76615	0.99419
1248.71235	0.99218
1246.65855	0.99045
1244.60474	0.98914
1242.55094	0.98794
1240.49714	0.98609
1238.44334	0.98411
1236.38953	0.98316
1234.33573	0.98294
1232.28193	0.98223
1230.22812	0.98076
1228.17432	0.97969
1226.12052	0.97956
1224.06671	0.97920
1222.01291	0.97787
1219.95911	0.97605
1217.90530	0.97457
1215.85150	0.97358
1213.79770	0.97185
1211.74389	0.96932
1209.69009	0.96756
1207.63629	0.96643
1205.58248	0.96455
1203.52868	0.96208
1201.47488	0.96001
1199.42107	0.95820
1197.36727	0.95653
1195.31347	0.95530
1193.25966	0.95434
1191.20586	0.95416
1189.15206	0.95445
1187.09825	0.95336
1185.04445	0.95091
1182.99065	0.94907
1180.93685	0.94923
1178.88304	0.95224
1176.82924	0.95977
1174.77544	0.97340
1172.72163	0.99472
1170.66783	1.02691
1168.61403	1.07235
1166.56022	1.12895
1164.50642	1.18678
1162.45262	1.22869
1160.39881	1.24173
1158.34501	1.22624
1156.29121	1.19312
1154.23740	1.15600
1152.18360	1.12339
1150.12980	1.09774
1148.07599	1.07934
1146.02219	1.06832
1143.96839	1.06559
1141.91458	1.07237
1139.86078	1.08948
1137.80698	1.11903
1135.75317	1.16380
1133.69937	1.22058
1131.64557	1.27690
1129.59176	1.31489
1127.53796	1.31779
1125.48416	1.28268
1123.43036	1.22622
1121.37655	1.17234
1119.32275	1.13601
1117.26895	1.11841
1115.21514	1.11356
1113.16134	1.11465
1111.10754	1.11704
1109.05373	1.11813
1106.99993	1.11447
1104.94613	1.10195
1102.89232	1.08025
1100.83852	1.05267
1098.78472	1.02174
1096.73091	0.98935
1094.67711	0.95832
1092.62331	0.93069
1090.56950	0.90751
1088.51570	0.88827
1086.46190	0.87097
1084.40809	0.85553
1082.35429	0.84315
1080.30049	0.83291
1078.24668	0.82320
1076.19288	0.81372
1074.13908	0.80464
1072.08528	0.79661
1070.03147	0.79035
1067.97767	0.78490
1065.92387	0.77875
1063.87006	0.77208
1061.81626	0.76584
1059.76246	0.76014
1057.70865	0.75412
1055.65485	0.74758
1053.60105	0.74089
1051.54724	0.73388
1049.49344	0.72624
1047.43964	0.71789
1045.38583	0.70905
1043.33203	0.69957
1041.27823	0.68901
1039.22442	0.67758
1037.17062	0.66620
1035.11682	0.65579
1033.06301	0.64619
1031.00921	0.63692
1028.95541	0.62874
1026.90160	0.62299
1024.84780	0.61988
1022.79400	0.61813
1020.74019	0.61605
1018.68639	0.61343
1016.63259	0.61096
1014.57879	0.60831
1012.52498	0.60499
1010.47118	0.60222
1008.41738	0.60080
1006.36357	0.59980
1004.30977	0.59894
1002.25597	0.59878
1000.20216	0.59996
998.14836	0.60298
996.09456	0.60699
994.04075	0.61107
991.98695	0.61577
989.93315	0.62175
987.87934	0.62876
985.82554	0.63610
983.77174	0.64368
981.71793	0.65219
979.66413	0.66194
977.61033	0.67271
975.55652	0.68497
973.50272	0.69926
971.44892	0.71542
969.39511	0.73346
967.34131	0.75343
965.28751	0.77752
963.23371	0.81287
961.17990	0.86939
959.12610	0.95901
957.07230	1.09482
955.01849	1.27855
952.96469	1.47301
950.91089	1.58354
948.85708	1.53740
946.80328	1.38571
944.74948	1.22313
942.69567	1.09590
940.64187	1.01023
938.58807	0.95676
936.53426	0.92357
934.48046	0.90193
932.42666	0.88599
930.37285	0.87329
928.31905	0.86458
926.26525	0.85969
924.21144	0.85674
922.15764	0.85394
920.10384	0.84987
918.05003	0.84406
915.99623	0.83763
913.94243	0.83179
911.88862	0.82748
909.83482	0.82639
907.78102	0.82869
905.72722	0.83269
903.67341	0.83826
901.61961	0.84579
899.56581	0.85430
897.51200	0.86238
895.45820	0.86897
893.40440	0.87410
891.35059	0.87903
889.29679	0.88396
887.24299	0.88796
885.18918	0.89053
883.13538	0.89214
881.08158	0.89306
879.02777	0.89326
876.97397	0.89380
874.92017	0.89579
872.86636	0.89979
870.81256	0.90578
868.75876	0.91225
866.70495	0.91716
864.65115	0.92000
862.59735	0.92248
860.54354	0.92558
858.48974	0.92804
856.43594	0.92956
854.38213	0.93171
852.32833	0.93472
850.27453	0.93713
848.22073	0.93878
846.16692	0.94061
844.11312	0.94273
842.05932	0.94450
840.00551	0.94440
837.95171	0.94272
835.89791	0.94273
833.84410	0.94560
831.79030	0.94968
829.73650	0.95395
827.68269	0.96068
825.62889	0.97553
823.57509	1.00629
821.52128	1.06366
819.46748	1.14622
817.41368	1.21423
815.35987	1.21189
813.30607	1.14391
811.25227	1.06573
809.19846	1.01000
807.14466	0.97728
805.09086	0.95841
803.03705	0.94656
800.98325	0.93918
798.92945	0.93592
796.87565	0.93622
794.82184	0.93859
792.76804	0.94089
790.71424	0.94148
788.66043	0.94202
786.60663	0.94445
784.55283	0.94543
782.49902	0.94245
780.44522	0.93911
778.39142	0.93735
776.33761	0.93469
774.28381	0.93032
772.23001	0.92476
770.17620	0.91793
768.12240	0.91123
766.06860	0.90489
764.01479	0.89633
761.96099	0.88634
759.90719	0.87815
757.85338	0.87187
755.79958	0.86686
753.74578	0.86469
751.69197	0.86634
749.63817	0.86967
747.58437	0.87423
745.53056	0.88297
743.47676	0.89741
741.42296	0.91479
739.36916	0.93051
737.31535	0.94340
735.26155	0.95524
733.20775	0.96588
731.15394	0.97348
729.10014	0.97816
727.04634	0.98248
724.99253	0.98838
722.93873	0.99439
720.88493	0.99847
718.83112	1.00195
716.77732	1.00555
714.72352	1.00652
712.66971	1.00331
710.61591	0.99492
708.56211	0.97716
706.50830	0.94626
704.45450	0.89958
702.40070	0.83664
700.34689	0.76473
698.29309	0.70044
696.23929	0.67164
694.18548	0.69931
692.13168	0.76553
690.07788	0.83199
688.02408	0.88037
685.97027	0.91219
683.91647	0.93157
681.86267	0.94294
679.80886	0.95193
677.75506	0.96000
675.70126	0.96530
673.64745	0.96751
671.59365	0.96794
669.53985	0.96896
667.48604	0.97431
665.43224	0.98113
663.37844	0.98535
661.32463	0.98774
659.27083	0.98987
657.21703	0.99115
655.16322	0.98876
653.10942	0.98486
651.05562	0.98313
649.00181	0.98283
646.94801	0.98379
644.89421	0.98801
642.84040	0.99475
640.78660	0.99896
638.73280	0.99753
636.67899	0.99388
634.62519	0.99277
632.57139	0.99361
630.51759	0.99290
628.46378	0.99150
626.40998	0.99262
624.35618	0.99405
622.30237	0.99230
620.24857	0.98910
618.19477	0.98653
616.14096	0.98432
614.08716	0.98101
612.03336	0.97459
609.97955	0.96502
607.92575	0.95730
605.87195	0.95574
603.81814	0.95642
601.76434	0.95363
599.71054	0.94767
597.65673	0.94305
595.60293	0.94021
593.54913	0.93581
591.49532	0.93015
589.44152	0.92501
587.38772	0.92214
585.33391	0.92226
583.28011	0.92192
581.22631	0.91916
579.17250	0.91648
577.11870	0.91334
575.06490	0.90611
573.01110	0.89598
570.95729	0.88628
568.90349	0.87779
566.84969	0.87041
564.79588	0.86266
562.74208	0.85312
560.68828	0.84613
558.63447	0.84258
556.58067	0.83305
554.52687	0.81629
552.47306	0.80096
550.41926	0.78991
548.36546	0.77859
546.31165	0.76443
544.25785	0.75086
542.20405	0.73811
540.15024	0.72542
538.09644	0.71517
536.04264	0.70666
533.98883	0.69924
531.93503	0.69588
529.88123	0.69666
527.82742	0.69799
525.77362	0.70011
523.71982	0.70702
521.66602	0.71665
519.61221	0.72424
517.55841	0.73083
515.50461	0.73851
513.45080	0.74627
511.39700	0.75226
509.34320	0.75623
507.28939	0.75985
505.23559	0.76525
503.18179	0.77370
501.12798	0.78210
499.07418	0.78714
497.02038	0.78989
494.96657	0.78990
492.91277	0.78429
490.85897	0.77293
488.80516	0.75920
486.75136	0.74497
484.69756	0.73019
482.64375	0.71145
480.58995	0.68763
478.53615	0.66643
476.48234	0.65125
474.42854	0.63632
472.37474	0.61668
470.32093	0.59607
468.26713	0.58247
466.21333	0.58013
464.15953	0.58639
462.10572	0.59454
460.05192	0.60321
457.99812	0.61533
455.94431	0.62787
453.89051	0.63505
451.83671	0.64011
449.78290	0.64836
447.72910	0.65616
445.67530	0.65787
443.62149	0.66080
441.56769	0.67082
439.51389	0.67935
437.46008	0.67892
435.40628	0.67066
433.35248	0.66516
431.29867	0.66748
429.24487	0.66787
427.19107	0.65786
425.13726	0.64679
423.08346	0.64803
421.02966	0.65573
418.97585	0.66199
416.92205	0.67246
414.86825	0.68640
412.81445	0.69373
410.76064	0.68940
408.70684	0.67818
406.65304	0.67134
404.59923	0.67935
402.54543	0.69502
400.49163	0.69961
398.43782	0.69606
