3996.70104	0.95468
3994.64724	0.95449
3992.59344	0.95456
3990.53964	0.95522
3988.48583	0.95561
3986.43203	0.95540
3984.37823	0.95544
3982.32442	0.95556
3980.27062	0.95510
3978.21682	0.95442
3976.16301	0.95430
3974.10921	0.95457
3972.05541	0.95481
3970.00160	0.95513
3967.94780	0.95539
3965.89400	0.95544
3963.84019	0.95527
3961.78639	0.95506
3959.73259	0.95519
3957.67878	0.95525
3955.62498	0.95480
3953.57118	0.95435
3951.51737	0.95433
3949.46357	0.95490
3947.40977	0.95588
3945.35596	0.95640
3943.30216	0.95600
3941.24836	0.95508
3939.19455	0.95475
3937.14075	0.95522
3935.08695	0.95574
3933.03315	0.95570
3930.97934	0.95503
3928.92554	0.95481
3926.87174	0.95562
3924.81793	0.95626
3922.76413	0.95605
3920.71033	0.95564
3918.65652	0.95543
3916.60272	0.95556
3914.54892	0.95560
3912.49511	0.95524
3910.44131	0.95503
3908.38751	0.95520
3906.33370	0.95563
3904.27990	0.95631
3902.22610	0.95687
3900.17229	0.95675
3898.11849	0.95600
3896.06469	0.95562
3894.01088	0.95578
3891.95708	0.95542
3889.90328	0.95445
3887.84947	0.95433
3885.79567	0.95532
3883.74187	0.95618
3881.68807	0.95603
3879.63426	0.95557
3877.58046	0.95571
3875.52666	0.95615
3873.47285	0.95666
3871.41905	0.95724
3869.36525	0.95712
3867.31144	0.95639
3865.25764	0.95633
3863.20384	0.95675
3861.15003	0.95658
3859.09623	0.95618
3857.04243	0.95614
3854.98862	0.95659
3852.93482	0.95731
3850.88102	0.95741
3848.82721	0.95710
3846.77341	0.95666
3844.71961	0.95620
3842.66580	0.95603
3840.61200	0.95625
3838.55820	0.95647
3836.50439	0.95648
3834.45059	0.95656
3832.39679	0.95693
3830.34298	0.95725
3828.28918	0.95691
3826.23538	0.95646
3824.18158	0.95692
3822.12777	0.95773
3820.07397	0.95741
3818.02017	0.95662
3815.96636	0.95615
3813.91256	0.95594
3811.85876	0.95631
3809.80495	0.95708
3807.75115	0.95732
3805.69735	0.95671
3803.64354	0.95673
3801.58974	0.95696
3799.53594	0.95669
3797.48213	0.95689
3795.42833	0.95702
3793.37453	0.95692
3791.32072	0.95703
3789.26692	0.95683
3787.21312	0.95617
3785.15931	0.95566
3783.10551	0.95589
3781.05171	0.95645
3778.99790	0.95695
3776.94410	0.95748
3774.89030	0.95764
3772.83650	0.95717
3770.78269	0.95649
3768.72889	0.95652
3766.67509	0.95743
3764.62128	0.95799
3762.56748	0.95736
3760.51368	0.95677
3758.45987	0.95740
3756.40607	0.95832
3754.35227	0.95867
3752.29846	0.95852
3750.24466	0.95811
3748.19086	0.95795
3746.13705	0.95826
3744.08325	0.95824
3742.02945	0.95746
3739.97564	0.95696
3737.92184	0.95703
3735.86804	0.95817
3733.81423	0.95909
3731.76043	0.95810
3729.70663	0.95704
3727.65282	0.95678
3725.59902	0.95693
3723.54522	0.95701
3721.49141	0.95680
3719.43761	0.95684
3717.38381	0.95725
3715.33001	0.95674
3713.27620	0.95466
3711.22240	0.95197
3709.16860	0.95026
3707.11479	0.94935
3705.06099	0.94841
3703.00719	0.94671
3700.95338	0.94443
3698.89958	0.94291
3696.84578	0.94209
3694.79197	0.94120
3692.73817	0.94045
3690.68437	0.94091
3688.63056	0.94252
3686.57676	0.94383
3684.52296	0.94474
3682.46915	0.94532
3680.41535	0.94553
3678.36155	0.94563
3676.30774	0.94562
3674.25394	0.94560
3672.20014	0.94562
3670.14633	0.94486
3668.09253	0.94396
3666.03873	0.94388
3663.98492	0.94382
3661.93112	0.94347
3659.87732	0.94303
3657.82352	0.94263
3655.76971	0.94214
3653.71591	0.94183
3651.66211	0.94147
3649.60830	0.94018
3647.55450	0.93920
3645.50070	0.93973
3643.44689	0.94022
3641.39309	0.93988
3639.33929	0.93900
3637.28548	0.93825
3635.23168	0.93770
3633.17788	0.93724
3631.12407	0.93691
3629.07027	0.93629
3627.01647	0.93516
3624.96266	0.93471
3622.90886	0.93494
3620.85506	0.93478
3618.80125	0.93381
3616.74745	0.93376
3614.69365	0.93467
3612.63984	0.93491
3610.58604	0.93446
3608.53224	0.93404
3606.47844	0.93400
3604.42463	0.93461
3602.37083	0.93535
3600.31703	0.93564
3598.26322	0.93568
3596.20942	0.93567
3594.15562	0.93534
3592.10181	0.93528
3590.04801	0.93580
3587.99421	0.93603
3585.94040	0.93521
3583.88660	0.93441
3581.83280	0.93428
3579.77899	0.93421
3577.72519	0.93368
3575.67139	0.93316
3573.61758	0.93318
3571.56378	0.93340
3569.50998	0.93339
3567.45617	0.93276
3565.40237	0.93174
3563.34857	0.93154
3561.29476	0.93213
3559.24096	0.93275
3557.18716	0.93296
3555.13335	0.93274
3553.07955	0.93230
3551.02575	0.93190
3548.97195	0.93158
3546.91814	0.93141
3544.86434	0.93143
3542.81054	0.93116
3540.75673	0.93068
3538.70293	0.93057
3536.64913	0.93064
3534.59532	0.93055
3532.54152	0.93052
3530.48772	0.93053
3528.43391	0.93011
3526.38011	0.92963
3524.32631	0.92954
3522.27250	0.92928
3520.21870	0.92919
3518.16490	0.92992
3516.11109	0.93066
3514.05729	0.93063
3512.00349	0.92995
3509.94968	0.92941
3507.89588	0.92942
3505.84208	0.92901
3503.78827	0.92817
3501.73447	0.92797
3499.68067	0.92829
3497.62687	0.92853
3495.57306	0.92833
3493.51926	0.92778
3491.46546	0.92727
3489.41165	0.92664
3487.35785	0.92601
3485.30405	0.92600
3483.25024	0.92634
3481.19644	0.92626
3479.14264	0.92585
3477.08883	0.92583
3475.03503	0.92594
3472.98123	0.92559
3470.92742	0.92514
3468.87362	0.92475
3466.81982	0.92425
3464.76601	0.92425
3462.71221	0.92453
3460.65841	0.92391
3458.60460	0.92295
3456.55080	0.92261
3454.49700	0.92258
3452.44319	0.92243
3450.38939	0.92208
3448.33559	0.92184
3446.28178	0.92198
3444.22798	0.92199
3442.17418	0.92152
3440.12038	0.92105
3438.06657	0.92112
3436.01277	0.92142
3433.95897	0.92140
3431.90516	0.92099
3429.85136	0.92052
3427.79756	0.92024
3425.74375	0.92022
3423.68995	0.92015
3421.63615	0.91954
3419.58234	0.91864
3417.52854	0.91828
3415.47474	0.91846
3413.42093	0.91854
3411.36713	0.91839
3409.31333	0.91802
3407.25952	0.91739
3405.20572	0.91675
3403.15192	0.91645
3401.09811	0.91670
3399.04431	0.91718
3396.99051	0.91730
3394.93670	0.91673
3392.88290	0.91598
3390.82910	0.91573
3388.77529	0.91583
3386.72149	0.91586
3384.66769	0.91595
3382.61389	0.91612
3380.56008	0.91610
3378.50628	0.91593
3376.45248	0.91584
3374.39867	0.91608
3372.34487	0.91647
3370.29107	0.91631
3368.23726	0.91531
3366.18346	0.91441
3364.12966	0.91455
3362.07585	0.91518
3360.02205	0.91553
3357.96825	0.91547
3355.91444	0.91540
3353.86064	0.91564
3351.80684	0.91561
3349.75303	0.91517
3347.69923	0.91510
3345.64543	0.91573
3343.59162	0.91665
3341.53782	0.91718
3339.48402	0.91681
3337.43021	0.91621
3335.37641	0.91619
3333.32261	0.91643
3331.26881	0.91649
3329.21500	0.91645
3327.16120	0.91653
3325.10740	0.91689
3323.05359	0.91718
3320.99979	0.91733
3318.94599	0.91750
3316.89218	0.91734
3314.83838	0.91704
3312.78458	0.91724
3310.73077	0.91773
3308.67697	0.91797
3306.62317	0.91796
3304.56936	0.91775
3302.51556	0.91742
3300.46176	0.91741
3298.40795	0.91786
3296.35415	0.91831
3294.30035	0.91835
3292.24654	0.91824
3290.19274	0.91840
3288.13894	0.91864
3286.08513	0.91849
3284.03133	0.91831
3281.97753	0.91894
3279.92372	0.91994
3277.86992	0.92026
3275.81612	0.92000
3273.76232	0.91982
3271.70851	0.91992
3269.65471	0.92050
3267.60091	0.92112
3265.54710	0.92115
3263.49330	0.92095
3261.43950	0.92079
3259.38569	0.92088
3257.33189	0.92136
3255.27809	0.92153
3253.22428	0.92112
3251.17048	0.92091
3249.11668	0.92133
3247.06287	0.92203
3245.00907	0.92252
3242.95527	0.92279
3240.90146	0.92287
3238.84766	0.92264
3236.79386	0.92245
3234.74005	0.92245
3232.68625	0.92247
3230.63245	0.92259
3228.57864	0.92302
3226.52484	0.92346
3224.47104	0.92335
3222.41724	0.92300
3220.36343	0.92299
3218.30963	0.92322
3216.25583	0.92357
3214.20202	0.92405
3212.14822	0.92439
3210.09442	0.92446
3208.04061	0.92446
3205.98681	0.92459
3203.93301	0.92468
3201.87920	0.92465
3199.82540	0.92479
3197.77160	0.92511
3195.71779	0.92582
3193.66399	0.92663
3191.61019	0.92677
3189.55638	0.92701
3187.50258	0.92761
3185.44878	0.92783
3183.39497	0.92765
3181.34117	0.92732
3179.28737	0.92733
3177.23356	0.92784
3175.17976	0.92847
3173.12596	0.92883
3171.07215	0.92863
3169.01835	0.92868
3166.96455	0.92964
3164.91075	0.93041
3162.85694	0.93030
3160.80314	0.92991
3158.74934	0.92981
3156.69553	0.93037
3154.64173	0.93151
3152.58793	0.93248
3150.53412	0.93269
3148.48032	0.93248
3146.42652	0.93265
3144.37271	0.93321
3142.31891	0.93342
3140.26511	0.93324
3138.21130	0.93323
3136.15750	0.93349
3134.10370	0.93371
3132.04989	0.93396
3129.99609	0.93447
3127.94229	0.93480
3125.88848	0.93471
3123.83468	0.93465
3121.78088	0.93486
3119.72707	0.93504
3117.67327	0.93486
3115.61947	0.93468
3113.56566	0.93520
3111.51186	0.93594
3109.45806	0.93592
3107.40426	0.93540
3105.35045	0.93509
3103.29665	0.93502
3101.24285	0.93500
3099.18904	0.93512
3097.13524	0.93541
3095.08144	0.93552
3093.02763	0.93549
3090.97383	0.93562
3088.92003	0.93526
3086.86622	0.93354
3084.81242	0.93125
3082.75862	0.93020
3080.70481	0.93044
3078.65101	0.93103
3076.59721	0.93191
3074.54340	0.93278
3072.48960	0.93324
3070.43580	0.93325
3068.38199	0.93247
3066.32819	0.93108
3064.27439	0.92961
3062.22058	0.92848
3060.16678	0.92791
3058.11298	0.92781
3056.05918	0.92845
3054.00537	0.92992
3051.95157	0.93181
3049.89777	0.93365
3047.84396	0.93514
3045.79016	0.93597
3043.73636	0.93609
3041.68255	0.93580
3039.62875	0.93530
3037.57495	0.93452
3035.52114	0.93306
3033.46734	0.93075
3031.41354	0.92751
3029.35973	0.92333
3027.30593	0.91925
3025.25213	0.91702
3023.19832	0.91772
3021.14452	0.92109
3019.09072	0.92578
3017.03691	0.93011
3014.98311	0.93300
3012.92931	0.93449
3010.87550	0.93566
3008.82170	0.93694
3006.76790	0.93743
3004.71409	0.93676
3002.66029	0.93595
3000.60649	0.93594
2998.55269	0.93692
2996.49888	0.93859
2994.44508	0.94002
2992.39128	0.94043
2990.33747	0.94034
2988.28367	0.94086
2986.22987	0.94167
2984.17606	0.94157
2982.12226	0.94093
2980.06846	0.94092
2978.01465	0.94144
2975.96085	0.94162
2973.90705	0.94131
2971.85324	0.94100
2969.79944	0.94093
2967.74564	0.94078
2965.69183	0.94050
2963.63803	0.93996
2961.58423	0.93887
2959.53042	0.93801
2957.47662	0.93801
2955.42282	0.93805
2953.36901	0.93752
2951.31521	0.93668
2949.26141	0.93592
2947.20761	0.93507
2945.15380	0.93368
2943.10000	0.93169
2941.04620	0.92944
2938.99239	0.92706
2936.93859	0.92456
2934.88479	0.92191
2932.83098	0.91907
2930.77718	0.91575
2928.72338	0.91197
2926.66957	0.90872
2924.61577	0.90654
2922.56197	0.90503
2920.50816	0.90415
2918.45436	0.90406
2916.40056	0.90496
2914.34675	0.90693
2912.29295	0.90947
2910.23915	0.91212
2908.18534	0.91473
2906.13154	0.91699
2904.07774	0.91895
2902.02393	0.92115
2899.97013	0.92351
2897.91633	0.92537
2895.86252	0.92679
2893.80872	0.92826
2891.75492	0.92966
2889.70112	0.93079
2887.64731	0.93164
2885.59351	0.93236
2883.53971	0.93324
2881.48590	0.93411
2879.43210	0.93455
2877.37830	0.93467
2875.32449	0.93507
2873.27069	0.93567
2871.21689	0.93600
2869.16308	0.93619
2867.10928	0.93635
2865.05548	0.93632
2863.00167	0.93589
2860.94787	0.93479
2858.89407	0.93313
2856.84026	0.93137
2854.78646	0.92977
2852.73266	0.92848
2850.67885	0.92752
2848.62505	0.92725
2846.57125	0.92826
2844.51744	0.93028
2842.46364	0.93263
2840.40984	0.93511
2838.35603	0.93726
2836.30223	0.93869
2834.24843	0.93986
2832.19463	0.94102
2830.14082	0.94208
2828.08702	0.94291
2826.03322	0.94328
2823.97941	0.94342
2821.92561	0.94364
2819.87181	0.94419
2817.81800	0.94484
2815.76420	0.94499
2813.71040	0.94489
2811.65659	0.94504
2809.60279	0.94523
2807.54899	0.94531
2805.49518	0.94546
2803.44138	0.94554
2801.38758	0.94555
2799.33377	0.94567
2797.27997	0.94574
2795.22617	0.94586
2793.17236	0.94614
2791.11856	0.94631
2789.06476	0.94633
2787.01095	0.94620
2784.95715	0.94609
2782.90335	0.94636
2780.84955	0.94681
2778.79574	0.94712
2776.74194	0.94730
2774.68814	0.94724
2772.63433	0.94707
2770.58053	0.94709
2768.52673	0.94739
2766.47292	0.94770
2764.41912	0.94773
2762.36532	0.94771
2760.31151	0.94805
2758.25771	0.94859
2756.20391	0.94877
2754.15010	0.94850
2752.09630	0.94805
2750.04250	0.94784
2747.98869	0.94790
2745.93489	0.94792
2743.88109	0.94773
2741.82728	0.94762
2739.77348	0.94820
2737.71968	0.94888
2735.66587	0.94909
2733.61207	0.94911
2731.55827	0.94884
2729.50446	0.94849
2727.45066	0.94851
2725.39686	0.94868
2723.34306	0.94875
2721.28925	0.94873
2719.23545	0.94858
2717.18165	0.94854
2715.12784	0.94875
2713.07404	0.94896
2711.02024	0.94902
2708.96643	0.94917
2706.91263	0.94961
2704.85883	0.95013
2702.80502	0.95020
2700.75122	0.94965
2698.69742	0.94881
2696.64361	0.94838
2694.58981	0.94886
2692.53601	0.94937
2690.48220	0.94907
2688.42840	0.94873
2686.37460	0.94890
2684.32079	0.94923
2682.26699	0.94951
2680.21319	0.94971
2678.15938	0.94999
2676.10558	0.95043
2674.05178	0.95054
2671.99797	0.95021
2669.94417	0.94984
2667.89037	0.94946
2665.83657	0.94940
2663.78276	0.94983
2661.72896	0.95011
2659.67516	0.94991
2657.62135	0.94945
2655.56755	0.94910
2653.51375	0.94919
2651.45994	0.94961
2649.40614	0.94969
2647.35234	0.94930
2645.29853	0.94910
2643.24473	0.94934
2641.19093	0.94959
2639.13712	0.94969
2637.08332	0.94989
2635.02952	0.95011
2632.97571	0.95015
2630.92191	0.95048
2628.86811	0.95109
2626.81430	0.95110
2624.76050	0.95092
2622.70670	0.95140
2620.65289	0.95203
2618.59909	0.95209
2616.54529	0.95149
2614.49149	0.95050
2612.43768	0.94995
2610.38388	0.95045
2608.33008	0.95116
2606.27627	0.95120
2604.22247	0.95110
2602.16867	0.95116
2600.11486	0.95117
2598.06106	0.95110
2596.00726	0.95079
2593.95345	0.95064
2591.89965	0.95103
2589.84585	0.95140
2587.79204	0.95145
2585.73824	0.95148
2583.68444	0.95178
2581.63063	0.95247
2579.57683	0.95322
2577.52303	0.95347
2575.46922	0.95319
2573.41542	0.95288
2571.36162	0.95274
2569.30781	0.95300
2567.25401	0.95327
2565.20021	0.95266
2563.14640	0.95182
2561.09260	0.95179
2559.03880	0.95209
2556.98500	0.95221
2554.93119	0.95236
2552.87739	0.95218
2550.82359	0.95178
2548.76978	0.95194
2546.71598	0.95224
2544.66218	0.95223
2542.60837	0.95223
2540.55457	0.95243
2538.50077	0.95283
2536.44696	0.95328
2534.39316	0.95361
2532.33936	0.95391
2530.28555	0.95430
2528.23175	0.95431
2526.17795	0.95363
2524.12414	0.95278
2522.07034	0.95236
2520.01654	0.95258
2517.96273	0.95320
2515.90893	0.95362
2513.85513	0.95352
2511.80132	0.95312
2509.74752	0.95275
2507.69372	0.95282
2505.63992	0.95317
2503.58611	0.95339
2501.53231	0.95370
2499.47851	0.95373
2497.42470	0.95326
2495.37090	0.95325
2493.31710	0.95377
2491.26329	0.95387
2489.20949	0.95356
2487.15569	0.95326
2485.10188	0.95328
2483.04808	0.95395
2480.99428	0.95463
2478.94047	0.95446
2476.88667	0.95370
2474.83287	0.95325
2472.77906	0.95349
2470.72526	0.95400
2468.67146	0.95413
2466.61765	0.95402
2464.56385	0.95390
2462.51005	0.95360
2460.45624	0.95314
2458.40244	0.95261
2456.34864	0.95254
2454.29483	0.95334
2452.24103	0.95384
2450.18723	0.95337
2448.13343	0.95315
2446.07962	0.95389
2444.02582	0.95489
2441.97202	0.95512
2439.91821	0.95426
2437.86441	0.95331
2435.81061	0.95322
2433.75680	0.95400
2431.70300	0.95492
2429.64920	0.95503
2427.59539	0.95451
2425.54159	0.95423
2423.48779	0.95439
2421.43398	0.95468
2419.38018	0.95463
2417.32638	0.95434
2415.27257	0.95434
2413.21877	0.95439
2411.16497	0.95443
2409.11116	0.95460
2407.05736	0.95424
2405.00356	0.95399
2402.94975	0.95489
2400.89595	0.95567
2398.84215	0.95516
2396.78834	0.95402
2394.73454	0.95327
2392.68074	0.95331
2390.62694	0.95402
2388.57313	0.95469
2386.51933	0.95485
2384.46553	0.95486
2382.41172	0.95467
2380.35792	0.95421
2378.30412	0.95385
2376.25031	0.95344
2374.19651	0.95311
2372.14271	0.95383
2370.08890	0.95584
2368.03510	0.95795
2365.98130	0.95833
2363.92749	0.95711
2361.87369	0.95641
2359.81989	0.95586
2357.76608	0.95429
2355.71228	0.95262
2353.65848	0.95194
2351.60467	0.95301
2349.55087	0.95456
2347.49707	0.95484
2345.44326	0.95443
2343.38946	0.95485
2341.33566	0.95536
2339.28186	0.95544
2337.22805	0.95543
2335.17425	0.95476
2333.12045	0.95388
2331.06664	0.95364
2329.01284	0.95390
2326.95904	0.95391
2324.90523	0.95314
2322.85143	0.95239
2320.79763	0.95221
2318.74382	0.95232
2316.69002	0.95296
2314.63622	0.95368
2312.58241	0.95378
2310.52861	0.95368
2308.47481	0.95385
2306.42100	0.95415
2304.36720	0.95444
2302.31340	0.95466
2300.25959	0.95461
2298.20579	0.95406
2296.15199	0.95338
2294.09818	0.95300
2292.04438	0.95251
2289.99058	0.95201
2287.93677	0.95229
2285.88297	0.95286
2283.82917	0.95282
2281.77537	0.95265
2279.72156	0.95308
2277.66776	0.95378
2275.61396	0.95418
2273.56015	0.95433
2271.50635	0.95478
2269.45255	0.95579
2267.39874	0.95683
2265.34494	0.95750
2263.29114	0.95670
2261.23733	0.95457
2259.18353	0.95339
2257.12973	0.95339
2255.07592	0.95368
2253.02212	0.95365
2250.96832	0.95236
2248.91451	0.95163
2246.86071	0.95454
2244.80691	0.95835
2242.75310	0.95850
2240.69930	0.95609
2238.64550	0.95425
2236.59169	0.95489
2234.53789	0.95630
2232.48409	0.95547
2230.43029	0.95431
2228.37648	0.95553
2226.32268	0.95788
2224.26888	0.95900
2222.21507	0.95850
2220.16127	0.95692
2218.10747	0.95530
2216.05366	0.95610
2213.99986	0.95846
2211.94606	0.95890
2209.89225	0.95814
2207.83845	0.95812
2205.78465	0.95871
2203.73084	0.95943
2201.67704	0.95892
2199.62324	0.95654
2197.56943	0.95519
2195.51563	0.95765
2193.46183	0.96083
2191.40802	0.96055
2189.35422	0.95828
2187.30042	0.95685
2185.24661	0.95723
2183.19281	0.95939
2181.13901	0.96125
2179.08520	0.96085
2177.03140	0.95949
2174.97760	0.95919
2172.92380	0.96083
2170.86999	0.96288
2168.81619	0.96195
2166.76239	0.95886
2164.70858	0.95692
2162.65478	0.95767
2160.60098	0.96067
2158.54717	0.96288
2156.49337	0.96276
2154.43957	0.96122
2152.38576	0.96096
2150.33196	0.96208
2148.27816	0.96082
2146.22435	0.95817
2144.17055	0.95695
2142.11675	0.95696
2140.06294	0.95789
2138.00914	0.95897
2135.95534	0.95908
2133.90153	0.95921
2131.84773	0.96040
2129.79393	0.96103
2127.74012	0.96007
2125.68632	0.95886
2123.63252	0.95835
2121.57871	0.95828
2119.52491	0.95867
2117.47111	0.95910
2115.41731	0.95896
2113.36350	0.95926
2111.30970	0.95983
2109.25590	0.95899
2107.20209	0.95730
2105.14829	0.95667
2103.09449	0.95775
2101.04068	0.95972
2098.98688	0.96043
2096.93308	0.95843
2094.87927	0.95607
2092.82547	0.95655
2090.77167	0.95888
2088.71786	0.96004
2086.66406	0.95964
2084.61026	0.95882
2082.55645	0.95788
2080.50265	0.95733
2078.44885	0.95781
2076.39504	0.95897
2074.34124	0.95916
2072.28744	0.95762
2070.23363	0.95684
2068.17983	0.95912
2066.12603	0.96092
2064.07223	0.95919
2062.01842	0.95740
2059.96462	0.95788
2057.91082	0.95933
2055.85701	0.95976
2053.80321	0.95813
2051.74941	0.95539
2049.69560	0.95446
2047.64180	0.95625
2045.58800	0.95713
2043.53419	0.95661
2041.48039	0.95684
2039.42659	0.95826
2037.37278	0.96045
2035.31898	0.96265
2033.26518	0.96331
2031.21137	0.96091
2029.15757	0.95867
2027.10377	0.95911
2025.04996	0.95894
2022.99616	0.95750
2020.94236	0.95823
2018.88855	0.96107
2016.83475	0.96242
2014.78095	0.96132
2012.72714	0.95983
2010.67334	0.95951
2008.61954	0.96141
2006.56574	0.96558
2004.51193	0.96878
2002.45813	0.96731
2000.40433	0.96183
1998.35052	0.95725
1996.29672	0.95793
1994.24292	0.96147
1992.18911	0.96256
1990.13531	0.96054
1988.08151	0.95810
1986.02770	0.95767
1983.97390	0.95909
1981.92010	0.95948
1979.86629	0.95776
1977.81249	0.95702
1975.75869	0.95865
1973.70488	0.96080
1971.65108	0.96242
1969.59728	0.96101
1967.54347	0.95764
1965.48967	0.95750
1963.43587	0.95952
1961.38206	0.95971
1959.32826	0.95789
1957.27446	0.95676
1955.22066	0.95799
1953.16685	0.96008
1951.11305	0.96050
1949.05925	0.95862
1947.00544	0.95663
1944.95164	0.95670
1942.89784	0.95750
1940.84403	0.95685
1938.79023	0.95584
1936.73643	0.95620
1934.68262	0.95786
1932.62882	0.95979
1930.57502	0.96066
1928.52121	0.96015
1926.46741	0.95936
1924.41361	0.95941
1922.35980	0.96077
1920.30600	0.96169
1918.25220	0.96027
1916.19839	0.95834
1914.14459	0.95890
1912.09079	0.96105
1910.03698	0.96134
1907.98318	0.95903
1905.92938	0.95723
1903.87557	0.95716
1901.82177	0.95770
1899.76797	0.95802
1897.71417	0.95732
1895.66036	0.95598
1893.60656	0.95578
1891.55276	0.95680
1889.49895	0.95780
1887.44515	0.95804
1885.39135	0.95728
1883.33754	0.95640
1881.28374	0.95693
1879.22994	0.95806
1877.17613	0.95777
1875.12233	0.95653
1873.06853	0.95603
1871.01472	0.95687
1868.96092	0.95793
1866.90712	0.95779
1864.85331	0.95717
1862.79951	0.95695
1860.74571	0.95724
1858.69190	0.95746
1856.63810	0.95744
1854.58430	0.95802
1852.53049	0.95860
1850.47669	0.95853
1848.42289	0.95878
1846.36908	0.95926
1844.31528	0.95884
1842.26148	0.95827
1840.20768	0.95885
1838.15387	0.95976
1836.10007	0.95985
1834.04627	0.95923
1831.99246	0.95850
1829.93866	0.95846
1827.88486	0.95913
1825.83105	0.95910
1823.77725	0.95817
1821.72345	0.95759
1819.66964	0.95782
1817.61584	0.95827
1815.56204	0.95820
1813.50823	0.95745
1811.45443	0.95681
1809.40063	0.95678
1807.34682	0.95698
1805.29302	0.95679
1803.23922	0.95619
1801.18541	0.95588
1799.13161	0.95626
1797.07781	0.95687
1795.02400	0.95742
1792.97020	0.95763
1790.91640	0.95711
1788.86260	0.95674
1786.80879	0.95722
1784.75499	0.95776
1782.70119	0.95754
1780.64738	0.95732
1778.59358	0.95777
1776.53978	0.95827
1774.48597	0.95830
1772.43217	0.95790
1770.37837	0.95758
1768.32456	0.95750
1766.27076	0.95765
1764.21696	0.95802
1762.16315	0.95768
1760.10935	0.95639
1758.05555	0.95555
1756.00174	0.95551
1753.94794	0.95550
1751.89414	0.95466
1749.84033	0.95301
1747.78653	0.95188
1745.73273	0.95176
1743.67892	0.95180
1741.62512	0.95136
1739.57132	0.95095
1737.51751	0.95119
1735.46371	0.95173
1733.40991	0.95196
1731.35611	0.95176
1729.30230	0.95122
1727.24850	0.95064
1725.19470	0.95055
1723.14089	0.95078
1721.08709	0.95092
1719.03329	0.95082
1716.97948	0.95055
1714.92568	0.95047
1712.87188	0.95023
1710.81807	0.94966
1708.76427	0.94915
1706.71047	0.94874
1704.65666	0.94855
1702.60286	0.94863
1700.54906	0.94834
1698.49525	0.94742
1696.44145	0.94621
1694.38765	0.94467
1692.33384	0.94344
1690.28004	0.94200
1688.22624	0.93996
1686.17243	0.93824
1684.11863	0.93687
1682.06483	0.93552
1680.01103	0.93430
1677.95722	0.93284
1675.90342	0.93087
1673.84962	0.92917
1671.79581	0.92827
1669.74201	0.92688
1667.68821	0.92484
1665.63440	0.92352
1663.58060	0.92269
1661.52680	0.92196
1659.47299	0.92126
1657.41919	0.92048
1655.36539	0.91950
1653.31158	0.91871
1651.25778	0.91926
1649.20398	0.92016
1647.15017	0.92048
1645.09637	0.92014
1643.04257	0.92039
1640.98876	0.92099
1638.93496	0.92137
1636.88116	0.92151
1634.82735	0.92132
1632.77355	0.92136
1630.71975	0.92202
1628.66594	0.92300
1626.61214	0.92370
1624.55834	0.92424
1622.50454	0.92526
1620.45073	0.92665
1618.39693	0.92781
1616.34313	0.92859
1614.28932	0.92914
1612.23552	0.92947
1610.18172	0.92918
1608.12791	0.92738
1606.07411	0.92351
1604.02031	0.91834
1601.96650	0.91409
1599.91270	0.91366
1597.85890	0.91737
1595.80509	0.92252
1593.75129	0.92664
1591.69749	0.92944
1589.64368	0.93148
1587.58988	0.93238
1585.53608	0.93180
1583.48227	0.93078
1581.42847	0.93126
1579.37467	0.93351
1577.32086	0.93614
1575.26706	0.93761
1573.21326	0.93778
1571.15945	0.93770
1569.10565	0.93799
1567.05185	0.93871
1564.99805	0.93917
1562.94424	0.93934
1560.89044	0.93975
1558.83664	0.94043
1556.78283	0.94044
1554.72903	0.94011
1552.67523	0.93962
1550.62142	0.93910
1548.56762	0.93887
1546.51382	0.93926
1544.46001	0.93994
1542.40621	0.94021
1540.35241	0.93991
1538.29860	0.93984
1536.24480	0.94030
1534.19100	0.94119
1532.13719	0.94228
1530.08339	0.94287
1528.02959	0.94338
1525.97578	0.94464
1523.92198	0.94604
1521.86818	0.94657
1519.81437	0.94676
1517.76057	0.94725
1515.70677	0.94802
1513.65297	0.94883
1511.59916	0.94918
1509.54536	0.94916
1507.49156	0.94959
1505.43775	0.95046
1503.38395	0.95044
1501.33015	0.94909
1499.27634	0.94399
1497.22254	0.92896
1495.16874	0.90656
1493.11493	0.89290
1491.06113	0.89518
1489.00733	0.91211
1486.95352	0.92801
1484.89972	0.93651
1482.84592	0.94149
1480.79211	0.94444
1478.73831	0.94579
1476.68451	0.94608
1474.63070	0.94585
1472.57690	0.94553
1470.52310	0.94491
1468.46929	0.94417
1466.41549	0.94384
1464.36169	0.94395
1462.30788	0.94378
1460.25408	0.94218
1458.20028	0.93437
1456.14648	0.91332
1454.09267	0.89441
1452.03887	0.88636
1449.98507	0.88839
1447.93126	0.89684
1445.87746	0.90571
1443.82366	0.91289
1441.76985	0.91857
1439.71605	0.92271
1437.66225	0.92646
1435.60844	0.93046
1433.55464	0.93344
1431.50084	0.93574
1429.44703	0.93760
1427.39323	0.93851
1425.33943	0.93888
1423.28562	0.93937
1421.23182	0.93997
1419.17802	0.94045
1417.12421	0.94062
1415.07041	0.94055
1413.01661	0.94056
1410.96280	0.94096
1408.90900	0.94153
1406.85520	0.94176
1404.80139	0.94206
1402.74759	0.94294
1400.69379	0.94396
1398.63999	0.94452
1396.58618	0.94454
1394.53238	0.94419
1392.47858	0.94370
1390.42477	0.94346
1388.37097	0.94329
1386.31717	0.94260
1384.26336	0.94138
1382.20956	0.94035
1380.15576	0.93981
1378.10195	0.93929
1376.04815	0.93863
1373.99435	0.93801
1371.94054	0.93782
1369.88674	0.93825
1367.83294	0.93885
1365.77913	0.93929
1363.72533	0.93964
1361.67153	0.93983
1359.61772	0.93998
1357.56392	0.94050
1355.51012	0.94113
1353.45631	0.94134
1351.40251	0.94131
1349.34871	0.94144
1347.29491	0.94184
1345.24110	0.94231
1343.18730	0.94267
1341.13350	0.94287
1339.07969	0.94308
1337.02589	0.94330
1334.97209	0.94321
1332.91828	0.94280
1330.86448	0.94240
1328.81068	0.94211
1326.75687	0.94202
1324.70307	0.94230
1322.64927	0.94263
1320.59546	0.94265
1318.54166	0.94253
1316.48786	0.94236
1314.43405	0.94202
1312.38025	0.94186
1310.32645	0.94225
1308.27264	0.94275
1306.21884	0.94325
1304.16504	0.94384
1302.11123	0.94410
1300.05743	0.94424
1298.00363	0.94468
1295.94982	0.94508
1293.89602	0.94500
1291.84222	0.94449
1289.78842	0.94403
1287.73461	0.94420
1285.68081	0.94470
1283.62701	0.94469
1281.57320	0.94392
1279.51940	0.94292
1277.46560	0.94258
1275.41179	0.94306
1273.35799	0.94344
1271.30419	0.94316
1269.25038	0.94282
1267.19658	0.94283
1265.14278	0.94286
1263.08897	0.94285
1261.03517	0.94270
1258.98137	0.94209
1256.92756	0.94128
1254.87376	0.94067
1252.81996	0.93999
1250.76615	0.93887
1248.71235	0.93767
1246.65855	0.93693
1244.60474	0.93659
1242.55094	0.93624
1240.49714	0.93558
1238.44334	0.93460
1236.38953	0.93387
1234.33573	0.93359
1232.28193	0.93306
1230.22812	0.93202
1228.17432	0.93093
1226.12052	0.93022
1224.06671	0.92978
1222.01291	0.92915
1219.95911	0.92811
1217.90530	0.92669
1215.85150	0.92518
1213.79770	0.92383
1211.74389	0.92247
1209.69009	0.92091
1207.63629	0.91908
1205.58248	0.91680
1203.52868	0.91442
1201.47488	0.91243
1199.42107	0.91042
1197.36727	0.90779
1195.31347	0.90500
1193.25966	0.90266
1191.20586	0.90048
1189.15206	0.89815
1187.09825	0.89518
1185.04445	0.89118
1182.99065	0.88705
1180.93685	0.88395
1178.88304	0.88183
1176.82924	0.87982
1174.77544	0.87743
1172.72163	0.87498
1170.66783	0.87276
1168.61403	0.87032
1166.56022	0.86731
1164.50642	0.86451
1162.45262	0.86232
1160.39881	0.85999
1158.34501	0.85698
1156.29121	0.85365
1154.23740	0.85084
1152.18360	0.84931
1150.12980	0.84884
1148.07599	0.84818
1146.02219	0.84652
1143.96839	0.84434
1141.91458	0.84239
1139.86078	0.84104
1137.80698	0.83964
1135.75317	0.83716
1133.69937	0.83408
1131.64557	0.83133
1129.59176	0.82852
1127.53796	0.82480
1125.48416	0.82019
1123.43036	0.81513
1121.37655	0.80980
1119.32275	0.80454
1117.26895	0.79907
1115.21514	0.79284
1113.16134	0.78667
1111.10754	0.78142
1109.05373	0.77695
1106.99993	0.77284
1104.94613	0.76849
1102.89232	0.76391
1100.83852	0.76011
1098.78472	0.75740
1096.73091	0.75497
1094.67711	0.75208
1092.62331	0.74907
1090.56950	0.74687
1088.51570	0.74550
1086.46190	0.74404
1084.40809	0.74189
1082.35429	0.73929
1080.30049	0.73692
1078.24668	0.73492
1076.19288	0.73226
1074.13908	0.72838
1072.08528	0.72399
1070.03147	0.71984
1067.97767	0.71593
1065.92387	0.71173
1063.87006	0.70707
1061.81626	0.70200
1059.76246	0.69675
1057.70865	0.69160
1055.65485	0.68620
1053.60105	0.67978
1051.54724	0.67202
1049.49344	0.66323
1047.43964	0.65442
1045.38583	0.64623
1043.33203	0.63803
1041.27823	0.62905
1039.22442	0.61979
1037.17062	0.61077
1035.11682	0.60164
1033.06301	0.59246
1031.00921	0.58386
1028.95541	0.57697
1026.90160	0.57319
1024.84780	0.57276
1022.79400	0.57421
1020.74019	0.57526
1018.68639	0.57491
1016.63259	0.57395
1014.57879	0.57298
1012.52498	0.57139
1010.47118	0.56883
1008.41738	0.56588
1006.36357	0.56337
1004.30977	0.56226
1002.25597	0.56318
1000.20216	0.56615
998.14836	0.57064
996.09456	0.57577
994.04075	0.58138
991.98695	0.58790
989.93315	0.59486
987.87934	0.60144
985.82554	0.60793
983.77174	0.61516
981.71793	0.62343
979.66413	0.63211
977.61033	0.64095
975.55652	0.65084
973.50272	0.66139
971.44892	0.67092
969.39511	0.67898
967.34131	0.68621
965.28751	0.69364
963.23371	0.70194
961.17990	0.71069
959.12610	0.71883
957.07230	0.72589
955.01849	0.73223
952.96469	0.73791
950.91089	0.74296
948.85708	0.74737
946.80328	0.75066
944.74948	0.75336
942.69567	0.75639
940.64187	0.75974
938.58807	0.76272
936.53426	0.76522
934.48046	0.76812
932.42666	0.77154
930.37285	0.77450
928.31905	0.77627
926.26525	0.77670
924.21144	0.77609
922.15764	0.77515
920.10384	0.77365
918.05003	0.77071
915.99623	0.76662
913.94243	0.76242
911.88862	0.75965
909.83482	0.75952
907.78102	0.76201
905.72722	0.76704
903.67341	0.77438
901.61961	0.78347
899.56581	0.79365
897.51200	0.80352
895.45820	0.81164
893.40440	0.81808
891.35059	0.82366
889.29679	0.82855
887.24299	0.83280
885.18918	0.83644
883.13538	0.83914
881.08158	0.84137
879.02777	0.84397
876.97397	0.84690
874.92017	0.84943
872.86636	0.85131
870.81256	0.85395
868.75876	0.85798
866.70495	0.86171
864.65115	0.86410
862.59735	0.86582
860.54354	0.86774
858.48974	0.87062
856.43594	0.87431
854.38213	0.87690
852.32833	0.87729
850.27453	0.87678
848.22073	0.87691
846.16692	0.87761
844.11312	0.87778
842.05932	0.87699
840.00551	0.87620
837.95171	0.87690
835.89791	0.87905
833.84410	0.88051
831.79030	0.88013
829.73650	0.87924
827.68269	0.87915
825.62889	0.87944
823.57509	0.87928
821.52128	0.87885
819.46748	0.87874
817.41368	0.87938
815.35987	0.88040
813.30607	0.88039
811.25227	0.87846
809.19846	0.87507
807.14466	0.87098
805.09086	0.86587
803.03705	0.85984
800.98325	0.85471
798.92945	0.85226
796.87565	0.85273
794.82184	0.85449
792.76804	0.85504
790.71424	0.85368
788.66043	0.85173
786.60663	0.85031
784.55283	0.84930
782.49902	0.84738
780.44522	0.84356
778.39142	0.83936
776.33761	0.83668
774.28381	0.83430
772.23001	0.82934
770.17620	0.82111
768.12240	0.81105
766.06860	0.80048
764.01479	0.79015
761.96099	0.77994
759.90719	0.76995
757.85338	0.76174
755.79958	0.75693
753.74578	0.75562
751.69197	0.75594
749.63817	0.75606
747.58437	0.75688
745.53056	0.76250
743.47676	0.77479
741.42296	0.78947
739.36916	0.80227
737.31535	0.81317
735.26155	0.82335
733.20775	0.83302
731.15394	0.84110
729.10014	0.84590
727.04634	0.84789
724.99253	0.84994
722.93873	0.85344
720.88493	0.85705
718.83112	0.85885
716.77732	0.85906
714.72352	0.85846
712.66971	0.85496
710.61591	0.84540
708.56211	0.82639
706.50830	0.79437
704.45450	0.74915
702.40070	0.69344
700.34689	0.63067
698.29309	0.56949
696.23929	0.53084
694.18548	0.53862
692.13168	0.58960
690.07788	0.65111
688.02408	0.69724
685.97027	0.72559
683.91647	0.74316
681.86267	0.75595
679.80886	0.76594
677.75506	0.77249
675.70126	0.77620
673.64745	0.77896
671.59365	0.78171
669.53985	0.78485
667.48604	0.78867
665.43224	0.79107
663.37844	0.79254
661.32463	0.79509
659.27083	0.79837
657.21703	0.80013
655.16322	0.79932
653.10942	0.79680
651.05562	0.79449
649.00181	0.79367
646.94801	0.79384
644.89421	0.79426
642.84040	0.79545
640.78660	0.79747
638.73280	0.79901
636.67899	0.79998
634.62519	0.80034
632.57139	0.79912
630.51759	0.79755
628.46378	0.79734
626.40998	0.79768
624.35618	0.79660
622.30237	0.79390
620.24857	0.79173
618.19477	0.79089
616.14096	0.78890
614.08716	0.78492
612.03336	0.78074
609.97955	0.77732
607.92575	0.77529
605.87195	0.77423
603.81814	0.77211
601.76434	0.76789
599.71054	0.76359
597.65673	0.76104
595.60293	0.75879
593.54913	0.75509
591.49532	0.75026
589.44152	0.74678
587.38772	0.74547
585.33391	0.74482
583.28011	0.74329
581.22631	0.73958
579.17250	0.73485
577.11870	0.73194
575.06490	0.72992
573.01110	0.72498
570.95729	0.71770
568.90349	0.71052
566.84969	0.70437
564.79588	0.70095
562.74208	0.69863
560.68828	0.69213
558.63447	0.68225
556.58067	0.67503
554.52687	0.67052
552.47306	0.66339
550.41926	0.65203
548.36546	0.63908
546.31165	0.62751
544.25785	0.61729
542.20405	0.60644
540.15024	0.59438
538.09644	0.58240
536.04264	0.57497
533.98883	0.57482
531.93503	0.57777
529.88123	0.58023
527.82742	0.58323
525.77362	0.58907
523.71982	0.59772
521.66602	0.60629
519.61221	0.61307
517.55841	0.61834
515.50461	0.62453
513.45080	0.63195
511.39700	0.63719
509.34320	0.63995
507.28939	0.64374
505.23559	0.64975
503.18179	0.65451
501.12798	0.65559
499.07418	0.65439
497.02038	0.65303
494.96657	0.65288
492.91277	0.65225
490.85897	0.64846
488.80516	0.64095
486.75136	0.63141
484.69756	0.62233
482.64375	0.61339
480.58995	0.60146
478.53615	0.58451
476.48234	0.56594
474.42854	0.55026
472.37474	0.53566
470.32093	0.52068
468.26713	0.50841
466.21333	0.50214
464.15953	0.50344
462.10572	0.50950
460.05192	0.51594
457.99812	0.51894
455.94431	0.51833
453.89051	0.52062
451.83671	0.52823
449.78290	0.53462
447.72910	0.53620
445.67530	0.53839
443.62149	0.54275
441.56769	0.54631
439.51389	0.54731
437.46008	0.54304
435.40628	0.53342
433.35248	0.52452
431.29867	0.52236
429.24487	0.52472
427.19107	0.52600
425.13726	0.52298
423.08346	0.51637
421.02966	0.51680
418.97585	0.53333
416.92205	0.54620
414.86825	0.54277
412.81445	0.53935
410.76064	0.54689
408.70684	0.56251
406.65304	0.57553
404.59923	0.58038
402.54543	0.58199
400.49163	0.58722
398.43782	0.59229
