3996.71440	0.98119
3994.66059	0.98137
3992.60678	0.98160
3990.55297	0.98178
3988.49916	0.98194
3986.44535	0.98194
3984.39154	0.98181
3982.33773	0.98178
3980.28391	0.98165
3978.23010	0.98136
3976.17629	0.98126
3974.12248	0.98144
3972.06867	0.98179
3970.01486	0.98198
3967.96105	0.98200
3965.90724	0.98209
3963.85343	0.98212
3961.79962	0.98189
3959.74581	0.98177
3957.69200	0.98198
3955.63819	0.98202
3953.58438	0.98184
3951.53057	0.98190
3949.47676	0.98190
3947.42295	0.98174
3945.36914	0.98183
3943.31533	0.98187
3941.26152	0.98160
3939.20771	0.98143
3937.15390	0.98148
3935.10009	0.98169
3933.04628	0.98206
3930.99247	0.98230
3928.93866	0.98217
3926.88485	0.98205
3924.83104	0.98207
3922.77723	0.98190
3920.72342	0.98164
3918.66961	0.98155
3916.61580	0.98150
3914.56199	0.98148
3912.50818	0.98146
3910.45437	0.98139
3908.40056	0.98113
3906.34675	0.98078
3904.29294	0.98091
3902.23913	0.98133
3900.18532	0.98156
3898.13151	0.98171
3896.07770	0.98155
3894.02389	0.98114
3891.97008	0.98115
3889.91627	0.98165
3887.86246	0.98193
3885.80865	0.98191
3883.75484	0.98182
3881.70103	0.98173
3879.64722	0.98173
3877.59341	0.98185
3875.53960	0.98182
3873.48579	0.98165
3871.43198	0.98161
3869.37817	0.98189
3867.32436	0.98220
3865.27055	0.98221
3863.21674	0.98210
3861.16293	0.98217
3859.10912	0.98243
3857.05531	0.98265
3855.00150	0.98274
3852.94769	0.98276
3850.89388	0.98230
3848.84007	0.98171
3846.78626	0.98145
3844.73245	0.98146
3842.67864	0.98160
3840.62483	0.98182
3838.57102	0.98188
3836.51721	0.98201
3834.46340	0.98235
3832.40959	0.98239
3830.35578	0.98232
3828.30197	0.98256
3826.24816	0.98272
3824.19435	0.98225
3822.14054	0.98172
3820.08673	0.98213
3818.03292	0.98257
3815.97911	0.98235
3813.92530	0.98239
3811.87149	0.98273
3809.81768	0.98290
3807.76387	0.98296
3805.71006	0.98289
3803.65625	0.98244
3801.60244	0.98202
3799.54863	0.98216
3797.49482	0.98231
3795.44101	0.98230
3793.38720	0.98252
3791.33339	0.98270
3789.27958	0.98269
3787.22577	0.98253
3785.17196	0.98239
3783.11815	0.98265
3781.06434	0.98301
3779.01053	0.98307
3776.95672	0.98283
3774.90291	0.98242
3772.84910	0.98208
3770.79529	0.98195
3768.74148	0.98229
3766.68767	0.98300
3764.63386	0.98323
3762.58005	0.98288
3760.52624	0.98272
3758.47243	0.98317
3756.41862	0.98375
3754.36481	0.98389
3752.31100	0.98377
3750.25719	0.98389
3748.20338	0.98402
3746.14957	0.98386
3744.09576	0.98339
3742.04195	0.98308
3739.98814	0.98300
3737.93433	0.98295
3735.88052	0.98305
3733.82671	0.98330
3731.77290	0.98352
3729.71909	0.98352
3727.66528	0.98344
3725.61147	0.98341
3723.55766	0.98338
3721.50385	0.98359
3719.45004	0.98380
3717.39623	0.98367
3715.34242	0.98348
3713.28861	0.98335
3711.23480	0.98321
3709.18099	0.98301
3707.12718	0.98273
3705.07337	0.98246
3703.01956	0.98253
3700.96575	0.98288
3698.91194	0.98283
3696.85813	0.98236
3694.80432	0.98199
3692.75051	0.98188
3690.69670	0.98196
3688.64289	0.98226
3686.58907	0.98249
3684.53526	0.98240
3682.48145	0.98259
3680.42764	0.98297
3678.37383	0.98268
3676.32002	0.98216
3674.26621	0.98256
3672.21240	0.98311
3670.15859	0.98307
3668.10478	0.98278
3666.05097	0.98273
3663.99716	0.98274
3661.94335	0.98260
3659.88954	0.98237
3657.83573	0.98225
3655.78192	0.98215
3653.72811	0.98186
3651.67430	0.98161
3649.62049	0.98173
3647.56668	0.98169
3645.51287	0.98153
3643.45906	0.98167
3641.40525	0.98182
3639.35144	0.98177
3637.29763	0.98169
3635.24382	0.98168
3633.19001	0.98148
3631.13620	0.98101
3629.08239	0.98073
3627.02858	0.98076
3624.97477	0.98077
3622.92096	0.98069
3620.86715	0.98032
3618.81334	0.97976
3616.75953	0.97950
3614.70572	0.97948
3612.65191	0.97955
3610.59810	0.97957
3608.54429	0.97962
3606.49048	0.97977
3604.43667	0.97960
3602.38286	0.97931
3600.32905	0.97938
3598.27524	0.97944
3596.22143	0.97931
3594.16762	0.97907
3592.11381	0.97885
3590.06000	0.97882
3588.00619	0.97902
3585.95238	0.97941
3583.89857	0.97937
3581.84476	0.97896
3579.79095	0.97903
3577.73714	0.97946
3575.68333	0.97957
3573.62952	0.97947
3571.57571	0.97927
3569.52190	0.97876
3567.46809	0.97819
3565.41428	0.97798
3563.36047	0.97792
3561.30666	0.97760
3559.25285	0.97723
3557.19904	0.97747
3555.14523	0.97811
3553.09142	0.97828
3551.03761	0.97782
3548.98380	0.97720
3546.92999	0.97693
3544.87618	0.97701
3542.82237	0.97689
3540.76856	0.97665
3538.71475	0.97685
3536.66094	0.97731
3534.60713	0.97753
3532.55332	0.97743
3530.49951	0.97718
3528.44570	0.97693
3526.39189	0.97663
3524.33808	0.97652
3522.28427	0.97657
3520.23046	0.97632
3518.17665	0.97599
3516.12284	0.97606
3514.06903	0.97622
3512.01522	0.97603
3509.96141	0.97572
3507.90760	0.97555
3505.85379	0.97543
3503.79998	0.97545
3501.74617	0.97565
3499.69236	0.97554
3497.63855	0.97528
3495.58474	0.97523
3493.53093	0.97517
3491.47712	0.97484
3489.42331	0.97428
3487.36950	0.97413
3485.31569	0.97458
3483.26188	0.97477
3481.20807	0.97449
3479.15426	0.97430
3477.10045	0.97434
3475.04664	0.97437
3472.99283	0.97436
3470.93902	0.97446
3468.88521	0.97453
3466.83140	0.97435
3464.77759	0.97427
3462.72378	0.97427
3460.66997	0.97399
3458.61616	0.97373
3456.56235	0.97371
3454.50854	0.97391
3452.45473	0.97407
3450.40092	0.97377
3448.34711	0.97342
3446.29330	0.97361
3444.23949	0.97382
3442.18568	0.97368
3440.13187	0.97358
3438.07806	0.97358
3436.02425	0.97338
3433.97044	0.97295
3431.91663	0.97275
3429.86282	0.97288
3427.80901	0.97294
3425.75520	0.97307
3423.70139	0.97347
3421.64758	0.97371
3419.59377	0.97356
3417.53996	0.97331
3415.48615	0.97314
3413.43234	0.97327
3411.37853	0.97354
3409.32472	0.97354
3407.27091	0.97330
3405.21710	0.97309
3403.16329	0.97313
3401.10948	0.97322
3399.05567	0.97320
3397.00186	0.97311
3394.94805	0.97302
3392.89424	0.97292
3390.84042	0.97290
3388.78661	0.97319
3386.73280	0.97353
3384.67899	0.97357
3382.62518	0.97343
3380.57137	0.97330
3378.51756	0.97325
3376.46375	0.97336
3374.40994	0.97351
3372.35613	0.97357
3370.30232	0.97352
3368.24851	0.97337
3366.19470	0.97324
3364.14089	0.97325
3362.08708	0.97348
3360.03327	0.97356
3357.97946	0.97324
3355.92565	0.97286
3353.87184	0.97272
3351.81803	0.97284
3349.76422	0.97307
3347.71041	0.97339
3345.65660	0.97363
3343.60279	0.97351
3341.54898	0.97333
3339.49517	0.97332
3337.44136	0.97341
3335.38755	0.97343
3333.33374	0.97333
3331.27993	0.97344
3329.22612	0.97372
3327.17231	0.97379
3325.11850	0.97360
3323.06469	0.97352
3321.01088	0.97365
3318.95707	0.97364
3316.90326	0.97354
3314.84945	0.97378
3312.79564	0.97423
3310.74183	0.97439
3308.68802	0.97425
3306.63421	0.97416
3304.58040	0.97421
3302.52659	0.97437
3300.47278	0.97446
3298.41897	0.97426
3296.36516	0.97399
3294.31135	0.97388
3292.25754	0.97391
3290.20373	0.97408
3288.14992	0.97417
3286.09611	0.97407
3284.04230	0.97405
3281.98849	0.97409
3279.93468	0.97393
3277.88087	0.97370
3275.82706	0.97373
3273.77325	0.97400
3271.71944	0.97415
3269.66563	0.97419
3267.61182	0.97436
3265.55801	0.97454
3263.50420	0.97461
3261.45039	0.97463
3259.39658	0.97464
3257.34277	0.97465
3255.28896	0.97460
3253.23515	0.97443
3251.18134	0.97437
3249.12753	0.97462
3247.07372	0.97476
3245.01991	0.97455
3242.96610	0.97447
3240.91229	0.97470
3238.85848	0.97511
3236.80467	0.97536
3234.75086	0.97522
3232.69705	0.97510
3230.64324	0.97497
3228.58943	0.97480
3226.53562	0.97502
3224.48181	0.97538
3222.42800	0.97543
3220.37419	0.97531
3218.32038	0.97523
3216.26657	0.97526
3214.21276	0.97536
3212.15895	0.97545
3210.10514	0.97574
3208.05133	0.97602
3205.99752	0.97581
3203.94371	0.97557
3201.88990	0.97571
3199.83609	0.97601
3197.78228	0.97629
3195.72847	0.97643
3193.67466	0.97646
3191.62085	0.97644
3189.56704	0.97635
3187.51323	0.97615
3185.45942	0.97584
3183.40561	0.97581
3181.35180	0.97615
3179.29799	0.97648
3177.24418	0.97658
3175.19037	0.97658
3173.13656	0.97663
3171.08275	0.97683
3169.02894	0.97709
3166.97513	0.97720
3164.92132	0.97715
3162.86751	0.97705
3160.81370	0.97707
3158.75989	0.97714
3156.70608	0.97696
3154.65227	0.97678
3152.59846	0.97681
3150.54465	0.97703
3148.49084	0.97743
3146.43703	0.97772
3144.38322	0.97799
3142.32941	0.97847
3140.27560	0.97868
3138.22179	0.97836
3136.16798	0.97802
3134.11417	0.97792
3132.06036	0.97793
3130.00655	0.97791
3127.95274	0.97789
3125.89893	0.97790
3123.84512	0.97775
3121.79131	0.97754
3119.73750	0.97761
3117.68369	0.97782
3115.62988	0.97806
3113.57607	0.97831
3111.52226	0.97830
3109.46845	0.97807
3107.41464	0.97809
3105.36083	0.97843
3103.30702	0.97872
3101.25321	0.97870
3099.19940	0.97832
3097.14559	0.97770
3095.09177	0.97726
3093.03796	0.97728
3090.98415	0.97745
3088.93034	0.97744
3086.87653	0.97731
3084.82272	0.97715
3082.76891	0.97696
3080.71510	0.97706
3078.66129	0.97737
3076.60748	0.97745
3074.55367	0.97745
3072.49986	0.97755
3070.44605	0.97750
3068.39224	0.97724
3066.33843	0.97716
3064.28462	0.97744
3062.23081	0.97774
3060.17700	0.97772
3058.12319	0.97761
3056.06938	0.97769
3054.01557	0.97765
3051.96176	0.97739
3049.90795	0.97723
3047.85414	0.97719
3045.80033	0.97719
3043.74652	0.97727
3041.69271	0.97740
3039.63890	0.97743
3037.58509	0.97734
3035.53128	0.97725
3033.47747	0.97730
3031.42366	0.97739
3029.36985	0.97749
3027.31604	0.97764
3025.26223	0.97749
3023.20842	0.97707
3021.15461	0.97700
3019.10080	0.97723
3017.04699	0.97723
3014.99318	0.97692
3012.93937	0.97649
3010.88556	0.97618
3008.83175	0.97615
3006.77794	0.97627
3004.72413	0.97638
3002.67032	0.97655
3000.61651	0.97669
2998.56270	0.97650
2996.50889	0.97603
2994.45508	0.97556
2992.40127	0.97520
2990.34746	0.97471
2988.29365	0.97394
2986.23984	0.97308
2984.18603	0.97218
2982.13222	0.97136
2980.07841	0.97066
2978.02460	0.96964
2975.97079	0.96794
2973.91698	0.96558
2971.86317	0.96285
2969.80936	0.95993
2967.75555	0.95666
2965.70174	0.95309
2963.64793	0.94952
2961.59412	0.94604
2959.54031	0.94276
2957.48650	0.94003
2955.43269	0.93811
2953.37888	0.93675
2951.32507	0.93533
2949.27126	0.93351
2947.21745	0.93079
2945.16364	0.92611
2943.10983	0.91884
2941.05602	0.90912
2939.00221	0.89719
2936.94840	0.88313
2934.89459	0.86696
2932.84078	0.84838
2930.78697	0.82741
2928.73316	0.80412
2926.67935	0.77784
2924.62554	0.74762
2922.57173	0.71324
2920.51792	0.67652
2918.46411	0.64237
2916.41030	0.61927
2914.35649	0.61577
2912.30268	0.63241
2910.24887	0.66044
2908.19506	0.68994
2906.14125	0.71560
2904.08744	0.73620
2902.03363	0.75256
2899.97982	0.76607
2897.92601	0.77783
2895.87220	0.78860
2893.81839	0.79913
2891.76458	0.81000
2889.71077	0.82118
2887.65696	0.83254
2885.60315	0.84393
2883.54934	0.85479
2881.49553	0.86490
2879.44172	0.87440
2877.38791	0.88269
2875.33410	0.88896
2873.28029	0.89342
2871.22648	0.89637
2869.17267	0.89742
2867.11886	0.89623
2865.06505	0.89239
2863.01124	0.88470
2860.95743	0.87146
2858.90362	0.85128
2856.84981	0.82269
2854.79600	0.78381
2852.74219	0.73542
2850.68838	0.68640
2848.63457	0.65440
2846.58076	0.65409
2844.52695	0.68360
2842.47314	0.72808
2840.41933	0.77348
2838.36552	0.81253
2836.31171	0.84330
2834.25790	0.86663
2832.20409	0.88434
2830.15028	0.89808
2828.09647	0.90889
2826.04266	0.91734
2823.98885	0.92406
2821.93504	0.92965
2819.88123	0.93429
2817.82742	0.93797
2815.77361	0.94090
2813.71980	0.94351
2811.66599	0.94601
2809.61218	0.94824
2807.55837	0.95010
2805.50456	0.95158
2803.45075	0.95290
2801.39693	0.95423
2799.34312	0.95555
2797.28931	0.95688
2795.23550	0.95810
2793.18169	0.95917
2791.12788	0.96022
2789.07407	0.96117
2787.02026	0.96194
2784.96645	0.96270
2782.91264	0.96365
2780.85883	0.96476
2778.80502	0.96567
2776.75121	0.96612
2774.69740	0.96646
2772.64359	0.96705
2770.58978	0.96776
2768.53597	0.96839
2766.48216	0.96873
2764.42835	0.96877
2762.37454	0.96892
2760.32073	0.96930
2758.26692	0.96963
2756.21311	0.96980
2754.15930	0.97004
2752.10549	0.97037
2750.05168	0.97059
2747.99787	0.97070
2745.94406	0.97073
2743.89025	0.97071
2741.83644	0.97075
2739.78263	0.97092
2737.72882	0.97114
2735.67501	0.97126
2733.62120	0.97132
2731.56739	0.97142
2729.51358	0.97147
2727.45977	0.97158
2725.40596	0.97182
2723.35215	0.97193
2721.29834	0.97200
2719.24453	0.97232
2717.19072	0.97253
2715.13691	0.97247
2713.08310	0.97265
2711.02929	0.97309
2708.97548	0.97336
2706.92167	0.97346
2704.86786	0.97354
2702.81405	0.97363
2700.76024	0.97372
2698.70643	0.97381
2696.65262	0.97399
2694.59881	0.97421
2692.54500	0.97423
2690.49119	0.97409
2688.43738	0.97415
2686.38357	0.97432
2684.32976	0.97422
2682.27595	0.97404
2680.22214	0.97395
2678.16833	0.97381
2676.11452	0.97366
2674.06071	0.97370
2672.00690	0.97390
2669.95309	0.97393
2667.89928	0.97385
2665.84547	0.97384
2663.79166	0.97386
2661.73785	0.97387
2659.68404	0.97370
2657.63023	0.97355
2655.57642	0.97367
2653.52261	0.97390
2651.46880	0.97408
2649.41499	0.97418
2647.36118	0.97436
2645.30737	0.97459
2643.25356	0.97451
2641.19975	0.97429
2639.14594	0.97432
2637.09213	0.97446
2635.03832	0.97451
2632.98451	0.97451
2630.93070	0.97467
2628.87689	0.97498
2626.82308	0.97517
2624.76927	0.97528
2622.71546	0.97552
2620.66165	0.97579
2618.60784	0.97588
2616.55403	0.97595
2614.50022	0.97628
2612.44641	0.97655
2610.39260	0.97670
2608.33879	0.97692
2606.28498	0.97692
2604.23117	0.97682
2602.17736	0.97707
2600.12355	0.97750
2598.06974	0.97791
2596.01593	0.97823
2593.96212	0.97832
2591.90831	0.97856
2589.85450	0.97885
2587.80069	0.97873
2585.74688	0.97857
2583.69307	0.97885
2581.63926	0.97923
2579.58545	0.97931
2577.53164	0.97917
2575.47783	0.97908
2573.42402	0.97914
2571.37021	0.97926
2569.31640	0.97962
2567.26259	0.98009
2565.20878	0.98011
2563.15497	0.97976
2561.10116	0.97952
2559.04735	0.97954
2556.99354	0.97962
2554.93973	0.97986
2552.88592	0.98040
2550.83211	0.98102
2548.77830	0.98143
2546.72449	0.98138
2544.67068	0.98117
2542.61687	0.98096
2540.56306	0.98058
2538.50925	0.98067
2536.45544	0.98115
2534.40163	0.98122
2532.34782	0.98101
2530.29401	0.98076
2528.24020	0.98050
2526.18639	0.98048
2524.13258	0.98084
2522.07877	0.98123
2520.02496	0.98120
2517.97115	0.98084
2515.91734	0.98081
2513.86353	0.98114
2511.80972	0.98115
2509.75591	0.98080
2507.70210	0.98062
2505.64828	0.98082
2503.59447	0.98127
2501.54066	0.98162
2499.48685	0.98172
2497.43304	0.98197
2495.37923	0.98239
2493.32542	0.98251
2491.27161	0.98239
2489.21780	0.98241
2487.16399	0.98261
2485.11018	0.98278
2483.05637	0.98276
2481.00256	0.98267
2478.94875	0.98248
2476.89494	0.98225
2474.84113	0.98230
2472.78732	0.98261
2470.73351	0.98297
2468.67970	0.98310
2466.62589	0.98273
2464.57208	0.98243
2462.51827	0.98249
2460.46446	0.98255
2458.41065	0.98268
2456.35684	0.98287
2454.30303	0.98272
2452.24922	0.98259
2450.19541	0.98282
2448.14160	0.98294
2446.08779	0.98284
2444.03398	0.98282
2441.98017	0.98303
2439.92636	0.98319
2437.87255	0.98318
2435.81874	0.98319
2433.76493	0.98299
2431.71112	0.98265
2429.65731	0.98260
2427.60350	0.98281
2425.54969	0.98322
2423.49588	0.98336
2421.44207	0.98289
2419.38826	0.98242
2417.33445	0.98247
2415.28064	0.98280
2413.22683	0.98311
2411.17302	0.98332
2409.11921	0.98348
2407.06540	0.98350
2405.01159	0.98336
2402.95778	0.98316
2400.90397	0.98298
2398.85016	0.98299
2396.79635	0.98321
2394.74254	0.98341
2392.68873	0.98329
2390.63492	0.98300
2388.58111	0.98297
2386.52730	0.98333
2384.47349	0.98359
2382.41968	0.98329
2380.36587	0.98278
2378.31206	0.98255
2376.25825	0.98302
2374.20444	0.98412
2372.15063	0.98484
2370.09682	0.98457
2368.04301	0.98395
2365.98920	0.98352
2363.93539	0.98334
2361.88158	0.98340
2359.82777	0.98341
2357.77396	0.98329
2355.72015	0.98313
2353.66634	0.98296
2351.61253	0.98280
2349.55872	0.98251
2347.50491	0.98225
2345.45110	0.98249
2343.39729	0.98292
2341.34348	0.98282
2339.28967	0.98271
2337.23586	0.98301
2335.18205	0.98346
2333.12824	0.98352
2331.07443	0.98315
2329.02062	0.98268
2326.96681	0.98203
2324.91300	0.98162
2322.85919	0.98175
2320.80538	0.98193
2318.75157	0.98222
2316.69776	0.98261
2314.64395	0.98284
2312.59014	0.98270
2310.53633	0.98218
2308.48252	0.98194
2306.42871	0.98245
2304.37490	0.98315
2302.32109	0.98327
2300.26728	0.98325
2298.21347	0.98342
2296.15966	0.98308
2294.10585	0.98247
2292.05204	0.98243
2289.99823	0.98270
2287.94442	0.98283
2285.89061	0.98289
2283.83680	0.98276
2281.78299	0.98267
2279.72918	0.98327
2277.67537	0.98396
2275.62156	0.98383
2273.56775	0.98354
2271.51394	0.98394
2269.46013	0.98446
2267.40632	0.98457
2265.35251	0.98469
2263.29870	0.98463
2261.24489	0.98405
2259.19108	0.98367
2257.13727	0.98386
2255.08346	0.98411
2253.02965	0.98399
2250.97584	0.98370
2248.92203	0.98358
2246.86822	0.98372
2244.81441	0.98400
2242.76060	0.98421
2240.70679	0.98424
2238.65298	0.98410
2236.59917	0.98443
2234.54536	0.98507
2232.49155	0.98497
2230.43774	0.98468
2228.38393	0.98484
2226.33012	0.98484
2224.27631	0.98464
2222.22250	0.98499
2220.16869	0.98604
2218.11488	0.98702
2216.06107	0.98768
2214.00726	0.98762
2211.95344	0.98651
2209.89963	0.98578
2207.84582	0.98629
2205.79201	0.98713
2203.73820	0.98732
2201.68439	0.98741
2199.63058	0.98818
2197.57677	0.98855
2195.52296	0.98771
2193.46915	0.98637
2191.41534	0.98528
2189.36153	0.98455
2187.30772	0.98406
2185.25391	0.98383
2183.20010	0.98409
2181.14629	0.98518
2179.09248	0.98588
2177.03867	0.98522
2174.98486	0.98435
2172.93105	0.98444
2170.87724	0.98523
2168.82343	0.98547
2166.76962	0.98505
2164.71581	0.98479
2162.66200	0.98571
2160.60819	0.98774
2158.55438	0.98915
2156.50057	0.98955
2154.44676	0.98992
2152.39295	0.98954
2150.33914	0.98750
2148.28533	0.98587
2146.23152	0.98606
2144.17771	0.98653
2142.12390	0.98634
2140.07009	0.98644
2138.01628	0.98717
2135.96247	0.98738
2133.90866	0.98672
2131.85485	0.98615
2129.80104	0.98643
2127.74723	0.98703
2125.69342	0.98727
2123.63961	0.98728
2121.58580	0.98693
2119.53199	0.98623
2117.47818	0.98581
2115.42437	0.98565
2113.37056	0.98536
2111.31675	0.98493
2109.26294	0.98445
2107.20913	0.98438
2105.15532	0.98502
2103.10151	0.98567
2101.04770	0.98584
2098.99389	0.98580
2096.94008	0.98587
2094.88627	0.98612
2092.83246	0.98585
2090.77865	0.98505
2088.72484	0.98486
2086.67103	0.98513
2084.61722	0.98525
2082.56341	0.98525
2080.50960	0.98508
2078.45579	0.98524
2076.40198	0.98553
2074.34817	0.98538
2072.29436	0.98544
2070.24055	0.98523
2068.18674	0.98465
2066.13293	0.98515
2064.07912	0.98595
2062.02531	0.98649
2059.97150	0.98738
2057.91769	0.98782
2055.86388	0.98767
2053.81007	0.98732
2051.75626	0.98597
2049.70245	0.98410
2047.64864	0.98394
2045.59483	0.98532
2043.54102	0.98582
2041.48721	0.98517
2039.43340	0.98518
2037.37959	0.98690
2035.32578	0.98907
2033.27197	0.98922
2031.21816	0.98673
2029.16435	0.98379
2027.11054	0.98336
2025.05673	0.98614
2023.00292	0.98854
2020.94911	0.98796
2018.89530	0.98605
2016.84149	0.98441
2014.78768	0.98384
2012.73387	0.98517
2010.68006	0.98766
2008.62625	0.98954
2006.57244	0.98986
2004.51863	0.98910
2002.46482	0.98750
2000.41101	0.98515
1998.35720	0.98410
1996.30339	0.98525
1994.24958	0.98667
1992.19577	0.98678
1990.14196	0.98605
1988.08815	0.98587
1986.03434	0.98662
1983.98053	0.98735
1981.92672	0.98687
1979.87291	0.98624
1977.81910	0.98676
1975.76529	0.98719
1973.71148	0.98672
1971.65767	0.98559
1969.60386	0.98483
1967.55005	0.98582
1965.49624	0.98700
1963.44243	0.98665
1961.38862	0.98633
1959.33481	0.98691
1957.28100	0.98753
1955.22719	0.98751
1953.17338	0.98710
1951.11957	0.98705
1949.06576	0.98728
1947.01195	0.98755
1944.95814	0.98802
1942.90433	0.98809
1940.85052	0.98736
1938.79671	0.98685
1936.74290	0.98692
1934.68909	0.98669
1932.63528	0.98665
1930.58147	0.98732
1928.52766	0.98771
1926.47385	0.98785
1924.42004	0.98797
1922.36623	0.98756
1920.31242	0.98695
1918.25861	0.98667
1916.20479	0.98662
1914.15098	0.98651
1912.09717	0.98608
1910.04336	0.98572
1907.98955	0.98566
1905.93574	0.98559
1903.88193	0.98595
1901.82812	0.98677
1899.77431	0.98710
1897.72050	0.98674
1895.66669	0.98654
1893.61288	0.98672
1891.55907	0.98662
1889.50526	0.98639
1887.45145	0.98631
1885.39764	0.98644
1883.34383	0.98674
1881.29002	0.98689
1879.23621	0.98686
1877.18240	0.98658
1875.12859	0.98602
1873.07478	0.98577
1871.02097	0.98584
1868.96716	0.98588
1866.91335	0.98636
1864.85954	0.98721
1862.80573	0.98756
1860.75192	0.98728
1858.69811	0.98693
1856.64430	0.98678
1854.59049	0.98684
1852.53668	0.98702
1850.48287	0.98700
1848.42906	0.98655
1846.37525	0.98606
1844.32144	0.98586
1842.26763	0.98592
1840.21382	0.98590
1838.16001	0.98556
1836.10620	0.98527
1834.05239	0.98550
1831.99858	0.98583
1829.94477	0.98581
1827.89096	0.98562
1825.83715	0.98556
1823.78334	0.98554
1821.72953	0.98549
1819.67572	0.98523
1817.62191	0.98499
1815.56810	0.98495
1813.51429	0.98480
1811.46048	0.98439
1809.40667	0.98403
1807.35286	0.98383
1805.29905	0.98356
1803.24524	0.98332
1801.19143	0.98319
1799.13762	0.98301
1797.08381	0.98282
1795.03000	0.98249
1792.97619	0.98172
1790.92238	0.98098
1788.86857	0.98062
1786.81476	0.98019
1784.76095	0.97960
1782.70714	0.97911
1780.65333	0.97877
1778.59952	0.97856
1776.54571	0.97843
1774.49190	0.97820
1772.43809	0.97766
1770.38428	0.97706
1768.33047	0.97672
1766.27666	0.97659
1764.22285	0.97649
1762.16904	0.97616
1760.11523	0.97565
1758.06142	0.97520
1756.00761	0.97485
1753.95380	0.97447
1751.89999	0.97380
1749.84618	0.97267
1747.79237	0.97143
1745.73856	0.97052
1743.68475	0.96967
1741.63094	0.96875
1739.57713	0.96806
1737.52332	0.96749
1735.46951	0.96670
1733.41570	0.96575
1731.36189	0.96493
1729.30808	0.96385
1727.25427	0.96255
1725.20046	0.96118
1723.14665	0.95965
1721.09284	0.95821
1719.03903	0.95675
1716.98522	0.95505
1714.93141	0.95407
1712.87760	0.95395
1710.82379	0.95428
1708.76998	0.95501
1706.71617	0.95596
1704.66236	0.95688
1702.60855	0.95756
1700.55474	0.95812
1698.50093	0.95859
1696.44712	0.95902
1694.39331	0.95940
1692.33950	0.95950
1690.28569	0.95948
1688.23188	0.95941
1686.17807	0.95902
1684.12426	0.95813
1682.07045	0.95741
1680.01664	0.95692
1677.96283	0.95638
1675.90902	0.95583
1673.85521	0.95541
1671.80140	0.95513
1669.74759	0.95465
1667.69378	0.95402
1665.63997	0.95347
1663.58616	0.95283
1661.53235	0.95232
1659.47854	0.95221
1657.42473	0.95220
1655.37092	0.95217
1653.31711	0.95243
1651.26330	0.95277
1649.20949	0.95279
1647.15568	0.95271
1645.10187	0.95265
1643.04806	0.95265
1640.99425	0.95285
1638.94044	0.95310
1636.88663	0.95299
1634.83282	0.95246
1632.77901	0.95193
1630.72520	0.95149
1628.67139	0.95126
1626.61758	0.95124
1624.56377	0.95137
1622.50996	0.95158
1620.45614	0.95183
1618.40233	0.95245
1616.34852	0.95386
1614.29471	0.95541
1612.24090	0.95660
1610.18709	0.95788
1608.13328	0.95921
1606.07947	0.96025
1604.02566	0.96115
1601.97185	0.96214
1599.91804	0.96309
1597.86423	0.96386
1595.81042	0.96451
1593.75661	0.96500
1591.70280	0.96536
1589.64899	0.96579
1587.59518	0.96621
1585.54137	0.96657
1583.48756	0.96704
1581.43375	0.96748
1579.37994	0.96780
1577.32613	0.96831
1575.27232	0.96885
1573.21851	0.96901
1571.16470	0.96909
1569.11089	0.96945
1567.05708	0.97002
1565.00327	0.97050
1562.94946	0.97081
1560.89565	0.97103
1558.84184	0.97123
1556.78803	0.97153
1554.73422	0.97189
1552.68041	0.97226
1550.62660	0.97255
1548.57279	0.97274
1546.51898	0.97297
1544.46517	0.97318
1542.41136	0.97342
1540.35755	0.97402
1538.30374	0.97464
1536.24993	0.97485
1534.19612	0.97480
1532.14231	0.97478
1530.08850	0.97508
1528.03469	0.97554
1525.98088	0.97591
1523.92707	0.97609
1521.87326	0.97606
1519.81945	0.97597
1517.76564	0.97592
1515.71183	0.97613
1513.65802	0.97650
1511.60421	0.97666
1509.55040	0.97649
1507.49659	0.97620
1505.44278	0.97622
1503.38897	0.97632
1501.33516	0.97633
1499.28135	0.97609
1497.22754	0.97555
1495.17373	0.97510
1493.11992	0.97483
1491.06611	0.97436
1489.01230	0.97342
1486.95849	0.97207
1484.90468	0.97051
1482.85087	0.96837
1480.79706	0.96469
1478.74325	0.95673
1476.68944	0.93655
1474.63563	0.89850
1472.58182	0.86138
1470.52801	0.85238
1468.47420	0.85574
1466.42039	0.85156
1464.36658	0.83961
1462.31277	0.83836
1460.25896	0.85459
1458.20515	0.87880
1456.15134	0.89893
1454.09753	0.90998
1452.04372	0.91797
1449.98991	0.92462
1447.93610	0.92954
1445.88229	0.93302
1443.82848	0.93549
1441.77467	0.93757
1439.72086	0.93948
1437.66705	0.94164
1435.61324	0.94425
1433.55943	0.94667
1431.50562	0.94920
1429.45181	0.95209
1427.39800	0.95445
1425.34419	0.95602
1423.29038	0.95717
1421.23657	0.95776
1419.18276	0.95782
1417.12895	0.95792
1415.07514	0.95823
1413.02133	0.95860
1410.96752	0.95893
1408.91371	0.95923
1406.85990	0.95978
1404.80609	0.96063
1402.75228	0.96123
1400.69847	0.96156
1398.64466	0.96196
1396.59085	0.96231
1394.53704	0.96253
1392.48323	0.96263
1390.42942	0.96243
1388.37561	0.96182
1386.32180	0.96061
1384.26799	0.95863
1382.21418	0.95576
1380.16037	0.95230
1378.10656	0.94970
1376.05275	0.94924
1373.99894	0.95045
1371.94513	0.95166
1369.89132	0.95224
1367.83751	0.95271
1365.78370	0.95354
1363.72989	0.95485
1361.67608	0.95637
1359.62227	0.95738
1357.56846	0.95781
1355.51465	0.95805
1353.46084	0.95827
1351.40703	0.95861
1349.35322	0.95920
1347.29941	0.95998
1345.24560	0.96061
1343.19179	0.96077
1341.13798	0.96066
1339.08417	0.96096
1337.03036	0.96146
1334.97655	0.96131
1332.92274	0.96044
1330.86893	0.95929
1328.81512	0.95805
1326.76130	0.95684
1324.70749	0.95595
1322.65368	0.95519
1320.59987	0.95393
1318.54606	0.95240
1316.49225	0.95199
1314.43844	0.95330
1312.38463	0.95538
1310.33082	0.95717
1308.27701	0.95825
1306.22320	0.95879
1304.16939	0.95904
1302.11558	0.95923
1300.06177	0.95956
1298.00796	0.95980
1295.95415	0.95976
1293.90034	0.95970
1291.84653	0.95972
1289.79272	0.95968
1287.73891	0.95952
1285.68510	0.95940
1283.63129	0.95939
1281.57748	0.95925
1279.52367	0.95898
1277.46986	0.95869
1275.41605	0.95832
1273.36224	0.95792
1271.30843	0.95761
1269.25462	0.95743
1267.20081	0.95729
1265.14700	0.95691
1263.09319	0.95648
1261.03938	0.95621
1258.98557	0.95569
1256.93176	0.95493
1254.87795	0.95426
1252.82414	0.95363
1250.77033	0.95292
1248.71652	0.95202
1246.66271	0.95095
1244.60890	0.95014
1242.55509	0.94978
1240.50128	0.94962
1238.44747	0.94951
1236.39366	0.94934
1234.33985	0.94900
1232.28604	0.94844
1230.23223	0.94771
1228.17842	0.94692
1226.12461	0.94621
1224.07080	0.94545
1222.01699	0.94458
1219.96318	0.94371
1217.90937	0.94294
1215.85556	0.94240
1213.80175	0.94200
1211.74794	0.94166
1209.69413	0.94139
1207.64032	0.94112
1205.58651	0.94090
1203.53270	0.94068
1201.47889	0.94030
1199.42508	0.93991
1197.37127	0.93960
1195.31746	0.93936
1193.26365	0.93905
1191.20984	0.93859
1189.15603	0.93800
1187.10222	0.93705
1185.04841	0.93602
1182.99460	0.93533
1180.94079	0.93469
1178.88698	0.93386
1176.83317	0.93300
1174.77936	0.93227
1172.72555	0.93166
1170.67174	0.93124
1168.61793	0.93099
1166.56412	0.93061
1164.51031	0.93007
1162.45650	0.92972
1160.40269	0.92964
1158.34888	0.92961
1156.29507	0.92945
1154.24126	0.92905
1152.18745	0.92856
1150.13364	0.92813
1148.07983	0.92787
1146.02602	0.92763
1143.97221	0.92707
1141.91840	0.92641
1139.86459	0.92598
1137.81078	0.92564
1135.75697	0.92535
1133.70316	0.92525
1131.64935	0.92563
1129.59554	0.92641
1127.54173	0.92694
1125.48792	0.92719
1123.43411	0.92743
1121.38030	0.92757
1119.32649	0.92785
1117.27268	0.92806
1115.21887	0.92794
1113.16506	0.92775
1111.11125	0.92750
1109.05744	0.92711
1107.00363	0.92689
1104.94982	0.92714
1102.89601	0.92779
1100.84220	0.92857
1098.78839	0.92934
1096.73458	0.93037
1094.68077	0.93175
1092.62696	0.93296
1090.57315	0.93361
1088.51934	0.93374
1086.46553	0.93359
1084.41172	0.93349
1082.35791	0.93362
1080.30410	0.93408
1078.25029	0.93490
1076.19648	0.93605
1074.14267	0.93737
1072.08886	0.93851
1070.03505	0.93954
1067.98124	0.94050
1065.92743	0.94123
1063.87362	0.94196
1061.81981	0.94280
1059.76600	0.94347
1057.71219	0.94410
1055.65838	0.94481
1053.60457	0.94509
1051.55076	0.94465
1049.49695	0.94413
1047.44314	0.94398
1045.38933	0.94409
1043.33552	0.94444
1041.28171	0.94484
1039.22790	0.94528
1037.17409	0.94611
1035.12028	0.94706
1033.06647	0.94752
1031.01265	0.94763
1028.95884	0.94776
1026.90503	0.94797
1024.85122	0.94821
1022.79741	0.94858
1020.74360	0.94930
1018.68979	0.95011
1016.63598	0.95077
1014.58217	0.95151
1012.52836	0.95241
1010.47455	0.95318
1008.42074	0.95365
1006.36693	0.95403
1004.31312	0.95452
1002.25931	0.95500
1000.20550	0.95531
998.15169	0.95548
996.09788	0.95575
994.04407	0.95646
991.99026	0.95747
989.93645	0.95841
987.88264	0.95910
985.82883	0.95956
983.77502	0.96013
981.72121	0.96077
979.66740	0.96119
977.61359	0.96151
975.55978	0.96168
973.50597	0.96176
971.45216	0.96197
969.39835	0.96196
967.34454	0.96163
965.29073	0.96163
963.23692	0.96212
961.18311	0.96267
959.12930	0.96317
957.07549	0.96390
955.02168	0.96487
952.96787	0.96583
950.91406	0.96655
948.86025	0.96680
946.80644	0.96674
944.75263	0.96685
942.69882	0.96731
940.64501	0.96807
938.59120	0.96859
936.53739	0.96858
934.48358	0.96850
932.42977	0.96859
930.37596	0.96877
928.32215	0.96895
926.26834	0.96905
924.21453	0.96911
922.16072	0.96911
920.10691	0.96905
918.05310	0.96915
915.99929	0.96919
913.94548	0.96888
911.89167	0.96864
909.83786	0.96865
907.78405	0.96877
905.73024	0.96897
903.67643	0.96911
901.62262	0.96943
899.56881	0.97006
897.51500	0.97034
895.46119	0.97021
893.40738	0.97020
891.35357	0.97041
889.29976	0.97079
887.24595	0.97133
885.19214	0.97183
883.13833	0.97224
881.08452	0.97239
879.03071	0.97233
876.97690	0.97253
874.92309	0.97270
872.86928	0.97251
870.81547	0.97244
868.76166	0.97246
866.70785	0.97212
864.65404	0.97171
862.60023	0.97156
860.54642	0.97127
858.49261	0.97078
856.43880	0.97053
854.38499	0.97045
852.33118	0.97049
850.27737	0.97090
848.22356	0.97137
846.16975	0.97136
844.11594	0.97058
842.06213	0.96956
840.00832	0.96927
837.95451	0.96955
835.90070	0.96962
833.84689	0.96918
831.79308	0.96857
829.73927	0.96826
827.68546	0.96843
825.63165	0.96887
823.57784	0.96907
821.52403	0.96912
819.47022	0.96913
817.41641	0.96903
815.36260	0.96912
813.30879	0.96922
811.25498	0.96882
809.20117	0.96795
807.14736	0.96715
805.09355	0.96715
803.03974	0.96750
800.98593	0.96715
798.93212	0.96661
796.87831	0.96664
794.82450	0.96674
792.77069	0.96660
790.71688	0.96631
788.66307	0.96549
786.60926	0.96395
784.55545	0.96189
782.50164	0.96002
780.44783	0.95912
778.39402	0.95925
776.34021	0.96015
774.28640	0.96158
772.23259	0.96281
770.17878	0.96349
768.12497	0.96395
766.07116	0.96408
764.01735	0.96392
761.96354	0.96386
759.90973	0.96389
757.85592	0.96392
755.80211	0.96376
753.74830	0.96346
751.69449	0.96352
749.64068	0.96358
747.58687	0.96282
745.53306	0.96184
743.47925	0.96108
741.42544	0.95979
739.37163	0.95741
737.31781	0.95302
735.26400	0.94274
733.21019	0.91977
731.15638	0.88990
729.10257	0.87573
727.04876	0.88082
724.99495	0.88225
722.94114	0.86286
720.88733	0.82774
718.83352	0.80973
716.77971	0.83221
714.72590	0.87451
712.67209	0.90883
710.61828	0.92883
708.56447	0.93967
706.51066	0.94617
704.45685	0.95071
702.40304	0.95437
700.34923	0.95731
698.29542	0.95907
696.24161	0.95995
694.18780	0.96070
692.13399	0.96150
690.08018	0.96226
688.02637	0.96301
685.97256	0.96339
683.91875	0.96348
681.86494	0.96348
679.81113	0.96322
677.75732	0.96317
675.70351	0.96336
673.64970	0.96340
671.59589	0.96344
669.54208	0.96322
667.48827	0.96206
665.43446	0.96157
663.38065	0.96178
661.32684	0.96127
659.27303	0.96029
657.21922	0.95966
655.16541	0.95944
653.11160	0.95951
651.05779	0.95936
649.00398	0.95875
646.95017	0.95816
644.89636	0.95759
642.84255	0.95670
640.78874	0.95566
638.73493	0.95451
636.68112	0.95317
634.62731	0.95222
632.57350	0.95187
630.51969	0.95173
628.46588	0.95187
626.41207	0.95131
624.35826	0.94918
622.30445	0.94736
620.25064	0.94756
618.19683	0.94902
616.14302	0.95026
614.08921	0.95097
612.03540	0.95200
609.98159	0.95330
607.92778	0.95412
605.87397	0.95491
603.82016	0.95571
601.76635	0.95601
599.71254	0.95567
597.65873	0.95513
595.60492	0.95548
593.55111	0.95651
591.49730	0.95735
589.44349	0.95759
587.38968	0.95721
585.33587	0.95683
583.28206	0.95733
581.22825	0.95864
579.17444	0.95945
577.12063	0.95875
575.06682	0.95775
573.01301	0.95837
570.95920	0.95986
568.90539	0.96078
566.85158	0.96064
564.79777	0.95945
562.74396	0.95868
560.69015	0.95897
558.63634	0.95946
556.58253	0.96005
554.52872	0.95998
552.47491	0.95870
550.42110	0.95816
548.36729	0.95871
546.31348	0.95880
544.25967	0.95888
542.20586	0.95912
540.15205	0.95872
538.09824	0.95835
536.04443	0.95804
533.99062	0.95752
531.93681	0.95732
529.88300	0.95725
527.82919	0.95683
525.77538	0.95605
523.72157	0.95563
521.66776	0.95573
519.61395	0.95560
517.56014	0.95515
515.50633	0.95489
513.45252	0.95515
511.39871	0.95578
509.34490	0.95644
507.29109	0.95717
505.23728	0.95769
503.18347	0.95773
501.12966	0.95751
499.07585	0.95684
497.02204	0.95674
494.96823	0.95788
492.91442	0.95943
490.86061	0.95986
488.80680	0.95896
486.75299	0.95873
484.69918	0.95852
482.64537	0.95714
480.59156	0.95703
478.53775	0.95759
476.48394	0.95553
474.43013	0.95313
472.37632	0.95375
470.32251	0.95564
468.26870	0.95649
466.21489	0.95622
464.16108	0.95556
462.10727	0.95535
460.05346	0.95628
457.99965	0.95720
455.94584	0.95804
453.89203	0.96018
451.83822	0.96111
449.78441	0.96042
447.73060	0.96119
445.67679	0.96261
443.62298	0.96225
441.56916	0.95974
439.51535	0.95667
437.46154	0.95623
435.40773	0.95892
433.35392	0.96091
431.30011	0.96000
429.24630	0.95784
427.19249	0.95743
425.13868	0.95985
423.08487	0.96287
421.03106	0.96368
418.97725	0.96229
416.92344	0.96146
414.86963	0.96174
412.81582	0.96189
410.76201	0.96211
408.70820	0.96363
406.65439	0.96622
404.60058	0.96804
402.54677	0.96772
400.49296	0.96482
398.43915	0.96113
