3996.70104	0.95496
3994.64724	0.95456
3992.59344	0.95444
3990.53964	0.95477
3988.48583	0.95512
3986.43203	0.95541
3984.37823	0.95578
3982.32442	0.95570
3980.27062	0.95528
3978.21682	0.95539
3976.16301	0.95563
3974.10921	0.95524
3972.05541	0.95464
3970.00160	0.95475
3967.94780	0.95528
3965.89400	0.95518
3963.84019	0.95459
3961.78639	0.95448
3959.73259	0.95463
3957.67878	0.95440
3955.62498	0.95448
3953.57118	0.95488
3951.51737	0.95451
3949.46357	0.95414
3947.40977	0.95472
3945.35596	0.95502
3943.30216	0.95490
3941.24836	0.95501
3939.19455	0.95517
3937.14075	0.95529
3935.08695	0.95517
3933.03315	0.95500
3930.97934	0.95503
3928.92554	0.95492
3926.87174	0.95507
3924.81793	0.95557
3922.76413	0.95585
3920.71033	0.95589
3918.65652	0.95572
3916.60272	0.95519
3914.54892	0.95456
3912.49511	0.95421
3910.44131	0.95440
3908.38751	0.95474
3906.33370	0.95455
3904.27990	0.95420
3902.22610	0.95482
3900.17229	0.95563
3898.11849	0.95575
3896.06469	0.95540
3894.01088	0.95486
3891.95708	0.95453
3889.90328	0.95439
3887.84947	0.95409
3885.79567	0.95384
3883.74187	0.95429
3881.68807	0.95515
3879.63426	0.95543
3877.58046	0.95519
3875.52666	0.95525
3873.47285	0.95568
3871.41905	0.95623
3869.36525	0.95640
3867.31144	0.95550
3865.25764	0.95464
3863.20384	0.95464
3861.15003	0.95510
3859.09623	0.95522
3857.04243	0.95477
3854.98862	0.95428
3852.93482	0.95439
3850.88102	0.95495
3848.82721	0.95541
3846.77341	0.95564
3844.71961	0.95551
3842.66580	0.95504
3840.61200	0.95462
3838.55820	0.95457
3836.50439	0.95455
3834.45059	0.95439
3832.39679	0.95470
3830.34298	0.95571
3828.28918	0.95651
3826.23538	0.95633
3824.18158	0.95571
3822.12777	0.95560
3820.07397	0.95583
3818.02017	0.95571
3815.96636	0.95579
3813.91256	0.95601
3811.85876	0.95577
3809.80495	0.95570
3807.75115	0.95631
3805.69735	0.95682
3803.64354	0.95653
3801.58974	0.95642
3799.53594	0.95660
3797.48213	0.95630
3795.42833	0.95608
3793.37453	0.95625
3791.32072	0.95644
3789.26692	0.95645
3787.21312	0.95644
3785.15931	0.95626
3783.10551	0.95561
3781.05171	0.95502
3778.99790	0.95530
3776.94410	0.95591
3774.89030	0.95627
3772.83650	0.95657
3770.78269	0.95654
3768.72889	0.95655
3766.67509	0.95703
3764.62128	0.95686
3762.56748	0.95570
3760.51368	0.95538
3758.45987	0.95683
3756.40607	0.95801
3754.35227	0.95795
3752.29846	0.95771
3750.24466	0.95782
3748.19086	0.95784
3746.13705	0.95788
3744.08325	0.95797
3742.02945	0.95812
3739.97564	0.95838
3737.92184	0.95807
3735.86804	0.95685
3733.81423	0.95622
3731.76043	0.95714
3729.70663	0.95817
3727.65282	0.95806
3725.59902	0.95709
3723.54522	0.95625
3721.49141	0.95577
3719.43761	0.95548
3717.38381	0.95538
3715.33001	0.95555
3713.27620	0.95548
3711.22240	0.95397
3709.16860	0.95134
3707.11479	0.94939
3705.06099	0.94781
3703.00719	0.94533
3700.95338	0.94277
3698.89958	0.94190
3696.84578	0.94164
3694.79197	0.94143
3692.73817	0.94203
3690.68437	0.94291
3688.63056	0.94373
3686.57676	0.94492
3684.52296	0.94549
3682.46915	0.94520
3680.41535	0.94431
3678.36155	0.94291
3676.30774	0.94221
3674.25394	0.94272
3672.20014	0.94219
3670.14633	0.94153
3668.09253	0.94206
3666.03873	0.94177
3663.98492	0.94041
3661.93112	0.93983
3659.87732	0.94028
3657.82352	0.94004
3655.76971	0.93871
3653.71591	0.93752
3651.66211	0.93665
3649.60830	0.93592
3647.55450	0.93578
3645.50070	0.93574
3643.44689	0.93508
3641.39309	0.93386
3639.33929	0.93268
3637.28548	0.93222
3635.23168	0.93214
3633.17788	0.93194
3631.12407	0.93192
3629.07027	0.93166
3627.01647	0.93024
3624.96266	0.92903
3622.90886	0.92872
3620.85506	0.92857
3618.80125	0.92818
3616.74745	0.92810
3614.69365	0.92843
3612.63984	0.92915
3610.58604	0.92989
3608.53224	0.93029
3606.47844	0.93060
3604.42463	0.93110
3602.37083	0.93185
3600.31703	0.93244
3598.26322	0.93213
3596.20942	0.93115
3594.15562	0.93083
3592.10181	0.93133
3590.04801	0.93164
3587.99421	0.93173
3585.94040	0.93183
3583.88660	0.93149
3581.83280	0.93081
3579.77899	0.93039
3577.72519	0.93035
3575.67139	0.93031
3573.61758	0.93022
3571.56378	0.92993
3569.50998	0.92933
3567.45617	0.92937
3565.40237	0.92985
3563.34857	0.92961
3561.29476	0.92932
3559.24096	0.92906
3557.18716	0.92873
3555.13335	0.92873
3553.07955	0.92894
3551.02575	0.92920
3548.97195	0.92934
3546.91814	0.92909
3544.86434	0.92904
3542.81054	0.92959
3540.75673	0.92984
3538.70293	0.92920
3536.64913	0.92825
3534.59532	0.92763
3532.54152	0.92748
3530.48772	0.92786
3528.43391	0.92867
3526.38011	0.92944
3524.32631	0.92971
3522.27250	0.92919
3520.21870	0.92790
3518.16490	0.92673
3516.11109	0.92683
3514.05729	0.92782
3512.00349	0.92842
3509.94968	0.92819
3507.89588	0.92753
3505.84208	0.92725
3503.78827	0.92762
3501.73447	0.92801
3499.68067	0.92799
3497.62687	0.92788
3495.57306	0.92771
3493.51926	0.92717
3491.46546	0.92662
3489.41165	0.92658
3487.35785	0.92683
3485.30405	0.92692
3483.25024	0.92680
3481.19644	0.92663
3479.14264	0.92656
3477.08883	0.92666
3475.03503	0.92681
3472.98123	0.92668
3470.92742	0.92651
3468.87362	0.92655
3466.81982	0.92597
3464.76601	0.92478
3462.71221	0.92412
3460.65841	0.92412
3458.60460	0.92419
3456.55080	0.92422
3454.49700	0.92455
3452.44319	0.92475
3450.38939	0.92447
3448.33559	0.92406
3446.28178	0.92373
3444.22798	0.92362
3442.17418	0.92330
3440.12038	0.92290
3438.06657	0.92315
3436.01277	0.92357
3433.95897	0.92349
3431.90516	0.92324
3429.85136	0.92307
3427.79756	0.92292
3425.74375	0.92307
3423.68995	0.92341
3421.63615	0.92325
3419.58234	0.92243
3417.52854	0.92198
3415.47474	0.92232
3413.42093	0.92231
3411.36713	0.92172
3409.31333	0.92133
3407.25952	0.92143
3405.20572	0.92180
3403.15192	0.92178
3401.09811	0.92143
3399.04431	0.92145
3396.99051	0.92177
3394.93670	0.92178
3392.88290	0.92179
3390.82910	0.92186
3388.77529	0.92141
3386.72149	0.92098
3384.66769	0.92101
3382.61389	0.92113
3380.56008	0.92129
3378.50628	0.92140
3376.45248	0.92141
3374.39867	0.92159
3372.34487	0.92170
3370.29107	0.92162
3368.23726	0.92168
3366.18346	0.92188
3364.12966	0.92210
3362.07585	0.92203
3360.02205	0.92185
3357.96825	0.92223
3355.91444	0.92266
3353.86064	0.92242
3351.80684	0.92217
3349.75303	0.92209
3347.69923	0.92177
3345.64543	0.92168
3343.59162	0.92204
3341.53782	0.92239
3339.48402	0.92250
3337.43021	0.92252
3335.37641	0.92265
3333.32261	0.92290
3331.26881	0.92325
3329.21500	0.92347
3327.16120	0.92301
3325.10740	0.92219
3323.05359	0.92199
3320.99979	0.92235
3318.94599	0.92254
3316.89218	0.92259
3314.83838	0.92315
3312.78458	0.92369
3310.73077	0.92357
3308.67697	0.92352
3306.62317	0.92378
3304.56936	0.92397
3302.51556	0.92422
3300.46176	0.92456
3298.40795	0.92455
3296.35415	0.92420
3294.30035	0.92379
3292.24654	0.92373
3290.19274	0.92419
3288.13894	0.92434
3286.08513	0.92392
3284.03133	0.92366
3281.97753	0.92401
3279.92372	0.92454
3277.86992	0.92437
3275.81612	0.92377
3273.76232	0.92375
3271.70851	0.92448
3269.65471	0.92527
3267.60091	0.92553
3265.54710	0.92537
3263.49330	0.92504
3261.43950	0.92485
3259.38569	0.92501
3257.33189	0.92531
3255.27809	0.92564
3253.22428	0.92598
3251.17048	0.92610
3249.11668	0.92614
3247.06287	0.92605
3245.00907	0.92583
3242.95527	0.92599
3240.90146	0.92661
3238.84766	0.92716
3236.79386	0.92730
3234.74005	0.92684
3232.68625	0.92622
3230.63245	0.92632
3228.57864	0.92693
3226.52484	0.92722
3224.47104	0.92710
3222.41724	0.92704
3220.36343	0.92741
3218.30963	0.92775
3216.25583	0.92749
3214.20202	0.92758
3212.14822	0.92865
3210.09442	0.92934
3208.04061	0.92879
3205.98681	0.92825
3203.93301	0.92863
3201.87920	0.92921
3199.82540	0.92958
3197.77160	0.92978
3195.71779	0.92988
3193.66399	0.93019
3191.61019	0.93034
3189.55638	0.93010
3187.50258	0.93024
3185.44878	0.93074
3183.39497	0.93087
3181.34117	0.93078
3179.28737	0.93089
3177.23356	0.93105
3175.17976	0.93116
3173.12596	0.93165
3171.07215	0.93235
3169.01835	0.93280
3166.96455	0.93323
3164.91075	0.93366
3162.85694	0.93377
3160.80314	0.93357
3158.74934	0.93334
3156.69553	0.93334
3154.64173	0.93367
3152.58793	0.93430
3150.53412	0.93487
3148.48032	0.93507
3146.42652	0.93487
3144.37271	0.93422
3142.31891	0.93388
3140.26511	0.93424
3138.21130	0.93487
3136.15750	0.93545
3134.10370	0.93577
3132.04989	0.93576
3129.99609	0.93566
3127.94229	0.93594
3125.88848	0.93655
3123.83468	0.93675
3121.78088	0.93632
3119.72707	0.93601
3117.67327	0.93630
3115.61947	0.93666
3113.56566	0.93676
3111.51186	0.93673
3109.45806	0.93630
3107.40426	0.93561
3105.35045	0.93500
3103.29665	0.93456
3101.24285	0.93470
3099.18904	0.93513
3097.13524	0.93534
3095.08144	0.93540
3093.02763	0.93494
3090.97383	0.93372
3088.92003	0.93213
3086.86622	0.93036
3084.81242	0.92840
3082.75862	0.92685
3080.70481	0.92682
3078.65101	0.92822
3076.59721	0.92976
3074.54340	0.93079
3072.48960	0.93121
3070.43580	0.93105
3068.38199	0.93020
3066.32819	0.92849
3064.27439	0.92606
3062.22058	0.92348
3060.16678	0.92177
3058.11298	0.92183
3056.05918	0.92344
3054.00537	0.92582
3051.95157	0.92834
3049.89777	0.93027
3047.84396	0.93150
3045.79016	0.93261
3043.73636	0.93345
3041.68255	0.93355
3039.62875	0.93302
3037.57495	0.93173
3035.52114	0.92926
3033.46734	0.92556
3031.41354	0.92054
3029.35973	0.91429
3027.30593	0.90833
3025.25213	0.90508
3023.19832	0.90586
3021.14452	0.91018
3019.09072	0.91603
3017.03691	0.92149
3014.98311	0.92619
3012.92931	0.93006
3010.87550	0.93268
3008.82170	0.93383
3006.76790	0.93387
3004.71409	0.93341
3002.66029	0.93270
3000.60649	0.93229
2998.55269	0.93309
2996.49888	0.93481
2994.44508	0.93623
2992.39128	0.93723
2990.33747	0.93836
2988.28367	0.93925
2986.22987	0.93935
2984.17606	0.93939
2982.12226	0.94009
2980.06846	0.94067
2978.01465	0.94034
2975.96085	0.93951
2973.90705	0.93900
2971.85324	0.93910
2969.79944	0.93910
2967.74564	0.93839
2965.69183	0.93770
2963.63803	0.93729
2961.58423	0.93672
2959.53042	0.93616
2957.47662	0.93562
2955.42282	0.93503
2953.36901	0.93442
2951.31521	0.93363
2949.26141	0.93251
2947.20761	0.93108
2945.15380	0.92925
2943.10000	0.92694
2941.04620	0.92432
2938.99239	0.92149
2936.93859	0.91840
2934.88479	0.91507
2932.83098	0.91142
2930.77718	0.90752
2928.72338	0.90385
2926.66957	0.90072
2924.61577	0.89802
2922.56197	0.89590
2920.50816	0.89452
2918.45436	0.89387
2916.40056	0.89416
2914.34675	0.89538
2912.29295	0.89748
2910.23915	0.90038
2908.18534	0.90339
2906.13154	0.90574
2904.07774	0.90769
2902.02393	0.91000
2899.97013	0.91279
2897.91633	0.91560
2895.86252	0.91785
2893.80872	0.91948
2891.75492	0.92108
2889.70112	0.92279
2887.64731	0.92434
2885.59351	0.92548
2883.53971	0.92612
2881.48590	0.92679
2879.43210	0.92767
2877.37830	0.92853
2875.32449	0.92947
2873.27069	0.93037
2871.21689	0.93113
2869.16308	0.93169
2867.10928	0.93155
2865.05548	0.93076
2863.00167	0.92992
2860.94787	0.92902
2858.89407	0.92765
2856.84026	0.92586
2854.78646	0.92399
2852.73266	0.92236
2850.67885	0.92120
2848.62505	0.92087
2846.57125	0.92157
2844.51744	0.92307
2842.46364	0.92505
2840.40984	0.92750
2838.35603	0.93025
2836.30223	0.93266
2834.24843	0.93447
2832.19463	0.93600
2830.14082	0.93731
2828.08702	0.93820
2826.03322	0.93874
2823.97941	0.93932
2821.92561	0.94009
2819.87181	0.94084
2817.81800	0.94129
2815.76420	0.94129
2813.71040	0.94116
2811.65659	0.94136
2809.60279	0.94161
2807.54899	0.94158
2805.49518	0.94159
2803.44138	0.94185
2801.38758	0.94226
2799.33377	0.94260
2797.27997	0.94272
2795.22617	0.94249
2793.17236	0.94218
2791.11856	0.94213
2789.06476	0.94225
2787.01095	0.94244
2784.95715	0.94281
2782.90335	0.94318
2780.84955	0.94325
2778.79574	0.94339
2776.74194	0.94376
2774.68814	0.94409
2772.63433	0.94399
2770.58053	0.94340
2768.52673	0.94311
2766.47292	0.94359
2764.41912	0.94428
2762.36532	0.94447
2760.31151	0.94423
2758.25771	0.94431
2756.20391	0.94483
2754.15010	0.94516
2752.09630	0.94516
2750.04250	0.94515
2747.98869	0.94506
2745.93489	0.94493
2743.88109	0.94507
2741.82728	0.94527
2739.77348	0.94534
2737.71968	0.94543
2735.66587	0.94562
2733.61207	0.94572
2731.55827	0.94550
2729.50446	0.94511
2727.45066	0.94466
2725.39686	0.94427
2723.34306	0.94443
2721.28925	0.94514
2719.23545	0.94568
2717.18165	0.94566
2715.12784	0.94547
2713.07404	0.94537
2711.02024	0.94541
2708.96643	0.94558
2706.91263	0.94561
2704.85883	0.94553
2702.80502	0.94588
2700.75122	0.94656
2698.69742	0.94684
2696.64361	0.94657
2694.58981	0.94611
2692.53601	0.94587
2690.48220	0.94605
2688.42840	0.94648
2686.37460	0.94679
2684.32079	0.94684
2682.26699	0.94667
2680.21319	0.94642
2678.15938	0.94635
2676.10558	0.94630
2674.05178	0.94615
2671.99797	0.94617
2669.94417	0.94636
2667.89037	0.94647
2665.83657	0.94634
2663.78276	0.94594
2661.72896	0.94561
2659.67516	0.94565
2657.62135	0.94579
2655.56755	0.94575
2653.51375	0.94567
2651.45994	0.94561
2649.40614	0.94565
2647.35234	0.94611
2645.29853	0.94664
2643.24473	0.94673
2641.19093	0.94661
2639.13712	0.94652
2637.08332	0.94653
2635.02952	0.94658
2632.97571	0.94655
2630.92191	0.94655
2628.86811	0.94651
2626.81430	0.94645
2624.76050	0.94661
2622.70670	0.94704
2620.65289	0.94754
2618.59909	0.94781
2616.54529	0.94781
2614.49149	0.94759
2612.43768	0.94751
2610.38388	0.94775
2608.33008	0.94779
2606.27627	0.94760
2604.22247	0.94779
2602.16867	0.94826
2600.11486	0.94853
2598.06106	0.94832
2596.00726	0.94794
2593.95345	0.94816
2591.89965	0.94898
2589.84585	0.94958
2587.79204	0.94954
2585.73824	0.94911
2583.68444	0.94888
2581.63063	0.94891
2579.57683	0.94866
2577.52303	0.94843
2575.46922	0.94886
2573.41542	0.94917
2571.36162	0.94884
2569.30781	0.94846
2567.25401	0.94823
2565.20021	0.94863
2563.14640	0.94952
2561.09260	0.94966
2559.03880	0.94895
2556.98500	0.94830
2554.93119	0.94846
2552.87739	0.94932
2550.82359	0.94968
2548.76978	0.94916
2546.71598	0.94880
2544.66218	0.94918
2542.60837	0.94978
2540.55457	0.95013
2538.50077	0.95023
2536.44696	0.95014
2534.39316	0.94998
2532.33936	0.94983
2530.28555	0.94953
2528.23175	0.94929
2526.17795	0.94962
2524.12414	0.95011
2522.07034	0.95011
2520.01654	0.94984
2517.96273	0.94972
2515.90893	0.94985
2513.85513	0.95012
2511.80132	0.95044
2509.74752	0.95092
2507.69372	0.95143
2505.63992	0.95131
2503.58611	0.95062
2501.53231	0.95035
2499.47851	0.95038
2497.42470	0.94999
2495.37090	0.94983
2493.31710	0.95009
2491.26329	0.95011
2489.20949	0.95024
2487.15569	0.95092
2485.10188	0.95123
2483.04808	0.95081
2480.99428	0.95035
2478.94047	0.95018
2476.88667	0.95035
2474.83287	0.95065
2472.77906	0.95057
2470.72526	0.95056
2468.67146	0.95096
2466.61765	0.95127
2464.56385	0.95128
2462.51005	0.95121
2460.45624	0.95127
2458.40244	0.95135
2456.34864	0.95134
2454.29483	0.95134
2452.24103	0.95118
2450.18723	0.95079
2448.13343	0.95032
2446.07962	0.95018
2444.02582	0.95039
2441.97202	0.95022
2439.91821	0.94987
2437.86441	0.94988
2435.81061	0.94996
2433.75680	0.95017
2431.70300	0.95091
2429.64920	0.95145
2427.59539	0.95102
2425.54159	0.95056
2423.48779	0.95082
2421.43398	0.95130
2419.38018	0.95128
2417.32638	0.95073
2415.27257	0.95051
2413.21877	0.95093
2411.16497	0.95109
2409.11116	0.95068
2407.05736	0.95054
2405.00356	0.95070
2402.94975	0.95080
2400.89595	0.95134
2398.84215	0.95217
2396.78834	0.95231
2394.73454	0.95160
2392.68074	0.95067
2390.62694	0.95034
2388.57313	0.95084
2386.51933	0.95123
2384.46553	0.95096
2382.41172	0.95082
2380.35792	0.95117
2378.30412	0.95136
2376.25031	0.95103
2374.19651	0.95068
2372.14271	0.95075
2370.08890	0.95071
2368.03510	0.95048
2365.98130	0.95042
2363.92749	0.94994
2361.87369	0.94898
2359.81989	0.94877
2357.76608	0.94964
2355.71228	0.95060
2353.65848	0.95090
2351.60467	0.95073
2349.55087	0.95051
2347.49707	0.94997
2345.44326	0.94904
2343.38946	0.94869
2341.33566	0.94935
2339.28186	0.94999
2337.22805	0.95043
2335.17425	0.95096
2333.12045	0.95090
2331.06664	0.95014
2329.01284	0.94966
2326.95904	0.94923
2324.90523	0.94837
2322.85143	0.94824
2320.79763	0.94927
2318.74382	0.95012
2316.69002	0.95036
2314.63622	0.95045
2312.58241	0.95007
2310.52861	0.94931
2308.47481	0.94881
2306.42100	0.94862
2304.36720	0.94878
2302.31340	0.94959
2300.25959	0.95062
2298.20579	0.95097
2296.15199	0.95071
2294.09818	0.95037
2292.04438	0.94982
2289.99058	0.94933
2287.93677	0.94948
2285.88297	0.94993
2283.82917	0.95044
2281.77537	0.95106
2279.72156	0.95112
2277.66776	0.95020
2275.61396	0.94961
2273.56015	0.95013
2271.50635	0.95081
2269.45255	0.95129
2267.39874	0.95177
2265.34494	0.95252
2263.29114	0.95310
2261.23733	0.95305
2259.18353	0.95306
2257.12973	0.95304
2255.07592	0.95242
2253.02212	0.95177
2250.96832	0.95136
2248.91451	0.95127
2246.86071	0.95179
2244.80691	0.95217
2242.75310	0.95223
2240.69930	0.95298
2238.64550	0.95387
2236.59169	0.95360
2234.53789	0.95290
2232.48409	0.95265
2230.43029	0.95261
2228.37648	0.95261
2226.32268	0.95200
2224.26888	0.95090
2222.21507	0.95026
2220.16127	0.94979
2218.10747	0.94924
2216.05366	0.94946
2213.99986	0.95053
2211.94606	0.95109
2209.89225	0.95111
2207.83845	0.95158
2205.78465	0.95089
2203.73084	0.94903
2201.67704	0.94904
2199.62324	0.95050
2197.56943	0.95131
2195.51563	0.95123
2193.46183	0.95052
2191.40802	0.95090
2189.35422	0.95395
2187.30042	0.95654
2185.24661	0.95631
2183.19281	0.95657
2181.13901	0.95827
2179.08520	0.95849
2177.03140	0.95736
2174.97760	0.95694
2172.92380	0.95636
2170.86999	0.95433
2168.81619	0.95234
2166.76239	0.95168
2164.70858	0.95161
2162.65478	0.94997
2160.60098	0.94791
2158.54717	0.94974
2156.49337	0.95363
2154.43957	0.95750
2152.38576	0.96098
2150.33196	0.96071
2148.27816	0.95815
2146.22435	0.95734
2144.17055	0.95755
2142.11675	0.95764
2140.06294	0.95763
2138.00914	0.95696
2135.95534	0.95636
2133.90153	0.95619
2131.84773	0.95608
2129.79393	0.95542
2127.74012	0.95391
2125.68632	0.95274
2123.63252	0.95253
2121.57871	0.95289
2119.52491	0.95318
2117.47111	0.95308
2115.41731	0.95319
2113.36350	0.95375
2111.30970	0.95364
2109.25590	0.95276
2107.20209	0.95264
2105.14829	0.95337
2103.09449	0.95368
2101.04068	0.95327
2098.98688	0.95327
2096.93308	0.95426
2094.87927	0.95543
2092.82547	0.95562
2090.77167	0.95500
2088.71786	0.95428
2086.66406	0.95307
2084.61026	0.95210
2082.55645	0.95283
2080.50265	0.95409
2078.44885	0.95387
2076.39504	0.95336
2074.34124	0.95333
2072.28744	0.95201
2070.23363	0.95094
2068.17983	0.95169
2066.12603	0.95306
2064.07223	0.95503
2062.01842	0.95650
2059.96462	0.95585
2057.91082	0.95381
2055.85701	0.95246
2053.80321	0.95322
2051.74941	0.95401
2049.69560	0.95308
2047.64180	0.95147
2045.58800	0.95121
2043.53419	0.95313
2041.48039	0.95543
2039.42659	0.95760
2037.37278	0.95856
2035.31898	0.95760
2033.26518	0.95781
2031.21137	0.96002
2029.15757	0.96121
2027.10377	0.96006
2025.04996	0.95996
2022.99616	0.96126
2020.94236	0.96057
2018.88855	0.95866
2016.83475	0.95794
2014.78095	0.95840
2012.72714	0.95826
2010.67334	0.95769
2008.61954	0.95820
2006.56574	0.95894
2004.51193	0.95849
2002.45813	0.95684
2000.40433	0.95519
1998.35052	0.95476
1996.29672	0.95486
1994.24292	0.95388
1992.18911	0.95290
1990.13531	0.95268
1988.08151	0.95137
1986.02770	0.95042
1983.97390	0.95174
1981.92010	0.95227
1979.86629	0.95072
1977.81249	0.95154
1975.75869	0.95544
1973.70488	0.95710
1971.65108	0.95572
1969.59728	0.95527
1967.54347	0.95689
1965.48967	0.95723
1963.43587	0.95559
1961.38206	0.95397
1959.32826	0.95359
1957.27446	0.95458
1955.22066	0.95438
1953.16685	0.95254
1951.11305	0.95139
1949.05925	0.95187
1947.00544	0.95268
1944.95164	0.95133
1942.89784	0.94909
1940.84403	0.94954
1938.79023	0.95116
1936.73643	0.95116
1934.68262	0.95064
1932.62882	0.95138
1930.57502	0.95260
1928.52121	0.95305
1926.46741	0.95308
1924.41361	0.95387
1922.35980	0.95520
1920.30600	0.95556
1918.25220	0.95470
1916.19839	0.95379
1914.14459	0.95322
1912.09079	0.95291
1910.03698	0.95300
1907.98318	0.95267
1905.92938	0.95210
1903.87557	0.95240
1901.82177	0.95282
1899.76797	0.95276
1897.71417	0.95297
1895.66036	0.95282
1893.60656	0.95208
1891.55276	0.95192
1889.49895	0.95195
1887.44515	0.95163
1885.39135	0.95095
1883.33754	0.94978
1881.28374	0.94898
1879.22994	0.94942
1877.17613	0.95040
1875.12233	0.95048
1873.06853	0.94966
1871.01472	0.94899
1868.96092	0.94872
1866.90712	0.94857
1864.85331	0.94886
1862.79951	0.94951
1860.74571	0.94972
1858.69190	0.94972
1856.63810	0.95015
1854.58430	0.95092
1852.53049	0.95174
1850.47669	0.95208
1848.42289	0.95235
1846.36908	0.95315
1844.31528	0.95418
1842.26148	0.95434
1840.20768	0.95330
1838.15387	0.95239
1836.10007	0.95229
1834.04627	0.95201
1831.99246	0.95123
1829.93866	0.95090
1827.88486	0.95110
1825.83105	0.95113
1823.77725	0.95116
1821.72345	0.95125
1819.66964	0.95142
1817.61584	0.95139
1815.56204	0.95055
1813.50823	0.94928
1811.45443	0.94855
1809.40063	0.94869
1807.34682	0.94876
1805.29302	0.94794
1803.23922	0.94688
1801.18541	0.94693
1799.13161	0.94791
1797.07781	0.94833
1795.02400	0.94823
1792.97020	0.94863
1790.91640	0.94950
1788.86260	0.94995
1786.80879	0.95015
1784.75499	0.95033
1782.70119	0.95024
1780.64738	0.95026
1778.59358	0.95071
1776.53978	0.95075
1774.48597	0.95010
1772.43217	0.94952
1770.37837	0.94965
1768.32456	0.95015
1766.27076	0.95045
1764.21696	0.95029
1762.16315	0.94970
1760.10935	0.94921
1758.05555	0.94929
1756.00174	0.94924
1753.94794	0.94868
1751.89414	0.94798
1749.84033	0.94725
1747.78653	0.94679
1745.73273	0.94678
1743.67892	0.94675
1741.62512	0.94622
1739.57132	0.94549
1737.51751	0.94505
1735.46371	0.94468
1733.40991	0.94453
1731.35611	0.94489
1729.30230	0.94515
1727.24850	0.94511
1725.19470	0.94483
1723.14089	0.94458
1721.08709	0.94475
1719.03329	0.94519
1716.97948	0.94593
1714.92568	0.94665
1712.87188	0.94635
1710.81807	0.94542
1708.76427	0.94488
1706.71047	0.94480
1704.65666	0.94478
1702.60286	0.94472
1700.54906	0.94403
1698.49525	0.94233
1696.44145	0.94072
1694.38765	0.93976
1692.33384	0.93905
1690.28004	0.93795
1688.22624	0.93671
1686.17243	0.93602
1684.11863	0.93536
1682.06483	0.93394
1680.01103	0.93245
1677.95722	0.93107
1675.90342	0.92955
1673.84962	0.92799
1671.79581	0.92692
1669.74201	0.92629
1667.68821	0.92589
1665.63440	0.92524
1663.58060	0.92391
1661.52680	0.92243
1659.47299	0.92180
1657.41919	0.92176
1655.36539	0.92171
1653.31158	0.92137
1651.25778	0.92083
1649.20398	0.92027
1647.15017	0.91974
1645.09637	0.91969
1643.04257	0.91994
1640.98876	0.92009
1638.93496	0.92001
1636.88116	0.91951
1634.82735	0.91897
1632.77355	0.91872
1630.71975	0.91852
1628.66594	0.91838
1626.61214	0.91820
1624.55834	0.91808
1622.50454	0.91793
1620.45073	0.91757
1618.39693	0.91746
1616.34313	0.91754
1614.28932	0.91746
1612.23552	0.91723
1610.18172	0.91592
1608.12791	0.91214
1606.07411	0.90564
1604.02031	0.89754
1601.96650	0.89089
1599.91270	0.88976
1597.85890	0.89438
1595.80509	0.90123
1593.75129	0.90724
1591.69749	0.91137
1589.64368	0.91376
1587.58988	0.91441
1585.53608	0.91316
1583.48227	0.91177
1581.42847	0.91283
1579.37467	0.91570
1577.32086	0.91854
1575.26706	0.92124
1573.21326	0.92323
1571.15945	0.92435
1569.10565	0.92541
1567.05185	0.92656
1564.99805	0.92748
1562.94424	0.92825
1560.89044	0.92864
1558.83664	0.92828
1556.78283	0.92804
1554.72903	0.92819
1552.67523	0.92802
1550.62142	0.92761
1548.56762	0.92734
1546.51382	0.92718
1544.46001	0.92659
1542.40621	0.92557
1540.35241	0.92499
1538.29860	0.92543
1536.24480	0.92609
1534.19100	0.92691
1532.13719	0.92804
1530.08339	0.92878
1528.02959	0.92905
1525.97578	0.92931
1523.92198	0.92957
1521.86818	0.92954
1519.81437	0.92949
1517.76057	0.92946
1515.70677	0.92932
1513.65297	0.92919
1511.59916	0.92903
1509.54536	0.92883
1507.49156	0.92866
1505.43775	0.92830
1503.38395	0.92699
1501.33015	0.92425
1499.27634	0.91710
1497.22254	0.89717
1495.16874	0.86614
1493.11493	0.84499
1491.06113	0.84507
1489.00733	0.86538
1486.95352	0.88598
1484.89972	0.89747
1482.84592	0.90418
1480.79211	0.90835
1478.73831	0.91071
1476.68451	0.91213
1474.63070	0.91318
1472.57690	0.91393
1470.52310	0.91443
1468.46929	0.91490
1466.41549	0.91537
1464.36169	0.91547
1462.30788	0.91471
1460.25408	0.91240
1458.20028	0.90290
1456.14648	0.87629
1454.09267	0.84959
1452.03887	0.83615
1449.98507	0.83717
1447.93126	0.84844
1445.87746	0.86036
1443.82366	0.86962
1441.76985	0.87772
1439.71605	0.88414
1437.66225	0.88973
1435.60844	0.89577
1433.55464	0.90040
1431.50084	0.90372
1429.44703	0.90649
1427.39323	0.90859
1425.33943	0.91017
1423.28562	0.91111
1421.23182	0.91154
1419.17802	0.91231
1417.12421	0.91368
1415.07041	0.91512
1413.01661	0.91645
1410.96280	0.91771
1408.90900	0.91905
1406.85520	0.92057
1404.80139	0.92217
1402.74759	0.92351
1400.69379	0.92445
1398.63999	0.92497
1396.58618	0.92530
1394.53238	0.92574
1392.47858	0.92597
1390.42477	0.92581
1388.37097	0.92525
1386.31717	0.92417
1384.26336	0.92298
1382.20956	0.92208
1380.15576	0.92153
1378.10195	0.92105
1376.04815	0.92027
1373.99435	0.91951
1371.94054	0.91947
1369.88674	0.91990
1367.83294	0.92011
1365.77913	0.92015
1363.72533	0.92055
1361.67153	0.92155
1359.61772	0.92281
1357.56392	0.92382
1355.51012	0.92434
1353.45631	0.92449
1351.40251	0.92473
1349.34871	0.92524
1347.29491	0.92584
1345.24110	0.92635
1343.18730	0.92707
1341.13350	0.92805
1339.07969	0.92875
1337.02589	0.92901
1334.97209	0.92892
1332.91828	0.92841
1330.86448	0.92738
1328.81068	0.92614
1326.75687	0.92541
1324.70307	0.92536
1322.64927	0.92553
1320.59546	0.92578
1318.54166	0.92607
1316.48786	0.92627
1314.43405	0.92641
1312.38025	0.92644
1310.32645	0.92648
1308.27264	0.92695
1306.21884	0.92784
1304.16504	0.92880
1302.11123	0.92939
1300.05743	0.92953
1298.00363	0.92971
1295.94982	0.93011
1293.89602	0.93015
1291.84222	0.92994
1289.78842	0.93000
1287.73461	0.93002
1285.68081	0.92975
1283.62701	0.92924
1281.57320	0.92861
1279.51940	0.92796
1277.46560	0.92723
1275.41179	0.92663
1273.35799	0.92613
1271.30419	0.92557
1269.25038	0.92540
1267.19658	0.92601
1265.14278	0.92690
1263.08897	0.92737
1261.03517	0.92760
1258.98137	0.92791
1256.92756	0.92801
1254.87376	0.92788
1252.81996	0.92769
1250.76615	0.92758
1248.71235	0.92774
1246.65855	0.92772
1244.60474	0.92723
1242.55094	0.92673
1240.49714	0.92648
1238.44334	0.92664
1236.38953	0.92690
1234.33573	0.92652
1232.28193	0.92571
1230.22812	0.92520
1228.17432	0.92488
1226.12052	0.92429
1224.06671	0.92340
1222.01291	0.92250
1219.95911	0.92154
1217.90530	0.92037
1215.85150	0.91907
1213.79770	0.91749
1211.74389	0.91545
1209.69009	0.91313
1207.63629	0.91078
1205.58248	0.90861
1203.52868	0.90636
1201.47488	0.90385
1199.42107	0.90123
1197.36727	0.89829
1195.31347	0.89513
1193.25966	0.89213
1191.20586	0.88926
1189.15206	0.88615
1187.09825	0.88242
1185.04445	0.87806
1182.99065	0.87367
1180.93685	0.86995
1178.88304	0.86739
1176.82924	0.86586
1174.77544	0.86429
1172.72163	0.86224
1170.66783	0.85999
1168.61403	0.85759
1166.56022	0.85517
1164.50642	0.85275
1162.45262	0.85044
1160.39881	0.84829
1158.34501	0.84590
1156.29121	0.84300
1154.23740	0.84008
1152.18360	0.83830
1150.12980	0.83785
1148.07599	0.83746
1146.02219	0.83652
1143.96839	0.83520
1141.91458	0.83365
1139.86078	0.83202
1137.80698	0.83023
1135.75317	0.82822
1133.69937	0.82580
1131.64557	0.82277
1129.59176	0.81927
1127.53796	0.81541
1125.48416	0.81114
1123.43036	0.80615
1121.37655	0.80034
1119.32275	0.79404
1117.26895	0.78789
1115.21514	0.78186
1113.16134	0.77535
1111.10754	0.76874
1109.05373	0.76319
1106.99993	0.75907
1104.94613	0.75574
1102.89232	0.75233
1100.83852	0.74882
1098.78472	0.74565
1096.73091	0.74268
1094.67711	0.73972
1092.62331	0.73709
1090.56950	0.73484
1088.51570	0.73290
1086.46190	0.73126
1084.40809	0.72940
1082.35429	0.72701
1080.30049	0.72455
1078.24668	0.72198
1076.19288	0.71880
1074.13908	0.71501
1072.08528	0.71072
1070.03147	0.70645
1067.97767	0.70249
1065.92387	0.69839
1063.87006	0.69411
1061.81626	0.69015
1059.76246	0.68673
1057.70865	0.68307
1055.65485	0.67839
1053.60105	0.67273
1051.54724	0.66617
1049.49344	0.65911
1047.43964	0.65189
1045.38583	0.64410
1043.33203	0.63576
1041.27823	0.62713
1039.22442	0.61820
1037.17062	0.60897
1035.11682	0.59903
1033.06301	0.58809
1031.00921	0.57709
1028.95541	0.56767
1026.90160	0.56151
1024.84780	0.55893
1022.79400	0.55806
1020.74019	0.55724
1018.68639	0.55624
1016.63259	0.55505
1014.57879	0.55348
1012.52498	0.55156
1010.47118	0.54962
1008.41738	0.54764
1006.36357	0.54565
1004.30977	0.54402
1002.25597	0.54355
1000.20216	0.54496
998.14836	0.54808
996.09456	0.55214
994.04075	0.55664
991.98695	0.56132
989.93315	0.56604
987.87934	0.57110
985.82554	0.57680
983.77174	0.58333
981.71793	0.59094
979.66413	0.59946
977.61033	0.60882
975.55652	0.61926
973.50272	0.63041
971.44892	0.64133
969.39511	0.65129
967.34131	0.66005
965.28751	0.66825
963.23371	0.67685
961.17990	0.68564
959.12610	0.69415
957.07230	0.70216
955.01849	0.70927
952.96469	0.71541
950.91089	0.72066
948.85708	0.72501
946.80328	0.72882
944.74948	0.73223
942.69567	0.73535
940.64187	0.73899
938.58807	0.74312
936.53426	0.74687
934.48046	0.75039
932.42666	0.75427
930.37285	0.75823
928.31905	0.76165
926.26525	0.76440
924.21144	0.76619
922.15764	0.76668
920.10384	0.76646
918.05003	0.76570
915.99623	0.76352
913.94243	0.76003
911.88862	0.75667
909.83482	0.75450
907.78102	0.75424
905.72722	0.75733
903.67341	0.76459
901.61961	0.77470
899.56581	0.78555
897.51200	0.79547
895.45820	0.80350
893.40440	0.80991
891.35059	0.81555
889.29679	0.82054
887.24299	0.82453
885.18918	0.82750
883.13538	0.82972
881.08158	0.83139
879.02777	0.83236
876.97397	0.83334
874.92017	0.83568
872.86636	0.83930
870.81256	0.84321
868.75876	0.84657
866.70495	0.84909
864.65115	0.85139
862.59735	0.85408
860.54354	0.85714
858.48974	0.86033
856.43594	0.86324
854.38213	0.86541
852.32833	0.86682
850.27453	0.86774
848.22073	0.86812
846.16692	0.86738
844.11312	0.86545
842.05932	0.86391
840.00551	0.86373
837.95171	0.86395
835.89791	0.86416
833.84410	0.86461
831.79030	0.86506
829.73650	0.86533
827.68269	0.86544
825.62889	0.86585
823.57509	0.86690
821.52128	0.86798
819.46748	0.86892
817.41368	0.86997
815.35987	0.87058
813.30607	0.87063
811.25227	0.87015
809.19846	0.86792
807.14466	0.86304
805.09086	0.85661
803.03705	0.85042
800.98325	0.84558
798.92945	0.84320
796.87565	0.84367
794.82184	0.84534
792.76804	0.84627
790.71424	0.84612
788.66043	0.84530
786.60663	0.84380
784.55283	0.84100
782.49902	0.83656
780.44522	0.83185
778.39142	0.82832
776.33761	0.82510
774.28381	0.82003
772.23001	0.81174
770.17620	0.80061
768.12240	0.78786
766.06860	0.77432
764.01479	0.76062
761.96099	0.74661
759.90719	0.73241
757.85338	0.72035
755.79958	0.71248
753.74578	0.70868
751.69197	0.70787
749.63817	0.70812
747.58437	0.71005
745.53056	0.71708
743.47676	0.73043
741.42296	0.74837
739.36916	0.76744
737.31535	0.78457
735.26155	0.79943
733.20775	0.81253
731.15394	0.82300
729.10014	0.83045
727.04634	0.83576
724.99253	0.83993
722.93873	0.84385
720.88493	0.84846
718.83112	0.85280
716.77732	0.85461
714.72352	0.85347
712.66971	0.84916
710.61591	0.83928
708.56211	0.81866
706.50830	0.78189
704.45450	0.72792
702.40070	0.66088
700.34689	0.58583
698.29309	0.51051
696.23929	0.45447
694.18548	0.44529
692.13168	0.48992
690.07788	0.56074
688.02408	0.62380
685.97027	0.66697
683.91647	0.69512
681.86267	0.71462
679.80886	0.72832
677.75506	0.73791
675.70126	0.74513
673.64745	0.75036
671.59365	0.75392
669.53985	0.75770
667.48604	0.76257
665.43224	0.76657
663.37844	0.76958
661.32463	0.77127
659.27083	0.77207
657.21703	0.77342
655.16322	0.77372
653.10942	0.77223
651.05562	0.77092
649.00181	0.77114
646.94801	0.77298
644.89421	0.77557
642.84040	0.77752
640.78660	0.77852
638.73280	0.77959
636.67899	0.78106
634.62519	0.78307
632.57139	0.78567
630.51759	0.78754
628.46378	0.78749
626.40998	0.78593
624.35618	0.78412
622.30237	0.78216
620.24857	0.78042
618.19477	0.77981
616.14096	0.77892
614.08716	0.77597
612.03336	0.77236
609.97955	0.77050
607.92575	0.77026
605.87195	0.77012
603.81814	0.76897
601.76434	0.76521
599.71054	0.75914
597.65673	0.75360
595.60293	0.74970
593.54913	0.74751
591.49532	0.74676
589.44152	0.74578
587.38772	0.74394
585.33391	0.74220
583.28011	0.74088
581.22631	0.73881
579.17250	0.73543
577.11870	0.73164
575.06490	0.72771
573.01110	0.72428
570.95729	0.72039
568.90349	0.71342
566.84969	0.70431
564.79588	0.69551
562.74208	0.68788
560.68828	0.68121
558.63447	0.67433
556.58067	0.66645
554.52687	0.65816
552.47306	0.64978
550.41926	0.64067
548.36546	0.63014
546.31165	0.61757
544.25785	0.60369
542.20405	0.58936
540.15024	0.57555
538.09644	0.56428
536.04264	0.55642
533.98883	0.55280
531.93503	0.55408
529.88123	0.55893
527.82742	0.56645
525.77362	0.57527
523.71982	0.58262
521.66602	0.58932
519.61221	0.59654
517.55841	0.60350
515.50461	0.61087
513.45080	0.61893
511.39700	0.62546
509.34320	0.63066
507.28939	0.63662
505.23559	0.64142
503.18179	0.64412
501.12798	0.64633
499.07418	0.64680
497.02038	0.64573
494.96657	0.64550
492.91277	0.64431
490.85897	0.63971
488.80516	0.63218
486.75136	0.62138
484.69756	0.60728
482.64375	0.59208
480.58995	0.57850
478.53615	0.56595
476.48234	0.55293
474.42854	0.54020
472.37474	0.52869
470.32093	0.51917
468.26713	0.51144
466.21333	0.50643
464.15953	0.50597
462.10572	0.50834
460.05192	0.51284
457.99812	0.52126
455.94431	0.53153
453.89051	0.54157
451.83671	0.55045
449.78290	0.55699
447.72910	0.56358
445.67530	0.56873
443.62149	0.56771
441.56769	0.56291
439.51389	0.56027
437.46008	0.56013
435.40628	0.55900
433.35248	0.55547
431.29867	0.55126
429.24487	0.54692
427.19107	0.54502
425.13726	0.54871
423.08346	0.55474
421.02966	0.55981
418.97585	0.56689
416.92205	0.57289
414.86825	0.57517
412.81445	0.57775
410.76064	0.58192
408.70684	0.58884
406.65304	0.59618
404.59923	0.60023
402.54543	0.60194
400.49163	0.60163
398.43782	0.60052
