3996.70104	0.94238
3994.64724	0.94244
3992.59344	0.94241
3990.53964	0.94217
3988.48583	0.94197
3986.43203	0.94202
3984.37823	0.94233
3982.32442	0.94275
3980.27062	0.94294
3978.21682	0.94284
3976.16301	0.94297
3974.10921	0.94342
3972.05541	0.94363
3970.00160	0.94344
3967.94780	0.94278
3965.89400	0.94199
3963.84019	0.94205
3961.78639	0.94266
3959.73259	0.94287
3957.67878	0.94282
3955.62498	0.94285
3953.57118	0.94306
3951.51737	0.94330
3949.46357	0.94307
3947.40977	0.94270
3945.35596	0.94271
3943.30216	0.94280
3941.24836	0.94289
3939.19455	0.94345
3937.14075	0.94420
3935.08695	0.94453
3933.03315	0.94432
3930.97934	0.94414
3928.92554	0.94437
3926.87174	0.94469
3924.81793	0.94492
3922.76413	0.94481
3920.71033	0.94416
3918.65652	0.94331
3916.60272	0.94305
3914.54892	0.94350
3912.49511	0.94419
3910.44131	0.94488
3908.38751	0.94529
3906.33370	0.94522
3904.27990	0.94458
3902.22610	0.94364
3900.17229	0.94277
3898.11849	0.94226
3896.06469	0.94214
3894.01088	0.94244
3891.95708	0.94334
3889.90328	0.94443
3887.84947	0.94486
3885.79567	0.94430
3883.74187	0.94355
3881.68807	0.94362
3879.63426	0.94372
3877.58046	0.94363
3875.52666	0.94413
3873.47285	0.94457
3871.41905	0.94432
3869.36525	0.94427
3867.31144	0.94442
3865.25764	0.94407
3863.20384	0.94312
3861.15003	0.94247
3859.09623	0.94302
3857.04243	0.94467
3854.98862	0.94654
3852.93482	0.94642
3850.88102	0.94473
3848.82721	0.94410
3846.77341	0.94423
3844.71961	0.94435
3842.66580	0.94433
3840.61200	0.94448
3838.55820	0.94471
3836.50439	0.94480
3834.45059	0.94450
3832.39679	0.94371
3830.34298	0.94318
3828.28918	0.94348
3826.23538	0.94392
3824.18158	0.94410
3822.12777	0.94418
3820.07397	0.94447
3818.02017	0.94518
3815.96636	0.94546
3813.91256	0.94510
3811.85876	0.94466
3809.80495	0.94414
3807.75115	0.94356
3805.69735	0.94348
3803.64354	0.94394
3801.58974	0.94435
3799.53594	0.94454
3797.48213	0.94463
3795.42833	0.94467
3793.37453	0.94500
3791.32072	0.94531
3789.26692	0.94498
3787.21312	0.94442
3785.15931	0.94449
3783.10551	0.94506
3781.05171	0.94472
3778.99790	0.94359
3776.94410	0.94350
3774.89030	0.94419
3772.83650	0.94459
3770.78269	0.94491
3768.72889	0.94515
3766.67509	0.94469
3764.62128	0.94407
3762.56748	0.94426
3760.51368	0.94488
3758.45987	0.94492
3756.40607	0.94448
3754.35227	0.94467
3752.29846	0.94555
3750.24466	0.94609
3748.19086	0.94613
3746.13705	0.94591
3744.08325	0.94548
3742.02945	0.94546
3739.97564	0.94569
3737.92184	0.94606
3735.86804	0.94621
3733.81423	0.94579
3731.76043	0.94557
3729.70663	0.94535
3727.65282	0.94528
3725.59902	0.94589
3723.54522	0.94623
3721.49141	0.94561
3719.43761	0.94476
3717.38381	0.94393
3715.33001	0.94328
3713.27620	0.94286
3711.22240	0.94243
3709.16860	0.94241
3707.11479	0.94269
3705.06099	0.94227
3703.00719	0.94055
3700.95338	0.93819
3698.89958	0.93685
3696.84578	0.93696
3694.79197	0.93763
3692.73817	0.93820
3690.68437	0.93874
3688.63056	0.93927
3686.57676	0.93972
3684.52296	0.93952
3682.46915	0.93890
3680.41535	0.93879
3678.36155	0.93898
3676.30774	0.93834
3674.25394	0.93724
3672.20014	0.93688
3670.14633	0.93646
3668.09253	0.93617
3666.03873	0.93663
3663.98492	0.93677
3661.93112	0.93553
3659.87732	0.93388
3657.82352	0.93327
3655.76971	0.93315
3653.71591	0.93294
3651.66211	0.93272
3649.60830	0.93206
3647.55450	0.93103
3645.50070	0.93029
3643.44689	0.92981
3641.39309	0.92955
3639.33929	0.92923
3637.28548	0.92885
3635.23168	0.92859
3633.17788	0.92814
3631.12407	0.92758
3629.07027	0.92678
3627.01647	0.92573
3624.96266	0.92528
3622.90886	0.92513
3620.85506	0.92488
3618.80125	0.92469
3616.74745	0.92462
3614.69365	0.92492
3612.63984	0.92591
3610.58604	0.92704
3608.53224	0.92764
3606.47844	0.92760
3604.42463	0.92768
3602.37083	0.92822
3600.31703	0.92860
3598.26322	0.92875
3596.20942	0.92840
3594.15562	0.92719
3592.10181	0.92666
3590.04801	0.92721
3587.99421	0.92772
3585.94040	0.92771
3583.88660	0.92718
3581.83280	0.92666
3579.77899	0.92700
3577.72519	0.92784
3575.67139	0.92788
3573.61758	0.92691
3571.56378	0.92580
3569.50998	0.92553
3567.45617	0.92600
3565.40237	0.92584
3563.34857	0.92520
3561.29476	0.92503
3559.24096	0.92522
3557.18716	0.92523
3555.13335	0.92517
3553.07955	0.92481
3551.02575	0.92428
3548.97195	0.92439
3546.91814	0.92469
3544.86434	0.92442
3542.81054	0.92399
3540.75673	0.92365
3538.70293	0.92315
3536.64913	0.92312
3534.59532	0.92389
3532.54152	0.92445
3530.48772	0.92440
3528.43391	0.92422
3526.38011	0.92418
3524.32631	0.92404
3522.27250	0.92346
3520.21870	0.92313
3518.16490	0.92365
3516.11109	0.92392
3514.05729	0.92342
3512.00349	0.92299
3509.94968	0.92286
3507.89588	0.92291
3505.84208	0.92319
3503.78827	0.92333
3501.73447	0.92300
3499.68067	0.92245
3497.62687	0.92206
3495.57306	0.92219
3493.51926	0.92247
3491.46546	0.92213
3489.41165	0.92168
3487.35785	0.92149
3485.30405	0.92128
3483.25024	0.92123
3481.19644	0.92140
3479.14264	0.92146
3477.08883	0.92124
3475.03503	0.92103
3472.98123	0.92100
3470.92742	0.92070
3468.87362	0.92036
3466.81982	0.92016
3464.76601	0.91979
3462.71221	0.91952
3460.65841	0.91966
3458.60460	0.91996
3456.55080	0.91981
3454.49700	0.91906
3452.44319	0.91844
3450.38939	0.91847
3448.33559	0.91909
3446.28178	0.91980
3444.22798	0.91982
3442.17418	0.91909
3440.12038	0.91853
3438.06657	0.91835
3436.01277	0.91791
3433.95897	0.91750
3431.90516	0.91785
3429.85136	0.91832
3427.79756	0.91809
3425.74375	0.91764
3423.68995	0.91771
3421.63615	0.91814
3419.58234	0.91810
3417.52854	0.91754
3415.47474	0.91700
3413.42093	0.91683
3411.36713	0.91689
3409.31333	0.91648
3407.25952	0.91555
3405.20572	0.91516
3403.15192	0.91571
3401.09811	0.91626
3399.04431	0.91642
3396.99051	0.91662
3394.93670	0.91690
3392.88290	0.91703
3390.82910	0.91675
3388.77529	0.91633
3386.72149	0.91622
3384.66769	0.91611
3382.61389	0.91602
3380.56008	0.91629
3378.50628	0.91652
3376.45248	0.91651
3374.39867	0.91664
3372.34487	0.91688
3370.29107	0.91687
3368.23726	0.91683
3366.18346	0.91710
3364.12966	0.91742
3362.07585	0.91733
3360.02205	0.91692
3357.96825	0.91650
3355.91444	0.91642
3353.86064	0.91686
3351.80684	0.91746
3349.75303	0.91760
3347.69923	0.91691
3345.64543	0.91623
3343.59162	0.91636
3341.53782	0.91679
3339.48402	0.91691
3337.43021	0.91703
3335.37641	0.91753
3333.32261	0.91799
3331.26881	0.91814
3329.21500	0.91793
3327.16120	0.91738
3325.10740	0.91686
3323.05359	0.91684
3320.99979	0.91759
3318.94599	0.91871
3316.89218	0.91914
3314.83838	0.91893
3312.78458	0.91882
3310.73077	0.91875
3308.67697	0.91862
3306.62317	0.91869
3304.56936	0.91870
3302.51556	0.91830
3300.46176	0.91798
3298.40795	0.91819
3296.35415	0.91875
3294.30035	0.91919
3292.24654	0.91932
3290.19274	0.91915
3288.13894	0.91854
3286.08513	0.91841
3284.03133	0.91955
3281.97753	0.92060
3279.92372	0.92043
3277.86992	0.91973
3275.81612	0.91919
3273.76232	0.91922
3271.70851	0.91994
3269.65471	0.92065
3267.60091	0.92075
3265.54710	0.92060
3263.49330	0.92064
3261.43950	0.92070
3259.38569	0.92073
3257.33189	0.92089
3255.27809	0.92107
3253.22428	0.92116
3251.17048	0.92107
3249.11668	0.92092
3247.06287	0.92109
3245.00907	0.92125
3242.95527	0.92105
3240.90146	0.92124
3238.84766	0.92193
3236.79386	0.92216
3234.74005	0.92182
3232.68625	0.92161
3230.63245	0.92205
3228.57864	0.92281
3226.52484	0.92292
3224.47104	0.92237
3222.41724	0.92210
3220.36343	0.92227
3218.30963	0.92232
3216.25583	0.92220
3214.20202	0.92236
3212.14822	0.92283
3210.09442	0.92317
3208.04061	0.92333
3205.98681	0.92360
3203.93301	0.92378
3201.87920	0.92373
3199.82540	0.92371
3197.77160	0.92391
3195.71779	0.92418
3193.66399	0.92432
3191.61019	0.92423
3189.55638	0.92418
3187.50258	0.92468
3185.44878	0.92548
3183.39497	0.92607
3181.34117	0.92633
3179.28737	0.92627
3177.23356	0.92621
3175.17976	0.92634
3173.12596	0.92639
3171.07215	0.92633
3169.01835	0.92645
3166.96455	0.92670
3164.91075	0.92657
3162.85694	0.92636
3160.80314	0.92657
3158.74934	0.92681
3156.69553	0.92722
3154.64173	0.92813
3152.58793	0.92891
3150.53412	0.92893
3148.48032	0.92875
3146.42652	0.92903
3144.37271	0.92938
3142.31891	0.92935
3140.26511	0.92913
3138.21130	0.92903
3136.15750	0.92900
3134.10370	0.92910
3132.04989	0.92968
3129.99609	0.93041
3127.94229	0.93096
3125.88848	0.93156
3123.83468	0.93193
3121.78088	0.93150
3119.72707	0.93105
3117.67327	0.93170
3115.61947	0.93258
3113.56566	0.93228
3111.51186	0.93119
3109.45806	0.93071
3107.40426	0.93104
3105.35045	0.93089
3103.29665	0.92995
3101.24285	0.92939
3099.18904	0.92955
3097.13524	0.92985
3095.08144	0.93008
3093.02763	0.93006
3090.97383	0.92961
3088.92003	0.92870
3086.86622	0.92728
3084.81242	0.92577
3082.75862	0.92467
3080.70481	0.92430
3078.65101	0.92490
3076.59721	0.92588
3074.54340	0.92669
3072.48960	0.92747
3070.43580	0.92770
3068.38199	0.92688
3066.32819	0.92577
3064.27439	0.92457
3062.22058	0.92272
3060.16678	0.92087
3058.11298	0.92052
3056.05918	0.92184
3054.00537	0.92374
3051.95157	0.92542
3049.89777	0.92675
3047.84396	0.92786
3045.79016	0.92894
3043.73636	0.92989
3041.68255	0.93007
3039.62875	0.92931
3037.57495	0.92799
3035.52114	0.92617
3033.46734	0.92325
3031.41354	0.91879
3029.35973	0.91349
3027.30593	0.90869
3025.25213	0.90584
3023.19832	0.90635
3021.14452	0.91039
3019.09072	0.91580
3017.03691	0.92009
3014.98311	0.92305
3012.92931	0.92542
3010.87550	0.92707
3008.82170	0.92786
3006.76790	0.92820
3004.71409	0.92817
3002.66029	0.92771
3000.60649	0.92756
2998.55269	0.92836
2996.49888	0.92955
2994.44508	0.93061
2992.39128	0.93154
2990.33747	0.93214
2988.28367	0.93222
2986.22987	0.93231
2984.17606	0.93281
2982.12226	0.93338
2980.06846	0.93363
2978.01465	0.93370
2975.96085	0.93383
2973.90705	0.93387
2971.85324	0.93363
2969.79944	0.93320
2967.74564	0.93264
2965.69183	0.93235
2963.63803	0.93241
2961.58423	0.93207
2959.53042	0.93135
2957.47662	0.93072
2955.42282	0.93022
2953.36901	0.92973
2951.31521	0.92893
2949.26141	0.92793
2947.20761	0.92683
2945.15380	0.92538
2943.10000	0.92378
2941.04620	0.92197
2938.99239	0.91949
2936.93859	0.91671
2934.88479	0.91399
2932.83098	0.91086
2930.77718	0.90710
2928.72338	0.90320
2926.66957	0.89984
2924.61577	0.89712
2922.56197	0.89519
2920.50816	0.89440
2918.45436	0.89460
2916.40056	0.89545
2914.34675	0.89675
2912.29295	0.89865
2910.23915	0.90114
2908.18534	0.90377
2906.13154	0.90612
2904.07774	0.90829
2902.02393	0.91058
2899.97013	0.91275
2897.91633	0.91447
2895.86252	0.91587
2893.80872	0.91714
2891.75492	0.91871
2889.70112	0.92045
2887.64731	0.92135
2885.59351	0.92182
2883.53971	0.92268
2881.48590	0.92351
2879.43210	0.92426
2877.37830	0.92527
2875.32449	0.92615
2873.27069	0.92653
2871.21689	0.92675
2869.16308	0.92691
2867.10928	0.92668
2865.05548	0.92613
2863.00167	0.92550
2860.94787	0.92459
2858.89407	0.92334
2856.84026	0.92201
2854.78646	0.92067
2852.73266	0.91930
2850.67885	0.91806
2848.62505	0.91743
2846.57125	0.91801
2844.51744	0.91958
2842.46364	0.92157
2840.40984	0.92392
2838.35603	0.92629
2836.30223	0.92821
2834.24843	0.92973
2832.19463	0.93074
2830.14082	0.93126
2828.08702	0.93180
2826.03322	0.93238
2823.97941	0.93286
2821.92561	0.93331
2819.87181	0.93371
2817.81800	0.93424
2815.76420	0.93487
2813.71040	0.93512
2811.65659	0.93489
2809.60279	0.93466
2807.54899	0.93461
2805.49518	0.93484
2803.44138	0.93536
2801.38758	0.93573
2799.33377	0.93577
2797.27997	0.93577
2795.22617	0.93572
2793.17236	0.93562
2791.11856	0.93577
2789.06476	0.93597
2787.01095	0.93602
2784.95715	0.93618
2782.90335	0.93654
2780.84955	0.93686
2778.79574	0.93693
2776.74194	0.93689
2774.68814	0.93685
2772.63433	0.93680
2770.58053	0.93687
2768.52673	0.93715
2766.47292	0.93745
2764.41912	0.93767
2762.36532	0.93777
2760.31151	0.93771
2758.25771	0.93774
2756.20391	0.93781
2754.15010	0.93784
2752.09630	0.93819
2750.04250	0.93838
2747.98869	0.93822
2745.93489	0.93840
2743.88109	0.93838
2741.82728	0.93786
2739.77348	0.93766
2737.71968	0.93782
2735.66587	0.93792
2733.61207	0.93794
2731.55827	0.93800
2729.50446	0.93828
2727.45066	0.93871
2725.39686	0.93902
2723.34306	0.93908
2721.28925	0.93920
2719.23545	0.93944
2717.18165	0.93925
2715.12784	0.93883
2713.07404	0.93852
2711.02024	0.93819
2708.96643	0.93798
2706.91263	0.93793
2704.85883	0.93807
2702.80502	0.93845
2700.75122	0.93882
2698.69742	0.93888
2696.64361	0.93873
2694.58981	0.93881
2692.53601	0.93923
2690.48220	0.93958
2688.42840	0.93967
2686.37460	0.93975
2684.32079	0.93982
2682.26699	0.93984
2680.21319	0.93977
2678.15938	0.93933
2676.10558	0.93879
2674.05178	0.93879
2671.99797	0.93939
2669.94417	0.93999
2667.89037	0.94021
2665.83657	0.94008
2663.78276	0.93971
2661.72896	0.93937
2659.67516	0.93903
2657.62135	0.93882
2655.56755	0.93899
2653.51375	0.93942
2651.45994	0.93970
2649.40614	0.93966
2647.35234	0.93957
2645.29853	0.93954
2643.24473	0.93961
2641.19093	0.93989
2639.13712	0.94020
2637.08332	0.94030
2635.02952	0.94040
2632.97571	0.94061
2630.92191	0.94059
2628.86811	0.94043
2626.81430	0.94037
2624.76050	0.94034
2622.70670	0.94069
2620.65289	0.94145
2618.59909	0.94196
2616.54529	0.94210
2614.49149	0.94206
2612.43768	0.94143
2610.38388	0.94006
2608.33008	0.93920
2606.27627	0.93971
2604.22247	0.94052
2602.16867	0.94075
2600.11486	0.94090
2598.06106	0.94114
2596.00726	0.94100
2593.95345	0.94100
2591.89965	0.94143
2589.84585	0.94191
2587.79204	0.94209
2585.73824	0.94182
2583.68444	0.94157
2581.63063	0.94147
2579.57683	0.94145
2577.52303	0.94189
2575.46922	0.94260
2573.41542	0.94240
2571.36162	0.94145
2569.30781	0.94109
2567.25401	0.94123
2565.20021	0.94161
2563.14640	0.94247
2561.09260	0.94302
2559.03880	0.94283
2556.98500	0.94300
2554.93119	0.94362
2552.87739	0.94386
2550.82359	0.94377
2548.76978	0.94354
2546.71598	0.94318
2544.66218	0.94309
2542.60837	0.94343
2540.55457	0.94392
2538.50077	0.94397
2536.44696	0.94326
2534.39316	0.94285
2532.33936	0.94326
2530.28555	0.94358
2528.23175	0.94342
2526.17795	0.94302
2524.12414	0.94250
2522.07034	0.94234
2520.01654	0.94278
2517.96273	0.94302
2515.90893	0.94301
2513.85513	0.94318
2511.80132	0.94331
2509.74752	0.94359
2507.69372	0.94354
2505.63992	0.94270
2503.58611	0.94215
2501.53231	0.94225
2499.47851	0.94257
2497.42470	0.94298
2495.37090	0.94323
2493.31710	0.94294
2491.26329	0.94223
2489.20949	0.94224
2487.15569	0.94321
2485.10188	0.94415
2483.04808	0.94460
2480.99428	0.94459
2478.94047	0.94420
2476.88667	0.94379
2474.83287	0.94363
2472.77906	0.94362
2470.72526	0.94372
2468.67146	0.94404
2466.61765	0.94433
2464.56385	0.94428
2462.51005	0.94431
2460.45624	0.94459
2458.40244	0.94456
2456.34864	0.94430
2454.29483	0.94442
2452.24103	0.94465
2450.18723	0.94455
2448.13343	0.94432
2446.07962	0.94401
2444.02582	0.94356
2441.97202	0.94364
2439.91821	0.94425
2437.86441	0.94435
2435.81061	0.94415
2433.75680	0.94431
2431.70300	0.94465
2429.64920	0.94482
2427.59539	0.94466
2425.54159	0.94466
2423.48779	0.94490
2421.43398	0.94502
2419.38018	0.94467
2417.32638	0.94380
2415.27257	0.94342
2413.21877	0.94387
2411.16497	0.94435
2409.11116	0.94483
2407.05736	0.94550
2405.00356	0.94585
2402.94975	0.94577
2400.89595	0.94549
2398.84215	0.94517
2396.78834	0.94501
2394.73454	0.94515
2392.68074	0.94550
2390.62694	0.94568
2388.57313	0.94546
2386.51933	0.94516
2384.46553	0.94487
2382.41172	0.94454
2380.35792	0.94449
2378.30412	0.94478
2376.25031	0.94513
2374.19651	0.94535
2372.14271	0.94544
2370.08890	0.94539
2368.03510	0.94500
2365.98130	0.94431
2363.92749	0.94327
2361.87369	0.94199
2359.81989	0.94143
2357.76608	0.94229
2355.71228	0.94338
2353.65848	0.94331
2351.60467	0.94315
2349.55087	0.94399
2347.49707	0.94489
2345.44326	0.94482
2343.38946	0.94402
2341.33566	0.94329
2339.28186	0.94286
2337.22805	0.94268
2335.17425	0.94270
2333.12045	0.94239
2331.06664	0.94216
2329.01284	0.94331
2326.95904	0.94459
2324.90523	0.94436
2322.85143	0.94348
2320.79763	0.94296
2318.74382	0.94314
2316.69002	0.94403
2314.63622	0.94459
2312.58241	0.94430
2310.52861	0.94362
2308.47481	0.94299
2306.42100	0.94343
2304.36720	0.94480
2302.31340	0.94529
2300.25959	0.94499
2298.20579	0.94515
2296.15199	0.94544
2294.09818	0.94530
2292.04438	0.94484
2289.99058	0.94482
2287.93677	0.94560
2285.88297	0.94580
2283.82917	0.94513
2281.77537	0.94513
2279.72156	0.94612
2277.66776	0.94687
2275.61396	0.94685
2273.56015	0.94699
2271.50635	0.94750
2269.45255	0.94754
2267.39874	0.94721
2265.34494	0.94706
2263.29114	0.94721
2261.23733	0.94747
2259.18353	0.94689
2257.12973	0.94568
2255.07592	0.94520
2253.02212	0.94541
2250.96832	0.94545
2248.91451	0.94485
2246.86071	0.94487
2244.80691	0.94655
2242.75310	0.94775
2240.69930	0.94656
2238.64550	0.94518
2236.59169	0.94591
2234.53789	0.94734
2232.48409	0.94808
2230.43029	0.94783
2228.37648	0.94617
2226.32268	0.94482
2224.26888	0.94610
2222.21507	0.94856
2220.16127	0.94917
2218.10747	0.94769
2216.05366	0.94657
2213.99986	0.94752
2211.94606	0.94897
2209.89225	0.94822
2207.83845	0.94531
2205.78465	0.94364
2203.73084	0.94426
2201.67704	0.94444
2199.62324	0.94307
2197.56943	0.94261
2195.51563	0.94397
2193.46183	0.94423
2191.40802	0.94465
2189.35422	0.94734
2187.30042	0.94874
2185.24661	0.94808
2183.19281	0.94815
2181.13901	0.94799
2179.08520	0.94677
2177.03140	0.94725
2174.97760	0.94935
2172.92380	0.95008
2170.86999	0.94799
2168.81619	0.94372
2166.76239	0.94015
2164.70858	0.93985
2162.65478	0.94221
2160.60098	0.94678
2158.54717	0.95098
2156.49337	0.95013
2154.43957	0.94844
2152.38576	0.95000
2150.33196	0.95092
2148.27816	0.94968
2146.22435	0.94936
2144.17055	0.94934
2142.11675	0.94828
2140.06294	0.94871
2138.00914	0.95034
2135.95534	0.95135
2133.90153	0.95209
2131.84773	0.95205
2129.79393	0.95167
2127.74012	0.95192
2125.68632	0.95191
2123.63252	0.95120
2121.57871	0.95061
2119.52491	0.95045
2117.47111	0.95035
2115.41731	0.95004
2113.36350	0.94969
2111.30970	0.94971
2109.25590	0.94965
2107.20209	0.94929
2105.14829	0.94929
2103.09449	0.94922
2101.04068	0.94867
2098.98688	0.94794
2096.93308	0.94766
2094.87927	0.94858
2092.82547	0.94951
2090.77167	0.94923
2088.71786	0.94890
2086.66406	0.94900
2084.61026	0.94898
2082.55645	0.94926
2080.50265	0.94970
2078.44885	0.94936
2076.39504	0.94855
2074.34124	0.94864
2072.28744	0.94941
2070.23363	0.94985
2068.17983	0.95031
2066.12603	0.95096
2064.07223	0.95049
2062.01842	0.94879
2059.96462	0.94831
2057.91082	0.94900
2055.85701	0.94930
2053.80321	0.94992
2051.74941	0.95067
2049.69560	0.95119
2047.64180	0.95146
2045.58800	0.95041
2043.53419	0.94810
2041.48039	0.94557
2039.42659	0.94456
2037.37278	0.94693
2035.31898	0.95056
2033.26518	0.95101
2031.21137	0.94828
2029.15757	0.94628
2027.10377	0.94867
2025.04996	0.95380
2022.99616	0.95596
2020.94236	0.95559
2018.88855	0.95553
2016.83475	0.95262
2014.78095	0.94706
2012.72714	0.94449
2010.67334	0.94529
2008.61954	0.94700
2006.56574	0.95065
2004.51193	0.95428
2002.45813	0.95432
2000.40433	0.95433
1998.35052	0.95712
1996.29672	0.95842
1994.24292	0.95618
1992.18911	0.95461
1990.13531	0.95446
1988.08151	0.95233
1986.02770	0.95006
1983.97390	0.95085
1981.92010	0.95208
1979.86629	0.95089
1977.81249	0.94941
1975.75869	0.94907
1973.70488	0.94963
1971.65108	0.95178
1969.59728	0.95330
1967.54347	0.95085
1965.48967	0.94741
1963.43587	0.94687
1961.38206	0.94702
1959.32826	0.94684
1957.27446	0.94775
1955.22066	0.94894
1953.16685	0.94967
1951.11305	0.95062
1949.05925	0.95192
1947.00544	0.95206
1944.95164	0.94960
1942.89784	0.94710
1940.84403	0.94735
1938.79023	0.94855
1936.73643	0.94948
1934.68262	0.95020
1932.62882	0.95034
1930.57502	0.95032
1928.52121	0.95121
1926.46741	0.95186
1924.41361	0.95031
1922.35980	0.94847
1920.30600	0.94848
1918.25220	0.94916
1916.19839	0.94976
1914.14459	0.95077
1912.09079	0.95133
1910.03698	0.95042
1907.98318	0.94931
1905.92938	0.94940
1903.87557	0.95018
1901.82177	0.95059
1899.76797	0.95016
1897.71417	0.94971
1895.66036	0.95021
1893.60656	0.95074
1891.55276	0.95075
1889.49895	0.95082
1887.44515	0.95031
1885.39135	0.94907
1883.33754	0.94789
1881.28374	0.94740
1879.22994	0.94763
1877.17613	0.94789
1875.12233	0.94779
1873.06853	0.94755
1871.01472	0.94730
1868.96092	0.94725
1866.90712	0.94776
1864.85331	0.94878
1862.79951	0.94975
1860.74571	0.95015
1858.69190	0.95020
1856.63810	0.95035
1854.58430	0.95064
1852.53049	0.95099
1850.47669	0.95100
1848.42289	0.95035
1846.36908	0.94983
1844.31528	0.95025
1842.26148	0.95069
1840.20768	0.95060
1838.15387	0.95053
1836.10007	0.95086
1834.04627	0.95143
1831.99246	0.95173
1829.93866	0.95150
1827.88486	0.95099
1825.83105	0.95027
1823.77725	0.94936
1821.72345	0.94909
1819.66964	0.94965
1817.61584	0.95017
1815.56204	0.95031
1813.50823	0.95004
1811.45443	0.94917
1809.40063	0.94827
1807.34682	0.94793
1805.29302	0.94775
1803.23922	0.94743
1801.18541	0.94751
1799.13161	0.94833
1797.07781	0.94874
1795.02400	0.94847
1792.97020	0.94859
1790.91640	0.94946
1788.86260	0.95008
1786.80879	0.95044
1784.75499	0.95093
1782.70119	0.95109
1780.64738	0.95075
1778.59358	0.95029
1776.53978	0.95009
1774.48597	0.95018
1772.43217	0.95036
1770.37837	0.95027
1768.32456	0.95015
1766.27076	0.95036
1764.21696	0.95046
1762.16315	0.95026
1760.10935	0.95000
1758.05555	0.94966
1756.00174	0.94906
1753.94794	0.94848
1751.89414	0.94790
1749.84033	0.94719
1747.78653	0.94667
1745.73273	0.94643
1743.67892	0.94642
1741.62512	0.94649
1739.57132	0.94640
1737.51751	0.94630
1735.46371	0.94615
1733.40991	0.94567
1731.35611	0.94555
1729.30230	0.94570
1727.24850	0.94565
1725.19470	0.94558
1723.14089	0.94573
1721.08709	0.94604
1719.03329	0.94616
1716.97948	0.94571
1714.92568	0.94531
1712.87188	0.94557
1710.81807	0.94605
1708.76427	0.94639
1706.71047	0.94657
1704.65666	0.94650
1702.60286	0.94604
1700.54906	0.94508
1698.49525	0.94371
1696.44145	0.94262
1694.38765	0.94205
1692.33384	0.94166
1690.28004	0.94106
1688.22624	0.94054
1686.17243	0.94003
1684.11863	0.93886
1682.06483	0.93774
1680.01103	0.93688
1677.95722	0.93613
1675.90342	0.93553
1673.84962	0.93469
1671.79581	0.93366
1669.74201	0.93248
1667.68821	0.93131
1665.63440	0.93054
1663.58060	0.92990
1661.52680	0.92927
1659.47299	0.92895
1657.41919	0.92893
1655.36539	0.92896
1653.31158	0.92861
1651.25778	0.92833
1649.20398	0.92880
1647.15017	0.92913
1645.09637	0.92860
1643.04257	0.92840
1640.98876	0.92861
1638.93496	0.92824
1636.88116	0.92743
1634.82735	0.92729
1632.77355	0.92728
1630.71975	0.92724
1628.66594	0.92780
1626.61214	0.92860
1624.55834	0.92888
1622.50454	0.92883
1620.45073	0.92887
1618.39693	0.92895
1616.34313	0.92896
1614.28932	0.92897
1612.23552	0.92871
1610.18172	0.92754
1608.12791	0.92468
1606.07411	0.91960
1604.02031	0.91309
1601.96650	0.90804
1599.91270	0.90774
1597.85890	0.91193
1595.80509	0.91757
1593.75129	0.92207
1591.69749	0.92495
1589.64368	0.92648
1587.58988	0.92639
1585.53608	0.92508
1583.48227	0.92407
1581.42847	0.92481
1579.37467	0.92693
1577.32086	0.92937
1575.26706	0.93173
1573.21326	0.93323
1571.15945	0.93412
1569.10565	0.93503
1567.05185	0.93572
1564.99805	0.93597
1562.94424	0.93606
1560.89044	0.93650
1558.83664	0.93765
1556.78283	0.93786
1554.72903	0.93716
1552.67523	0.93635
1550.62142	0.93577
1548.56762	0.93567
1546.51382	0.93591
1544.46001	0.93607
1542.40621	0.93608
1540.35241	0.93632
1538.29860	0.93655
1536.24480	0.93659
1534.19100	0.93682
1532.13719	0.93733
1530.08339	0.93766
1528.02959	0.93783
1525.97578	0.93823
1523.92198	0.93897
1521.86818	0.93951
1519.81437	0.93948
1517.76057	0.93925
1515.70677	0.93900
1513.65297	0.93894
1511.59916	0.93911
1509.54536	0.93929
1507.49156	0.93920
1505.43775	0.93873
1503.38395	0.93768
1501.33015	0.93546
1499.27634	0.92945
1497.22254	0.91251
1495.16874	0.88625
1493.11493	0.86911
1491.06113	0.87069
1489.00733	0.88933
1486.95352	0.90694
1484.89972	0.91583
1482.84592	0.92065
1480.79211	0.92375
1478.73831	0.92559
1476.68451	0.92638
1474.63070	0.92652
1472.57690	0.92659
1470.52310	0.92679
1468.46929	0.92701
1466.41549	0.92733
1464.36169	0.92744
1462.30788	0.92695
1460.25408	0.92562
1458.20028	0.91830
1456.14648	0.89503
1454.09267	0.87187
1452.03887	0.86171
1449.98507	0.86456
1447.93126	0.87538
1445.87746	0.88583
1443.82366	0.89338
1441.76985	0.89957
1439.71605	0.90479
1437.66225	0.90958
1435.60844	0.91419
1433.55464	0.91757
1431.50084	0.92020
1429.44703	0.92248
1427.39323	0.92424
1425.33943	0.92545
1423.28562	0.92603
1421.23182	0.92620
1419.17802	0.92657
1417.12421	0.92756
1415.07041	0.92896
1413.01661	0.93032
1410.96280	0.93135
1408.90900	0.93220
1406.85520	0.93307
1404.80139	0.93400
1402.74759	0.93479
1400.69379	0.93561
1398.63999	0.93658
1396.58618	0.93722
1394.53238	0.93758
1392.47858	0.93783
1390.42477	0.93766
1388.37097	0.93702
1386.31717	0.93636
1384.26336	0.93578
1382.20956	0.93481
1380.15576	0.93357
1378.10195	0.93265
1376.04815	0.93209
1373.99435	0.93185
1371.94054	0.93183
1369.88674	0.93168
1367.83294	0.93149
1365.77913	0.93171
1363.72533	0.93237
1361.67153	0.93311
1359.61772	0.93376
1357.56392	0.93454
1355.51012	0.93538
1353.45631	0.93597
1351.40251	0.93646
1349.34871	0.93693
1347.29491	0.93716
1345.24110	0.93729
1343.18730	0.93749
1341.13350	0.93785
1339.07969	0.93842
1337.02589	0.93873
1334.97209	0.93852
1332.91828	0.93806
1330.86448	0.93739
1328.81068	0.93673
1326.75687	0.93666
1324.70307	0.93706
1322.64927	0.93731
1320.59546	0.93742
1318.54166	0.93763
1316.48786	0.93778
1314.43405	0.93777
1312.38025	0.93770
1310.32645	0.93776
1308.27264	0.93818
1306.21884	0.93889
1304.16504	0.93952
1302.11123	0.93994
1300.05743	0.94014
1298.00363	0.94029
1295.94982	0.94057
1293.89602	0.94082
1291.84222	0.94085
1289.78842	0.94062
1287.73461	0.94014
1285.68081	0.93973
1283.62701	0.93983
1281.57320	0.94002
1279.51940	0.93958
1277.46560	0.93898
1275.41179	0.93894
1273.35799	0.93921
1271.30419	0.93923
1269.25038	0.93899
1267.19658	0.93868
1265.14278	0.93826
1263.08897	0.93801
1261.03517	0.93824
1258.98137	0.93858
1256.92756	0.93855
1254.87376	0.93840
1252.81996	0.93859
1250.76615	0.93884
1248.71235	0.93882
1246.65855	0.93860
1244.60474	0.93834
1242.55094	0.93819
1240.49714	0.93807
1238.44334	0.93796
1236.38953	0.93758
1234.33573	0.93686
1232.28193	0.93641
1230.22812	0.93623
1228.17432	0.93589
1226.12052	0.93560
1224.06671	0.93546
1222.01291	0.93491
1219.95911	0.93355
1217.90530	0.93197
1215.85150	0.93066
1213.79770	0.92924
1211.74389	0.92750
1209.69009	0.92564
1207.63629	0.92352
1205.58248	0.92132
1203.52868	0.91946
1201.47488	0.91750
1199.42107	0.91496
1197.36727	0.91213
1195.31347	0.90958
1193.25966	0.90754
1191.20586	0.90553
1189.15206	0.90300
1187.09825	0.89992
1185.04445	0.89628
1182.99065	0.89256
1180.93685	0.88949
1178.88304	0.88717
1176.82924	0.88547
1174.77544	0.88434
1172.72163	0.88324
1170.66783	0.88163
1168.61403	0.87969
1166.56022	0.87765
1164.50642	0.87562
1162.45262	0.87369
1160.39881	0.87162
1158.34501	0.86898
1156.29121	0.86588
1154.23740	0.86351
1152.18360	0.86246
1150.12980	0.86219
1148.07599	0.86229
1146.02219	0.86228
1143.96839	0.86158
1141.91458	0.86021
1139.86078	0.85881
1137.80698	0.85762
1135.75317	0.85627
1133.69937	0.85425
1131.64557	0.85124
1129.59176	0.84766
1127.53796	0.84424
1125.48416	0.84082
1123.43036	0.83699
1121.37655	0.83270
1119.32275	0.82744
1117.26895	0.82166
1115.21514	0.81648
1113.16134	0.81170
1111.10754	0.80691
1109.05373	0.80252
1106.99993	0.79852
1104.94613	0.79462
1102.89232	0.79106
1100.83852	0.78778
1098.78472	0.78464
1096.73091	0.78209
1094.67711	0.77993
1092.62331	0.77761
1090.56950	0.77530
1088.51570	0.77340
1086.46190	0.77180
1084.40809	0.76989
1082.35429	0.76724
1080.30049	0.76435
1078.24668	0.76158
1076.19288	0.75845
1074.13908	0.75482
1072.08528	0.75100
1070.03147	0.74690
1067.97767	0.74280
1065.92387	0.73938
1063.87006	0.73644
1061.81626	0.73344
1059.76246	0.72987
1057.70865	0.72552
1055.65485	0.72069
1053.60105	0.71550
1051.54724	0.70964
1049.49344	0.70281
1047.43964	0.69526
1045.38583	0.68749
1043.33203	0.67980
1041.27823	0.67191
1039.22442	0.66334
1037.17062	0.65425
1035.11682	0.64455
1033.06301	0.63400
1031.00921	0.62345
1028.95541	0.61441
1026.90160	0.60818
1024.84780	0.60503
1022.79400	0.60393
1020.74019	0.60345
1018.68639	0.60236
1016.63259	0.60068
1014.57879	0.59921
1012.52498	0.59762
1010.47118	0.59561
1008.41738	0.59390
1006.36357	0.59285
1004.30977	0.59247
1002.25597	0.59342
1000.20216	0.59582
998.14836	0.59894
996.09456	0.60273
994.04075	0.60748
991.98695	0.61277
989.93315	0.61828
987.87934	0.62431
985.82554	0.63090
983.77174	0.63814
981.71793	0.64612
979.66413	0.65471
977.61033	0.66444
975.55652	0.67534
973.50272	0.68643
971.44892	0.69705
969.39511	0.70704
967.34131	0.71637
965.28751	0.72538
963.23371	0.73432
961.17990	0.74297
959.12610	0.75124
957.07230	0.75879
955.01849	0.76504
952.96469	0.77029
950.91089	0.77520
948.85708	0.77974
946.80328	0.78324
944.74948	0.78582
942.69567	0.78863
940.64187	0.79228
938.58807	0.79611
936.53426	0.79960
934.48046	0.80341
932.42666	0.80730
930.37285	0.81036
928.31905	0.81292
926.26525	0.81505
924.21144	0.81606
922.15764	0.81604
920.10384	0.81581
918.05003	0.81516
915.99623	0.81321
913.94243	0.81061
911.88862	0.80860
909.83482	0.80756
907.78102	0.80807
905.72722	0.81121
903.67341	0.81743
901.61961	0.82592
899.56581	0.83535
897.51200	0.84430
895.45820	0.85130
893.40440	0.85643
891.35059	0.86097
889.29679	0.86499
887.24299	0.86784
885.18918	0.86925
883.13538	0.87020
881.08158	0.87188
879.02777	0.87383
876.97397	0.87530
874.92017	0.87678
872.86636	0.87924
870.81256	0.88227
868.75876	0.88481
866.70495	0.88681
864.65115	0.88845
862.59735	0.88996
860.54354	0.89193
858.48974	0.89389
856.43594	0.89563
854.38213	0.89740
852.32833	0.89864
850.27453	0.89918
848.22073	0.89885
846.16692	0.89762
844.11312	0.89636
842.05932	0.89503
840.00551	0.89367
837.95171	0.89308
835.89791	0.89305
833.84410	0.89312
831.79030	0.89339
829.73650	0.89388
827.68269	0.89439
825.62889	0.89475
823.57509	0.89496
821.52128	0.89512
819.46748	0.89591
817.41368	0.89723
815.35987	0.89789
813.30607	0.89745
811.25227	0.89533
809.19846	0.89166
807.14466	0.88751
805.09086	0.88250
803.03705	0.87746
800.98325	0.87477
798.92945	0.87456
796.87565	0.87559
794.82184	0.87689
792.76804	0.87748
790.71424	0.87750
788.66043	0.87733
786.60663	0.87615
784.55283	0.87359
782.49902	0.87058
780.44522	0.86733
778.39142	0.86334
776.33761	0.85875
774.28381	0.85347
772.23001	0.84659
770.17620	0.83688
768.12240	0.82455
766.06860	0.81204
764.01479	0.80037
761.96099	0.78818
759.90719	0.77617
757.85338	0.76665
755.79958	0.76134
753.74578	0.76057
751.69197	0.76178
749.63817	0.76316
747.58437	0.76683
745.53056	0.77513
743.47676	0.78848
741.42296	0.80480
739.36916	0.82015
737.31535	0.83273
735.26155	0.84373
733.20775	0.85345
731.15394	0.86115
729.10014	0.86712
727.04634	0.87107
724.99253	0.87350
722.93873	0.87624
720.88493	0.87884
718.83112	0.88014
716.77732	0.88086
714.72352	0.88093
712.66971	0.87784
710.61591	0.86733
708.56211	0.84469
706.50830	0.80662
704.45450	0.75161
702.40070	0.68161
700.34689	0.60350
698.29309	0.52985
696.23929	0.48830
694.18548	0.51137
692.13168	0.59000
690.07788	0.67388
688.02408	0.73012
685.97027	0.76188
683.91647	0.78098
681.86267	0.79357
679.80886	0.80157
677.75506	0.80696
675.70126	0.81148
673.64745	0.81486
671.59365	0.81678
669.53985	0.81814
667.48604	0.81995
665.43224	0.82216
663.37844	0.82474
661.32463	0.82658
659.27083	0.82668
657.21703	0.82634
655.16322	0.82567
653.10942	0.82401
651.05562	0.82268
649.00181	0.82283
646.94801	0.82453
644.89421	0.82738
642.84040	0.82980
640.78660	0.83135
638.73280	0.83304
636.67899	0.83406
634.62519	0.83411
632.57139	0.83490
630.51759	0.83639
628.46378	0.83654
626.40998	0.83475
624.35618	0.83276
622.30237	0.83183
620.24857	0.83083
618.19477	0.82878
616.14096	0.82579
614.08716	0.82326
612.03336	0.82232
609.97955	0.82176
607.92575	0.82010
605.87195	0.81742
603.81814	0.81465
601.76434	0.81124
599.71054	0.80691
597.65673	0.80350
595.60293	0.80191
593.54913	0.80104
591.49532	0.79878
589.44152	0.79500
587.38772	0.79245
585.33391	0.79173
583.28011	0.79101
581.22631	0.79033
579.17250	0.78989
577.11870	0.78729
575.06490	0.78233
573.01110	0.77727
570.95729	0.77135
568.90349	0.76417
566.84969	0.75748
564.79588	0.75097
562.74208	0.74429
560.68828	0.73776
558.63447	0.73080
556.58067	0.72352
554.52687	0.71675
552.47306	0.70992
550.41926	0.70149
548.36546	0.69076
546.31165	0.67849
544.25785	0.66591
542.20405	0.65345
540.15024	0.64172
538.09644	0.63159
536.04264	0.62313
533.98883	0.61918
531.93503	0.62228
529.88123	0.62912
527.82742	0.63732
525.77362	0.64737
523.71982	0.65720
521.66602	0.66395
519.61221	0.66767
517.55841	0.67178
515.50461	0.67755
513.45080	0.68233
511.39700	0.68553
509.34320	0.68907
507.28939	0.69380
505.23559	0.69933
503.18179	0.70399
501.12798	0.70545
499.07418	0.70428
497.02038	0.70189
494.96657	0.69916
492.91277	0.69555
490.85897	0.68802
488.80516	0.67691
486.75136	0.66561
484.69756	0.65357
482.64375	0.63987
480.58995	0.62614
478.53615	0.61132
476.48234	0.59593
474.42854	0.58298
472.37474	0.57200
470.32093	0.56365
468.26713	0.55953
466.21333	0.55797
464.15953	0.55922
462.10572	0.56506
460.05192	0.57285
457.99812	0.58007
455.94431	0.58777
453.89051	0.59588
451.83671	0.60404
449.78290	0.61227
447.72910	0.61855
445.67530	0.62106
443.62149	0.62112
441.56769	0.62011
439.51389	0.61854
437.46008	0.61501
435.40628	0.61011
433.35248	0.60757
431.29867	0.60848
429.24487	0.61313
427.19107	0.61835
425.13726	0.62092
423.08346	0.62224
421.02966	0.62130
418.97585	0.61969
416.92205	0.62561
414.86825	0.63657
412.81445	0.64805
410.76064	0.65624
408.70684	0.65970
406.65304	0.66038
404.59923	0.66016
402.54543	0.66262
400.49163	0.66614
398.43782	0.66878
