3996.70104	0.97158
3994.64724	0.97204
3992.59344	0.97290
3990.53964	0.97346
3988.48583	0.97369
3986.43203	0.97351
3984.37823	0.97318
3982.32442	0.97323
3980.27062	0.97366
3978.21682	0.97411
3976.16301	0.97405
3974.10921	0.97351
3972.05541	0.97328
3970.00160	0.97324
3967.94780	0.97309
3965.89400	0.97313
3963.84019	0.97312
3961.78639	0.97327
3959.73259	0.97380
3957.67878	0.97387
3955.62498	0.97335
3953.57118	0.97303
3951.51737	0.97312
3949.46357	0.97328
3947.40977	0.97310
3945.35596	0.97258
3943.30216	0.97213
3941.24836	0.97191
3939.19455	0.97209
3937.14075	0.97277
3935.08695	0.97316
3933.03315	0.97297
3930.97934	0.97320
3928.92554	0.97363
3926.87174	0.97366
3924.81793	0.97368
3922.76413	0.97352
3920.71033	0.97325
3918.65652	0.97349
3916.60272	0.97392
3914.54892	0.97365
3912.49511	0.97286
3910.44131	0.97247
3908.38751	0.97290
3906.33370	0.97357
3904.27990	0.97386
3902.22610	0.97382
3900.17229	0.97365
3898.11849	0.97346
3896.06469	0.97341
3894.01088	0.97344
3891.95708	0.97304
3889.90328	0.97231
3887.84947	0.97226
3885.79567	0.97303
3883.74187	0.97361
3881.68807	0.97330
3879.63426	0.97282
3877.58046	0.97297
3875.52666	0.97343
3873.47285	0.97376
3871.41905	0.97378
3869.36525	0.97345
3867.31144	0.97327
3865.25764	0.97359
3863.20384	0.97389
3861.15003	0.97381
3859.09623	0.97382
3857.04243	0.97419
3854.98862	0.97472
3852.93482	0.97513
3850.88102	0.97471
3848.82721	0.97381
3846.77341	0.97325
3844.71961	0.97305
3842.66580	0.97278
3840.61200	0.97254
3838.55820	0.97253
3836.50439	0.97324
3834.45059	0.97409
3832.39679	0.97350
3830.34298	0.97229
3828.28918	0.97226
3826.23538	0.97306
3824.18158	0.97349
3822.12777	0.97325
3820.07397	0.97312
3818.02017	0.97360
3815.96636	0.97384
3813.91256	0.97361
3811.85876	0.97338
3809.80495	0.97349
3807.75115	0.97410
3805.69735	0.97470
3803.64354	0.97486
3801.58974	0.97481
3799.53594	0.97455
3797.48213	0.97445
3795.42833	0.97460
3793.37453	0.97437
3791.32072	0.97355
3789.26692	0.97283
3787.21312	0.97300
3785.15931	0.97364
3783.10551	0.97401
3781.05171	0.97424
3778.99790	0.97426
3776.94410	0.97394
3774.89030	0.97362
3772.83650	0.97357
3770.78269	0.97355
3768.72889	0.97298
3766.67509	0.97256
3764.62128	0.97316
3762.56748	0.97421
3760.51368	0.97478
3758.45987	0.97451
3756.40607	0.97398
3754.35227	0.97375
3752.29846	0.97423
3750.24466	0.97497
3748.19086	0.97423
3746.13705	0.97301
3744.08325	0.97356
3742.02945	0.97513
3739.97564	0.97553
3737.92184	0.97521
3735.86804	0.97473
3733.81423	0.97451
3731.76043	0.97442
3729.70663	0.97415
3727.65282	0.97392
3725.59902	0.97389
3723.54522	0.97391
3721.49141	0.97379
3719.43761	0.97357
3717.38381	0.97334
3715.33001	0.97348
3713.27620	0.97425
3711.22240	0.97447
3709.16860	0.97324
3707.11479	0.97234
3705.06099	0.97178
3703.00719	0.97053
3700.95338	0.96879
3698.89958	0.96762
3696.84578	0.96716
3694.79197	0.96748
3692.73817	0.96836
3690.68437	0.96948
3688.63056	0.97029
3686.57676	0.97027
3684.52296	0.97011
3682.46915	0.97016
3680.41535	0.97024
3678.36155	0.97003
3676.30774	0.96955
3674.25394	0.96870
3672.20014	0.96803
3670.14633	0.96835
3668.09253	0.96885
3666.03873	0.96847
3663.98492	0.96800
3661.93112	0.96761
3659.87732	0.96687
3657.82352	0.96617
3655.76971	0.96592
3653.71591	0.96591
3651.66211	0.96576
3649.60830	0.96489
3647.55450	0.96337
3645.50070	0.96302
3643.44689	0.96400
3641.39309	0.96465
3639.33929	0.96416
3637.28548	0.96354
3635.23168	0.96310
3633.17788	0.96253
3631.12407	0.96233
3629.07027	0.96243
3627.01647	0.96184
3624.96266	0.96107
3622.90886	0.96072
3620.85506	0.96082
3618.80125	0.96099
3616.74745	0.96076
3614.69365	0.96067
3612.63984	0.96166
3610.58604	0.96293
3608.53224	0.96296
3606.47844	0.96229
3604.42463	0.96177
3602.37083	0.96135
3600.31703	0.96108
3598.26322	0.96082
3596.20942	0.96049
3594.15562	0.96037
3592.10181	0.96093
3590.04801	0.96186
3587.99421	0.96220
3585.94040	0.96192
3583.88660	0.96150
3581.83280	0.96096
3579.77899	0.96094
3577.72519	0.96149
3575.67139	0.96201
3573.61758	0.96210
3571.56378	0.96174
3569.50998	0.96137
3567.45617	0.96152
3565.40237	0.96175
3563.34857	0.96139
3561.29476	0.96105
3559.24096	0.96120
3557.18716	0.96131
3555.13335	0.96107
3553.07955	0.96111
3551.02575	0.96146
3548.97195	0.96143
3546.91814	0.96116
3544.86434	0.96084
3542.81054	0.96040
3540.75673	0.96004
3538.70293	0.95977
3536.64913	0.95972
3534.59532	0.95994
3532.54152	0.95982
3530.48772	0.95954
3528.43391	0.95986
3526.38011	0.96052
3524.32631	0.96082
3522.27250	0.96042
3520.21870	0.95996
3518.16490	0.96024
3516.11109	0.96054
3514.05729	0.96005
3512.00349	0.95933
3509.94968	0.95939
3507.89588	0.96016
3505.84208	0.96053
3503.78827	0.95997
3501.73447	0.95892
3499.68067	0.95851
3497.62687	0.95890
3495.57306	0.95937
3493.51926	0.95979
3491.46546	0.95998
3489.41165	0.95976
3487.35785	0.95968
3485.30405	0.95972
3483.25024	0.95963
3481.19644	0.95966
3479.14264	0.95942
3477.08883	0.95862
3475.03503	0.95782
3472.98123	0.95787
3470.92742	0.95837
3468.87362	0.95854
3466.81982	0.95838
3464.76601	0.95788
3462.71221	0.95747
3460.65841	0.95769
3458.60460	0.95791
3456.55080	0.95787
3454.49700	0.95814
3452.44319	0.95830
3450.38939	0.95777
3448.33559	0.95702
3446.28178	0.95685
3444.22798	0.95723
3442.17418	0.95732
3440.12038	0.95706
3438.06657	0.95691
3436.01277	0.95685
3433.95897	0.95701
3431.90516	0.95756
3429.85136	0.95794
3427.79756	0.95771
3425.74375	0.95727
3423.68995	0.95679
3421.63615	0.95640
3419.58234	0.95624
3417.52854	0.95597
3415.47474	0.95591
3413.42093	0.95630
3411.36713	0.95647
3409.31333	0.95635
3407.25952	0.95615
3405.20572	0.95629
3403.15192	0.95706
3401.09811	0.95776
3399.04431	0.95776
3396.99051	0.95735
3394.93670	0.95703
3392.88290	0.95697
3390.82910	0.95692
3388.77529	0.95665
3386.72149	0.95635
3384.66769	0.95624
3382.61389	0.95607
3380.56008	0.95593
3378.50628	0.95627
3376.45248	0.95673
3374.39867	0.95711
3372.34487	0.95758
3370.29107	0.95794
3368.23726	0.95785
3366.18346	0.95716
3364.12966	0.95642
3362.07585	0.95637
3360.02205	0.95665
3357.96825	0.95687
3355.91444	0.95735
3353.86064	0.95766
3351.80684	0.95748
3349.75303	0.95743
3347.69923	0.95742
3345.64543	0.95719
3343.59162	0.95725
3341.53782	0.95768
3339.48402	0.95804
3337.43021	0.95819
3335.37641	0.95788
3333.32261	0.95730
3331.26881	0.95726
3329.21500	0.95787
3327.16120	0.95840
3325.10740	0.95843
3323.05359	0.95817
3320.99979	0.95799
3318.94599	0.95778
3316.89218	0.95757
3314.83838	0.95793
3312.78458	0.95852
3310.73077	0.95841
3308.67697	0.95764
3306.62317	0.95717
3304.56936	0.95753
3302.51556	0.95828
3300.46176	0.95893
3298.40795	0.95916
3296.35415	0.95917
3294.30035	0.95923
3292.24654	0.95924
3290.19274	0.95923
3288.13894	0.95919
3286.08513	0.95893
3284.03133	0.95885
3281.97753	0.95933
3279.92372	0.95986
3277.86992	0.95995
3275.81612	0.95974
3273.76232	0.95950
3271.70851	0.95910
3269.65471	0.95873
3267.60091	0.95863
3265.54710	0.95895
3263.49330	0.95991
3261.43950	0.96050
3259.38569	0.95977
3257.33189	0.95899
3255.27809	0.95914
3253.22428	0.95957
3251.17048	0.95993
3249.11668	0.96020
3247.06287	0.95999
3245.00907	0.95955
3242.95527	0.95980
3240.90146	0.96047
3238.84766	0.96082
3236.79386	0.96110
3234.74005	0.96141
3232.68625	0.96146
3230.63245	0.96134
3228.57864	0.96107
3226.52484	0.96072
3224.47104	0.96076
3222.41724	0.96134
3220.36343	0.96171
3218.30963	0.96172
3216.25583	0.96200
3214.20202	0.96211
3212.14822	0.96155
3210.09442	0.96098
3208.04061	0.96114
3205.98681	0.96171
3203.93301	0.96187
3201.87920	0.96207
3199.82540	0.96271
3197.77160	0.96302
3195.71779	0.96295
3193.66399	0.96304
3191.61019	0.96311
3189.55638	0.96289
3187.50258	0.96266
3185.44878	0.96254
3183.39497	0.96243
3181.34117	0.96241
3179.28737	0.96251
3177.23356	0.96267
3175.17976	0.96296
3173.12596	0.96324
3171.07215	0.96319
3169.01835	0.96299
3166.96455	0.96307
3164.91075	0.96334
3162.85694	0.96355
3160.80314	0.96387
3158.74934	0.96441
3156.69553	0.96477
3154.64173	0.96471
3152.58793	0.96455
3150.53412	0.96455
3148.48032	0.96465
3146.42652	0.96474
3144.37271	0.96486
3142.31891	0.96508
3140.26511	0.96542
3138.21130	0.96558
3136.15750	0.96528
3134.10370	0.96480
3132.04989	0.96458
3129.99609	0.96484
3127.94229	0.96545
3125.88848	0.96606
3123.83468	0.96654
3121.78088	0.96670
3119.72707	0.96634
3117.67327	0.96593
3115.61947	0.96582
3113.56566	0.96582
3111.51186	0.96582
3109.45806	0.96558
3107.40426	0.96494
3105.35045	0.96418
3103.29665	0.96384
3101.24285	0.96409
3099.18904	0.96471
3097.13524	0.96521
3095.08144	0.96527
3093.02763	0.96514
3090.97383	0.96484
3088.92003	0.96407
3086.86622	0.96279
3084.81242	0.96142
3082.75862	0.96091
3080.70481	0.96128
3078.65101	0.96172
3076.59721	0.96226
3074.54340	0.96309
3072.48960	0.96359
3070.43580	0.96340
3068.38199	0.96293
3066.32819	0.96246
3064.27439	0.96165
3062.22058	0.96032
3060.16678	0.95906
3058.11298	0.95877
3056.05918	0.95960
3054.00537	0.96081
3051.95157	0.96181
3049.89777	0.96243
3047.84396	0.96283
3045.79016	0.96317
3043.73636	0.96345
3041.68255	0.96362
3039.62875	0.96345
3037.57495	0.96291
3035.52114	0.96197
3033.46734	0.96021
3031.41354	0.95752
3029.35973	0.95423
3027.30593	0.95125
3025.25213	0.94973
3023.19832	0.95029
3021.14452	0.95266
3019.09072	0.95579
3017.03691	0.95854
3014.98311	0.96049
3012.92931	0.96216
3010.87550	0.96357
3008.82170	0.96409
3006.76790	0.96378
3004.71409	0.96338
3002.66029	0.96364
3000.60649	0.96444
2998.55269	0.96503
2996.49888	0.96526
2994.44508	0.96553
2992.39128	0.96603
2990.33747	0.96661
2988.28367	0.96690
2986.22987	0.96690
2984.17606	0.96703
2982.12226	0.96734
2980.06846	0.96743
2978.01465	0.96724
2975.96085	0.96721
2973.90705	0.96726
2971.85324	0.96702
2969.79944	0.96668
2967.74564	0.96638
2965.69183	0.96592
2963.63803	0.96535
2961.58423	0.96512
2959.53042	0.96519
2957.47662	0.96494
2955.42282	0.96420
2953.36901	0.96361
2951.31521	0.96335
2949.26141	0.96311
2947.20761	0.96261
2945.15380	0.96173
2943.10000	0.96086
2941.04620	0.96001
2938.99239	0.95835
2936.93859	0.95578
2934.88479	0.95332
2932.83098	0.95163
2930.77718	0.95013
2928.72338	0.94834
2926.66957	0.94665
2924.61577	0.94539
2922.56197	0.94451
2920.50816	0.94400
2918.45436	0.94393
2916.40056	0.94461
2914.34675	0.94605
2912.29295	0.94738
2910.23915	0.94838
2908.18534	0.94953
2906.13154	0.95060
2904.07774	0.95160
2902.02393	0.95289
2899.97013	0.95412
2897.91633	0.95517
2895.86252	0.95630
2893.80872	0.95748
2891.75492	0.95833
2889.70112	0.95868
2887.64731	0.95902
2885.59351	0.95960
2883.53971	0.96036
2881.48590	0.96121
2879.43210	0.96191
2877.37830	0.96244
2875.32449	0.96266
2873.27069	0.96246
2871.21689	0.96220
2869.16308	0.96230
2867.10928	0.96262
2865.05548	0.96260
2863.00167	0.96225
2860.94787	0.96184
2858.89407	0.96135
2856.84026	0.96075
2854.78646	0.95985
2852.73266	0.95888
2850.67885	0.95832
2848.62505	0.95818
2846.57125	0.95851
2844.51744	0.95928
2842.46364	0.96027
2840.40984	0.96139
2838.35603	0.96251
2836.30223	0.96362
2834.24843	0.96467
2832.19463	0.96544
2830.14082	0.96611
2828.08702	0.96673
2826.03322	0.96694
2823.97941	0.96695
2821.92561	0.96710
2819.87181	0.96738
2817.81800	0.96762
2815.76420	0.96759
2813.71040	0.96756
2811.65659	0.96780
2809.60279	0.96785
2807.54899	0.96781
2805.49518	0.96812
2803.44138	0.96847
2801.38758	0.96860
2799.33377	0.96854
2797.27997	0.96823
2795.22617	0.96807
2793.17236	0.96836
2791.11856	0.96866
2789.06476	0.96875
2787.01095	0.96877
2784.95715	0.96889
2782.90335	0.96913
2780.84955	0.96909
2778.79574	0.96892
2776.74194	0.96905
2774.68814	0.96931
2772.63433	0.96962
2770.58053	0.96999
2768.52673	0.97008
2766.47292	0.96991
2764.41912	0.96987
2762.36532	0.96985
2760.31151	0.96958
2758.25771	0.96921
2756.20391	0.96913
2754.15010	0.96932
2752.09630	0.96947
2750.04250	0.96954
2747.98869	0.96970
2745.93489	0.96996
2743.88109	0.97007
2741.82728	0.96982
2739.77348	0.96960
2737.71968	0.96962
2735.66587	0.96960
2733.61207	0.96961
2731.55827	0.96979
2729.50446	0.96986
2727.45066	0.96979
2725.39686	0.96992
2723.34306	0.97015
2721.28925	0.97016
2719.23545	0.97017
2717.18165	0.97014
2715.12784	0.96986
2713.07404	0.96973
2711.02024	0.96996
2708.96643	0.97016
2706.91263	0.97011
2704.85883	0.96984
2702.80502	0.96961
2700.75122	0.96977
2698.69742	0.97031
2696.64361	0.97072
2694.58981	0.97075
2692.53601	0.97053
2690.48220	0.97031
2688.42840	0.97035
2686.37460	0.97053
2684.32079	0.97051
2682.26699	0.97031
2680.21319	0.97023
2678.15938	0.97038
2676.10558	0.97049
2674.05178	0.97021
2671.99797	0.96993
2669.94417	0.97010
2667.89037	0.97038
2665.83657	0.97034
2663.78276	0.97006
2661.72896	0.96995
2659.67516	0.97021
2657.62135	0.97045
2655.56755	0.97025
2653.51375	0.96975
2651.45994	0.96974
2649.40614	0.97035
2647.35234	0.97059
2645.29853	0.97045
2643.24473	0.97050
2641.19093	0.97057
2639.13712	0.97063
2637.08332	0.97057
2635.02952	0.97019
2632.97571	0.97006
2630.92191	0.97070
2628.86811	0.97123
2626.81430	0.97096
2624.76050	0.97074
2622.70670	0.97084
2620.65289	0.97074
2618.59909	0.97079
2616.54529	0.97113
2614.49149	0.97093
2612.43768	0.97016
2610.38388	0.96984
2608.33008	0.97006
2606.27627	0.97026
2604.22247	0.97025
2602.16867	0.97049
2600.11486	0.97130
2598.06106	0.97194
2596.00726	0.97195
2593.95345	0.97205
2591.89965	0.97237
2589.84585	0.97227
2587.79204	0.97184
2585.73824	0.97163
2583.68444	0.97173
2581.63063	0.97183
2579.57683	0.97189
2577.52303	0.97214
2575.46922	0.97233
2573.41542	0.97225
2571.36162	0.97221
2569.30781	0.97232
2567.25401	0.97241
2565.20021	0.97233
2563.14640	0.97183
2561.09260	0.97127
2559.03880	0.97143
2556.98500	0.97211
2554.93119	0.97238
2552.87739	0.97222
2550.82359	0.97233
2548.76978	0.97262
2546.71598	0.97268
2544.66218	0.97236
2542.60837	0.97197
2540.55457	0.97198
2538.50077	0.97213
2536.44696	0.97195
2534.39316	0.97173
2532.33936	0.97181
2530.28555	0.97209
2528.23175	0.97224
2526.17795	0.97237
2524.12414	0.97247
2522.07034	0.97227
2520.01654	0.97236
2517.96273	0.97253
2515.90893	0.97227
2513.85513	0.97189
2511.80132	0.97156
2509.74752	0.97148
2507.69372	0.97179
2505.63992	0.97206
2503.58611	0.97208
2501.53231	0.97217
2499.47851	0.97223
2497.42470	0.97210
2495.37090	0.97209
2493.31710	0.97230
2491.26329	0.97248
2489.20949	0.97220
2487.15569	0.97161
2485.10188	0.97182
2483.04808	0.97257
2480.99428	0.97225
2478.94047	0.97122
2476.88667	0.97129
2474.83287	0.97256
2472.77906	0.97369
2470.72526	0.97391
2468.67146	0.97340
2466.61765	0.97333
2464.56385	0.97401
2462.51005	0.97404
2460.45624	0.97276
2458.40244	0.97148
2456.34864	0.97165
2454.29483	0.97261
2452.24103	0.97289
2450.18723	0.97260
2448.13343	0.97253
2446.07962	0.97253
2444.02582	0.97285
2441.97202	0.97349
2439.91821	0.97345
2437.86441	0.97317
2435.81061	0.97340
2433.75680	0.97367
2431.70300	0.97365
2429.64920	0.97350
2427.59539	0.97351
2425.54159	0.97391
2423.48779	0.97420
2421.43398	0.97409
2419.38018	0.97395
2417.32638	0.97382
2415.27257	0.97371
2413.21877	0.97400
2411.16497	0.97417
2409.11116	0.97356
2407.05736	0.97305
2405.00356	0.97325
2402.94975	0.97376
2400.89595	0.97401
2398.84215	0.97395
2396.78834	0.97392
2394.73454	0.97378
2392.68074	0.97353
2390.62694	0.97332
2388.57313	0.97333
2386.51933	0.97362
2384.46553	0.97401
2382.41172	0.97486
2380.35792	0.97586
2378.30412	0.97553
2376.25031	0.97389
2374.19651	0.97287
2372.14271	0.97358
2370.08890	0.97508
2368.03510	0.97506
2365.98130	0.97304
2363.92749	0.97134
2361.87369	0.97191
2359.81989	0.97343
2357.76608	0.97357
2355.71228	0.97281
2353.65848	0.97280
2351.60467	0.97328
2349.55087	0.97306
2347.49707	0.97208
2345.44326	0.97094
2343.38946	0.97029
2341.33566	0.97040
2339.28186	0.97103
2337.22805	0.97161
2335.17425	0.97175
2333.12045	0.97207
2331.06664	0.97282
2329.01284	0.97300
2326.95904	0.97238
2324.90523	0.97144
2322.85143	0.97093
2320.79763	0.97136
2318.74382	0.97183
2316.69002	0.97180
2314.63622	0.97183
2312.58241	0.97221
2310.52861	0.97263
2308.47481	0.97272
2306.42100	0.97277
2304.36720	0.97283
2302.31340	0.97261
2300.25959	0.97263
2298.20579	0.97320
2296.15199	0.97314
2294.09818	0.97212
2292.04438	0.97195
2289.99058	0.97311
2287.93677	0.97393
2285.88297	0.97328
2283.82917	0.97194
2281.77537	0.97150
2279.72156	0.97194
2277.66776	0.97214
2275.61396	0.97174
2273.56015	0.97091
2271.50635	0.97075
2269.45255	0.97191
2267.39874	0.97353
2265.34494	0.97453
2263.29114	0.97456
2261.23733	0.97399
2259.18353	0.97360
2257.12973	0.97386
2255.07592	0.97355
2253.02212	0.97261
2250.96832	0.97286
2248.91451	0.97399
2246.86071	0.97424
2244.80691	0.97382
2242.75310	0.97381
2240.69930	0.97375
2238.64550	0.97268
2236.59169	0.97117
2234.53789	0.97173
2232.48409	0.97408
2230.43029	0.97467
2228.37648	0.97420
2226.32268	0.97512
2224.26888	0.97563
2222.21507	0.97462
2220.16127	0.97384
2218.10747	0.97367
2216.05366	0.97409
2213.99986	0.97475
2211.94606	0.97429
2209.89225	0.97298
2207.83845	0.97257
2205.78465	0.97360
2203.73084	0.97482
2201.67704	0.97522
2199.62324	0.97479
2197.56943	0.97475
2195.51563	0.97517
2193.46183	0.97563
2191.40802	0.97551
2189.35422	0.97398
2187.30042	0.97381
2185.24661	0.97577
2183.19281	0.97697
2181.13901	0.97763
2179.08520	0.97822
2177.03140	0.97660
2174.97760	0.97290
2172.92380	0.97004
2170.86999	0.96865
2168.81619	0.96806
2166.76239	0.96965
2164.70858	0.97303
2162.65478	0.97521
2160.60098	0.97587
2158.54717	0.97720
2156.49337	0.97967
2154.43957	0.98126
2152.38576	0.98033
2150.33196	0.97765
2148.27816	0.97556
2146.22435	0.97572
2144.17055	0.97685
2142.11675	0.97705
2140.06294	0.97640
2138.00914	0.97596
2135.95534	0.97636
2133.90153	0.97690
2131.84773	0.97693
2129.79393	0.97663
2127.74012	0.97587
2125.68632	0.97521
2123.63252	0.97531
2121.57871	0.97549
2119.52491	0.97571
2117.47111	0.97599
2115.41731	0.97537
2113.36350	0.97490
2111.30970	0.97531
2109.25590	0.97531
2107.20209	0.97478
2105.14829	0.97398
2103.09449	0.97357
2101.04068	0.97458
2098.98688	0.97565
2096.93308	0.97592
2094.87927	0.97678
2092.82547	0.97756
2090.77167	0.97703
2088.71786	0.97600
2086.66406	0.97438
2084.61026	0.97242
2082.55645	0.97224
2080.50265	0.97342
2078.44885	0.97441
2076.39504	0.97571
2074.34124	0.97743
2072.28744	0.97840
2070.23363	0.97764
2068.17983	0.97592
2066.12603	0.97419
2064.07223	0.97261
2062.01842	0.97282
2059.96462	0.97497
2057.91082	0.97606
2055.85701	0.97599
2053.80321	0.97665
2051.74941	0.97620
2049.69560	0.97385
2047.64180	0.97220
2045.58800	0.97262
2043.53419	0.97441
2041.48039	0.97538
2039.42659	0.97442
2037.37278	0.97333
2035.31898	0.97368
2033.26518	0.97637
2031.21137	0.97916
2029.15757	0.97881
2027.10377	0.97721
2025.04996	0.97636
2022.99616	0.97633
2020.94236	0.97774
2018.88855	0.97979
2016.83475	0.98003
2014.78095	0.97880
2012.72714	0.97823
2010.67334	0.97775
2008.61954	0.97838
2006.56574	0.98047
2004.51193	0.98007
2002.45813	0.97825
2000.40433	0.97776
1998.35052	0.97639
1996.29672	0.97531
1994.24292	0.97678
1992.18911	0.97816
1990.13531	0.97787
1988.08151	0.97738
1986.02770	0.97723
1983.97390	0.97602
1981.92010	0.97437
1979.86629	0.97462
1977.81249	0.97578
1975.75869	0.97707
1973.70488	0.97844
1971.65108	0.97793
1969.59728	0.97586
1967.54347	0.97463
1965.48967	0.97492
1963.43587	0.97566
1961.38206	0.97611
1959.32826	0.97605
1957.27446	0.97654
1955.22066	0.97852
1953.16685	0.98012
1951.11305	0.97901
1949.05925	0.97662
1947.00544	0.97576
1944.95164	0.97597
1942.89784	0.97536
1940.84403	0.97447
1938.79023	0.97515
1936.73643	0.97702
1934.68262	0.97788
1932.62882	0.97701
1930.57502	0.97548
1928.52121	0.97490
1926.46741	0.97610
1924.41361	0.97744
1922.35980	0.97696
1920.30600	0.97589
1918.25220	0.97635
1916.19839	0.97733
1914.14459	0.97718
1912.09079	0.97616
1910.03698	0.97493
1907.98318	0.97411
1905.92938	0.97389
1903.87557	0.97403
1901.82177	0.97421
1899.76797	0.97452
1897.71417	0.97564
1895.66036	0.97692
1893.60656	0.97664
1891.55276	0.97531
1889.49895	0.97444
1887.44515	0.97448
1885.39135	0.97477
1883.33754	0.97469
1881.28374	0.97439
1879.22994	0.97415
1877.17613	0.97405
1875.12233	0.97387
1873.06853	0.97360
1871.01472	0.97327
1868.96092	0.97280
1866.90712	0.97314
1864.85331	0.97442
1862.79951	0.97559
1860.74571	0.97596
1858.69190	0.97576
1856.63810	0.97541
1854.58430	0.97515
1852.53049	0.97536
1850.47669	0.97571
1848.42289	0.97574
1846.36908	0.97589
1844.31528	0.97620
1842.26148	0.97584
1840.20768	0.97550
1838.15387	0.97588
1836.10007	0.97624
1834.04627	0.97609
1831.99246	0.97576
1829.93866	0.97545
1827.88486	0.97561
1825.83105	0.97618
1823.77725	0.97601
1821.72345	0.97511
1819.66964	0.97457
1817.61584	0.97484
1815.56204	0.97508
1813.50823	0.97475
1811.45443	0.97442
1809.40063	0.97415
1807.34682	0.97380
1805.29302	0.97366
1803.23922	0.97369
1801.18541	0.97397
1799.13161	0.97451
1797.07781	0.97470
1795.02400	0.97454
1792.97020	0.97441
1790.91640	0.97430
1788.86260	0.97446
1786.80879	0.97477
1784.75499	0.97491
1782.70119	0.97502
1780.64738	0.97505
1778.59358	0.97499
1776.53978	0.97493
1774.48597	0.97452
1772.43217	0.97391
1770.37837	0.97431
1768.32456	0.97495
1766.27076	0.97472
1764.21696	0.97436
1762.16315	0.97435
1760.10935	0.97438
1758.05555	0.97419
1756.00174	0.97385
1753.94794	0.97354
1751.89414	0.97345
1749.84033	0.97370
1747.78653	0.97380
1745.73273	0.97349
1743.67892	0.97321
1741.62512	0.97311
1739.57132	0.97283
1737.51751	0.97241
1735.46371	0.97228
1733.40991	0.97270
1731.35611	0.97310
1729.30230	0.97304
1727.24850	0.97266
1725.19470	0.97237
1723.14089	0.97264
1721.08709	0.97323
1719.03329	0.97375
1716.97948	0.97399
1714.92568	0.97333
1712.87188	0.97272
1710.81807	0.97270
1708.76427	0.97280
1706.71047	0.97291
1704.65666	0.97292
1702.60286	0.97224
1700.54906	0.97110
1698.49525	0.97089
1696.44145	0.97109
1694.38765	0.97087
1692.33384	0.97064
1690.28004	0.97019
1688.22624	0.96951
1686.17243	0.96901
1684.11863	0.96884
1682.06483	0.96878
1680.01103	0.96854
1677.95722	0.96820
1675.90342	0.96776
1673.84962	0.96713
1671.79581	0.96647
1669.74201	0.96599
1667.68821	0.96559
1665.63440	0.96508
1663.58060	0.96462
1661.52680	0.96450
1659.47299	0.96447
1657.41919	0.96454
1655.36539	0.96464
1653.31158	0.96459
1651.25778	0.96497
1649.20398	0.96544
1647.15017	0.96547
1645.09637	0.96492
1643.04257	0.96435
1640.98876	0.96394
1638.93496	0.96380
1636.88116	0.96386
1634.82735	0.96384
1632.77355	0.96376
1630.71975	0.96382
1628.66594	0.96408
1626.61214	0.96452
1624.55834	0.96494
1622.50454	0.96526
1620.45073	0.96555
1618.39693	0.96589
1616.34313	0.96615
1614.28932	0.96617
1612.23552	0.96571
1610.18172	0.96446
1608.12791	0.96233
1606.07411	0.95937
1604.02031	0.95578
1601.96650	0.95285
1599.91270	0.95255
1597.85890	0.95509
1595.80509	0.95868
1593.75129	0.96135
1591.69749	0.96277
1589.64368	0.96384
1587.58988	0.96440
1585.53608	0.96388
1583.48227	0.96306
1581.42847	0.96326
1579.37467	0.96460
1577.32086	0.96645
1575.26706	0.96794
1573.21326	0.96836
1571.15945	0.96827
1569.10565	0.96826
1567.05185	0.96873
1564.99805	0.96912
1562.94424	0.96916
1560.89044	0.96924
1558.83664	0.96928
1556.78283	0.96912
1554.72903	0.96927
1552.67523	0.96931
1550.62142	0.96904
1548.56762	0.96900
1546.51382	0.96944
1544.46001	0.96969
1542.40621	0.96956
1540.35241	0.96927
1538.29860	0.96890
1536.24480	0.96890
1534.19100	0.96916
1532.13719	0.96927
1530.08339	0.96908
1528.02959	0.96893
1525.97578	0.96915
1523.92198	0.96959
1521.86818	0.96938
1519.81437	0.96885
1517.76057	0.96930
1515.70677	0.97006
1513.65297	0.97028
1511.59916	0.97031
1509.54536	0.97059
1507.49156	0.97086
1505.43775	0.96996
1503.38395	0.96898
1501.33015	0.96772
1499.27634	0.96413
1497.22254	0.95343
1495.16874	0.93722
1493.11493	0.92768
1491.06113	0.92986
1489.00733	0.94197
1486.95352	0.95224
1484.89972	0.95737
1482.84592	0.96053
1480.79211	0.96258
1478.73831	0.96372
1476.68451	0.96441
1474.63070	0.96484
1472.57690	0.96505
1470.52310	0.96535
1468.46929	0.96563
1466.41549	0.96562
1464.36169	0.96518
1462.30788	0.96457
1460.25408	0.96365
1458.20028	0.95872
1456.14648	0.94316
1454.09267	0.92916
1452.03887	0.92396
1449.98507	0.92631
1447.93126	0.93311
1445.87746	0.93973
1443.82366	0.94469
1441.76985	0.94885
1439.71605	0.95209
1437.66225	0.95464
1435.60844	0.95726
1433.55464	0.95923
1431.50084	0.96044
1429.44703	0.96164
1427.39323	0.96291
1425.33943	0.96385
1423.28562	0.96439
1421.23182	0.96487
1419.17802	0.96561
1417.12421	0.96606
1415.07041	0.96600
1413.01661	0.96604
1410.96280	0.96651
1408.90900	0.96711
1406.85520	0.96755
1404.80139	0.96797
1402.74759	0.96829
1400.69379	0.96852
1398.63999	0.96885
1396.58618	0.96921
1394.53238	0.96918
1392.47858	0.96874
1390.42477	0.96833
1388.37097	0.96788
1386.31717	0.96723
1384.26336	0.96641
1382.20956	0.96584
1380.15576	0.96574
1378.10195	0.96570
1376.04815	0.96534
1373.99435	0.96467
1371.94054	0.96423
1369.88674	0.96446
1367.83294	0.96491
1365.77913	0.96524
1363.72533	0.96559
1361.67153	0.96591
1359.61772	0.96627
1357.56392	0.96665
1355.51012	0.96675
1353.45631	0.96668
1351.40251	0.96683
1349.34871	0.96725
1347.29491	0.96762
1345.24110	0.96758
1343.18730	0.96739
1341.13350	0.96745
1339.07969	0.96758
1337.02589	0.96762
1334.97209	0.96764
1332.91828	0.96741
1330.86448	0.96696
1328.81068	0.96667
1326.75687	0.96662
1324.70307	0.96680
1322.64927	0.96711
1320.59546	0.96738
1318.54166	0.96768
1316.48786	0.96794
1314.43405	0.96790
1312.38025	0.96760
1310.32645	0.96741
1308.27264	0.96770
1306.21884	0.96821
1304.16504	0.96844
1302.11123	0.96854
1300.05743	0.96882
1298.00363	0.96904
1295.94982	0.96896
1293.89602	0.96879
1291.84222	0.96888
1289.78842	0.96927
1287.73461	0.96950
1285.68081	0.96917
1283.62701	0.96860
1281.57320	0.96829
1279.51940	0.96830
1277.46560	0.96844
1275.41179	0.96856
1273.35799	0.96857
1271.30419	0.96852
1269.25038	0.96862
1267.19658	0.96886
1265.14278	0.96886
1263.08897	0.96850
1261.03517	0.96829
1258.98137	0.96844
1256.92756	0.96851
1254.87376	0.96849
1252.81996	0.96847
1250.76615	0.96832
1248.71235	0.96811
1246.65855	0.96793
1244.60474	0.96777
1242.55094	0.96772
1240.49714	0.96749
1238.44334	0.96701
1236.38953	0.96685
1234.33573	0.96680
1232.28193	0.96631
1230.22812	0.96574
1228.17432	0.96546
1226.12052	0.96527
1224.06671	0.96495
1222.01291	0.96443
1219.95911	0.96365
1217.90530	0.96280
1215.85150	0.96202
1213.79770	0.96116
1211.74389	0.96009
1209.69009	0.95886
1207.63629	0.95753
1205.58248	0.95617
1203.52868	0.95481
1201.47488	0.95319
1199.42107	0.95137
1197.36727	0.94968
1195.31347	0.94810
1193.25966	0.94652
1191.20586	0.94501
1189.15206	0.94335
1187.09825	0.94119
1185.04445	0.93870
1182.99065	0.93626
1180.93685	0.93421
1178.88304	0.93286
1176.82924	0.93201
1174.77544	0.93118
1172.72163	0.92989
1170.66783	0.92813
1168.61403	0.92644
1166.56022	0.92504
1164.50642	0.92366
1162.45262	0.92224
1160.39881	0.92093
1158.34501	0.91948
1156.29121	0.91767
1154.23740	0.91600
1152.18360	0.91511
1150.12980	0.91480
1148.07599	0.91445
1146.02219	0.91388
1143.96839	0.91334
1141.91458	0.91267
1139.86078	0.91148
1137.80698	0.90997
1135.75317	0.90842
1133.69937	0.90678
1131.64557	0.90522
1129.59176	0.90369
1127.53796	0.90160
1125.48416	0.89888
1123.43036	0.89611
1121.37655	0.89343
1119.32275	0.89018
1117.26895	0.88614
1115.21514	0.88197
1113.16134	0.87820
1111.10754	0.87496
1109.05373	0.87215
1106.99993	0.86933
1104.94613	0.86673
1102.89232	0.86471
1100.83852	0.86283
1098.78472	0.86090
1096.73091	0.85915
1094.67711	0.85761
1092.62331	0.85639
1090.56950	0.85532
1088.51570	0.85381
1086.46190	0.85201
1084.40809	0.85057
1082.35429	0.84947
1080.30049	0.84808
1078.24668	0.84612
1076.19288	0.84403
1074.13908	0.84170
1072.08528	0.83899
1070.03147	0.83640
1067.97767	0.83405
1065.92387	0.83156
1063.87006	0.82876
1061.81626	0.82598
1059.76246	0.82338
1057.70865	0.82059
1055.65485	0.81711
1053.60105	0.81290
1051.54724	0.80861
1049.49344	0.80437
1047.43964	0.79934
1045.38583	0.79311
1043.33203	0.78632
1041.27823	0.77957
1039.22442	0.77293
1037.17062	0.76625
1035.11682	0.75951
1033.06301	0.75281
1031.00921	0.74619
1028.95541	0.74054
1026.90160	0.73697
1024.84780	0.73552
1022.79400	0.73505
1020.74019	0.73438
1018.68639	0.73323
1016.63259	0.73182
1014.57879	0.73031
1012.52498	0.72882
1010.47118	0.72745
1008.41738	0.72615
1006.36357	0.72486
1004.30977	0.72393
1002.25597	0.72410
1000.20216	0.72575
998.14836	0.72838
996.09456	0.73147
994.04075	0.73478
991.98695	0.73820
989.93315	0.74201
987.87934	0.74635
985.82554	0.75103
983.77174	0.75583
981.71793	0.76094
979.66413	0.76680
977.61033	0.77380
975.55652	0.78143
973.50272	0.78845
971.44892	0.79494
969.39511	0.80153
967.34131	0.80797
965.28751	0.81399
963.23371	0.81971
961.17990	0.82528
959.12610	0.83084
957.07230	0.83598
955.01849	0.84035
952.96469	0.84405
950.91089	0.84724
948.85708	0.85023
946.80328	0.85297
944.74948	0.85514
942.69567	0.85688
940.64187	0.85882
938.58807	0.86133
936.53426	0.86387
934.48046	0.86625
932.42666	0.86867
930.37285	0.87059
928.31905	0.87174
926.26525	0.87257
924.21144	0.87324
922.15764	0.87352
920.10384	0.87326
918.05003	0.87263
915.99623	0.87170
913.94243	0.87014
911.88862	0.86829
909.83482	0.86753
907.78102	0.86875
905.72722	0.87176
903.67341	0.87591
901.61961	0.88058
899.56581	0.88578
897.51200	0.89148
895.45820	0.89666
893.40440	0.90058
891.35059	0.90350
889.29679	0.90593
887.24299	0.90787
885.18918	0.90932
883.13538	0.91090
881.08158	0.91241
879.02777	0.91327
876.97397	0.91420
874.92017	0.91600
872.86636	0.91858
870.81256	0.92121
868.75876	0.92257
866.70495	0.92298
864.65115	0.92407
862.59735	0.92558
860.54354	0.92689
858.48974	0.92829
856.43594	0.92973
854.38213	0.93136
852.32833	0.93265
850.27453	0.93280
848.22073	0.93243
846.16692	0.93207
844.11312	0.93186
842.05932	0.93137
840.00551	0.92998
837.95171	0.92915
835.89791	0.92993
833.84410	0.93074
831.79030	0.93099
829.73650	0.93119
827.68269	0.93081
825.62889	0.93012
823.57509	0.92974
821.52128	0.92990
819.46748	0.93093
817.41368	0.93174
815.35987	0.93150
813.30607	0.93096
811.25227	0.93064
809.19846	0.92961
807.14466	0.92648
805.09086	0.92191
803.03705	0.91814
800.98325	0.91597
798.92945	0.91451
796.87565	0.91388
794.82184	0.91457
792.76804	0.91548
790.71424	0.91555
788.66043	0.91474
786.60663	0.91350
784.55283	0.91214
782.49902	0.91049
780.44522	0.90863
778.39142	0.90656
776.33761	0.90383
774.28381	0.90077
772.23001	0.89725
770.17620	0.89203
768.12240	0.88520
766.06860	0.87750
764.01479	0.86948
761.96099	0.86211
759.90719	0.85573
757.85338	0.85060
755.79958	0.84724
753.74578	0.84586
751.69197	0.84640
749.63817	0.84797
747.58437	0.85057
745.53056	0.85570
743.47676	0.86407
741.42296	0.87408
739.36916	0.88311
737.31535	0.89045
735.26155	0.89668
733.20775	0.90198
731.15394	0.90650
729.10014	0.91030
727.04634	0.91280
724.99253	0.91388
722.93873	0.91511
720.88493	0.91715
718.83112	0.91855
716.77732	0.91886
714.72352	0.91849
712.66971	0.91656
710.61591	0.91102
708.56211	0.89847
706.50830	0.87503
704.45450	0.83917
702.40070	0.79300
700.34689	0.74160
698.29309	0.69572
696.23929	0.67673
694.18548	0.70156
692.13168	0.75533
690.07788	0.80501
688.02408	0.83552
685.97027	0.85176
683.91647	0.86120
681.86267	0.86728
679.80886	0.87178
677.75506	0.87577
675.70126	0.87836
673.64745	0.87891
671.59365	0.87889
669.53985	0.88008
667.48604	0.88322
665.43224	0.88583
663.37844	0.88702
661.32463	0.88738
659.27083	0.88722
657.21703	0.88687
655.16322	0.88589
653.10942	0.88366
651.05562	0.88140
649.00181	0.88119
646.94801	0.88288
644.89421	0.88456
642.84040	0.88480
640.78660	0.88494
638.73280	0.88692
636.67899	0.88962
634.62519	0.89119
632.57139	0.89105
630.51759	0.89017
628.46378	0.88966
626.40998	0.88954
624.35618	0.88910
622.30237	0.88727
620.24857	0.88478
618.19477	0.88352
616.14096	0.88291
614.08716	0.88156
612.03336	0.87959
609.97955	0.87740
607.92575	0.87575
605.87195	0.87437
603.81814	0.87194
601.76434	0.86837
599.71054	0.86507
597.65673	0.86324
595.60293	0.86222
593.54913	0.86106
591.49532	0.85984
589.44152	0.85894
587.38772	0.85859
585.33391	0.85850
583.28011	0.85728
581.22631	0.85401
579.17250	0.84982
577.11870	0.84734
575.06490	0.84656
573.01110	0.84416
570.95729	0.83986
568.90349	0.83534
566.84969	0.83097
564.79588	0.82677
562.74208	0.82188
560.68828	0.81641
558.63447	0.81146
556.58067	0.80642
554.52687	0.80182
552.47306	0.79822
550.41926	0.79205
548.36546	0.78185
546.31165	0.77224
544.25785	0.76450
542.20405	0.75487
540.15024	0.74347
538.09644	0.73452
536.04264	0.73073
533.98883	0.73067
531.93503	0.73173
529.88123	0.73316
527.82742	0.73507
525.77362	0.73837
523.71982	0.74406
521.66602	0.74956
519.61221	0.75346
517.55841	0.75864
515.50461	0.76422
513.45080	0.76820
511.39700	0.77139
509.34320	0.77344
507.28939	0.77513
505.23559	0.77760
503.18179	0.78021
501.12798	0.78150
499.07418	0.78159
497.02038	0.78071
494.96657	0.77737
492.91277	0.77357
490.85897	0.77025
488.80516	0.76327
486.75136	0.75243
484.69756	0.74114
482.64375	0.73142
480.58995	0.72140
478.53615	0.70751
476.48234	0.69172
474.42854	0.67924
472.37474	0.67061
470.32093	0.66578
468.26713	0.66453
466.21333	0.66467
464.15953	0.66630
462.10572	0.66980
460.05192	0.67473
457.99812	0.68198
455.94431	0.68947
453.89051	0.69462
451.83671	0.70045
449.78290	0.70766
447.72910	0.71213
445.67530	0.71154
443.62149	0.70869
441.56769	0.70926
439.51389	0.71149
437.46008	0.70936
435.40628	0.70486
433.35248	0.70234
431.29867	0.69983
429.24487	0.69803
427.19107	0.69987
425.13726	0.70293
423.08346	0.70665
421.02966	0.70908
418.97585	0.70616
416.92205	0.70458
414.86825	0.70788
412.81445	0.71407
410.76064	0.72037
408.70684	0.72600
406.65304	0.73439
404.59923	0.73938
402.54543	0.73565
400.49163	0.73267
398.43782	0.73837
