3996.71440	0.99625
3994.66059	0.99637
3992.60678	0.99622
3990.55297	0.99606
3988.49916	0.99591
3986.44535	0.99572
3984.39154	0.99567
3982.33773	0.99572
3980.28391	0.99587
3978.23010	0.99595
3976.17629	0.99591
3974.12248	0.99592
3972.06867	0.99595
3970.01486	0.99597
3967.96105	0.99615
3965.90724	0.99633
3963.85343	0.99638
3961.79962	0.99643
3959.74581	0.99643
3957.69200	0.99625
3955.63819	0.99598
3953.58438	0.99594
3951.53057	0.99607
3949.47676	0.99597
3947.42295	0.99575
3945.36914	0.99561
3943.31533	0.99556
3941.26152	0.99575
3939.20771	0.99583
3937.15390	0.99559
3935.10009	0.99545
3933.04628	0.99557
3930.99247	0.99562
3928.93866	0.99561
3926.88485	0.99573
3924.83104	0.99604
3922.77723	0.99653
3920.72342	0.99679
3918.66961	0.99656
3916.61580	0.99608
3914.56199	0.99583
3912.50818	0.99600
3910.45437	0.99612
3908.40056	0.99608
3906.34675	0.99623
3904.29294	0.99631
3902.23913	0.99595
3900.18532	0.99567
3898.13151	0.99577
3896.07770	0.99597
3894.02389	0.99599
3891.97008	0.99571
3889.91627	0.99546
3887.86246	0.99551
3885.80865	0.99558
3883.75484	0.99556
3881.70103	0.99544
3879.64722	0.99531
3877.59341	0.99546
3875.53960	0.99558
3873.48579	0.99555
3871.43198	0.99558
3869.37817	0.99559
3867.32436	0.99544
3865.27055	0.99528
3863.21674	0.99526
3861.16293	0.99513
3859.10912	0.99484
3857.05531	0.99471
3855.00150	0.99452
3852.94769	0.99434
3850.89388	0.99461
3848.84007	0.99467
3846.78626	0.99460
3844.73245	0.99474
3842.67864	0.99474
3840.62483	0.99449
3838.57102	0.99454
3836.51721	0.99479
3834.46340	0.99480
3832.40959	0.99455
3830.35578	0.99419
3828.30197	0.99405
3826.24816	0.99409
3824.19435	0.99428
3822.14054	0.99454
3820.08673	0.99453
3818.03292	0.99432
3815.97911	0.99411
3813.92530	0.99402
3811.87149	0.99411
3809.81768	0.99420
3807.76387	0.99387
3805.71006	0.99343
3803.65625	0.99347
3801.60244	0.99357
3799.54863	0.99354
3797.49482	0.99356
3795.44101	0.99352
3793.38720	0.99345
3791.33339	0.99344
3789.27958	0.99322
3787.22577	0.99290
3785.17196	0.99283
3783.11815	0.99283
3781.06434	0.99277
3779.01053	0.99274
3776.95672	0.99282
3774.90291	0.99301
3772.84910	0.99296
3770.79529	0.99257
3768.74148	0.99224
3766.68767	0.99197
3764.63386	0.99183
3762.58005	0.99193
3760.52624	0.99208
3758.47243	0.99220
3756.41862	0.99237
3754.36481	0.99270
3752.31100	0.99290
3750.25719	0.99227
3748.20338	0.99127
3746.14957	0.99076
3744.09576	0.99044
3742.04195	0.99011
3739.98814	0.98985
3737.93433	0.98957
3735.88052	0.98924
3733.82671	0.98886
3731.77290	0.98880
3729.71909	0.98903
3727.66528	0.98900
3725.61147	0.98871
3723.55766	0.98849
3721.50385	0.98822
3719.45004	0.98754
3717.39623	0.98671
3715.34242	0.98625
3713.28861	0.98589
3711.23480	0.98524
3709.18099	0.98453
3707.12718	0.98378
3705.07337	0.98276
3703.01956	0.98146
3700.96575	0.98025
3698.91194	0.97951
3696.85813	0.97898
3694.80432	0.97851
3692.75051	0.97800
3690.69670	0.97728
3688.64289	0.97656
3686.58907	0.97567
3684.53526	0.97434
3682.48145	0.97281
3680.42764	0.97122
3678.37383	0.96954
3676.32002	0.96760
3674.26621	0.96562
3672.21240	0.96409
3670.15859	0.96193
3668.10478	0.95923
3666.05097	0.95737
3663.99716	0.95573
3661.94335	0.95383
3659.88954	0.95201
3657.83573	0.95006
3655.78192	0.94747
3653.72811	0.94496
3651.67430	0.94280
3649.62049	0.94018
3647.56668	0.93753
3645.51287	0.93586
3643.45906	0.93429
3641.40525	0.93181
3639.35144	0.92874
3637.29763	0.92621
3635.24382	0.92421
3633.19001	0.92207
3631.13620	0.92003
3629.08239	0.91764
3627.02858	0.91497
3624.97477	0.91308
3622.92096	0.91141
3620.86715	0.90946
3618.81334	0.90715
3616.75953	0.90487
3614.70572	0.90303
3612.65191	0.90169
3610.59810	0.90038
3608.54429	0.89833
3606.49048	0.89589
3604.43667	0.89408
3602.38286	0.89252
3600.32905	0.89049
3598.27524	0.88838
3596.22143	0.88656
3594.16762	0.88456
3592.11381	0.88239
3590.06000	0.88040
3588.00619	0.87816
3585.95238	0.87574
3583.89857	0.87371
3581.84476	0.87178
3579.79095	0.86990
3577.73714	0.86822
3575.68333	0.86633
3573.62952	0.86434
3571.57571	0.86277
3569.52190	0.86122
3567.46809	0.85907
3565.41428	0.85665
3563.36047	0.85465
3561.30666	0.85301
3559.25285	0.85152
3557.19904	0.84970
3555.14523	0.84776
3553.09142	0.84592
3551.03761	0.84381
3548.98380	0.84173
3546.92999	0.84005
3544.87618	0.83855
3542.82237	0.83692
3540.76856	0.83495
3538.71475	0.83287
3536.66094	0.83102
3534.60713	0.82914
3532.55332	0.82730
3530.49951	0.82551
3528.44570	0.82360
3526.39189	0.82180
3524.33808	0.81998
3522.28427	0.81811
3520.23046	0.81640
3518.17665	0.81475
3516.12284	0.81298
3514.06903	0.81106
3512.01522	0.80912
3509.96141	0.80737
3507.90760	0.80569
3505.85379	0.80400
3503.79998	0.80247
3501.74617	0.80101
3499.69236	0.79931
3497.63855	0.79753
3495.58474	0.79604
3493.53093	0.79476
3491.47712	0.79343
3489.42331	0.79193
3487.36950	0.79029
3485.31569	0.78859
3483.26188	0.78694
3481.20807	0.78535
3479.15426	0.78378
3477.10045	0.78212
3475.04664	0.78064
3472.99283	0.77935
3470.93902	0.77791
3468.88521	0.77652
3466.83140	0.77519
3464.77759	0.77351
3462.72378	0.77171
3460.66997	0.77011
3458.61616	0.76885
3456.56235	0.76769
3454.50854	0.76639
3452.45473	0.76522
3450.40092	0.76412
3448.34711	0.76300
3446.29330	0.76193
3444.23949	0.76064
3442.18568	0.75914
3440.13187	0.75786
3438.07806	0.75690
3436.02425	0.75594
3433.97044	0.75500
3431.91663	0.75416
3429.86282	0.75326
3427.80901	0.75211
3425.75520	0.75076
3423.70139	0.74955
3421.64758	0.74885
3419.59377	0.74832
3417.53996	0.74759
3415.48615	0.74678
3413.43234	0.74583
3411.37853	0.74487
3409.32472	0.74408
3407.27091	0.74338
3405.21710	0.74300
3403.16329	0.74292
3401.10948	0.74245
3399.05567	0.74176
3397.00186	0.74156
3394.94805	0.74143
3392.89424	0.74089
3390.84042	0.74032
3388.78661	0.73999
3386.73280	0.73971
3384.67899	0.73935
3382.62518	0.73913
3380.57137	0.73917
3378.51756	0.73925
3376.46375	0.73924
3374.40994	0.73922
3372.35613	0.73941
3370.30232	0.73974
3368.24851	0.73993
3366.19470	0.73997
3364.14089	0.74007
3362.08708	0.74036
3360.03327	0.74075
3357.97946	0.74126
3355.92565	0.74177
3353.87184	0.74194
3351.81803	0.74198
3349.76422	0.74212
3347.71041	0.74225
3345.65660	0.74256
3343.60279	0.74312
3341.54898	0.74358
3339.49517	0.74387
3337.44136	0.74427
3335.38755	0.74483
3333.33374	0.74556
3331.27993	0.74641
3329.22612	0.74693
3327.17231	0.74716
3325.11850	0.74751
3323.06469	0.74816
3321.01088	0.74883
3318.95707	0.74915
3316.90326	0.74918
3314.84945	0.74940
3312.79564	0.75004
3310.74183	0.75084
3308.68802	0.75152
3306.63421	0.75213
3304.58040	0.75266
3302.52659	0.75309
3300.47278	0.75340
3298.41897	0.75353
3296.36516	0.75375
3294.31135	0.75430
3292.25754	0.75491
3290.20373	0.75540
3288.14992	0.75598
3286.09611	0.75668
3284.04230	0.75730
3281.98849	0.75773
3279.93468	0.75789
3277.88087	0.75811
3275.82706	0.75872
3273.77325	0.75961
3271.71944	0.76033
3269.66563	0.76082
3267.61182	0.76130
3265.55801	0.76182
3263.50420	0.76251
3261.45039	0.76333
3259.39658	0.76390
3257.34277	0.76428
3255.28896	0.76477
3253.23515	0.76544
3251.18134	0.76629
3249.12753	0.76714
3247.07372	0.76769
3245.01991	0.76809
3242.96610	0.76892
3240.91229	0.77021
3238.85848	0.77112
3236.80467	0.77152
3234.75086	0.77231
3232.69705	0.77349
3230.64324	0.77436
3228.58943	0.77494
3226.53562	0.77580
3224.48181	0.77703
3222.42800	0.77822
3220.37419	0.77923
3218.32038	0.78011
3216.26657	0.78113
3214.21276	0.78254
3212.15895	0.78414
3210.10514	0.78570
3208.05133	0.78721
3205.99752	0.78854
3203.94371	0.78962
3201.88990	0.79062
3199.83609	0.79184
3197.78228	0.79321
3195.72847	0.79463
3193.67466	0.79614
3191.62085	0.79756
3189.56704	0.79902
3187.51323	0.80043
3185.45942	0.80153
3183.40561	0.80298
3181.35180	0.80504
3179.29799	0.80704
3177.24418	0.80875
3175.19037	0.81040
3173.13656	0.81195
3171.08275	0.81329
3169.02894	0.81460
3166.97513	0.81610
3164.92132	0.81781
3162.86751	0.81965
3160.81370	0.82136
3158.75989	0.82281
3156.70608	0.82409
3154.65227	0.82543
3152.59846	0.82696
3150.54465	0.82846
3148.49084	0.82997
3146.43703	0.83153
3144.38322	0.83310
3142.32941	0.83486
3140.27560	0.83676
3138.22179	0.83861
3136.16798	0.84023
3134.11417	0.84153
3132.06036	0.84267
3130.00655	0.84385
3127.95274	0.84531
3125.89893	0.84694
3123.84512	0.84838
3121.79131	0.84980
3119.73750	0.85138
3117.68369	0.85295
3115.62988	0.85463
3113.57607	0.85646
3111.52226	0.85793
3109.46845	0.85914
3107.41464	0.86046
3105.36083	0.86171
3103.30702	0.86305
3101.25321	0.86462
3099.19940	0.86605
3097.14559	0.86730
3095.09177	0.86866
3093.03796	0.87007
3090.98415	0.87131
3088.93034	0.87261
3086.87653	0.87410
3084.82272	0.87548
3082.76891	0.87671
3080.71510	0.87797
3078.66129	0.87934
3076.60748	0.88062
3074.55367	0.88161
3072.49986	0.88247
3070.44605	0.88356
3068.39224	0.88488
3066.33843	0.88617
3064.28462	0.88744
3062.23081	0.88888
3060.17700	0.89030
3058.12319	0.89135
3056.06938	0.89223
3054.01557	0.89343
3051.96176	0.89484
3049.90795	0.89595
3047.85414	0.89693
3045.80033	0.89825
3043.74652	0.89975
3041.69271	0.90083
3039.63890	0.90171
3037.58509	0.90290
3035.53128	0.90413
3033.47747	0.90525
3031.42366	0.90641
3029.36985	0.90741
3027.31604	0.90808
3025.26223	0.90858
3023.20842	0.90922
3021.15461	0.91018
3019.10080	0.91138
3017.04699	0.91257
3014.99318	0.91335
3012.93937	0.91386
3010.88556	0.91471
3008.83175	0.91585
3006.77794	0.91670
3004.72413	0.91728
3002.67032	0.91802
3000.61651	0.91898
2998.56270	0.91977
2996.50889	0.92040
2994.45508	0.92122
2992.40127	0.92218
2990.34746	0.92294
2988.29365	0.92357
2986.23984	0.92415
2984.18603	0.92469
2982.13222	0.92536
2980.07841	0.92610
2978.02460	0.92664
2975.97079	0.92690
2973.91698	0.92687
2971.86317	0.92630
2969.80936	0.92504
2967.75555	0.92335
2965.70174	0.92171
2963.64793	0.92041
2961.59412	0.91954
2959.54031	0.91931
2957.48650	0.91987
2955.43269	0.92106
2953.37888	0.92270
2951.32507	0.92481
2949.27126	0.92718
2947.21745	0.92954
2945.16364	0.93190
2943.10983	0.93408
2941.05602	0.93605
2939.00221	0.93805
2936.94840	0.94020
2934.89459	0.94258
2932.84078	0.94529
2930.78697	0.94875
2928.73316	0.95435
2926.67935	0.96434
2924.62554	0.98117
2922.57173	1.00688
2920.51792	1.04347
2918.46411	1.09517
2916.41030	1.16613
2914.35649	1.24285
2912.30268	1.29085
2910.24887	1.29325
2908.19506	1.26547
2906.14125	1.22963
2904.08744	1.19752
2902.03363	1.17235
2899.97982	1.15333
2897.92601	1.13815
2895.87220	1.12525
2893.81839	1.11368
2891.76458	1.10259
2889.71077	1.09144
2887.65696	1.07977
2885.60315	1.06722
2883.54934	1.05365
2881.49553	1.03898
2879.44172	1.02339
2877.38791	1.00799
2875.33410	0.99426
2873.28029	0.98325
2871.22648	0.97562
2869.17267	0.97151
2867.11886	0.97006
2865.06505	0.97027
2863.01124	0.97217
2860.95743	0.97618
2858.90362	0.98370
2856.84981	0.99852
2854.79600	1.02733
2852.74219	1.08068
2850.68838	1.17196
2848.63457	1.29481
2846.58076	1.37575
2844.52695	1.35430
2842.47314	1.27749
2840.41933	1.20059
2838.36552	1.14129
2836.31171	1.09888
2834.25790	1.06890
2832.20409	1.04729
2830.15028	1.03125
2828.09647	1.01908
2826.04266	1.00958
2823.98885	1.00205
2821.93504	0.99618
2819.88123	0.99135
2817.82742	0.98705
2815.77361	0.98343
2813.71980	0.98058
2811.66599	0.97826
2809.61218	0.97630
2807.55837	0.97453
2805.50456	0.97299
2803.45075	0.97184
2801.39693	0.97074
2799.34312	0.96956
2797.28931	0.96866
2795.23550	0.96807
2793.18169	0.96736
2791.12788	0.96635
2789.07407	0.96518
2787.02026	0.96406
2784.96645	0.96319
2782.91264	0.96247
2780.85883	0.96185
2778.80502	0.96149
2776.75121	0.96133
2774.69740	0.96128
2772.64359	0.96115
2770.58978	0.96075
2768.53597	0.96021
2766.48216	0.95987
2764.42835	0.95995
2762.37454	0.96015
2760.32073	0.96010
2758.26692	0.95997
2756.21311	0.95985
2754.15930	0.95975
2752.10549	0.95987
2750.05168	0.96012
2747.99787	0.96021
2745.94406	0.96001
2743.89025	0.95984
2741.83644	0.96012
2739.78263	0.96054
2737.72882	0.96065
2735.67501	0.96057
2733.62120	0.96055
2731.56739	0.96054
2729.51358	0.96050
2727.45977	0.96054
2725.40596	0.96054
2723.35215	0.96047
2721.29834	0.96045
2719.24453	0.96041
2717.19072	0.96041
2715.13691	0.96053
2713.08310	0.96066
2711.02929	0.96058
2708.97548	0.96031
2706.92167	0.96018
2704.86786	0.96034
2702.81405	0.96058
2700.76024	0.96067
2698.70643	0.96063
2696.65262	0.96064
2694.59881	0.96061
2692.54500	0.96047
2690.49119	0.96040
2688.43738	0.96041
2686.38357	0.96052
2684.32976	0.96089
2682.27595	0.96128
2680.22214	0.96133
2678.16833	0.96140
2676.11452	0.96173
2674.06071	0.96202
2672.00690	0.96229
2669.95309	0.96262
2667.89928	0.96280
2665.84547	0.96299
2663.79166	0.96348
2661.73785	0.96408
2659.68404	0.96447
2657.63023	0.96460
2655.57642	0.96454
2653.52261	0.96447
2651.46880	0.96451
2649.41499	0.96444
2647.36118	0.96432
2645.30737	0.96463
2643.25356	0.96514
2641.19975	0.96542
2639.14594	0.96561
2637.09213	0.96571
2635.03832	0.96569
2632.98451	0.96566
2630.93070	0.96558
2628.87689	0.96532
2626.82308	0.96511
2624.76927	0.96501
2622.71546	0.96476
2620.66165	0.96438
2618.60784	0.96417
2616.55403	0.96392
2614.50022	0.96366
2612.44641	0.96373
2610.39260	0.96387
2608.33879	0.96377
2606.28498	0.96339
2604.23117	0.96294
2602.17736	0.96285
2600.12355	0.96298
2598.06974	0.96281
2596.01593	0.96256
2593.96212	0.96265
2591.90831	0.96270
2589.85450	0.96244
2587.80069	0.96218
2585.74688	0.96211
2583.69307	0.96221
2581.63926	0.96240
2579.58545	0.96243
2577.53164	0.96220
2575.47783	0.96194
2573.42402	0.96177
2571.37021	0.96159
2569.31640	0.96140
2567.26259	0.96146
2565.20878	0.96178
2563.15497	0.96214
2561.10116	0.96227
2559.04735	0.96209
2556.99354	0.96189
2554.93973	0.96168
2552.88592	0.96125
2550.83211	0.96098
2548.77830	0.96128
2546.72449	0.96167
2544.67068	0.96171
2542.61687	0.96143
2540.56306	0.96104
2538.50925	0.96083
2536.45544	0.96058
2534.40163	0.96018
2532.34782	0.96008
2530.29401	0.96021
2528.24020	0.96028
2526.18639	0.96019
2524.13258	0.95993
2522.07877	0.95987
2520.02496	0.95991
2517.97115	0.95981
2515.91734	0.95974
2513.86353	0.95957
2511.80972	0.95917
2509.75591	0.95881
2507.70210	0.95886
2505.64828	0.95926
2503.59447	0.95957
2501.54066	0.95966
2499.48685	0.95966
2497.43304	0.95946
2495.37923	0.95876
2493.32542	0.95802
2491.27161	0.95806
2489.21780	0.95864
2487.16399	0.95905
2485.11018	0.95896
2483.05637	0.95858
2481.00256	0.95853
2478.94875	0.95894
2476.89494	0.95939
2474.84113	0.95945
2472.78732	0.95896
2470.73351	0.95810
2468.67970	0.95744
2466.62589	0.95734
2464.57208	0.95756
2462.51827	0.95761
2460.46446	0.95746
2458.41065	0.95734
2456.35684	0.95711
2454.30303	0.95682
2452.24922	0.95680
2450.19541	0.95723
2448.14160	0.95759
2446.08779	0.95742
2444.03398	0.95719
2441.98017	0.95706
2439.92636	0.95681
2437.87255	0.95671
2435.81874	0.95683
2433.76493	0.95693
2431.71112	0.95698
2429.65731	0.95689
2427.60350	0.95660
2425.54969	0.95645
2423.49588	0.95655
2421.44207	0.95663
2419.38826	0.95681
2417.33445	0.95707
2415.28064	0.95692
2413.22683	0.95653
2411.17302	0.95634
2409.11921	0.95607
2407.06540	0.95569
2405.01159	0.95560
2402.95778	0.95576
2400.90397	0.95568
2398.85016	0.95525
2396.79635	0.95494
2394.74254	0.95482
2392.68873	0.95461
2390.63492	0.95470
2388.58111	0.95507
2386.52730	0.95516
2384.47349	0.95511
2382.41968	0.95532
2380.36587	0.95557
2378.31206	0.95539
2376.25825	0.95492
2374.20444	0.95452
2372.15063	0.95425
2370.09682	0.95421
2368.04301	0.95430
2365.98920	0.95442
2363.93539	0.95440
2361.88158	0.95361
2359.82777	0.95286
2357.77396	0.95348
2355.72015	0.95437
2353.66634	0.95478
2351.61253	0.95529
2349.55872	0.95575
2347.50491	0.95592
2345.45110	0.95605
2343.39729	0.95625
2341.34348	0.95615
2339.28967	0.95580
2337.23586	0.95543
2335.18205	0.95517
2333.12824	0.95507
2331.07443	0.95518
2329.02062	0.95543
2326.96681	0.95531
2324.91300	0.95490
2322.85919	0.95483
2320.80538	0.95515
2318.75157	0.95516
2316.69776	0.95448
2314.64395	0.95371
2312.59014	0.95326
2310.53633	0.95311
2308.48252	0.95339
2306.42871	0.95384
2304.37490	0.95402
2302.32109	0.95369
2300.26728	0.95309
2298.21347	0.95258
2296.15966	0.95220
2294.10585	0.95222
2292.05204	0.95246
2289.99823	0.95242
2287.94442	0.95258
2285.89061	0.95322
2283.83680	0.95384
2281.78299	0.95403
2279.72918	0.95352
2277.67537	0.95270
2275.62156	0.95208
2273.56775	0.95174
2271.51394	0.95144
2269.46013	0.95101
2267.40632	0.95076
2265.35251	0.95058
2263.29870	0.95000
2261.24489	0.94953
2259.19108	0.94977
2257.13727	0.95050
2255.08346	0.95104
2253.02965	0.95085
2250.97584	0.95023
2248.92203	0.94999
2246.86822	0.95026
2244.81441	0.94995
2242.76060	0.94924
2240.70679	0.94964
2238.65298	0.95091
2236.59917	0.95167
2234.54536	0.95140
2232.49155	0.95064
2230.43774	0.95017
2228.38393	0.94983
2226.33012	0.94924
2224.27631	0.94888
2222.22250	0.94897
2220.16869	0.94883
2218.11488	0.94829
2216.06107	0.94814
2214.00726	0.94843
2211.95344	0.94781
2209.89963	0.94606
2207.84582	0.94515
2205.79201	0.94621
2203.73820	0.94787
2201.68439	0.94899
2199.63058	0.94945
2197.57677	0.94918
2195.52296	0.94883
2193.46915	0.94897
2191.41534	0.94886
2189.36153	0.94859
2187.30772	0.94911
2185.25391	0.94951
2183.20010	0.94883
2181.14629	0.94834
2179.09248	0.94866
2177.03867	0.94907
2174.98486	0.94944
2172.93105	0.94950
2170.87724	0.94923
2168.82343	0.94900
2166.76962	0.94834
2164.71581	0.94714
2162.66200	0.94698
2160.60819	0.94812
2158.55438	0.94796
2156.50057	0.94652
2154.44676	0.94559
2152.39295	0.94508
2150.33914	0.94498
2148.28533	0.94583
2146.23152	0.94676
2144.17771	0.94664
2142.12390	0.94615
2140.07009	0.94586
2138.01628	0.94558
2135.96247	0.94501
2133.90866	0.94387
2131.85485	0.94275
2129.80104	0.94246
2127.74723	0.94278
2125.69342	0.94337
2123.63961	0.94396
2121.58580	0.94408
2119.53199	0.94370
2117.47818	0.94326
2115.42437	0.94322
2113.37056	0.94347
2111.31675	0.94385
2109.26294	0.94422
2107.20913	0.94460
2105.15532	0.94498
2103.10151	0.94476
2101.04770	0.94407
2098.99389	0.94374
2096.94008	0.94372
2094.88627	0.94341
2092.83246	0.94334
2090.77865	0.94387
2088.72484	0.94400
2086.67103	0.94414
2084.61722	0.94504
2082.56341	0.94519
2080.50960	0.94383
2078.45579	0.94272
2076.40198	0.94324
2074.34817	0.94463
2072.29436	0.94525
2070.24055	0.94492
2068.18674	0.94461
2066.13293	0.94481
2064.07912	0.94495
2062.02531	0.94463
2059.97150	0.94435
2057.91769	0.94422
2055.86388	0.94410
2053.81007	0.94456
2051.75626	0.94558
2049.70245	0.94615
2047.64864	0.94612
2045.59483	0.94587
2043.54102	0.94578
2041.48721	0.94552
2039.43340	0.94507
2037.37959	0.94491
2035.32578	0.94460
2033.27197	0.94437
2031.21816	0.94456
2029.16435	0.94474
2027.11054	0.94513
2025.05673	0.94635
2023.00292	0.94694
2020.94911	0.94639
2018.89530	0.94640
2016.84149	0.94620
2014.78768	0.94501
2012.73387	0.94426
2010.68006	0.94421
2008.62625	0.94403
2006.57244	0.94287
2004.51863	0.94154
2002.46482	0.94205
2000.41101	0.94313
1998.35720	0.94331
1996.30339	0.94389
1994.24958	0.94450
1992.19577	0.94377
1990.14196	0.94296
1988.08815	0.94310
1986.03434	0.94348
1983.98053	0.94397
1981.92672	0.94442
1979.87291	0.94421
1977.81910	0.94397
1975.76529	0.94510
1973.71148	0.94644
1971.65767	0.94652
1969.60386	0.94542
1967.55005	0.94441
1965.49624	0.94442
1963.44243	0.94387
1961.38862	0.94225
1959.33481	0.94138
1957.28100	0.94207
1955.22719	0.94265
1953.17338	0.94254
1951.11957	0.94284
1949.06576	0.94331
1947.01195	0.94322
1944.95814	0.94235
1942.90433	0.94085
1940.85052	0.94003
1938.79671	0.94063
1936.74290	0.94084
1934.68909	0.93958
1932.63528	0.93859
1930.58147	0.93869
1928.52766	0.93850
1926.47385	0.93827
1924.42004	0.93921
1922.36623	0.94016
1920.31242	0.93971
1918.25861	0.93863
1916.20479	0.93777
1914.15098	0.93733
1912.09717	0.93749
1910.04336	0.93771
1907.98955	0.93739
1905.93574	0.93694
1903.88193	0.93701
1901.82812	0.93742
1899.77431	0.93738
1897.72050	0.93702
1895.66669	0.93676
1893.61288	0.93645
1891.55907	0.93619
1889.50526	0.93603
1887.45145	0.93566
1885.39764	0.93497
1883.34383	0.93404
1881.29002	0.93315
1879.23621	0.93285
1877.18240	0.93306
1875.12859	0.93319
1873.07478	0.93304
1871.02097	0.93249
1868.96716	0.93159
1866.91335	0.93090
1864.85954	0.93066
1862.80573	0.93050
1860.75192	0.93013
1858.69811	0.92972
1856.64430	0.92948
1854.59049	0.92919
1852.53668	0.92868
1850.48287	0.92818
1848.42906	0.92802
1846.37525	0.92787
1844.32144	0.92723
1842.26763	0.92683
1840.21382	0.92676
1838.16001	0.92626
1836.10620	0.92560
1834.05239	0.92531
1831.99858	0.92509
1829.94477	0.92484
1827.89096	0.92450
1825.83715	0.92406
1823.78334	0.92394
1821.72953	0.92398
1819.67572	0.92362
1817.62191	0.92311
1815.56810	0.92271
1813.51429	0.92237
1811.46048	0.92211
1809.40667	0.92179
1807.35286	0.92126
1805.29905	0.92082
1803.24524	0.92078
1801.19143	0.92078
1799.13762	0.92054
1797.08381	0.92038
1795.03000	0.92013
1792.97619	0.91987
1790.92238	0.91997
1788.86857	0.92001
1786.81476	0.91969
1784.76095	0.91948
1782.70714	0.91959
1780.65333	0.91965
1778.59952	0.91953
1776.54571	0.91927
1774.49190	0.91893
1772.43809	0.91876
1770.38428	0.91871
1768.33047	0.91857
1766.27666	0.91852
1764.22285	0.91854
1762.16904	0.91867
1760.11523	0.91880
1758.06142	0.91902
1756.00761	0.91954
1753.95380	0.92038
1751.89999	0.92147
1749.84618	0.92252
1747.79237	0.92357
1745.73856	0.92496
1743.68475	0.92670
1741.63094	0.92848
1739.57713	0.93010
1737.52332	0.93072
1735.46951	0.93013
1733.41570	0.92913
1731.36189	0.92900
1729.30808	0.92972
1727.25427	0.93120
1725.20046	0.93365
1723.14665	0.93735
1721.09284	0.94164
1719.03903	0.94646
1716.98522	0.95208
1714.93141	0.95492
1712.87760	0.95350
1710.82379	0.94885
1708.76998	0.94217
1706.71617	0.93430
1704.66236	0.92650
1702.60855	0.92027
1700.55474	0.91415
1698.50093	0.90814
1696.44712	0.90149
1694.39331	0.89289
1692.33950	0.88538
1690.28569	0.87879
1688.23188	0.87295
1686.17807	0.86832
1684.12426	0.86257
1682.07045	0.85652
1680.01664	0.85231
1677.96283	0.84892
1675.90902	0.84522
1673.85521	0.84092
1671.80140	0.83706
1669.74759	0.83308
1667.69378	0.82899
1665.63997	0.82559
1663.58616	0.82185
1661.53235	0.81772
1659.47854	0.81428
1657.42473	0.81152
1655.37092	0.80905
1653.31711	0.80550
1651.26330	0.80220
1649.20949	0.80072
1647.15568	0.79890
1645.10187	0.79657
1643.04806	0.79524
1640.99425	0.79463
1638.94044	0.79429
1636.88663	0.79437
1634.83282	0.79546
1632.77901	0.79718
1630.72520	0.79913
1628.67139	0.80161
1626.61758	0.80451
1624.56377	0.80803
1622.50996	0.81231
1620.45614	0.81591
1618.40233	0.81914
1616.34852	0.82372
1614.29471	0.82840
1612.24090	0.83230
1610.18709	0.83640
1608.13328	0.84082
1606.07947	0.84495
1604.02566	0.84865
1601.97185	0.85242
1599.91804	0.85625
1597.86423	0.85970
1595.81042	0.86287
1593.75661	0.86603
1591.70280	0.86890
1589.64899	0.87155
1587.59518	0.87409
1585.54137	0.87633
1583.48756	0.87834
1581.43375	0.88020
1579.37994	0.88175
1577.32613	0.88321
1575.27232	0.88484
1573.21851	0.88608
1571.16470	0.88710
1569.11089	0.88816
1567.05708	0.88901
1565.00327	0.88957
1562.94946	0.89002
1560.89565	0.89056
1558.84184	0.89144
1556.78803	0.89196
1554.73422	0.89215
1552.68041	0.89260
1550.62660	0.89312
1548.57279	0.89348
1546.51898	0.89375
1544.46517	0.89433
1542.41136	0.89524
1540.35755	0.89614
1538.30374	0.89663
1536.24993	0.89688
1534.19612	0.89737
1532.14231	0.89814
1530.08850	0.89887
1528.03469	0.89952
1525.98088	0.90023
1523.92707	0.90089
1521.87326	0.90180
1519.81945	0.90276
1517.76564	0.90337
1515.71183	0.90390
1513.65802	0.90451
1511.60421	0.90521
1509.55040	0.90596
1507.49659	0.90694
1505.44278	0.90797
1503.38897	0.90860
1501.33516	0.90930
1499.28135	0.91022
1497.22754	0.91108
1495.17373	0.91194
1493.11992	0.91269
1491.06611	0.91346
1489.01230	0.91470
1486.95849	0.91625
1484.90468	0.91787
1482.85087	0.92042
1480.79706	0.92541
1478.74325	0.93691
1476.68944	0.96747
1474.63563	1.02868
1472.58182	1.07824
1470.52801	1.04449
1468.47420	0.99118
1466.42039	0.97109
1464.36658	0.99450
1462.31277	1.01803
1460.25896	0.99628
1458.20515	0.94947
1456.15134	0.91639
1454.09753	0.90735
1452.04372	0.90560
1449.98991	0.90543
1447.93610	0.90598
1445.88229	0.90684
1443.82848	0.90758
1441.77467	0.90817
1439.72086	0.90876
1437.66705	0.90947
1435.61324	0.91012
1433.55943	0.91075
1431.50562	0.91165
1429.45181	0.91272
1427.39800	0.91354
1425.34419	0.91434
1423.29038	0.91520
1421.23657	0.91601
1419.18276	0.91686
1417.12895	0.91780
1415.07514	0.91888
1413.02133	0.92000
1410.96752	0.92039
1408.91371	0.91980
1406.85990	0.91872
1404.80609	0.91720
1402.75228	0.91542
1400.69847	0.91373
1398.64466	0.91219
1396.59085	0.91083
1394.53704	0.90958
1392.48323	0.90859
1390.42942	0.90813
1388.37561	0.90804
1386.32180	0.90785
1384.26799	0.90724
1382.21418	0.90608
1380.16037	0.90452
1378.10656	0.90304
1376.05275	0.90225
1373.99894	0.90242
1371.94513	0.90282
1369.89132	0.90258
1367.83751	0.90175
1365.78370	0.90085
1363.72989	0.90002
1361.67608	0.89902
1359.62227	0.89788
1357.56846	0.89704
1355.51465	0.89666
1353.46084	0.89640
1351.40703	0.89597
1349.35322	0.89554
1347.29941	0.89518
1345.24560	0.89486
1343.19179	0.89448
1341.13798	0.89395
1339.08417	0.89348
1337.03036	0.89327
1334.97655	0.89338
1332.92274	0.89378
1330.86893	0.89423
1328.81512	0.89454
1326.76130	0.89482
1324.70749	0.89520
1322.65368	0.89572
1320.59987	0.89641
1318.54606	0.89709
1316.49225	0.89750
1314.43844	0.89754
1312.38463	0.89733
1310.33082	0.89727
1308.27701	0.89748
1306.22320	0.89768
1304.16939	0.89783
1302.11558	0.89817
1300.06177	0.89869
1298.00796	0.89905
1295.95415	0.89918
1293.90034	0.89929
1291.84653	0.89927
1289.79272	0.89899
1287.73891	0.89848
1285.68510	0.89778
1283.63129	0.89696
1281.57748	0.89604
1279.52367	0.89507
1277.46986	0.89408
1275.41605	0.89295
1273.36224	0.89174
1271.30843	0.89062
1269.25462	0.88968
1267.20081	0.88860
1265.14700	0.88722
1263.09319	0.88575
1261.03938	0.88416
1258.98557	0.88236
1256.93176	0.88035
1254.87795	0.87820
1252.82414	0.87595
1250.77033	0.87356
1248.71652	0.87087
1246.66271	0.86783
1244.60890	0.86451
1242.55509	0.86098
1240.50128	0.85724
1238.44747	0.85325
1236.39366	0.84894
1234.33985	0.84425
1232.28604	0.83931
1230.23223	0.83427
1228.17842	0.82925
1226.12461	0.82423
1224.07080	0.81924
1222.01699	0.81448
1219.96318	0.80983
1217.90937	0.80531
1215.85556	0.80106
1213.80175	0.79688
1211.74794	0.79267
1209.69413	0.78883
1207.64032	0.78559
1205.58651	0.78273
1203.53270	0.78012
1201.47889	0.77764
1199.42508	0.77532
1197.37127	0.77346
1195.31746	0.77210
1193.26365	0.77100
1191.20984	0.77013
1189.15603	0.76957
1187.10222	0.76937
1185.04841	0.76971
1182.99460	0.77052
1180.94079	0.77157
1178.88698	0.77311
1176.83317	0.77519
1174.77936	0.77712
1172.72555	0.77870
1170.67174	0.78056
1168.61793	0.78292
1166.56412	0.78546
1164.51031	0.78794
1162.45650	0.79021
1160.40269	0.79213
1158.34888	0.79369
1156.29507	0.79508
1154.24126	0.79641
1152.18745	0.79754
1150.13364	0.79849
1148.07983	0.79948
1146.02602	0.80074
1143.97221	0.80213
1141.91840	0.80332
1139.86459	0.80425
1137.81078	0.80532
1135.75697	0.80660
1133.70316	0.80779
1131.64935	0.80905
1129.59554	0.81036
1127.54173	0.81119
1125.48792	0.81132
1123.43411	0.81118
1121.38030	0.81129
1119.32649	0.81164
1117.27268	0.81195
1115.21887	0.81226
1113.16506	0.81265
1111.11125	0.81297
1109.05744	0.81307
1107.00363	0.81312
1104.94982	0.81328
1102.89601	0.81345
1100.84220	0.81371
1098.78839	0.81412
1096.73458	0.81441
1094.68077	0.81443
1092.62696	0.81442
1090.57315	0.81458
1088.51934	0.81492
1086.46553	0.81534
1084.41172	0.81581
1082.35791	0.81627
1080.30410	0.81648
1078.25029	0.81647
1076.19648	0.81640
1074.14267	0.81614
1072.08886	0.81532
1070.03505	0.81359
1067.98124	0.81086
1065.92743	0.80696
1063.87362	0.80162
1061.81981	0.79489
1059.76600	0.78677
1057.71219	0.77760
1055.65838	0.76845
1053.60457	0.76062
1051.55076	0.75503
1049.49695	0.75196
1047.44314	0.75127
1045.38933	0.75264
1043.33552	0.75522
1041.28171	0.75834
1039.22790	0.76195
1037.17409	0.76602
1035.12028	0.77018
1033.06647	0.77417
1031.01265	0.77827
1028.95884	0.78281
1026.90503	0.78745
1024.85122	0.79172
1022.79741	0.79549
1020.74360	0.79883
1018.68979	0.80193
1016.63598	0.80489
1014.58217	0.80763
1012.52836	0.81025
1010.47455	0.81283
1008.42074	0.81528
1006.36693	0.81750
1004.31312	0.81955
1002.25931	0.82168
1000.20550	0.82405
998.15169	0.82655
996.09788	0.82892
994.04407	0.83108
991.99026	0.83310
989.93645	0.83490
987.88264	0.83638
985.82883	0.83755
983.77502	0.83857
981.72121	0.83959
979.66740	0.84054
977.61359	0.84132
975.55978	0.84184
973.50597	0.84221
971.45216	0.84270
969.39835	0.84343
967.34454	0.84445
965.29073	0.84576
963.23692	0.84709
961.18311	0.84826
959.12930	0.84938
957.07549	0.85044
955.02168	0.85152
952.96787	0.85275
950.91406	0.85367
948.86025	0.85395
946.80644	0.85391
944.75263	0.85355
942.69882	0.85279
940.64501	0.85181
938.59120	0.85054
936.53739	0.84883
934.48358	0.84696
932.42977	0.84520
930.37596	0.84350
928.32215	0.84164
926.26834	0.83955
924.21453	0.83726
922.16072	0.83470
920.10691	0.83195
918.05310	0.82917
915.99929	0.82645
913.94548	0.82403
911.89167	0.82175
909.83786	0.81930
907.78405	0.81646
905.73024	0.81307
903.67643	0.80951
901.62262	0.80625
899.56881	0.80305
897.51500	0.80006
895.46119	0.79768
893.40738	0.79561
891.35357	0.79350
889.29976	0.79151
887.24595	0.78982
885.19214	0.78838
883.13833	0.78731
881.08452	0.78675
879.03071	0.78654
876.97690	0.78650
874.92309	0.78657
872.86928	0.78634
870.81547	0.78564
868.76166	0.78498
866.70785	0.78484
864.65404	0.78518
862.60023	0.78560
860.54642	0.78568
858.49261	0.78511
856.43880	0.78412
854.38499	0.78315
852.33118	0.78224
850.27737	0.78093
848.22356	0.77935
846.16975	0.77847
844.11594	0.77780
842.06213	0.77631
840.00832	0.77448
837.95451	0.77315
835.90070	0.77181
833.84689	0.77012
831.79308	0.76871
829.73927	0.76746
827.68546	0.76590
825.63165	0.76420
823.57784	0.76250
821.52403	0.76102
819.47022	0.75982
817.41641	0.75836
815.36260	0.75661
813.30879	0.75487
811.25498	0.75280
809.20117	0.75031
807.14736	0.74810
805.09355	0.74618
803.03974	0.74382
800.98593	0.74100
798.93212	0.73846
796.87831	0.73650
794.82450	0.73465
792.77069	0.73265
790.71688	0.73068
788.66307	0.72859
786.60926	0.72676
784.55545	0.72578
782.50164	0.72473
780.44783	0.72255
778.39402	0.71985
776.34021	0.71751
774.28640	0.71550
772.23259	0.71358
770.17878	0.71185
768.12497	0.71028
766.07116	0.70885
764.01735	0.70736
761.96354	0.70534
759.90973	0.70323
757.85592	0.70159
755.80211	0.70006
753.74830	0.69857
751.69449	0.69717
749.64068	0.69595
747.58687	0.69531
745.53306	0.69505
743.47925	0.69469
741.42544	0.69460
739.37163	0.69593
737.31781	0.70131
735.26400	0.71817
733.21019	0.75311
731.15638	0.78582
729.10257	0.77653
727.04876	0.74148
724.99495	0.72380
722.94114	0.73588
720.88733	0.77410
718.83352	0.80983
716.77971	0.80180
714.72590	0.75798
712.67209	0.71273
710.61828	0.68379
708.56447	0.66930
706.51066	0.66185
704.45685	0.65731
702.40304	0.65407
700.34923	0.65156
698.29542	0.64973
696.24161	0.64825
694.18780	0.64703
692.13399	0.64630
690.08018	0.64522
688.02637	0.64311
685.97256	0.64114
683.91875	0.64018
681.86494	0.63930
679.81113	0.63799
677.75732	0.63691
675.70351	0.63588
673.64970	0.63427
671.59589	0.63263
669.54208	0.63115
667.48827	0.62894
665.43446	0.62730
663.38065	0.62642
661.32684	0.62507
659.27303	0.62317
657.21922	0.62146
655.16541	0.61995
653.11160	0.61840
651.05779	0.61674
649.00398	0.61491
646.95017	0.61305
644.89636	0.61125
642.84255	0.60932
640.78874	0.60711
638.73493	0.60518
636.68112	0.60397
634.62731	0.60280
632.57350	0.60101
630.51969	0.59872
628.46588	0.59622
626.41207	0.59368
624.35826	0.59164
622.30445	0.59034
620.25064	0.58834
618.19683	0.58511
616.14302	0.58179
614.08921	0.57897
612.03540	0.57714
609.98159	0.57519
607.92778	0.57201
605.87397	0.56882
603.82016	0.56545
601.76635	0.56073
599.71254	0.55566
597.65873	0.55169
595.60492	0.54873
593.55111	0.54585
591.49730	0.54273
589.44349	0.54012
587.38968	0.53873
585.33587	0.53887
583.28206	0.53923
581.22825	0.53880
579.17444	0.53913
577.12063	0.54090
575.06682	0.54297
573.01301	0.54471
570.95920	0.54675
568.90539	0.54904
566.85158	0.55044
564.79777	0.55015
562.74396	0.54926
560.69015	0.54911
558.63634	0.54953
556.58253	0.55085
554.52872	0.55313
552.47491	0.55457
550.42110	0.55470
548.36729	0.55458
546.31348	0.55395
544.25967	0.55308
542.20586	0.55341
540.15205	0.55484
538.09824	0.55553
536.04443	0.55430
533.99062	0.55310
531.93681	0.55307
529.88300	0.55272
527.82919	0.55235
525.77538	0.55264
523.72157	0.55291
521.66776	0.55341
519.61395	0.55492
517.56014	0.55621
515.50633	0.55553
513.45252	0.55488
511.39871	0.55575
509.34490	0.55646
507.29109	0.55633
505.23728	0.55624
503.18347	0.55611
501.12966	0.55602
499.07585	0.55608
497.02204	0.55563
494.96823	0.55492
492.91442	0.55439
490.86061	0.55398
488.80680	0.55386
486.75299	0.55332
484.69918	0.55192
482.64537	0.55108
480.59156	0.55054
478.53775	0.54898
476.48394	0.54768
474.43013	0.54666
472.37632	0.54484
470.32251	0.54378
468.26870	0.54314
466.21489	0.54167
464.16108	0.54140
462.10727	0.54312
460.05346	0.54522
457.99965	0.54634
455.94584	0.54552
453.89203	0.54384
451.83822	0.54314
449.78441	0.54213
447.73060	0.53977
445.67679	0.53856
443.62298	0.53754
441.56916	0.53538
439.51535	0.53490
437.46154	0.53503
435.40773	0.53359
433.35392	0.53395
431.30011	0.53807
429.24630	0.54112
427.19249	0.53926
425.13868	0.53513
423.08487	0.53487
421.03106	0.54030
418.97725	0.54522
416.92344	0.54509
414.86963	0.54443
412.81582	0.54445
410.76201	0.54356
408.70820	0.54096
406.65439	0.53772
404.60058	0.53633
402.54677	0.53923
400.49296	0.54515
398.43915	0.54834
