3996.70104	0.97579
3994.64724	0.97584
3992.59344	0.97569
3990.53964	0.97565
3988.48583	0.97564
3986.43203	0.97584
3984.37823	0.97629
3982.32442	0.97610
3980.27062	0.97572
3978.21682	0.97587
3976.16301	0.97603
3974.10921	0.97609
3972.05541	0.97606
3970.00160	0.97595
3967.94780	0.97589
3965.89400	0.97579
3963.84019	0.97587
3961.78639	0.97630
3959.73259	0.97653
3957.67878	0.97623
3955.62498	0.97606
3953.57118	0.97654
3951.51737	0.97706
3949.46357	0.97696
3947.40977	0.97670
3945.35596	0.97668
3943.30216	0.97652
3941.24836	0.97631
3939.19455	0.97619
3937.14075	0.97568
3935.08695	0.97511
3933.03315	0.97538
3930.97934	0.97619
3928.92554	0.97677
3926.87174	0.97704
3924.81793	0.97697
3922.76413	0.97643
3920.71033	0.97589
3918.65652	0.97592
3916.60272	0.97622
3914.54892	0.97595
3912.49511	0.97545
3910.44131	0.97544
3908.38751	0.97599
3906.33370	0.97658
3904.27990	0.97627
3902.22610	0.97530
3900.17229	0.97518
3898.11849	0.97588
3896.06469	0.97655
3894.01088	0.97678
3891.95708	0.97677
3889.90328	0.97717
3887.84947	0.97751
3885.79567	0.97748
3883.74187	0.97772
3881.68807	0.97762
3879.63426	0.97690
3877.58046	0.97664
3875.52666	0.97652
3873.47285	0.97612
3871.41905	0.97608
3869.36525	0.97616
3867.31144	0.97562
3865.25764	0.97484
3863.20384	0.97506
3861.15003	0.97653
3859.09623	0.97718
3857.04243	0.97649
3854.98862	0.97599
3852.93482	0.97681
3850.88102	0.97749
3848.82721	0.97747
3846.77341	0.97747
3844.71961	0.97747
3842.66580	0.97704
3840.61200	0.97650
3838.55820	0.97654
3836.50439	0.97700
3834.45059	0.97707
3832.39679	0.97650
3830.34298	0.97602
3828.28918	0.97620
3826.23538	0.97670
3824.18158	0.97736
3822.12777	0.97795
3820.07397	0.97814
3818.02017	0.97833
3815.96636	0.97856
3813.91256	0.97819
3811.85876	0.97757
3809.80495	0.97711
3807.75115	0.97682
3805.69735	0.97706
3803.64354	0.97767
3801.58974	0.97801
3799.53594	0.97820
3797.48213	0.97847
3795.42833	0.97809
3793.37453	0.97753
3791.32072	0.97765
3789.26692	0.97786
3787.21312	0.97760
3785.15931	0.97711
3783.10551	0.97670
3781.05171	0.97650
3778.99790	0.97665
3776.94410	0.97706
3774.89030	0.97728
3772.83650	0.97721
3770.78269	0.97730
3768.72889	0.97772
3766.67509	0.97788
3764.62128	0.97772
3762.56748	0.97718
3760.51368	0.97655
3758.45987	0.97657
3756.40607	0.97698
3754.35227	0.97702
3752.29846	0.97656
3750.24466	0.97662
3748.19086	0.97800
3746.13705	0.97964
3744.08325	0.98004
3742.02945	0.97879
3739.97564	0.97809
3737.92184	0.97799
3735.86804	0.97714
3733.81423	0.97615
3731.76043	0.97627
3729.70663	0.97658
3727.65282	0.97664
3725.59902	0.97668
3723.54522	0.97617
3721.49141	0.97484
3719.43761	0.97388
3717.38381	0.97355
3715.33001	0.97305
3713.27620	0.97185
3711.22240	0.96984
3709.16860	0.96718
3707.11479	0.96436
3705.06099	0.96206
3703.00719	0.95982
3700.95338	0.95692
3698.89958	0.95465
3696.84578	0.95389
3694.79197	0.95406
3692.73817	0.95504
3690.68437	0.95687
3688.63056	0.95889
3686.57676	0.95980
3684.52296	0.95967
3682.46915	0.95942
3680.41535	0.95943
3678.36155	0.95948
3676.30774	0.95921
3674.25394	0.95861
3672.20014	0.95793
3670.14633	0.95649
3668.09253	0.95479
3666.03873	0.95383
3663.98492	0.95298
3661.93112	0.95203
3659.87732	0.95121
3657.82352	0.95056
3655.76971	0.95001
3653.71591	0.94956
3651.66211	0.94875
3649.60830	0.94718
3647.55450	0.94615
3645.50070	0.94594
3643.44689	0.94549
3641.39309	0.94449
3639.33929	0.94320
3637.28548	0.94195
3635.23168	0.94059
3633.17788	0.93948
3631.12407	0.93900
3629.07027	0.93813
3627.01647	0.93664
3624.96266	0.93556
3622.90886	0.93492
3620.85506	0.93471
3618.80125	0.93514
3616.74745	0.93600
3614.69365	0.93646
3612.63984	0.93691
3610.58604	0.93759
3608.53224	0.93822
3606.47844	0.93901
3604.42463	0.93951
3602.37083	0.93938
3600.31703	0.93919
3598.26322	0.93943
3596.20942	0.93934
3594.15562	0.93851
3592.10181	0.93821
3590.04801	0.93863
3587.99421	0.93917
3585.94040	0.93976
3583.88660	0.94014
3581.83280	0.94012
3579.77899	0.93996
3577.72519	0.94025
3575.67139	0.94030
3573.61758	0.93906
3571.56378	0.93766
3569.50998	0.93753
3567.45617	0.93830
3565.40237	0.93915
3563.34857	0.93936
3561.29476	0.93894
3559.24096	0.93850
3557.18716	0.93795
3555.13335	0.93741
3553.07955	0.93712
3551.02575	0.93700
3548.97195	0.93711
3546.91814	0.93715
3544.86434	0.93713
3542.81054	0.93751
3540.75673	0.93801
3538.70293	0.93823
3536.64913	0.93824
3534.59532	0.93793
3532.54152	0.93742
3530.48772	0.93726
3528.43391	0.93733
3526.38011	0.93752
3524.32631	0.93790
3522.27250	0.93812
3520.21870	0.93818
3518.16490	0.93818
3516.11109	0.93815
3514.05729	0.93863
3512.00349	0.93934
3509.94968	0.93921
3507.89588	0.93807
3505.84208	0.93723
3503.78827	0.93764
3501.73447	0.93835
3499.68067	0.93846
3497.62687	0.93838
3495.57306	0.93819
3493.51926	0.93785
3491.46546	0.93753
3489.41165	0.93732
3487.35785	0.93740
3485.30405	0.93777
3483.25024	0.93788
3481.19644	0.93745
3479.14264	0.93703
3477.08883	0.93715
3475.03503	0.93726
3472.98123	0.93696
3470.92742	0.93662
3468.87362	0.93648
3466.81982	0.93651
3464.76601	0.93646
3462.71221	0.93616
3460.65841	0.93539
3458.60460	0.93460
3456.55080	0.93461
3454.49700	0.93524
3452.44319	0.93555
3450.38939	0.93507
3448.33559	0.93444
3446.28178	0.93422
3444.22798	0.93407
3442.17418	0.93362
3440.12038	0.93317
3438.06657	0.93316
3436.01277	0.93348
3433.95897	0.93373
3431.90516	0.93382
3429.85136	0.93384
3427.79756	0.93374
3425.74375	0.93353
3423.68995	0.93329
3421.63615	0.93310
3419.58234	0.93317
3417.52854	0.93347
3415.47474	0.93394
3413.42093	0.93432
3411.36713	0.93412
3409.31333	0.93359
3407.25952	0.93347
3405.20572	0.93407
3403.15192	0.93460
3401.09811	0.93443
3399.04431	0.93406
3396.99051	0.93369
3394.93670	0.93338
3392.88290	0.93350
3390.82910	0.93360
3388.77529	0.93310
3386.72149	0.93269
3384.66769	0.93276
3382.61389	0.93305
3380.56008	0.93379
3378.50628	0.93469
3376.45248	0.93500
3374.39867	0.93484
3372.34487	0.93472
3370.29107	0.93492
3368.23726	0.93535
3366.18346	0.93544
3364.12966	0.93527
3362.07585	0.93541
3360.02205	0.93569
3357.96825	0.93602
3355.91444	0.93648
3353.86064	0.93667
3351.80684	0.93668
3349.75303	0.93683
3347.69923	0.93707
3345.64543	0.93725
3343.59162	0.93718
3341.53782	0.93699
3339.48402	0.93726
3337.43021	0.93798
3335.37641	0.93870
3333.32261	0.93916
3331.26881	0.93927
3329.21500	0.93909
3327.16120	0.93901
3325.10740	0.93944
3323.05359	0.94000
3320.99979	0.94007
3318.94599	0.94013
3316.89218	0.94073
3314.83838	0.94117
3312.78458	0.94097
3310.73077	0.94067
3308.67697	0.94026
3306.62317	0.93991
3304.56936	0.94019
3302.51556	0.94059
3300.46176	0.94054
3298.40795	0.94059
3296.35415	0.94132
3294.30035	0.94223
3292.24654	0.94262
3290.19274	0.94240
3288.13894	0.94212
3286.08513	0.94216
3284.03133	0.94249
3281.97753	0.94310
3279.92372	0.94362
3277.86992	0.94350
3275.81612	0.94325
3273.76232	0.94362
3271.70851	0.94385
3269.65471	0.94342
3267.60091	0.94320
3265.54710	0.94388
3263.49330	0.94490
3261.43950	0.94539
3259.38569	0.94539
3257.33189	0.94517
3255.27809	0.94509
3253.22428	0.94558
3251.17048	0.94639
3249.11668	0.94684
3247.06287	0.94679
3245.00907	0.94653
3242.95527	0.94629
3240.90146	0.94644
3238.84766	0.94674
3236.79386	0.94669
3234.74005	0.94665
3232.68625	0.94705
3230.63245	0.94747
3228.57864	0.94755
3226.52484	0.94789
3224.47104	0.94863
3222.41724	0.94912
3220.36343	0.94919
3218.30963	0.94932
3216.25583	0.94966
3214.20202	0.94983
3212.14822	0.94957
3210.09442	0.94952
3208.04061	0.95002
3205.98681	0.95041
3203.93301	0.95043
3201.87920	0.95019
3199.82540	0.95028
3197.77160	0.95124
3195.71779	0.95222
3193.66399	0.95227
3191.61019	0.95164
3189.55638	0.95104
3187.50258	0.95109
3185.44878	0.95174
3183.39497	0.95223
3181.34117	0.95252
3179.28737	0.95316
3177.23356	0.95365
3175.17976	0.95391
3173.12596	0.95446
3171.07215	0.95485
3169.01835	0.95496
3166.96455	0.95500
3164.91075	0.95491
3162.85694	0.95470
3160.80314	0.95450
3158.74934	0.95465
3156.69553	0.95495
3154.64173	0.95503
3152.58793	0.95514
3150.53412	0.95551
3148.48032	0.95596
3146.42652	0.95637
3144.37271	0.95677
3142.31891	0.95702
3140.26511	0.95711
3138.21130	0.95726
3136.15750	0.95741
3134.10370	0.95746
3132.04989	0.95774
3129.99609	0.95824
3127.94229	0.95875
3125.88848	0.95896
3123.83468	0.95864
3121.78088	0.95862
3119.72707	0.95916
3117.67327	0.95941
3115.61947	0.95923
3113.56566	0.95937
3111.51186	0.95994
3109.45806	0.96026
3107.40426	0.96007
3105.35045	0.95976
3103.29665	0.95989
3101.24285	0.96032
3099.18904	0.96043
3097.13524	0.96037
3095.08144	0.96045
3093.02763	0.96045
3090.97383	0.96029
3088.92003	0.96038
3086.86622	0.96068
3084.81242	0.96067
3082.75862	0.96067
3080.70481	0.96107
3078.65101	0.96109
3076.59721	0.96070
3074.54340	0.96078
3072.48960	0.96113
3070.43580	0.96129
3068.38199	0.96135
3066.32819	0.96151
3064.27439	0.96203
3062.22058	0.96267
3060.16678	0.96319
3058.11298	0.96361
3056.05918	0.96364
3054.00537	0.96327
3051.95157	0.96272
3049.89777	0.96235
3047.84396	0.96250
3045.79016	0.96291
3043.73636	0.96336
3041.68255	0.96375
3039.62875	0.96381
3037.57495	0.96361
3035.52114	0.96352
3033.46734	0.96358
3031.41354	0.96373
3029.35973	0.96395
3027.30593	0.96397
3025.25213	0.96385
3023.19832	0.96367
3021.14452	0.96351
3019.09072	0.96358
3017.03691	0.96361
3014.98311	0.96340
3012.92931	0.96330
3010.87550	0.96352
3008.82170	0.96393
3006.76790	0.96424
3004.71409	0.96417
3002.66029	0.96373
3000.60649	0.96337
2998.55269	0.96336
2996.49888	0.96336
2994.44508	0.96313
2992.39128	0.96258
2990.33747	0.96207
2988.28367	0.96182
2986.22987	0.96142
2984.17606	0.96068
2982.12226	0.95966
2980.06846	0.95843
2978.01465	0.95711
2975.96085	0.95577
2973.90705	0.95438
2971.85324	0.95279
2969.79944	0.95080
2967.74564	0.94846
2965.69183	0.94577
2963.63803	0.94265
2961.58423	0.93947
2959.53042	0.93706
2957.47662	0.93501
2955.42282	0.93274
2953.36901	0.93052
2951.31521	0.92816
2949.26141	0.92521
2947.20761	0.92091
2945.15380	0.91467
2943.10000	0.90641
2941.04620	0.89589
2938.99239	0.88278
2936.93859	0.86717
2934.88479	0.84981
2932.83098	0.83070
2930.77718	0.80874
2928.72338	0.78295
2926.66957	0.75299
2924.61577	0.71859
2922.56197	0.67967
2920.50816	0.63840
2918.45436	0.60107
2916.40056	0.57774
2914.34675	0.57683
2912.29295	0.59784
2910.23915	0.63075
2908.18534	0.66456
2906.13154	0.69391
2904.07774	0.71781
2902.02393	0.73693
2899.97013	0.75234
2897.91633	0.76539
2895.86252	0.77736
2893.80872	0.78886
2891.75492	0.80029
2889.70112	0.81175
2887.64731	0.82293
2885.59351	0.83400
2883.53971	0.84495
2881.48590	0.85543
2879.43210	0.86560
2877.37830	0.87489
2875.32449	0.88215
2873.27069	0.88727
2871.21689	0.89038
2869.16308	0.89128
2867.10928	0.89001
2865.05548	0.88577
2863.00167	0.87694
2860.94787	0.86211
2858.89407	0.83933
2856.84026	0.80620
2854.78646	0.76064
2852.73266	0.70404
2850.67885	0.64934
2848.62505	0.61934
2846.57125	0.62787
2844.51744	0.66701
2842.46364	0.71789
2840.40984	0.76632
2838.35603	0.80610
2836.30223	0.83644
2834.24843	0.85927
2832.19463	0.87647
2830.14082	0.88923
2828.08702	0.89894
2826.03322	0.90676
2823.97941	0.91330
2821.92561	0.91888
2819.87181	0.92355
2817.81800	0.92730
2815.76420	0.93043
2813.71040	0.93328
2811.65659	0.93587
2809.60279	0.93817
2807.54899	0.94028
2805.49518	0.94227
2803.44138	0.94404
2801.38758	0.94533
2799.33377	0.94630
2797.27997	0.94757
2795.22617	0.94912
2793.17236	0.95025
2791.11856	0.95094
2789.06476	0.95163
2787.01095	0.95242
2784.95715	0.95325
2782.90335	0.95425
2780.84955	0.95546
2778.79574	0.95663
2776.74194	0.95736
2774.68814	0.95766
2772.63433	0.95802
2770.58053	0.95864
2768.52673	0.95915
2766.47292	0.95936
2764.41912	0.95957
2762.36532	0.96001
2760.31151	0.96060
2758.25771	0.96124
2756.20391	0.96202
2754.15010	0.96272
2752.09630	0.96263
2750.04250	0.96203
2747.98869	0.96188
2745.93489	0.96211
2743.88109	0.96231
2741.82728	0.96243
2739.77348	0.96248
2737.71968	0.96254
2735.66587	0.96267
2733.61207	0.96294
2731.55827	0.96317
2729.50446	0.96328
2727.45066	0.96344
2725.39686	0.96366
2723.34306	0.96371
2721.28925	0.96369
2719.23545	0.96379
2717.18165	0.96397
2715.12784	0.96431
2713.07404	0.96468
2711.02024	0.96481
2708.96643	0.96488
2706.91263	0.96503
2704.85883	0.96523
2702.80502	0.96553
2700.75122	0.96582
2698.69742	0.96592
2696.64361	0.96571
2694.58981	0.96550
2692.53601	0.96546
2690.48220	0.96535
2688.42840	0.96556
2686.37460	0.96621
2684.32079	0.96659
2682.26699	0.96649
2680.21319	0.96646
2678.15938	0.96658
2676.10558	0.96648
2674.05178	0.96646
2671.99797	0.96685
2669.94417	0.96710
2667.89037	0.96672
2665.83657	0.96599
2663.78276	0.96538
2661.72896	0.96512
2659.67516	0.96513
2657.62135	0.96514
2655.56755	0.96521
2653.51375	0.96548
2651.45994	0.96555
2649.40614	0.96570
2647.35234	0.96643
2645.29853	0.96690
2643.24473	0.96652
2641.19093	0.96606
2639.13712	0.96609
2637.08332	0.96631
2635.02952	0.96618
2632.97571	0.96596
2630.92191	0.96635
2628.86811	0.96721
2626.81430	0.96794
2624.76050	0.96848
2622.70670	0.96871
2620.65289	0.96857
2618.59909	0.96870
2616.54529	0.96926
2614.49149	0.96936
2612.43768	0.96899
2610.38388	0.96918
2608.33008	0.97001
2606.27627	0.97060
2604.22247	0.97065
2602.16867	0.97031
2600.11486	0.96991
2598.06106	0.96976
2596.00726	0.97007
2593.95345	0.97070
2591.89965	0.97114
2589.84585	0.97166
2587.79204	0.97237
2585.73824	0.97269
2583.68444	0.97259
2581.63063	0.97254
2579.57683	0.97284
2577.52303	0.97311
2575.46922	0.97301
2573.41542	0.97273
2571.36162	0.97257
2569.30781	0.97267
2567.25401	0.97264
2565.20021	0.97243
2563.14640	0.97266
2561.09260	0.97329
2559.03880	0.97360
2556.98500	0.97339
2554.93119	0.97302
2552.87739	0.97263
2550.82359	0.97235
2548.76978	0.97240
2546.71598	0.97319
2544.66218	0.97423
2542.60837	0.97455
2540.55457	0.97440
2538.50077	0.97446
2536.44696	0.97474
2534.39316	0.97496
2532.33936	0.97492
2530.28555	0.97457
2528.23175	0.97403
2526.17795	0.97354
2524.12414	0.97339
2522.07034	0.97347
2520.01654	0.97361
2517.96273	0.97411
2515.90893	0.97497
2513.85513	0.97562
2511.80132	0.97587
2509.74752	0.97573
2507.69372	0.97512
2505.63992	0.97461
2503.58611	0.97493
2501.53231	0.97559
2499.47851	0.97573
2497.42470	0.97534
2495.37090	0.97503
2493.31710	0.97531
2491.26329	0.97577
2489.20949	0.97566
2487.15569	0.97537
2485.10188	0.97582
2483.04808	0.97651
2480.99428	0.97655
2478.94047	0.97638
2476.88667	0.97637
2474.83287	0.97651
2472.77906	0.97666
2470.72526	0.97635
2468.67146	0.97594
2466.61765	0.97577
2464.56385	0.97554
2462.51005	0.97559
2460.45624	0.97609
2458.40244	0.97644
2456.34864	0.97669
2454.29483	0.97704
2452.24103	0.97707
2450.18723	0.97676
2448.13343	0.97637
2446.07962	0.97631
2444.02582	0.97672
2441.97202	0.97693
2439.91821	0.97680
2437.86441	0.97696
2435.81061	0.97689
2433.75680	0.97608
2431.70300	0.97581
2429.64920	0.97671
2427.59539	0.97790
2425.54159	0.97850
2423.48779	0.97815
2421.43398	0.97711
2419.38018	0.97622
2417.32638	0.97622
2415.27257	0.97684
2413.21877	0.97718
2411.16497	0.97720
2409.11116	0.97738
2407.05736	0.97755
2405.00356	0.97760
2402.94975	0.97774
2400.89595	0.97760
2398.84215	0.97717
2396.78834	0.97706
2394.73454	0.97732
2392.68074	0.97750
2390.62694	0.97754
2388.57313	0.97764
2386.51933	0.97751
2384.46553	0.97721
2382.41172	0.97735
2380.35792	0.97782
2378.30412	0.97809
2376.25031	0.97812
2374.19651	0.97828
2372.14271	0.97873
2370.08890	0.97825
2368.03510	0.97669
2365.98130	0.97632
2363.92749	0.97706
2361.87369	0.97647
2359.81989	0.97555
2357.76608	0.97599
2355.71228	0.97664
2353.65848	0.97689
2351.60467	0.97718
2349.55087	0.97716
2347.49707	0.97654
2345.44326	0.97595
2343.38946	0.97565
2341.33566	0.97502
2339.28186	0.97455
2337.22805	0.97513
2335.17425	0.97600
2333.12045	0.97653
2331.06664	0.97698
2329.01284	0.97678
2326.95904	0.97569
2324.90523	0.97445
2322.85143	0.97355
2320.79763	0.97329
2318.74382	0.97373
2316.69002	0.97462
2314.63622	0.97550
2312.58241	0.97591
2310.52861	0.97602
2308.47481	0.97628
2306.42100	0.97635
2304.36720	0.97610
2302.31340	0.97597
2300.25959	0.97609
2298.20579	0.97600
2296.15199	0.97610
2294.09818	0.97702
2292.04438	0.97797
2289.99058	0.97814
2287.93677	0.97730
2285.88297	0.97592
2283.82917	0.97583
2281.77537	0.97731
2279.72156	0.97819
2277.66776	0.97795
2275.61396	0.97797
2273.56015	0.97809
2271.50635	0.97775
2269.45255	0.97763
2267.39874	0.97814
2265.34494	0.97778
2263.29114	0.97623
2261.23733	0.97601
2259.18353	0.97755
2257.12973	0.97933
2255.07592	0.98069
2253.02212	0.98095
2250.96832	0.98007
2248.91451	0.98006
2246.86071	0.98103
2244.80691	0.97987
2242.75310	0.97701
2240.69930	0.97589
2238.64550	0.97637
2236.59169	0.97675
2234.53789	0.97681
2232.48409	0.97725
2230.43029	0.97868
2228.37648	0.97913
2226.32268	0.97782
2224.26888	0.97719
2222.21507	0.97818
2220.16127	0.97973
2218.10747	0.98038
2216.05366	0.98018
2213.99986	0.98009
2211.94606	0.98054
2209.89225	0.98184
2207.83845	0.98286
2205.78465	0.98281
2203.73084	0.98254
2201.67704	0.98180
2199.62324	0.97979
2197.56943	0.97883
2195.51563	0.98036
2193.46183	0.98126
2191.40802	0.98047
2189.35422	0.98056
2187.30042	0.98178
2185.24661	0.98182
2183.19281	0.98165
2181.13901	0.98329
2179.08520	0.98470
2177.03140	0.98454
2174.97760	0.98383
2172.92380	0.98354
2170.86999	0.98282
2168.81619	0.98118
2166.76239	0.98150
2164.70858	0.98363
2162.65478	0.98438
2160.60098	0.98515
2158.54717	0.98714
2156.49337	0.98553
2154.43957	0.98244
2152.38576	0.98430
2150.33196	0.98559
2148.27816	0.98126
2146.22435	0.97795
2144.17055	0.97944
2142.11675	0.98159
2140.06294	0.98129
2138.00914	0.98062
2135.95534	0.98198
2133.90153	0.98395
2131.84773	0.98544
2129.79393	0.98647
2127.74012	0.98518
2125.68632	0.98169
2123.63252	0.97937
2121.57871	0.97891
2119.52491	0.97835
2117.47111	0.97825
2115.41731	0.97934
2113.36350	0.98003
2111.30970	0.97959
2109.25590	0.97931
2107.20209	0.97983
2105.14829	0.98017
2103.09449	0.98072
2101.04068	0.98170
2098.98688	0.98160
2096.93308	0.98081
2094.87927	0.98089
2092.82547	0.98158
2090.77167	0.98130
2088.71786	0.98013
2086.66406	0.97942
2084.61026	0.97928
2082.55645	0.97930
2080.50265	0.97894
2078.44885	0.97812
2076.39504	0.97847
2074.34124	0.98026
2072.28744	0.98162
2070.23363	0.98204
2068.17983	0.98228
2066.12603	0.98181
2064.07223	0.98031
2062.01842	0.97949
2059.96462	0.98034
2057.91082	0.98169
2055.85701	0.98221
2053.80321	0.98184
2051.74941	0.98033
2049.69560	0.97880
2047.64180	0.97884
2045.58800	0.97847
2043.53419	0.97785
2041.48039	0.97955
2039.42659	0.98121
2037.37278	0.97966
2035.31898	0.97855
2033.26518	0.98058
2031.21137	0.98232
2029.15757	0.98235
2027.10377	0.98006
2025.04996	0.97729
2022.99616	0.97919
2020.94236	0.98262
2018.88855	0.98283
2016.83475	0.98353
2014.78095	0.98547
2012.72714	0.98431
2010.67334	0.98022
2008.61954	0.97790
2006.56574	0.97975
2004.51193	0.98200
2002.45813	0.98202
2000.40433	0.98122
1998.35052	0.98051
1996.29672	0.98035
1994.24292	0.98087
1992.18911	0.98123
1990.13531	0.98155
1988.08151	0.98113
1986.02770	0.98028
1983.97390	0.98141
1981.92010	0.98241
1979.86629	0.98166
1977.81249	0.98217
1975.75869	0.98364
1973.70488	0.98448
1971.65108	0.98480
1969.59728	0.98342
1967.54347	0.98161
1965.48967	0.98147
1963.43587	0.98122
1961.38206	0.98050
1959.32826	0.98198
1957.27446	0.98448
1955.22066	0.98401
1953.16685	0.98173
1951.11305	0.98091
1949.05925	0.98097
1947.00544	0.98109
1944.95164	0.98118
1942.89784	0.98098
1940.84403	0.98111
1938.79023	0.98099
1936.73643	0.97998
1934.68262	0.97959
1932.62882	0.98011
1930.57502	0.98003
1928.52121	0.97972
1926.46741	0.98054
1924.41361	0.98193
1922.35980	0.98236
1920.30600	0.98132
1918.25220	0.97973
1916.19839	0.97917
1914.14459	0.97897
1912.09079	0.97835
1910.03698	0.97811
1907.98318	0.97824
1905.92938	0.97842
1903.87557	0.97846
1901.82177	0.97803
1899.76797	0.97779
1897.71417	0.97847
1895.66036	0.97931
1893.60656	0.97966
1891.55276	0.97962
1889.49895	0.97921
1887.44515	0.97887
1885.39135	0.97868
1883.33754	0.97801
1881.28374	0.97761
1879.22994	0.97829
1877.17613	0.97882
1875.12233	0.97820
1873.06853	0.97725
1871.01472	0.97753
1868.96092	0.97900
1866.90712	0.97956
1864.85331	0.97903
1862.79951	0.97894
1860.74571	0.97910
1858.69190	0.97872
1856.63810	0.97829
1854.58430	0.97803
1852.53049	0.97763
1850.47669	0.97734
1848.42289	0.97734
1846.36908	0.97760
1844.31528	0.97808
1842.26148	0.97834
1840.20768	0.97821
1838.15387	0.97799
1836.10007	0.97793
1834.04627	0.97821
1831.99246	0.97867
1829.93866	0.97896
1827.88486	0.97889
1825.83105	0.97819
1823.77725	0.97693
1821.72345	0.97602
1819.66964	0.97606
1817.61584	0.97657
1815.56204	0.97657
1813.50823	0.97628
1811.45443	0.97609
1809.40063	0.97572
1807.34682	0.97531
1805.29302	0.97482
1803.23922	0.97394
1801.18541	0.97290
1799.13161	0.97203
1797.07781	0.97142
1795.02400	0.97086
1792.97020	0.97016
1790.91640	0.96956
1788.86260	0.96896
1786.80879	0.96816
1784.75499	0.96762
1782.70119	0.96758
1780.64738	0.96752
1778.59358	0.96732
1776.53978	0.96733
1774.48597	0.96740
1772.43217	0.96691
1770.37837	0.96638
1768.32456	0.96649
1766.27076	0.96653
1764.21696	0.96633
1762.16315	0.96604
1760.10935	0.96566
1758.05555	0.96510
1756.00174	0.96419
1753.94794	0.96313
1751.89414	0.96148
1749.84033	0.95892
1747.78653	0.95635
1745.73273	0.95388
1743.67892	0.95106
1741.62512	0.94819
1739.57132	0.94580
1737.51751	0.94445
1735.46371	0.94425
1733.40991	0.94519
1731.35611	0.94601
1729.30230	0.94587
1727.24850	0.94499
1725.19470	0.94350
1723.14089	0.94160
1721.08709	0.93980
1719.03329	0.93839
1716.97948	0.93700
1714.92568	0.93585
1712.87188	0.93561
1710.81807	0.93610
1708.76427	0.93726
1706.71047	0.93918
1704.65666	0.94129
1702.60286	0.94273
1700.54906	0.94401
1698.49525	0.94582
1696.44145	0.94773
1694.38765	0.94909
1692.33384	0.94975
1690.28004	0.95004
1688.22624	0.94976
1686.17243	0.94936
1684.11863	0.94958
1682.06483	0.94979
1680.01103	0.94944
1677.95722	0.94892
1675.90342	0.94828
1673.84962	0.94766
1671.79581	0.94740
1669.74201	0.94696
1667.68821	0.94589
1665.63440	0.94515
1663.58060	0.94486
1661.52680	0.94438
1659.47299	0.94382
1657.41919	0.94338
1655.36539	0.94286
1653.31158	0.94211
1651.25778	0.94171
1649.20398	0.94158
1647.15017	0.94149
1645.09637	0.94154
1643.04257	0.94156
1640.98876	0.94170
1638.93496	0.94209
1636.88116	0.94235
1634.82735	0.94246
1632.77355	0.94269
1630.71975	0.94264
1628.66594	0.94267
1626.61214	0.94337
1624.55834	0.94419
1622.50454	0.94454
1620.45073	0.94458
1618.39693	0.94460
1616.34313	0.94506
1614.28932	0.94590
1612.23552	0.94655
1610.18172	0.94698
1608.12791	0.94721
1606.07411	0.94736
1604.02031	0.94769
1601.96650	0.94808
1599.91270	0.94817
1597.85890	0.94841
1595.80509	0.94912
1593.75129	0.94955
1591.69749	0.94964
1589.64368	0.94985
1587.58988	0.95020
1585.53608	0.95058
1583.48227	0.95092
1581.42847	0.95118
1579.37467	0.95147
1577.32086	0.95187
1575.26706	0.95202
1573.21326	0.95190
1571.15945	0.95184
1569.10565	0.95170
1567.05185	0.95158
1564.99805	0.95173
1562.94424	0.95201
1560.89044	0.95230
1558.83664	0.95245
1556.78283	0.95198
1554.72903	0.95141
1552.67523	0.95088
1550.62142	0.95041
1548.56762	0.95008
1546.51382	0.94993
1544.46001	0.94983
1542.40621	0.94953
1540.35241	0.94887
1538.29860	0.94795
1536.24480	0.94687
1534.19100	0.94569
1532.13719	0.94505
1530.08339	0.94471
1528.02959	0.94416
1525.97578	0.94321
1523.92198	0.94190
1521.86818	0.94048
1519.81437	0.93944
1517.76057	0.93843
1515.70677	0.93671
1513.65297	0.93491
1511.59916	0.93368
1509.54536	0.93275
1507.49156	0.93117
1505.43775	0.92878
1503.38395	0.92720
1501.33015	0.92585
1499.27634	0.92425
1497.22254	0.92240
1495.16874	0.92045
1493.11493	0.91906
1491.06113	0.91770
1489.00733	0.91552
1486.95352	0.91306
1484.89972	0.91082
1482.84592	0.90819
1480.79211	0.90411
1478.73831	0.89571
1476.68451	0.87437
1474.63070	0.83310
1472.57690	0.79087
1470.52310	0.78160
1468.46929	0.79070
1466.41549	0.79615
1464.36169	0.79522
1462.30788	0.79939
1460.25408	0.81461
1458.20028	0.83638
1456.14648	0.85493
1454.09267	0.86498
1452.03887	0.87300
1449.98507	0.88052
1447.93126	0.88676
1445.87746	0.89146
1443.82366	0.89481
1441.76985	0.89743
1439.71605	0.89946
1437.66225	0.90107
1435.60844	0.90300
1433.55464	0.90536
1431.50084	0.90803
1429.44703	0.91081
1427.39323	0.91286
1425.33943	0.91428
1423.28562	0.91570
1421.23182	0.91711
1419.17802	0.91874
1417.12421	0.92059
1415.07041	0.92219
1413.01661	0.92352
1410.96280	0.92478
1408.90900	0.92651
1406.85520	0.92897
1404.80139	0.93166
1402.74759	0.93353
1400.69379	0.93480
1398.63999	0.93640
1396.58618	0.93806
1394.53238	0.93920
1392.47858	0.93999
1390.42477	0.94062
1388.37097	0.94095
1386.31717	0.94071
1384.26336	0.93975
1382.20956	0.93797
1380.15576	0.93576
1378.10195	0.93434
1376.04815	0.93444
1373.99435	0.93531
1371.94054	0.93581
1369.88674	0.93600
1367.83294	0.93650
1365.77913	0.93732
1363.72533	0.93828
1361.67153	0.93944
1359.61772	0.94041
1357.56392	0.94113
1355.51012	0.94158
1353.45631	0.94167
1351.40251	0.94190
1349.34871	0.94248
1347.29491	0.94316
1345.24110	0.94379
1343.18730	0.94441
1341.13350	0.94514
1339.07969	0.94592
1337.02589	0.94633
1334.97209	0.94642
1332.91828	0.94659
1330.86448	0.94663
1328.81068	0.94625
1326.75687	0.94587
1324.70307	0.94569
1322.64927	0.94535
1320.59546	0.94492
1318.54166	0.94458
1316.48786	0.94420
1314.43405	0.94382
1312.38025	0.94362
1310.32645	0.94338
1308.27264	0.94298
1306.21884	0.94255
1304.16504	0.94221
1302.11123	0.94175
1300.05743	0.94097
1298.00363	0.94043
1295.94982	0.94035
1293.89602	0.94026
1291.84222	0.93998
1289.78842	0.93968
1287.73461	0.93921
1285.68081	0.93869
1283.62701	0.93854
1281.57320	0.93841
1279.51940	0.93797
1277.46560	0.93750
1275.41179	0.93714
1273.35799	0.93673
1271.30419	0.93626
1269.25038	0.93586
1267.19658	0.93555
1265.14278	0.93522
1263.08897	0.93458
1261.03517	0.93354
1258.98137	0.93261
1256.92756	0.93219
1254.87376	0.93210
1252.81996	0.93175
1250.76615	0.93086
1248.71235	0.92994
1246.65855	0.92935
1244.60474	0.92880
1242.55094	0.92804
1240.49714	0.92721
1238.44334	0.92646
1236.38953	0.92587
1234.33573	0.92527
1232.28193	0.92444
1230.22812	0.92362
1228.17432	0.92287
1226.12052	0.92162
1224.06671	0.91968
1222.01291	0.91768
1219.95911	0.91613
1217.90530	0.91474
1215.85150	0.91289
1213.79770	0.91024
1211.74389	0.90695
1209.69009	0.90352
1207.63629	0.90025
1205.58248	0.89696
1203.52868	0.89337
1201.47488	0.88956
1199.42107	0.88567
1197.36727	0.88153
1195.31347	0.87708
1193.25966	0.87249
1191.20586	0.86769
1189.15206	0.86250
1187.09825	0.85730
1185.04445	0.85257
1182.99065	0.84792
1180.93685	0.84279
1178.88304	0.83753
1176.82924	0.83262
1174.77544	0.82796
1172.72163	0.82354
1170.66783	0.81936
1168.61403	0.81514
1166.56022	0.81094
1164.50642	0.80739
1162.45262	0.80505
1160.39881	0.80401
1158.34501	0.80327
1156.29121	0.80185
1154.23740	0.79982
1152.18360	0.79763
1150.12980	0.79547
1148.07599	0.79313
1146.02219	0.79091
1143.96839	0.78901
1141.91458	0.78702
1139.86078	0.78469
1137.80698	0.78217
1135.75317	0.77966
1133.69937	0.77693
1131.64557	0.77366
1129.59176	0.76971
1127.53796	0.76501
1125.48416	0.75993
1123.43036	0.75451
1121.37655	0.74808
1119.32275	0.74097
1117.26895	0.73374
1115.21514	0.72610
1113.16134	0.71825
1111.10754	0.71101
1109.05373	0.70441
1106.99993	0.69812
1104.94613	0.69257
1102.89232	0.68769
1100.83852	0.68276
1098.78472	0.67781
1096.73091	0.67330
1094.67711	0.66951
1092.62331	0.66621
1090.56950	0.66302
1088.51570	0.66014
1086.46190	0.65750
1084.40809	0.65487
1082.35429	0.65272
1080.30049	0.65075
1078.24668	0.64837
1076.19288	0.64587
1074.13908	0.64335
1072.08528	0.64065
1070.03147	0.63742
1067.97767	0.63338
1065.92387	0.62883
1063.87006	0.62419
1061.81626	0.61918
1059.76246	0.61362
1057.70865	0.60789
1055.65485	0.60186
1053.60105	0.59529
1051.54724	0.58845
1049.49344	0.58107
1047.43964	0.57282
1045.38583	0.56402
1043.33203	0.55481
1041.27823	0.54529
1039.22442	0.53593
1037.17062	0.52701
1035.11682	0.51901
1033.06301	0.51227
1031.00921	0.50671
1028.95541	0.50240
1026.90160	0.49908
1024.84780	0.49636
1022.79400	0.49407
1020.74019	0.49175
1018.68639	0.48938
1016.63259	0.48723
1014.57879	0.48533
1012.52498	0.48357
1010.47118	0.48201
1008.41738	0.48072
1006.36357	0.47993
1004.30977	0.48055
1002.25597	0.48307
1000.20216	0.48664
998.14836	0.49043
996.09456	0.49491
994.04075	0.50051
991.98695	0.50688
989.93315	0.51398
987.87934	0.52192
985.82554	0.53090
983.77174	0.54162
981.71793	0.55409
979.66413	0.56738
977.61033	0.58119
975.55652	0.59566
973.50272	0.61050
971.44892	0.62523
969.39511	0.63944
967.34131	0.65281
965.28751	0.66513
963.23371	0.67640
961.17990	0.68665
959.12610	0.69583
957.07230	0.70394
955.01849	0.71120
952.96469	0.71778
950.91089	0.72392
948.85708	0.72979
946.80328	0.73519
944.74948	0.74004
942.69567	0.74447
940.64187	0.74883
938.58807	0.75348
936.53426	0.75842
934.48046	0.76335
932.42666	0.76774
930.37285	0.77138
928.31905	0.77464
926.26525	0.77765
924.21144	0.78000
922.15764	0.78158
920.10384	0.78273
918.05003	0.78328
915.99623	0.78307
913.94243	0.78303
911.88862	0.78422
909.83482	0.78720
907.78102	0.79256
905.72722	0.80032
903.67341	0.80931
901.61961	0.81794
899.56581	0.82529
897.51200	0.83183
895.45820	0.83791
893.40440	0.84297
891.35059	0.84697
889.29679	0.85048
887.24299	0.85408
885.18918	0.85685
883.13538	0.85785
881.08158	0.85767
879.02777	0.85712
876.97397	0.85733
874.92017	0.85990
872.86636	0.86486
870.81256	0.86949
868.75876	0.87166
866.70495	0.87180
864.65115	0.87121
862.59735	0.87115
860.54354	0.87260
858.48974	0.87607
856.43594	0.88147
854.38213	0.88757
852.32833	0.89231
850.27453	0.89478
848.22073	0.89617
846.16692	0.89713
844.11312	0.89702
842.05932	0.89637
840.00551	0.89557
837.95171	0.89360
835.89791	0.89025
833.84410	0.88704
831.79030	0.88537
829.73650	0.88479
827.68269	0.88433
825.62889	0.88423
823.57509	0.88519
821.52128	0.88672
819.46748	0.88718
817.41368	0.88662
815.35987	0.88618
813.30607	0.88516
811.25227	0.88253
809.19846	0.87791
807.14466	0.87099
805.09086	0.86224
803.03705	0.85293
800.98325	0.84519
798.92945	0.84140
796.87565	0.84198
794.82184	0.84531
792.76804	0.84921
790.71424	0.85198
788.66043	0.85292
786.60663	0.85206
784.55283	0.85022
782.49902	0.84791
780.44522	0.84553
778.39142	0.84490
776.33761	0.84735
774.28381	0.85167
772.23001	0.85536
770.17620	0.85702
768.12240	0.85625
766.06860	0.85346
764.01479	0.85019
761.96099	0.84786
759.90719	0.84688
757.85338	0.84714
755.79958	0.84783
753.74578	0.84806
751.69197	0.84854
749.63817	0.84886
747.58437	0.84792
745.53056	0.84730
743.47676	0.84879
741.42296	0.85110
739.36916	0.85184
737.31535	0.84993
735.26155	0.84084
733.20775	0.81755
731.15394	0.78898
729.10014	0.77717
727.04634	0.78217
724.99253	0.78190
722.93873	0.76201
720.88493	0.72539
718.83112	0.69667
716.77732	0.70239
714.72352	0.73818
712.66971	0.77931
710.61591	0.80812
708.56211	0.82326
706.50830	0.83040
704.45450	0.83276
702.40070	0.83203
700.34689	0.83015
698.29309	0.82812
696.23929	0.82723
694.18548	0.82864
692.13168	0.83148
690.07788	0.83404
688.02408	0.83599
685.97027	0.83710
683.91647	0.83699
681.86267	0.83674
679.80886	0.83681
677.75506	0.83669
675.70126	0.83645
673.64745	0.83646
671.59365	0.83708
669.53985	0.83745
667.48604	0.83639
665.43224	0.83507
663.37844	0.83424
661.32463	0.83310
659.27083	0.83069
657.21703	0.82690
655.16322	0.82254
653.10942	0.81849
651.05562	0.81561
649.00181	0.81495
646.94801	0.81643
644.89421	0.81810
642.84040	0.81923
640.78660	0.82103
638.73280	0.82339
636.67899	0.82573
634.62519	0.82821
632.57139	0.82946
630.51759	0.82892
628.46378	0.82821
626.40998	0.82779
624.35618	0.82667
622.30237	0.82467
620.24857	0.82228
618.19477	0.81904
616.14096	0.81485
614.08716	0.81075
612.03336	0.80668
609.97955	0.80324
607.92575	0.80154
605.87195	0.79975
603.81814	0.79568
601.76434	0.79013
599.71054	0.78496
597.65673	0.78011
595.60293	0.77550
593.54913	0.77246
591.49532	0.76978
589.44152	0.76626
587.38772	0.76417
585.33391	0.76468
583.28011	0.76573
581.22631	0.76594
579.17250	0.76560
577.11870	0.76472
575.06490	0.76298
573.01110	0.76037
570.95729	0.75737
568.90349	0.75340
566.84969	0.74813
564.79588	0.74290
562.74208	0.73829
560.68828	0.73405
558.63447	0.72979
556.58067	0.72488
554.52687	0.71951
552.47306	0.71398
550.41926	0.70830
548.36546	0.70350
546.31165	0.69872
544.25785	0.69109
542.20405	0.68189
540.15024	0.67429
538.09644	0.66717
536.04264	0.65995
533.98883	0.65515
531.93503	0.65285
529.88123	0.65240
527.82742	0.65404
525.77362	0.65690
523.71982	0.66026
521.66602	0.66422
519.61221	0.66857
517.55841	0.67303
515.50461	0.67843
513.45080	0.68427
511.39700	0.68874
509.34320	0.69322
507.28939	0.69904
505.23559	0.70248
503.18179	0.70163
501.12798	0.69979
499.07418	0.69960
497.02038	0.69996
494.96657	0.69809
492.91277	0.69393
490.85897	0.68788
488.80516	0.67764
486.75136	0.66412
484.69756	0.64903
482.64375	0.63165
480.58995	0.61331
478.53615	0.59700
476.48234	0.58312
474.42854	0.57001
472.37474	0.55795
470.32093	0.54969
468.26713	0.54653
466.21333	0.54688
464.15953	0.55056
462.10572	0.55774
460.05192	0.56682
457.99812	0.57938
455.94431	0.59411
453.89051	0.60623
451.83671	0.61671
449.78290	0.62562
447.72910	0.63173
445.67530	0.63585
443.62149	0.63838
441.56769	0.63860
439.51389	0.63721
437.46008	0.63559
435.40628	0.63440
433.35248	0.63411
431.29867	0.63375
429.24487	0.63273
427.19107	0.63397
425.13726	0.63917
423.08346	0.64589
421.02966	0.65115
418.97585	0.65853
416.92205	0.67015
414.86825	0.67908
412.81445	0.68420
410.76064	0.69110
408.70684	0.70393
406.65304	0.71187
404.59923	0.70635
402.54543	0.69781
400.49163	0.69630
398.43782	0.70019
