3996.70104	0.99310
3994.64724	0.99352
3992.59344	0.99357
3990.53964	0.99372
3988.48583	0.99413
3986.43203	0.99372
3984.37823	0.99275
3982.32442	0.99258
3980.27062	0.99304
3978.21682	0.99338
3976.16301	0.99363
3974.10921	0.99387
3972.05541	0.99419
3970.00160	0.99452
3967.94780	0.99462
3965.89400	0.99449
3963.84019	0.99417
3961.78639	0.99361
3959.73259	0.99306
3957.67878	0.99294
3955.62498	0.99310
3953.57118	0.99298
3951.51737	0.99279
3949.46357	0.99294
3947.40977	0.99296
3945.35596	0.99292
3943.30216	0.99321
3941.24836	0.99356
3939.19455	0.99376
3937.14075	0.99352
3935.08695	0.99293
3933.03315	0.99279
3930.97934	0.99348
3928.92554	0.99384
3926.87174	0.99333
3924.81793	0.99310
3922.76413	0.99338
3920.71033	0.99326
3918.65652	0.99314
3916.60272	0.99350
3914.54892	0.99354
3912.49511	0.99304
3910.44131	0.99286
3908.38751	0.99312
3906.33370	0.99328
3904.27990	0.99339
3902.22610	0.99369
3900.17229	0.99373
3898.11849	0.99335
3896.06469	0.99299
3894.01088	0.99269
3891.95708	0.99245
3889.90328	0.99262
3887.84947	0.99332
3885.79567	0.99393
3883.74187	0.99331
3881.68807	0.99239
3879.63426	0.99252
3877.58046	0.99304
3875.52666	0.99316
3873.47285	0.99286
3871.41905	0.99241
3869.36525	0.99287
3867.31144	0.99419
3865.25764	0.99476
3863.20384	0.99430
3861.15003	0.99404
3859.09623	0.99399
3857.04243	0.99349
3854.98862	0.99334
3852.93482	0.99428
3850.88102	0.99417
3848.82721	0.99349
3846.77341	0.99336
3844.71961	0.99331
3842.66580	0.99281
3840.61200	0.99224
3838.55820	0.99202
3836.50439	0.99213
3834.45059	0.99287
3832.39679	0.99384
3830.34298	0.99408
3828.28918	0.99366
3826.23538	0.99331
3824.18158	0.99326
3822.12777	0.99312
3820.07397	0.99304
3818.02017	0.99357
3815.96636	0.99396
3813.91256	0.99367
3811.85876	0.99332
3809.80495	0.99310
3807.75115	0.99306
3805.69735	0.99346
3803.64354	0.99361
3801.58974	0.99353
3799.53594	0.99374
3797.48213	0.99348
3795.42833	0.99309
3793.37453	0.99320
3791.32072	0.99324
3789.26692	0.99309
3787.21312	0.99319
3785.15931	0.99330
3783.10551	0.99352
3781.05171	0.99408
3778.99790	0.99415
3776.94410	0.99349
3774.89030	0.99324
3772.83650	0.99343
3770.78269	0.99321
3768.72889	0.99261
3766.67509	0.99237
3764.62128	0.99273
3762.56748	0.99331
3760.51368	0.99361
3758.45987	0.99365
3756.40607	0.99374
3754.35227	0.99381
3752.29846	0.99380
3750.24466	0.99359
3748.19086	0.99289
3746.13705	0.99268
3744.08325	0.99367
3742.02945	0.99473
3739.97564	0.99483
3737.92184	0.99432
3735.86804	0.99420
3733.81423	0.99470
3731.76043	0.99493
3729.70663	0.99505
3727.65282	0.99517
3725.59902	0.99508
3723.54522	0.99474
3721.49141	0.99435
3719.43761	0.99418
3717.38381	0.99413
3715.33001	0.99386
3713.27620	0.99307
3711.22240	0.99231
3709.16860	0.99233
3707.11479	0.99211
3705.06099	0.99180
3703.00719	0.99205
3700.95338	0.99227
3698.89958	0.99237
3696.84578	0.99260
3694.79197	0.99240
3692.73817	0.99199
3690.68437	0.99243
3688.63056	0.99322
3686.57676	0.99275
3684.52296	0.99200
3682.46915	0.99187
3680.41535	0.99224
3678.36155	0.99281
3676.30774	0.99318
3674.25394	0.99359
3672.20014	0.99394
3670.14633	0.99364
3668.09253	0.99289
3666.03873	0.99240
3663.98492	0.99199
3661.93112	0.99163
3659.87732	0.99161
3657.82352	0.99168
3655.76971	0.99148
3653.71591	0.99105
3651.66211	0.99103
3649.60830	0.99220
3647.55450	0.99272
3645.50070	0.99199
3643.44689	0.99213
3641.39309	0.99306
3639.33929	0.99343
3637.28548	0.99310
3635.23168	0.99279
3633.17788	0.99236
3631.12407	0.99177
3629.07027	0.99113
3627.01647	0.99084
3624.96266	0.99113
3622.90886	0.99124
3620.85506	0.99088
3618.80125	0.99064
3616.74745	0.99107
3614.69365	0.99165
3612.63984	0.99163
3610.58604	0.99085
3608.53224	0.99041
3606.47844	0.99095
3604.42463	0.99146
3602.37083	0.99126
3600.31703	0.99085
3598.26322	0.99073
3596.20942	0.99053
3594.15562	0.99020
3592.10181	0.99031
3590.04801	0.99037
3587.99421	0.99002
3585.94040	0.99018
3583.88660	0.99074
3581.83280	0.99097
3579.77899	0.99112
3577.72519	0.99172
3575.67139	0.99252
3573.61758	0.99251
3571.56378	0.99165
3569.50998	0.99108
3567.45617	0.99104
3565.40237	0.99051
3563.34857	0.98983
3561.29476	0.98998
3559.24096	0.99088
3557.18716	0.99165
3555.13335	0.99176
3553.07955	0.99120
3551.02575	0.99025
3548.97195	0.98948
3546.91814	0.98913
3544.86434	0.98941
3542.81054	0.99025
3540.75673	0.99099
3538.70293	0.99128
3536.64913	0.99137
3534.59532	0.99148
3532.54152	0.99134
3530.48772	0.99105
3528.43391	0.99093
3526.38011	0.99075
3524.32631	0.99043
3522.27250	0.99025
3520.21870	0.99026
3518.16490	0.99030
3516.11109	0.99040
3514.05729	0.99067
3512.00349	0.99090
3509.94968	0.99069
3507.89588	0.99036
3505.84208	0.99042
3503.78827	0.99094
3501.73447	0.99170
3499.68067	0.99219
3497.62687	0.99236
3495.57306	0.99225
3493.51926	0.99167
3491.46546	0.99123
3489.41165	0.99138
3487.35785	0.99139
3485.30405	0.99098
3483.25024	0.99067
3481.19644	0.99036
3479.14264	0.98999
3477.08883	0.99000
3475.03503	0.99026
3472.98123	0.99036
3470.92742	0.99018
3468.87362	0.98981
3466.81982	0.98949
3464.76601	0.98937
3462.71221	0.98952
3460.65841	0.98968
3458.60460	0.98955
3456.55080	0.98934
3454.49700	0.98931
3452.44319	0.98969
3450.38939	0.99028
3448.33559	0.99050
3446.28178	0.99034
3444.22798	0.98992
3442.17418	0.98972
3440.12038	0.98994
3438.06657	0.98994
3436.01277	0.98963
3433.95897	0.98940
3431.90516	0.98934
3429.85136	0.98951
3427.79756	0.98980
3425.74375	0.98996
3423.68995	0.99001
3421.63615	0.98990
3419.58234	0.98981
3417.52854	0.98991
3415.47474	0.98993
3413.42093	0.98952
3411.36713	0.98882
3409.31333	0.98883
3407.25952	0.98967
3405.20572	0.99024
3403.15192	0.98998
3401.09811	0.98943
3399.04431	0.98949
3396.99051	0.98992
3394.93670	0.98993
3392.88290	0.98973
3390.82910	0.98977
3388.77529	0.98959
3386.72149	0.98903
3384.66769	0.98876
3382.61389	0.98878
3380.56008	0.98901
3378.50628	0.98964
3376.45248	0.99004
3374.39867	0.98965
3372.34487	0.98893
3370.29107	0.98883
3368.23726	0.98928
3366.18346	0.98945
3364.12966	0.98907
3362.07585	0.98887
3360.02205	0.98922
3357.96825	0.98950
3355.91444	0.98952
3353.86064	0.98974
3351.80684	0.98983
3349.75303	0.98943
3347.69923	0.98914
3345.64543	0.98956
3343.59162	0.99026
3341.53782	0.99053
3339.48402	0.99028
3337.43021	0.98982
3335.37641	0.98947
3333.32261	0.98967
3331.26881	0.99018
3329.21500	0.99031
3327.16120	0.99021
3325.10740	0.99023
3323.05359	0.99022
3320.99979	0.99006
3318.94599	0.99002
3316.89218	0.99005
3314.83838	0.98994
3312.78458	0.99005
3310.73077	0.99017
3308.67697	0.98977
3306.62317	0.98960
3304.56936	0.98979
3302.51556	0.98962
3300.46176	0.98933
3298.40795	0.98937
3296.35415	0.98968
3294.30035	0.99010
3292.24654	0.99029
3290.19274	0.98982
3288.13894	0.98933
3286.08513	0.98964
3284.03133	0.99027
3281.97753	0.99077
3279.92372	0.99099
3277.86992	0.99073
3275.81612	0.99036
3273.76232	0.99029
3271.70851	0.99025
3269.65471	0.98972
3267.60091	0.98904
3265.54710	0.98897
3263.49330	0.98944
3261.43950	0.98983
3259.38569	0.98993
3257.33189	0.98982
3255.27809	0.98948
3253.22428	0.98942
3251.17048	0.98986
3249.11668	0.99010
3247.06287	0.99004
3245.00907	0.99010
3242.95527	0.99021
3240.90146	0.99015
3238.84766	0.99001
3236.79386	0.99009
3234.74005	0.99021
3232.68625	0.99009
3230.63245	0.99022
3228.57864	0.99051
3226.52484	0.99047
3224.47104	0.99024
3222.41724	0.98993
3220.36343	0.98972
3218.30963	0.99018
3216.25583	0.99086
3214.20202	0.99080
3212.14822	0.99029
3210.09442	0.99019
3208.04061	0.99039
3205.98681	0.99020
3203.93301	0.98989
3201.87920	0.98982
3199.82540	0.98932
3197.77160	0.98862
3195.71779	0.98880
3193.66399	0.98978
3191.61019	0.99050
3189.55638	0.99041
3187.50258	0.98994
3185.44878	0.99010
3183.39497	0.99104
3181.34117	0.99164
3179.28737	0.99126
3177.23356	0.99064
3175.17976	0.99049
3173.12596	0.99085
3171.07215	0.99125
3169.01835	0.99138
3166.96455	0.99141
3164.91075	0.99114
3162.85694	0.99048
3160.80314	0.99017
3158.74934	0.99066
3156.69553	0.99138
3154.64173	0.99158
3152.58793	0.99155
3150.53412	0.99188
3148.48032	0.99214
3146.42652	0.99185
3144.37271	0.99142
3142.31891	0.99123
3140.26511	0.99108
3138.21130	0.99086
3136.15750	0.99069
3134.10370	0.99092
3132.04989	0.99162
3129.99609	0.99178
3127.94229	0.99119
3125.88848	0.99092
3123.83468	0.99109
3121.78088	0.99118
3119.72707	0.99134
3117.67327	0.99147
3115.61947	0.99129
3113.56566	0.99132
3111.51186	0.99157
3109.45806	0.99131
3107.40426	0.99081
3105.35045	0.99076
3103.29665	0.99105
3101.24285	0.99153
3099.18904	0.99214
3097.13524	0.99237
3095.08144	0.99185
3093.02763	0.99129
3090.97383	0.99130
3088.92003	0.99159
3086.86622	0.99149
3084.81242	0.99071
3082.75862	0.99020
3080.70481	0.99073
3078.65101	0.99123
3076.59721	0.99087
3074.54340	0.99033
3072.48960	0.99027
3070.43580	0.99076
3068.38199	0.99150
3066.32819	0.99195
3064.27439	0.99198
3062.22058	0.99166
3060.16678	0.99113
3058.11298	0.99089
3056.05918	0.99118
3054.00537	0.99157
3051.95157	0.99178
3049.89777	0.99188
3047.84396	0.99203
3045.79016	0.99215
3043.73636	0.99213
3041.68255	0.99213
3039.62875	0.99210
3037.57495	0.99194
3035.52114	0.99163
3033.46734	0.99115
3031.41354	0.99097
3029.35973	0.99143
3027.30593	0.99173
3025.25213	0.99117
3023.19832	0.99064
3021.14452	0.99082
3019.09072	0.99120
3017.03691	0.99151
3014.98311	0.99163
3012.92931	0.99144
3010.87550	0.99128
3008.82170	0.99122
3006.76790	0.99121
3004.71409	0.99145
3002.66029	0.99149
3000.60649	0.99119
2998.55269	0.99132
2996.49888	0.99188
2994.44508	0.99217
2992.39128	0.99190
2990.33747	0.99175
2988.28367	0.99227
2986.22987	0.99258
2984.17606	0.99219
2982.12226	0.99207
2980.06846	0.99237
2978.01465	0.99250
2975.96085	0.99279
2973.90705	0.99346
2971.85324	0.99384
2969.79944	0.99378
2967.74564	0.99364
2965.69183	0.99359
2963.63803	0.99369
2961.58423	0.99368
2959.53042	0.99338
2957.47662	0.99329
2955.42282	0.99381
2953.36901	0.99460
2951.31521	0.99502
2949.26141	0.99484
2947.20761	0.99441
2945.15380	0.99427
2943.10000	0.99440
2941.04620	0.99440
2938.99239	0.99438
2936.93859	0.99475
2934.88479	0.99547
2932.83098	0.99616
2930.77718	0.99628
2928.72338	0.99585
2926.66957	0.99572
2924.61577	0.99600
2922.56197	0.99595
2920.50816	0.99560
2918.45436	0.99553
2916.40056	0.99564
2914.34675	0.99517
2912.29295	0.99411
2910.23915	0.99353
2908.18534	0.99355
2906.13154	0.99352
2904.07774	0.99347
2902.02393	0.99346
2899.97013	0.99334
2897.91633	0.99322
2895.86252	0.99298
2893.80872	0.99269
2891.75492	0.99263
2889.70112	0.99272
2887.64731	0.99273
2885.59351	0.99268
2883.53971	0.99265
2881.48590	0.99283
2879.43210	0.99337
2877.37830	0.99394
2875.32449	0.99416
2873.27069	0.99398
2871.21689	0.99361
2869.16308	0.99331
2867.10928	0.99315
2865.05548	0.99328
2863.00167	0.99357
2860.94787	0.99366
2858.89407	0.99376
2856.84026	0.99427
2854.78646	0.99487
2852.73266	0.99497
2850.67885	0.99441
2848.62505	0.99367
2846.57125	0.99319
2844.51744	0.99280
2842.46364	0.99251
2840.40984	0.99236
2838.35603	0.99232
2836.30223	0.99254
2834.24843	0.99269
2832.19463	0.99274
2830.14082	0.99290
2828.08702	0.99295
2826.03322	0.99262
2823.97941	0.99210
2821.92561	0.99185
2819.87181	0.99195
2817.81800	0.99215
2815.76420	0.99235
2813.71040	0.99260
2811.65659	0.99272
2809.60279	0.99266
2807.54899	0.99261
2805.49518	0.99255
2803.44138	0.99249
2801.38758	0.99245
2799.33377	0.99240
2797.27997	0.99246
2795.22617	0.99266
2793.17236	0.99273
2791.11856	0.99244
2789.06476	0.99204
2787.01095	0.99217
2784.95715	0.99273
2782.90335	0.99283
2780.84955	0.99248
2778.79574	0.99226
2776.74194	0.99219
2774.68814	0.99229
2772.63433	0.99271
2770.58053	0.99304
2768.52673	0.99290
2766.47292	0.99257
2764.41912	0.99236
2762.36532	0.99235
2760.31151	0.99262
2758.25771	0.99294
2756.20391	0.99321
2754.15010	0.99335
2752.09630	0.99278
2750.04250	0.99187
2747.98869	0.99151
2745.93489	0.99162
2743.88109	0.99183
2741.82728	0.99221
2739.77348	0.99269
2737.71968	0.99280
2735.66587	0.99261
2733.61207	0.99259
2731.55827	0.99279
2729.50446	0.99304
2727.45066	0.99328
2725.39686	0.99318
2723.34306	0.99269
2721.28925	0.99246
2719.23545	0.99270
2717.18165	0.99274
2715.12784	0.99252
2713.07404	0.99263
2711.02024	0.99284
2708.96643	0.99274
2706.91263	0.99257
2704.85883	0.99242
2702.80502	0.99221
2700.75122	0.99224
2698.69742	0.99259
2696.64361	0.99279
2694.58981	0.99276
2692.53601	0.99278
2690.48220	0.99260
2688.42840	0.99225
2686.37460	0.99224
2684.32079	0.99247
2682.26699	0.99273
2680.21319	0.99290
2678.15938	0.99274
2676.10558	0.99256
2674.05178	0.99255
2671.99797	0.99245
2669.94417	0.99235
2667.89037	0.99243
2665.83657	0.99267
2663.78276	0.99288
2661.72896	0.99281
2659.67516	0.99272
2657.62135	0.99270
2655.56755	0.99251
2653.51375	0.99238
2651.45994	0.99231
2649.40614	0.99205
2647.35234	0.99200
2645.29853	0.99225
2643.24473	0.99251
2641.19093	0.99261
2639.13712	0.99248
2637.08332	0.99222
2635.02952	0.99215
2632.97571	0.99220
2630.92191	0.99213
2628.86811	0.99216
2626.81430	0.99236
2624.76050	0.99241
2622.70670	0.99219
2620.65289	0.99198
2618.59909	0.99207
2616.54529	0.99246
2614.49149	0.99283
2612.43768	0.99279
2610.38388	0.99248
2608.33008	0.99229
2606.27627	0.99223
2604.22247	0.99203
2602.16867	0.99206
2600.11486	0.99243
2598.06106	0.99243
2596.00726	0.99202
2593.95345	0.99188
2591.89965	0.99199
2589.84585	0.99202
2587.79204	0.99212
2585.73824	0.99233
2583.68444	0.99255
2581.63063	0.99266
2579.57683	0.99257
2577.52303	0.99250
2575.46922	0.99247
2573.41542	0.99252
2571.36162	0.99260
2569.30781	0.99268
2567.25401	0.99294
2565.20021	0.99304
2563.14640	0.99278
2561.09260	0.99267
2559.03880	0.99272
2556.98500	0.99276
2554.93119	0.99296
2552.87739	0.99309
2550.82359	0.99295
2548.76978	0.99274
2546.71598	0.99252
2544.66218	0.99233
2542.60837	0.99207
2540.55457	0.99209
2538.50077	0.99291
2536.44696	0.99355
2534.39316	0.99333
2532.33936	0.99322
2530.28555	0.99352
2528.23175	0.99376
2526.17795	0.99377
2524.12414	0.99363
2522.07034	0.99345
2520.01654	0.99301
2517.96273	0.99255
2515.90893	0.99247
2513.85513	0.99222
2511.80132	0.99163
2509.74752	0.99142
2507.69372	0.99167
2505.63992	0.99185
2503.58611	0.99199
2501.53231	0.99234
2499.47851	0.99249
2497.42470	0.99233
2495.37090	0.99238
2493.31710	0.99264
2491.26329	0.99299
2489.20949	0.99306
2487.15569	0.99246
2485.10188	0.99155
2483.04808	0.99107
2480.99428	0.99135
2478.94047	0.99180
2476.88667	0.99205
2474.83287	0.99219
2472.77906	0.99189
2470.72526	0.99142
2468.67146	0.99137
2466.61765	0.99169
2464.56385	0.99213
2462.51005	0.99264
2460.45624	0.99325
2458.40244	0.99319
2456.34864	0.99231
2454.29483	0.99192
2452.24103	0.99241
2450.18723	0.99287
2448.13343	0.99276
2446.07962	0.99222
2444.02582	0.99190
2441.97202	0.99234
2439.91821	0.99300
2437.86441	0.99333
2435.81061	0.99346
2433.75680	0.99307
2431.70300	0.99251
2429.64920	0.99278
2427.59539	0.99334
2425.54159	0.99339
2423.48779	0.99319
2421.43398	0.99270
2419.38018	0.99209
2417.32638	0.99193
2415.27257	0.99235
2413.21877	0.99300
2411.16497	0.99342
2409.11116	0.99350
2407.05736	0.99353
2405.00356	0.99381
2402.94975	0.99398
2400.89595	0.99354
2398.84215	0.99290
2396.78834	0.99274
2394.73454	0.99310
2392.68074	0.99347
2390.62694	0.99323
2388.57313	0.99264
2386.51933	0.99267
2384.46553	0.99310
2382.41172	0.99307
2380.35792	0.99287
2378.30412	0.99315
2376.25031	0.99346
2374.19651	0.99333
2372.14271	0.99319
2370.08890	0.99271
2368.03510	0.99204
2365.98130	0.99236
2363.92749	0.99322
2361.87369	0.99347
2359.81989	0.99330
2357.76608	0.99361
2355.71228	0.99434
2353.65848	0.99462
2351.60467	0.99399
2349.55087	0.99311
2347.49707	0.99279
2345.44326	0.99290
2343.38946	0.99290
2341.33566	0.99307
2339.28186	0.99334
2337.22805	0.99378
2335.17425	0.99445
2333.12045	0.99447
2331.06664	0.99384
2329.01284	0.99295
2326.95904	0.99196
2324.90523	0.99147
2322.85143	0.99196
2320.79763	0.99248
2318.74382	0.99220
2316.69002	0.99226
2314.63622	0.99281
2312.58241	0.99275
2310.52861	0.99215
2308.47481	0.99182
2306.42100	0.99171
2304.36720	0.99178
2302.31340	0.99247
2300.25959	0.99344
2298.20579	0.99363
2296.15199	0.99283
2294.09818	0.99176
2292.04438	0.99116
2289.99058	0.99123
2287.93677	0.99127
2285.88297	0.99097
2283.82917	0.99095
2281.77537	0.99149
2279.72156	0.99181
2277.66776	0.99154
2275.61396	0.99149
2273.56015	0.99136
2271.50635	0.99131
2269.45255	0.99195
2267.39874	0.99170
2265.34494	0.99049
2263.29114	0.99084
2261.23733	0.99242
2259.18353	0.99262
2257.12973	0.99139
2255.07592	0.99074
2253.02212	0.99175
2250.96832	0.99287
2248.91451	0.99238
2246.86071	0.99152
2244.80691	0.99101
2242.75310	0.98982
2240.69930	0.98893
2238.64550	0.99004
2236.59169	0.99191
2234.53789	0.99261
2232.48409	0.99266
2230.43029	0.99298
2228.37648	0.99334
2226.32268	0.99311
2224.26888	0.99256
2222.21507	0.99230
2220.16127	0.99201
2218.10747	0.99155
2216.05366	0.99164
2213.99986	0.99171
2211.94606	0.99103
2209.89225	0.99077
2207.83845	0.99102
2205.78465	0.99024
2203.73084	0.98938
2201.67704	0.99087
2199.62324	0.99313
2197.56943	0.99396
2195.51563	0.99465
2193.46183	0.99509
2191.40802	0.99381
2189.35422	0.99166
2187.30042	0.99092
2185.24661	0.99225
2183.19281	0.99369
2181.13901	0.99430
2179.08520	0.99440
2177.03140	0.99413
2174.97760	0.99476
2172.92380	0.99516
2170.86999	0.99366
2168.81619	0.99138
2166.76239	0.98923
2164.70858	0.98804
2162.65478	0.98950
2160.60098	0.99314
2158.54717	0.99509
2156.49337	0.99494
2154.43957	0.99623
2152.38576	0.99878
2150.33196	0.99922
2148.27816	0.99716
2146.22435	0.99475
2144.17055	0.99338
2142.11675	0.99384
2140.06294	0.99462
2138.00914	0.99501
2135.95534	0.99503
2133.90153	0.99440
2131.84773	0.99421
2129.79393	0.99432
2127.74012	0.99458
2125.68632	0.99476
2123.63252	0.99345
2121.57871	0.99252
2119.52491	0.99374
2117.47111	0.99418
2115.41731	0.99334
2113.36350	0.99332
2111.30970	0.99399
2109.25590	0.99471
2107.20209	0.99465
2105.14829	0.99362
2103.09449	0.99250
2101.04068	0.99165
2098.98688	0.99117
2096.93308	0.99119
2094.87927	0.99149
2092.82547	0.99168
2090.77167	0.99169
2088.71786	0.99187
2086.66406	0.99218
2084.61026	0.99213
2082.55645	0.99251
2080.50265	0.99371
2078.44885	0.99344
2076.39504	0.99199
2074.34124	0.99150
2072.28744	0.99119
2070.23363	0.99132
2068.17983	0.99250
2066.12603	0.99344
2064.07223	0.99356
2062.01842	0.99300
2059.96462	0.99250
2057.91082	0.99231
2055.85701	0.99211
2053.80321	0.99275
2051.74941	0.99414
2049.69560	0.99445
2047.64180	0.99327
2045.58800	0.99218
2043.53419	0.99214
2041.48039	0.99249
2039.42659	0.99266
2037.37278	0.99218
2035.31898	0.99098
2033.26518	0.99149
2031.21137	0.99330
2029.15757	0.99296
2027.10377	0.99197
2025.04996	0.99336
2022.99616	0.99463
2020.94236	0.99252
2018.88855	0.99116
2016.83475	0.99436
2014.78095	0.99747
2012.72714	0.99716
2010.67334	0.99554
2008.61954	0.99439
2006.56574	0.99436
2004.51193	0.99576
2002.45813	0.99653
2000.40433	0.99557
1998.35052	0.99440
1996.29672	0.99297
1994.24292	0.99201
1992.18911	0.99253
1990.13531	0.99287
1988.08151	0.99206
1986.02770	0.99122
1983.97390	0.99056
1981.92010	0.98995
1979.86629	0.99140
1977.81249	0.99396
1975.75869	0.99394
1973.70488	0.99329
1971.65108	0.99421
1969.59728	0.99537
1967.54347	0.99578
1965.48967	0.99430
1963.43587	0.99306
1961.38206	0.99467
1959.32826	0.99623
1957.27446	0.99600
1955.22066	0.99591
1953.16685	0.99612
1951.11305	0.99584
1949.05925	0.99516
1947.00544	0.99510
1944.95164	0.99594
1942.89784	0.99622
1940.84403	0.99500
1938.79023	0.99343
1936.73643	0.99321
1934.68262	0.99413
1932.62882	0.99431
1930.57502	0.99373
1928.52121	0.99355
1926.46741	0.99400
1924.41361	0.99452
1922.35980	0.99444
1920.30600	0.99400
1918.25220	0.99388
1916.19839	0.99417
1914.14459	0.99438
1912.09079	0.99373
1910.03698	0.99262
1907.98318	0.99257
1905.92938	0.99287
1903.87557	0.99274
1901.82177	0.99315
1899.76797	0.99406
1897.71417	0.99449
1895.66036	0.99399
1893.60656	0.99316
1891.55276	0.99282
1889.49895	0.99291
1887.44515	0.99314
1885.39135	0.99318
1883.33754	0.99274
1881.28374	0.99201
1879.22994	0.99171
1877.17613	0.99232
1875.12233	0.99335
1873.06853	0.99343
1871.01472	0.99293
1868.96092	0.99346
1866.90712	0.99411
1864.85331	0.99344
1862.79951	0.99231
1860.74571	0.99202
1858.69190	0.99242
1856.63810	0.99268
1854.58430	0.99326
1852.53049	0.99456
1850.47669	0.99542
1848.42289	0.99506
1846.36908	0.99424
1844.31528	0.99365
1842.26148	0.99357
1840.20768	0.99390
1838.15387	0.99424
1836.10007	0.99429
1834.04627	0.99438
1831.99246	0.99451
1829.93866	0.99395
1827.88486	0.99298
1825.83105	0.99259
1823.77725	0.99269
1821.72345	0.99268
1819.66964	0.99254
1817.61584	0.99260
1815.56204	0.99288
1813.50823	0.99307
1811.45443	0.99318
1809.40063	0.99339
1807.34682	0.99369
1805.29302	0.99412
1803.23922	0.99439
1801.18541	0.99411
1799.13161	0.99337
1797.07781	0.99288
1795.02400	0.99293
1792.97020	0.99309
1790.91640	0.99285
1788.86260	0.99272
1786.80879	0.99309
1784.75499	0.99337
1782.70119	0.99335
1780.64738	0.99344
1778.59358	0.99360
1776.53978	0.99362
1774.48597	0.99345
1772.43217	0.99327
1770.37837	0.99344
1768.32456	0.99358
1766.27076	0.99354
1764.21696	0.99359
1762.16315	0.99366
1760.10935	0.99350
1758.05555	0.99325
1756.00174	0.99328
1753.94794	0.99341
1751.89414	0.99334
1749.84033	0.99366
1747.78653	0.99434
1745.73273	0.99441
1743.67892	0.99405
1741.62512	0.99397
1739.57132	0.99439
1737.51751	0.99473
1735.46371	0.99454
1733.40991	0.99417
1731.35611	0.99394
1729.30230	0.99352
1727.24850	0.99311
1725.19470	0.99302
1723.14089	0.99317
1721.08709	0.99331
1719.03329	0.99330
1716.97948	0.99370
1714.92568	0.99443
1712.87188	0.99460
1710.81807	0.99435
1708.76427	0.99390
1706.71047	0.99349
1704.65666	0.99350
1702.60286	0.99326
1700.54906	0.99229
1698.49525	0.99166
1696.44145	0.99195
1694.38765	0.99261
1692.33384	0.99281
1690.28004	0.99243
1688.22624	0.99208
1686.17243	0.99213
1684.11863	0.99241
1682.06483	0.99241
1680.01103	0.99183
1677.95722	0.99111
1675.90342	0.99089
1673.84962	0.99112
1671.79581	0.99129
1669.74201	0.99141
1667.68821	0.99105
1665.63440	0.99044
1663.58060	0.99030
1661.52680	0.99071
1659.47299	0.99096
1657.41919	0.99074
1655.36539	0.99039
1653.31158	0.99010
1651.25778	0.98998
1649.20398	0.98969
1647.15017	0.98937
1645.09637	0.98973
1643.04257	0.99018
1640.98876	0.99016
1638.93496	0.99003
1636.88116	0.99013
1634.82735	0.99038
1632.77355	0.99052
1630.71975	0.99043
1628.66594	0.99016
1626.61214	0.99006
1624.55834	0.99026
1622.50454	0.99047
1620.45073	0.99052
1618.39693	0.99043
1616.34313	0.99036
1614.28932	0.99043
1612.23552	0.99050
1610.18172	0.99053
1608.12791	0.99035
1606.07411	0.98986
1604.02031	0.98941
1601.96650	0.98928
1599.91270	0.98947
1597.85890	0.98979
1595.80509	0.99010
1593.75129	0.99042
1591.69749	0.99069
1589.64368	0.99091
1587.58988	0.99101
1585.53608	0.99076
1583.48227	0.99046
1581.42847	0.99039
1579.37467	0.99051
1577.32086	0.99071
1575.26706	0.99090
1573.21326	0.99106
1571.15945	0.99123
1569.10565	0.99118
1567.05185	0.99091
1564.99805	0.99070
1562.94424	0.99067
1560.89044	0.99092
1558.83664	0.99136
1556.78283	0.99141
1554.72903	0.99115
1552.67523	0.99090
1550.62142	0.99059
1548.56762	0.99012
1546.51382	0.98985
1544.46001	0.99010
1542.40621	0.99080
1540.35241	0.99146
1538.29860	0.99136
1536.24480	0.99099
1534.19100	0.99078
1532.13719	0.99102
1530.08339	0.99150
1528.02959	0.99167
1525.97578	0.99157
1523.92198	0.99173
1521.86818	0.99185
1519.81437	0.99136
1517.76057	0.99089
1515.70677	0.99085
1513.65297	0.99100
1511.59916	0.99129
1509.54536	0.99165
1507.49156	0.99162
1505.43775	0.99134
1503.38395	0.99146
1501.33015	0.99148
1499.27634	0.99084
1497.22254	0.98942
1495.16874	0.98777
1493.11493	0.98678
1491.06113	0.98695
1489.00733	0.98819
1486.95352	0.98922
1484.89972	0.98965
1482.84592	0.98984
1480.79211	0.99009
1478.73831	0.99040
1476.68451	0.99050
1474.63070	0.99038
1472.57690	0.99067
1470.52310	0.99105
1468.46929	0.99110
1466.41549	0.99119
1464.36169	0.99134
1462.30788	0.99133
1460.25408	0.99113
1458.20028	0.99064
1456.14648	0.98934
1454.09267	0.98783
1452.03887	0.98704
1449.98507	0.98720
1447.93126	0.98780
1445.87746	0.98832
1443.82366	0.98883
1441.76985	0.98920
1439.71605	0.98929
1437.66225	0.98954
1435.60844	0.99008
1433.55464	0.99020
1431.50084	0.99019
1429.44703	0.99037
1427.39323	0.99055
1425.33943	0.99057
1423.28562	0.99044
1421.23182	0.99053
1419.17802	0.99101
1417.12421	0.99110
1415.07041	0.99067
1413.01661	0.99064
1410.96280	0.99103
1408.90900	0.99113
1406.85520	0.99101
1404.80139	0.99115
1402.74759	0.99150
1400.69379	0.99169
1398.63999	0.99144
1396.58618	0.99087
1394.53238	0.99085
1392.47858	0.99146
1390.42477	0.99190
1388.37097	0.99198
1386.31717	0.99182
1384.26336	0.99152
1382.20956	0.99133
1380.15576	0.99140
1378.10195	0.99151
1376.04815	0.99141
1373.99435	0.99126
1371.94054	0.99136
1369.88674	0.99151
1367.83294	0.99163
1365.77913	0.99196
1363.72533	0.99230
1361.67153	0.99220
1359.61772	0.99174
1357.56392	0.99167
1355.51012	0.99212
1353.45631	0.99237
1351.40251	0.99222
1349.34871	0.99205
1347.29491	0.99207
1345.24110	0.99217
1343.18730	0.99216
1341.13350	0.99192
1339.07969	0.99173
1337.02589	0.99195
1334.97209	0.99234
1332.91828	0.99250
1330.86448	0.99237
1328.81068	0.99201
1326.75687	0.99180
1324.70307	0.99215
1322.64927	0.99241
1320.59546	0.99197
1318.54166	0.99145
1316.48786	0.99138
1314.43405	0.99160
1312.38025	0.99203
1310.32645	0.99227
1308.27264	0.99208
1306.21884	0.99188
1304.16504	0.99203
1302.11123	0.99223
1300.05743	0.99216
1298.00363	0.99192
1295.94982	0.99170
1293.89602	0.99157
1291.84222	0.99157
1289.78842	0.99173
1287.73461	0.99196
1285.68081	0.99207
1283.62701	0.99212
1281.57320	0.99206
1279.51940	0.99186
1277.46560	0.99170
1275.41179	0.99178
1273.35799	0.99215
1271.30419	0.99249
1269.25038	0.99255
1267.19658	0.99243
1265.14278	0.99223
1263.08897	0.99207
1261.03517	0.99202
1258.98137	0.99199
1256.92756	0.99208
1254.87376	0.99239
1252.81996	0.99252
1250.76615	0.99215
1248.71235	0.99175
1246.65855	0.99167
1244.60474	0.99154
1242.55094	0.99136
1240.49714	0.99140
1238.44334	0.99143
1236.38953	0.99124
1234.33573	0.99117
1232.28193	0.99123
1230.22812	0.99116
1228.17432	0.99110
1226.12052	0.99084
1224.06671	0.99046
1222.01291	0.99037
1219.95911	0.99037
1217.90530	0.99004
1215.85150	0.98958
1213.79770	0.98944
1211.74389	0.98935
1209.69009	0.98906
1207.63629	0.98870
1205.58248	0.98812
1203.52868	0.98748
1201.47488	0.98708
1199.42107	0.98677
1197.36727	0.98641
1195.31347	0.98603
1193.25966	0.98555
1191.20586	0.98496
1189.15206	0.98447
1187.09825	0.98417
1185.04445	0.98357
1182.99065	0.98250
1180.93685	0.98179
1178.88304	0.98149
1176.82924	0.98098
1174.77544	0.98019
1172.72163	0.97923
1170.66783	0.97848
1168.61403	0.97814
1166.56022	0.97781
1164.50642	0.97738
1162.45262	0.97715
1160.39881	0.97732
1158.34501	0.97757
1156.29121	0.97737
1154.23740	0.97681
1152.18360	0.97629
1150.12980	0.97574
1148.07599	0.97506
1146.02219	0.97464
1143.96839	0.97461
1141.91458	0.97432
1139.86078	0.97380
1137.80698	0.97365
1135.75317	0.97326
1133.69937	0.97205
1131.64557	0.97077
1129.59176	0.96989
1127.53796	0.96942
1125.48416	0.96891
1123.43036	0.96785
1121.37655	0.96663
1119.32275	0.96561
1117.26895	0.96466
1115.21514	0.96382
1113.16134	0.96291
1111.10754	0.96174
1109.05373	0.96086
1106.99993	0.96034
1104.94613	0.95971
1102.89232	0.95900
1100.83852	0.95843
1098.78472	0.95796
1096.73091	0.95753
1094.67711	0.95720
1092.62331	0.95695
1090.56950	0.95653
1088.51570	0.95569
1086.46190	0.95493
1084.40809	0.95467
1082.35429	0.95435
1080.30049	0.95368
1078.24668	0.95295
1076.19288	0.95245
1074.13908	0.95199
1072.08528	0.95120
1070.03147	0.95035
1067.97767	0.94958
1065.92387	0.94884
1063.87006	0.94830
1061.81626	0.94790
1059.76246	0.94711
1057.70865	0.94602
1055.65485	0.94494
1053.60105	0.94376
1051.54724	0.94238
1049.49344	0.94061
1047.43964	0.93875
1045.38583	0.93693
1043.33203	0.93501
1041.27823	0.93301
1039.22442	0.93084
1037.17062	0.92906
1035.11682	0.92757
1033.06301	0.92566
1031.00921	0.92381
1028.95541	0.92283
1026.90160	0.92247
1024.84780	0.92201
1022.79400	0.92152
1020.74019	0.92122
1018.68639	0.92085
1016.63259	0.92052
1014.57879	0.92006
1012.52498	0.91909
1010.47118	0.91816
1008.41738	0.91760
1006.36357	0.91724
1004.30977	0.91725
1002.25597	0.91751
1000.20216	0.91764
998.14836	0.91787
996.09456	0.91844
994.04075	0.91896
991.98695	0.91931
989.93315	0.91984
987.87934	0.92083
985.82554	0.92212
983.77174	0.92329
981.71793	0.92447
979.66413	0.92624
977.61033	0.92823
975.55652	0.92989
973.50272	0.93174
971.44892	0.93415
969.39511	0.93658
967.34131	0.93856
965.28751	0.93995
963.23371	0.94126
961.17990	0.94320
959.12610	0.94511
957.07230	0.94627
955.01849	0.94716
952.96469	0.94822
950.91089	0.94943
948.85708	0.95055
946.80328	0.95142
944.74948	0.95227
942.69567	0.95309
940.64187	0.95352
938.58807	0.95379
936.53426	0.95428
934.48046	0.95488
932.42666	0.95545
930.37285	0.95615
928.31905	0.95707
926.26525	0.95771
924.21144	0.95747
922.15764	0.95671
920.10384	0.95642
918.05003	0.95663
915.99623	0.95679
913.94243	0.95668
911.88862	0.95626
909.83482	0.95585
907.78102	0.95599
905.72722	0.95669
903.67341	0.95761
901.61961	0.95883
899.56581	0.96020
897.51200	0.96159
895.45820	0.96317
893.40440	0.96451
891.35059	0.96525
889.29679	0.96594
887.24299	0.96680
885.18918	0.96774
883.13538	0.96872
881.08158	0.96913
879.02777	0.96880
876.97397	0.96856
874.92017	0.96905
872.86636	0.96988
870.81256	0.97034
868.75876	0.97067
866.70495	0.97130
864.65115	0.97209
862.59735	0.97277
860.54354	0.97319
858.48974	0.97367
856.43594	0.97449
854.38213	0.97519
852.32833	0.97522
850.27453	0.97483
848.22073	0.97468
846.16692	0.97482
844.11312	0.97500
842.05932	0.97513
840.00551	0.97491
837.95171	0.97436
835.89791	0.97390
833.84410	0.97365
831.79030	0.97398
829.73650	0.97493
827.68269	0.97587
825.62889	0.97632
823.57509	0.97603
821.52128	0.97538
819.46748	0.97499
817.41368	0.97463
815.35987	0.97464
813.30607	0.97531
811.25227	0.97530
809.19846	0.97364
807.14466	0.97144
805.09086	0.96994
803.03705	0.96871
800.98325	0.96732
798.92945	0.96667
796.87565	0.96687
794.82184	0.96717
792.76804	0.96734
790.71424	0.96757
788.66043	0.96776
786.60663	0.96757
784.55283	0.96702
782.49902	0.96629
780.44522	0.96577
778.39142	0.96559
776.33761	0.96560
774.28381	0.96566
772.23001	0.96574
770.17620	0.96580
768.12240	0.96511
766.06860	0.96377
764.01479	0.96279
761.96099	0.96161
759.90719	0.95968
757.85338	0.95805
755.79958	0.95743
753.74578	0.95811
751.69197	0.95940
749.63817	0.95997
747.58437	0.96042
745.53056	0.96128
743.47676	0.96192
741.42296	0.96225
739.36916	0.96290
737.31535	0.96446
735.26155	0.96681
733.20775	0.96884
731.15394	0.96957
729.10014	0.96976
727.04634	0.97033
724.99253	0.97126
722.93873	0.97179
720.88493	0.97156
718.83112	0.97149
716.77732	0.97157
714.72352	0.97126
712.66971	0.97075
710.61591	0.96949
708.56211	0.96715
706.50830	0.96427
704.45450	0.95981
702.40070	0.95267
700.34689	0.94405
698.29309	0.93650
696.23929	0.93371
694.18548	0.93759
692.13168	0.94566
690.07788	0.95361
688.02408	0.95860
685.97027	0.96058
683.91647	0.96088
681.86267	0.96060
679.80886	0.96055
677.75506	0.96033
675.70126	0.95971
673.64745	0.96020
671.59365	0.96170
669.53985	0.96321
667.48604	0.96513
665.43224	0.96626
663.37844	0.96582
661.32463	0.96431
659.27083	0.96286
657.21703	0.96280
655.16322	0.96359
653.10942	0.96394
651.05562	0.96434
649.00181	0.96441
646.94801	0.96367
644.89421	0.96344
642.84040	0.96377
640.78660	0.96393
638.73280	0.96366
636.67899	0.96371
634.62519	0.96498
632.57139	0.96565
630.51759	0.96413
628.46378	0.96211
626.40998	0.96151
624.35618	0.96280
622.30237	0.96437
620.24857	0.96406
618.19477	0.96287
616.14096	0.96334
614.08716	0.96484
612.03336	0.96459
609.97955	0.96268
607.92575	0.96124
605.87195	0.96022
603.81814	0.95894
601.76434	0.95854
599.71054	0.95933
597.65673	0.96033
595.60293	0.96073
593.54913	0.95993
591.49532	0.95832
589.44152	0.95622
587.38772	0.95444
585.33391	0.95416
583.28011	0.95490
581.22631	0.95514
579.17250	0.95382
577.11870	0.95248
575.06490	0.95303
573.01110	0.95332
570.95729	0.95182
568.90349	0.95056
566.84969	0.94945
564.79588	0.94759
562.74208	0.94598
560.68828	0.94431
558.63447	0.94207
556.58067	0.93947
554.52687	0.93591
552.47306	0.93254
550.41926	0.93107
548.36546	0.93012
546.31165	0.92869
544.25785	0.92641
542.20405	0.92300
540.15024	0.92021
538.09644	0.91776
536.04264	0.91487
533.98883	0.91353
531.93503	0.91406
529.88123	0.91439
527.82742	0.91380
525.77362	0.91228
523.71982	0.91028
521.66602	0.91025
519.61221	0.91376
517.55841	0.91813
515.50461	0.92022
513.45080	0.92003
511.39700	0.91871
509.34320	0.91879
507.28939	0.92158
505.23559	0.92456
503.18179	0.92454
501.12798	0.92273
499.07418	0.92264
497.02038	0.92289
494.96657	0.92074
492.91277	0.91770
490.85897	0.91585
488.80516	0.91374
486.75136	0.91005
484.69756	0.90491
482.64375	0.90074
480.58995	0.89869
478.53615	0.89495
476.48234	0.88884
474.42854	0.88326
472.37474	0.87993
470.32093	0.87870
468.26713	0.87669
466.21333	0.87387
464.15953	0.87315
462.10572	0.87431
460.05192	0.87641
457.99812	0.87876
455.94431	0.88071
453.89051	0.88311
451.83671	0.88558
449.78290	0.88846
447.72910	0.88932
445.67530	0.88508
443.62149	0.88121
441.56769	0.88283
439.51389	0.88619
437.46008	0.88837
435.40628	0.88888
433.35248	0.88725
431.29867	0.88737
429.24487	0.89154
427.19107	0.89587
425.13726	0.89415
423.08346	0.88676
421.02966	0.88457
418.97585	0.89219
416.92205	0.89599
414.86825	0.89341
412.81445	0.89406
410.76064	0.89764
408.70684	0.90004
406.65304	0.90237
404.59923	0.90290
402.54543	0.89695
400.49163	0.88720
398.43782	0.88686
