3996.71440	0.98590
3994.66059	0.98623
3992.60678	0.98670
3990.55297	0.98683
3988.49916	0.98652
3986.44535	0.98618
3984.39154	0.98619
3982.33773	0.98651
3980.28391	0.98666
3978.23010	0.98676
3976.17629	0.98701
3974.12248	0.98702
3972.06867	0.98683
3970.01486	0.98687
3967.96105	0.98705
3965.90724	0.98703
3963.85343	0.98682
3961.79962	0.98669
3959.74581	0.98671
3957.69200	0.98664
3955.63819	0.98642
3953.58438	0.98627
3951.53057	0.98634
3949.47676	0.98666
3947.42295	0.98701
3945.36914	0.98703
3943.31533	0.98695
3941.26152	0.98690
3939.20771	0.98658
3937.15390	0.98624
3935.10009	0.98633
3933.04628	0.98669
3930.99247	0.98682
3928.93866	0.98678
3926.88485	0.98676
3924.83104	0.98661
3922.77723	0.98640
3920.72342	0.98627
3918.66961	0.98619
3916.61580	0.98643
3914.56199	0.98695
3912.50818	0.98723
3910.45437	0.98714
3908.40056	0.98685
3906.34675	0.98655
3904.29294	0.98649
3902.23913	0.98687
3900.18532	0.98736
3898.13151	0.98745
3896.07770	0.98726
3894.02389	0.98691
3891.97008	0.98639
3889.91627	0.98614
3887.86246	0.98642
3885.80865	0.98679
3883.75484	0.98684
3881.70103	0.98672
3879.64722	0.98680
3877.59341	0.98694
3875.53960	0.98680
3873.48579	0.98643
3871.43198	0.98611
3869.37817	0.98627
3867.32436	0.98689
3865.27055	0.98733
3863.21674	0.98745
3861.16293	0.98742
3859.10912	0.98737
3857.05531	0.98737
3855.00150	0.98746
3852.94769	0.98769
3850.89388	0.98785
3848.84007	0.98773
3846.78626	0.98748
3844.73245	0.98736
3842.67864	0.98738
3840.62483	0.98714
3838.57102	0.98664
3836.51721	0.98650
3834.46340	0.98683
3832.40959	0.98706
3830.35578	0.98702
3828.30197	0.98694
3826.24816	0.98696
3824.19435	0.98720
3822.14054	0.98751
3820.08673	0.98756
3818.03292	0.98751
3815.97911	0.98750
3813.92530	0.98732
3811.87149	0.98724
3809.81768	0.98738
3807.76387	0.98744
3805.71006	0.98714
3803.65625	0.98715
3801.60244	0.98779
3799.54863	0.98777
3797.49482	0.98733
3795.44101	0.98738
3793.38720	0.98732
3791.33339	0.98709
3789.27958	0.98695
3787.22577	0.98691
3785.17196	0.98710
3783.11815	0.98730
3781.06434	0.98727
3779.01053	0.98725
3776.95672	0.98706
3774.90291	0.98654
3772.84910	0.98631
3770.79529	0.98668
3768.74148	0.98709
3766.68767	0.98706
3764.63386	0.98685
3762.58005	0.98672
3760.52624	0.98654
3758.47243	0.98651
3756.41862	0.98670
3754.36481	0.98666
3752.31100	0.98632
3750.25719	0.98596
3748.20338	0.98597
3746.14957	0.98641
3744.09576	0.98728
3742.04195	0.98758
3739.98814	0.98727
3737.93433	0.98694
3735.88052	0.98667
3733.82671	0.98663
3731.77290	0.98685
3729.71909	0.98721
3727.66528	0.98753
3725.61147	0.98758
3723.55766	0.98738
3721.50385	0.98710
3719.45004	0.98706
3717.39623	0.98727
3715.34242	0.98742
3713.28861	0.98735
3711.23480	0.98700
3709.18099	0.98677
3707.12718	0.98689
3705.07337	0.98694
3703.01956	0.98686
3700.96575	0.98689
3698.91194	0.98699
3696.85813	0.98703
3694.80432	0.98712
3692.75051	0.98728
3690.69670	0.98736
3688.64289	0.98716
3686.58907	0.98706
3684.53526	0.98742
3682.48145	0.98793
3680.42764	0.98820
3678.37383	0.98830
3676.32002	0.98835
3674.26621	0.98808
3672.21240	0.98741
3670.15859	0.98693
3668.10478	0.98723
3666.05097	0.98773
3663.99716	0.98792
3661.94335	0.98805
3659.88954	0.98833
3657.83573	0.98845
3655.78192	0.98822
3653.72811	0.98781
3651.67430	0.98724
3649.62049	0.98666
3647.56668	0.98643
3645.51287	0.98661
3643.45906	0.98707
3641.40525	0.98764
3639.35144	0.98789
3637.29763	0.98752
3635.24382	0.98695
3633.19001	0.98668
3631.13620	0.98651
3629.08239	0.98620
3627.02858	0.98609
3624.97477	0.98619
3622.92096	0.98636
3620.86715	0.98662
3618.81334	0.98688
3616.75953	0.98690
3614.70572	0.98674
3612.65191	0.98670
3610.59810	0.98685
3608.54429	0.98693
3606.49048	0.98694
3604.43667	0.98706
3602.38286	0.98737
3600.32905	0.98742
3598.27524	0.98665
3596.22143	0.98575
3594.16762	0.98550
3592.11381	0.98577
3590.06000	0.98609
3588.00619	0.98623
3585.95238	0.98631
3583.89857	0.98658
3581.84476	0.98697
3579.79095	0.98715
3577.73714	0.98690
3575.68333	0.98641
3573.62952	0.98623
3571.57571	0.98632
3569.52190	0.98629
3567.46809	0.98600
3565.41428	0.98543
3563.36047	0.98535
3561.30666	0.98574
3559.25285	0.98590
3557.19904	0.98595
3555.14523	0.98602
3553.09142	0.98596
3551.03761	0.98633
3548.98380	0.98678
3546.92999	0.98635
3544.87618	0.98550
3542.82237	0.98515
3540.76856	0.98528
3538.71475	0.98549
3536.66094	0.98549
3534.60713	0.98551
3532.55332	0.98574
3530.49951	0.98573
3528.44570	0.98536
3526.39189	0.98505
3524.33808	0.98475
3522.28427	0.98459
3520.23046	0.98488
3518.17665	0.98524
3516.12284	0.98525
3514.06903	0.98513
3512.01522	0.98502
3509.96141	0.98471
3507.90760	0.98451
3505.85379	0.98463
3503.79998	0.98477
3501.74617	0.98472
3499.69236	0.98462
3497.63855	0.98458
3495.58474	0.98449
3493.53093	0.98430
3491.47712	0.98411
3489.42331	0.98395
3487.36950	0.98371
3485.31569	0.98363
3483.26188	0.98387
3481.20807	0.98400
3479.15426	0.98380
3477.10045	0.98374
3475.04664	0.98406
3472.99283	0.98432
3470.93902	0.98417
3468.88521	0.98378
3466.83140	0.98344
3464.77759	0.98336
3462.72378	0.98341
3460.66997	0.98337
3458.61616	0.98323
3456.56235	0.98296
3454.50854	0.98279
3452.45473	0.98297
3450.40092	0.98334
3448.34711	0.98369
3446.29330	0.98377
3444.23949	0.98350
3442.18568	0.98334
3440.13187	0.98327
3438.07806	0.98294
3436.02425	0.98275
3433.97044	0.98294
3431.91663	0.98292
3429.86282	0.98261
3427.80901	0.98265
3425.75520	0.98289
3423.70139	0.98266
3421.64758	0.98227
3419.59377	0.98245
3417.53996	0.98288
3415.48615	0.98285
3413.43234	0.98240
3411.37853	0.98201
3409.32472	0.98185
3407.27091	0.98182
3405.21710	0.98191
3403.16329	0.98234
3401.10948	0.98304
3399.05567	0.98337
3397.00186	0.98308
3394.94805	0.98260
3392.89424	0.98217
3390.84042	0.98181
3388.78661	0.98191
3386.73280	0.98233
3384.67899	0.98237
3382.62518	0.98202
3380.57137	0.98182
3378.51756	0.98198
3376.46375	0.98216
3374.40994	0.98203
3372.35613	0.98174
3370.30232	0.98156
3368.24851	0.98150
3366.19470	0.98151
3364.14089	0.98168
3362.08708	0.98186
3360.03327	0.98190
3357.97946	0.98192
3355.92565	0.98192
3353.87184	0.98193
3351.81803	0.98195
3349.76422	0.98182
3347.71041	0.98145
3345.65660	0.98123
3343.60279	0.98136
3341.54898	0.98168
3339.49517	0.98201
3337.44136	0.98221
3335.38755	0.98228
3333.33374	0.98236
3331.27993	0.98243
3329.22612	0.98247
3327.17231	0.98247
3325.11850	0.98231
3323.06469	0.98202
3321.01088	0.98177
3318.95707	0.98186
3316.90326	0.98208
3314.84945	0.98202
3312.79564	0.98183
3310.74183	0.98181
3308.68802	0.98186
3306.63421	0.98182
3304.58040	0.98173
3302.52659	0.98180
3300.47278	0.98215
3298.41897	0.98242
3296.36516	0.98254
3294.31135	0.98273
3292.25754	0.98281
3290.20373	0.98262
3288.14992	0.98234
3286.09611	0.98224
3284.04230	0.98236
3281.98849	0.98246
3279.93468	0.98234
3277.88087	0.98210
3275.82706	0.98206
3273.77325	0.98231
3271.71944	0.98256
3269.66563	0.98264
3267.61182	0.98263
3265.55801	0.98249
3263.50420	0.98227
3261.45039	0.98228
3259.39658	0.98255
3257.34277	0.98293
3255.28896	0.98321
3253.23515	0.98319
3251.18134	0.98322
3249.12753	0.98332
3247.07372	0.98319
3245.01991	0.98304
3242.96610	0.98318
3240.91229	0.98321
3238.85848	0.98292
3236.80467	0.98279
3234.75086	0.98293
3232.69705	0.98302
3230.64324	0.98295
3228.58943	0.98293
3226.53562	0.98292
3224.48181	0.98266
3222.42800	0.98245
3220.37419	0.98253
3218.32038	0.98270
3216.26657	0.98287
3214.21276	0.98303
3212.15895	0.98301
3210.10514	0.98267
3208.05133	0.98231
3205.99752	0.98221
3203.94371	0.98221
3201.88990	0.98242
3199.83609	0.98275
3197.78228	0.98274
3195.72847	0.98242
3193.67466	0.98214
3191.62085	0.98217
3189.56704	0.98233
3187.51323	0.98231
3185.45942	0.98210
3183.40561	0.98208
3181.35180	0.98254
3179.29799	0.98318
3177.24418	0.98356
3175.19037	0.98363
3173.13656	0.98362
3171.08275	0.98359
3169.02894	0.98340
3166.97513	0.98324
3164.92132	0.98323
3162.86751	0.98330
3160.81370	0.98345
3158.75989	0.98350
3156.70608	0.98335
3154.65227	0.98318
3152.59846	0.98317
3150.54465	0.98326
3148.49084	0.98340
3146.43703	0.98355
3144.38322	0.98353
3142.32941	0.98345
3140.27560	0.98359
3138.22179	0.98380
3136.16798	0.98390
3134.11417	0.98399
3132.06036	0.98412
3130.00655	0.98408
3127.95274	0.98380
3125.89893	0.98371
3123.84512	0.98397
3121.79131	0.98420
3119.73750	0.98422
3117.68369	0.98422
3115.62988	0.98444
3113.57607	0.98479
3111.52226	0.98507
3109.46845	0.98518
3107.41464	0.98490
3105.36083	0.98440
3103.30702	0.98434
3101.25321	0.98449
3099.19940	0.98442
3097.14559	0.98449
3095.09177	0.98477
3093.03796	0.98501
3090.98415	0.98522
3088.93034	0.98527
3086.87653	0.98512
3084.82272	0.98502
3082.76891	0.98505
3080.71510	0.98515
3078.66129	0.98527
3076.60748	0.98520
3074.55367	0.98504
3072.49986	0.98506
3070.44605	0.98506
3068.39224	0.98509
3066.33843	0.98528
3064.28462	0.98531
3062.23081	0.98514
3060.17700	0.98503
3058.12319	0.98509
3056.06938	0.98514
3054.01557	0.98504
3051.96176	0.98483
3049.90795	0.98471
3047.85414	0.98487
3045.80033	0.98511
3043.74652	0.98506
3041.69271	0.98493
3039.63890	0.98510
3037.58509	0.98526
3035.53128	0.98529
3033.47747	0.98533
3031.42366	0.98531
3029.36985	0.98524
3027.31604	0.98510
3025.26223	0.98480
3023.20842	0.98462
3021.15461	0.98455
3019.10080	0.98432
3017.04699	0.98400
3014.99318	0.98362
3012.93937	0.98329
3010.88556	0.98321
3008.83175	0.98301
3006.77794	0.98235
3004.72413	0.98159
3002.67032	0.98108
3000.61651	0.98057
2998.56270	0.97967
2996.50889	0.97848
2994.45508	0.97748
2992.40127	0.97659
2990.34746	0.97520
2988.29365	0.97313
2986.23984	0.97034
2984.18603	0.96677
2982.13222	0.96252
2980.07841	0.95737
2978.02460	0.95052
2975.97079	0.94113
2973.91698	0.92876
2971.86317	0.91256
2969.80936	0.89160
2967.75555	0.86555
2965.70174	0.83458
2963.64793	0.80065
2961.59412	0.76966
2959.54031	0.74965
2957.48650	0.74162
2955.43269	0.73517
2953.37888	0.71993
2951.32507	0.69981
2949.27126	0.69124
2947.21745	0.70665
2945.16364	0.74239
2943.10983	0.78301
2941.05602	0.81441
2939.00221	0.83112
2936.94840	0.83378
2934.89459	0.82492
2932.84078	0.80659
2930.78697	0.78063
2928.73316	0.75058
2926.67935	0.72115
2924.62554	0.69524
2922.57173	0.67218
2920.51792	0.65081
2918.46411	0.63478
2916.41030	0.63178
2914.35649	0.64460
2912.30268	0.66606
2910.24887	0.68632
2908.19506	0.70241
2906.14125	0.71776
2904.08744	0.73541
2902.03363	0.75523
2899.97982	0.77554
2897.92601	0.79434
2895.87220	0.80980
2893.81839	0.82055
2891.76458	0.82632
2889.71077	0.82788
2887.65696	0.82655
2885.60315	0.82371
2883.54934	0.81960
2881.49553	0.81379
2879.44172	0.80760
2877.38791	0.80428
2875.33410	0.80529
2873.28029	0.80737
2871.22648	0.80590
2869.17267	0.80011
2867.11886	0.79495
2865.06505	0.79934
2863.01124	0.81836
2860.95743	0.84635
2858.90362	0.87235
2856.84981	0.88997
2854.79600	0.89880
2852.74219	0.90079
2850.68838	0.89747
2848.63457	0.88890
2846.58076	0.87410
2844.52695	0.85283
2842.47314	0.82730
2840.41933	0.80343
2838.36552	0.79072
2836.31171	0.79715
2834.25790	0.82176
2832.20409	0.85424
2830.15028	0.88363
2828.09647	0.90530
2826.04266	0.91991
2823.98885	0.92981
2821.93504	0.93681
2819.88123	0.94197
2817.82742	0.94593
2815.77361	0.94905
2813.71980	0.95148
2811.66599	0.95332
2809.61218	0.95501
2807.55837	0.95690
2805.50456	0.95898
2803.45075	0.96130
2801.39693	0.96355
2799.34312	0.96524
2797.28931	0.96626
2795.23550	0.96700
2793.18169	0.96798
2791.12788	0.96911
2789.07407	0.97024
2787.02026	0.97150
2784.96645	0.97278
2782.91264	0.97385
2780.85883	0.97479
2778.80502	0.97566
2776.75121	0.97632
2774.69740	0.97684
2772.64359	0.97726
2770.58978	0.97734
2768.53597	0.97727
2766.48216	0.97740
2764.42835	0.97775
2762.37454	0.97821
2760.32073	0.97866
2758.26692	0.97891
2756.21311	0.97906
2754.15930	0.97929
2752.10549	0.97955
2750.05168	0.97968
2747.99787	0.97960
2745.94406	0.97937
2743.89025	0.97904
2741.83644	0.97863
2739.78263	0.97815
2737.72882	0.97757
2735.67501	0.97689
2733.62120	0.97633
2731.56739	0.97605
2729.51358	0.97576
2727.45977	0.97490
2725.40596	0.97367
2723.35215	0.97285
2721.29834	0.97267
2719.24453	0.97319
2717.19072	0.97432
2715.13691	0.97559
2713.08310	0.97661
2711.02929	0.97733
2708.97548	0.97802
2706.92167	0.97871
2704.86786	0.97921
2702.81405	0.97960
2700.76024	0.98001
2698.70643	0.98038
2696.65262	0.98053
2694.59881	0.98053
2692.54500	0.98066
2690.49119	0.98086
2688.43738	0.98089
2686.38357	0.98077
2684.32976	0.98072
2682.27595	0.98076
2680.22214	0.98061
2678.16833	0.98030
2676.11452	0.98008
2674.06071	0.98020
2672.00690	0.98062
2669.95309	0.98091
2667.89928	0.98090
2665.84547	0.98085
2663.79166	0.98078
2661.73785	0.98066
2659.68404	0.98062
2657.63023	0.98055
2655.57642	0.98047
2653.52261	0.98068
2651.46880	0.98115
2649.41499	0.98150
2647.36118	0.98153
2645.30737	0.98143
2643.25356	0.98148
2641.19975	0.98157
2639.14594	0.98155
2637.09213	0.98165
2635.03832	0.98197
2632.98451	0.98218
2630.93070	0.98219
2628.87689	0.98224
2626.82308	0.98233
2624.76927	0.98231
2622.71546	0.98213
2620.66165	0.98194
2618.60784	0.98190
2616.55403	0.98198
2614.50022	0.98219
2612.44641	0.98247
2610.39260	0.98274
2608.33879	0.98304
2606.28498	0.98322
2604.23117	0.98330
2602.17736	0.98365
2600.12355	0.98402
2598.06974	0.98425
2596.01593	0.98447
2593.96212	0.98431
2591.90831	0.98384
2589.85450	0.98346
2587.80069	0.98297
2585.74688	0.98228
2583.69307	0.98187
2581.63926	0.98191
2579.58545	0.98208
2577.53164	0.98223
2575.47783	0.98246
2573.42402	0.98302
2571.37021	0.98384
2569.31640	0.98454
2567.26259	0.98481
2565.20878	0.98471
2563.15497	0.98472
2561.10116	0.98497
2559.04735	0.98497
2556.99354	0.98479
2554.93973	0.98483
2552.88592	0.98511
2550.83211	0.98526
2548.77830	0.98518
2546.72449	0.98517
2544.67068	0.98527
2542.61687	0.98541
2540.56306	0.98567
2538.50925	0.98601
2536.45544	0.98636
2534.40163	0.98653
2532.34782	0.98627
2530.29401	0.98599
2528.24020	0.98611
2526.18639	0.98651
2524.13258	0.98673
2522.07877	0.98664
2520.02496	0.98670
2517.97115	0.98682
2515.91734	0.98676
2513.86353	0.98675
2511.80972	0.98686
2509.75591	0.98710
2507.70210	0.98735
2505.64828	0.98749
2503.59447	0.98771
2501.54066	0.98792
2499.48685	0.98781
2497.43304	0.98752
2495.37923	0.98727
2493.32542	0.98697
2491.27161	0.98676
2489.21780	0.98685
2487.16399	0.98700
2485.11018	0.98713
2483.05637	0.98712
2481.00256	0.98700
2478.94875	0.98699
2476.89494	0.98712
2474.84113	0.98743
2472.78732	0.98773
2470.73351	0.98786
2468.67970	0.98800
2466.62589	0.98784
2464.57208	0.98747
2462.51827	0.98739
2460.46446	0.98743
2458.41065	0.98710
2456.35684	0.98669
2454.30303	0.98669
2452.24922	0.98700
2450.19541	0.98734
2448.14160	0.98768
2446.08779	0.98788
2444.03398	0.98779
2441.98017	0.98743
2439.92636	0.98690
2437.87255	0.98665
2435.81874	0.98701
2433.76493	0.98748
2431.71112	0.98750
2429.65731	0.98712
2427.60350	0.98695
2425.54969	0.98726
2423.49588	0.98751
2421.44207	0.98747
2419.38826	0.98752
2417.33445	0.98757
2415.28064	0.98747
2413.22683	0.98769
2411.17302	0.98811
2409.11921	0.98814
2407.06540	0.98802
2405.01159	0.98808
2402.95778	0.98797
2400.90397	0.98773
2398.85016	0.98763
2396.79635	0.98751
2394.74254	0.98758
2392.68873	0.98788
2390.63492	0.98791
2388.58111	0.98781
2386.52730	0.98791
2384.47349	0.98799
2382.41968	0.98808
2380.36587	0.98835
2378.31206	0.98850
2376.25825	0.98803
2374.20444	0.98731
2372.15063	0.98695
2370.09682	0.98706
2368.04301	0.98793
2365.98920	0.98881
2363.93539	0.98921
2361.88158	0.98890
2359.82777	0.98755
2357.77396	0.98711
2355.72015	0.98783
2353.66634	0.98832
2351.61253	0.98843
2349.55872	0.98840
2347.50491	0.98845
2345.45110	0.98833
2343.39729	0.98785
2341.34348	0.98776
2339.28967	0.98790
2337.23586	0.98748
2335.18205	0.98740
2333.12824	0.98807
2331.07443	0.98814
2329.02062	0.98763
2326.96681	0.98713
2324.91300	0.98670
2322.85919	0.98694
2320.80538	0.98741
2318.75157	0.98766
2316.69776	0.98806
2314.64395	0.98816
2312.59014	0.98782
2310.53633	0.98742
2308.48252	0.98716
2306.42871	0.98746
2304.37490	0.98803
2302.32109	0.98837
2300.26728	0.98860
2298.21347	0.98863
2296.15966	0.98843
2294.10585	0.98817
2292.05204	0.98787
2289.99823	0.98794
2287.94442	0.98839
2285.89061	0.98852
2283.83680	0.98858
2281.78299	0.98899
2279.72918	0.98899
2277.67537	0.98868
2275.62156	0.98854
2273.56775	0.98819
2271.51394	0.98781
2269.46013	0.98786
2267.40632	0.98830
2265.35251	0.98853
2263.29870	0.98819
2261.24489	0.98800
2259.19108	0.98797
2257.13727	0.98748
2255.08346	0.98715
2253.02965	0.98727
2250.97584	0.98741
2248.92203	0.98792
2246.86822	0.98845
2244.81441	0.98843
2242.76060	0.98872
2240.70679	0.98964
2238.65298	0.99024
2236.59917	0.98978
2234.54536	0.98834
2232.49155	0.98728
2230.43774	0.98716
2228.38393	0.98734
2226.33012	0.98829
2224.27631	0.98960
2222.22250	0.98973
2220.16869	0.98932
2218.11488	0.98922
2216.06107	0.98896
2214.00726	0.98906
2211.95344	0.98965
2209.89963	0.98983
2207.84582	0.98989
2205.79201	0.99028
2203.73820	0.99051
2201.68439	0.98997
2199.63058	0.98889
2197.57677	0.98855
2195.52296	0.98961
2193.46915	0.99079
2191.41534	0.99078
2189.36153	0.98959
2187.30772	0.98802
2185.25391	0.98761
2183.20010	0.98886
2181.14629	0.99048
2179.09248	0.99090
2177.03867	0.98995
2174.98486	0.98892
2172.93105	0.98806
2170.87724	0.98723
2168.82343	0.98753
2166.76962	0.98846
2164.71581	0.98865
2162.66200	0.98887
2160.60819	0.99082
2158.55438	0.99400
2156.50057	0.99508
2154.44676	0.99456
2152.39295	0.99425
2150.33914	0.99394
2148.28533	0.99463
2146.23152	0.99531
2144.17771	0.99422
2142.12390	0.99253
2140.07009	0.99110
2138.01628	0.99006
2135.96247	0.99039
2133.90866	0.99175
2131.85485	0.99250
2129.80104	0.99266
2127.74723	0.99244
2125.69342	0.99156
2123.63961	0.99082
2121.58580	0.99086
2119.53199	0.99093
2117.47818	0.99067
2115.42437	0.99056
2113.37056	0.99013
2111.31675	0.98928
2109.26294	0.98930
2107.20913	0.99042
2105.15532	0.99131
2103.10151	0.99105
2101.04770	0.99039
2098.99389	0.99046
2096.94008	0.99059
2094.88627	0.99022
2092.83246	0.99043
2090.77865	0.99107
2088.72484	0.99116
2086.67103	0.99091
2084.61722	0.99036
2082.56341	0.98940
2080.50960	0.98889
2078.45579	0.98925
2076.40198	0.98987
2074.34817	0.99014
2072.29436	0.99032
2070.24055	0.99118
2068.18674	0.99171
2066.13293	0.99082
2064.07912	0.98979
2062.02531	0.98956
2059.97150	0.98924
2057.91769	0.98889
2055.86388	0.98954
2053.81007	0.99003
2051.75626	0.98941
2049.70245	0.98952
2047.64864	0.99064
2045.59483	0.99096
2043.54102	0.99022
2041.48721	0.98896
2039.43340	0.98824
2037.37959	0.98841
2035.32578	0.98907
2033.27197	0.99070
2031.21816	0.99248
2029.16435	0.99263
2027.11054	0.99095
2025.05673	0.98874
2023.00292	0.98815
2020.94911	0.98983
2018.89530	0.99151
2016.84149	0.99183
2014.78768	0.99215
2012.73387	0.99281
2010.68006	0.99238
2008.62625	0.99120
2006.57244	0.99091
2004.51863	0.99196
2002.46482	0.99379
2000.41101	0.99449
1998.35720	0.99355
1996.30339	0.99288
1994.24958	0.99183
1992.19577	0.98938
1990.14196	0.98816
1988.08815	0.98908
1986.03434	0.99027
1983.98053	0.99083
1981.92672	0.99013
1979.87291	0.98871
1977.81910	0.98872
1975.76529	0.99012
1973.71148	0.99135
1971.65767	0.99215
1969.60386	0.99292
1967.55005	0.99324
1965.49624	0.99269
1963.44243	0.99271
1961.38862	0.99386
1959.33481	0.99449
1957.28100	0.99416
1955.22719	0.99345
1953.17338	0.99249
1951.11957	0.99198
1949.06576	0.99193
1947.01195	0.99170
1944.95814	0.99179
1942.90433	0.99212
1940.85052	0.99211
1938.79671	0.99237
1936.74290	0.99272
1934.68909	0.99262
1932.63528	0.99255
1930.58147	0.99287
1928.52766	0.99327
1926.47385	0.99310
1924.42004	0.99267
1922.36623	0.99273
1920.31242	0.99260
1918.25861	0.99176
1916.20479	0.99131
1914.15098	0.99191
1912.09717	0.99260
1910.04336	0.99260
1907.98955	0.99218
1905.93574	0.99170
1903.88193	0.99127
1901.82812	0.99121
1899.77431	0.99137
1897.72050	0.99151
1895.66669	0.99178
1893.61288	0.99196
1891.55907	0.99170
1889.50526	0.99140
1887.45145	0.99138
1885.39764	0.99133
1883.34383	0.99137
1881.29002	0.99150
1879.23621	0.99156
1877.18240	0.99165
1875.12859	0.99166
1873.07478	0.99172
1871.02097	0.99194
1868.96716	0.99197
1866.91335	0.99191
1864.85954	0.99177
1862.80573	0.99131
1860.75192	0.99077
1858.69811	0.99045
1856.64430	0.99041
1854.59049	0.99053
1852.53668	0.99062
1850.48287	0.99074
1848.42906	0.99094
1846.37525	0.99117
1844.32144	0.99120
1842.26763	0.99116
1840.21382	0.99115
1838.16001	0.99101
1836.10620	0.99106
1834.05239	0.99149
1831.99858	0.99163
1829.94477	0.99126
1827.89096	0.99101
1825.83715	0.99105
1823.78334	0.99102
1821.72953	0.99092
1819.67572	0.99100
1817.62191	0.99125
1815.56810	0.99151
1813.51429	0.99151
1811.46048	0.99116
1809.40667	0.99085
1807.35286	0.99083
1805.29905	0.99084
1803.24524	0.99078
1801.19143	0.99079
1799.13762	0.99078
1797.08381	0.99039
1795.03000	0.98981
1792.97619	0.98972
1790.92238	0.99022
1788.86857	0.99045
1786.81476	0.99026
1784.76095	0.98999
1782.70714	0.98983
1780.65333	0.98971
1778.59952	0.98962
1776.54571	0.98964
1774.49190	0.98972
1772.43809	0.98965
1770.38428	0.98943
1768.33047	0.98946
1766.27666	0.98964
1764.22285	0.98945
1762.16904	0.98890
1760.11523	0.98850
1758.06142	0.98837
1756.00761	0.98814
1753.95380	0.98769
1751.89999	0.98721
1749.84618	0.98679
1747.79237	0.98645
1745.73856	0.98627
1743.68475	0.98621
1741.63094	0.98616
1739.57713	0.98603
1737.52332	0.98597
1735.46951	0.98600
1733.41570	0.98585
1731.36189	0.98558
1729.30808	0.98567
1727.25427	0.98576
1725.20046	0.98552
1723.14665	0.98523
1721.09284	0.98512
1719.03903	0.98502
1716.98522	0.98491
1714.93141	0.98495
1712.87760	0.98507
1710.82379	0.98512
1708.76998	0.98508
1706.71617	0.98498
1704.66236	0.98487
1702.60855	0.98485
1700.55474	0.98477
1698.50093	0.98432
1696.44712	0.98399
1694.39331	0.98402
1692.33950	0.98416
1690.28569	0.98414
1688.23188	0.98389
1686.17807	0.98380
1684.12426	0.98406
1682.07045	0.98406
1680.01664	0.98377
1677.96283	0.98342
1675.90902	0.98298
1673.85521	0.98258
1671.80140	0.98236
1669.74759	0.98230
1667.69378	0.98210
1665.63997	0.98171
1663.58616	0.98148
1661.53235	0.98146
1659.47854	0.98140
1657.42473	0.98132
1655.37092	0.98122
1653.31711	0.98086
1651.26330	0.98053
1649.20949	0.98055
1647.15568	0.98068
1645.10187	0.98080
1643.04806	0.98079
1640.99425	0.98077
1638.94044	0.98086
1636.88663	0.98088
1634.83282	0.98087
1632.77901	0.98102
1630.72520	0.98103
1628.67139	0.98093
1626.61758	0.98107
1624.56377	0.98146
1622.50996	0.98188
1620.45614	0.98223
1618.40233	0.98257
1616.34852	0.98281
1614.29471	0.98281
1612.24090	0.98278
1610.18709	0.98281
1608.13328	0.98291
1606.07947	0.98318
1604.02566	0.98348
1601.97185	0.98363
1599.91804	0.98376
1597.86423	0.98388
1595.81042	0.98384
1593.75661	0.98379
1591.70280	0.98384
1589.64899	0.98410
1587.59518	0.98453
1585.54137	0.98473
1583.48756	0.98466
1581.43375	0.98471
1579.37994	0.98501
1577.32613	0.98531
1575.27232	0.98537
1573.21851	0.98541
1571.16470	0.98562
1569.11089	0.98589
1567.05708	0.98599
1565.00327	0.98591
1562.94946	0.98579
1560.89565	0.98560
1558.84184	0.98516
1556.78803	0.98502
1554.73422	0.98512
1552.68041	0.98505
1550.62660	0.98478
1548.57279	0.98451
1546.51898	0.98436
1544.46517	0.98423
1542.41136	0.98415
1540.35755	0.98413
1538.30374	0.98405
1536.24993	0.98386
1534.19612	0.98359
1532.14231	0.98344
1530.08850	0.98353
1528.03469	0.98349
1525.98088	0.98309
1523.92707	0.98262
1521.87326	0.98205
1519.81945	0.98143
1517.76564	0.98089
1515.71183	0.98024
1513.65802	0.97961
1511.60421	0.97912
1509.55040	0.97874
1507.49659	0.97836
1505.44278	0.97775
1503.38897	0.97712
1501.33516	0.97646
1499.28135	0.97541
1497.22754	0.97398
1495.17373	0.97265
1493.11992	0.97156
1491.06611	0.97029
1489.01230	0.96868
1486.95849	0.96688
1484.90468	0.96476
1482.85087	0.96199
1480.79706	0.95853
1478.74325	0.95434
1476.68944	0.94870
1474.63563	0.93977
1472.58182	0.92380
1470.52801	0.90301
1468.47420	0.88244
1466.42039	0.85792
1464.36658	0.82890
1462.31277	0.80734
1460.25896	0.79598
1458.20515	0.78835
1456.15134	0.78292
1454.09753	0.78122
1452.04372	0.78182
1449.98991	0.78770
1447.93610	0.80598
1445.88229	0.83484
1443.82848	0.86231
1441.77467	0.88203
1439.72086	0.89208
1437.66705	0.89434
1435.61324	0.89602
1433.55943	0.90534
1431.50562	0.91976
1429.45181	0.93289
1427.39800	0.94068
1425.34419	0.94496
1423.29038	0.94779
1421.23657	0.94973
1419.18276	0.95155
1417.12895	0.95338
1415.07514	0.95500
1413.02133	0.95648
1410.96752	0.95781
1408.91371	0.95909
1406.85990	0.96041
1404.80609	0.96152
1402.75228	0.96234
1400.69847	0.96289
1398.64466	0.96323
1396.59085	0.96327
1394.53704	0.96292
1392.48323	0.96190
1390.42942	0.95966
1388.37561	0.95465
1386.32180	0.94370
1384.26799	0.92284
1382.21418	0.88537
1380.16037	0.82421
1378.10656	0.74863
1376.05275	0.69748
1373.99894	0.71207
1371.94513	0.77896
1369.89132	0.84753
1367.83751	0.89390
1365.78370	0.91508
1363.72989	0.91871
1361.67608	0.91255
1359.62227	0.90593
1357.56846	0.90766
1355.51465	0.91937
1353.46084	0.93477
1351.40703	0.94715
1349.35322	0.95536
1347.29941	0.96090
1345.24560	0.96479
1343.19179	0.96733
1341.13798	0.96884
1339.08417	0.96979
1337.03036	0.97021
1334.97655	0.96969
1332.92274	0.96822
1330.86893	0.96669
1328.81512	0.96644
1326.76130	0.96776
1324.70749	0.97007
1322.65368	0.97248
1320.59987	0.97423
1318.54606	0.97528
1316.49225	0.97591
1314.43844	0.97618
1312.38463	0.97595
1310.33082	0.97473
1308.27701	0.97144
1306.22320	0.96660
1304.16939	0.96381
1302.11558	0.96497
1300.06177	0.96719
1298.00796	0.96791
1295.95415	0.96799
1293.90034	0.96901
1291.84653	0.97099
1289.79272	0.97303
1287.73891	0.97454
1285.68510	0.97539
1283.63129	0.97599
1281.57748	0.97650
1279.52367	0.97674
1277.46986	0.97674
1275.41605	0.97655
1273.36224	0.97631
1271.30843	0.97609
1269.25462	0.97565
1267.20081	0.97494
1265.14700	0.97414
1263.09319	0.97316
1261.03938	0.97139
1258.98557	0.96836
1256.93176	0.96524
1254.87795	0.96448
1252.82414	0.96682
1250.77033	0.97017
1248.71652	0.97259
1246.66271	0.97390
1244.60890	0.97463
1242.55509	0.97514
1240.50128	0.97542
1238.44747	0.97524
1236.39366	0.97474
1234.33985	0.97431
1232.28604	0.97395
1230.23223	0.97344
1228.17842	0.97259
1226.12461	0.97134
1224.07080	0.96961
1222.01699	0.96746
1219.96318	0.96575
1217.90937	0.96565
1215.85556	0.96717
1213.80175	0.96919
1211.74794	0.97087
1209.69413	0.97214
1207.64032	0.97307
1205.58651	0.97366
1203.53270	0.97406
1201.47889	0.97438
1199.42508	0.97464
1197.37127	0.97471
1195.31746	0.97456
1193.26365	0.97441
1191.20984	0.97426
1189.15603	0.97401
1187.10222	0.97352
1185.04841	0.97262
1182.99460	0.97142
1180.94079	0.97001
1178.88698	0.96793
1176.83317	0.96414
1174.77936	0.95718
1172.72555	0.94574
1170.67174	0.93069
1168.61793	0.91791
1166.56412	0.91498
1164.51031	0.92212
1162.45650	0.93228
1160.40269	0.94023
1158.34888	0.94528
1156.29507	0.94806
1154.24126	0.94951
1152.18745	0.95102
1150.13364	0.95377
1148.07983	0.95767
1146.02602	0.96158
1143.97221	0.96485
1141.91840	0.96755
1139.86459	0.96970
1137.81078	0.97127
1135.75697	0.97243
1133.70316	0.97325
1131.64935	0.97365
1129.59554	0.97374
1127.54173	0.97352
1125.48792	0.97311
1123.43411	0.97287
1121.38030	0.97275
1119.32649	0.97257
1117.27268	0.97228
1115.21887	0.97184
1113.16506	0.97125
1111.11125	0.97039
1109.05744	0.96871
1107.00363	0.96594
1104.94982	0.96303
1102.89601	0.96139
1100.84220	0.96176
1098.78839	0.96393
1096.73458	0.96671
1094.68077	0.96888
1092.62696	0.97023
1090.57315	0.97116
1088.51934	0.97172
1086.46553	0.97140
1084.41172	0.97044
1082.35791	0.96998
1080.30410	0.97060
1078.25029	0.97189
1076.19648	0.97313
1074.14267	0.97391
1072.08886	0.97432
1070.03505	0.97452
1067.98124	0.97478
1065.92743	0.97530
1063.87362	0.97568
1061.81981	0.97587
1059.76600	0.97612
1057.71219	0.97623
1055.65838	0.97589
1053.60457	0.97530
1051.55076	0.97459
1049.49695	0.97341
1047.44314	0.97174
1045.38933	0.97043
1043.33552	0.97044
1041.28171	0.97168
1039.22790	0.97293
1037.17409	0.97329
1035.12028	0.97335
1033.06647	0.97400
1031.01265	0.97489
1028.95884	0.97543
1026.90503	0.97558
1024.85122	0.97561
1022.79741	0.97564
1020.74360	0.97559
1018.68979	0.97511
1016.63598	0.97442
1014.58217	0.97403
1012.52836	0.97349
1010.47455	0.97216
1008.42074	0.96982
1006.36693	0.96570
1004.31312	0.95807
1002.25931	0.94450
1000.20550	0.92580
998.15169	0.91259
996.09788	0.91674
994.04407	0.93413
991.99026	0.95129
989.93645	0.96215
987.88264	0.96750
985.82883	0.96920
983.77502	0.96855
981.72121	0.96520
979.66740	0.95739
977.61359	0.94328
975.55978	0.92415
973.50597	0.90867
971.45216	0.90951
969.39835	0.92757
967.34454	0.94882
965.29073	0.96289
963.23692	0.97023
961.18311	0.97425
959.12930	0.97681
957.07549	0.97855
955.02168	0.97985
952.96787	0.98086
950.91406	0.98145
948.86025	0.98148
946.80644	0.98096
944.75263	0.97987
942.69882	0.97824
940.64501	0.97706
938.59120	0.97798
936.53739	0.98072
934.48358	0.98320
932.42977	0.98441
930.37596	0.98494
928.32215	0.98536
926.26834	0.98565
924.21453	0.98551
922.16072	0.98510
920.10691	0.98489
918.05310	0.98482
915.99929	0.98471
913.94548	0.98463
911.89167	0.98432
909.83786	0.98335
907.78405	0.98138
905.73024	0.97734
903.67643	0.97013
901.62262	0.96131
899.56881	0.95619
897.51500	0.95906
895.46119	0.96735
893.40738	0.97493
891.35357	0.97909
889.29976	0.98062
887.24595	0.97994
885.19214	0.97723
883.13833	0.97356
881.08452	0.96905
879.03071	0.96326
876.97690	0.95802
874.92309	0.95663
872.86928	0.96058
870.81547	0.96776
868.76166	0.97442
866.70785	0.97866
864.65404	0.98052
862.60023	0.98099
860.54642	0.98127
858.49261	0.98132
856.43880	0.98078
854.38499	0.97994
852.33118	0.97885
850.27737	0.97688
848.22356	0.97288
846.16975	0.96463
844.11594	0.94669
842.06213	0.92191
840.00832	0.91349
837.95451	0.93254
835.90070	0.95705
833.84689	0.96980
831.79308	0.97438
829.73927	0.97652
827.68546	0.97807
825.63165	0.97920
823.57784	0.97966
821.52403	0.97957
819.47022	0.97881
817.41641	0.97685
815.36260	0.97295
813.30879	0.96564
811.25498	0.95562
809.20117	0.94929
807.14736	0.95254
805.09355	0.96232
803.03974	0.97109
800.98593	0.97585
798.93212	0.97827
796.87831	0.97990
794.82450	0.98106
792.77069	0.98177
790.71688	0.98237
788.66307	0.98328
786.60926	0.98427
784.55545	0.98535
782.50164	0.98645
780.44783	0.98667
778.39402	0.98614
776.34021	0.98581
774.28640	0.98551
772.23259	0.98524
770.17878	0.98556
768.12497	0.98605
766.07116	0.98625
764.01735	0.98626
761.96354	0.98606
759.90973	0.98602
757.85592	0.98651
755.80211	0.98688
753.74830	0.98642
751.69449	0.98550
749.64068	0.98486
747.58687	0.98481
745.53306	0.98509
743.47925	0.98555
741.42544	0.98589
739.37163	0.98556
737.31781	0.98519
735.26400	0.98524
733.21019	0.98483
731.15638	0.98427
729.10257	0.98440
727.04876	0.98448
724.99495	0.98405
722.94114	0.98341
720.88733	0.98261
718.83352	0.98157
716.77971	0.98018
714.72590	0.97842
712.67209	0.97740
710.61828	0.97830
708.56447	0.98012
706.51066	0.98160
704.45685	0.98258
702.40304	0.98272
700.34923	0.98261
698.29542	0.98293
696.24161	0.98346
694.18780	0.98401
692.13399	0.98391
690.08018	0.98315
688.02637	0.98312
685.97256	0.98379
683.91875	0.98372
681.86494	0.98347
679.81113	0.98422
677.75732	0.98505
675.70351	0.98488
673.64970	0.98425
671.59589	0.98415
669.54208	0.98510
667.48827	0.98568
665.43446	0.98470
663.38065	0.98406
661.32684	0.98299
659.27303	0.98122
657.21922	0.98061
655.16541	0.98121
653.11160	0.98181
651.05779	0.98248
649.00398	0.98338
646.95017	0.98392
644.89636	0.98421
642.84255	0.98430
640.78874	0.98362
638.73493	0.98233
636.68112	0.98088
634.62731	0.98025
632.57350	0.98079
630.51969	0.98109
628.46588	0.98095
626.41207	0.98118
624.35826	0.98121
622.30445	0.98077
620.25064	0.98020
618.19683	0.98006
616.14302	0.98082
614.08921	0.98172
612.03540	0.98233
609.98159	0.98275
607.92778	0.98253
605.87397	0.98212
603.82016	0.98232
601.76635	0.98230
599.71254	0.98145
597.65873	0.98107
595.60492	0.98213
593.55111	0.98370
591.49730	0.98436
589.44349	0.98414
587.38968	0.98347
585.33587	0.98264
583.28206	0.98208
581.22825	0.98175
579.17444	0.98157
577.12063	0.98166
575.06682	0.98181
573.01301	0.98197
570.95920	0.98212
568.90539	0.98260
566.85158	0.98336
564.79777	0.98312
562.74396	0.98246
560.69015	0.98331
558.63634	0.98456
556.58253	0.98379
554.52872	0.98173
552.47491	0.98093
550.42110	0.98136
548.36729	0.98214
546.31348	0.98259
544.25967	0.98124
542.20586	0.97943
540.15205	0.97973
538.09824	0.98095
536.04443	0.98088
533.99062	0.97995
531.93681	0.97813
529.88300	0.97591
527.82919	0.97531
525.77538	0.97610
523.72157	0.97721
521.66776	0.97815
519.61395	0.97858
517.56014	0.97904
515.50633	0.98033
513.45252	0.98165
511.39871	0.98205
509.34490	0.98220
507.29109	0.98259
505.23728	0.98262
503.18347	0.98250
501.12966	0.98300
499.07585	0.98350
497.02204	0.98374
494.96823	0.98380
492.91442	0.98271
490.86061	0.98074
488.80680	0.98039
486.75299	0.98187
484.69918	0.98193
482.64537	0.97992
480.59156	0.97760
478.53775	0.97581
476.48394	0.97563
474.43013	0.97698
472.37632	0.97782
470.32251	0.97661
468.26870	0.97493
466.21489	0.97368
464.16108	0.97048
462.10727	0.96398
460.05346	0.95771
457.99965	0.95692
455.94584	0.96150
453.89203	0.96626
451.83822	0.96906
449.78441	0.97039
447.73060	0.97184
445.67679	0.97348
443.62298	0.97460
441.56916	0.97588
439.51535	0.97601
437.46154	0.97379
435.40773	0.97208
433.35392	0.97293
431.30011	0.97393
429.24630	0.97381
427.19249	0.97303
425.13868	0.97086
423.08487	0.96922
421.03106	0.97121
418.97725	0.97540
416.92344	0.97677
414.86963	0.97587
412.81582	0.97416
410.76201	0.97128
408.70820	0.96998
406.65439	0.97049
404.60058	0.97079
402.54677	0.97107
400.49296	0.96980
398.43915	0.96824
