3996.70104	0.97801
3994.64724	0.97810
3992.59344	0.97788
3990.53964	0.97773
3988.48583	0.97792
3986.43203	0.97780
3984.37823	0.97728
3982.32442	0.97724
3980.27062	0.97776
3978.21682	0.97828
3976.16301	0.97840
3974.10921	0.97817
3972.05541	0.97797
3970.00160	0.97802
3967.94780	0.97783
3965.89400	0.97721
3963.84019	0.97680
3961.78639	0.97711
3959.73259	0.97757
3957.67878	0.97764
3955.62498	0.97776
3953.57118	0.97795
3951.51737	0.97777
3949.46357	0.97740
3947.40977	0.97728
3945.35596	0.97742
3943.30216	0.97741
3941.24836	0.97736
3939.19455	0.97749
3937.14075	0.97764
3935.08695	0.97765
3933.03315	0.97760
3930.97934	0.97733
3928.92554	0.97658
3926.87174	0.97606
3924.81793	0.97655
3922.76413	0.97771
3920.71033	0.97838
3918.65652	0.97831
3916.60272	0.97808
3914.54892	0.97798
3912.49511	0.97754
3910.44131	0.97649
3908.38751	0.97581
3906.33370	0.97638
3904.27990	0.97771
3902.22610	0.97821
3900.17229	0.97803
3898.11849	0.97836
3896.06469	0.97879
3894.01088	0.97885
3891.95708	0.97862
3889.90328	0.97850
3887.84947	0.97869
3885.79567	0.97871
3883.74187	0.97856
3881.68807	0.97882
3879.63426	0.97923
3877.58046	0.97902
3875.52666	0.97847
3873.47285	0.97846
3871.41905	0.97876
3869.36525	0.97875
3867.31144	0.97869
3865.25764	0.97848
3863.20384	0.97827
3861.15003	0.97813
3859.09623	0.97794
3857.04243	0.97830
3854.98862	0.97936
3852.93482	0.97972
3850.88102	0.97833
3848.82721	0.97706
3846.77341	0.97670
3844.71961	0.97687
3842.66580	0.97677
3840.61200	0.97682
3838.55820	0.97780
3836.50439	0.97830
3834.45059	0.97771
3832.39679	0.97723
3830.34298	0.97693
3828.28918	0.97683
3826.23538	0.97708
3824.18158	0.97715
3822.12777	0.97729
3820.07397	0.97774
3818.02017	0.97779
3815.96636	0.97748
3813.91256	0.97708
3811.85876	0.97670
3809.80495	0.97654
3807.75115	0.97691
3805.69735	0.97783
3803.64354	0.97861
3801.58974	0.97854
3799.53594	0.97800
3797.48213	0.97815
3795.42833	0.97857
3793.37453	0.97815
3791.32072	0.97746
3789.26692	0.97780
3787.21312	0.97875
3785.15931	0.97900
3783.10551	0.97864
3781.05171	0.97845
3778.99790	0.97843
3776.94410	0.97819
3774.89030	0.97790
3772.83650	0.97790
3770.78269	0.97807
3768.72889	0.97827
3766.67509	0.97843
3764.62128	0.97841
3762.56748	0.97842
3760.51368	0.97838
3758.45987	0.97839
3756.40607	0.97887
3754.35227	0.97934
3752.29846	0.97922
3750.24466	0.97842
3748.19086	0.97779
3746.13705	0.97808
3744.08325	0.97852
3742.02945	0.97833
3739.97564	0.97812
3737.92184	0.97794
3735.86804	0.97784
3733.81423	0.97819
3731.76043	0.97874
3729.70663	0.97909
3727.65282	0.97900
3725.59902	0.97844
3723.54522	0.97799
3721.49141	0.97821
3719.43761	0.97882
3717.38381	0.97928
3715.33001	0.97929
3713.27620	0.97842
3711.22240	0.97672
3709.16860	0.97622
3707.11479	0.97675
3705.06099	0.97694
3703.00719	0.97665
3700.95338	0.97587
3698.89958	0.97507
3696.84578	0.97473
3694.79197	0.97493
3692.73817	0.97540
3690.68437	0.97553
3688.63056	0.97499
3686.57676	0.97427
3684.52296	0.97418
3682.46915	0.97495
3680.41535	0.97577
3678.36155	0.97611
3676.30774	0.97633
3674.25394	0.97584
3672.20014	0.97460
3670.14633	0.97380
3668.09253	0.97404
3666.03873	0.97433
3663.98492	0.97386
3661.93112	0.97305
3659.87732	0.97279
3657.82352	0.97272
3655.76971	0.97219
3653.71591	0.97232
3651.66211	0.97312
3649.60830	0.97269
3647.55450	0.97081
3645.50070	0.97022
3643.44689	0.97060
3641.39309	0.97055
3639.33929	0.97022
3637.28548	0.97013
3635.23168	0.96976
3633.17788	0.96911
3631.12407	0.96846
3629.07027	0.96748
3627.01647	0.96714
3624.96266	0.96733
3622.90886	0.96687
3620.85506	0.96606
3618.80125	0.96546
3616.74745	0.96540
3614.69365	0.96613
3612.63984	0.96706
3610.58604	0.96755
3608.53224	0.96744
3606.47844	0.96691
3604.42463	0.96649
3602.37083	0.96625
3600.31703	0.96630
3598.26322	0.96638
3596.20942	0.96617
3594.15562	0.96632
3592.10181	0.96681
3590.04801	0.96725
3587.99421	0.96775
3585.94040	0.96805
3583.88660	0.96819
3581.83280	0.96810
3579.77899	0.96739
3577.72519	0.96689
3575.67139	0.96720
3573.61758	0.96727
3571.56378	0.96665
3569.50998	0.96583
3567.45617	0.96495
3565.40237	0.96464
3563.34857	0.96496
3561.29476	0.96507
3559.24096	0.96505
3557.18716	0.96500
3555.13335	0.96476
3553.07955	0.96475
3551.02575	0.96488
3548.97195	0.96475
3546.91814	0.96455
3544.86434	0.96415
3542.81054	0.96375
3540.75673	0.96393
3538.70293	0.96412
3536.64913	0.96379
3534.59532	0.96360
3532.54152	0.96403
3530.48772	0.96445
3528.43391	0.96392
3526.38011	0.96297
3524.32631	0.96280
3522.27250	0.96314
3520.21870	0.96323
3518.16490	0.96312
3516.11109	0.96304
3514.05729	0.96296
3512.00349	0.96286
3509.94968	0.96278
3507.89588	0.96304
3505.84208	0.96340
3503.78827	0.96276
3501.73447	0.96168
3499.68067	0.96144
3497.62687	0.96152
3495.57306	0.96151
3493.51926	0.96146
3491.46546	0.96147
3489.41165	0.96172
3487.35785	0.96192
3485.30405	0.96169
3483.25024	0.96114
3481.19644	0.96085
3479.14264	0.96098
3477.08883	0.96123
3475.03503	0.96134
3472.98123	0.96100
3470.92742	0.96023
3468.87362	0.95983
3466.81982	0.96012
3464.76601	0.96026
3462.71221	0.96008
3460.65841	0.96012
3458.60460	0.96055
3456.55080	0.96128
3454.49700	0.96161
3452.44319	0.96120
3450.38939	0.96073
3448.33559	0.96040
3446.28178	0.95978
3444.22798	0.95899
3442.17418	0.95873
3440.12038	0.95914
3438.06657	0.95913
3436.01277	0.95849
3433.95897	0.95836
3431.90516	0.95858
3429.85136	0.95836
3427.79756	0.95813
3425.74375	0.95823
3423.68995	0.95824
3421.63615	0.95788
3419.58234	0.95744
3417.52854	0.95721
3415.47474	0.95669
3413.42093	0.95569
3411.36713	0.95481
3409.31333	0.95430
3407.25952	0.95428
3405.20572	0.95456
3403.15192	0.95463
3401.09811	0.95425
3399.04431	0.95383
3396.99051	0.95393
3394.93670	0.95424
3392.88290	0.95399
3390.82910	0.95354
3388.77529	0.95347
3386.72149	0.95351
3384.66769	0.95327
3382.61389	0.95315
3380.56008	0.95312
3378.50628	0.95286
3376.45248	0.95267
3374.39867	0.95231
3372.34487	0.95204
3370.29107	0.95245
3368.23726	0.95273
3366.18346	0.95235
3364.12966	0.95196
3362.07585	0.95191
3360.02205	0.95194
3357.96825	0.95187
3355.91444	0.95177
3353.86064	0.95174
3351.80684	0.95195
3349.75303	0.95211
3347.69923	0.95150
3345.64543	0.95050
3343.59162	0.95010
3341.53782	0.95042
3339.48402	0.95111
3337.43021	0.95151
3335.37641	0.95149
3333.32261	0.95137
3331.26881	0.95104
3329.21500	0.95061
3327.16120	0.95043
3325.10740	0.95052
3323.05359	0.95060
3320.99979	0.95073
3318.94599	0.95089
3316.89218	0.95078
3314.83838	0.95054
3312.78458	0.95033
3310.73077	0.95024
3308.67697	0.95017
3306.62317	0.95013
3304.56936	0.95060
3302.51556	0.95139
3300.46176	0.95185
3298.40795	0.95199
3296.35415	0.95178
3294.30035	0.95116
3292.24654	0.95051
3290.19274	0.95030
3288.13894	0.95076
3286.08513	0.95170
3284.03133	0.95238
3281.97753	0.95224
3279.92372	0.95175
3277.86992	0.95134
3275.81612	0.95111
3273.76232	0.95156
3271.70851	0.95224
3269.65471	0.95225
3267.60091	0.95183
3265.54710	0.95165
3263.49330	0.95213
3261.43950	0.95290
3259.38569	0.95319
3257.33189	0.95309
3255.27809	0.95304
3253.22428	0.95301
3251.17048	0.95331
3249.11668	0.95397
3247.06287	0.95437
3245.00907	0.95451
3242.95527	0.95474
3240.90146	0.95467
3238.84766	0.95423
3236.79386	0.95447
3234.74005	0.95590
3232.68625	0.95706
3230.63245	0.95673
3228.57864	0.95587
3226.52484	0.95578
3224.47104	0.95642
3222.41724	0.95718
3220.36343	0.95763
3218.30963	0.95781
3216.25583	0.95787
3214.20202	0.95750
3212.14822	0.95727
3210.09442	0.95792
3208.04061	0.95840
3205.98681	0.95817
3203.93301	0.95801
3201.87920	0.95820
3199.82540	0.95836
3197.77160	0.95826
3195.71779	0.95809
3193.66399	0.95811
3191.61019	0.95851
3189.55638	0.95903
3187.50258	0.95934
3185.44878	0.95941
3183.39497	0.95947
3181.34117	0.95969
3179.28737	0.95988
3177.23356	0.95998
3175.17976	0.96013
3173.12596	0.96042
3171.07215	0.96091
3169.01835	0.96126
3166.96455	0.96112
3164.91075	0.96093
3162.85694	0.96127
3160.80314	0.96192
3158.74934	0.96248
3156.69553	0.96262
3154.64173	0.96213
3152.58793	0.96160
3150.53412	0.96172
3148.48032	0.96249
3146.42652	0.96306
3144.37271	0.96259
3142.31891	0.96190
3140.26511	0.96180
3138.21130	0.96187
3136.15750	0.96205
3134.10370	0.96245
3132.04989	0.96266
3129.99609	0.96239
3127.94229	0.96191
3125.88848	0.96172
3123.83468	0.96191
3121.78088	0.96239
3119.72707	0.96278
3117.67327	0.96266
3115.61947	0.96257
3113.56566	0.96276
3111.51186	0.96289
3109.45806	0.96303
3107.40426	0.96315
3105.35045	0.96326
3103.29665	0.96327
3101.24285	0.96316
3099.18904	0.96333
3097.13524	0.96359
3095.08144	0.96367
3093.02763	0.96395
3090.97383	0.96425
3088.92003	0.96417
3086.86622	0.96407
3084.81242	0.96412
3082.75862	0.96437
3080.70481	0.96469
3078.65101	0.96464
3076.59721	0.96429
3074.54340	0.96414
3072.48960	0.96425
3070.43580	0.96389
3068.38199	0.96306
3066.32819	0.96287
3064.27439	0.96360
3062.22058	0.96396
3060.16678	0.96341
3058.11298	0.96287
3056.05918	0.96268
3054.00537	0.96270
3051.95157	0.96302
3049.89777	0.96336
3047.84396	0.96350
3045.79016	0.96369
3043.73636	0.96366
3041.68255	0.96314
3039.62875	0.96276
3037.57495	0.96310
3035.52114	0.96388
3033.46734	0.96404
3031.41354	0.96325
3029.35973	0.96264
3027.30593	0.96283
3025.25213	0.96337
3023.19832	0.96385
3021.14452	0.96413
3019.09072	0.96431
3017.03691	0.96440
3014.98311	0.96454
3012.92931	0.96481
3010.87550	0.96476
3008.82170	0.96442
3006.76790	0.96440
3004.71409	0.96459
3002.66029	0.96464
3000.60649	0.96440
2998.55269	0.96376
2996.49888	0.96311
2994.44508	0.96282
2992.39128	0.96249
2990.33747	0.96201
2988.28367	0.96176
2986.22987	0.96135
2984.17606	0.96062
2982.12226	0.96007
2980.06846	0.95948
2978.01465	0.95871
2975.96085	0.95807
2973.90705	0.95763
2971.85324	0.95745
2969.79944	0.95771
2967.74564	0.95844
2965.69183	0.95914
2963.63803	0.95918
2961.58423	0.95906
2959.53042	0.95945
2957.47662	0.96003
2955.42282	0.96030
2953.36901	0.96037
2951.31521	0.96014
2949.26141	0.95938
2947.20761	0.95892
2945.15380	0.95918
2943.10000	0.95925
2941.04620	0.95865
2938.99239	0.95774
2936.93859	0.95703
2934.88479	0.95696
2932.83098	0.95731
2930.77718	0.95759
2928.72338	0.95746
2926.66957	0.95692
2924.61577	0.95679
2922.56197	0.95711
2920.50816	0.95706
2918.45436	0.95668
2916.40056	0.95645
2914.34675	0.95630
2912.29295	0.95605
2910.23915	0.95599
2908.18534	0.95629
2906.13154	0.95666
2904.07774	0.95684
2902.02393	0.95657
2899.97013	0.95619
2897.91633	0.95620
2895.86252	0.95617
2893.80872	0.95596
2891.75492	0.95591
2889.70112	0.95592
2887.64731	0.95595
2885.59351	0.95628
2883.53971	0.95690
2881.48590	0.95710
2879.43210	0.95658
2877.37830	0.95595
2875.32449	0.95581
2873.27069	0.95610
2871.21689	0.95635
2869.16308	0.95645
2867.10928	0.95654
2865.05548	0.95656
2863.00167	0.95669
2860.94787	0.95721
2858.89407	0.95805
2856.84026	0.95877
2854.78646	0.95928
2852.73266	0.95978
2850.67885	0.96016
2848.62505	0.96040
2846.57125	0.96082
2844.51744	0.96137
2842.46364	0.96182
2840.40984	0.96216
2838.35603	0.96246
2836.30223	0.96287
2834.24843	0.96345
2832.19463	0.96409
2830.14082	0.96457
2828.08702	0.96457
2826.03322	0.96421
2823.97941	0.96432
2821.92561	0.96519
2819.87181	0.96580
2817.81800	0.96556
2815.76420	0.96529
2813.71040	0.96566
2811.65659	0.96621
2809.60279	0.96632
2807.54899	0.96626
2805.49518	0.96644
2803.44138	0.96662
2801.38758	0.96640
2799.33377	0.96623
2797.27997	0.96647
2795.22617	0.96666
2793.17236	0.96661
2791.11856	0.96660
2789.06476	0.96685
2787.01095	0.96716
2784.95715	0.96723
2782.90335	0.96714
2780.84955	0.96715
2778.79574	0.96730
2776.74194	0.96755
2774.68814	0.96778
2772.63433	0.96778
2770.58053	0.96765
2768.52673	0.96757
2766.47292	0.96733
2764.41912	0.96714
2762.36532	0.96740
2760.31151	0.96764
2758.25771	0.96758
2756.20391	0.96764
2754.15010	0.96784
2752.09630	0.96797
2750.04250	0.96795
2747.98869	0.96784
2745.93489	0.96778
2743.88109	0.96788
2741.82728	0.96798
2739.77348	0.96788
2737.71968	0.96801
2735.66587	0.96830
2733.61207	0.96833
2731.55827	0.96841
2729.50446	0.96842
2727.45066	0.96829
2725.39686	0.96840
2723.34306	0.96861
2721.28925	0.96868
2719.23545	0.96878
2717.18165	0.96897
2715.12784	0.96910
2713.07404	0.96899
2711.02024	0.96878
2708.96643	0.96872
2706.91263	0.96872
2704.85883	0.96868
2702.80502	0.96881
2700.75122	0.96911
2698.69742	0.96917
2696.64361	0.96916
2694.58981	0.96928
2692.53601	0.96929
2690.48220	0.96925
2688.42840	0.96925
2686.37460	0.96938
2684.32079	0.96978
2682.26699	0.97017
2680.21319	0.97015
2678.15938	0.96994
2676.10558	0.97008
2674.05178	0.97034
2671.99797	0.97025
2669.94417	0.97009
2667.89037	0.96996
2665.83657	0.96981
2663.78276	0.96980
2661.72896	0.96969
2659.67516	0.96952
2657.62135	0.96972
2655.56755	0.97001
2653.51375	0.97003
2651.45994	0.96994
2649.40614	0.96982
2647.35234	0.96958
2645.29853	0.96961
2643.24473	0.97011
2641.19093	0.97027
2639.13712	0.96998
2637.08332	0.96989
2635.02952	0.96979
2632.97571	0.96937
2630.92191	0.96904
2628.86811	0.96930
2626.81430	0.96999
2624.76050	0.97043
2622.70670	0.97034
2620.65289	0.97028
2618.59909	0.97033
2616.54529	0.97014
2614.49149	0.97020
2612.43768	0.97078
2610.38388	0.97101
2608.33008	0.97040
2606.27627	0.96983
2604.22247	0.96993
2602.16867	0.97008
2600.11486	0.97022
2598.06106	0.97063
2596.00726	0.97042
2593.95345	0.96965
2591.89965	0.96967
2589.84585	0.97043
2587.79204	0.97098
2585.73824	0.97129
2583.68444	0.97160
2581.63063	0.97159
2579.57683	0.97140
2577.52303	0.97113
2575.46922	0.97050
2573.41542	0.97014
2571.36162	0.97054
2569.30781	0.97084
2567.25401	0.97051
2565.20021	0.97014
2563.14640	0.97039
2561.09260	0.97121
2559.03880	0.97181
2556.98500	0.97185
2554.93119	0.97169
2552.87739	0.97165
2550.82359	0.97174
2548.76978	0.97193
2546.71598	0.97187
2544.66218	0.97111
2542.60837	0.97083
2540.55457	0.97166
2538.50077	0.97215
2536.44696	0.97180
2534.39316	0.97156
2532.33936	0.97166
2530.28555	0.97165
2528.23175	0.97152
2526.17795	0.97129
2524.12414	0.97101
2522.07034	0.97124
2520.01654	0.97152
2517.96273	0.97132
2515.90893	0.97157
2513.85513	0.97199
2511.80132	0.97186
2509.74752	0.97180
2507.69372	0.97190
2505.63992	0.97166
2503.58611	0.97151
2501.53231	0.97183
2499.47851	0.97216
2497.42470	0.97197
2495.37090	0.97150
2493.31710	0.97135
2491.26329	0.97136
2489.20949	0.97105
2487.15569	0.97082
2485.10188	0.97147
2483.04808	0.97236
2480.99428	0.97262
2478.94047	0.97272
2476.88667	0.97263
2474.83287	0.97177
2472.77906	0.97090
2470.72526	0.97139
2468.67146	0.97245
2466.61765	0.97277
2464.56385	0.97296
2462.51005	0.97313
2460.45624	0.97282
2458.40244	0.97233
2456.34864	0.97187
2454.29483	0.97167
2452.24103	0.97188
2450.18723	0.97184
2448.13343	0.97151
2446.07962	0.97162
2444.02582	0.97193
2441.97202	0.97208
2439.91821	0.97198
2437.86441	0.97135
2435.81061	0.97074
2433.75680	0.97102
2431.70300	0.97137
2429.64920	0.97092
2427.59539	0.97112
2425.54159	0.97266
2423.48779	0.97383
2421.43398	0.97372
2419.38018	0.97302
2417.32638	0.97239
2415.27257	0.97215
2413.21877	0.97211
2411.16497	0.97172
2409.11116	0.97126
2407.05736	0.97129
2405.00356	0.97168
2402.94975	0.97231
2400.89595	0.97284
2398.84215	0.97271
2396.78834	0.97219
2394.73454	0.97200
2392.68074	0.97204
2390.62694	0.97220
2388.57313	0.97270
2386.51933	0.97304
2384.46553	0.97288
2382.41172	0.97286
2380.35792	0.97311
2378.30412	0.97314
2376.25031	0.97298
2374.19651	0.97240
2372.14271	0.97116
2370.08890	0.97024
2368.03510	0.97071
2365.98130	0.97140
2363.92749	0.97074
2361.87369	0.97035
2359.81989	0.97106
2357.76608	0.97157
2355.71228	0.97158
2353.65848	0.97163
2351.60467	0.97210
2349.55087	0.97248
2347.49707	0.97223
2345.44326	0.97177
2343.38946	0.97197
2341.33566	0.97213
2339.28186	0.97163
2337.22805	0.97163
2335.17425	0.97213
2333.12045	0.97218
2331.06664	0.97178
2329.01284	0.97142
2326.95904	0.97111
2324.90523	0.97023
2322.85143	0.96984
2320.79763	0.97103
2318.74382	0.97171
2316.69002	0.97110
2314.63622	0.97079
2312.58241	0.97158
2310.52861	0.97264
2308.47481	0.97282
2306.42100	0.97214
2304.36720	0.97184
2302.31340	0.97218
2300.25959	0.97208
2298.20579	0.97184
2296.15199	0.97213
2294.09818	0.97205
2292.04438	0.97120
2289.99058	0.97057
2287.93677	0.97046
2285.88297	0.97045
2283.82917	0.97065
2281.77537	0.97100
2279.72156	0.97112
2277.66776	0.97140
2275.61396	0.97189
2273.56015	0.97138
2271.50635	0.97050
2269.45255	0.97101
2267.39874	0.97211
2265.34494	0.97229
2263.29114	0.97190
2261.23733	0.97173
2259.18353	0.97194
2257.12973	0.97216
2255.07592	0.97214
2253.02212	0.97228
2250.96832	0.97276
2248.91451	0.97334
2246.86071	0.97293
2244.80691	0.97174
2242.75310	0.97206
2240.69930	0.97370
2238.64550	0.97472
2236.59169	0.97433
2234.53789	0.97322
2232.48409	0.97259
2230.43029	0.97177
2228.37648	0.97075
2226.32268	0.97159
2224.26888	0.97301
2222.21507	0.97264
2220.16127	0.97134
2218.10747	0.96996
2216.05366	0.97063
2213.99986	0.97390
2211.94606	0.97552
2209.89225	0.97487
2207.83845	0.97445
2205.78465	0.97436
2203.73084	0.97415
2201.67704	0.97370
2199.62324	0.97285
2197.56943	0.97217
2195.51563	0.97290
2193.46183	0.97401
2191.40802	0.97383
2189.35422	0.97285
2187.30042	0.97211
2185.24661	0.97320
2183.19281	0.97559
2181.13901	0.97510
2179.08520	0.97188
2177.03140	0.97088
2174.97760	0.97271
2172.92380	0.97430
2170.86999	0.97568
2168.81619	0.97764
2166.76239	0.97837
2164.70858	0.97857
2162.65478	0.97800
2160.60098	0.97502
2158.54717	0.97308
2156.49337	0.97359
2154.43957	0.97453
2152.38576	0.97482
2150.33196	0.97517
2148.27816	0.97590
2146.22435	0.97645
2144.17055	0.97659
2142.11675	0.97560
2140.06294	0.97421
2138.00914	0.97393
2135.95534	0.97583
2133.90153	0.97835
2131.84773	0.97801
2129.79393	0.97532
2127.74012	0.97402
2125.68632	0.97420
2123.63252	0.97398
2121.57871	0.97437
2119.52491	0.97462
2117.47111	0.97304
2115.41731	0.97178
2113.36350	0.97226
2111.30970	0.97288
2109.25590	0.97257
2107.20209	0.97182
2105.14829	0.97159
2103.09449	0.97185
2101.04068	0.97199
2098.98688	0.97182
2096.93308	0.97169
2094.87927	0.97211
2092.82547	0.97235
2090.77167	0.97233
2088.71786	0.97340
2086.66406	0.97508
2084.61026	0.97583
2082.55645	0.97565
2080.50265	0.97517
2078.44885	0.97489
2076.39504	0.97474
2074.34124	0.97422
2072.28744	0.97405
2070.23363	0.97458
2068.17983	0.97466
2066.12603	0.97393
2064.07223	0.97358
2062.01842	0.97391
2059.96462	0.97424
2057.91082	0.97464
2055.85701	0.97468
2053.80321	0.97421
2051.74941	0.97370
2049.69560	0.97328
2047.64180	0.97329
2045.58800	0.97320
2043.53419	0.97336
2041.48039	0.97533
2039.42659	0.97757
2037.37278	0.97718
2035.31898	0.97582
2033.26518	0.97675
2031.21137	0.97887
2029.15757	0.97899
2027.10377	0.97678
2025.04996	0.97542
2022.99616	0.97632
2020.94236	0.97798
2018.88855	0.97935
2016.83475	0.97951
2014.78095	0.97818
2012.72714	0.97603
2010.67334	0.97445
2008.61954	0.97443
2006.56574	0.97550
2004.51193	0.97659
2002.45813	0.97783
2000.40433	0.97865
1998.35052	0.97651
1996.29672	0.97315
1994.24292	0.97200
1992.18911	0.97189
1990.13531	0.97115
1988.08151	0.97131
1986.02770	0.97274
1983.97390	0.97368
1981.92010	0.97427
1979.86629	0.97613
1977.81249	0.97760
1975.75869	0.97552
1973.70488	0.97309
1971.65108	0.97412
1969.59728	0.97659
1967.54347	0.97858
1965.48967	0.97952
1963.43587	0.97882
1961.38206	0.97805
1959.32826	0.97855
1957.27446	0.97898
1955.22066	0.97855
1953.16685	0.97783
1951.11305	0.97737
1949.05925	0.97758
1947.00544	0.97769
1944.95164	0.97642
1942.89784	0.97564
1940.84403	0.97676
1938.79023	0.97714
1936.73643	0.97638
1934.68262	0.97602
1932.62882	0.97492
1930.57502	0.97265
1928.52121	0.97176
1926.46741	0.97323
1924.41361	0.97490
1922.35980	0.97547
1920.30600	0.97580
1918.25220	0.97603
1916.19839	0.97583
1914.14459	0.97532
1912.09079	0.97476
1910.03698	0.97463
1907.98318	0.97491
1905.92938	0.97510
1903.87557	0.97500
1901.82177	0.97480
1899.76797	0.97492
1897.71417	0.97549
1895.66036	0.97604
1893.60656	0.97626
1891.55276	0.97593
1889.49895	0.97508
1887.44515	0.97468
1885.39135	0.97493
1883.33754	0.97520
1881.28374	0.97551
1879.22994	0.97608
1877.17613	0.97644
1875.12233	0.97649
1873.06853	0.97628
1871.01472	0.97580
1868.96092	0.97558
1866.90712	0.97553
1864.85331	0.97528
1862.79951	0.97514
1860.74571	0.97527
1858.69190	0.97561
1856.63810	0.97605
1854.58430	0.97632
1852.53049	0.97627
1850.47669	0.97627
1848.42289	0.97668
1846.36908	0.97733
1844.31528	0.97735
1842.26148	0.97696
1840.20768	0.97715
1838.15387	0.97743
1836.10007	0.97723
1834.04627	0.97699
1831.99246	0.97701
1829.93866	0.97734
1827.88486	0.97798
1825.83105	0.97840
1823.77725	0.97805
1821.72345	0.97728
1819.66964	0.97714
1817.61584	0.97790
1815.56204	0.97832
1813.50823	0.97777
1811.45443	0.97703
1809.40063	0.97668
1807.34682	0.97674
1805.29302	0.97686
1803.23922	0.97684
1801.18541	0.97659
1799.13161	0.97610
1797.07781	0.97553
1795.02400	0.97505
1792.97020	0.97511
1790.91640	0.97561
1788.86260	0.97587
1786.80879	0.97596
1784.75499	0.97576
1782.70119	0.97555
1780.64738	0.97550
1778.59358	0.97518
1776.53978	0.97514
1774.48597	0.97582
1772.43217	0.97660
1770.37837	0.97655
1768.32456	0.97572
1766.27076	0.97483
1764.21696	0.97433
1762.16315	0.97416
1760.10935	0.97415
1758.05555	0.97349
1756.00174	0.97183
1753.94794	0.96987
1751.89414	0.96760
1749.84033	0.96461
1747.78653	0.96114
1745.73273	0.95701
1743.67892	0.95233
1741.62512	0.94737
1739.57132	0.94157
1737.51751	0.93635
1735.46371	0.93140
1733.40991	0.92397
1731.35611	0.91777
1729.30230	0.91393
1727.24850	0.91062
1725.19470	0.90774
1723.14089	0.90505
1721.08709	0.90280
1719.03329	0.90068
1716.97948	0.89797
1714.92568	0.89611
1712.87188	0.89554
1710.81807	0.89555
1708.76427	0.89570
1706.71047	0.89554
1704.65666	0.89581
1702.60286	0.89719
1700.54906	0.89876
1698.49525	0.89963
1696.44145	0.90079
1694.38765	0.90282
1692.33384	0.90510
1690.28004	0.90745
1688.22624	0.90999
1686.17243	0.91230
1684.11863	0.91426
1682.06483	0.91636
1680.01103	0.91871
1677.95722	0.92087
1675.90342	0.92253
1673.84962	0.92404
1671.79581	0.92572
1669.74201	0.92749
1667.68821	0.92921
1665.63440	0.93075
1663.58060	0.93215
1661.52680	0.93349
1659.47299	0.93476
1657.41919	0.93591
1655.36539	0.93720
1653.31158	0.93852
1651.25778	0.93881
1649.20398	0.93873
1647.15017	0.93841
1645.09637	0.93802
1643.04257	0.93843
1640.98876	0.93946
1638.93496	0.94087
1636.88116	0.94221
1634.82735	0.94264
1632.77355	0.94268
1630.71975	0.94270
1628.66594	0.94233
1626.61214	0.94210
1624.55834	0.94217
1622.50454	0.94151
1620.45073	0.94010
1618.39693	0.93806
1616.34313	0.93473
1614.28932	0.93173
1612.23552	0.92966
1610.18172	0.92754
1608.12791	0.92545
1606.07411	0.92332
1604.02031	0.92080
1601.96650	0.91781
1599.91270	0.91472
1597.85890	0.91218
1595.80509	0.91063
1593.75129	0.91044
1591.69749	0.91188
1589.64368	0.91508
1587.58988	0.91965
1585.53608	0.92481
1583.48227	0.92993
1581.42847	0.93461
1579.37467	0.93845
1577.32086	0.94179
1575.26706	0.94546
1573.21326	0.94855
1571.15945	0.95081
1569.10565	0.95275
1567.05185	0.95385
1564.99805	0.95390
1562.94424	0.95391
1560.89044	0.95412
1558.83664	0.95194
1556.78283	0.94732
1554.72903	0.94348
1552.67523	0.93943
1550.62142	0.93472
1548.56762	0.92946
1546.51382	0.92456
1544.46001	0.91925
1542.40621	0.91307
1540.35241	0.90553
1538.29860	0.89895
1536.24480	0.89584
1534.19100	0.89228
1532.13719	0.88760
1530.08339	0.88455
1528.02959	0.88234
1525.97578	0.88012
1523.92198	0.87817
1521.86818	0.87532
1519.81437	0.87205
1517.76057	0.86932
1515.70677	0.86643
1513.65297	0.86434
1511.59916	0.86343
1509.54536	0.86381
1507.49156	0.86646
1505.43775	0.87166
1503.38395	0.87675
1501.33015	0.88173
1499.27634	0.88737
1497.22254	0.89370
1495.16874	0.89929
1493.11493	0.90338
1491.06113	0.90704
1489.00733	0.91071
1486.95352	0.91379
1484.89972	0.91626
1482.84592	0.91816
1480.79211	0.91971
1478.73831	0.92121
1476.68451	0.92271
1474.63070	0.92403
1472.57690	0.92520
1470.52310	0.92647
1468.46929	0.92738
1466.41549	0.92760
1464.36169	0.92750
1462.30788	0.92781
1460.25408	0.92816
1458.20028	0.92759
1456.14648	0.92628
1454.09267	0.92588
1452.03887	0.92590
1449.98507	0.92601
1447.93126	0.92645
1445.87746	0.92719
1443.82366	0.92813
1441.76985	0.92921
1439.71605	0.93011
1437.66225	0.93022
1435.60844	0.92980
1433.55464	0.93021
1431.50084	0.93121
1429.44703	0.93215
1427.39323	0.93293
1425.33943	0.93316
1423.28562	0.93221
1421.23182	0.92963
1419.17802	0.92361
1417.12421	0.91429
1415.07041	0.90608
1413.01661	0.90036
1410.96280	0.89804
1408.90900	0.89965
1406.85520	0.90402
1404.80139	0.90974
1402.74759	0.91505
1400.69379	0.91893
1398.63999	0.92163
1396.58618	0.92359
1394.53238	0.92512
1392.47858	0.92596
1390.42477	0.92633
1388.37097	0.92654
1386.31717	0.92633
1384.26336	0.92549
1382.20956	0.92410
1380.15576	0.92236
1378.10195	0.92092
1376.04815	0.92042
1373.99435	0.92112
1371.94054	0.92284
1369.88674	0.92494
1367.83294	0.92709
1365.77913	0.92930
1363.72533	0.93151
1361.67153	0.93330
1359.61772	0.93441
1357.56392	0.93524
1355.51012	0.93623
1353.45631	0.93720
1351.40251	0.93765
1349.34871	0.93761
1347.29491	0.93753
1345.24110	0.93754
1343.18730	0.93766
1341.13350	0.93768
1339.07969	0.93734
1337.02589	0.93677
1334.97209	0.93598
1332.91828	0.93504
1330.86448	0.93389
1328.81068	0.93210
1326.75687	0.92934
1324.70307	0.92568
1322.64927	0.92141
1320.59546	0.91653
1318.54166	0.91139
1316.48786	0.90703
1314.43405	0.90355
1312.38025	0.90062
1310.32645	0.89874
1308.27264	0.89818
1306.21884	0.89861
1304.16504	0.89978
1302.11123	0.90152
1300.05743	0.90343
1298.00363	0.90522
1295.94982	0.90669
1293.89602	0.90789
1291.84222	0.90896
1289.78842	0.90977
1287.73461	0.91019
1285.68081	0.91017
1283.62701	0.90971
1281.57320	0.90923
1279.51940	0.90915
1277.46560	0.90928
1275.41179	0.90907
1273.35799	0.90867
1271.30419	0.90854
1269.25038	0.90863
1267.19658	0.90860
1265.14278	0.90845
1263.08897	0.90843
1261.03517	0.90841
1258.98137	0.90806
1256.92756	0.90738
1254.87376	0.90641
1252.81996	0.90502
1250.76615	0.90309
1248.71235	0.90084
1246.65855	0.89835
1244.60474	0.89519
1242.55094	0.89118
1240.49714	0.88680
1238.44334	0.88232
1236.38953	0.87768
1234.33573	0.87302
1232.28193	0.86853
1230.22812	0.86438
1228.17432	0.86067
1226.12052	0.85731
1224.06671	0.85439
1222.01291	0.85239
1219.95911	0.85136
1217.90530	0.85141
1215.85150	0.85290
1213.79770	0.85525
1211.74389	0.85754
1209.69009	0.85944
1207.63629	0.86135
1205.58248	0.86377
1203.52868	0.86667
1201.47488	0.86998
1199.42107	0.87354
1197.36727	0.87684
1195.31347	0.87995
1193.25966	0.88311
1191.20586	0.88589
1189.15206	0.88804
1187.09825	0.88939
1185.04445	0.88956
1182.99065	0.88892
1180.93685	0.88813
1178.88304	0.88726
1176.82924	0.88676
1174.77544	0.88664
1172.72163	0.88636
1170.66783	0.88607
1168.61403	0.88624
1166.56022	0.88673
1164.50642	0.88689
1162.45262	0.88652
1160.39881	0.88607
1158.34501	0.88579
1156.29121	0.88544
1154.23740	0.88470
1152.18360	0.88366
1150.12980	0.88284
1148.07599	0.88237
1146.02219	0.88190
1143.96839	0.88137
1141.91458	0.88059
1139.86078	0.87928
1137.80698	0.87775
1135.75317	0.87623
1133.69937	0.87466
1131.64557	0.87285
1129.59176	0.87078
1127.53796	0.86852
1125.48416	0.86594
1123.43036	0.86288
1121.37655	0.85957
1119.32275	0.85673
1117.26895	0.85441
1115.21514	0.85196
1113.16134	0.84948
1111.10754	0.84736
1109.05373	0.84535
1106.99993	0.84292
1104.94613	0.84001
1102.89232	0.83732
1100.83852	0.83508
1098.78472	0.83333
1096.73091	0.83215
1094.67711	0.83081
1092.62331	0.82891
1090.56950	0.82683
1088.51570	0.82502
1086.46190	0.82322
1084.40809	0.82092
1082.35429	0.81813
1080.30049	0.81500
1078.24668	0.81203
1076.19288	0.80969
1074.13908	0.80761
1072.08528	0.80537
1070.03147	0.80326
1067.97767	0.80175
1065.92387	0.80074
1063.87006	0.79998
1061.81626	0.79988
1059.76246	0.80046
1057.70865	0.80128
1055.65485	0.80205
1053.60105	0.80190
1051.54724	0.80061
1049.49344	0.79890
1047.43964	0.79690
1045.38583	0.79455
1043.33203	0.79210
1041.27823	0.78992
1039.22442	0.78824
1037.17062	0.78707
1035.11682	0.78681
1033.06301	0.78756
1031.00921	0.78854
1028.95541	0.78917
1026.90160	0.78964
1024.84780	0.78986
1022.79400	0.78863
1020.74019	0.78519
1018.68639	0.78076
1016.63259	0.77766
1014.57879	0.77759
1012.52498	0.77989
1010.47118	0.78259
1008.41738	0.78486
1006.36357	0.78686
1004.30977	0.78841
1002.25597	0.78965
1000.20216	0.79116
998.14836	0.79297
996.09456	0.79478
994.04075	0.79663
991.98695	0.79873
989.93315	0.80101
987.87934	0.80316
985.82554	0.80518
983.77174	0.80745
981.71793	0.81003
979.66413	0.81249
977.61033	0.81451
975.55652	0.81609
973.50272	0.81785
971.44892	0.82020
969.39511	0.82284
967.34131	0.82566
965.28751	0.82815
963.23371	0.82990
961.17990	0.83146
959.12610	0.83352
957.07230	0.83598
955.01849	0.83790
952.96469	0.83913
950.91089	0.84031
948.85708	0.84159
946.80328	0.84265
944.74948	0.84332
942.69567	0.84371
940.64187	0.84407
938.58807	0.84476
936.53426	0.84564
934.48046	0.84617
932.42666	0.84628
930.37285	0.84626
928.31905	0.84640
926.26525	0.84690
924.21144	0.84770
922.15764	0.84833
920.10384	0.84833
918.05003	0.84807
915.99623	0.84811
913.94243	0.84850
911.88862	0.84958
909.83482	0.85141
907.78102	0.85333
905.72722	0.85513
903.67341	0.85732
901.61961	0.86012
899.56581	0.86285
897.51200	0.86498
895.45820	0.86669
893.40440	0.86798
891.35059	0.86918
889.29679	0.87084
887.24299	0.87242
885.18918	0.87382
883.13538	0.87566
881.08158	0.87748
879.02777	0.87832
876.97397	0.87818
874.92017	0.87793
872.86636	0.87863
870.81256	0.88011
868.75876	0.88078
866.70495	0.88029
864.65115	0.88000
862.59735	0.88011
860.54354	0.87946
858.48974	0.87812
856.43594	0.87725
854.38213	0.87687
852.32833	0.87658
850.27453	0.87670
848.22073	0.87738
846.16692	0.87817
844.11312	0.87831
842.05932	0.87764
840.00551	0.87652
837.95171	0.87490
835.89791	0.87326
833.84410	0.87228
831.79030	0.87134
829.73650	0.86993
827.68269	0.86838
825.62889	0.86640
823.57509	0.86401
821.52128	0.86220
819.46748	0.86114
817.41368	0.85998
815.35987	0.85870
813.30607	0.85856
811.25227	0.86000
809.19846	0.86199
807.14466	0.86380
805.09086	0.86505
803.03705	0.86607
800.98325	0.86703
798.92945	0.86732
796.87565	0.86771
794.82184	0.86899
792.76804	0.87009
790.71424	0.86999
788.66043	0.86946
786.60663	0.86960
784.55283	0.87021
782.49902	0.87024
780.44522	0.86904
778.39142	0.86694
776.33761	0.86444
774.28381	0.86140
772.23001	0.85761
770.17620	0.85342
768.12240	0.84962
766.06860	0.84681
764.01479	0.84542
761.96099	0.84536
759.90719	0.84604
757.85338	0.84735
755.79958	0.84902
753.74578	0.85024
751.69197	0.85091
749.63817	0.85153
747.58437	0.85233
745.53056	0.85325
743.47676	0.85444
741.42296	0.85605
739.36916	0.85776
737.31535	0.85938
735.26155	0.86073
733.20775	0.86153
731.15394	0.86256
729.10014	0.86465
727.04634	0.86673
724.99253	0.86785
722.93873	0.86887
720.88493	0.87034
718.83112	0.87153
716.77732	0.87240
714.72352	0.87295
712.66971	0.87256
710.61591	0.87183
708.56211	0.87190
706.50830	0.87247
704.45450	0.87260
702.40070	0.87196
700.34689	0.87117
698.29309	0.87098
696.23929	0.87143
694.18548	0.87213
692.13168	0.87231
690.07788	0.87186
688.02408	0.87140
685.97027	0.87170
683.91647	0.87301
681.86267	0.87404
679.80886	0.87354
677.75506	0.87228
675.70126	0.87175
673.64745	0.87195
671.59365	0.87206
669.53985	0.87205
667.48604	0.87187
665.43224	0.87138
663.37844	0.87113
661.32463	0.87112
659.27083	0.87093
657.21703	0.87047
655.16322	0.86921
653.10942	0.86703
651.05562	0.86564
649.00181	0.86539
646.94801	0.86454
644.89421	0.86377
642.84040	0.86443
640.78660	0.86477
638.73280	0.86430
636.67899	0.86406
634.62519	0.86433
632.57139	0.86572
630.51759	0.86657
628.46378	0.86572
626.40998	0.86556
624.35618	0.86635
622.30237	0.86611
620.24857	0.86486
618.19477	0.86392
616.14096	0.86324
614.08716	0.86128
612.03336	0.85898
609.97955	0.85830
607.92575	0.85787
605.87195	0.85609
603.81814	0.85416
601.76434	0.85346
599.71054	0.85410
597.65673	0.85504
595.60293	0.85475
593.54913	0.85369
591.49532	0.85301
589.44152	0.85241
587.38772	0.85179
585.33391	0.85103
583.28011	0.84970
581.22631	0.84822
579.17250	0.84704
577.11870	0.84632
575.06490	0.84635
573.01110	0.84668
570.95729	0.84598
568.90349	0.84474
566.84969	0.84474
564.79588	0.84417
562.74208	0.84102
560.68828	0.83831
558.63447	0.83808
556.58067	0.83750
554.52687	0.83526
552.47306	0.83316
550.41926	0.83105
548.36546	0.82799
546.31165	0.82518
544.25785	0.82285
542.20405	0.82016
540.15024	0.81775
538.09644	0.81609
536.04264	0.81460
533.98883	0.81281
531.93503	0.81104
529.88123	0.80942
527.82742	0.80731
525.77362	0.80473
523.71982	0.80269
521.66602	0.80163
519.61221	0.80125
517.55841	0.80089
515.50461	0.79892
513.45080	0.79530
511.39700	0.79175
509.34320	0.78944
507.28939	0.78866
505.23559	0.78949
503.18179	0.79213
501.12798	0.79481
499.07418	0.79583
497.02038	0.79710
494.96657	0.79995
492.91277	0.80266
490.85897	0.80302
488.80516	0.80122
486.75136	0.79864
484.69756	0.79750
482.64375	0.79770
480.58995	0.79493
478.53615	0.78966
476.48234	0.78508
474.42854	0.78078
472.37474	0.77830
470.32093	0.77890
468.26713	0.77853
466.21333	0.77634
464.15953	0.77482
462.10572	0.77389
460.05192	0.77343
457.99812	0.77498
455.94431	0.77821
453.89051	0.78056
451.83671	0.78049
449.78290	0.78041
447.72910	0.78319
445.67530	0.78595
443.62149	0.78556
441.56769	0.78370
439.51389	0.78409
437.46008	0.78668
435.40628	0.78795
433.35248	0.78826
431.29867	0.78846
429.24487	0.78396
427.19107	0.77791
425.13726	0.77888
423.08346	0.78389
421.02966	0.78773
418.97585	0.79110
416.92205	0.78902
414.86825	0.78129
412.81445	0.77514
410.76064	0.77560
408.70684	0.77944
406.65304	0.78201
404.59923	0.78260
402.54543	0.78243
400.49163	0.78302
398.43782	0.78313
