3996.70104	0.97567
3994.64724	0.97570
3992.59344	0.97535
3990.53964	0.97531
3988.48583	0.97565
3986.43203	0.97558
3984.37823	0.97498
3982.32442	0.97465
3980.27062	0.97493
3978.21682	0.97552
3976.16301	0.97596
3974.10921	0.97598
3972.05541	0.97610
3970.00160	0.97654
3967.94780	0.97657
3965.89400	0.97599
3963.84019	0.97543
3961.78639	0.97513
3959.73259	0.97539
3957.67878	0.97575
3955.62498	0.97541
3953.57118	0.97511
3951.51737	0.97529
3949.46357	0.97548
3947.40977	0.97568
3945.35596	0.97599
3943.30216	0.97632
3941.24836	0.97643
3939.19455	0.97640
3937.14075	0.97624
3935.08695	0.97543
3933.03315	0.97475
3930.97934	0.97545
3928.92554	0.97630
3926.87174	0.97633
3924.81793	0.97588
3922.76413	0.97519
3920.71033	0.97489
3918.65652	0.97527
3916.60272	0.97579
3914.54892	0.97587
3912.49511	0.97566
3910.44131	0.97557
3908.38751	0.97548
3906.33370	0.97511
3904.27990	0.97491
3902.22610	0.97549
3900.17229	0.97603
3898.11849	0.97570
3896.06469	0.97538
3894.01088	0.97586
3891.95708	0.97677
3889.90328	0.97732
3887.84947	0.97730
3885.79567	0.97681
3883.74187	0.97624
3881.68807	0.97612
3879.63426	0.97600
3877.58046	0.97558
3875.52666	0.97553
3873.47285	0.97573
3871.41905	0.97578
3869.36525	0.97589
3867.31144	0.97581
3865.25764	0.97568
3863.20384	0.97584
3861.15003	0.97609
3859.09623	0.97600
3857.04243	0.97519
3854.98862	0.97399
3852.93482	0.97436
3850.88102	0.97600
3848.82721	0.97662
3846.77341	0.97645
3844.71961	0.97610
3842.66580	0.97648
3840.61200	0.97735
3838.55820	0.97715
3836.50439	0.97597
3834.45059	0.97554
3832.39679	0.97585
3830.34298	0.97616
3828.28918	0.97637
3826.23538	0.97639
3824.18158	0.97620
3822.12777	0.97648
3820.07397	0.97690
3818.02017	0.97640
3815.96636	0.97639
3813.91256	0.97719
3811.85876	0.97748
3809.80495	0.97716
3807.75115	0.97673
3805.69735	0.97688
3803.64354	0.97733
3801.58974	0.97717
3799.53594	0.97632
3797.48213	0.97586
3795.42833	0.97595
3793.37453	0.97597
3791.32072	0.97594
3789.26692	0.97615
3787.21312	0.97651
3785.15931	0.97705
3783.10551	0.97734
3781.05171	0.97678
3778.99790	0.97612
3776.94410	0.97610
3774.89030	0.97638
3772.83650	0.97643
3770.78269	0.97591
3768.72889	0.97540
3766.67509	0.97547
3764.62128	0.97578
3762.56748	0.97627
3760.51368	0.97684
3758.45987	0.97690
3756.40607	0.97676
3754.35227	0.97746
3752.29846	0.97834
3750.24466	0.97783
3748.19086	0.97730
3746.13705	0.97784
3744.08325	0.97816
3742.02945	0.97713
3739.97564	0.97594
3737.92184	0.97550
3735.86804	0.97582
3733.81423	0.97627
3731.76043	0.97648
3729.70663	0.97650
3727.65282	0.97604
3725.59902	0.97582
3723.54522	0.97646
3721.49141	0.97690
3719.43761	0.97654
3717.38381	0.97583
3715.33001	0.97579
3713.27620	0.97628
3711.22240	0.97610
3709.16860	0.97497
3707.11479	0.97361
3705.06099	0.97246
3703.00719	0.97170
3700.95338	0.97099
3698.89958	0.97033
3696.84578	0.97034
3694.79197	0.97106
3692.73817	0.97177
3690.68437	0.97205
3688.63056	0.97208
3686.57676	0.97245
3684.52296	0.97287
3682.46915	0.97276
3680.41535	0.97276
3678.36155	0.97346
3676.30774	0.97370
3674.25394	0.97237
3672.20014	0.97097
3670.14633	0.97029
3668.09253	0.97029
3666.03873	0.97037
3663.98492	0.96992
3661.93112	0.96901
3659.87732	0.96841
3657.82352	0.96847
3655.76971	0.96845
3653.71591	0.96755
3651.66211	0.96622
3649.60830	0.96550
3647.55450	0.96564
3645.50070	0.96544
3643.44689	0.96480
3641.39309	0.96398
3639.33929	0.96362
3637.28548	0.96395
3635.23168	0.96396
3633.17788	0.96334
3631.12407	0.96238
3629.07027	0.96094
3627.01647	0.95989
3624.96266	0.95967
3622.90886	0.95918
3620.85506	0.95789
3618.80125	0.95664
3616.74745	0.95630
3614.69365	0.95617
3612.63984	0.95598
3610.58604	0.95560
3608.53224	0.95455
3606.47844	0.95316
3604.42463	0.95186
3602.37083	0.95095
3600.31703	0.95088
3598.26322	0.95086
3596.20942	0.95022
3594.15562	0.94979
3592.10181	0.94981
3590.04801	0.94941
3587.99421	0.94849
3585.94040	0.94789
3583.88660	0.94776
3581.83280	0.94777
3579.77899	0.94751
3577.72519	0.94671
3575.67139	0.94557
3573.61758	0.94442
3571.56378	0.94350
3569.50998	0.94283
3567.45617	0.94213
3565.40237	0.94121
3563.34857	0.94079
3561.29476	0.94081
3559.24096	0.94035
3557.18716	0.93912
3555.13335	0.93770
3553.07955	0.93677
3551.02575	0.93638
3548.97195	0.93584
3546.91814	0.93477
3544.86434	0.93398
3542.81054	0.93385
3540.75673	0.93341
3538.70293	0.93252
3536.64913	0.93182
3534.59532	0.93147
3532.54152	0.93116
3530.48772	0.93055
3528.43391	0.92976
3526.38011	0.92898
3524.32631	0.92822
3522.27250	0.92752
3520.21870	0.92671
3518.16490	0.92592
3516.11109	0.92542
3514.05729	0.92521
3512.00349	0.92495
3509.94968	0.92404
3507.89588	0.92316
3505.84208	0.92305
3503.78827	0.92305
3501.73447	0.92262
3499.68067	0.92180
3497.62687	0.92095
3495.57306	0.91984
3493.51926	0.91894
3491.46546	0.91897
3489.41165	0.91892
3487.35785	0.91830
3485.30405	0.91791
3483.25024	0.91795
3481.19644	0.91760
3479.14264	0.91656
3477.08883	0.91554
3475.03503	0.91460
3472.98123	0.91350
3470.92742	0.91267
3468.87362	0.91235
3466.81982	0.91211
3464.76601	0.91160
3462.71221	0.91115
3460.65841	0.91074
3458.60460	0.90996
3456.55080	0.90924
3454.49700	0.90880
3452.44319	0.90818
3450.38939	0.90737
3448.33559	0.90679
3446.28178	0.90641
3444.22798	0.90585
3442.17418	0.90526
3440.12038	0.90494
3438.06657	0.90451
3436.01277	0.90388
3433.95897	0.90351
3431.90516	0.90328
3429.85136	0.90290
3427.79756	0.90235
3425.74375	0.90170
3423.68995	0.90139
3421.63615	0.90129
3419.58234	0.90112
3417.52854	0.90087
3415.47474	0.90029
3413.42093	0.89927
3411.36713	0.89802
3409.31333	0.89694
3407.25952	0.89645
3405.20572	0.89630
3403.15192	0.89581
3401.09811	0.89523
3399.04431	0.89534
3396.99051	0.89587
3394.93670	0.89599
3392.88290	0.89596
3390.82910	0.89593
3388.77529	0.89570
3386.72149	0.89564
3384.66769	0.89562
3382.61389	0.89525
3380.56008	0.89487
3378.50628	0.89466
3376.45248	0.89459
3374.39867	0.89441
3372.34487	0.89400
3370.29107	0.89373
3368.23726	0.89363
3366.18346	0.89381
3364.12966	0.89458
3362.07585	0.89505
3360.02205	0.89456
3357.96825	0.89382
3355.91444	0.89355
3353.86064	0.89393
3351.80684	0.89453
3349.75303	0.89476
3347.69923	0.89454
3345.64543	0.89429
3343.59162	0.89440
3341.53782	0.89476
3339.48402	0.89503
3337.43021	0.89511
3335.37641	0.89528
3333.32261	0.89561
3331.26881	0.89600
3329.21500	0.89613
3327.16120	0.89609
3325.10740	0.89636
3323.05359	0.89657
3320.99979	0.89647
3318.94599	0.89671
3316.89218	0.89723
3314.83838	0.89757
3312.78458	0.89790
3310.73077	0.89827
3308.67697	0.89852
3306.62317	0.89882
3304.56936	0.89936
3302.51556	0.90002
3300.46176	0.90045
3298.40795	0.90045
3296.35415	0.90060
3294.30035	0.90114
3292.24654	0.90146
3290.19274	0.90164
3288.13894	0.90193
3286.08513	0.90217
3284.03133	0.90232
3281.97753	0.90239
3279.92372	0.90219
3277.86992	0.90198
3275.81612	0.90244
3273.76232	0.90325
3271.70851	0.90351
3269.65471	0.90359
3267.60091	0.90426
3265.54710	0.90500
3263.49330	0.90526
3261.43950	0.90543
3259.38569	0.90570
3257.33189	0.90585
3255.27809	0.90600
3253.22428	0.90617
3251.17048	0.90606
3249.11668	0.90601
3247.06287	0.90618
3245.00907	0.90624
3242.95527	0.90653
3240.90146	0.90724
3238.84766	0.90779
3236.79386	0.90830
3234.74005	0.90885
3232.68625	0.90922
3230.63245	0.90964
3228.57864	0.91005
3226.52484	0.91038
3224.47104	0.91079
3222.41724	0.91131
3220.36343	0.91177
3218.30963	0.91206
3216.25583	0.91230
3214.20202	0.91262
3212.14822	0.91313
3210.09442	0.91368
3208.04061	0.91389
3205.98681	0.91401
3203.93301	0.91470
3201.87920	0.91557
3199.82540	0.91602
3197.77160	0.91652
3195.71779	0.91725
3193.66399	0.91763
3191.61019	0.91814
3189.55638	0.91922
3187.50258	0.91988
3185.44878	0.92011
3183.39497	0.92090
3181.34117	0.92173
3179.28737	0.92203
3177.23356	0.92239
3175.17976	0.92303
3173.12596	0.92360
3171.07215	0.92413
3169.01835	0.92469
3166.96455	0.92515
3164.91075	0.92568
3162.85694	0.92621
3160.80314	0.92649
3158.74934	0.92691
3156.69553	0.92748
3154.64173	0.92775
3152.58793	0.92805
3150.53412	0.92868
3148.48032	0.92933
3146.42652	0.92981
3144.37271	0.93017
3142.31891	0.93072
3140.26511	0.93144
3138.21130	0.93200
3136.15750	0.93269
3134.10370	0.93345
3132.04989	0.93376
3129.99609	0.93405
3127.94229	0.93452
3125.88848	0.93468
3123.83468	0.93481
3121.78088	0.93544
3119.72707	0.93598
3117.67327	0.93608
3115.61947	0.93636
3113.56566	0.93688
3111.51186	0.93732
3109.45806	0.93775
3107.40426	0.93832
3105.35045	0.93909
3103.29665	0.93969
3101.24285	0.93982
3099.18904	0.93999
3097.13524	0.94025
3095.08144	0.94019
3093.02763	0.93998
3090.97383	0.94007
3088.92003	0.94051
3086.86622	0.94098
3084.81242	0.94157
3082.75862	0.94235
3080.70481	0.94288
3078.65101	0.94302
3076.59721	0.94305
3074.54340	0.94315
3072.48960	0.94373
3070.43580	0.94476
3068.38199	0.94528
3066.32819	0.94538
3064.27439	0.94571
3062.22058	0.94587
3060.16678	0.94574
3058.11298	0.94585
3056.05918	0.94613
3054.00537	0.94640
3051.95157	0.94681
3049.89777	0.94740
3047.84396	0.94779
3045.79016	0.94806
3043.73636	0.94854
3041.68255	0.94886
3039.62875	0.94910
3037.57495	0.94968
3035.52114	0.95033
3033.46734	0.95075
3031.41354	0.95075
3029.35973	0.95016
3027.30593	0.94951
3025.25213	0.94932
3023.19832	0.94946
3021.14452	0.95007
3019.09072	0.95100
3017.03691	0.95152
3014.98311	0.95164
3012.92931	0.95175
3010.87550	0.95203
3008.82170	0.95247
3006.76790	0.95281
3004.71409	0.95297
3002.66029	0.95293
3000.60649	0.95301
2998.55269	0.95318
2996.49888	0.95307
2994.44508	0.95307
2992.39128	0.95324
2990.33747	0.95279
2988.28367	0.95228
2986.22987	0.95250
2984.17606	0.95293
2982.12226	0.95317
2980.06846	0.95319
2978.01465	0.95286
2975.96085	0.95229
2973.90705	0.95168
2971.85324	0.95124
2969.79944	0.95090
2967.74564	0.95034
2965.69183	0.94948
2963.63803	0.94854
2961.58423	0.94759
2959.53042	0.94638
2957.47662	0.94482
2955.42282	0.94300
2953.36901	0.94122
2951.31521	0.93977
2949.26141	0.93798
2947.20761	0.93476
2945.15380	0.92983
2943.10000	0.92339
2941.04620	0.91573
2938.99239	0.90680
2936.93859	0.89588
2934.88479	0.88241
2932.83098	0.86646
2930.77718	0.84825
2928.72338	0.82719
2926.66957	0.80174
2924.61577	0.77086
2922.56197	0.73504
2920.50816	0.69579
2918.45436	0.65650
2916.40056	0.62455
2914.34675	0.60927
2912.29295	0.61496
2910.23915	0.63622
2908.18534	0.66307
2906.13154	0.68883
2904.07774	0.71076
2902.02393	0.72836
2899.97013	0.74242
2897.91633	0.75403
2895.86252	0.76440
2893.80872	0.77476
2891.75492	0.78564
2889.70112	0.79683
2887.64731	0.80821
2885.59351	0.81977
2883.53971	0.83165
2881.48590	0.84403
2879.43210	0.85662
2877.37830	0.86870
2875.32449	0.87977
2873.27069	0.88924
2871.21689	0.89626
2869.16308	0.90018
2867.10928	0.90077
2865.05548	0.89833
2863.00167	0.89249
2860.94787	0.88151
2858.89407	0.86328
2856.84026	0.83538
2854.78646	0.79458
2852.73266	0.74060
2850.67885	0.68324
2848.62505	0.64161
2846.57125	0.63179
2844.51744	0.65374
2842.46364	0.69355
2840.40984	0.73686
2838.35603	0.77551
2836.30223	0.80658
2834.24843	0.83069
2832.19463	0.84945
2830.14082	0.86416
2828.08702	0.87592
2826.03322	0.88549
2823.97941	0.89345
2821.92561	0.90026
2819.87181	0.90617
2817.81800	0.91093
2815.76420	0.91462
2813.71040	0.91798
2811.65659	0.92117
2809.60279	0.92373
2807.54899	0.92594
2805.49518	0.92826
2803.44138	0.93040
2801.38758	0.93223
2799.33377	0.93404
2797.27997	0.93598
2795.22617	0.93774
2793.17236	0.93909
2791.11856	0.94050
2789.06476	0.94211
2787.01095	0.94339
2784.95715	0.94434
2782.90335	0.94522
2780.84955	0.94602
2778.79574	0.94695
2776.74194	0.94788
2774.68814	0.94863
2772.63433	0.94954
2770.58053	0.95056
2768.52673	0.95116
2766.47292	0.95152
2764.41912	0.95193
2762.36532	0.95224
2760.31151	0.95246
2758.25771	0.95276
2756.20391	0.95306
2754.15010	0.95338
2752.09630	0.95405
2750.04250	0.95491
2747.98869	0.95532
2745.93489	0.95523
2743.88109	0.95523
2741.82728	0.95573
2739.77348	0.95639
2737.71968	0.95656
2735.66587	0.95644
2733.61207	0.95635
2731.55827	0.95634
2729.50446	0.95673
2727.45066	0.95741
2725.39686	0.95788
2723.34306	0.95800
2721.28925	0.95804
2719.23545	0.95818
2717.18165	0.95830
2715.12784	0.95847
2713.07404	0.95878
2711.02024	0.95902
2708.96643	0.95902
2706.91263	0.95917
2704.85883	0.95971
2702.80502	0.96003
2700.75122	0.95980
2698.69742	0.95966
2696.64361	0.95982
2694.58981	0.96000
2692.53601	0.96006
2690.48220	0.96001
2688.42840	0.96011
2686.37460	0.96038
2684.32079	0.96067
2682.26699	0.96104
2680.21319	0.96147
2678.15938	0.96155
2676.10558	0.96116
2674.05178	0.96080
2671.99797	0.96078
2669.94417	0.96099
2667.89037	0.96131
2665.83657	0.96133
2663.78276	0.96088
2661.72896	0.96038
2659.67516	0.96010
2657.62135	0.95996
2655.56755	0.95991
2653.51375	0.96007
2651.45994	0.96058
2649.40614	0.96103
2647.35234	0.96092
2645.29853	0.96057
2643.24473	0.96024
2641.19093	0.95998
2639.13712	0.96003
2637.08332	0.96013
2635.02952	0.96004
2632.97571	0.96016
2630.92191	0.96042
2628.86811	0.96056
2626.81430	0.96110
2624.76050	0.96201
2622.70670	0.96263
2620.65289	0.96289
2618.59909	0.96302
2616.54529	0.96356
2614.49149	0.96434
2612.43768	0.96421
2610.38388	0.96355
2608.33008	0.96357
2606.27627	0.96403
2604.22247	0.96426
2602.16867	0.96435
2600.11486	0.96448
2598.06106	0.96454
2596.00726	0.96470
2593.95345	0.96494
2591.89965	0.96497
2589.84585	0.96523
2587.79204	0.96589
2585.73824	0.96634
2583.68444	0.96629
2581.63063	0.96597
2579.57683	0.96578
2577.52303	0.96602
2575.46922	0.96645
2573.41542	0.96643
2571.36162	0.96626
2569.30781	0.96630
2567.25401	0.96603
2565.20021	0.96583
2563.14640	0.96631
2561.09260	0.96733
2559.03880	0.96820
2556.98500	0.96821
2554.93119	0.96797
2552.87739	0.96801
2550.82359	0.96799
2548.76978	0.96809
2546.71598	0.96811
2544.66218	0.96778
2542.60837	0.96778
2540.55457	0.96784
2538.50077	0.96736
2536.44696	0.96694
2534.39316	0.96713
2532.33936	0.96776
2530.28555	0.96845
2528.23175	0.96899
2526.17795	0.96929
2524.12414	0.96920
2522.07034	0.96883
2520.01654	0.96887
2517.96273	0.96952
2515.90893	0.97015
2513.85513	0.97051
2511.80132	0.97070
2509.74752	0.97042
2507.69372	0.96958
2505.63992	0.96891
2503.58611	0.96869
2501.53231	0.96863
2499.47851	0.96889
2497.42470	0.96932
2495.37090	0.96941
2493.31710	0.96935
2491.26329	0.96946
2489.20949	0.96975
2487.15569	0.96993
2485.10188	0.97002
2483.04808	0.97011
2480.99428	0.96988
2478.94047	0.96951
2476.88667	0.96935
2474.83287	0.96941
2472.77906	0.96961
2470.72526	0.96949
2468.67146	0.96919
2466.61765	0.96958
2464.56385	0.97018
2462.51005	0.97022
2460.45624	0.96999
2458.40244	0.96945
2456.34864	0.96882
2454.29483	0.96886
2452.24103	0.96965
2450.18723	0.97050
2448.13343	0.97071
2446.07962	0.97017
2444.02582	0.96935
2441.97202	0.96887
2439.91821	0.96901
2437.86441	0.96946
2435.81061	0.96979
2433.75680	0.96997
2431.70300	0.97036
2429.64920	0.97082
2427.59539	0.97058
2425.54159	0.96960
2423.48779	0.96878
2421.43398	0.96870
2419.38018	0.96900
2417.32638	0.96898
2415.27257	0.96890
2413.21877	0.96953
2411.16497	0.96987
2409.11116	0.96921
2407.05736	0.96895
2405.00356	0.96967
2402.94975	0.97050
2400.89595	0.97062
2398.84215	0.97006
2396.78834	0.96971
2394.73454	0.96955
2392.68074	0.96932
2390.62694	0.96945
2388.57313	0.96996
2386.51933	0.97037
2384.46553	0.97042
2382.41172	0.96999
2380.35792	0.96944
2378.30412	0.96934
2376.25031	0.96942
2374.19651	0.96923
2372.14271	0.96901
2370.08890	0.96930
2368.03510	0.97028
2365.98130	0.97086
2363.92749	0.97044
2361.87369	0.97015
2359.81989	0.97036
2357.76608	0.97009
2355.71228	0.96922
2353.65848	0.96818
2351.60467	0.96727
2349.55087	0.96696
2347.49707	0.96721
2345.44326	0.96751
2343.38946	0.96761
2341.33566	0.96773
2339.28186	0.96772
2337.22805	0.96710
2335.17425	0.96611
2333.12045	0.96564
2331.06664	0.96596
2329.01284	0.96654
2326.95904	0.96668
2324.90523	0.96613
2322.85143	0.96538
2320.79763	0.96558
2318.74382	0.96703
2316.69002	0.96821
2314.63622	0.96825
2312.58241	0.96806
2310.52861	0.96762
2308.47481	0.96653
2306.42100	0.96570
2304.36720	0.96562
2302.31340	0.96610
2300.25959	0.96717
2298.20579	0.96855
2296.15199	0.96943
2294.09818	0.96897
2292.04438	0.96763
2289.99058	0.96695
2287.93677	0.96773
2285.88297	0.96907
2283.82917	0.96953
2281.77537	0.96901
2279.72156	0.96862
2277.66776	0.96882
2275.61396	0.96905
2273.56015	0.96875
2271.50635	0.96825
2269.45255	0.96790
2267.39874	0.96787
2265.34494	0.96837
2263.29114	0.96933
2261.23733	0.96990
2259.18353	0.96958
2257.12973	0.96917
2255.07592	0.96939
2253.02212	0.97010
2250.96832	0.97045
2248.91451	0.97076
2246.86071	0.97117
2244.80691	0.97091
2242.75310	0.97020
2240.69930	0.96877
2238.64550	0.96724
2236.59169	0.96778
2234.53789	0.96924
2232.48409	0.96890
2230.43029	0.96842
2228.37648	0.96938
2226.32268	0.96999
2224.26888	0.96930
2222.21507	0.96832
2220.16127	0.96849
2218.10747	0.96994
2216.05366	0.97125
2213.99986	0.97188
2211.94606	0.97235
2209.89225	0.97324
2207.83845	0.97426
2205.78465	0.97387
2203.73084	0.97232
2201.67704	0.97170
2199.62324	0.97255
2197.56943	0.97324
2195.51563	0.97279
2193.46183	0.97244
2191.40802	0.97359
2189.35422	0.97428
2187.30042	0.97056
2185.24661	0.96583
2183.19281	0.96650
2181.13901	0.97023
2179.08520	0.97224
2177.03140	0.97387
2174.97760	0.97658
2172.92380	0.97711
2170.86999	0.97345
2168.81619	0.96922
2166.76239	0.96852
2164.70858	0.97005
2162.65478	0.97145
2160.60098	0.97149
2158.54717	0.96991
2156.49337	0.97141
2154.43957	0.97575
2152.38576	0.97723
2150.33196	0.97484
2148.27816	0.97208
2146.22435	0.97132
2144.17055	0.97142
2142.11675	0.97212
2140.06294	0.97377
2138.00914	0.97437
2135.95534	0.97304
2133.90153	0.97194
2131.84773	0.97272
2129.79393	0.97374
2127.74012	0.97324
2125.68632	0.97235
2123.63252	0.97197
2121.57871	0.97139
2119.52491	0.97050
2117.47111	0.97030
2115.41731	0.97128
2113.36350	0.97242
2111.30970	0.97281
2109.25590	0.97271
2107.20209	0.97251
2105.14829	0.97251
2103.09449	0.97268
2101.04068	0.97179
2098.98688	0.97013
2096.93308	0.96953
2094.87927	0.96950
2092.82547	0.96985
2090.77167	0.97069
2088.71786	0.97033
2086.66406	0.96924
2084.61026	0.96931
2082.55645	0.97030
2080.50265	0.97072
2078.44885	0.97089
2076.39504	0.97172
2074.34124	0.97279
2072.28744	0.97362
2070.23363	0.97327
2068.17983	0.97169
2066.12603	0.97040
2064.07223	0.97007
2062.01842	0.97011
2059.96462	0.97000
2057.91082	0.96970
2055.85701	0.96968
2053.80321	0.97062
2051.74941	0.97240
2049.69560	0.97288
2047.64180	0.97041
2045.58800	0.96815
2043.53419	0.96882
2041.48039	0.97054
2039.42659	0.97137
2037.37278	0.97176
2035.31898	0.97359
2033.26518	0.97627
2031.21137	0.97743
2029.15757	0.97536
2027.10377	0.96970
2025.04996	0.96623
2022.99616	0.96881
2020.94236	0.97116
2018.88855	0.97057
2016.83475	0.97128
2014.78095	0.97099
2012.72714	0.96896
2010.67334	0.97068
2008.61954	0.97389
2006.56574	0.97544
2004.51193	0.97725
2002.45813	0.97762
2000.40433	0.97549
1998.35052	0.97380
1996.29672	0.97405
1994.24292	0.97448
1992.18911	0.97349
1990.13531	0.97271
1988.08151	0.97454
1986.02770	0.97689
1983.97390	0.97674
1981.92010	0.97490
1979.86629	0.97259
1977.81249	0.97047
1975.75869	0.97032
1973.70488	0.97156
1971.65108	0.97267
1969.59728	0.97458
1967.54347	0.97562
1965.48967	0.97434
1963.43587	0.97338
1961.38206	0.97334
1959.32826	0.97287
1957.27446	0.97186
1955.22066	0.97169
1953.16685	0.97230
1951.11305	0.97214
1949.05925	0.97191
1947.00544	0.97271
1944.95164	0.97387
1942.89784	0.97454
1940.84403	0.97432
1938.79023	0.97378
1936.73643	0.97382
1934.68262	0.97428
1932.62882	0.97436
1930.57502	0.97414
1928.52121	0.97423
1926.46741	0.97440
1924.41361	0.97440
1922.35980	0.97436
1920.30600	0.97419
1918.25220	0.97385
1916.19839	0.97319
1914.14459	0.97287
1912.09079	0.97338
1910.03698	0.97380
1907.98318	0.97355
1905.92938	0.97283
1903.87557	0.97211
1901.82177	0.97187
1899.76797	0.97200
1897.71417	0.97259
1895.66036	0.97311
1893.60656	0.97251
1891.55276	0.97147
1889.49895	0.97079
1887.44515	0.97059
1885.39135	0.97107
1883.33754	0.97178
1881.28374	0.97232
1879.22994	0.97213
1877.17613	0.97088
1875.12233	0.96994
1873.06853	0.97024
1871.01472	0.97086
1868.96092	0.97118
1866.90712	0.97156
1864.85331	0.97168
1862.79951	0.97135
1860.74571	0.97114
1858.69190	0.97111
1856.63810	0.97117
1854.58430	0.97176
1852.53049	0.97265
1850.47669	0.97302
1848.42289	0.97271
1846.36908	0.97235
1844.31528	0.97249
1842.26148	0.97275
1840.20768	0.97280
1838.15387	0.97272
1836.10007	0.97223
1834.04627	0.97158
1831.99246	0.97151
1829.93866	0.97192
1827.88486	0.97198
1825.83105	0.97153
1823.77725	0.97115
1821.72345	0.97126
1819.66964	0.97177
1817.61584	0.97203
1815.56204	0.97156
1813.50823	0.97096
1811.45443	0.97097
1809.40063	0.97146
1807.34682	0.97163
1805.29302	0.97129
1803.23922	0.97121
1801.18541	0.97139
1799.13161	0.97098
1797.07781	0.97024
1795.02400	0.96979
1792.97020	0.96925
1790.91640	0.96876
1788.86260	0.96894
1786.80879	0.96928
1784.75499	0.96972
1782.70119	0.97023
1780.64738	0.97032
1778.59358	0.97010
1776.53978	0.97012
1774.48597	0.97039
1772.43217	0.97077
1770.37837	0.97073
1768.32456	0.97011
1766.27076	0.96966
1764.21696	0.96935
1762.16315	0.96885
1760.10935	0.96850
1758.05555	0.96839
1756.00174	0.96808
1753.94794	0.96741
1751.89414	0.96686
1749.84033	0.96681
1747.78653	0.96670
1745.73273	0.96618
1743.67892	0.96568
1741.62512	0.96523
1739.57132	0.96470
1737.51751	0.96410
1735.46371	0.96347
1733.40991	0.96293
1731.35611	0.96247
1729.30230	0.96179
1727.24850	0.96105
1725.19470	0.96066
1723.14089	0.96026
1721.08709	0.95939
1719.03329	0.95838
1716.97948	0.95796
1714.92568	0.95794
1712.87188	0.95765
1710.81807	0.95721
1708.76427	0.95680
1706.71047	0.95610
1704.65666	0.95492
1702.60286	0.95386
1700.54906	0.95309
1698.49525	0.95239
1696.44145	0.95131
1694.38765	0.94981
1692.33384	0.94857
1690.28004	0.94754
1688.22624	0.94649
1686.17243	0.94536
1684.11863	0.94383
1682.06483	0.94233
1680.01103	0.94119
1677.95722	0.94017
1675.90342	0.93899
1673.84962	0.93761
1671.79581	0.93649
1669.74201	0.93546
1667.68821	0.93431
1665.63440	0.93316
1663.58060	0.93205
1661.52680	0.93123
1659.47299	0.93062
1657.41919	0.92983
1655.36539	0.92885
1653.31158	0.92821
1651.25778	0.92843
1649.20398	0.92834
1647.15017	0.92797
1645.09637	0.92778
1643.04257	0.92767
1640.98876	0.92750
1638.93496	0.92731
1636.88116	0.92746
1634.82735	0.92801
1632.77355	0.92804
1630.71975	0.92775
1628.66594	0.92765
1626.61214	0.92787
1624.55834	0.92831
1622.50454	0.92881
1620.45073	0.92931
1618.39693	0.93002
1616.34313	0.93138
1614.28932	0.93299
1612.23552	0.93422
1610.18172	0.93499
1608.12791	0.93586
1606.07411	0.93731
1604.02031	0.93875
1601.96650	0.93961
1599.91270	0.94025
1597.85890	0.94111
1595.80509	0.94199
1593.75129	0.94270
1591.69749	0.94365
1589.64368	0.94489
1587.58988	0.94567
1585.53608	0.94582
1583.48227	0.94600
1581.42847	0.94644
1579.37467	0.94676
1577.32086	0.94721
1575.26706	0.94853
1573.21326	0.94958
1571.15945	0.94994
1569.10565	0.95033
1567.05185	0.95064
1564.99805	0.95061
1562.94424	0.95061
1560.89044	0.95087
1558.83664	0.95148
1556.78283	0.95208
1554.72903	0.95245
1552.67523	0.95254
1550.62142	0.95256
1548.56762	0.95270
1546.51382	0.95268
1544.46001	0.95265
1542.40621	0.95310
1540.35241	0.95395
1538.29860	0.95442
1536.24480	0.95448
1534.19100	0.95439
1532.13719	0.95432
1530.08339	0.95460
1528.02959	0.95539
1525.97578	0.95647
1523.92198	0.95703
1521.86818	0.95687
1519.81437	0.95665
1517.76057	0.95648
1515.70677	0.95663
1513.65297	0.95733
1511.59916	0.95789
1509.54536	0.95785
1507.49156	0.95745
1505.43775	0.95773
1503.38395	0.95806
1501.33015	0.95794
1499.27634	0.95761
1497.22254	0.95750
1495.16874	0.95747
1493.11493	0.95714
1491.06113	0.95670
1489.00733	0.95643
1486.95352	0.95600
1484.89972	0.95491
1482.84592	0.95289
1480.79211	0.94891
1478.73831	0.93883
1476.68451	0.91211
1474.63070	0.86196
1472.57690	0.81489
1470.52310	0.81187
1468.46929	0.83000
1466.41549	0.83931
1464.36169	0.83207
1462.30788	0.82814
1460.25408	0.84517
1458.20028	0.87798
1456.14648	0.90704
1454.09267	0.91873
1452.03887	0.92453
1449.98507	0.92899
1447.93126	0.93197
1445.87746	0.93360
1443.82366	0.93459
1441.76985	0.93554
1439.71605	0.93645
1437.66225	0.93740
1435.60844	0.93845
1433.55464	0.93945
1431.50084	0.94070
1429.44703	0.94221
1427.39323	0.94346
1425.33943	0.94452
1423.28562	0.94568
1421.23182	0.94646
1419.17802	0.94685
1417.12421	0.94735
1415.07041	0.94754
1413.01661	0.94729
1410.96280	0.94736
1408.90900	0.94822
1406.85520	0.94914
1404.80139	0.94953
1402.74759	0.94977
1400.69379	0.95005
1398.63999	0.95006
1396.58618	0.95017
1394.53238	0.95075
1392.47858	0.95145
1390.42477	0.95201
1388.37097	0.95218
1386.31717	0.95182
1384.26336	0.95143
1382.20956	0.95107
1380.15576	0.95047
1378.10195	0.94994
1376.04815	0.94966
1373.99435	0.94935
1371.94054	0.94860
1369.88674	0.94760
1367.83294	0.94703
1365.77913	0.94720
1363.72533	0.94804
1361.67153	0.94944
1359.61772	0.95069
1357.56392	0.95116
1355.51012	0.95109
1353.45631	0.95100
1351.40251	0.95090
1349.34871	0.95094
1347.29491	0.95149
1345.24110	0.95212
1343.18730	0.95246
1341.13350	0.95287
1339.07969	0.95327
1337.02589	0.95333
1334.97209	0.95328
1332.91828	0.95348
1330.86448	0.95390
1328.81068	0.95407
1326.75687	0.95396
1324.70307	0.95390
1322.64927	0.95374
1320.59546	0.95345
1318.54166	0.95323
1316.48786	0.95308
1314.43405	0.95297
1312.38025	0.95269
1310.32645	0.95215
1308.27264	0.95169
1306.21884	0.95160
1304.16504	0.95163
1302.11123	0.95156
1300.05743	0.95153
1298.00363	0.95166
1295.94982	0.95195
1293.89602	0.95233
1291.84222	0.95258
1289.78842	0.95273
1287.73461	0.95268
1285.68081	0.95252
1283.62701	0.95270
1281.57320	0.95293
1279.51940	0.95273
1277.46560	0.95242
1275.41179	0.95235
1273.35799	0.95240
1271.30419	0.95219
1269.25038	0.95173
1267.19658	0.95156
1265.14278	0.95165
1263.08897	0.95153
1261.03517	0.95118
1258.98137	0.95091
1256.92756	0.95085
1254.87376	0.95087
1252.81996	0.95077
1250.76615	0.95045
1248.71235	0.95016
1246.65855	0.94990
1244.60474	0.94944
1242.55094	0.94900
1240.49714	0.94875
1238.44334	0.94857
1236.38953	0.94849
1234.33573	0.94853
1232.28193	0.94840
1230.22812	0.94800
1228.17432	0.94763
1226.12052	0.94748
1224.06671	0.94741
1222.01291	0.94692
1219.95911	0.94591
1217.90530	0.94483
1215.85150	0.94415
1213.79770	0.94377
1211.74389	0.94307
1209.69009	0.94191
1207.63629	0.94087
1205.58248	0.94010
1203.52868	0.93920
1201.47488	0.93800
1199.42107	0.93643
1197.36727	0.93464
1195.31347	0.93305
1193.25966	0.93171
1191.20586	0.93031
1189.15206	0.92853
1187.09825	0.92631
1185.04445	0.92392
1182.99065	0.92142
1180.93685	0.91874
1178.88304	0.91594
1176.82924	0.91332
1174.77544	0.91120
1172.72163	0.90921
1170.66783	0.90683
1168.61403	0.90421
1166.56022	0.90186
1164.50642	0.89991
1162.45262	0.89817
1160.39881	0.89680
1158.34501	0.89566
1156.29121	0.89424
1154.23740	0.89256
1152.18360	0.89078
1150.12980	0.88922
1148.07599	0.88803
1146.02219	0.88668
1143.96839	0.88513
1141.91458	0.88373
1139.86078	0.88252
1137.80698	0.88165
1135.75317	0.88097
1133.69937	0.88012
1131.64557	0.87905
1129.59176	0.87796
1127.53796	0.87704
1125.48416	0.87598
1123.43036	0.87435
1121.37655	0.87219
1119.32275	0.86999
1117.26895	0.86810
1115.21514	0.86658
1113.16134	0.86539
1111.10754	0.86421
1109.05373	0.86290
1106.99993	0.86174
1104.94613	0.86106
1102.89232	0.86071
1100.83852	0.86051
1098.78472	0.86060
1096.73091	0.86095
1094.67711	0.86158
1092.62331	0.86233
1090.56950	0.86305
1088.51570	0.86377
1086.46190	0.86443
1084.40809	0.86525
1082.35429	0.86644
1080.30049	0.86769
1078.24668	0.86867
1076.19288	0.86987
1074.13908	0.87156
1072.08528	0.87318
1070.03147	0.87428
1067.97767	0.87508
1065.92387	0.87581
1063.87006	0.87609
1061.81626	0.87574
1059.76246	0.87546
1057.70865	0.87553
1055.65485	0.87569
1053.60105	0.87566
1051.54724	0.87501
1049.49344	0.87369
1047.43964	0.87226
1045.38583	0.87118
1043.33203	0.87038
1041.27823	0.86945
1039.22442	0.86839
1037.17062	0.86770
1035.11682	0.86766
1033.06301	0.86834
1031.00921	0.86915
1028.95541	0.86973
1026.90160	0.87041
1024.84780	0.87112
1022.79400	0.87177
1020.74019	0.87241
1018.68639	0.87291
1016.63259	0.87319
1014.57879	0.87302
1012.52498	0.87268
1010.47118	0.87314
1008.41738	0.87425
1006.36357	0.87539
1004.30977	0.87668
1002.25597	0.87836
1000.20216	0.88035
998.14836	0.88253
996.09456	0.88479
994.04075	0.88709
991.98695	0.88964
989.93315	0.89227
987.87934	0.89453
985.82554	0.89642
983.77174	0.89830
981.71793	0.90029
979.66413	0.90242
977.61033	0.90479
975.55652	0.90702
973.50272	0.90890
971.44892	0.91047
969.39511	0.91177
967.34131	0.91321
965.28751	0.91498
963.23371	0.91665
961.17990	0.91805
959.12610	0.91921
957.07230	0.91993
955.01849	0.92026
952.96469	0.92067
950.91089	0.92136
948.85708	0.92201
946.80328	0.92255
944.74948	0.92308
942.69567	0.92353
940.64187	0.92387
938.58807	0.92437
936.53426	0.92524
934.48046	0.92631
932.42666	0.92740
930.37285	0.92775
928.31905	0.92739
926.26525	0.92699
924.21144	0.92682
922.15764	0.92686
920.10384	0.92645
918.05003	0.92558
915.99623	0.92497
913.94243	0.92478
911.88862	0.92459
909.83482	0.92401
907.78102	0.92393
905.72722	0.92531
903.67341	0.92716
901.61961	0.92831
899.56581	0.92903
897.51200	0.93027
895.45820	0.93182
893.40440	0.93230
891.35059	0.93180
889.29679	0.93137
887.24299	0.93154
885.18918	0.93210
883.13538	0.93248
881.08158	0.93265
879.02777	0.93282
876.97397	0.93312
874.92017	0.93343
872.86636	0.93372
870.81256	0.93406
868.75876	0.93409
866.70495	0.93371
864.65115	0.93330
862.59735	0.93292
860.54354	0.93240
858.48974	0.93238
856.43594	0.93309
854.38213	0.93334
852.32833	0.93283
850.27453	0.93226
848.22073	0.93174
846.16692	0.93144
844.11312	0.93137
842.05932	0.93133
840.00551	0.93122
837.95171	0.93078
835.89791	0.93003
833.84410	0.92948
831.79030	0.92936
829.73650	0.92913
827.68269	0.92813
825.62889	0.92682
823.57509	0.92621
821.52128	0.92611
819.46748	0.92580
817.41368	0.92519
815.35987	0.92442
813.30607	0.92380
811.25227	0.92340
809.19846	0.92240
807.14466	0.92071
805.09086	0.91938
803.03705	0.91801
800.98325	0.91618
798.92945	0.91482
796.87565	0.91422
794.82184	0.91405
792.76804	0.91401
790.71424	0.91376
788.66043	0.91292
786.60663	0.91181
784.55283	0.91107
782.49902	0.91021
780.44522	0.90970
778.39142	0.91022
776.33761	0.91048
774.28381	0.91020
772.23001	0.91014
770.17620	0.90976
768.12240	0.90826
766.06860	0.90664
764.01479	0.90617
761.96099	0.90615
759.90719	0.90509
757.85338	0.90322
755.79958	0.90206
753.74578	0.90155
751.69197	0.90122
749.63817	0.90151
747.58437	0.90208
745.53056	0.90198
743.47676	0.90128
741.42296	0.90034
739.36916	0.89880
737.31535	0.89577
735.26155	0.88620
733.20775	0.86235
731.15394	0.83382
729.10014	0.82458
727.04634	0.83335
724.99253	0.83593
722.93873	0.81682
720.88493	0.77723
718.83112	0.74109
716.77732	0.73732
714.72352	0.76659
712.66971	0.80580
710.61591	0.83507
708.56211	0.85186
706.50830	0.86189
704.45450	0.86842
702.40070	0.87142
700.34689	0.87214
698.29309	0.87265
696.23929	0.87270
694.18548	0.87234
692.13168	0.87302
690.07788	0.87436
688.02408	0.87556
685.97027	0.87739
683.91647	0.87948
681.86267	0.88009
679.80886	0.87901
677.75506	0.87811
675.70126	0.87830
673.64745	0.87844
671.59365	0.87764
669.53985	0.87545
667.48604	0.87290
665.43224	0.87246
663.37844	0.87243
661.32463	0.87188
659.27083	0.87170
657.21703	0.87279
655.16322	0.87461
653.10942	0.87510
651.05562	0.87342
649.00181	0.87172
646.94801	0.87146
644.89421	0.87170
642.84040	0.87209
640.78660	0.87275
638.73280	0.87371
636.67899	0.87435
634.62519	0.87313
632.57139	0.87057
630.51759	0.86886
628.46378	0.86880
626.40998	0.86981
624.35618	0.87065
622.30237	0.87034
620.24857	0.86945
618.19477	0.86788
616.14096	0.86555
614.08716	0.86369
612.03336	0.86286
609.97955	0.86291
607.92575	0.86294
605.87195	0.86161
603.81814	0.85816
601.76434	0.85426
599.71054	0.85245
597.65673	0.85227
595.60293	0.85294
593.54913	0.85516
591.49532	0.85791
589.44152	0.85945
587.38772	0.85956
585.33391	0.85963
583.28011	0.86068
581.22631	0.86182
579.17250	0.86253
577.11870	0.86240
575.06490	0.86212
573.01110	0.86305
570.95729	0.86300
568.90349	0.86047
566.84969	0.85844
564.79588	0.85907
562.74208	0.86015
560.68828	0.85918
558.63447	0.85735
556.58067	0.85706
554.52687	0.85842
552.47306	0.85997
550.41926	0.86157
548.36546	0.86224
546.31165	0.86002
544.25785	0.85635
542.20405	0.85353
540.15024	0.85153
538.09644	0.85029
536.04264	0.85019
533.98883	0.85045
531.93503	0.84946
529.88123	0.84772
527.82742	0.84713
525.77362	0.84768
523.71982	0.84860
521.66602	0.85067
519.61221	0.85370
517.55841	0.85565
515.50461	0.85685
513.45080	0.85815
511.39700	0.85720
509.34320	0.85365
507.28939	0.85146
505.23559	0.85162
503.18179	0.85150
501.12798	0.85030
499.07418	0.84905
497.02038	0.84789
494.96657	0.84582
492.91277	0.84427
490.85897	0.84553
488.80516	0.84902
486.75136	0.85198
484.69756	0.85084
482.64375	0.84502
480.58995	0.83776
478.53615	0.83199
476.48234	0.82793
474.42854	0.82465
472.37474	0.82254
470.32093	0.82166
468.26713	0.82079
466.21333	0.81932
464.15953	0.81718
462.10572	0.81594
460.05192	0.81845
457.99812	0.82486
455.94431	0.83192
453.89051	0.83631
451.83671	0.83699
449.78290	0.83640
447.72910	0.83503
445.67530	0.83154
443.62149	0.83095
441.56769	0.83374
439.51389	0.83331
437.46008	0.82892
435.40628	0.82270
433.35248	0.81695
431.29867	0.81530
429.24487	0.81854
427.19107	0.82399
425.13726	0.82871
423.08346	0.83244
421.02966	0.83941
418.97585	0.84577
416.92205	0.84104
414.86825	0.83404
412.81445	0.83239
410.76064	0.83606
408.70684	0.84157
406.65304	0.84615
404.59923	0.84497
402.54543	0.83639
400.49163	0.82864
398.43782	0.83056
