3996.71440	0.98732
3994.66059	0.98688
3992.60678	0.98689
3990.55297	0.98704
3988.49916	0.98698
3986.44535	0.98705
3984.39154	0.98720
3982.33773	0.98713
3980.28391	0.98694
3978.23010	0.98688
3976.17629	0.98704
3974.12248	0.98743
3972.06867	0.98787
3970.01486	0.98786
3967.96105	0.98757
3965.90724	0.98748
3963.85343	0.98748
3961.79962	0.98740
3959.74581	0.98730
3957.69200	0.98723
3955.63819	0.98720
3953.58438	0.98723
3951.53057	0.98749
3949.47676	0.98774
3947.42295	0.98757
3945.36914	0.98717
3943.31533	0.98702
3941.26152	0.98721
3939.20771	0.98729
3937.15390	0.98707
3935.10009	0.98708
3933.04628	0.98766
3930.99247	0.98811
3928.93866	0.98783
3926.88485	0.98741
3924.83104	0.98744
3922.77723	0.98766
3920.72342	0.98766
3918.66961	0.98760
3916.61580	0.98767
3914.56199	0.98758
3912.50818	0.98710
3910.45437	0.98687
3908.40056	0.98720
3906.34675	0.98752
3904.29294	0.98739
3902.23913	0.98718
3900.18532	0.98734
3898.13151	0.98762
3896.07770	0.98761
3894.02389	0.98753
3891.97008	0.98768
3889.91627	0.98773
3887.86246	0.98765
3885.80865	0.98777
3883.75484	0.98781
3881.70103	0.98753
3879.64722	0.98720
3877.59341	0.98719
3875.53960	0.98762
3873.48579	0.98811
3871.43198	0.98811
3869.37817	0.98767
3867.32436	0.98723
3865.27055	0.98730
3863.21674	0.98777
3861.16293	0.98788
3859.10912	0.98765
3857.05531	0.98757
3855.00150	0.98783
3852.94769	0.98793
3850.89388	0.98763
3848.84007	0.98731
3846.78626	0.98686
3844.73245	0.98642
3842.67864	0.98653
3840.62483	0.98717
3838.57102	0.98771
3836.51721	0.98773
3834.46340	0.98728
3832.40959	0.98690
3830.35578	0.98689
3828.30197	0.98687
3826.24816	0.98683
3824.19435	0.98725
3822.14054	0.98800
3820.08673	0.98799
3818.03292	0.98738
3815.97911	0.98701
3813.92530	0.98645
3811.87149	0.98585
3809.81768	0.98567
3807.76387	0.98578
3805.71006	0.98598
3803.65625	0.98634
3801.60244	0.98654
3799.54863	0.98624
3797.49482	0.98598
3795.44101	0.98594
3793.38720	0.98566
3791.33339	0.98517
3789.27958	0.98511
3787.22577	0.98524
3785.17196	0.98500
3783.11815	0.98487
3781.06434	0.98528
3779.01053	0.98570
3776.95672	0.98534
3774.90291	0.98462
3772.84910	0.98455
3770.79529	0.98509
3768.74148	0.98527
3766.68767	0.98501
3764.63386	0.98493
3762.58005	0.98508
3760.52624	0.98538
3758.47243	0.98571
3756.41862	0.98553
3754.36481	0.98484
3752.31100	0.98452
3750.25719	0.98477
3748.20338	0.98487
3746.14957	0.98514
3744.09576	0.98524
3742.04195	0.98459
3739.98814	0.98407
3737.93433	0.98413
3735.88052	0.98456
3733.82671	0.98446
3731.77290	0.98346
3729.71909	0.98284
3727.66528	0.98296
3725.61147	0.98300
3723.55766	0.98246
3721.50385	0.98184
3719.45004	0.98135
3717.39623	0.98074
3715.34242	0.98026
3713.28861	0.98018
3711.23480	0.98019
3709.18099	0.97981
3707.12718	0.97930
3705.07337	0.97897
3703.01956	0.97874
3700.96575	0.97794
3698.91194	0.97641
3696.85813	0.97516
3694.80432	0.97452
3692.75051	0.97400
3690.69670	0.97354
3688.64289	0.97327
3686.58907	0.97244
3684.53526	0.97101
3682.48145	0.96975
3680.42764	0.96893
3678.37383	0.96815
3676.32002	0.96685
3674.26621	0.96475
3672.21240	0.96301
3670.15859	0.96181
3668.10478	0.96007
3666.05097	0.95802
3663.99716	0.95637
3661.94335	0.95507
3659.88954	0.95370
3657.83573	0.95215
3655.78192	0.95035
3653.72811	0.94894
3651.67430	0.94805
3649.62049	0.94649
3647.56668	0.94397
3645.51287	0.94174
3643.45906	0.93976
3641.40525	0.93769
3639.35144	0.93571
3637.29763	0.93411
3635.24382	0.93277
3633.19001	0.93149
3631.13620	0.93057
3629.08239	0.92929
3627.02858	0.92684
3624.97477	0.92454
3622.92096	0.92304
3620.86715	0.92213
3618.81334	0.92085
3616.75953	0.91908
3614.70572	0.91768
3612.65191	0.91646
3610.59810	0.91479
3608.54429	0.91274
3606.49048	0.91087
3604.43667	0.90925
3602.38286	0.90773
3600.32905	0.90646
3598.27524	0.90526
3596.22143	0.90379
3594.16762	0.90212
3592.11381	0.90073
3590.06000	0.90007
3588.00619	0.89930
3585.95238	0.89721
3583.89857	0.89473
3581.84476	0.89274
3579.79095	0.89130
3577.73714	0.89007
3575.68333	0.88849
3573.62952	0.88680
3571.57571	0.88561
3569.52190	0.88486
3567.46809	0.88358
3565.41428	0.88115
3563.36047	0.87865
3561.30666	0.87676
3559.25285	0.87541
3557.19904	0.87442
3555.14523	0.87339
3553.09142	0.87169
3551.03761	0.86964
3548.98380	0.86816
3546.92999	0.86695
3544.87618	0.86508
3542.82237	0.86269
3540.76856	0.86069
3538.71475	0.85939
3536.66094	0.85817
3534.60713	0.85648
3532.55332	0.85468
3530.49951	0.85299
3528.44570	0.85150
3526.39189	0.85043
3524.33808	0.84943
3522.28427	0.84778
3520.23046	0.84575
3518.17665	0.84403
3516.12284	0.84265
3514.06903	0.84136
3512.01522	0.84015
3509.96141	0.83886
3507.90760	0.83739
3505.85379	0.83587
3503.79998	0.83440
3501.74617	0.83308
3499.69236	0.83160
3497.63855	0.83000
3495.58474	0.82858
3493.53093	0.82716
3491.47712	0.82578
3489.42331	0.82464
3487.36950	0.82349
3485.31569	0.82218
3483.26188	0.82087
3481.20807	0.81958
3479.15426	0.81823
3477.10045	0.81682
3475.04664	0.81553
3472.99283	0.81438
3470.93902	0.81317
3468.88521	0.81194
3466.83140	0.81072
3464.77759	0.80949
3462.72378	0.80821
3460.66997	0.80681
3458.61616	0.80543
3456.56235	0.80431
3454.50854	0.80340
3452.45473	0.80245
3450.40092	0.80136
3448.34711	0.80043
3446.29330	0.79980
3444.23949	0.79889
3442.18568	0.79756
3440.13187	0.79619
3438.07806	0.79499
3436.02425	0.79402
3433.97044	0.79315
3431.91663	0.79234
3429.86282	0.79162
3427.80901	0.79083
3425.75520	0.78985
3423.70139	0.78898
3421.64758	0.78840
3419.59377	0.78755
3417.53996	0.78629
3415.48615	0.78523
3413.43234	0.78459
3411.37853	0.78401
3409.32472	0.78341
3407.27091	0.78305
3405.21710	0.78287
3403.16329	0.78249
3401.10948	0.78197
3399.05567	0.78153
3397.00186	0.78116
3394.94805	0.78083
3392.89424	0.78050
3390.84042	0.78011
3388.78661	0.77981
3386.73280	0.77967
3384.67899	0.77954
3382.62518	0.77942
3380.57137	0.77929
3378.51756	0.77916
3376.46375	0.77927
3374.40994	0.77953
3372.35613	0.77953
3370.30232	0.77924
3368.24851	0.77903
3366.19470	0.77910
3364.14089	0.77932
3362.08708	0.77956
3360.03327	0.77980
3357.97946	0.78001
3355.92565	0.78016
3353.87184	0.78023
3351.81803	0.78020
3349.76422	0.78011
3347.71041	0.78028
3345.65660	0.78093
3343.60279	0.78164
3341.54898	0.78209
3339.49517	0.78259
3337.44136	0.78309
3335.38755	0.78324
3333.33374	0.78346
3331.27993	0.78397
3329.22612	0.78433
3327.17231	0.78451
3325.11850	0.78480
3323.06469	0.78532
3321.01088	0.78606
3318.95707	0.78661
3316.90326	0.78688
3314.84945	0.78734
3312.79564	0.78800
3310.74183	0.78851
3308.68802	0.78881
3306.63421	0.78907
3304.58040	0.78934
3302.52659	0.78968
3300.47278	0.78997
3298.41897	0.79016
3296.36516	0.79060
3294.31135	0.79132
3292.25754	0.79184
3290.20373	0.79204
3288.14992	0.79226
3286.09611	0.79267
3284.04230	0.79305
3281.98849	0.79325
3279.93468	0.79365
3277.88087	0.79432
3275.82706	0.79484
3273.77325	0.79521
3271.71944	0.79566
3269.66563	0.79629
3267.61182	0.79700
3265.55801	0.79774
3263.50420	0.79844
3261.45039	0.79892
3259.39658	0.79920
3257.34277	0.79958
3255.28896	0.80034
3253.23515	0.80131
3251.18134	0.80210
3249.12753	0.80269
3247.07372	0.80332
3245.01991	0.80387
3242.96610	0.80437
3240.91229	0.80522
3238.85848	0.80640
3236.80467	0.80752
3234.75086	0.80858
3232.69705	0.80966
3230.64324	0.81053
3228.58943	0.81107
3226.53562	0.81167
3224.48181	0.81284
3222.42800	0.81430
3220.37419	0.81522
3218.32038	0.81576
3216.26657	0.81671
3214.21276	0.81796
3212.15895	0.81900
3210.10514	0.81992
3208.05133	0.82118
3205.99752	0.82277
3203.94371	0.82433
3201.88990	0.82567
3199.83609	0.82687
3197.78228	0.82813
3195.72847	0.82960
3193.67466	0.83110
3191.62085	0.83255
3189.56704	0.83397
3187.51323	0.83527
3185.45942	0.83660
3183.40561	0.83811
3181.35180	0.83973
3179.29799	0.84138
3177.24418	0.84277
3175.19037	0.84380
3173.13656	0.84495
3171.08275	0.84655
3169.02894	0.84836
3166.97513	0.85000
3164.92132	0.85154
3162.86751	0.85330
3160.81370	0.85512
3158.75989	0.85678
3156.70608	0.85846
3154.65227	0.86030
3152.59846	0.86200
3150.54465	0.86355
3148.49084	0.86511
3146.43703	0.86662
3144.38322	0.86814
3142.32941	0.86983
3140.27560	0.87145
3138.22179	0.87299
3136.16798	0.87465
3134.11417	0.87630
3132.06036	0.87777
3130.00655	0.87915
3127.95274	0.88060
3125.89893	0.88211
3123.84512	0.88364
3121.79131	0.88515
3119.73750	0.88660
3117.68369	0.88804
3115.62988	0.88948
3113.57607	0.89075
3111.52226	0.89181
3109.46845	0.89313
3107.41464	0.89479
3105.36083	0.89642
3103.30702	0.89787
3101.25321	0.89915
3099.19940	0.90019
3097.14559	0.90115
3095.09177	0.90223
3093.03796	0.90357
3090.98415	0.90491
3088.93034	0.90571
3086.87653	0.90638
3084.82272	0.90747
3082.76891	0.90866
3080.71510	0.90970
3078.66129	0.91085
3076.60748	0.91214
3074.55367	0.91348
3072.49986	0.91470
3070.44605	0.91568
3068.39224	0.91670
3066.33843	0.91800
3064.28462	0.91931
3062.23081	0.92038
3060.17700	0.92117
3058.12319	0.92196
3056.06938	0.92310
3054.01557	0.92435
3051.96176	0.92538
3049.90795	0.92605
3047.85414	0.92636
3045.80033	0.92686
3043.74652	0.92779
3041.69271	0.92895
3039.63890	0.93019
3037.58509	0.93113
3035.53128	0.93166
3033.47747	0.93236
3031.42366	0.93325
3029.36985	0.93386
3027.31604	0.93439
3025.26223	0.93509
3023.20842	0.93577
3021.15461	0.93651
3019.10080	0.93718
3017.04699	0.93753
3014.99318	0.93799
3012.93937	0.93872
3010.88556	0.93941
3008.83175	0.93985
3006.77794	0.94001
3004.72413	0.94015
3002.67032	0.94047
3000.61651	0.94084
2998.56270	0.94097
2996.50889	0.94067
2994.45508	0.94015
2992.40127	0.93972
2990.34746	0.93933
2988.29365	0.93866
2986.23984	0.93763
2984.18603	0.93629
2982.13222	0.93449
2980.07841	0.93217
2978.02460	0.92933
2975.97079	0.92575
2973.91698	0.92122
2971.86317	0.91558
2969.80936	0.90853
2967.75555	0.90018
2965.70174	0.89104
2963.64793	0.88173
2961.59412	0.87339
2959.54031	0.86739
2957.48650	0.86349
2955.43269	0.85950
2953.37888	0.85375
2951.32507	0.84707
2949.27126	0.84182
2947.21745	0.83943
2945.16364	0.83866
2943.10983	0.83670
2941.05602	0.83112
2939.00221	0.82095
2936.94840	0.80645
2934.89459	0.78790
2932.84078	0.76551
2930.78697	0.73972
2928.73316	0.71058
2926.67935	0.67742
2924.62554	0.63908
2922.57173	0.59505
2920.51792	0.54779
2918.46411	0.50544
2916.41030	0.48132
2914.35649	0.48566
2912.30268	0.51541
2910.24887	0.55668
2908.19506	0.59691
2906.14125	0.63089
2904.08744	0.65849
2902.03363	0.68116
2899.97982	0.70042
2897.92601	0.71754
2895.87220	0.73316
2893.81839	0.74743
2891.76458	0.76061
2889.71077	0.77310
2887.65696	0.78514
2885.60315	0.79675
2883.54934	0.80753
2881.49553	0.81717
2879.44172	0.82604
2877.38791	0.83441
2875.33410	0.84164
2873.28029	0.84677
2871.22648	0.84907
2869.17267	0.84843
2867.11886	0.84546
2865.06505	0.84090
2863.01124	0.83452
2860.95743	0.82442
2858.90362	0.80724
2856.84981	0.77925
2854.79600	0.73706
2852.74219	0.67902
2850.68838	0.61456
2848.63457	0.57096
2846.58076	0.57317
2844.52695	0.61656
2842.47314	0.67519
2840.41933	0.72915
2838.36552	0.77287
2836.31171	0.80818
2834.25790	0.83756
2832.20409	0.86172
2830.15028	0.88067
2828.09647	0.89491
2826.04266	0.90569
2823.98885	0.91423
2821.93504	0.92099
2819.88123	0.92630
2817.82742	0.93066
2815.77361	0.93423
2813.71980	0.93720
2811.66599	0.93988
2809.61218	0.94236
2807.55837	0.94471
2805.50456	0.94690
2803.45075	0.94890
2801.39693	0.95078
2799.34312	0.95232
2797.28931	0.95361
2795.23550	0.95497
2793.18169	0.95638
2791.12788	0.95770
2789.07407	0.95906
2787.02026	0.96045
2784.96645	0.96168
2782.91264	0.96269
2780.85883	0.96358
2778.80502	0.96443
2776.75121	0.96520
2774.69740	0.96578
2772.64359	0.96625
2770.58978	0.96678
2768.53597	0.96728
2766.48216	0.96776
2764.42835	0.96834
2762.37454	0.96896
2760.32073	0.96952
2758.26692	0.96994
2756.21311	0.97024
2754.15930	0.97048
2752.10549	0.97067
2750.05168	0.97079
2747.99787	0.97101
2745.94406	0.97126
2743.89025	0.97126
2741.83644	0.97100
2739.78263	0.97074
2737.72882	0.97071
2735.67501	0.97093
2733.62120	0.97121
2731.56739	0.97148
2729.51358	0.97171
2727.45977	0.97177
2725.40596	0.97172
2723.35215	0.97173
2721.29834	0.97179
2719.24453	0.97195
2717.19072	0.97247
2715.13691	0.97319
2713.08310	0.97372
2711.02929	0.97395
2708.97548	0.97399
2706.92167	0.97413
2704.86786	0.97451
2702.81405	0.97479
2700.76024	0.97486
2698.70643	0.97489
2696.65262	0.97504
2694.59881	0.97529
2692.54500	0.97544
2690.49119	0.97555
2688.43738	0.97570
2686.38357	0.97576
2684.32976	0.97569
2682.27595	0.97553
2680.22214	0.97530
2678.16833	0.97505
2676.11452	0.97486
2674.06071	0.97481
2672.00690	0.97481
2669.95309	0.97484
2667.89928	0.97486
2665.84547	0.97474
2663.79166	0.97457
2661.73785	0.97453
2659.68404	0.97448
2657.63023	0.97437
2655.57642	0.97445
2653.52261	0.97481
2651.46880	0.97515
2649.41499	0.97524
2647.36118	0.97526
2645.30737	0.97542
2643.25356	0.97556
2641.19975	0.97545
2639.14594	0.97542
2637.09213	0.97558
2635.03832	0.97567
2632.98451	0.97577
2630.93070	0.97602
2628.87689	0.97626
2626.82308	0.97642
2624.76927	0.97657
2622.71546	0.97669
2620.66165	0.97675
2618.60784	0.97696
2616.55403	0.97751
2614.50022	0.97812
2612.44641	0.97838
2610.39260	0.97828
2608.33879	0.97803
2606.28498	0.97783
2604.23117	0.97801
2602.17736	0.97862
2600.12355	0.97929
2598.06974	0.97984
2596.01593	0.98018
2593.96212	0.98027
2591.90831	0.98027
2589.85450	0.98036
2587.80069	0.98038
2585.74688	0.98017
2583.69307	0.97999
2581.63926	0.97991
2579.58545	0.98009
2577.53164	0.98057
2575.47783	0.98093
2573.42402	0.98104
2571.37021	0.98101
2569.31640	0.98092
2567.26259	0.98097
2565.20878	0.98121
2563.15497	0.98139
2561.10116	0.98139
2559.04735	0.98144
2556.99354	0.98174
2554.93973	0.98223
2552.88592	0.98243
2550.83211	0.98229
2548.77830	0.98247
2546.72449	0.98293
2544.67068	0.98300
2542.61687	0.98264
2540.56306	0.98243
2538.50925	0.98277
2536.45544	0.98308
2534.40163	0.98286
2532.34782	0.98250
2530.29401	0.98247
2528.24020	0.98291
2526.18639	0.98349
2524.13258	0.98364
2522.07877	0.98348
2520.02496	0.98341
2517.97115	0.98344
2515.91734	0.98364
2513.86353	0.98370
2511.80972	0.98333
2509.75591	0.98297
2507.70210	0.98290
2505.64828	0.98294
2503.59447	0.98313
2501.54066	0.98334
2499.48685	0.98344
2497.43304	0.98383
2495.37923	0.98414
2493.32542	0.98395
2491.27161	0.98390
2489.21780	0.98429
2487.16399	0.98472
2485.11018	0.98473
2483.05637	0.98436
2481.00256	0.98410
2478.94875	0.98410
2476.89494	0.98433
2474.84113	0.98460
2472.78732	0.98468
2470.73351	0.98462
2468.67970	0.98452
2466.62589	0.98450
2464.57208	0.98462
2462.51827	0.98458
2460.46446	0.98443
2458.41065	0.98453
2456.35684	0.98484
2454.30303	0.98497
2452.24922	0.98477
2450.19541	0.98444
2448.14160	0.98423
2446.08779	0.98402
2444.03398	0.98393
2441.98017	0.98417
2439.92636	0.98441
2437.87255	0.98434
2435.81874	0.98410
2433.76493	0.98391
2431.71112	0.98381
2429.65731	0.98393
2427.60350	0.98424
2425.54969	0.98440
2423.49588	0.98446
2421.44207	0.98445
2419.38826	0.98440
2417.33445	0.98433
2415.28064	0.98397
2413.22683	0.98364
2411.17302	0.98389
2409.11921	0.98423
2407.06540	0.98406
2405.01159	0.98386
2402.95778	0.98399
2400.90397	0.98402
2398.85016	0.98383
2396.79635	0.98381
2394.74254	0.98404
2392.68873	0.98414
2390.63492	0.98384
2388.58111	0.98328
2386.52730	0.98289
2384.47349	0.98283
2382.41968	0.98278
2380.36587	0.98251
2378.31206	0.98223
2376.25825	0.98200
2374.20444	0.98172
2372.15063	0.98132
2370.09682	0.98058
2368.04301	0.98011
2365.98920	0.98061
2363.93539	0.98101
2361.88158	0.98048
2359.82777	0.97954
2357.77396	0.97894
2355.72015	0.97916
2353.66634	0.97972
2351.61253	0.98015
2349.55872	0.98018
2347.50491	0.97991
2345.45110	0.97959
2343.39729	0.97892
2341.34348	0.97796
2339.28967	0.97753
2337.23586	0.97759
2335.18205	0.97775
2333.12824	0.97816
2331.07443	0.97896
2329.02062	0.97954
2326.96681	0.97931
2324.91300	0.97855
2322.85919	0.97826
2320.80538	0.97849
2318.75157	0.97855
2316.69776	0.97876
2314.64395	0.97909
2312.59014	0.97903
2310.53633	0.97925
2308.48252	0.98012
2306.42871	0.98073
2304.37490	0.98069
2302.32109	0.98045
2300.26728	0.98050
2298.21347	0.98064
2296.15966	0.98058
2294.10585	0.98056
2292.05204	0.98059
2289.99823	0.98035
2287.94442	0.97975
2285.89061	0.97943
2283.83680	0.97968
2281.78299	0.98004
2279.72918	0.98040
2277.67537	0.98045
2275.62156	0.98022
2273.56775	0.98024
2271.51394	0.98039
2269.46013	0.98047
2267.40632	0.98053
2265.35251	0.98061
2263.29870	0.98092
2261.24489	0.98149
2259.19108	0.98147
2257.13727	0.98079
2255.08346	0.98055
2253.02965	0.98071
2250.97584	0.98068
2248.92203	0.98055
2246.86822	0.98008
2244.81441	0.97960
2242.76060	0.97990
2240.70679	0.98058
2238.65298	0.98072
2236.59917	0.98030
2234.54536	0.98032
2232.49155	0.98099
2230.43774	0.98083
2228.38393	0.98001
2226.33012	0.98021
2224.27631	0.98084
2222.22250	0.98093
2220.16869	0.98083
2218.11488	0.98044
2216.06107	0.98017
2214.00726	0.98072
2211.95344	0.98193
2209.89963	0.98329
2207.84582	0.98342
2205.79201	0.98181
2203.73820	0.98007
2201.68439	0.97930
2199.63058	0.97935
2197.57677	0.97997
2195.52296	0.98037
2193.46915	0.98021
2191.41534	0.98048
2189.36153	0.98105
2187.30772	0.98102
2185.25391	0.98022
2183.20010	0.97893
2181.14629	0.97826
2179.09248	0.97867
2177.03867	0.97882
2174.98486	0.97790
2172.93105	0.97693
2170.87724	0.97663
2168.82343	0.97678
2166.76962	0.97697
2164.71581	0.97673
2162.66200	0.97643
2160.60819	0.97778
2158.55438	0.98082
2156.50057	0.98252
2154.44676	0.98248
2152.39295	0.98190
2150.33914	0.98093
2148.28533	0.98005
2146.23152	0.97957
2144.17771	0.97907
2142.12390	0.97849
2140.07009	0.97887
2138.01628	0.98024
2135.96247	0.98081
2133.90866	0.98014
2131.85485	0.97898
2129.80104	0.97756
2127.74723	0.97673
2125.69342	0.97702
2123.63961	0.97734
2121.58580	0.97715
2119.53199	0.97751
2117.47818	0.97845
2115.42437	0.97878
2113.37056	0.97796
2111.31675	0.97689
2109.26294	0.97649
2107.20913	0.97656
2105.15532	0.97674
2103.10151	0.97683
2101.04770	0.97705
2098.99389	0.97765
2096.94008	0.97858
2094.88627	0.97900
2092.83246	0.97817
2090.77865	0.97702
2088.72484	0.97659
2086.67103	0.97732
2084.61722	0.97823
2082.56341	0.97803
2080.50960	0.97754
2078.45579	0.97772
2076.40198	0.97800
2074.34817	0.97783
2072.29436	0.97751
2070.24055	0.97755
2068.18674	0.97837
2066.13293	0.97934
2064.07912	0.97936
2062.02531	0.97876
2059.97150	0.97796
2057.91769	0.97762
2055.86388	0.97857
2053.81007	0.97930
2051.75626	0.97834
2049.70245	0.97749
2047.64864	0.97820
2045.59483	0.97931
2043.54102	0.98030
2041.48721	0.98041
2039.43340	0.97837
2037.37959	0.97637
2035.32578	0.97745
2033.27197	0.97991
2031.21816	0.98077
2029.16435	0.97998
2027.11054	0.97842
2025.05673	0.97792
2023.00292	0.97964
2020.94911	0.98250
2018.89530	0.98399
2016.84149	0.98286
2014.78768	0.98153
2012.73387	0.98101
2010.68006	0.98000
2008.62625	0.97963
2006.57244	0.98128
2004.51863	0.98255
2002.46482	0.98159
2000.41101	0.98035
1998.35720	0.98030
1996.30339	0.98080
1994.24958	0.98152
1992.19577	0.98219
1990.14196	0.98203
1988.08815	0.98131
1986.03434	0.98129
1983.98053	0.98169
1981.92672	0.98076
1979.87291	0.97950
1977.81910	0.98076
1975.76529	0.98291
1973.71148	0.98231
1971.65767	0.98060
1969.60386	0.98060
1967.55005	0.98155
1965.49624	0.98192
1963.44243	0.98220
1961.38862	0.98319
1959.33481	0.98385
1957.28100	0.98355
1955.22719	0.98246
1953.17338	0.98133
1951.11957	0.98155
1949.06576	0.98265
1947.01195	0.98323
1944.95814	0.98315
1942.90433	0.98271
1940.85052	0.98248
1938.79671	0.98280
1936.74290	0.98279
1934.68909	0.98255
1932.63528	0.98265
1930.58147	0.98268
1928.52766	0.98253
1926.47385	0.98258
1924.42004	0.98285
1922.36623	0.98300
1920.31242	0.98284
1918.25861	0.98243
1916.20479	0.98185
1914.15098	0.98150
1912.09717	0.98184
1910.04336	0.98260
1907.98955	0.98305
1905.93574	0.98277
1903.88193	0.98234
1901.82812	0.98214
1899.77431	0.98154
1897.72050	0.98088
1895.66669	0.98093
1893.61288	0.98151
1891.55907	0.98222
1889.50526	0.98266
1887.45145	0.98224
1885.39764	0.98131
1883.34383	0.98070
1881.29002	0.98055
1879.23621	0.98063
1877.18240	0.98084
1875.12859	0.98128
1873.07478	0.98170
1871.02097	0.98174
1868.96716	0.98157
1866.91335	0.98137
1864.85954	0.98123
1862.80573	0.98145
1860.75192	0.98167
1858.69811	0.98166
1856.64430	0.98162
1854.59049	0.98135
1852.53668	0.98094
1850.48287	0.98065
1848.42906	0.98066
1846.37525	0.98123
1844.32144	0.98184
1842.26763	0.98145
1840.21382	0.98054
1838.16001	0.97993
1836.10620	0.97983
1834.05239	0.98021
1831.99858	0.98057
1829.94477	0.98051
1827.89096	0.98009
1825.83715	0.97966
1823.78334	0.97918
1821.72953	0.97885
1819.67572	0.97869
1817.62191	0.97827
1815.56810	0.97754
1813.51429	0.97691
1811.46048	0.97655
1809.40667	0.97628
1807.35286	0.97599
1805.29905	0.97577
1803.24524	0.97567
1801.19143	0.97513
1799.13762	0.97392
1797.08381	0.97276
1795.03000	0.97212
1792.97619	0.97145
1790.92238	0.96981
1788.86857	0.96773
1786.81476	0.96604
1784.76095	0.96461
1782.70714	0.96320
1780.65333	0.96188
1778.59952	0.96061
1776.54571	0.95948
1774.49190	0.95855
1772.43809	0.95773
1770.38428	0.95659
1768.33047	0.95505
1766.27666	0.95363
1764.22285	0.95255
1762.16904	0.95126
1760.11523	0.94935
1758.06142	0.94710
1756.00761	0.94420
1753.95380	0.94069
1751.89999	0.93572
1749.84618	0.92682
1747.79237	0.91328
1745.73856	0.89631
1743.68475	0.87719
1741.63094	0.85935
1739.57713	0.84657
1737.52332	0.84131
1735.46951	0.84302
1733.41570	0.84999
1731.36189	0.85691
1729.30808	0.86141
1727.25427	0.86353
1725.20046	0.86257
1723.14665	0.85870
1721.09284	0.85375
1719.03903	0.84888
1716.98522	0.84386
1714.93141	0.84056
1712.87760	0.83979
1710.82379	0.84128
1708.76998	0.84481
1706.71617	0.85001
1704.66236	0.85576
1702.60855	0.86042
1700.55474	0.86502
1698.50093	0.86930
1696.44712	0.87291
1694.39331	0.87665
1692.33950	0.87932
1690.28569	0.88122
1688.23188	0.88262
1686.17807	0.88341
1684.12426	0.88282
1682.07045	0.88057
1680.01664	0.87817
1677.96283	0.87594
1675.90902	0.87375
1673.85521	0.87152
1671.80140	0.86938
1669.74759	0.86649
1667.69378	0.86316
1665.63997	0.86083
1663.58616	0.85861
1661.53235	0.85577
1659.47854	0.85347
1657.42473	0.85224
1655.37092	0.85173
1653.31711	0.85044
1651.26330	0.84823
1649.20949	0.84737
1647.15568	0.84698
1645.10187	0.84593
1643.04806	0.84494
1640.99425	0.84469
1638.94044	0.84510
1636.88663	0.84575
1634.83282	0.84598
1632.77901	0.84598
1630.72520	0.84640
1628.67139	0.84721
1626.61758	0.84820
1624.56377	0.84986
1622.50996	0.85266
1620.45614	0.85598
1618.40233	0.86026
1616.34852	0.86649
1614.29471	0.87233
1612.24090	0.87705
1610.18709	0.88200
1608.13328	0.88681
1606.07947	0.89094
1604.02566	0.89468
1601.97185	0.89803
1599.91804	0.90074
1597.86423	0.90326
1595.81042	0.90600
1593.75661	0.90836
1591.70280	0.91005
1589.64899	0.91156
1587.59518	0.91306
1585.54137	0.91424
1583.48756	0.91514
1581.43375	0.91616
1579.37994	0.91730
1577.32613	0.91861
1575.27232	0.91962
1573.21851	0.91983
1571.16470	0.92013
1569.11089	0.92059
1567.05708	0.92065
1565.00327	0.92070
1562.94946	0.92117
1560.89565	0.92225
1558.84184	0.92322
1556.78803	0.92255
1554.73422	0.92200
1552.68041	0.92200
1550.62660	0.92234
1548.57279	0.92294
1546.51898	0.92391
1544.46517	0.92541
1542.41136	0.92718
1540.35755	0.92880
1538.30374	0.92935
1536.24993	0.92957
1534.19612	0.93058
1532.14231	0.93201
1530.08850	0.93302
1528.03469	0.93401
1525.98088	0.93523
1523.92707	0.93651
1521.87326	0.93774
1519.81945	0.93848
1517.76564	0.93888
1515.71183	0.93931
1513.65802	0.93993
1511.60421	0.94100
1509.55040	0.94270
1507.49659	0.94455
1505.44278	0.94451
1503.38897	0.94361
1501.33516	0.94346
1499.28135	0.94373
1497.22754	0.94382
1495.17373	0.94350
1493.11992	0.94333
1491.06611	0.94347
1489.01230	0.94321
1486.95849	0.94192
1484.90468	0.93998
1482.85087	0.93727
1480.79706	0.93290
1478.74325	0.92419
1476.68944	0.90226
1474.63563	0.86053
1472.58182	0.82063
1470.52801	0.81103
1468.47420	0.81165
1466.42039	0.80021
1464.36658	0.77754
1462.31277	0.77074
1460.25896	0.78898
1458.20515	0.81768
1456.15134	0.83981
1454.09753	0.84974
1452.04372	0.85638
1449.98991	0.86307
1447.93610	0.87012
1445.88229	0.87685
1443.82848	0.88204
1441.77467	0.88568
1439.72086	0.88796
1437.66705	0.88954
1435.61324	0.89125
1433.55943	0.89386
1431.50562	0.89741
1429.45181	0.90103
1427.39800	0.90364
1425.34419	0.90550
1423.29038	0.90668
1421.23657	0.90709
1419.18276	0.90710
1417.12895	0.90634
1415.07514	0.90514
1413.02133	0.90429
1410.96752	0.90423
1408.91371	0.90487
1406.85990	0.90616
1404.80609	0.90826
1402.75228	0.91052
1400.69847	0.91247
1398.64466	0.91408
1396.59085	0.91496
1394.53704	0.91475
1392.48323	0.91371
1390.42942	0.91227
1388.37561	0.90968
1386.32180	0.90442
1384.26799	0.89635
1382.21418	0.88501
1380.16037	0.86940
1378.10656	0.85240
1376.05275	0.84172
1373.99894	0.84305
1371.94513	0.85264
1369.89132	0.86317
1367.83751	0.87206
1365.78370	0.87871
1363.72989	0.88364
1361.67608	0.88699
1359.62227	0.88899
1357.56846	0.89144
1355.51465	0.89519
1353.46084	0.89931
1351.40703	0.90287
1349.35322	0.90617
1347.29941	0.90944
1345.24560	0.91222
1343.19179	0.91430
1341.13798	0.91595
1339.08417	0.91708
1337.03036	0.91743
1334.97655	0.91746
1332.92274	0.91745
1330.86893	0.91715
1328.81512	0.91654
1326.76130	0.91577
1324.70749	0.91475
1322.65368	0.91331
1320.59987	0.91134
1318.54606	0.90910
1316.49225	0.90747
1314.43844	0.90730
1312.38463	0.90829
1310.33082	0.90916
1308.27701	0.90916
1306.22320	0.90842
1304.16939	0.90769
1302.11558	0.90737
1300.06177	0.90699
1298.00796	0.90623
1295.95415	0.90528
1293.90034	0.90430
1291.84653	0.90328
1289.79272	0.90208
1287.73891	0.90053
1285.68510	0.89852
1283.63129	0.89603
1281.57748	0.89309
1279.52367	0.88984
1277.46986	0.88636
1275.41605	0.88281
1273.36224	0.87907
1271.30843	0.87492
1269.25462	0.87072
1267.20081	0.86685
1265.14700	0.86294
1263.09319	0.85870
1261.03938	0.85401
1258.98557	0.84866
1256.93176	0.84276
1254.87795	0.83657
1252.82414	0.82990
1250.77033	0.82230
1248.71652	0.81404
1246.66271	0.80581
1244.60890	0.79841
1242.55509	0.79288
1240.50128	0.79021
1238.44747	0.79125
1236.39366	0.79629
1234.33985	0.80484
1232.28604	0.81571
1230.23223	0.82701
1228.17842	0.83732
1226.12461	0.84615
1224.07080	0.85328
1222.01699	0.85865
1219.96318	0.86272
1217.90937	0.86613
1215.85556	0.86907
1213.80175	0.87167
1211.74794	0.87395
1209.69413	0.87577
1207.64032	0.87729
1205.58651	0.87862
1203.53270	0.87964
1201.47889	0.88051
1199.42508	0.88139
1197.37127	0.88222
1195.31746	0.88297
1193.26365	0.88356
1191.20984	0.88394
1189.15603	0.88432
1187.10222	0.88468
1185.04841	0.88471
1182.99460	0.88451
1180.94079	0.88430
1178.88698	0.88393
1176.83317	0.88343
1174.77936	0.88265
1172.72555	0.88100
1170.67174	0.87878
1168.61793	0.87715
1166.56412	0.87701
1164.51031	0.87844
1162.45650	0.88062
1160.40269	0.88258
1158.34888	0.88427
1156.29507	0.88615
1154.24126	0.88814
1152.18745	0.88996
1150.13364	0.89168
1148.07983	0.89346
1146.02602	0.89497
1143.97221	0.89598
1141.91840	0.89666
1139.86459	0.89711
1137.81078	0.89730
1135.75697	0.89716
1133.70316	0.89647
1131.64935	0.89536
1129.59554	0.89425
1127.54173	0.89326
1125.48792	0.89241
1123.43411	0.89167
1121.38030	0.89086
1119.32649	0.88989
1117.27268	0.88883
1115.21887	0.88795
1113.16506	0.88740
1111.11125	0.88707
1109.05744	0.88663
1107.00363	0.88585
1104.94982	0.88497
1102.89601	0.88433
1100.84220	0.88410
1098.78839	0.88413
1096.73458	0.88395
1094.68077	0.88360
1092.62696	0.88341
1090.57315	0.88304
1088.51934	0.88253
1086.46553	0.88234
1084.41172	0.88216
1082.35791	0.88146
1080.30410	0.88037
1078.25029	0.87942
1076.19648	0.87877
1074.14267	0.87815
1072.08886	0.87742
1070.03505	0.87662
1067.98124	0.87587
1065.92743	0.87512
1063.87362	0.87418
1061.81981	0.87323
1059.76600	0.87283
1057.71219	0.87304
1055.65838	0.87301
1053.60457	0.87210
1051.55076	0.87068
1049.49695	0.86933
1047.44314	0.86814
1045.38933	0.86740
1043.33552	0.86746
1041.28171	0.86774
1039.22790	0.86747
1037.17409	0.86635
1035.12028	0.86460
1033.06647	0.86260
1031.01265	0.86009
1028.95884	0.85710
1026.90503	0.85415
1024.85122	0.85118
1022.79741	0.84877
1020.74360	0.84798
1018.68979	0.84934
1016.63598	0.85316
1014.58217	0.85864
1012.52836	0.86432
1010.47455	0.86937
1008.42074	0.87365
1006.36693	0.87705
1004.31312	0.87911
1002.25931	0.87941
1000.20550	0.87832
998.15169	0.87745
996.09788	0.87835
994.04407	0.88086
991.99026	0.88356
989.93645	0.88541
987.88264	0.88656
985.82883	0.88742
983.77502	0.88790
981.72121	0.88763
979.66740	0.88661
977.61359	0.88501
975.55978	0.88272
973.50597	0.88043
971.45216	0.87983
969.39835	0.88130
967.34454	0.88335
965.29073	0.88473
963.23692	0.88534
961.18311	0.88558
959.12930	0.88572
957.07549	0.88574
955.02168	0.88578
952.96787	0.88599
950.91406	0.88620
948.86025	0.88604
946.80644	0.88548
944.75263	0.88474
942.69882	0.88399
940.64501	0.88335
938.59120	0.88302
936.53739	0.88298
934.48358	0.88327
932.42977	0.88397
930.37596	0.88470
928.32215	0.88514
926.26834	0.88521
924.21453	0.88476
922.16072	0.88411
920.10691	0.88354
918.05310	0.88282
915.99929	0.88177
913.94548	0.88043
911.89167	0.87865
909.83786	0.87694
907.78405	0.87616
905.73024	0.87604
903.67643	0.87575
901.62262	0.87503
899.56881	0.87419
897.51500	0.87386
895.46119	0.87399
893.40738	0.87389
891.35357	0.87342
889.29976	0.87276
887.24595	0.87200
885.19214	0.87115
883.13833	0.87004
881.08452	0.86871
879.03071	0.86775
876.97690	0.86707
874.92309	0.86606
872.86928	0.86495
870.81547	0.86407
868.76166	0.86303
866.70785	0.86167
864.65404	0.86041
862.60023	0.85939
860.54642	0.85834
858.49261	0.85703
856.43880	0.85549
854.38499	0.85399
852.33118	0.85250
850.27737	0.85080
848.22356	0.84885
846.16975	0.84636
844.11594	0.84260
842.06213	0.83816
840.00832	0.83556
837.95451	0.83574
835.90070	0.83672
833.84689	0.83711
831.79308	0.83692
829.73927	0.83583
827.68546	0.83396
825.63165	0.83230
823.57784	0.83110
821.52403	0.82935
819.47022	0.82685
817.41641	0.82463
815.36260	0.82297
813.30879	0.82117
811.25498	0.81888
809.20117	0.81641
807.14736	0.81443
805.09355	0.81344
803.03974	0.81280
800.98593	0.81154
798.93212	0.81009
796.87831	0.80926
794.82450	0.80844
792.77069	0.80691
790.71688	0.80483
788.66307	0.80254
786.60926	0.80036
784.55545	0.79810
782.50164	0.79566
780.44783	0.79377
778.39402	0.79299
776.34021	0.79288
774.28640	0.79271
772.23259	0.79194
770.17878	0.79086
768.12497	0.78999
766.07116	0.78907
764.01735	0.78777
761.96354	0.78613
759.90973	0.78439
757.85592	0.78274
755.80211	0.78148
753.74830	0.78062
751.69449	0.77965
749.64068	0.77823
747.58687	0.77646
745.53306	0.77497
743.47925	0.77379
741.42544	0.77184
739.37163	0.76850
737.31781	0.76324
735.26400	0.75238
733.21019	0.72878
731.15638	0.69703
729.10257	0.67976
727.04876	0.68356
724.99495	0.68738
722.94114	0.67263
720.88733	0.64234
718.83352	0.62717
716.77971	0.64733
714.72590	0.68144
712.67209	0.70608
710.61828	0.71951
708.56447	0.72673
706.51066	0.73061
704.45685	0.73297
702.40304	0.73477
700.34923	0.73618
698.29542	0.73738
696.24161	0.73803
694.18780	0.73775
692.13399	0.73715
690.08018	0.73674
688.02637	0.73625
685.97256	0.73523
683.91875	0.73368
681.86494	0.73250
679.81113	0.73186
677.75732	0.73141
675.70351	0.73138
673.64970	0.73130
671.59589	0.73055
669.54208	0.72944
667.48827	0.72817
665.43446	0.72706
663.38065	0.72605
661.32684	0.72475
659.27303	0.72315
657.21922	0.72181
655.16541	0.72120
653.11160	0.72134
651.05779	0.72172
649.00398	0.72107
646.95017	0.71956
644.89636	0.71855
642.84255	0.71777
640.78874	0.71665
638.73493	0.71558
636.68112	0.71486
634.62731	0.71413
632.57350	0.71274
630.51969	0.71106
628.46588	0.70992
626.41207	0.70903
624.35826	0.70876
622.30445	0.70913
620.25064	0.70870
618.19683	0.70771
616.14302	0.70710
614.08921	0.70582
612.03540	0.70321
609.98159	0.70070
607.92778	0.69972
605.87397	0.70029
603.82016	0.70207
601.76635	0.70463
599.71254	0.70665
597.65873	0.70712
595.60492	0.70682
593.55111	0.70742
591.49730	0.70805
589.44349	0.70695
587.38968	0.70546
585.33587	0.70485
583.28206	0.70511
581.22825	0.70606
579.17444	0.70668
577.12063	0.70633
575.06682	0.70597
573.01301	0.70606
570.95920	0.70598
568.90539	0.70532
566.85158	0.70363
564.79777	0.70143
562.74396	0.70056
560.69015	0.70153
558.63634	0.70274
556.58253	0.70280
554.52872	0.70222
552.47491	0.70179
550.42110	0.70126
548.36729	0.70108
546.31348	0.70190
544.25967	0.70208
542.20586	0.70080
540.15205	0.70005
538.09824	0.70032
536.04443	0.70040
533.99062	0.70035
531.93681	0.70062
529.88300	0.70101
527.82919	0.70125
525.77538	0.70148
523.72157	0.70192
521.66776	0.70273
519.61395	0.70417
517.56014	0.70518
515.50633	0.70494
513.45252	0.70503
511.39871	0.70572
509.34490	0.70555
507.29109	0.70481
505.23728	0.70457
503.18347	0.70449
501.12966	0.70413
499.07585	0.70397
497.02204	0.70427
494.96823	0.70515
492.91442	0.70625
490.86061	0.70618
488.80680	0.70536
486.75299	0.70536
484.69918	0.70511
482.64537	0.70413
480.59156	0.70395
478.53775	0.70411
476.48394	0.70382
474.43013	0.70404
472.37632	0.70514
470.32251	0.70558
468.26870	0.70489
466.21489	0.70475
464.16108	0.70542
462.10727	0.70477
460.05346	0.70357
457.99965	0.70522
455.94584	0.70904
453.89203	0.71116
451.83822	0.71018
449.78441	0.70834
447.73060	0.70850
445.67679	0.71068
443.62298	0.71386
441.56916	0.71670
439.51535	0.71886
437.46154	0.72045
435.40773	0.71921
433.35392	0.71662
431.30011	0.71635
429.24630	0.71662
427.19249	0.71690
425.13868	0.71860
423.08487	0.72039
421.03106	0.72004
418.97725	0.71648
416.92344	0.71529
414.86963	0.71765
412.81582	0.71950
410.76201	0.72080
408.70820	0.72288
406.65439	0.72504
404.60058	0.72620
402.54677	0.72727
400.49296	0.73051
398.43915	0.73618
