3996.71440	0.01474
3994.66059	0.01498
3992.60678	0.01521
3990.55297	0.01512
3988.49916	0.01499
3986.44535	0.01511
3984.39154	0.01515
3982.33773	0.01504
3980.28391	0.01506
3978.23010	0.01522
3976.17629	0.01534
3974.12248	0.01534
3972.06867	0.01524
3970.01486	0.01519
3967.96105	0.01523
3965.90724	0.01519
3963.85343	0.01504
3961.79962	0.01499
3959.74581	0.01502
3957.69200	0.01507
3955.63819	0.01516
3953.58438	0.01520
3951.53057	0.01519
3949.47676	0.01527
3947.42295	0.01535
3945.36914	0.01529
3943.31533	0.01514
3941.26152	0.01511
3939.20771	0.01514
3937.15390	0.01513
3935.10009	0.01520
3933.04628	0.01529
3930.99247	0.01524
3928.93866	0.01516
3926.88485	0.01506
3924.83104	0.01498
3922.77723	0.01505
3920.72342	0.01519
3918.66961	0.01533
3916.61580	0.01538
3914.56199	0.01529
3912.50818	0.01518
3910.45437	0.01518
3908.40056	0.01523
3906.34675	0.01512
3904.29294	0.01492
3902.23913	0.01491
3900.18532	0.01510
3898.13151	0.01530
3896.07770	0.01534
3894.02389	0.01515
3891.97008	0.01493
3889.91627	0.01493
3887.86246	0.01498
3885.80865	0.01495
3883.75484	0.01490
3881.70103	0.01486
3879.64722	0.01492
3877.59341	0.01503
3875.53960	0.01512
3873.48579	0.01517
3871.43198	0.01525
3869.37817	0.01533
3867.32436	0.01515
3865.27055	0.01496
3863.21674	0.01500
3861.16293	0.01502
3859.10912	0.01493
3857.05531	0.01490
3855.00150	0.01498
3852.94769	0.01508
3850.89388	0.01510
3848.84007	0.01508
3846.78626	0.01507
3844.73245	0.01518
3842.67864	0.01533
3840.62483	0.01521
3838.57102	0.01501
3836.51721	0.01505
3834.46340	0.01508
3832.40959	0.01517
3830.35578	0.01524
3828.30197	0.01517
3826.24816	0.01516
3824.19435	0.01515
3822.14054	0.01501
3820.08673	0.01488
3818.03292	0.01486
3815.97911	0.01497
3813.92530	0.01512
3811.87149	0.01512
3809.81768	0.01500
3807.76387	0.01484
3805.71006	0.01476
3803.65625	0.01474
3801.60244	0.01489
3799.54863	0.01507
3797.49482	0.01505
3795.44101	0.01500
3793.38720	0.01501
3791.33339	0.01494
3789.27958	0.01480
3787.22577	0.01469
3785.17196	0.01470
3783.11815	0.01474
3781.06434	0.01474
3779.01053	0.01477
3776.95672	0.01478
3774.90291	0.01470
3772.84910	0.01467
3770.79529	0.01470
3768.74148	0.01478
3766.68767	0.01491
3764.63386	0.01500
3762.58005	0.01500
3760.52624	0.01497
3758.47243	0.01485
3756.41862	0.01468
3754.36481	0.01456
3752.31100	0.01456
3750.25719	0.01473
3748.20338	0.01465
3746.14957	0.01432
3744.09576	0.01422
3742.04195	0.01444
3739.98814	0.01471
3737.93433	0.01502
3735.88052	0.01517
3733.82671	0.01502
3731.77290	0.01487
3729.71909	0.01481
3727.66528	0.01480
3725.61147	0.01477
3723.55766	0.01473
3721.50385	0.01475
3719.45004	0.01479
3717.39623	0.01490
3715.34242	0.01519
3713.28861	0.01554
3711.23480	0.01600
3709.18099	0.01644
3707.12718	0.01659
3705.07337	0.01654
3703.01956	0.01663
3700.96575	0.01697
3698.91194	0.01734
3696.85813	0.01753
3694.80432	0.01744
3692.75051	0.01718
3690.69670	0.01702
3688.64289	0.01709
3686.58907	0.01712
3684.53526	0.01696
3682.48145	0.01679
3680.42764	0.01686
3678.37383	0.01699
3676.32002	0.01695
3674.26621	0.01694
3672.21240	0.01694
3670.15859	0.01705
3668.10478	0.01723
3666.05097	0.01714
3663.99716	0.01703
3661.94335	0.01702
3659.88954	0.01702
3657.83573	0.01718
3655.78192	0.01752
3653.72811	0.01766
3651.67430	0.01769
3649.62049	0.01796
3647.56668	0.01833
3645.51287	0.01843
3643.45906	0.01837
3641.40525	0.01826
3639.35144	0.01812
3637.29763	0.01801
3635.24382	0.01803
3633.19001	0.01809
3631.13620	0.01817
3629.08239	0.01860
3627.02858	0.01907
3624.97477	0.01902
3622.92096	0.01880
3620.86715	0.01868
3618.81334	0.01867
3616.75953	0.01863
3614.70572	0.01850
3612.65191	0.01833
3610.59810	0.01829
3608.54429	0.01855
3606.49048	0.01886
3604.43667	0.01879
3602.38286	0.01851
3600.32905	0.01836
3598.27524	0.01833
3596.22143	0.01812
3594.16762	0.01776
3592.11381	0.01767
3590.06000	0.01777
3588.00619	0.01789
3585.95238	0.01809
3583.89857	0.01813
3581.84476	0.01792
3579.79095	0.01771
3577.73714	0.01767
3575.68333	0.01781
3573.62952	0.01795
3571.57571	0.01793
3569.52190	0.01783
3567.46809	0.01779
3565.41428	0.01783
3563.36047	0.01787
3561.30666	0.01790
3559.25285	0.01785
3557.19904	0.01776
3555.14523	0.01767
3553.09142	0.01772
3551.03761	0.01804
3548.98380	0.01833
3546.92999	0.01836
3544.87618	0.01831
3542.82237	0.01825
3540.76856	0.01822
3538.71475	0.01836
3536.66094	0.01852
3534.60713	0.01856
3532.55332	0.01861
3530.49951	0.01867
3528.44570	0.01856
3526.39189	0.01847
3524.33808	0.01863
3522.28427	0.01875
3520.23046	0.01861
3518.17665	0.01856
3516.12284	0.01868
3514.06903	0.01866
3512.01522	0.01856
3509.96141	0.01852
3507.90760	0.01850
3505.85379	0.01850
3503.79998	0.01860
3501.74617	0.01876
3499.69236	0.01881
3497.63855	0.01875
3495.58474	0.01869
3493.53093	0.01868
3491.47712	0.01873
3489.42331	0.01878
3487.36950	0.01871
3485.31569	0.01868
3483.26188	0.01876
3481.20807	0.01889
3479.15426	0.01899
3477.10045	0.01914
3475.04664	0.01932
3472.99283	0.01943
3470.93902	0.01944
3468.88521	0.01934
3466.83140	0.01916
3464.77759	0.01907
3462.72378	0.01909
3460.66997	0.01915
3458.61616	0.01930
3456.56235	0.01949
3454.50854	0.01961
3452.45473	0.01957
3450.40092	0.01939
3448.34711	0.01922
3446.29330	0.01916
3444.23949	0.01922
3442.18568	0.01930
3440.13187	0.01932
3438.07806	0.01932
3436.02425	0.01931
3433.97044	0.01928
3431.91663	0.01930
3429.86282	0.01941
3427.80901	0.01949
3425.75520	0.01954
3423.70139	0.01957
3421.64758	0.01955
3419.59377	0.01948
3417.53996	0.01941
3415.48615	0.01936
3413.43234	0.01933
3411.37853	0.01933
3409.32472	0.01938
3407.27091	0.01953
3405.21710	0.01965
3403.16329	0.01967
3401.10948	0.01971
3399.05567	0.01978
3397.00186	0.01970
3394.94805	0.01950
3392.89424	0.01949
3390.84042	0.01964
3388.78661	0.01963
3386.73280	0.01948
3384.67899	0.01950
3382.62518	0.01969
3380.57137	0.01977
3378.51756	0.01965
3376.46375	0.01956
3374.40994	0.01961
3372.35613	0.01964
3370.30232	0.01952
3368.24851	0.01940
3366.19470	0.01936
3364.14089	0.01931
3362.08708	0.01931
3360.03327	0.01942
3357.97946	0.01954
3355.92565	0.01961
3353.87184	0.01968
3351.81803	0.01969
3349.76422	0.01957
3347.71041	0.01936
3345.65660	0.01925
3343.60279	0.01935
3341.54898	0.01956
3339.49517	0.01963
3337.44136	0.01951
3335.38755	0.01942
3333.33374	0.01951
3331.27993	0.01959
3329.22612	0.01962
3327.17231	0.01959
3325.11850	0.01951
3323.06469	0.01941
3321.01088	0.01931
3318.95707	0.01925
3316.90326	0.01914
3314.84945	0.01898
3312.79564	0.01893
3310.74183	0.01903
3308.68802	0.01919
3306.63421	0.01920
3304.58040	0.01907
3302.52659	0.01908
3300.47278	0.01924
3298.41897	0.01929
3296.36516	0.01923
3294.31135	0.01910
3292.25754	0.01896
3290.20373	0.01896
3288.14992	0.01905
3286.09611	0.01903
3284.04230	0.01889
3281.98849	0.01884
3279.93468	0.01885
3277.88087	0.01887
3275.82706	0.01892
3273.77325	0.01891
3271.71944	0.01880
3269.66563	0.01863
3267.61182	0.01845
3265.55801	0.01839
3263.50420	0.01839
3261.45039	0.01844
3259.39658	0.01856
3257.34277	0.01852
3255.28896	0.01833
3253.23515	0.01829
3251.18134	0.01841
3249.12753	0.01845
3247.07372	0.01837
3245.01991	0.01832
3242.96610	0.01838
3240.91229	0.01846
3238.85848	0.01844
3236.80467	0.01840
3234.75086	0.01841
3232.69705	0.01834
3230.64324	0.01817
3228.58943	0.01810
3226.53562	0.01814
3224.48181	0.01818
3222.42800	0.01812
3220.37419	0.01804
3218.32038	0.01804
3216.26657	0.01806
3214.21276	0.01806
3212.15895	0.01803
3210.10514	0.01800
3208.05133	0.01796
3205.99752	0.01789
3203.94371	0.01784
3201.88990	0.01778
3199.83609	0.01776
3197.78228	0.01778
3195.72847	0.01773
3193.67466	0.01761
3191.62085	0.01755
3189.56704	0.01757
3187.51323	0.01757
3185.45942	0.01757
3183.40561	0.01752
3181.35180	0.01739
3179.29799	0.01728
3177.24418	0.01736
3175.19037	0.01754
3173.13656	0.01757
3171.08275	0.01747
3169.02894	0.01739
3166.97513	0.01736
3164.92132	0.01739
3162.86751	0.01737
3160.81370	0.01726
3158.75989	0.01709
3156.70608	0.01697
3154.65227	0.01694
3152.59846	0.01693
3150.54465	0.01691
3148.49084	0.01694
3146.43703	0.01700
3144.38322	0.01705
3142.32941	0.01700
3140.27560	0.01685
3138.22179	0.01674
3136.16798	0.01670
3134.11417	0.01670
3132.06036	0.01679
3130.00655	0.01689
3127.95274	0.01680
3125.89893	0.01651
3123.84512	0.01631
3121.79131	0.01634
3119.73750	0.01646
3117.68369	0.01657
3115.62988	0.01664
3113.57607	0.01658
3111.52226	0.01649
3109.46845	0.01651
3107.41464	0.01651
3105.36083	0.01643
3103.30702	0.01646
3101.25321	0.01659
3099.19940	0.01669
3097.14559	0.01676
3095.09177	0.01682
3093.03796	0.01688
3090.98415	0.01690
3088.93034	0.01685
3086.87653	0.01679
3084.82272	0.01676
3082.76891	0.01677
3080.71510	0.01683
3078.66129	0.01687
3076.60748	0.01690
3074.55367	0.01690
3072.49986	0.01682
3070.44605	0.01669
3068.39224	0.01658
3066.33843	0.01653
3064.28462	0.01648
3062.23081	0.01649
3060.17700	0.01659
3058.12319	0.01662
3056.06938	0.01654
3054.01557	0.01651
3051.96176	0.01658
3049.90795	0.01659
3047.85414	0.01652
3045.80033	0.01653
3043.74652	0.01659
3041.69271	0.01661
3039.63890	0.01659
3037.58509	0.01652
3035.53128	0.01649
3033.47747	0.01657
3031.42366	0.01666
3029.36985	0.01669
3027.31604	0.01667
3025.26223	0.01661
3023.20842	0.01657
3021.15461	0.01655
3019.10080	0.01647
3017.04699	0.01635
3014.99318	0.01628
3012.93937	0.01620
3010.88556	0.01617
3008.83175	0.01621
3006.77794	0.01623
3004.72413	0.01623
3002.67032	0.01627
3000.61651	0.01627
2998.56270	0.01622
2996.50889	0.01611
2994.45508	0.01597
2992.40127	0.01596
2990.34746	0.01610
2988.29365	0.01628
2986.23984	0.01641
2984.18603	0.01641
2982.13222	0.01649
2980.07841	0.01671
2978.02460	0.01691
2975.97079	0.01711
2973.91698	0.01733
2971.86317	0.01764
2969.80936	0.01812
2967.75555	0.01862
2965.70174	0.01907
2963.64793	0.01968
2961.59412	0.02044
2959.54031	0.02114
2957.48650	0.02178
2955.43269	0.02244
2953.37888	0.02321
2951.32507	0.02418
2949.27126	0.02552
2947.21745	0.02739
2945.16364	0.02986
2943.10983	0.03302
2941.05602	0.03717
2939.00221	0.04254
2936.94840	0.04923
2934.89459	0.05735
2932.84078	0.06720
2930.78697	0.07927
2928.73316	0.09415
2926.67935	0.11285
2924.62554	0.13703
2922.57173	0.16808
2920.51792	0.20537
2918.46411	0.24485
2916.41030	0.27750
2914.35649	0.29156
2912.30268	0.28286
2910.24887	0.25949
2908.19506	0.23270
2906.14125	0.20900
2904.08744	0.19024
2902.03363	0.17601
2899.97982	0.16511
2897.92601	0.15617
2895.87220	0.14824
2893.81839	0.14075
2891.76458	0.13320
2889.71077	0.12544
2887.65696	0.11758
2885.60315	0.10963
2883.54934	0.10152
2881.49553	0.09316
2879.44172	0.08460
2877.38791	0.07621
2875.33410	0.06869
2873.28029	0.06258
2871.22648	0.05803
2869.17267	0.05515
2867.11886	0.05404
2865.06505	0.05484
2863.01124	0.05773
2860.95743	0.06346
2858.90362	0.07348
2856.84981	0.09000
2854.79600	0.11693
2852.74219	0.15892
2850.68838	0.21403
2848.63457	0.26354
2846.58076	0.27960
2844.52695	0.25656
2842.47314	0.21543
2840.41933	0.17582
2838.36552	0.14481
2836.31171	0.12207
2834.25790	0.10544
2832.20409	0.09309
2830.15028	0.08374
2828.09647	0.07638
2826.04266	0.07039
2823.98885	0.06552
2821.93504	0.06156
2819.88123	0.05818
2817.82742	0.05521
2815.77361	0.05258
2813.71980	0.05033
2811.66599	0.04848
2809.61218	0.04683
2807.55837	0.04522
2805.50456	0.04377
2803.45075	0.04258
2801.39693	0.04151
2799.34312	0.04046
2797.28931	0.03947
2795.23550	0.03857
2793.18169	0.03767
2791.12788	0.03669
2789.07407	0.03578
2787.02026	0.03510
2784.96645	0.03451
2782.91264	0.03379
2780.85883	0.03308
2778.80502	0.03254
2776.75121	0.03209
2774.69740	0.03159
2772.64359	0.03110
2770.58978	0.03067
2768.53597	0.03033
2766.48216	0.03003
2764.42835	0.02964
2762.37454	0.02922
2760.32073	0.02889
2758.26692	0.02863
2756.21311	0.02836
2754.15930	0.02810
2752.10549	0.02793
2750.05168	0.02777
2747.99787	0.02756
2745.94406	0.02739
2743.89025	0.02724
2741.83644	0.02714
2739.78263	0.02707
2737.72882	0.02693
2735.67501	0.02675
2733.62120	0.02671
2731.56739	0.02672
2729.51358	0.02656
2727.45977	0.02631
2725.40596	0.02611
2723.35215	0.02594
2721.29834	0.02579
2719.24453	0.02566
2717.19072	0.02554
2715.13691	0.02543
2713.08310	0.02532
2711.02929	0.02520
2708.97548	0.02508
2706.92167	0.02496
2704.86786	0.02484
2702.81405	0.02473
2700.76024	0.02463
2698.70643	0.02455
2696.65262	0.02444
2694.59881	0.02428
2692.54500	0.02413
2690.49119	0.02403
2688.43738	0.02396
2686.38357	0.02387
2684.32976	0.02378
2682.27595	0.02380
2680.22214	0.02383
2678.16833	0.02379
2676.11452	0.02376
2674.06071	0.02383
2672.00690	0.02399
2669.95309	0.02414
2667.89928	0.02428
2665.84547	0.02437
2663.79166	0.02444
2661.73785	0.02456
2659.68404	0.02469
2657.63023	0.02473
2655.57642	0.02463
2653.52261	0.02444
2651.46880	0.02431
2649.41499	0.02430
2647.36118	0.02438
2645.30737	0.02442
2643.25356	0.02442
2641.19975	0.02441
2639.14594	0.02443
2637.09213	0.02445
2635.03832	0.02444
2632.98451	0.02444
2630.93070	0.02431
2628.87689	0.02396
2626.82308	0.02365
2624.76927	0.02356
2622.71546	0.02353
2620.66165	0.02346
2618.60784	0.02334
2616.55403	0.02312
2614.50022	0.02281
2612.44641	0.02253
2610.39260	0.02237
2608.33879	0.02227
2606.28498	0.02221
2604.23117	0.02212
2602.17736	0.02194
2600.12355	0.02175
2598.06974	0.02168
2596.01593	0.02169
2593.96212	0.02168
2591.90831	0.02163
2589.85450	0.02166
2587.80069	0.02166
2585.74688	0.02143
2583.69307	0.02108
2581.63926	0.02085
2579.58545	0.02081
2577.53164	0.02081
2575.47783	0.02068
2573.42402	0.02052
2571.37021	0.02050
2569.31640	0.02052
2567.26259	0.02043
2565.20878	0.02037
2563.15497	0.02051
2561.10116	0.02072
2559.04735	0.02066
2556.99354	0.02038
2554.93973	0.02031
2552.88592	0.02048
2550.83211	0.02056
2548.77830	0.02044
2546.72449	0.02026
2544.67068	0.02018
2542.61687	0.02021
2540.56306	0.02028
2538.50925	0.02026
2536.45544	0.02016
2534.40163	0.02015
2532.34782	0.02020
2530.29401	0.02011
2528.24020	0.01991
2526.18639	0.01975
2524.13258	0.01976
2522.07877	0.01996
2520.02496	0.02003
2517.97115	0.01981
2515.91734	0.01968
2513.86353	0.01969
2511.80972	0.01966
2509.75591	0.01970
2507.70210	0.01966
2505.64828	0.01941
2503.59447	0.01933
2501.54066	0.01943
2499.48685	0.01939
2497.43304	0.01924
2495.37923	0.01920
2493.32542	0.01917
2491.27161	0.01903
2489.21780	0.01890
2487.16399	0.01893
2485.11018	0.01905
2483.05637	0.01913
2481.00256	0.01909
2478.94875	0.01892
2476.89494	0.01883
2474.84113	0.01889
2472.78732	0.01889
2470.73351	0.01884
2468.67970	0.01890
2466.62589	0.01896
2464.57208	0.01883
2462.51827	0.01870
2460.46446	0.01873
2458.41065	0.01878
2456.35684	0.01871
2454.30303	0.01869
2452.24922	0.01887
2450.19541	0.01907
2448.14160	0.01907
2446.08779	0.01893
2444.03398	0.01875
2441.98017	0.01867
2439.92636	0.01876
2437.87255	0.01884
2435.81874	0.01887
2433.76493	0.01900
2431.71112	0.01906
2429.65731	0.01890
2427.60350	0.01880
2425.54969	0.01890
2423.49588	0.01900
2421.44207	0.01904
2419.38826	0.01900
2417.33445	0.01895
2415.28064	0.01896
2413.22683	0.01892
2411.17302	0.01883
2409.11921	0.01882
2407.06540	0.01888
2405.01159	0.01886
2402.95778	0.01868
2400.90397	0.01846
2398.85016	0.01831
2396.79635	0.01828
2394.74254	0.01835
2392.68873	0.01850
2390.63492	0.01859
2388.58111	0.01857
2386.52730	0.01853
2384.47349	0.01851
2382.41968	0.01852
2380.36587	0.01858
2378.31206	0.01864
2376.25825	0.01866
2374.20444	0.01872
2372.15063	0.01884
2370.09682	0.01886
2368.04301	0.01882
2365.98920	0.01898
2363.93539	0.01914
2361.88158	0.01905
2359.82777	0.01905
2357.77396	0.01927
2355.72015	0.01949
2353.66634	0.01957
2351.61253	0.01944
2349.55872	0.01929
2347.50491	0.01929
2345.45110	0.01934
2343.39729	0.01930
2341.34348	0.01930
2339.28967	0.01944
2337.23586	0.01967
2335.18205	0.01990
2333.12824	0.02003
2331.07443	0.02014
2329.02062	0.02037
2326.96681	0.02073
2324.91300	0.02074
2322.85919	0.02030
2320.80538	0.01992
2318.75157	0.01957
2316.69776	0.01929
2314.64395	0.01931
2312.59014	0.01944
2310.53633	0.01947
2308.48252	0.01936
2306.42871	0.01932
2304.37490	0.01933
2302.32109	0.01915
2300.26728	0.01893
2298.21347	0.01883
2296.15966	0.01886
2294.10585	0.01899
2292.05204	0.01920
2289.99823	0.01936
2287.94442	0.01937
2285.89061	0.01927
2283.83680	0.01912
2281.78299	0.01897
2279.72918	0.01905
2277.67537	0.01934
2275.62156	0.01942
2273.56775	0.01917
2271.51394	0.01882
2269.46013	0.01842
2267.40632	0.01805
2265.35251	0.01795
2263.29870	0.01796
2261.24489	0.01785
2259.19108	0.01792
2257.13727	0.01823
2255.08346	0.01841
2253.02965	0.01829
2250.97584	0.01820
2248.92203	0.01836
2246.86822	0.01847
2244.81441	0.01848
2242.76060	0.01832
2240.70679	0.01792
2238.65298	0.01759
2236.59917	0.01735
2234.54536	0.01731
2232.49155	0.01735
2230.43774	0.01716
2228.38393	0.01732
2226.33012	0.01792
2224.27631	0.01807
2222.22250	0.01778
2220.16869	0.01758
2218.11488	0.01757
2216.06107	0.01764
2214.00726	0.01773
2211.95344	0.01792
2209.89963	0.01820
2207.84582	0.01830
2205.79201	0.01820
2203.73820	0.01795
2201.68439	0.01759
2199.63058	0.01735
2197.57677	0.01717
2195.52296	0.01711
2193.46915	0.01755
2191.41534	0.01794
2189.36153	0.01772
2187.30772	0.01733
2185.25391	0.01722
2183.20010	0.01741
2181.14629	0.01756
2179.09248	0.01762
2177.03867	0.01807
2174.98486	0.01863
2172.93105	0.01855
2170.87724	0.01782
2168.82343	0.01695
2166.76962	0.01669
2164.71581	0.01726
2162.66200	0.01765
2160.60819	0.01705
2158.55438	0.01595
2156.50057	0.01538
2154.44676	0.01581
2152.39295	0.01674
2150.33914	0.01741
2148.28533	0.01732
2146.23152	0.01681
2144.17771	0.01652
2142.12390	0.01641
2140.07009	0.01639
2138.01628	0.01658
2135.96247	0.01682
2133.90866	0.01682
2131.85485	0.01661
2129.80104	0.01635
2127.74723	0.01632
2125.69342	0.01659
2123.63961	0.01706
2121.58580	0.01754
2119.53199	0.01757
2117.47818	0.01731
2115.42437	0.01733
2113.37056	0.01759
2111.31675	0.01778
2109.26294	0.01771
2107.20913	0.01755
2105.15532	0.01755
2103.10151	0.01773
2101.04770	0.01797
2098.99389	0.01802
2096.94008	0.01767
2094.88627	0.01720
2092.83246	0.01716
2090.77865	0.01749
2088.72484	0.01765
2086.67103	0.01765
2084.61722	0.01777
2082.56341	0.01798
2080.50960	0.01798
2078.45579	0.01779
2076.40198	0.01754
2074.34817	0.01738
2072.29436	0.01764
2070.24055	0.01802
2068.18674	0.01794
2066.13293	0.01756
2064.07912	0.01741
2062.02531	0.01757
2059.97150	0.01758
2057.91769	0.01733
2055.86388	0.01715
2053.81007	0.01725
2051.75626	0.01769
2049.70245	0.01823
2047.64864	0.01814
2045.59483	0.01735
2043.54102	0.01691
2041.48721	0.01725
2039.43340	0.01753
2037.37959	0.01715
2035.32578	0.01650
2033.27197	0.01610
2031.21816	0.01588
2029.16435	0.01615
2027.11054	0.01690
2025.05673	0.01703
2023.00292	0.01678
2020.94911	0.01699
2018.89530	0.01718
2016.84149	0.01720
2014.78768	0.01742
2012.73387	0.01777
2010.68006	0.01787
2008.62625	0.01748
2006.57244	0.01716
2004.51863	0.01727
2002.46482	0.01725
2000.41101	0.01700
1998.35720	0.01704
1996.30339	0.01744
1994.24958	0.01756
1992.19577	0.01729
1990.14196	0.01710
1988.08815	0.01718
1986.03434	0.01732
1983.98053	0.01723
1981.92672	0.01719
1979.87291	0.01749
1977.81910	0.01750
1975.76529	0.01685
1973.71148	0.01623
1971.65767	0.01618
1969.60386	0.01674
1967.55005	0.01751
1965.49624	0.01773
1963.44243	0.01763
1961.38862	0.01749
1959.33481	0.01705
1957.28100	0.01694
1955.22719	0.01756
1953.17338	0.01822
1951.11957	0.01832
1949.06576	0.01817
1947.01195	0.01815
1944.95814	0.01797
1942.90433	0.01777
1940.85052	0.01792
1938.79671	0.01802
1936.74290	0.01791
1934.68909	0.01794
1932.63528	0.01814
1930.58147	0.01815
1928.52766	0.01784
1926.47385	0.01752
1924.42004	0.01750
1922.36623	0.01775
1920.31242	0.01787
1918.25861	0.01778
1916.20479	0.01760
1914.15098	0.01746
1912.09717	0.01756
1910.04336	0.01779
1907.98955	0.01786
1905.93574	0.01793
1903.88193	0.01825
1901.82812	0.01857
1899.77431	0.01870
1897.72050	0.01874
1895.66669	0.01872
1893.61288	0.01867
1891.55907	0.01854
1889.50526	0.01819
1887.45145	0.01789
1885.39764	0.01784
1883.34383	0.01798
1881.29002	0.01816
1879.23621	0.01815
1877.18240	0.01812
1875.12859	0.01820
1873.07478	0.01814
1871.02097	0.01804
1868.96716	0.01820
1866.91335	0.01837
1864.85954	0.01844
1862.80573	0.01848
1860.75192	0.01844
1858.69811	0.01834
1856.64430	0.01827
1854.59049	0.01820
1852.53668	0.01805
1850.48287	0.01801
1848.42906	0.01810
1846.37525	0.01819
1844.32144	0.01827
1842.26763	0.01825
1840.21382	0.01822
1838.16001	0.01822
1836.10620	0.01814
1834.05239	0.01806
1831.99858	0.01803
1829.94477	0.01809
1827.89096	0.01832
1825.83715	0.01859
1823.78334	0.01867
1821.72953	0.01865
1819.67572	0.01860
1817.62191	0.01840
1815.56810	0.01825
1813.51429	0.01833
1811.46048	0.01850
1809.40667	0.01868
1807.35286	0.01880
1805.29905	0.01893
1803.24524	0.01916
1801.19143	0.01936
1799.13762	0.01936
1797.08381	0.01933
1795.03000	0.01940
1792.97619	0.01957
1790.92238	0.01991
1788.86857	0.02015
1786.81476	0.02021
1784.76095	0.02019
1782.70714	0.02013
1780.65333	0.02009
1778.59952	0.02008
1776.54571	0.02013
1774.49190	0.02022
1772.43809	0.02029
1770.38428	0.02034
1768.33047	0.02042
1766.27666	0.02049
1764.22285	0.02050
1762.16904	0.02052
1760.11523	0.02064
1758.06142	0.02082
1756.00761	0.02100
1753.95380	0.02112
1751.89999	0.02135
1749.84618	0.02180
1747.79237	0.02237
1745.73856	0.02308
1743.68475	0.02384
1741.63094	0.02446
1739.57713	0.02493
1737.52332	0.02519
1735.46951	0.02534
1733.41570	0.02557
1731.36189	0.02577
1729.30808	0.02599
1727.25427	0.02644
1725.20046	0.02729
1723.14665	0.02844
1721.09284	0.02941
1719.03903	0.03022
1716.98522	0.03119
1714.93141	0.03179
1712.87760	0.03165
1710.82379	0.03106
1708.76998	0.03031
1706.71617	0.02947
1704.66236	0.02864
1702.60855	0.02805
1700.55474	0.02777
1698.50093	0.02767
1696.44712	0.02729
1694.39331	0.02651
1692.33950	0.02586
1690.28569	0.02544
1688.23188	0.02509
1686.17807	0.02478
1684.12426	0.02468
1682.07045	0.02470
1680.01664	0.02456
1677.96283	0.02444
1675.90902	0.02451
1673.85521	0.02463
1671.80140	0.02460
1669.74759	0.02464
1667.69378	0.02476
1665.63997	0.02479
1663.58616	0.02482
1661.53235	0.02487
1659.47854	0.02487
1657.42473	0.02481
1655.37092	0.02482
1653.31711	0.02514
1651.26330	0.02526
1649.20949	0.02511
1647.15568	0.02513
1645.10187	0.02533
1643.04806	0.02541
1640.99425	0.02535
1638.94044	0.02521
1636.88663	0.02509
1634.83282	0.02512
1632.77901	0.02519
1630.72520	0.02513
1628.67139	0.02502
1626.61758	0.02495
1624.56377	0.02493
1622.50996	0.02492
1620.45614	0.02480
1618.40233	0.02460
1616.34852	0.02446
1614.29471	0.02434
1612.24090	0.02419
1610.18709	0.02409
1608.13328	0.02405
1606.07947	0.02398
1604.02566	0.02388
1601.97185	0.02382
1599.91804	0.02383
1597.86423	0.02384
1595.81042	0.02377
1593.75661	0.02367
1591.70280	0.02365
1589.64899	0.02376
1587.59518	0.02386
1585.54137	0.02389
1583.48756	0.02389
1581.43375	0.02383
1579.37994	0.02376
1577.32613	0.02383
1575.27232	0.02410
1573.21851	0.02424
1571.16470	0.02430
1569.11089	0.02451
1567.05708	0.02467
1565.00327	0.02466
1562.94946	0.02463
1560.89565	0.02467
1558.84184	0.02506
1556.78803	0.02569
1554.73422	0.02613
1552.68041	0.02652
1550.62660	0.02681
1548.57279	0.02709
1546.51898	0.02741
1544.46517	0.02792
1542.41136	0.02859
1540.35755	0.02941
1538.30374	0.03013
1536.24993	0.03053
1534.19612	0.03104
1532.14231	0.03171
1530.08850	0.03224
1528.03469	0.03269
1525.98088	0.03313
1523.92707	0.03355
1521.87326	0.03415
1519.81945	0.03476
1517.76564	0.03512
1515.71183	0.03538
1513.65802	0.03559
1511.60421	0.03578
1509.55040	0.03604
1507.49659	0.03658
1505.44278	0.03723
1503.38897	0.03748
1501.33516	0.03765
1499.28135	0.03796
1497.22754	0.03844
1495.17373	0.03891
1493.11992	0.03907
1491.06611	0.03924
1489.01230	0.03978
1486.95849	0.04040
1484.90468	0.04075
1482.85087	0.04122
1480.79706	0.04270
1478.74325	0.04733
1476.68944	0.06223
1474.63563	0.09401
1472.58182	0.12224
1470.52801	0.11484
1468.47420	0.09654
1466.42039	0.09238
1464.36658	0.11021
1462.31277	0.12817
1460.25896	0.12026
1458.20515	0.09202
1456.15134	0.06658
1454.09753	0.05698
1452.04372	0.05276
1449.98991	0.04962
1447.93610	0.04716
1445.88229	0.04536
1443.82848	0.04410
1441.77467	0.04307
1439.72086	0.04217
1437.66705	0.04130
1435.61324	0.04043
1433.55943	0.03970
1431.50562	0.03896
1429.45181	0.03816
1427.39800	0.03738
1425.34419	0.03671
1423.29038	0.03612
1421.23657	0.03566
1419.18276	0.03524
1417.12895	0.03482
1415.07514	0.03444
1413.02133	0.03416
1410.96752	0.03388
1408.91371	0.03339
1406.85990	0.03270
1404.80609	0.03193
1402.75228	0.03123
1400.69847	0.03058
1398.64466	0.03003
1396.59085	0.02960
1394.53704	0.02917
1392.48323	0.02875
1390.42942	0.02845
1388.37561	0.02828
1386.32180	0.02826
1384.26799	0.02830
1382.21418	0.02833
1380.16037	0.02848
1378.10656	0.02874
1376.05275	0.02899
1373.99894	0.02920
1371.94513	0.02931
1369.89132	0.02929
1367.83751	0.02925
1365.78370	0.02921
1363.72989	0.02907
1361.67608	0.02884
1359.62227	0.02857
1357.56846	0.02838
1355.51465	0.02834
1353.46084	0.02838
1351.40703	0.02838
1349.35322	0.02823
1347.29941	0.02797
1345.24560	0.02772
1343.19179	0.02748
1341.13798	0.02730
1339.08417	0.02709
1337.03036	0.02679
1334.97655	0.02656
1332.92274	0.02643
1330.86893	0.02633
1328.81512	0.02628
1326.76130	0.02637
1324.70749	0.02653
1322.65368	0.02670
1320.59987	0.02684
1318.54606	0.02690
1316.49225	0.02696
1314.43844	0.02706
1312.38463	0.02719
1310.33082	0.02736
1308.27701	0.02751
1306.22320	0.02758
1304.16939	0.02765
1302.11558	0.02785
1300.06177	0.02808
1298.00796	0.02826
1295.95415	0.02837
1293.90034	0.02836
1291.84653	0.02833
1289.79272	0.02835
1287.73891	0.02839
1285.68510	0.02837
1283.63129	0.02831
1281.57748	0.02832
1279.52367	0.02843
1277.46986	0.02852
1275.41605	0.02855
1273.36224	0.02860
1271.30843	0.02866
1269.25462	0.02868
1267.20081	0.02877
1265.14700	0.02899
1263.09319	0.02922
1261.03938	0.02936
1258.98557	0.02943
1256.93176	0.02952
1254.87795	0.02967
1252.82414	0.02976
1250.77033	0.02976
1248.71652	0.02980
1246.66271	0.02999
1244.60890	0.03019
1242.55509	0.03027
1240.50128	0.03025
1238.44747	0.03019
1236.39366	0.03015
1234.33985	0.03019
1232.28604	0.03028
1230.23223	0.03031
1228.17842	0.03025
1226.12461	0.03027
1224.07080	0.03040
1222.01699	0.03052
1219.96318	0.03058
1217.90937	0.03066
1215.85556	0.03080
1213.80175	0.03091
1211.74794	0.03097
1209.69413	0.03102
1207.64032	0.03107
1205.58651	0.03103
1203.53270	0.03090
1201.47889	0.03088
1199.42508	0.03092
1197.37127	0.03089
1195.31746	0.03089
1193.26365	0.03102
1191.20984	0.03114
1189.15603	0.03117
1187.10222	0.03119
1185.04841	0.03131
1182.99460	0.03153
1180.94079	0.03179
1178.88698	0.03202
1176.83317	0.03219
1174.77936	0.03231
1172.72555	0.03255
1170.67174	0.03288
1168.61793	0.03308
1166.56412	0.03312
1164.51031	0.03311
1162.45650	0.03317
1160.40269	0.03327
1158.34888	0.03329
1156.29507	0.03320
1154.24126	0.03316
1152.18745	0.03322
1150.13364	0.03331
1148.07983	0.03343
1146.02602	0.03357
1143.97221	0.03375
1141.91840	0.03399
1139.86459	0.03432
1137.81078	0.03475
1135.75697	0.03528
1133.70316	0.03589
1131.64935	0.03655
1129.59554	0.03725
1127.54173	0.03800
1125.48792	0.03882
1123.43411	0.03973
1121.38030	0.04065
1119.32649	0.04144
1117.27268	0.04218
1115.21887	0.04296
1113.16506	0.04373
1111.11125	0.04450
1109.05744	0.04542
1107.00363	0.04645
1104.94982	0.04742
1102.89601	0.04820
1100.84220	0.04890
1098.78839	0.04964
1096.73458	0.05031
1094.68077	0.05093
1092.62696	0.05168
1090.57315	0.05241
1088.51934	0.05299
1086.46553	0.05357
1084.41172	0.05423
1082.35791	0.05479
1080.30410	0.05515
1078.25029	0.05544
1076.19648	0.05570
1074.14267	0.05595
1072.08886	0.05635
1070.03505	0.05686
1067.98124	0.05738
1065.92743	0.05788
1063.87362	0.05839
1061.81981	0.05894
1059.76600	0.05947
1057.71219	0.06005
1055.65838	0.06078
1053.60457	0.06169
1051.55076	0.06276
1049.49695	0.06383
1047.44314	0.06488
1045.38933	0.06593
1043.33552	0.06688
1041.28171	0.06761
1039.22790	0.06802
1037.17409	0.06822
1035.12028	0.06830
1033.06647	0.06821
1031.01265	0.06784
1028.95884	0.06730
1026.90503	0.06683
1024.85122	0.06632
1022.79741	0.06568
1020.74360	0.06506
1018.68979	0.06448
1016.63598	0.06391
1014.58217	0.06336
1012.52836	0.06279
1010.47455	0.06217
1008.42074	0.06141
1006.36693	0.06041
1004.31312	0.05937
1002.25931	0.05836
1000.20550	0.05717
998.15169	0.05586
996.09788	0.05464
994.04407	0.05342
991.99026	0.05202
989.93645	0.05053
987.88264	0.04905
985.82883	0.04752
983.77502	0.04606
981.72121	0.04483
979.66740	0.04373
977.61359	0.04272
975.55978	0.04183
973.50597	0.04096
971.45216	0.04012
969.39835	0.03942
967.34454	0.03877
965.29073	0.03815
963.23692	0.03762
961.18311	0.03712
959.12930	0.03672
957.07549	0.03641
955.02168	0.03614
952.96787	0.03592
950.91406	0.03576
948.86025	0.03571
946.80644	0.03570
944.75263	0.03570
942.69882	0.03571
940.64501	0.03572
938.59120	0.03575
936.53739	0.03578
934.48358	0.03582
932.42977	0.03592
930.37596	0.03606
928.32215	0.03624
926.26834	0.03645
924.21453	0.03675
922.16072	0.03713
920.10691	0.03757
918.05310	0.03804
915.99929	0.03858
913.94548	0.03928
911.89167	0.03999
909.83786	0.04035
907.78405	0.04000
905.73024	0.03899
903.67643	0.03780
901.62262	0.03672
899.56881	0.03568
897.51500	0.03467
895.46119	0.03383
893.40738	0.03323
891.35357	0.03281
889.29976	0.03253
887.24595	0.03242
885.19214	0.03242
883.13833	0.03254
881.08452	0.03289
879.03071	0.03342
876.97690	0.03374
874.92309	0.03349
872.86928	0.03280
870.81547	0.03213
868.76166	0.03181
866.70785	0.03195
864.65404	0.03255
862.60023	0.03347
860.54642	0.03441
858.49261	0.03512
856.43880	0.03531
854.38499	0.03443
852.33118	0.03270
850.27737	0.03120
848.22356	0.03036
846.16975	0.02995
844.11594	0.02970
842.06213	0.02941
840.00832	0.02933
837.95451	0.02966
835.90070	0.03009
833.84689	0.03019
831.79308	0.03005
829.73927	0.03002
827.68546	0.03016
825.63165	0.03028
823.57784	0.03032
821.52403	0.03029
819.47022	0.03011
817.41641	0.02978
815.36260	0.02966
813.30879	0.02979
811.25498	0.03001
809.20117	0.03025
807.14736	0.03046
805.09355	0.03077
803.03974	0.03124
800.98593	0.03149
798.93212	0.03116
796.87831	0.03065
794.82450	0.03051
792.77069	0.03052
790.71688	0.03037
788.66307	0.03017
786.60926	0.03014
784.55545	0.03030
782.50164	0.03045
780.44783	0.03048
778.39402	0.03045
776.34021	0.03028
774.28640	0.02998
772.23259	0.02985
770.17878	0.03008
768.12497	0.03032
766.07116	0.03017
764.01735	0.02997
761.96354	0.03009
759.90973	0.03042
757.85592	0.03072
755.80211	0.03103
753.74830	0.03121
751.69449	0.03108
749.64068	0.03097
747.58687	0.03106
745.53306	0.03118
743.47925	0.03141
741.42544	0.03190
739.37163	0.03310
737.31781	0.03675
735.26400	0.04776
733.21019	0.07284
731.15638	0.10209
729.10257	0.10690
727.04876	0.08815
724.99495	0.07572
722.94114	0.08687
720.88733	0.12164
718.83352	0.15101
716.77971	0.14154
714.72590	0.10956
712.67209	0.08277
710.61828	0.06676
708.56447	0.05796
706.51066	0.05324
704.45685	0.05060
702.40304	0.04899
700.34923	0.04773
698.29542	0.04644
696.24161	0.04538
694.18780	0.04479
692.13399	0.04457
690.08018	0.04461
688.02637	0.04456
685.97256	0.04416
683.91875	0.04389
681.86494	0.04387
679.81113	0.04368
677.75732	0.04339
675.70351	0.04315
673.64970	0.04278
671.59589	0.04231
669.54208	0.04180
667.48827	0.04157
665.43446	0.04162
663.38065	0.04150
661.32684	0.04138
659.27303	0.04140
657.21922	0.04132
655.16541	0.04110
653.11160	0.04110
651.05779	0.04133
649.00398	0.04147
646.95017	0.04162
644.89636	0.04184
642.84255	0.04205
640.78874	0.04224
638.73493	0.04213
636.68112	0.04184
634.62731	0.04186
632.57350	0.04219
630.51969	0.04262
628.46588	0.04294
626.41207	0.04291
624.35826	0.04245
622.30445	0.04205
620.25064	0.04203
618.19683	0.04230
616.14302	0.04270
614.08921	0.04301
612.03540	0.04345
609.98159	0.04387
607.92778	0.04380
605.87397	0.04364
603.82016	0.04374
601.76635	0.04391
599.71254	0.04407
597.65873	0.04434
595.60492	0.04476
593.55111	0.04517
591.49730	0.04559
589.44349	0.04618
587.38968	0.04682
585.33587	0.04746
583.28206	0.04817
581.22825	0.04861
579.17444	0.04895
577.12063	0.04971
575.06682	0.05076
573.01301	0.05151
570.95920	0.05142
568.90539	0.05107
566.85158	0.05157
564.79777	0.05280
562.74396	0.05389
560.69015	0.05457
558.63634	0.05512
556.58253	0.05538
554.52872	0.05534
552.47491	0.05564
550.42110	0.05608
548.36729	0.05615
546.31348	0.05652
544.25967	0.05779
542.20586	0.05920
540.15205	0.05992
538.09824	0.06001
536.04443	0.06000
533.99062	0.06028
531.93681	0.06040
529.88300	0.05981
527.82919	0.05889
525.77538	0.05804
523.72157	0.05735
521.66776	0.05692
519.61395	0.05629
517.56014	0.05505
515.50633	0.05429
513.45252	0.05471
511.39871	0.05469
509.34490	0.05363
507.29109	0.05294
505.23728	0.05289
503.18347	0.05268
501.12966	0.05203
499.07585	0.05092
497.02204	0.04995
494.96823	0.04984
492.91442	0.05046
490.86061	0.05161
488.80680	0.05349
486.75299	0.05546
484.69918	0.05694
482.64537	0.05872
480.59156	0.06109
478.53775	0.06289
476.48394	0.06453
474.43013	0.06661
472.37632	0.06770
470.32251	0.06789
468.26870	0.06837
466.21489	0.06813
464.16108	0.06613
462.10727	0.06357
460.05346	0.06173
457.99965	0.06000
455.94584	0.05804
453.89203	0.05623
451.83822	0.05472
449.78441	0.05398
447.73060	0.05348
445.67679	0.05293
443.62298	0.05317
441.56916	0.05328
439.51535	0.05209
437.46154	0.05157
435.40773	0.05329
433.35392	0.05507
431.30011	0.05523
429.24630	0.05526
427.19249	0.05562
425.13868	0.05441
423.08487	0.05194
421.03106	0.05178
418.97725	0.05429
416.92344	0.05442
414.86963	0.05116
412.81582	0.04802
410.76201	0.04756
408.70820	0.04746
406.65439	0.04569
404.60058	0.04424
402.54677	0.04386
400.49296	0.04344
398.43915	0.04341
