3996.70104	0.95421
3994.64724	0.95445
3992.59344	0.95470
3990.53964	0.95478
3988.48583	0.95512
3986.43203	0.95541
3984.37823	0.95546
3982.32442	0.95546
3980.27062	0.95516
3978.21682	0.95503
3976.16301	0.95536
3974.10921	0.95563
3972.05541	0.95582
3970.00160	0.95588
3967.94780	0.95569
3965.89400	0.95556
3963.84019	0.95528
3961.78639	0.95478
3959.73259	0.95458
3957.67878	0.95458
3955.62498	0.95450
3953.57118	0.95468
3951.51737	0.95501
3949.46357	0.95491
3947.40977	0.95467
3945.35596	0.95497
3943.30216	0.95558
3941.24836	0.95575
3939.19455	0.95577
3937.14075	0.95603
3935.08695	0.95592
3933.03315	0.95548
3930.97934	0.95526
3928.92554	0.95531
3926.87174	0.95548
3924.81793	0.95536
3922.76413	0.95489
3920.71033	0.95479
3918.65652	0.95523
3916.60272	0.95561
3914.54892	0.95554
3912.49511	0.95520
3910.44131	0.95521
3908.38751	0.95576
3906.33370	0.95624
3904.27990	0.95638
3902.22610	0.95635
3900.17229	0.95626
3898.11849	0.95645
3896.06469	0.95659
3894.01088	0.95612
3891.95708	0.95541
3889.90328	0.95538
3887.84947	0.95578
3885.79567	0.95592
3883.74187	0.95572
3881.68807	0.95536
3879.63426	0.95519
3877.58046	0.95538
3875.52666	0.95530
3873.47285	0.95528
3871.41905	0.95577
3869.36525	0.95607
3867.31144	0.95592
3865.25764	0.95553
3863.20384	0.95537
3861.15003	0.95580
3859.09623	0.95624
3857.04243	0.95647
3854.98862	0.95665
3852.93482	0.95629
3850.88102	0.95601
3848.82721	0.95633
3846.77341	0.95669
3844.71961	0.95706
3842.66580	0.95745
3840.61200	0.95766
3838.55820	0.95761
3836.50439	0.95726
3834.45059	0.95681
3832.39679	0.95616
3830.34298	0.95556
3828.28918	0.95534
3826.23538	0.95537
3824.18158	0.95545
3822.12777	0.95527
3820.07397	0.95520
3818.02017	0.95585
3815.96636	0.95657
3813.91256	0.95667
3811.85876	0.95647
3809.80495	0.95653
3807.75115	0.95665
3805.69735	0.95627
3803.64354	0.95587
3801.58974	0.95569
3799.53594	0.95544
3797.48213	0.95541
3795.42833	0.95564
3793.37453	0.95569
3791.32072	0.95544
3789.26692	0.95522
3787.21312	0.95561
3785.15931	0.95690
3783.10551	0.95808
3781.05171	0.95806
3778.99790	0.95730
3776.94410	0.95670
3774.89030	0.95643
3772.83650	0.95660
3770.78269	0.95707
3768.72889	0.95733
3766.67509	0.95747
3764.62128	0.95754
3762.56748	0.95769
3760.51368	0.95826
3758.45987	0.95850
3756.40607	0.95803
3754.35227	0.95777
3752.29846	0.95760
3750.24466	0.95715
3748.19086	0.95723
3746.13705	0.95777
3744.08325	0.95797
3742.02945	0.95766
3739.97564	0.95710
3737.92184	0.95660
3735.86804	0.95676
3733.81423	0.95716
3731.76043	0.95724
3729.70663	0.95747
3727.65282	0.95755
3725.59902	0.95723
3723.54522	0.95700
3721.49141	0.95692
3719.43761	0.95656
3717.38381	0.95582
3715.33001	0.95547
3713.27620	0.95557
3711.22240	0.95451
3709.16860	0.95221
3707.11479	0.95032
3705.06099	0.94881
3703.00719	0.94694
3700.95338	0.94416
3698.89958	0.94189
3696.84578	0.94145
3694.79197	0.94206
3692.73817	0.94252
3690.68437	0.94304
3688.63056	0.94428
3686.57676	0.94550
3684.52296	0.94605
3682.46915	0.94596
3680.41535	0.94553
3678.36155	0.94535
3676.30774	0.94515
3674.25394	0.94451
3672.20014	0.94408
3670.14633	0.94392
3668.09253	0.94349
3666.03873	0.94285
3663.98492	0.94222
3661.93112	0.94158
3659.87732	0.94118
3657.82352	0.94076
3655.76971	0.93960
3653.71591	0.93862
3651.66211	0.93839
3649.60830	0.93793
3647.55450	0.93693
3645.50070	0.93614
3643.44689	0.93543
3641.39309	0.93492
3639.33929	0.93455
3637.28548	0.93382
3635.23168	0.93299
3633.17788	0.93219
3631.12407	0.93101
3629.07027	0.92979
3627.01647	0.92931
3624.96266	0.92912
3622.90886	0.92873
3620.85506	0.92787
3618.80125	0.92700
3616.74745	0.92720
3614.69365	0.92808
3612.63984	0.92916
3610.58604	0.92992
3608.53224	0.92995
3606.47844	0.92995
3604.42463	0.93046
3602.37083	0.93096
3600.31703	0.93085
3598.26322	0.93055
3596.20942	0.93065
3594.15562	0.93082
3592.10181	0.93096
3590.04801	0.93118
3587.99421	0.93096
3585.94040	0.93004
3583.88660	0.92921
3581.83280	0.92883
3579.77899	0.92890
3577.72519	0.92896
3575.67139	0.92876
3573.61758	0.92866
3571.56378	0.92836
3569.50998	0.92747
3567.45617	0.92666
3565.40237	0.92713
3563.34857	0.92793
3561.29476	0.92762
3559.24096	0.92681
3557.18716	0.92672
3555.13335	0.92688
3553.07955	0.92653
3551.02575	0.92604
3548.97195	0.92579
3546.91814	0.92584
3544.86434	0.92591
3542.81054	0.92520
3540.75673	0.92422
3538.70293	0.92385
3536.64913	0.92392
3534.59532	0.92408
3532.54152	0.92400
3530.48772	0.92364
3528.43391	0.92341
3526.38011	0.92344
3524.32631	0.92345
3522.27250	0.92319
3520.21870	0.92292
3518.16490	0.92313
3516.11109	0.92328
3514.05729	0.92288
3512.00349	0.92256
3509.94968	0.92248
3507.89588	0.92212
3505.84208	0.92152
3503.78827	0.92114
3501.73447	0.92131
3499.68067	0.92169
3497.62687	0.92173
3495.57306	0.92138
3493.51926	0.92092
3491.46546	0.92030
3489.41165	0.91967
3487.35785	0.91940
3485.30405	0.91962
3483.25024	0.92001
3481.19644	0.91984
3479.14264	0.91931
3477.08883	0.91926
3475.03503	0.91909
3472.98123	0.91817
3470.92742	0.91749
3468.87362	0.91743
3466.81982	0.91730
3464.76601	0.91687
3462.71221	0.91649
3460.65841	0.91657
3458.60460	0.91665
3456.55080	0.91624
3454.49700	0.91555
3452.44319	0.91486
3450.38939	0.91457
3448.33559	0.91462
3446.28178	0.91436
3444.22798	0.91377
3442.17418	0.91324
3440.12038	0.91328
3438.06657	0.91359
3436.01277	0.91313
3433.95897	0.91227
3431.90516	0.91200
3429.85136	0.91213
3427.79756	0.91176
3425.74375	0.91083
3423.68995	0.91037
3421.63615	0.91050
3419.58234	0.91038
3417.52854	0.91025
3415.47474	0.91050
3413.42093	0.91058
3411.36713	0.91027
3409.31333	0.90973
3407.25952	0.90945
3405.20572	0.90949
3403.15192	0.90949
3401.09811	0.90940
3399.04431	0.90931
3396.99051	0.90929
3394.93670	0.90948
3392.88290	0.91002
3390.82910	0.91033
3388.77529	0.90980
3386.72149	0.90887
3384.66769	0.90834
3382.61389	0.90848
3380.56008	0.90889
3378.50628	0.90894
3376.45248	0.90851
3374.39867	0.90839
3372.34487	0.90886
3370.29107	0.90897
3368.23726	0.90830
3366.18346	0.90768
3364.12966	0.90771
3362.07585	0.90806
3360.02205	0.90846
3357.96825	0.90886
3355.91444	0.90913
3353.86064	0.90893
3351.80684	0.90834
3349.75303	0.90816
3347.69923	0.90886
3345.64543	0.90964
3343.59162	0.91010
3341.53782	0.91021
3339.48402	0.90977
3337.43021	0.90964
3335.37641	0.91016
3333.32261	0.91055
3331.26881	0.91071
3329.21500	0.91062
3327.16120	0.91032
3325.10740	0.91060
3323.05359	0.91116
3320.99979	0.91138
3318.94599	0.91178
3316.89218	0.91238
3314.83838	0.91262
3312.78458	0.91233
3310.73077	0.91204
3308.67697	0.91222
3306.62317	0.91256
3304.56936	0.91261
3302.51556	0.91253
3300.46176	0.91258
3298.40795	0.91265
3296.35415	0.91273
3294.30035	0.91301
3292.24654	0.91340
3290.19274	0.91386
3288.13894	0.91451
3286.08513	0.91473
3284.03133	0.91428
3281.97753	0.91400
3279.92372	0.91422
3277.86992	0.91456
3275.81612	0.91483
3273.76232	0.91521
3271.70851	0.91577
3269.65471	0.91612
3267.60091	0.91570
3265.54710	0.91518
3263.49330	0.91545
3261.43950	0.91618
3259.38569	0.91656
3257.33189	0.91626
3255.27809	0.91599
3253.22428	0.91627
3251.17048	0.91673
3249.11668	0.91695
3247.06287	0.91687
3245.00907	0.91708
3242.95527	0.91799
3240.90146	0.91879
3238.84766	0.91893
3236.79386	0.91897
3234.74005	0.91900
3232.68625	0.91896
3230.63245	0.91921
3228.57864	0.91954
3226.52484	0.91979
3224.47104	0.92022
3222.41724	0.92072
3220.36343	0.92114
3218.30963	0.92161
3216.25583	0.92210
3214.20202	0.92239
3212.14822	0.92235
3210.09442	0.92236
3208.04061	0.92273
3205.98681	0.92344
3203.93301	0.92408
3201.87920	0.92412
3199.82540	0.92378
3197.77160	0.92375
3195.71779	0.92390
3193.66399	0.92395
3191.61019	0.92433
3189.55638	0.92522
3187.50258	0.92599
3185.44878	0.92638
3183.39497	0.92678
3181.34117	0.92741
3179.28737	0.92796
3177.23356	0.92788
3175.17976	0.92752
3173.12596	0.92770
3171.07215	0.92828
3169.01835	0.92877
3166.96455	0.92898
3164.91075	0.92896
3162.85694	0.92928
3160.80314	0.92998
3158.74934	0.93050
3156.69553	0.93073
3154.64173	0.93076
3152.58793	0.93083
3150.53412	0.93125
3148.48032	0.93184
3146.42652	0.93185
3144.37271	0.93139
3142.31891	0.93144
3140.26511	0.93230
3138.21130	0.93359
3136.15750	0.93453
3134.10370	0.93456
3132.04989	0.93422
3129.99609	0.93450
3127.94229	0.93499
3125.88848	0.93510
3123.83468	0.93505
3121.78088	0.93504
3119.72707	0.93527
3117.67327	0.93564
3115.61947	0.93568
3113.56566	0.93541
3111.51186	0.93527
3109.45806	0.93525
3107.40426	0.93497
3105.35045	0.93452
3103.29665	0.93462
3101.24285	0.93518
3099.18904	0.93575
3097.13524	0.93643
3095.08144	0.93668
3093.02763	0.93576
3090.97383	0.93426
3088.92003	0.93304
3086.86622	0.93174
3084.81242	0.93015
3082.75862	0.92933
3080.70481	0.92984
3078.65101	0.93107
3076.59721	0.93208
3074.54340	0.93250
3072.48960	0.93252
3070.43580	0.93220
3068.38199	0.93162
3066.32819	0.93071
3064.27439	0.92934
3062.22058	0.92770
3060.16678	0.92637
3058.11298	0.92628
3056.05918	0.92753
3054.00537	0.92949
3051.95157	0.93172
3049.89777	0.93365
3047.84396	0.93484
3045.79016	0.93555
3043.73636	0.93622
3041.68255	0.93618
3039.62875	0.93502
3037.57495	0.93345
3035.52114	0.93154
3033.46734	0.92861
3031.41354	0.92456
3029.35973	0.91999
3027.30593	0.91593
3025.25213	0.91381
3023.19832	0.91491
3021.14452	0.91894
3019.09072	0.92396
3017.03691	0.92858
3014.98311	0.93245
3012.92931	0.93514
3010.87550	0.93661
3008.82170	0.93739
3006.76790	0.93795
3004.71409	0.93825
3002.66029	0.93824
3000.60649	0.93828
2998.55269	0.93851
2996.49888	0.93914
2994.44508	0.94035
2992.39128	0.94152
2990.33747	0.94209
2988.28367	0.94224
2986.22987	0.94244
2984.17606	0.94286
2982.12226	0.94310
2980.06846	0.94310
2978.01465	0.94311
2975.96085	0.94275
2973.90705	0.94221
2971.85324	0.94195
2969.79944	0.94173
2967.74564	0.94144
2965.69183	0.94093
2963.63803	0.94007
2961.58423	0.93917
2959.53042	0.93862
2957.47662	0.93839
2955.42282	0.93784
2953.36901	0.93693
2951.31521	0.93621
2949.26141	0.93550
2947.20761	0.93425
2945.15380	0.93256
2943.10000	0.93070
2941.04620	0.92845
2938.99239	0.92582
2936.93859	0.92280
2934.88479	0.91925
2932.83098	0.91564
2930.77718	0.91212
2928.72338	0.90863
2926.66957	0.90551
2924.61577	0.90284
2922.56197	0.90033
2920.50816	0.89829
2918.45436	0.89786
2916.40056	0.89936
2914.34675	0.90199
2912.29295	0.90499
2910.23915	0.90803
2908.18534	0.91105
2906.13154	0.91383
2904.07774	0.91634
2902.02393	0.91898
2899.97013	0.92176
2897.91633	0.92415
2895.86252	0.92613
2893.80872	0.92801
2891.75492	0.92954
2889.70112	0.93061
2887.64731	0.93150
2885.59351	0.93238
2883.53971	0.93327
2881.48590	0.93393
2879.43210	0.93425
2877.37830	0.93458
2875.32449	0.93512
2873.27069	0.93564
2871.21689	0.93603
2869.16308	0.93641
2867.10928	0.93683
2865.05548	0.93698
2863.00167	0.93629
2860.94787	0.93486
2858.89407	0.93308
2856.84026	0.93089
2854.78646	0.92841
2852.73266	0.92633
2850.67885	0.92518
2848.62505	0.92524
2846.57125	0.92666
2844.51744	0.92886
2842.46364	0.93146
2840.40984	0.93468
2838.35603	0.93766
2836.30223	0.93963
2834.24843	0.94114
2832.19463	0.94248
2830.14082	0.94347
2828.08702	0.94435
2826.03322	0.94502
2823.97941	0.94534
2821.92561	0.94567
2819.87181	0.94621
2817.81800	0.94680
2815.76420	0.94709
2813.71040	0.94705
2811.65659	0.94711
2809.60279	0.94733
2807.54899	0.94748
2805.49518	0.94766
2803.44138	0.94797
2801.38758	0.94826
2799.33377	0.94868
2797.27997	0.94914
2795.22617	0.94926
2793.17236	0.94911
2791.11856	0.94885
2789.06476	0.94862
2787.01095	0.94871
2784.95715	0.94921
2782.90335	0.94962
2780.84955	0.94941
2778.79574	0.94921
2776.74194	0.94963
2774.68814	0.94996
2772.63433	0.94998
2770.58053	0.95014
2768.52673	0.95032
2766.47292	0.95034
2764.41912	0.95032
2762.36532	0.95032
2760.31151	0.95048
2758.25771	0.95074
2756.20391	0.95104
2754.15010	0.95145
2752.09630	0.95171
2750.04250	0.95162
2747.98869	0.95155
2745.93489	0.95173
2743.88109	0.95193
2741.82728	0.95210
2739.77348	0.95216
2737.71968	0.95185
2735.66587	0.95146
2733.61207	0.95149
2731.55827	0.95186
2729.50446	0.95218
2727.45066	0.95236
2725.39686	0.95257
2723.34306	0.95258
2721.28925	0.95222
2719.23545	0.95197
2717.18165	0.95214
2715.12784	0.95240
2713.07404	0.95242
2711.02024	0.95238
2708.96643	0.95260
2706.91263	0.95276
2704.85883	0.95247
2702.80502	0.95220
2700.75122	0.95232
2698.69742	0.95266
2696.64361	0.95281
2694.58981	0.95264
2692.53601	0.95251
2690.48220	0.95259
2688.42840	0.95280
2686.37460	0.95298
2684.32079	0.95283
2682.26699	0.95247
2680.21319	0.95226
2678.15938	0.95244
2676.10558	0.95285
2674.05178	0.95294
2671.99797	0.95276
2669.94417	0.95283
2667.89037	0.95314
2665.83657	0.95325
2663.78276	0.95312
2661.72896	0.95301
2659.67516	0.95297
2657.62135	0.95294
2655.56755	0.95297
2653.51375	0.95313
2651.45994	0.95322
2649.40614	0.95304
2647.35234	0.95285
2645.29853	0.95280
2643.24473	0.95268
2641.19093	0.95242
2639.13712	0.95230
2637.08332	0.95280
2635.02952	0.95359
2632.97571	0.95355
2630.92191	0.95298
2628.86811	0.95302
2626.81430	0.95338
2624.76050	0.95356
2622.70670	0.95388
2620.65289	0.95421
2618.59909	0.95418
2616.54529	0.95391
2614.49149	0.95364
2612.43768	0.95362
2610.38388	0.95369
2608.33008	0.95350
2606.27627	0.95352
2604.22247	0.95415
2602.16867	0.95494
2600.11486	0.95551
2598.06106	0.95582
2596.00726	0.95598
2593.95345	0.95628
2591.89965	0.95628
2589.84585	0.95557
2587.79204	0.95512
2585.73824	0.95525
2583.68444	0.95530
2581.63063	0.95521
2579.57683	0.95528
2577.52303	0.95548
2575.46922	0.95549
2573.41542	0.95548
2571.36162	0.95585
2569.30781	0.95588
2567.25401	0.95522
2565.20021	0.95479
2563.14640	0.95516
2561.09260	0.95561
2559.03880	0.95547
2556.98500	0.95526
2554.93119	0.95540
2552.87739	0.95566
2550.82359	0.95579
2548.76978	0.95588
2546.71598	0.95620
2544.66218	0.95637
2542.60837	0.95617
2540.55457	0.95607
2538.50077	0.95632
2536.44696	0.95662
2534.39316	0.95650
2532.33936	0.95632
2530.28555	0.95644
2528.23175	0.95659
2526.17795	0.95667
2524.12414	0.95682
2522.07034	0.95662
2520.01654	0.95589
2517.96273	0.95509
2515.90893	0.95493
2513.85513	0.95555
2511.80132	0.95623
2509.74752	0.95658
2507.69372	0.95678
2505.63992	0.95680
2503.58611	0.95662
2501.53231	0.95661
2499.47851	0.95641
2497.42470	0.95560
2495.37090	0.95523
2493.31710	0.95580
2491.26329	0.95674
2489.20949	0.95737
2487.15569	0.95720
2485.10188	0.95672
2483.04808	0.95691
2480.99428	0.95758
2478.94047	0.95781
2476.88667	0.95763
2474.83287	0.95771
2472.77906	0.95784
2470.72526	0.95770
2468.67146	0.95733
2466.61765	0.95689
2464.56385	0.95672
2462.51005	0.95698
2460.45624	0.95735
2458.40244	0.95713
2456.34864	0.95631
2454.29483	0.95585
2452.24103	0.95611
2450.18723	0.95664
2448.13343	0.95715
2446.07962	0.95738
2444.02582	0.95723
2441.97202	0.95674
2439.91821	0.95641
2437.86441	0.95747
2435.81061	0.95943
2433.75680	0.96015
2431.70300	0.95945
2429.64920	0.95905
2427.59539	0.95955
2425.54159	0.95982
2423.48779	0.95926
2421.43398	0.95854
2419.38018	0.95806
2417.32638	0.95792
2415.27257	0.95793
2413.21877	0.95777
2411.16497	0.95780
2409.11116	0.95785
2407.05736	0.95787
2405.00356	0.95779
2402.94975	0.95713
2400.89595	0.95672
2398.84215	0.95719
2396.78834	0.95756
2394.73454	0.95714
2392.68074	0.95686
2390.62694	0.95742
2388.57313	0.95834
2386.51933	0.95887
2384.46553	0.95911
2382.41172	0.95959
2380.35792	0.95969
2378.30412	0.95889
2376.25031	0.95796
2374.19651	0.95758
2372.14271	0.95761
2370.08890	0.95782
2368.03510	0.95838
2365.98130	0.95841
2363.92749	0.95761
2361.87369	0.95765
2359.81989	0.95787
2357.76608	0.95705
2355.71228	0.95635
2353.65848	0.95656
2351.60467	0.95719
2349.55087	0.95779
2347.49707	0.95844
2345.44326	0.95857
2343.38946	0.95806
2341.33566	0.95773
2339.28186	0.95740
2337.22805	0.95721
2335.17425	0.95740
2333.12045	0.95762
2331.06664	0.95783
2329.01284	0.95773
2326.95904	0.95697
2324.90523	0.95631
2322.85143	0.95653
2320.79763	0.95707
2318.74382	0.95691
2316.69002	0.95632
2314.63622	0.95626
2312.58241	0.95695
2310.52861	0.95767
2308.47481	0.95770
2306.42100	0.95742
2304.36720	0.95752
2302.31340	0.95821
2300.25959	0.95884
2298.20579	0.95846
2296.15199	0.95767
2294.09818	0.95733
2292.04438	0.95685
2289.99058	0.95629
2287.93677	0.95643
2285.88297	0.95684
2283.82917	0.95734
2281.77537	0.95840
2279.72156	0.95942
2277.66776	0.95918
2275.61396	0.95830
2273.56015	0.95851
2271.50635	0.95937
2269.45255	0.95958
2267.39874	0.95991
2265.34494	0.96044
2263.29114	0.95981
2261.23733	0.95904
2259.18353	0.95902
2257.12973	0.95853
2255.07592	0.95719
2253.02212	0.95651
2250.96832	0.95707
2248.91451	0.95747
2246.86071	0.95771
2244.80691	0.95809
2242.75310	0.95817
2240.69930	0.95809
2238.64550	0.95799
2236.59169	0.95804
2234.53789	0.95814
2232.48409	0.95799
2230.43029	0.95811
2228.37648	0.95914
2226.32268	0.95952
2224.26888	0.95817
2222.21507	0.95775
2220.16127	0.95893
2218.10747	0.95926
2216.05366	0.95973
2213.99986	0.96183
2211.94606	0.96273
2209.89225	0.96138
2207.83845	0.96021
2205.78465	0.95943
2203.73084	0.95831
2201.67704	0.95770
2199.62324	0.95764
2197.56943	0.95784
2195.51563	0.95892
2193.46183	0.96053
2191.40802	0.96057
2189.35422	0.95906
2187.30042	0.95874
2185.24661	0.95922
2183.19281	0.95875
2181.13901	0.95848
2179.08520	0.95879
2177.03140	0.95909
2174.97760	0.95934
2172.92380	0.95919
2170.86999	0.95871
2168.81619	0.95836
2166.76239	0.95796
2164.70858	0.95893
2162.65478	0.96242
2160.60098	0.96458
2158.54717	0.96375
2156.49337	0.96296
2154.43957	0.96359
2152.38576	0.96410
2150.33196	0.96324
2148.27816	0.96313
2146.22435	0.96422
2144.17055	0.96466
2142.11675	0.96477
2140.06294	0.96462
2138.00914	0.96359
2135.95534	0.96309
2133.90153	0.96447
2131.84773	0.96628
2129.79393	0.96597
2127.74012	0.96358
2125.68632	0.96135
2123.63252	0.96032
2121.57871	0.96041
2119.52491	0.96148
2117.47111	0.96249
2115.41731	0.96222
2113.36350	0.96086
2111.30970	0.95988
2109.25590	0.96051
2107.20209	0.96174
2105.14829	0.96197
2103.09449	0.96255
2101.04068	0.96394
2098.98688	0.96381
2096.93308	0.96267
2094.87927	0.96297
2092.82547	0.96382
2090.77167	0.96351
2088.71786	0.96249
2086.66406	0.96170
2084.61026	0.96150
2082.55645	0.96144
2080.50265	0.96127
2078.44885	0.96149
2076.39504	0.96211
2074.34124	0.96231
2072.28744	0.96238
2070.23363	0.96323
2068.17983	0.96368
2066.12603	0.96295
2064.07223	0.96229
2062.01842	0.96248
2059.96462	0.96354
2057.91082	0.96494
2055.85701	0.96509
2053.80321	0.96369
2051.74941	0.96251
2049.69560	0.96321
2047.64180	0.96518
2045.58800	0.96566
2043.53419	0.96463
2041.48039	0.96377
2039.42659	0.96330
2037.37278	0.96325
2035.31898	0.96348
2033.26518	0.96344
2031.21137	0.96358
2029.15757	0.96351
2027.10377	0.96224
2025.04996	0.96117
2022.99616	0.96190
2020.94236	0.96283
2018.88855	0.96331
2016.83475	0.96503
2014.78095	0.96660
2012.72714	0.96756
2010.67334	0.96765
2008.61954	0.96620
2006.56574	0.96597
2004.51193	0.96534
2002.45813	0.96186
2000.40433	0.95978
1998.35052	0.96199
1996.29672	0.96528
1994.24292	0.96663
1992.18911	0.96706
1990.13531	0.96783
1988.08151	0.96772
1986.02770	0.96634
1983.97390	0.96438
1981.92010	0.96220
1979.86629	0.96176
1977.81249	0.96309
1975.75869	0.96285
1973.70488	0.96082
1971.65108	0.96023
1969.59728	0.96116
1967.54347	0.96190
1965.48967	0.96324
1963.43587	0.96498
1961.38206	0.96628
1959.32826	0.96727
1957.27446	0.96742
1955.22066	0.96644
1953.16685	0.96567
1951.11305	0.96503
1949.05925	0.96320
1947.00544	0.96186
1944.95164	0.96133
1942.89784	0.96020
1940.84403	0.96023
1938.79023	0.96088
1936.73643	0.96101
1934.68262	0.96186
1932.62882	0.96265
1930.57502	0.96270
1928.52121	0.96302
1926.46741	0.96292
1924.41361	0.96214
1922.35980	0.96173
1920.30600	0.96144
1918.25220	0.96131
1916.19839	0.96198
1914.14459	0.96274
1912.09079	0.96276
1910.03698	0.96213
1907.98318	0.96181
1905.92938	0.96185
1903.87557	0.96169
1901.82177	0.96171
1899.76797	0.96227
1897.71417	0.96291
1895.66036	0.96308
1893.60656	0.96258
1891.55276	0.96158
1889.49895	0.96088
1887.44515	0.96088
1885.39135	0.96093
1883.33754	0.96049
1881.28374	0.95945
1879.22994	0.95889
1877.17613	0.95963
1875.12233	0.96071
1873.06853	0.96122
1871.01472	0.96109
1868.96092	0.96047
1866.90712	0.95952
1864.85331	0.95930
1862.79951	0.96037
1860.74571	0.96158
1858.69190	0.96192
1856.63810	0.96183
1854.58430	0.96174
1852.53049	0.96152
1850.47669	0.96179
1848.42289	0.96276
1846.36908	0.96319
1844.31528	0.96283
1842.26148	0.96262
1840.20768	0.96263
1838.15387	0.96250
1836.10007	0.96230
1834.04627	0.96242
1831.99246	0.96282
1829.93866	0.96299
1827.88486	0.96264
1825.83105	0.96214
1823.77725	0.96189
1821.72345	0.96189
1819.66964	0.96170
1817.61584	0.96122
1815.56204	0.96094
1813.50823	0.96083
1811.45443	0.96029
1809.40063	0.95962
1807.34682	0.95949
1805.29302	0.95936
1803.23922	0.95871
1801.18541	0.95811
1799.13161	0.95803
1797.07781	0.95788
1795.02400	0.95768
1792.97020	0.95823
1790.91640	0.95922
1788.86260	0.95973
1786.80879	0.96010
1784.75499	0.96049
1782.70119	0.96070
1780.64738	0.96080
1778.59358	0.96072
1776.53978	0.96037
1774.48597	0.95990
1772.43217	0.95968
1770.37837	0.95999
1768.32456	0.96040
1766.27076	0.96059
1764.21696	0.96075
1762.16315	0.96090
1760.10935	0.96050
1758.05555	0.95946
1756.00174	0.95853
1753.94794	0.95820
1751.89414	0.95770
1749.84033	0.95680
1747.78653	0.95643
1745.73273	0.95638
1743.67892	0.95622
1741.62512	0.95596
1739.57132	0.95546
1737.51751	0.95510
1735.46371	0.95521
1733.40991	0.95541
1731.35611	0.95542
1729.30230	0.95515
1727.24850	0.95466
1725.19470	0.95425
1723.14089	0.95419
1721.08709	0.95465
1719.03329	0.95517
1716.97948	0.95527
1714.92568	0.95550
1712.87188	0.95556
1710.81807	0.95506
1708.76427	0.95461
1706.71047	0.95432
1704.65666	0.95379
1702.60286	0.95311
1700.54906	0.95217
1698.49525	0.95129
1696.44145	0.95054
1694.38765	0.94914
1692.33384	0.94777
1690.28004	0.94661
1688.22624	0.94539
1686.17243	0.94417
1684.11863	0.94271
1682.06483	0.94120
1680.01103	0.93961
1677.95722	0.93810
1675.90342	0.93699
1673.84962	0.93583
1671.79581	0.93435
1669.74201	0.93261
1667.68821	0.93128
1665.63440	0.93071
1663.58060	0.92999
1661.52680	0.92873
1659.47299	0.92776
1657.41919	0.92715
1655.36539	0.92659
1653.31158	0.92627
1651.25778	0.92645
1649.20398	0.92667
1647.15017	0.92666
1645.09637	0.92640
1643.04257	0.92629
1640.98876	0.92630
1638.93496	0.92630
1636.88116	0.92662
1634.82735	0.92728
1632.77355	0.92757
1630.71975	0.92790
1628.66594	0.92846
1626.61214	0.92878
1624.55834	0.92896
1622.50454	0.92950
1620.45073	0.93004
1618.39693	0.93060
1616.34313	0.93159
1614.28932	0.93246
1612.23552	0.93264
1610.18172	0.93175
1608.12791	0.92908
1606.07411	0.92460
1604.02031	0.91913
1601.96650	0.91479
1599.91270	0.91466
1597.85890	0.91866
1595.80509	0.92368
1593.75129	0.92777
1591.69749	0.93071
1589.64368	0.93228
1587.58988	0.93215
1585.53608	0.93059
1583.48227	0.92902
1581.42847	0.92912
1579.37467	0.93084
1577.32086	0.93328
1575.26706	0.93530
1573.21326	0.93606
1571.15945	0.93657
1569.10565	0.93744
1567.05185	0.93826
1564.99805	0.93868
1562.94424	0.93905
1560.89044	0.93967
1558.83664	0.93970
1556.78283	0.93857
1554.72903	0.93763
1552.67523	0.93677
1550.62142	0.93596
1548.56762	0.93518
1546.51382	0.93421
1544.46001	0.93237
1542.40621	0.93000
1540.35241	0.92898
1538.29860	0.92972
1536.24480	0.93040
1534.19100	0.93062
1532.13719	0.93068
1530.08339	0.93089
1528.02959	0.93106
1525.97578	0.93082
1523.92198	0.93028
1521.86818	0.92964
1519.81437	0.92910
1517.76057	0.92857
1515.70677	0.92794
1513.65297	0.92732
1511.59916	0.92664
1509.54536	0.92610
1507.49156	0.92493
1505.43775	0.92242
1503.38395	0.92047
1501.33015	0.91783
1499.27634	0.91148
1497.22254	0.89564
1495.16874	0.87213
1493.11493	0.85673
1491.06113	0.85727
1489.00733	0.87173
1486.95352	0.88512
1484.89972	0.89151
1482.84592	0.89449
1480.79211	0.89580
1478.73831	0.89615
1476.68451	0.89608
1474.63070	0.89551
1472.57690	0.89427
1470.52310	0.89347
1468.46929	0.89316
1466.41549	0.89267
1464.36169	0.89188
1462.30788	0.89075
1460.25408	0.88875
1458.20028	0.88141
1456.14648	0.86135
1454.09267	0.84183
1452.03887	0.83251
1449.98507	0.83357
1447.93126	0.84155
1445.87746	0.84973
1443.82366	0.85571
1441.76985	0.86065
1439.71605	0.86468
1437.66225	0.86794
1435.60844	0.87094
1433.55464	0.87347
1431.50084	0.87545
1429.44703	0.87698
1427.39323	0.87823
1425.33943	0.87931
1423.28562	0.88036
1421.23182	0.88133
1419.17802	0.88220
1417.12421	0.88337
1415.07041	0.88529
1413.01661	0.88802
1410.96280	0.89121
1408.90900	0.89422
1406.85520	0.89722
1404.80139	0.90056
1402.74759	0.90341
1400.69379	0.90574
1398.63999	0.90822
1396.58618	0.91080
1394.53238	0.91316
1392.47858	0.91496
1390.42477	0.91645
1388.37097	0.91765
1386.31717	0.91819
1384.26336	0.91857
1382.20956	0.91919
1380.15576	0.91958
1378.10195	0.91964
1376.04815	0.91986
1373.99435	0.92037
1371.94054	0.92119
1369.88674	0.92227
1367.83294	0.92323
1365.77913	0.92405
1363.72533	0.92517
1361.67153	0.92646
1359.61772	0.92751
1357.56392	0.92866
1355.51012	0.92980
1353.45631	0.93036
1351.40251	0.93073
1349.34871	0.93158
1347.29491	0.93273
1345.24110	0.93366
1343.18730	0.93429
1341.13350	0.93499
1339.07969	0.93559
1337.02589	0.93571
1334.97209	0.93559
1332.91828	0.93550
1330.86448	0.93549
1328.81068	0.93552
1326.75687	0.93552
1324.70307	0.93571
1322.64927	0.93597
1320.59546	0.93612
1318.54166	0.93628
1316.48786	0.93644
1314.43405	0.93639
1312.38025	0.93625
1310.32645	0.93650
1308.27264	0.93722
1306.21884	0.93783
1304.16504	0.93822
1302.11123	0.93858
1300.05743	0.93881
1298.00363	0.93909
1295.94982	0.93951
1293.89602	0.93979
1291.84222	0.93986
1289.78842	0.93967
1287.73461	0.93933
1285.68081	0.93911
1283.62701	0.93900
1281.57320	0.93878
1279.51940	0.93853
1277.46560	0.93816
1275.41179	0.93761
1273.35799	0.93720
1271.30419	0.93716
1269.25038	0.93725
1267.19658	0.93720
1265.14278	0.93706
1263.08897	0.93706
1261.03517	0.93714
1258.98137	0.93719
1256.92756	0.93716
1254.87376	0.93694
1252.81996	0.93642
1250.76615	0.93588
1248.71235	0.93560
1246.65855	0.93537
1244.60474	0.93490
1242.55094	0.93445
1240.49714	0.93429
1238.44334	0.93425
1236.38953	0.93396
1234.33573	0.93318
1232.28193	0.93212
1230.22812	0.93124
1228.17432	0.93065
1226.12052	0.93008
1224.06671	0.92943
1222.01291	0.92856
1219.95911	0.92724
1217.90530	0.92581
1215.85150	0.92413
1213.79770	0.92206
1211.74389	0.92015
1209.69009	0.91851
1207.63629	0.91667
1205.58248	0.91430
1203.52868	0.91160
1201.47488	0.90885
1199.42107	0.90598
1197.36727	0.90293
1195.31347	0.90010
1193.25966	0.89741
1191.20586	0.89441
1189.15206	0.89116
1187.09825	0.88768
1185.04445	0.88377
1182.99065	0.87959
1180.93685	0.87575
1178.88304	0.87294
1176.82924	0.87107
1174.77544	0.86939
1172.72163	0.86719
1170.66783	0.86440
1168.61403	0.86141
1166.56022	0.85854
1164.50642	0.85600
1162.45262	0.85395
1160.39881	0.85211
1158.34501	0.85000
1156.29121	0.84756
1154.23740	0.84514
1152.18360	0.84328
1150.12980	0.84231
1148.07599	0.84179
1146.02219	0.84074
1143.96839	0.83895
1141.91458	0.83708
1139.86078	0.83536
1137.80698	0.83366
1135.75317	0.83195
1133.69937	0.83008
1131.64557	0.82778
1129.59176	0.82464
1127.53796	0.82061
1125.48416	0.81619
1123.43036	0.81168
1121.37655	0.80693
1119.32275	0.80148
1117.26895	0.79523
1115.21514	0.78881
1113.16134	0.78270
1111.10754	0.77726
1109.05373	0.77280
1106.99993	0.76905
1104.94613	0.76523
1102.89232	0.76095
1100.83852	0.75701
1098.78472	0.75390
1096.73091	0.75108
1094.67711	0.74814
1092.62331	0.74535
1090.56950	0.74299
1088.51570	0.74060
1086.46190	0.73792
1084.40809	0.73527
1082.35429	0.73266
1080.30049	0.72996
1078.24668	0.72738
1076.19288	0.72482
1074.13908	0.72170
1072.08528	0.71791
1070.03147	0.71387
1067.97767	0.70989
1065.92387	0.70592
1063.87006	0.70206
1061.81626	0.69861
1059.76246	0.69510
1057.70865	0.69090
1055.65485	0.68595
1053.60105	0.68043
1051.54724	0.67435
1049.49344	0.66753
1047.43964	0.65995
1045.38583	0.65194
1043.33203	0.64350
1041.27823	0.63431
1039.22442	0.62471
1037.17062	0.61504
1035.11682	0.60499
1033.06301	0.59463
1031.00921	0.58465
1028.95541	0.57633
1026.90160	0.57101
1024.84780	0.56830
1022.79400	0.56668
1020.74019	0.56527
1018.68639	0.56362
1016.63259	0.56147
1014.57879	0.55917
1012.52498	0.55688
1010.47118	0.55438
1008.41738	0.55180
1006.36357	0.54956
1004.30977	0.54819
1002.25597	0.54815
1000.20216	0.54943
998.14836	0.55205
996.09456	0.55571
994.04075	0.55979
991.98695	0.56419
989.93315	0.56910
987.87934	0.57443
985.82554	0.57992
983.77174	0.58602
981.71793	0.59341
979.66413	0.60175
977.61033	0.61058
975.55652	0.62018
973.50272	0.63080
971.44892	0.64197
969.39511	0.65264
967.34131	0.66246
965.28751	0.67167
963.23371	0.68050
961.17990	0.68912
959.12610	0.69755
957.07230	0.70558
955.01849	0.71269
952.96469	0.71880
950.91089	0.72422
948.85708	0.72903
946.80328	0.73317
944.74948	0.73662
942.69567	0.73967
940.64187	0.74310
938.58807	0.74728
936.53426	0.75148
934.48046	0.75495
932.42666	0.75807
930.37285	0.76140
928.31905	0.76442
926.26525	0.76669
924.21144	0.76837
922.15764	0.76914
920.10384	0.76891
918.05003	0.76817
915.99623	0.76683
913.94243	0.76470
911.88862	0.76287
909.83482	0.76260
907.78102	0.76463
905.72722	0.76940
903.67341	0.77672
901.61961	0.78586
899.56581	0.79593
897.51200	0.80556
895.45820	0.81360
893.40440	0.82042
891.35059	0.82620
889.29679	0.83064
887.24299	0.83396
885.18918	0.83587
883.13538	0.83519
881.08158	0.83100
879.02777	0.82408
876.97397	0.81695
874.92017	0.81261
872.86636	0.81410
870.81256	0.82324
868.75876	0.83646
866.70495	0.84681
864.65115	0.85243
862.59735	0.85623
860.54354	0.86003
858.48974	0.86370
856.43594	0.86722
854.38213	0.87109
852.32833	0.87449
850.27453	0.87541
848.22073	0.87417
846.16692	0.87290
844.11312	0.87247
842.05932	0.87231
840.00551	0.87179
837.95171	0.87114
835.89791	0.87053
833.84410	0.86958
831.79030	0.86892
829.73650	0.86904
827.68269	0.86919
825.62889	0.86978
823.57509	0.87094
821.52128	0.87151
819.46748	0.87188
817.41368	0.87301
815.35987	0.87399
813.30607	0.87380
811.25227	0.87263
809.19846	0.87017
807.14466	0.86569
805.09086	0.85939
803.03705	0.85236
800.98325	0.84639
798.92945	0.84326
796.87565	0.84324
794.82184	0.84497
792.76804	0.84653
790.71424	0.84685
788.66043	0.84643
786.60663	0.84573
784.55283	0.84387
782.49902	0.84050
780.44522	0.83682
778.39142	0.83322
776.33761	0.82981
774.28381	0.82637
772.23001	0.82124
770.17620	0.81366
768.12240	0.80438
766.06860	0.79442
764.01479	0.78403
761.96099	0.77286
759.90719	0.76181
757.85338	0.75268
755.79958	0.74731
753.74578	0.74602
751.69197	0.74625
749.63817	0.74631
747.58437	0.74844
745.53056	0.75506
743.47676	0.76554
741.42296	0.77820
739.36916	0.79172
737.31535	0.80444
735.26155	0.81515
733.20775	0.82375
731.15394	0.83064
729.10014	0.83610
727.04634	0.84012
724.99253	0.84273
722.93873	0.84452
720.88493	0.84615
718.83112	0.84780
716.77732	0.84832
714.72352	0.84592
712.66971	0.84087
710.61591	0.83255
708.56211	0.81655
706.50830	0.78845
704.45450	0.74569
702.40070	0.68975
700.34689	0.62725
698.29309	0.56888
696.23929	0.53535
694.18548	0.54786
692.13168	0.59875
690.07788	0.65656
688.02408	0.70042
685.97027	0.72862
683.91647	0.74595
681.86267	0.75727
679.80886	0.76502
677.75506	0.76962
675.70126	0.77194
673.64745	0.77405
671.59365	0.77685
669.53985	0.77963
667.48604	0.78253
665.43224	0.78497
663.37844	0.78648
661.32463	0.78753
659.27083	0.78771
657.21703	0.78659
655.16322	0.78453
653.10942	0.78189
651.05562	0.78016
649.00181	0.78093
646.94801	0.78301
644.89421	0.78463
642.84040	0.78656
640.78660	0.78977
638.73280	0.79273
636.67899	0.79389
634.62519	0.79348
632.57139	0.79252
630.51759	0.79233
628.46378	0.79298
626.40998	0.79265
624.35618	0.79067
622.30237	0.78842
620.24857	0.78660
618.19477	0.78506
616.14096	0.78373
614.08716	0.78175
612.03336	0.77830
609.97955	0.77486
607.92575	0.77312
605.87195	0.77152
603.81814	0.76841
601.76434	0.76450
599.71054	0.76083
597.65673	0.75734
595.60293	0.75384
593.54913	0.75119
591.49532	0.74980
589.44152	0.74952
587.38772	0.74935
585.33391	0.74686
583.28011	0.74327
581.22631	0.74188
579.17250	0.74091
577.11870	0.73776
575.06490	0.73368
573.01110	0.72977
570.95729	0.72444
568.90349	0.71763
566.84969	0.71069
564.79588	0.70361
562.74208	0.69718
560.68828	0.69110
558.63447	0.68384
556.58067	0.67592
554.52687	0.66779
552.47306	0.65980
550.41926	0.65225
548.36546	0.64333
546.31165	0.63219
544.25785	0.61972
542.20405	0.60651
540.15024	0.59453
538.09644	0.58525
536.04264	0.57898
533.98883	0.57617
531.93503	0.57510
529.88123	0.57481
527.82742	0.57761
525.77362	0.58436
523.71982	0.59173
521.66602	0.59717
519.61221	0.60271
517.55841	0.61015
515.50461	0.61726
513.45080	0.62225
511.39700	0.62626
509.34320	0.63043
507.28939	0.63510
505.23559	0.64004
503.18179	0.64393
501.12798	0.64602
499.07418	0.64619
497.02038	0.64442
494.96657	0.64189
492.91277	0.63882
490.85897	0.63297
488.80516	0.62287
486.75136	0.61071
484.69756	0.59817
482.64375	0.58374
480.58995	0.56695
478.53615	0.55023
476.48234	0.53651
474.42854	0.52554
472.37474	0.51499
470.32093	0.50599
468.26713	0.50044
466.21333	0.49766
464.15953	0.49814
462.10572	0.50187
460.05192	0.50613
457.99812	0.51078
455.94431	0.51866
453.89051	0.52821
451.83671	0.53704
449.78290	0.54515
447.72910	0.55265
445.67530	0.55739
443.62149	0.55646
441.56769	0.55213
439.51389	0.54937
437.46008	0.54773
435.40628	0.54583
433.35248	0.54562
431.29867	0.54595
429.24487	0.54338
427.19107	0.54002
425.13726	0.53964
423.08346	0.54332
421.02966	0.55116
418.97585	0.55918
416.92205	0.55971
414.86825	0.56008
412.81445	0.56654
410.76064	0.57596
408.70684	0.58507
406.65304	0.59104
404.59923	0.59377
402.54543	0.59699
400.49163	0.59664
398.43782	0.58807
