3996.70104	0.99377
3994.64724	0.99318
3992.59344	0.99270
3990.53964	0.99255
3988.48583	0.99252
3986.43203	0.99227
3984.37823	0.99218
3982.32442	0.99262
3980.27062	0.99283
3978.21682	0.99254
3976.16301	0.99252
3974.10921	0.99299
3972.05541	0.99327
3970.00160	0.99304
3967.94780	0.99284
3965.89400	0.99310
3963.84019	0.99344
3961.78639	0.99323
3959.73259	0.99282
3957.67878	0.99290
3955.62498	0.99326
3953.57118	0.99339
3951.51737	0.99329
3949.46357	0.99309
3947.40977	0.99286
3945.35596	0.99286
3943.30216	0.99304
3941.24836	0.99313
3939.19455	0.99299
3937.14075	0.99289
3935.08695	0.99309
3933.03315	0.99328
3930.97934	0.99331
3928.92554	0.99320
3926.87174	0.99304
3924.81793	0.99290
3922.76413	0.99272
3920.71033	0.99272
3918.65652	0.99312
3916.60272	0.99356
3914.54892	0.99350
3912.49511	0.99303
3910.44131	0.99262
3908.38751	0.99277
3906.33370	0.99345
3904.27990	0.99350
3902.22610	0.99276
3900.17229	0.99311
3898.11849	0.99391
3896.06469	0.99372
3894.01088	0.99337
3891.95708	0.99373
3889.90328	0.99383
3887.84947	0.99340
3885.79567	0.99353
3883.74187	0.99380
3881.68807	0.99358
3879.63426	0.99343
3877.58046	0.99327
3875.52666	0.99318
3873.47285	0.99365
3871.41905	0.99384
3869.36525	0.99314
3867.31144	0.99268
3865.25764	0.99251
3863.20384	0.99246
3861.15003	0.99277
3859.09623	0.99308
3857.04243	0.99321
3854.98862	0.99359
3852.93482	0.99462
3850.88102	0.99481
3848.82721	0.99438
3846.77341	0.99386
3844.71961	0.99340
3842.66580	0.99362
3840.61200	0.99379
3838.55820	0.99283
3836.50439	0.99219
3834.45059	0.99278
3832.39679	0.99359
3830.34298	0.99400
3828.28918	0.99389
3826.23538	0.99374
3824.18158	0.99414
3822.12777	0.99464
3820.07397	0.99447
3818.02017	0.99380
3815.96636	0.99281
3813.91256	0.99210
3811.85876	0.99253
3809.80495	0.99352
3807.75115	0.99390
3805.69735	0.99361
3803.64354	0.99379
3801.58974	0.99437
3799.53594	0.99430
3797.48213	0.99391
3795.42833	0.99399
3793.37453	0.99394
3791.32072	0.99331
3789.26692	0.99295
3787.21312	0.99347
3785.15931	0.99392
3783.10551	0.99358
3781.05171	0.99336
3778.99790	0.99404
3776.94410	0.99488
3774.89030	0.99443
3772.83650	0.99289
3770.78269	0.99202
3768.72889	0.99278
3766.67509	0.99374
3764.62128	0.99374
3762.56748	0.99327
3760.51368	0.99367
3758.45987	0.99487
3756.40607	0.99515
3754.35227	0.99440
3752.29846	0.99363
3750.24466	0.99418
3748.19086	0.99494
3746.13705	0.99482
3744.08325	0.99493
3742.02945	0.99491
3739.97564	0.99459
3737.92184	0.99471
3735.86804	0.99486
3733.81423	0.99420
3731.76043	0.99388
3729.70663	0.99383
3727.65282	0.99355
3725.59902	0.99384
3723.54522	0.99465
3721.49141	0.99494
3719.43761	0.99462
3717.38381	0.99408
3715.33001	0.99358
3713.27620	0.99319
3711.22240	0.99276
3709.16860	0.99306
3707.11479	0.99381
3705.06099	0.99373
3703.00719	0.99307
3700.95338	0.99289
3698.89958	0.99346
3696.84578	0.99420
3694.79197	0.99419
3692.73817	0.99336
3690.68437	0.99293
3688.63056	0.99339
3686.57676	0.99383
3684.52296	0.99391
3682.46915	0.99388
3680.41535	0.99371
3678.36155	0.99322
3676.30774	0.99332
3674.25394	0.99397
3672.20014	0.99300
3670.14633	0.99183
3668.09253	0.99254
3666.03873	0.99373
3663.98492	0.99412
3661.93112	0.99361
3659.87732	0.99278
3657.82352	0.99265
3655.76971	0.99379
3653.71591	0.99510
3651.66211	0.99488
3649.60830	0.99293
3647.55450	0.99222
3645.50070	0.99294
3643.44689	0.99324
3641.39309	0.99338
3639.33929	0.99374
3637.28548	0.99412
3635.23168	0.99407
3633.17788	0.99365
3631.12407	0.99322
3629.07027	0.99291
3627.01647	0.99294
3624.96266	0.99292
3622.90886	0.99274
3620.85506	0.99251
3618.80125	0.99224
3616.74745	0.99214
3614.69365	0.99183
3612.63984	0.99143
3610.58604	0.99135
3608.53224	0.99140
3606.47844	0.99145
3604.42463	0.99109
3602.37083	0.99067
3600.31703	0.99091
3598.26322	0.99180
3596.20942	0.99258
3594.15562	0.99282
3592.10181	0.99278
3590.04801	0.99234
3587.99421	0.99156
3585.94040	0.99132
3583.88660	0.99175
3581.83280	0.99252
3579.77899	0.99315
3577.72519	0.99298
3575.67139	0.99238
3573.61758	0.99207
3571.56378	0.99204
3569.50998	0.99213
3567.45617	0.99244
3565.40237	0.99279
3563.34857	0.99277
3561.29476	0.99275
3559.24096	0.99301
3557.18716	0.99330
3555.13335	0.99316
3553.07955	0.99225
3551.02575	0.99111
3548.97195	0.99059
3546.91814	0.99097
3544.86434	0.99168
3542.81054	0.99180
3540.75673	0.99139
3538.70293	0.99104
3536.64913	0.99100
3534.59532	0.99129
3532.54152	0.99169
3530.48772	0.99170
3528.43391	0.99153
3526.38011	0.99170
3524.32631	0.99183
3522.27250	0.99180
3520.21870	0.99183
3518.16490	0.99146
3516.11109	0.99076
3514.05729	0.99057
3512.00349	0.99083
3509.94968	0.99101
3507.89588	0.99094
3505.84208	0.99058
3503.78827	0.99006
3501.73447	0.98974
3499.68067	0.98985
3497.62687	0.99018
3495.57306	0.99035
3493.51926	0.99018
3491.46546	0.98989
3489.41165	0.98998
3487.35785	0.99044
3485.30405	0.99071
3483.25024	0.99071
3481.19644	0.99096
3479.14264	0.99134
3477.08883	0.99142
3475.03503	0.99138
3472.98123	0.99113
3470.92742	0.99068
3468.87362	0.99045
3466.81982	0.99004
3464.76601	0.98948
3462.71221	0.98950
3460.65841	0.98975
3458.60460	0.98952
3456.55080	0.98930
3454.49700	0.98953
3452.44319	0.98988
3450.38939	0.99016
3448.33559	0.99029
3446.28178	0.99017
3444.22798	0.99003
3442.17418	0.99029
3440.12038	0.99061
3438.06657	0.99042
3436.01277	0.99004
3433.95897	0.98995
3431.90516	0.98993
3429.85136	0.98979
3427.79756	0.98993
3425.74375	0.99042
3423.68995	0.99057
3421.63615	0.99013
3419.58234	0.98963
3417.52854	0.98953
3415.47474	0.98990
3413.42093	0.99031
3411.36713	0.99013
3409.31333	0.98994
3407.25952	0.99042
3405.20572	0.99111
3403.15192	0.99151
3401.09811	0.99135
3399.04431	0.99070
3396.99051	0.99018
3394.93670	0.98973
3392.88290	0.98919
3390.82910	0.98899
3388.77529	0.98929
3386.72149	0.98977
3384.66769	0.98998
3382.61389	0.98968
3380.56008	0.98909
3378.50628	0.98899
3376.45248	0.98944
3374.39867	0.98974
3372.34487	0.98970
3370.29107	0.98932
3368.23726	0.98865
3366.18346	0.98858
3364.12966	0.98941
3362.07585	0.98986
3360.02205	0.98950
3357.96825	0.98935
3355.91444	0.98971
3353.86064	0.99001
3351.80684	0.99015
3349.75303	0.99042
3347.69923	0.99064
3345.64543	0.99067
3343.59162	0.99076
3341.53782	0.99067
3339.48402	0.99018
3337.43021	0.98992
3335.37641	0.98992
3333.32261	0.98964
3331.26881	0.98927
3329.21500	0.98934
3327.16120	0.98980
3325.10740	0.99013
3323.05359	0.99028
3320.99979	0.99042
3318.94599	0.99052
3316.89218	0.99055
3314.83838	0.99023
3312.78458	0.98981
3310.73077	0.98996
3308.67697	0.99022
3306.62317	0.99002
3304.56936	0.98963
3302.51556	0.98928
3300.46176	0.98904
3298.40795	0.98916
3296.35415	0.98969
3294.30035	0.99032
3292.24654	0.99054
3290.19274	0.99030
3288.13894	0.99015
3286.08513	0.99031
3284.03133	0.99053
3281.97753	0.99055
3279.92372	0.99029
3277.86992	0.99026
3275.81612	0.99082
3273.76232	0.99113
3271.70851	0.99098
3269.65471	0.99078
3267.60091	0.99044
3265.54710	0.99030
3263.49330	0.99051
3261.43950	0.99062
3259.38569	0.99054
3257.33189	0.99041
3255.27809	0.99012
3253.22428	0.98977
3251.17048	0.98988
3249.11668	0.99056
3247.06287	0.99116
3245.00907	0.99120
3242.95527	0.99072
3240.90146	0.99014
3238.84766	0.99013
3236.79386	0.99060
3234.74005	0.99088
3232.68625	0.99057
3230.63245	0.99016
3228.57864	0.99029
3226.52484	0.99052
3224.47104	0.99071
3222.41724	0.99110
3220.36343	0.99134
3218.30963	0.99131
3216.25583	0.99131
3214.20202	0.99119
3212.14822	0.99100
3210.09442	0.99105
3208.04061	0.99092
3205.98681	0.99075
3203.93301	0.99104
3201.87920	0.99126
3199.82540	0.99113
3197.77160	0.99091
3195.71779	0.99055
3193.66399	0.99004
3191.61019	0.98968
3189.55638	0.98980
3187.50258	0.99019
3185.44878	0.99034
3183.39497	0.99029
3181.34117	0.99020
3179.28737	0.99003
3177.23356	0.99007
3175.17976	0.99044
3173.12596	0.99063
3171.07215	0.99053
3169.01835	0.99054
3166.96455	0.99083
3164.91075	0.99098
3162.85694	0.99084
3160.80314	0.99058
3158.74934	0.99057
3156.69553	0.99097
3154.64173	0.99125
3152.58793	0.99126
3150.53412	0.99130
3148.48032	0.99133
3146.42652	0.99108
3144.37271	0.99060
3142.31891	0.99027
3140.26511	0.99001
3138.21130	0.98965
3136.15750	0.98947
3134.10370	0.98980
3132.04989	0.99055
3129.99609	0.99116
3127.94229	0.99101
3125.88848	0.99019
3123.83468	0.98943
3121.78088	0.98913
3119.72707	0.98925
3117.67327	0.98942
3115.61947	0.98934
3113.56566	0.98916
3111.51186	0.98904
3109.45806	0.98915
3107.40426	0.98937
3105.35045	0.98914
3103.29665	0.98882
3101.24285	0.98897
3099.18904	0.98925
3097.13524	0.98897
3095.08144	0.98813
3093.02763	0.98761
3090.97383	0.98763
3088.92003	0.98759
3086.86622	0.98731
3084.81242	0.98716
3082.75862	0.98729
3080.70481	0.98730
3078.65101	0.98723
3076.59721	0.98741
3074.54340	0.98763
3072.48960	0.98751
3070.43580	0.98710
3068.38199	0.98701
3066.32819	0.98686
3064.27439	0.98624
3062.22058	0.98587
3060.16678	0.98610
3058.11298	0.98647
3056.05918	0.98655
3054.00537	0.98611
3051.95157	0.98521
3049.89777	0.98434
3047.84396	0.98410
3045.79016	0.98449
3043.73636	0.98487
3041.68255	0.98471
3039.62875	0.98441
3037.57495	0.98438
3035.52114	0.98425
3033.46734	0.98382
3031.41354	0.98343
3029.35973	0.98337
3027.30593	0.98357
3025.25213	0.98340
3023.19832	0.98293
3021.14452	0.98275
3019.09072	0.98258
3017.03691	0.98216
3014.98311	0.98174
3012.92931	0.98152
3010.87550	0.98161
3008.82170	0.98167
3006.76790	0.98144
3004.71409	0.98118
3002.66029	0.98102
3000.60649	0.98061
2998.55269	0.97973
2996.49888	0.97901
2994.44508	0.97875
2992.39128	0.97828
2990.33747	0.97743
2988.28367	0.97661
2986.22987	0.97532
2984.17606	0.97350
2982.12226	0.97190
2980.06846	0.97037
2978.01465	0.96846
2975.96085	0.96613
2973.90705	0.96324
2971.85324	0.95969
2969.79944	0.95563
2967.74564	0.95119
2965.69183	0.94624
2963.63803	0.94120
2961.58423	0.93713
2959.53042	0.93424
2957.47662	0.93121
2955.42282	0.92704
2953.36901	0.92231
2951.31521	0.91773
2949.26141	0.91253
2947.20761	0.90568
2945.15380	0.89662
2943.10000	0.88460
2941.04620	0.86912
2938.99239	0.85024
2936.93859	0.82780
2934.88479	0.80176
2932.83098	0.77207
2930.77718	0.73790
2928.72338	0.69828
2926.66957	0.65213
2924.61577	0.59790
2922.56197	0.53586
2920.50816	0.47005
2918.45436	0.40882
2916.40056	0.36433
2914.34675	0.34769
2912.29295	0.36124
2910.23915	0.39653
2908.18534	0.44121
2906.13154	0.48546
2904.07774	0.52412
2902.02393	0.55625
2899.97013	0.58302
2897.91633	0.60631
2895.86252	0.62771
2893.80872	0.64825
2891.75492	0.66856
2889.70112	0.68903
2887.64731	0.70986
2885.59351	0.73061
2883.53971	0.75093
2881.48590	0.77132
2879.43210	0.79173
2877.37830	0.81074
2875.32449	0.82673
2873.27069	0.83895
2871.21689	0.84679
2869.16308	0.84961
2867.10928	0.84759
2865.05548	0.84061
2863.00167	0.82723
2860.94787	0.80497
2858.89407	0.77046
2856.84026	0.71931
2854.78646	0.64624
2852.73266	0.55104
2850.67885	0.45126
2848.62505	0.38478
2846.57125	0.38309
2844.51744	0.44135
2842.46364	0.52766
2840.40984	0.61311
2838.35603	0.68454
2836.30223	0.74032
2834.24843	0.78321
2832.19463	0.81636
2830.14082	0.84192
2828.08702	0.86174
2826.03322	0.87743
2823.97941	0.88975
2821.92561	0.89960
2819.87181	0.90797
2817.81800	0.91506
2815.76420	0.92103
2813.71040	0.92624
2811.65659	0.93074
2809.60279	0.93446
2807.54899	0.93758
2805.49518	0.94070
2803.44138	0.94399
2801.38758	0.94687
2799.33377	0.94916
2797.27997	0.95115
2795.22617	0.95312
2793.17236	0.95509
2791.11856	0.95716
2789.06476	0.95931
2787.01095	0.96109
2784.95715	0.96246
2782.90335	0.96372
2780.84955	0.96499
2778.79574	0.96631
2776.74194	0.96752
2774.68814	0.96841
2772.63433	0.96911
2770.58053	0.96986
2768.52673	0.97055
2766.47292	0.97097
2764.41912	0.97139
2762.36532	0.97215
2760.31151	0.97302
2758.25771	0.97378
2756.20391	0.97409
2754.15010	0.97386
2752.09630	0.97380
2750.04250	0.97418
2747.98869	0.97444
2745.93489	0.97437
2743.88109	0.97429
2741.82728	0.97432
2739.77348	0.97456
2737.71968	0.97513
2735.66587	0.97553
2733.61207	0.97555
2731.55827	0.97582
2729.50446	0.97626
2727.45066	0.97631
2725.39686	0.97621
2723.34306	0.97648
2721.28925	0.97703
2719.23545	0.97745
2717.18165	0.97764
2715.12784	0.97768
2713.07404	0.97771
2711.02024	0.97783
2708.96643	0.97797
2706.91263	0.97815
2704.85883	0.97853
2702.80502	0.97902
2700.75122	0.97929
2698.69742	0.97938
2696.64361	0.97942
2694.58981	0.97947
2692.53601	0.97974
2690.48220	0.97993
2688.42840	0.97962
2686.37460	0.97935
2684.32079	0.97965
2682.26699	0.98005
2680.21319	0.97995
2678.15938	0.97937
2676.10558	0.97885
2674.05178	0.97878
2671.99797	0.97894
2669.94417	0.97893
2667.89037	0.97858
2665.83657	0.97795
2663.78276	0.97738
2661.72896	0.97715
2659.67516	0.97700
2657.62135	0.97698
2655.56755	0.97740
2653.51375	0.97782
2651.45994	0.97781
2649.40614	0.97772
2647.35234	0.97784
2645.29853	0.97801
2643.24473	0.97788
2641.19093	0.97732
2639.13712	0.97686
2637.08332	0.97670
2635.02952	0.97638
2632.97571	0.97619
2630.92191	0.97660
2628.86811	0.97743
2626.81430	0.97834
2624.76050	0.97923
2622.70670	0.97991
2620.65289	0.98029
2618.59909	0.98045
2616.54529	0.98060
2614.49149	0.98104
2612.43768	0.98145
2610.38388	0.98154
2608.33008	0.98184
2606.27627	0.98220
2604.22247	0.98218
2602.16867	0.98257
2600.11486	0.98390
2598.06106	0.98459
2596.00726	0.98384
2593.95345	0.98333
2591.89965	0.98387
2589.84585	0.98460
2587.79204	0.98494
2585.73824	0.98484
2583.68444	0.98471
2581.63063	0.98494
2579.57683	0.98500
2577.52303	0.98460
2575.46922	0.98438
2573.41542	0.98469
2571.36162	0.98514
2569.30781	0.98567
2567.25401	0.98611
2565.20021	0.98609
2563.14640	0.98624
2561.09260	0.98652
2559.03880	0.98653
2556.98500	0.98669
2554.93119	0.98712
2552.87739	0.98777
2550.82359	0.98829
2548.76978	0.98834
2546.71598	0.98822
2544.66218	0.98818
2542.60837	0.98818
2540.55457	0.98825
2538.50077	0.98831
2536.44696	0.98786
2534.39316	0.98739
2532.33936	0.98775
2530.28555	0.98814
2528.23175	0.98779
2526.17795	0.98745
2524.12414	0.98760
2522.07034	0.98808
2520.01654	0.98875
2517.96273	0.98922
2515.90893	0.98909
2513.85513	0.98864
2511.80132	0.98844
2509.74752	0.98876
2507.69372	0.98933
2505.63992	0.98953
2503.58611	0.98951
2501.53231	0.98965
2499.47851	0.98970
2497.42470	0.98979
2495.37090	0.98998
2493.31710	0.98961
2491.26329	0.98927
2489.20949	0.98972
2487.15569	0.99020
2485.10188	0.99015
2483.04808	0.98968
2480.99428	0.98928
2478.94047	0.98937
2476.88667	0.98978
2474.83287	0.99008
2472.77906	0.99013
2470.72526	0.99025
2468.67146	0.99016
2466.61765	0.98978
2464.56385	0.98988
2462.51005	0.99042
2460.45624	0.99080
2458.40244	0.99058
2456.34864	0.99002
2454.29483	0.99000
2452.24103	0.99044
2450.18723	0.99074
2448.13343	0.99089
2446.07962	0.99110
2444.02582	0.99139
2441.97202	0.99155
2439.91821	0.99122
2437.86441	0.99073
2435.81061	0.99051
2433.75680	0.99049
2431.70300	0.99059
2429.64920	0.99047
2427.59539	0.99000
2425.54159	0.98959
2423.48779	0.98970
2421.43398	0.99020
2419.38018	0.99079
2417.32638	0.99127
2415.27257	0.99136
2413.21877	0.99136
2411.16497	0.99154
2409.11116	0.99169
2407.05736	0.99152
2405.00356	0.99096
2402.94975	0.99050
2400.89595	0.99058
2398.84215	0.99090
2396.78834	0.99100
2394.73454	0.99097
2392.68074	0.99080
2390.62694	0.99071
2388.57313	0.99111
2386.51933	0.99123
2384.46553	0.99070
2382.41172	0.99070
2380.35792	0.99132
2378.30412	0.99116
2376.25031	0.98997
2374.19651	0.98906
2372.14271	0.98863
2370.08890	0.98880
2368.03510	0.98979
2365.98130	0.98961
2363.92749	0.98803
2361.87369	0.98721
2359.81989	0.98775
2357.76608	0.98806
2355.71228	0.98704
2353.65848	0.98573
2351.60467	0.98557
2349.55087	0.98626
2347.49707	0.98652
2345.44326	0.98645
2343.38946	0.98661
2341.33566	0.98612
2339.28186	0.98504
2337.22805	0.98452
2335.17425	0.98491
2333.12045	0.98555
2331.06664	0.98610
2329.01284	0.98657
2326.95904	0.98600
2324.90523	0.98457
2322.85143	0.98368
2320.79763	0.98440
2318.74382	0.98689
2316.69002	0.98916
2314.63622	0.98946
2312.58241	0.98863
2310.52861	0.98797
2308.47481	0.98776
2306.42100	0.98818
2304.36720	0.98891
2302.31340	0.98921
2300.25959	0.98910
2298.20579	0.98885
2296.15199	0.98862
2294.09818	0.98894
2292.04438	0.98936
2289.99058	0.98883
2287.93677	0.98801
2285.88297	0.98796
2283.82917	0.98833
2281.77537	0.98852
2279.72156	0.98864
2277.66776	0.98888
2275.61396	0.98856
2273.56015	0.98812
2271.50635	0.98895
2269.45255	0.99031
2267.39874	0.99115
2265.34494	0.99182
2263.29114	0.99240
2261.23733	0.99244
2259.18353	0.99155
2257.12973	0.98992
2255.07592	0.98919
2253.02212	0.99024
2250.96832	0.99124
2248.91451	0.99179
2246.86071	0.99230
2244.80691	0.99180
2242.75310	0.99058
2240.69930	0.99000
2238.64550	0.99061
2236.59169	0.99127
2234.53789	0.99159
2232.48409	0.99286
2230.43029	0.99438
2228.37648	0.99508
2226.32268	0.99553
2224.26888	0.99489
2222.21507	0.99260
2220.16127	0.99111
2218.10747	0.99191
2216.05366	0.99350
2213.99986	0.99385
2211.94606	0.99274
2209.89225	0.99139
2207.83845	0.99119
2205.78465	0.99247
2203.73084	0.99444
2201.67704	0.99606
2199.62324	0.99621
2197.56943	0.99553
2195.51563	0.99518
2193.46183	0.99512
2191.40802	0.99524
2189.35422	0.99426
2187.30042	0.99246
2185.24661	0.99261
2183.19281	0.99368
2181.13901	0.99272
2179.08520	0.99178
2177.03140	0.99260
2174.97760	0.99381
2172.92380	0.99529
2170.86999	0.99648
2168.81619	0.99648
2166.76239	0.99488
2164.70858	0.99211
2162.65478	0.99074
2160.60098	0.99277
2158.54717	0.99660
2156.49337	0.99799
2154.43957	0.99603
2152.38576	0.99369
2150.33196	0.99304
2148.27816	0.99340
2146.22435	0.99403
2144.17055	0.99461
2142.11675	0.99431
2140.06294	0.99312
2138.00914	0.99181
2135.95534	0.99223
2133.90153	0.99490
2131.84773	0.99663
2129.79393	0.99557
2127.74012	0.99366
2125.68632	0.99301
2123.63252	0.99350
2121.57871	0.99366
2119.52491	0.99324
2117.47111	0.99287
2115.41731	0.99254
2113.36350	0.99261
2111.30970	0.99349
2109.25590	0.99388
2107.20209	0.99312
2105.14829	0.99193
2103.09449	0.99059
2101.04068	0.98994
2098.98688	0.99049
2096.93308	0.99171
2094.87927	0.99345
2092.82547	0.99470
2090.77167	0.99425
2088.71786	0.99259
2086.66406	0.99154
2084.61026	0.99232
2082.55645	0.99386
2080.50265	0.99488
2078.44885	0.99497
2076.39504	0.99401
2074.34124	0.99322
2072.28744	0.99312
2070.23363	0.99342
2068.17983	0.99468
2066.12603	0.99580
2064.07223	0.99509
2062.01842	0.99366
2059.96462	0.99257
2057.91082	0.99149
2055.85701	0.99079
2053.80321	0.99068
2051.74941	0.99135
2049.69560	0.99283
2047.64180	0.99399
2045.58800	0.99388
2043.53419	0.99300
2041.48039	0.99234
2039.42659	0.99154
2037.37278	0.99060
2035.31898	0.98968
2033.26518	0.98854
2031.21137	0.98879
2029.15757	0.99057
2027.10377	0.99271
2025.04996	0.99451
2022.99616	0.99527
2020.94236	0.99410
2018.88855	0.99158
2016.83475	0.98912
2014.78095	0.98752
2012.72714	0.98931
2010.67334	0.99197
2008.61954	0.99075
2006.56574	0.98986
2004.51193	0.99290
2002.45813	0.99575
2000.40433	0.99672
1998.35052	0.99729
1996.29672	0.99644
1994.24292	0.99518
1992.18911	0.99532
1990.13531	0.99509
1988.08151	0.99403
1986.02770	0.99274
1983.97390	0.99027
1981.92010	0.98719
1979.86629	0.98666
1977.81249	0.98926
1975.75869	0.99231
1973.70488	0.99471
1971.65108	0.99551
1969.59728	0.99413
1967.54347	0.99380
1965.48967	0.99580
1963.43587	0.99640
1961.38206	0.99567
1959.32826	0.99587
1957.27446	0.99595
1955.22066	0.99503
1953.16685	0.99354
1951.11305	0.99253
1949.05925	0.99294
1947.00544	0.99363
1944.95164	0.99372
1942.89784	0.99372
1940.84403	0.99329
1938.79023	0.99283
1936.73643	0.99313
1934.68262	0.99365
1932.62882	0.99343
1930.57502	0.99220
1928.52121	0.99129
1926.46741	0.99185
1924.41361	0.99303
1922.35980	0.99407
1920.30600	0.99492
1918.25220	0.99467
1916.19839	0.99297
1914.14459	0.99177
1912.09079	0.99174
1910.03698	0.99175
1907.98318	0.99146
1905.92938	0.99140
1903.87557	0.99128
1901.82177	0.99084
1899.76797	0.99051
1897.71417	0.99011
1895.66036	0.98969
1893.60656	0.98994
1891.55276	0.99039
1889.49895	0.99069
1887.44515	0.99133
1885.39135	0.99207
1883.33754	0.99244
1881.28374	0.99266
1879.22994	0.99268
1877.17613	0.99245
1875.12233	0.99245
1873.06853	0.99254
1871.01472	0.99224
1868.96092	0.99122
1866.90712	0.99044
1864.85331	0.99085
1862.79951	0.99133
1860.74571	0.99145
1858.69190	0.99186
1856.63810	0.99244
1854.58430	0.99283
1852.53049	0.99294
1850.47669	0.99271
1848.42289	0.99254
1846.36908	0.99269
1844.31528	0.99299
1842.26148	0.99304
1840.20768	0.99267
1838.15387	0.99226
1836.10007	0.99203
1834.04627	0.99194
1831.99246	0.99217
1829.93866	0.99226
1827.88486	0.99190
1825.83105	0.99166
1823.77725	0.99149
1821.72345	0.99135
1819.66964	0.99144
1817.61584	0.99157
1815.56204	0.99135
1813.50823	0.99082
1811.45443	0.99008
1809.40063	0.98940
1807.34682	0.98917
1805.29302	0.98920
1803.23922	0.98919
1801.18541	0.98880
1799.13161	0.98803
1797.07781	0.98751
1795.02400	0.98721
1792.97020	0.98667
1790.91640	0.98584
1788.86260	0.98494
1786.80879	0.98425
1784.75499	0.98367
1782.70119	0.98308
1780.64738	0.98268
1778.59358	0.98267
1776.53978	0.98289
1774.48597	0.98257
1772.43217	0.98140
1770.37837	0.98068
1768.32456	0.98072
1766.27076	0.98065
1764.21696	0.98059
1762.16315	0.98072
1760.10935	0.98062
1758.05555	0.98000
1756.00174	0.97918
1753.94794	0.97847
1751.89414	0.97746
1749.84033	0.97587
1747.78653	0.97433
1745.73273	0.97278
1743.67892	0.97084
1741.62512	0.96871
1739.57132	0.96671
1737.51751	0.96534
1735.46371	0.96457
1733.40991	0.96360
1731.35611	0.96173
1729.30230	0.95882
1727.24850	0.95433
1725.19470	0.94795
1723.14089	0.94017
1721.08709	0.93318
1719.03329	0.92736
1716.97948	0.92198
1714.92568	0.91968
1712.87188	0.92069
1710.81807	0.92374
1708.76427	0.92815
1706.71047	0.93388
1704.65666	0.94030
1702.60286	0.94506
1700.54906	0.94889
1698.49525	0.95289
1696.44145	0.95762
1694.38765	0.96269
1692.33384	0.96612
1690.28004	0.96891
1688.22624	0.97121
1686.17243	0.97297
1684.11863	0.97541
1682.06483	0.97717
1680.01103	0.97741
1677.95722	0.97738
1675.90342	0.97771
1673.84962	0.97837
1671.79581	0.97905
1669.74201	0.97984
1667.68821	0.98026
1665.63440	0.98020
1663.58060	0.98019
1661.52680	0.98024
1659.47299	0.98033
1657.41919	0.98024
1655.36539	0.97979
1653.31158	0.97906
1651.25778	0.97877
1649.20398	0.97869
1647.15017	0.97873
1645.09637	0.97906
1643.04257	0.97903
1640.98876	0.97858
1638.93496	0.97818
1636.88116	0.97807
1634.82735	0.97800
1632.77355	0.97783
1630.71975	0.97758
1628.66594	0.97728
1626.61214	0.97709
1624.55834	0.97710
1622.50454	0.97726
1620.45073	0.97733
1618.39693	0.97728
1616.34313	0.97729
1614.28932	0.97714
1612.23552	0.97685
1610.18172	0.97680
1608.12791	0.97684
1606.07411	0.97665
1604.02031	0.97630
1601.96650	0.97591
1599.91270	0.97550
1597.85890	0.97502
1595.80509	0.97469
1593.75129	0.97445
1591.69749	0.97399
1589.64368	0.97329
1587.58988	0.97247
1585.53608	0.97173
1583.48227	0.97103
1581.42847	0.97028
1579.37467	0.96952
1577.32086	0.96878
1575.26706	0.96844
1573.21326	0.96846
1571.15945	0.96850
1569.10565	0.96881
1567.05185	0.96888
1564.99805	0.96844
1562.94424	0.96809
1560.89044	0.96803
1558.83664	0.96778
1556.78283	0.96755
1554.72903	0.96752
1552.67523	0.96749
1550.62142	0.96755
1548.56762	0.96771
1546.51382	0.96806
1544.46001	0.96866
1542.40621	0.96946
1540.35241	0.97063
1538.29860	0.97215
1536.24480	0.97317
1534.19100	0.97433
1532.13719	0.97559
1530.08339	0.97613
1528.02959	0.97645
1525.97578	0.97696
1523.92198	0.97744
1521.86818	0.97739
1519.81437	0.97715
1517.76057	0.97697
1515.70677	0.97691
1513.65297	0.97704
1511.59916	0.97688
1509.54536	0.97630
1507.49156	0.97552
1505.43775	0.97464
1503.38395	0.97377
1501.33015	0.97318
1499.27634	0.97257
1497.22254	0.97148
1495.16874	0.97029
1493.11493	0.96945
1491.06113	0.96829
1489.00733	0.96621
1486.95352	0.96355
1484.89972	0.96049
1482.84592	0.95590
1480.79211	0.94773
1478.73831	0.93083
1476.68451	0.88868
1474.63070	0.80830
1472.57690	0.73224
1470.52310	0.72906
1468.46929	0.75616
1466.41549	0.76546
1464.36169	0.74850
1462.30788	0.74207
1460.25408	0.76860
1458.20028	0.81596
1456.14648	0.85737
1454.09267	0.87461
1452.03887	0.88433
1449.98507	0.89254
1447.93126	0.89929
1445.87746	0.90434
1443.82366	0.90759
1441.76985	0.90979
1439.71605	0.91141
1437.66225	0.91278
1435.60844	0.91480
1433.55464	0.91757
1431.50084	0.92054
1429.44703	0.92330
1427.39323	0.92536
1425.33943	0.92681
1423.28562	0.92805
1421.23182	0.92890
1419.17802	0.92908
1417.12421	0.92854
1415.07041	0.92779
1413.01661	0.92752
1410.96280	0.92827
1408.90900	0.93008
1406.85520	0.93270
1404.80139	0.93602
1402.74759	0.93900
1400.69379	0.94131
1398.63999	0.94350
1396.58618	0.94543
1394.53238	0.94714
1392.47858	0.94840
1390.42477	0.94919
1388.37097	0.94977
1386.31717	0.94938
1384.26336	0.94708
1382.20956	0.94235
1380.15576	0.93548
1378.10195	0.92912
1376.04815	0.92693
1373.99435	0.92997
1371.94054	0.93460
1369.88674	0.93784
1367.83294	0.94024
1365.77913	0.94253
1363.72533	0.94477
1361.67153	0.94661
1359.61772	0.94777
1357.56392	0.94863
1355.51012	0.94953
1353.45631	0.95046
1351.40251	0.95149
1349.34871	0.95282
1347.29491	0.95441
1345.24110	0.95588
1343.18730	0.95694
1341.13350	0.95802
1339.07969	0.95933
1337.02589	0.96047
1334.97209	0.96120
1332.91828	0.96148
1330.86448	0.96132
1328.81068	0.96104
1326.75687	0.96090
1324.70307	0.96067
1322.64927	0.96001
1320.59546	0.95922
1318.54166	0.95874
1316.48786	0.95861
1314.43405	0.95837
1312.38025	0.95771
1310.32645	0.95686
1308.27264	0.95616
1306.21884	0.95567
1304.16504	0.95551
1302.11123	0.95569
1300.05743	0.95585
1298.00363	0.95575
1295.94982	0.95531
1293.89602	0.95492
1291.84222	0.95535
1289.78842	0.95638
1287.73461	0.95711
1285.68081	0.95723
1283.62701	0.95713
1281.57320	0.95712
1279.51940	0.95727
1277.46560	0.95769
1275.41179	0.95814
1273.35799	0.95837
1271.30419	0.95845
1269.25038	0.95833
1267.19658	0.95819
1265.14278	0.95842
1263.08897	0.95871
1261.03517	0.95866
1258.98137	0.95856
1256.92756	0.95860
1254.87376	0.95863
1252.81996	0.95852
1250.76615	0.95817
1248.71235	0.95784
1246.65855	0.95757
1244.60474	0.95707
1242.55094	0.95681
1240.49714	0.95711
1238.44334	0.95744
1236.38953	0.95752
1234.33573	0.95755
1232.28193	0.95778
1230.22812	0.95802
1228.17432	0.95809
1226.12052	0.95822
1224.06671	0.95832
1222.01291	0.95805
1219.95911	0.95745
1217.90530	0.95702
1215.85150	0.95697
1213.79770	0.95698
1211.74389	0.95700
1209.69009	0.95704
1207.63629	0.95682
1205.58248	0.95655
1203.52868	0.95672
1201.47488	0.95699
1199.42107	0.95677
1197.36727	0.95631
1195.31347	0.95592
1193.25966	0.95536
1191.20586	0.95467
1189.15206	0.95426
1187.09825	0.95405
1185.04445	0.95364
1182.99065	0.95320
1180.93685	0.95312
1178.88304	0.95303
1176.82924	0.95261
1174.77544	0.95196
1172.72163	0.95117
1170.66783	0.95049
1168.61403	0.94981
1166.56022	0.94936
1164.50642	0.94952
1162.45262	0.95005
1160.39881	0.95082
1158.34501	0.95179
1156.29121	0.95269
1154.23740	0.95342
1152.18360	0.95408
1150.12980	0.95465
1148.07599	0.95519
1146.02219	0.95597
1143.96839	0.95681
1141.91458	0.95730
1139.86078	0.95750
1137.80698	0.95736
1135.75317	0.95686
1133.69937	0.95638
1131.64557	0.95622
1129.59176	0.95626
1127.53796	0.95636
1125.48416	0.95629
1123.43036	0.95577
1121.37655	0.95511
1119.32275	0.95501
1117.26895	0.95525
1115.21514	0.95492
1113.16134	0.95392
1111.10754	0.95283
1109.05373	0.95231
1106.99993	0.95242
1104.94613	0.95273
1102.89232	0.95311
1100.83852	0.95340
1098.78472	0.95342
1096.73091	0.95309
1094.67711	0.95266
1092.62331	0.95282
1090.56950	0.95317
1088.51570	0.95273
1086.46190	0.95196
1084.40809	0.95159
1082.35429	0.95165
1080.30049	0.95180
1078.24668	0.95166
1076.19288	0.95155
1074.13908	0.95192
1072.08528	0.95237
1070.03147	0.95254
1067.97767	0.95268
1065.92387	0.95245
1063.87006	0.95163
1061.81626	0.95086
1059.76246	0.95041
1057.70865	0.95002
1055.65485	0.94972
1053.60105	0.94916
1051.54724	0.94791
1049.49344	0.94664
1047.43964	0.94620
1045.38583	0.94625
1043.33203	0.94619
1041.27823	0.94651
1039.22442	0.94735
1037.17062	0.94762
1035.11682	0.94707
1033.06301	0.94643
1031.00921	0.94612
1028.95541	0.94570
1026.90160	0.94487
1024.84780	0.94394
1022.79400	0.94316
1020.74019	0.94274
1018.68639	0.94272
1016.63259	0.94316
1014.57879	0.94418
1012.52498	0.94574
1010.47118	0.94724
1008.41738	0.94824
1006.36357	0.94909
1004.30977	0.94972
1002.25597	0.94976
1000.20216	0.94940
998.14836	0.94919
996.09456	0.94988
994.04075	0.95134
991.98695	0.95266
989.93315	0.95340
987.87934	0.95372
985.82554	0.95403
983.77174	0.95401
981.71793	0.95331
979.66413	0.95273
977.61033	0.95229
975.55652	0.95152
973.50272	0.95116
971.44892	0.95185
969.39511	0.95293
967.34131	0.95355
965.28751	0.95382
963.23371	0.95432
961.17990	0.95515
959.12610	0.95588
957.07230	0.95619
955.01849	0.95589
952.96469	0.95534
950.91089	0.95543
948.85708	0.95609
946.80328	0.95657
944.74948	0.95698
942.69567	0.95768
940.64187	0.95828
938.58807	0.95865
936.53426	0.95913
934.48046	0.95940
932.42666	0.95914
930.37285	0.95923
928.31905	0.95997
926.26525	0.96075
924.21144	0.96145
922.15764	0.96176
920.10384	0.96163
918.05003	0.96169
915.99623	0.96207
913.94243	0.96203
911.88862	0.96168
909.83482	0.96158
907.78102	0.96143
905.72722	0.96128
903.67341	0.96182
901.61961	0.96296
899.56581	0.96363
897.51200	0.96381
895.45820	0.96435
893.40440	0.96508
891.35059	0.96523
889.29679	0.96467
887.24299	0.96359
885.18918	0.96196
883.13538	0.95961
881.08158	0.95667
879.02777	0.95381
876.97397	0.95180
874.92017	0.95177
872.86636	0.95493
870.81256	0.95985
868.75876	0.96359
866.70495	0.96588
864.65115	0.96762
862.59735	0.96851
860.54354	0.96884
858.48974	0.96908
856.43594	0.96919
854.38213	0.96952
852.32833	0.96988
850.27453	0.96956
848.22073	0.96873
846.16692	0.96810
844.11312	0.96798
842.05932	0.96791
840.00551	0.96796
837.95171	0.96856
835.89791	0.96915
833.84410	0.96934
831.79030	0.96918
829.73650	0.96891
827.68269	0.96901
825.62889	0.96973
823.57509	0.97062
821.52128	0.97058
819.46748	0.96928
817.41368	0.96844
815.35987	0.96873
813.30607	0.96834
811.25227	0.96740
809.19846	0.96738
807.14466	0.96750
805.09086	0.96706
803.03705	0.96674
800.98325	0.96666
798.92945	0.96666
796.87565	0.96629
794.82184	0.96542
792.76804	0.96505
790.71424	0.96536
788.66043	0.96530
786.60663	0.96445
784.55283	0.96353
782.49902	0.96312
780.44522	0.96337
778.39142	0.96392
776.33761	0.96397
774.28381	0.96361
772.23001	0.96327
770.17620	0.96345
768.12240	0.96413
766.06860	0.96456
764.01479	0.96461
761.96099	0.96467
759.90719	0.96505
757.85338	0.96512
755.79958	0.96420
753.74578	0.96294
751.69197	0.96224
749.63817	0.96158
747.58437	0.96035
745.53056	0.95902
743.47676	0.95774
741.42296	0.95591
739.36916	0.95201
737.31535	0.94289
735.26155	0.92023
733.20775	0.87421
731.15394	0.82416
729.10014	0.81118
727.04634	0.83032
724.99253	0.83716
722.93873	0.80677
720.88493	0.74522
718.83112	0.69449
716.77732	0.69925
714.72352	0.75494
712.66971	0.82473
710.61591	0.87811
708.56211	0.90871
706.50830	0.92468
704.45450	0.93364
702.40070	0.93942
700.34689	0.94366
698.29309	0.94673
696.23929	0.94915
694.18548	0.95149
692.13168	0.95296
690.07788	0.95284
688.02408	0.95220
685.97027	0.95272
683.91647	0.95389
681.86267	0.95431
679.80886	0.95456
677.75506	0.95547
675.70126	0.95627
673.64745	0.95603
671.59365	0.95454
669.53985	0.95301
667.48604	0.95377
665.43224	0.95460
663.37844	0.95486
661.32463	0.95661
659.27083	0.95854
657.21703	0.95865
655.16322	0.95798
653.10942	0.95774
651.05562	0.95804
649.00181	0.95838
646.94801	0.95832
644.89421	0.95803
642.84040	0.95780
640.78660	0.95777
638.73280	0.95755
636.67899	0.95748
634.62519	0.95822
632.57139	0.95912
630.51759	0.95898
628.46378	0.95810
626.40998	0.95777
624.35618	0.95751
622.30237	0.95674
620.24857	0.95598
618.19477	0.95653
616.14096	0.95836
614.08716	0.95893
612.03336	0.95767
609.97955	0.95607
607.92575	0.95575
605.87195	0.95674
603.81814	0.95748
601.76434	0.95764
599.71054	0.95687
597.65673	0.95517
595.60293	0.95437
593.54913	0.95530
591.49532	0.95644
589.44152	0.95607
587.38772	0.95483
585.33391	0.95479
583.28011	0.95571
581.22631	0.95563
579.17250	0.95548
577.11870	0.95594
575.06490	0.95552
573.01110	0.95488
570.95729	0.95498
568.90349	0.95497
566.84969	0.95496
564.79588	0.95528
562.74208	0.95514
560.68828	0.95480
558.63447	0.95475
556.58067	0.95426
554.52687	0.95283
552.47306	0.95108
550.41926	0.95017
548.36546	0.95028
546.31165	0.95037
544.25785	0.95034
542.20405	0.95120
540.15024	0.95260
538.09644	0.95256
536.04264	0.95068
533.98883	0.94903
531.93503	0.94857
529.88123	0.94878
527.82742	0.94823
525.77362	0.94678
523.71982	0.94599
521.66602	0.94598
519.61221	0.94750
517.55841	0.94924
515.50461	0.94880
513.45080	0.94733
511.39700	0.94538
509.34320	0.94438
507.28939	0.94557
505.23559	0.94729
503.18179	0.94811
501.12798	0.94803
499.07418	0.94786
497.02038	0.94809
494.96657	0.94856
492.91277	0.94908
490.85897	0.94895
488.80516	0.94810
486.75136	0.94832
484.69756	0.94892
482.64375	0.94750
480.58995	0.94595
478.53615	0.94595
476.48234	0.94625
474.42854	0.94624
472.37474	0.94462
470.32093	0.93957
468.26713	0.93476
466.21333	0.93425
464.15953	0.93591
462.10572	0.93728
460.05192	0.93787
457.99812	0.93419
455.94431	0.92913
453.89051	0.93084
451.83671	0.93617
449.78290	0.93929
447.72910	0.94007
445.67530	0.93959
443.62149	0.93903
441.56769	0.93977
439.51389	0.94135
437.46008	0.94079
435.40628	0.93774
433.35248	0.93743
431.29867	0.94190
429.24487	0.94815
427.19107	0.95079
425.13726	0.94613
423.08346	0.93705
421.02966	0.93059
418.97585	0.93528
416.92205	0.94320
414.86825	0.94135
412.81445	0.93990
410.76064	0.94319
408.70684	0.94417
406.65304	0.94292
404.59923	0.94511
402.54543	0.94791
400.49163	0.94702
398.43782	0.94252
