3996.70104	0.99866
3994.64724	0.99815
3992.59344	0.99765
3990.53964	0.99762
3988.48583	0.99792
3986.43203	0.99825
3984.37823	0.99806
3982.32442	0.99748
3980.27062	0.99756
3978.21682	0.99836
3976.16301	0.99886
3974.10921	0.99882
3972.05541	0.99890
3970.00160	0.99897
3967.94780	0.99869
3965.89400	0.99837
3963.84019	0.99835
3961.78639	0.99872
3959.73259	0.99939
3957.67878	0.99958
3955.62498	0.99874
3953.57118	0.99769
3951.51737	0.99743
3949.46357	0.99787
3947.40977	0.99836
3945.35596	0.99857
3943.30216	0.99873
3941.24836	0.99873
3939.19455	0.99823
3937.14075	0.99774
3935.08695	0.99793
3933.03315	0.99824
3930.97934	0.99783
3928.92554	0.99735
3926.87174	0.99769
3924.81793	0.99871
3922.76413	0.99930
3920.71033	0.99867
3918.65652	0.99752
3916.60272	0.99691
3914.54892	0.99718
3912.49511	0.99777
3910.44131	0.99809
3908.38751	0.99817
3906.33370	0.99856
3904.27990	0.99917
3902.22610	0.99930
3900.17229	0.99857
3898.11849	0.99807
3896.06469	0.99863
3894.01088	0.99923
3891.95708	0.99956
3889.90328	1.00003
3887.84947	0.99998
3885.79567	0.99926
3883.74187	0.99891
3881.68807	0.99873
3879.63426	0.99830
3877.58046	0.99839
3875.52666	0.99908
3873.47285	0.99959
3871.41905	0.99907
3869.36525	0.99805
3867.31144	0.99761
3865.25764	0.99778
3863.20384	0.99800
3861.15003	0.99805
3859.09623	0.99819
3857.04243	0.99826
3854.98862	0.99793
3852.93482	0.99742
3850.88102	0.99740
3848.82721	0.99780
3846.77341	0.99833
3844.71961	0.99878
3842.66580	0.99857
3840.61200	0.99760
3838.55820	0.99718
3836.50439	0.99782
3834.45059	0.99837
3832.39679	0.99817
3830.34298	0.99783
3828.28918	0.99843
3826.23538	0.99928
3824.18158	0.99911
3822.12777	0.99839
3820.07397	0.99777
3818.02017	0.99715
3815.96636	0.99719
3813.91256	0.99836
3811.85876	0.99935
3809.80495	0.99945
3807.75115	0.99907
3805.69735	0.99888
3803.64354	0.99886
3801.58974	0.99930
3799.53594	1.00016
3797.48213	1.00027
3795.42833	0.99944
3793.37453	0.99842
3791.32072	0.99787
3789.26692	0.99826
3787.21312	0.99916
3785.15931	0.99934
3783.10551	0.99900
3781.05171	0.99897
3778.99790	0.99878
3776.94410	0.99840
3774.89030	0.99831
3772.83650	0.99835
3770.78269	0.99856
3768.72889	0.99894
3766.67509	0.99857
3764.62128	0.99778
3762.56748	0.99757
3760.51368	0.99774
3758.45987	0.99781
3756.40607	0.99764
3754.35227	0.99764
3752.29846	0.99843
3750.24466	0.99972
3748.19086	0.99997
3746.13705	0.99898
3744.08325	0.99809
3742.02945	0.99820
3739.97564	0.99809
3737.92184	0.99724
3735.86804	0.99637
3733.81423	0.99687
3731.76043	0.99771
3729.70663	0.99792
3727.65282	0.99807
3725.59902	0.99868
3723.54522	0.99944
3721.49141	0.99928
3719.43761	0.99849
3717.38381	0.99810
3715.33001	0.99801
3713.27620	0.99789
3711.22240	0.99764
3709.16860	0.99751
3707.11479	0.99770
3705.06099	0.99771
3703.00719	0.99766
3700.95338	0.99774
3698.89958	0.99748
3696.84578	0.99697
3694.79197	0.99654
3692.73817	0.99651
3690.68437	0.99669
3688.63056	0.99677
3686.57676	0.99684
3684.52296	0.99678
3682.46915	0.99676
3680.41535	0.99705
3678.36155	0.99758
3676.30774	0.99817
3674.25394	0.99874
3672.20014	0.99824
3670.14633	0.99691
3668.09253	0.99649
3666.03873	0.99661
3663.98492	0.99652
3661.93112	0.99643
3659.87732	0.99616
3657.82352	0.99561
3655.76971	0.99532
3653.71591	0.99550
3651.66211	0.99524
3649.60830	0.99438
3647.55450	0.99418
3645.50070	0.99473
3643.44689	0.99565
3641.39309	0.99629
3639.33929	0.99591
3637.28548	0.99505
3635.23168	0.99466
3633.17788	0.99475
3631.12407	0.99468
3629.07027	0.99506
3627.01647	0.99618
3624.96266	0.99602
3622.90886	0.99457
3620.85506	0.99322
3618.80125	0.99343
3616.74745	0.99447
3614.69365	0.99461
3612.63984	0.99420
3610.58604	0.99404
3608.53224	0.99419
3606.47844	0.99484
3604.42463	0.99531
3602.37083	0.99495
3600.31703	0.99410
3598.26322	0.99346
3596.20942	0.99356
3594.15562	0.99375
3592.10181	0.99316
3590.04801	0.99252
3587.99421	0.99306
3585.94040	0.99403
3583.88660	0.99374
3581.83280	0.99305
3579.77899	0.99299
3577.72519	0.99322
3575.67139	0.99320
3573.61758	0.99326
3571.56378	0.99371
3569.50998	0.99398
3567.45617	0.99318
3565.40237	0.99217
3563.34857	0.99199
3561.29476	0.99206
3559.24096	0.99216
3557.18716	0.99222
3555.13335	0.99224
3553.07955	0.99226
3551.02575	0.99191
3548.97195	0.99131
3546.91814	0.99111
3544.86434	0.99142
3542.81054	0.99181
3540.75673	0.99177
3538.70293	0.99120
3536.64913	0.99063
3534.59532	0.99044
3532.54152	0.99055
3530.48772	0.99055
3528.43391	0.99053
3526.38011	0.99052
3524.32631	0.99023
3522.27250	0.99009
3520.21870	0.99026
3518.16490	0.99008
3516.11109	0.98952
3514.05729	0.98953
3512.00349	0.98994
3509.94968	0.98989
3507.89588	0.98960
3505.84208	0.98934
3503.78827	0.98903
3501.73447	0.98910
3499.68067	0.98967
3497.62687	0.99003
3495.57306	0.98968
3493.51926	0.98891
3491.46546	0.98857
3489.41165	0.98872
3487.35785	0.98881
3485.30405	0.98893
3483.25024	0.98916
3481.19644	0.98898
3479.14264	0.98848
3477.08883	0.98818
3475.03503	0.98848
3472.98123	0.98934
3470.92742	0.98960
3468.87362	0.98925
3466.81982	0.98925
3464.76601	0.98926
3462.71221	0.98893
3460.65841	0.98870
3458.60460	0.98898
3456.55080	0.98911
3454.49700	0.98845
3452.44319	0.98794
3450.38939	0.98814
3448.33559	0.98824
3446.28178	0.98808
3444.22798	0.98820
3442.17418	0.98840
3440.12038	0.98804
3438.06657	0.98721
3436.01277	0.98681
3433.95897	0.98725
3431.90516	0.98796
3429.85136	0.98819
3427.79756	0.98791
3425.74375	0.98760
3423.68995	0.98750
3421.63615	0.98729
3419.58234	0.98699
3417.52854	0.98693
3415.47474	0.98705
3413.42093	0.98727
3411.36713	0.98748
3409.31333	0.98744
3407.25952	0.98704
3405.20572	0.98658
3403.15192	0.98654
3401.09811	0.98675
3399.04431	0.98680
3396.99051	0.98670
3394.93670	0.98652
3392.88290	0.98640
3390.82910	0.98638
3388.77529	0.98601
3386.72149	0.98568
3384.66769	0.98606
3382.61389	0.98659
3380.56008	0.98687
3378.50628	0.98704
3376.45248	0.98680
3374.39867	0.98630
3372.34487	0.98644
3370.29107	0.98708
3368.23726	0.98728
3366.18346	0.98702
3364.12966	0.98668
3362.07585	0.98631
3360.02205	0.98606
3357.96825	0.98590
3355.91444	0.98578
3353.86064	0.98591
3351.80684	0.98603
3349.75303	0.98577
3347.69923	0.98559
3345.64543	0.98573
3343.59162	0.98586
3341.53782	0.98593
3339.48402	0.98608
3337.43021	0.98641
3335.37641	0.98653
3333.32261	0.98597
3331.26881	0.98545
3329.21500	0.98558
3327.16120	0.98570
3325.10740	0.98547
3323.05359	0.98541
3320.99979	0.98549
3318.94599	0.98548
3316.89218	0.98547
3314.83838	0.98559
3312.78458	0.98583
3310.73077	0.98599
3308.67697	0.98600
3306.62317	0.98593
3304.56936	0.98595
3302.51556	0.98600
3300.46176	0.98603
3298.40795	0.98613
3296.35415	0.98612
3294.30035	0.98597
3292.24654	0.98607
3290.19274	0.98624
3288.13894	0.98589
3286.08513	0.98534
3284.03133	0.98509
3281.97753	0.98507
3279.92372	0.98495
3277.86992	0.98478
3275.81612	0.98481
3273.76232	0.98492
3271.70851	0.98487
3269.65471	0.98455
3267.60091	0.98440
3265.54710	0.98459
3263.49330	0.98465
3261.43950	0.98442
3259.38569	0.98443
3257.33189	0.98489
3255.27809	0.98511
3253.22428	0.98507
3251.17048	0.98507
3249.11668	0.98477
3247.06287	0.98433
3245.00907	0.98402
3242.95527	0.98383
3240.90146	0.98428
3238.84766	0.98495
3236.79386	0.98481
3234.74005	0.98463
3232.68625	0.98511
3230.63245	0.98547
3228.57864	0.98549
3226.52484	0.98558
3224.47104	0.98553
3222.41724	0.98522
3220.36343	0.98503
3218.30963	0.98507
3216.25583	0.98514
3214.20202	0.98489
3212.14822	0.98469
3210.09442	0.98515
3208.04061	0.98566
3205.98681	0.98555
3203.93301	0.98504
3201.87920	0.98478
3199.82540	0.98494
3197.77160	0.98503
3195.71779	0.98509
3193.66399	0.98552
3191.61019	0.98594
3189.55638	0.98607
3187.50258	0.98595
3185.44878	0.98523
3183.39497	0.98472
3181.34117	0.98511
3179.28737	0.98555
3177.23356	0.98570
3175.17976	0.98577
3173.12596	0.98572
3171.07215	0.98582
3169.01835	0.98591
3166.96455	0.98589
3164.91075	0.98605
3162.85694	0.98593
3160.80314	0.98564
3158.74934	0.98575
3156.69553	0.98590
3154.64173	0.98592
3152.58793	0.98613
3150.53412	0.98635
3148.48032	0.98617
3146.42652	0.98586
3144.37271	0.98577
3142.31891	0.98585
3140.26511	0.98586
3138.21130	0.98581
3136.15750	0.98577
3134.10370	0.98570
3132.04989	0.98582
3129.99609	0.98604
3127.94229	0.98642
3125.88848	0.98697
3123.83468	0.98716
3121.78088	0.98684
3119.72707	0.98634
3117.67327	0.98600
3115.61947	0.98619
3113.56566	0.98636
3111.51186	0.98585
3109.45806	0.98539
3107.40426	0.98567
3105.35045	0.98633
3103.29665	0.98688
3101.24285	0.98741
3099.18904	0.98776
3097.13524	0.98744
3095.08144	0.98686
3093.02763	0.98682
3090.97383	0.98713
3088.92003	0.98732
3086.86622	0.98741
3084.81242	0.98711
3082.75862	0.98647
3080.70481	0.98619
3078.65101	0.98653
3076.59721	0.98713
3074.54340	0.98745
3072.48960	0.98743
3070.43580	0.98737
3068.38199	0.98725
3066.32819	0.98704
3064.27439	0.98696
3062.22058	0.98721
3060.16678	0.98746
3058.11298	0.98737
3056.05918	0.98715
3054.00537	0.98689
3051.95157	0.98656
3049.89777	0.98644
3047.84396	0.98651
3045.79016	0.98663
3043.73636	0.98704
3041.68255	0.98753
3039.62875	0.98771
3037.57495	0.98750
3035.52114	0.98700
3033.46734	0.98673
3031.41354	0.98696
3029.35973	0.98722
3027.30593	0.98735
3025.25213	0.98761
3023.19832	0.98789
3021.14452	0.98794
3019.09072	0.98811
3017.03691	0.98848
3014.98311	0.98848
3012.92931	0.98835
3010.87550	0.98843
3008.82170	0.98825
3006.76790	0.98801
3004.71409	0.98803
3002.66029	0.98794
3000.60649	0.98779
2998.55269	0.98805
2996.49888	0.98851
2994.44508	0.98851
2992.39128	0.98798
2990.33747	0.98751
2988.28367	0.98773
2986.22987	0.98829
2984.17606	0.98835
2982.12226	0.98797
2980.06846	0.98788
2978.01465	0.98821
2975.96085	0.98850
2973.90705	0.98846
2971.85324	0.98850
2969.79944	0.98866
2967.74564	0.98869
2965.69183	0.98877
2963.63803	0.98895
2961.58423	0.98907
2959.53042	0.98883
2957.47662	0.98820
2955.42282	0.98771
2953.36901	0.98774
2951.31521	0.98810
2949.26141	0.98839
2947.20761	0.98851
2945.15380	0.98881
2943.10000	0.98912
2941.04620	0.98897
2938.99239	0.98878
2936.93859	0.98897
2934.88479	0.98915
2932.83098	0.98935
2930.77718	0.98987
2928.72338	0.99023
2926.66957	0.99024
2924.61577	0.99038
2922.56197	0.99047
2920.50816	0.99008
2918.45436	0.98975
2916.40056	0.98991
2914.34675	0.99001
2912.29295	0.98975
2910.23915	0.98932
2908.18534	0.98892
2906.13154	0.98897
2904.07774	0.98953
2902.02393	0.99023
2899.97013	0.99063
2897.91633	0.99074
2895.86252	0.99067
2893.80872	0.99057
2891.75492	0.99048
2889.70112	0.99025
2887.64731	0.99000
2885.59351	0.98989
2883.53971	0.98991
2881.48590	0.98994
2879.43210	0.99006
2877.37830	0.99047
2875.32449	0.99100
2873.27069	0.99134
2871.21689	0.99166
2869.16308	0.99201
2867.10928	0.99193
2865.05548	0.99142
2863.00167	0.99103
2860.94787	0.99088
2858.89407	0.99085
2856.84026	0.99114
2854.78646	0.99163
2852.73266	0.99172
2850.67885	0.99148
2848.62505	0.99138
2846.57125	0.99152
2844.51744	0.99164
2842.46364	0.99172
2840.40984	0.99175
2838.35603	0.99163
2836.30223	0.99150
2834.24843	0.99166
2832.19463	0.99191
2830.14082	0.99192
2828.08702	0.99189
2826.03322	0.99176
2823.97941	0.99155
2821.92561	0.99163
2819.87181	0.99179
2817.81800	0.99178
2815.76420	0.99163
2813.71040	0.99140
2811.65659	0.99149
2809.60279	0.99189
2807.54899	0.99233
2805.49518	0.99253
2803.44138	0.99238
2801.38758	0.99229
2799.33377	0.99239
2797.27997	0.99232
2795.22617	0.99220
2793.17236	0.99243
2791.11856	0.99261
2789.06476	0.99232
2787.01095	0.99218
2784.95715	0.99258
2782.90335	0.99305
2780.84955	0.99305
2778.79574	0.99284
2776.74194	0.99299
2774.68814	0.99312
2772.63433	0.99280
2770.58053	0.99254
2768.52673	0.99259
2766.47292	0.99282
2764.41912	0.99300
2762.36532	0.99304
2760.31151	0.99327
2758.25771	0.99375
2756.20391	0.99407
2754.15010	0.99413
2752.09630	0.99407
2750.04250	0.99379
2747.98869	0.99339
2745.93489	0.99315
2743.88109	0.99313
2741.82728	0.99319
2739.77348	0.99312
2737.71968	0.99298
2735.66587	0.99315
2733.61207	0.99372
2731.55827	0.99394
2729.50446	0.99369
2727.45066	0.99356
2725.39686	0.99355
2723.34306	0.99367
2721.28925	0.99384
2719.23545	0.99382
2717.18165	0.99392
2715.12784	0.99405
2713.07404	0.99381
2711.02024	0.99356
2708.96643	0.99375
2706.91263	0.99413
2704.85883	0.99419
2702.80502	0.99404
2700.75122	0.99418
2698.69742	0.99445
2696.64361	0.99450
2694.58981	0.99456
2692.53601	0.99466
2690.48220	0.99440
2688.42840	0.99406
2686.37460	0.99412
2684.32079	0.99456
2682.26699	0.99512
2680.21319	0.99538
2678.15938	0.99524
2676.10558	0.99490
2674.05178	0.99469
2671.99797	0.99484
2669.94417	0.99506
2667.89037	0.99503
2665.83657	0.99500
2663.78276	0.99500
2661.72896	0.99457
2659.67516	0.99410
2657.62135	0.99415
2655.56755	0.99418
2653.51375	0.99382
2651.45994	0.99383
2649.40614	0.99449
2647.35234	0.99496
2645.29853	0.99499
2643.24473	0.99496
2641.19093	0.99476
2639.13712	0.99447
2637.08332	0.99445
2635.02952	0.99462
2632.97571	0.99457
2630.92191	0.99441
2628.86811	0.99443
2626.81430	0.99463
2624.76050	0.99494
2622.70670	0.99527
2620.65289	0.99526
2618.59909	0.99477
2616.54529	0.99421
2614.49149	0.99399
2612.43768	0.99410
2610.38388	0.99425
2608.33008	0.99441
2606.27627	0.99460
2604.22247	0.99444
2602.16867	0.99408
2600.11486	0.99439
2598.06106	0.99538
2596.00726	0.99609
2593.95345	0.99618
2591.89965	0.99605
2589.84585	0.99598
2587.79204	0.99579
2585.73824	0.99524
2583.68444	0.99488
2581.63063	0.99516
2579.57683	0.99553
2577.52303	0.99564
2575.46922	0.99548
2573.41542	0.99483
2571.36162	0.99463
2569.30781	0.99524
2567.25401	0.99543
2565.20021	0.99549
2563.14640	0.99631
2561.09260	0.99687
2559.03880	0.99656
2556.98500	0.99635
2554.93119	0.99641
2552.87739	0.99609
2550.82359	0.99577
2548.76978	0.99578
2546.71598	0.99594
2544.66218	0.99638
2542.60837	0.99679
2540.55457	0.99656
2538.50077	0.99596
2536.44696	0.99592
2534.39316	0.99647
2532.33936	0.99693
2530.28555	0.99673
2528.23175	0.99590
2526.17795	0.99550
2524.12414	0.99588
2522.07034	0.99628
2520.01654	0.99650
2517.96273	0.99688
2515.90893	0.99670
2513.85513	0.99570
2511.80132	0.99549
2509.74752	0.99625
2507.69372	0.99647
2505.63992	0.99591
2503.58611	0.99575
2501.53231	0.99685
2499.47851	0.99811
2497.42470	0.99819
2495.37090	0.99731
2493.31710	0.99637
2491.26329	0.99614
2489.20949	0.99618
2487.15569	0.99596
2485.10188	0.99594
2483.04808	0.99613
2480.99428	0.99616
2478.94047	0.99623
2476.88667	0.99649
2474.83287	0.99670
2472.77906	0.99657
2470.72526	0.99608
2468.67146	0.99573
2466.61765	0.99564
2464.56385	0.99577
2462.51005	0.99628
2460.45624	0.99666
2458.40244	0.99639
2456.34864	0.99579
2454.29483	0.99558
2452.24103	0.99623
2450.18723	0.99691
2448.13343	0.99654
2446.07962	0.99595
2444.02582	0.99578
2441.97202	0.99559
2439.91821	0.99571
2437.86441	0.99646
2435.81061	0.99723
2433.75680	0.99737
2431.70300	0.99701
2429.64920	0.99651
2427.59539	0.99589
2425.54159	0.99552
2423.48779	0.99569
2421.43398	0.99614
2419.38018	0.99683
2417.32638	0.99720
2415.27257	0.99662
2413.21877	0.99584
2411.16497	0.99600
2409.11116	0.99698
2407.05736	0.99760
2405.00356	0.99747
2402.94975	0.99711
2400.89595	0.99689
2398.84215	0.99709
2396.78834	0.99764
2394.73454	0.99800
2392.68074	0.99811
2390.62694	0.99799
2388.57313	0.99739
2386.51933	0.99683
2384.46553	0.99675
2382.41172	0.99682
2380.35792	0.99684
2378.30412	0.99653
2376.25031	0.99606
2374.19651	0.99612
2372.14271	0.99648
2370.08890	0.99652
2368.03510	0.99658
2365.98130	0.99612
2363.92749	0.99522
2361.87369	0.99549
2359.81989	0.99658
2357.76608	0.99728
2355.71228	0.99723
2353.65848	0.99663
2351.60467	0.99616
2349.55087	0.99623
2347.49707	0.99614
2345.44326	0.99504
2343.38946	0.99365
2341.33566	0.99351
2339.28186	0.99424
2337.22805	0.99479
2335.17425	0.99508
2333.12045	0.99543
2331.06664	0.99591
2329.01284	0.99641
2326.95904	0.99662
2324.90523	0.99651
2322.85143	0.99617
2320.79763	0.99553
2318.74382	0.99534
2316.69002	0.99583
2314.63622	0.99599
2312.58241	0.99552
2310.52861	0.99472
2308.47481	0.99433
2306.42100	0.99462
2304.36720	0.99526
2302.31340	0.99603
2300.25959	0.99626
2298.20579	0.99572
2296.15199	0.99498
2294.09818	0.99456
2292.04438	0.99486
2289.99058	0.99593
2287.93677	0.99663
2285.88297	0.99627
2283.82917	0.99595
2281.77537	0.99648
2279.72156	0.99721
2277.66776	0.99759
2275.61396	0.99761
2273.56015	0.99728
2271.50635	0.99710
2269.45255	0.99734
2267.39874	0.99754
2265.34494	0.99777
2263.29114	0.99844
2261.23733	0.99894
2259.18353	0.99880
2257.12973	0.99791
2255.07592	0.99677
2253.02212	0.99732
2250.96832	0.99830
2248.91451	0.99721
2246.86071	0.99573
2244.80691	0.99474
2242.75310	0.99374
2240.69930	0.99394
2238.64550	0.99540
2236.59169	0.99715
2234.53789	0.99874
2232.48409	0.99939
2230.43029	0.99846
2228.37648	0.99677
2226.32268	0.99589
2224.26888	0.99605
2222.21507	0.99671
2220.16127	0.99714
2218.10747	0.99703
2216.05366	0.99748
2213.99986	0.99850
2211.94606	0.99921
2209.89225	0.99923
2207.83845	0.99850
2205.78465	0.99746
2203.73084	0.99614
2201.67704	0.99492
2199.62324	0.99549
2197.56943	0.99644
2195.51563	0.99503
2193.46183	0.99362
2191.40802	0.99451
2189.35422	0.99621
2187.30042	0.99724
2185.24661	0.99703
2183.19281	0.99629
2181.13901	0.99567
2179.08520	0.99535
2177.03140	0.99500
2174.97760	0.99466
2172.92380	0.99580
2170.86999	0.99644
2168.81619	0.99541
2166.76239	0.99528
2164.70858	0.99596
2162.65478	0.99701
2160.60098	0.99878
2158.54717	1.00108
2156.49337	1.00354
2154.43957	1.00504
2152.38576	1.00469
2150.33196	1.00297
2148.27816	1.00094
2146.22435	0.99869
2144.17055	0.99819
2142.11675	1.00020
2140.06294	1.00146
2138.00914	1.00166
2135.95534	1.00171
2133.90153	1.00070
2131.84773	1.00043
2129.79393	1.00085
2127.74012	1.00015
2125.68632	0.99991
2123.63252	1.00045
2121.57871	1.00061
2119.52491	1.00030
2117.47111	0.99934
2115.41731	0.99853
2113.36350	0.99833
2111.30970	0.99799
2109.25590	0.99777
2107.20209	0.99826
2105.14829	0.99913
2103.09449	0.99931
2101.04068	0.99898
2098.98688	0.99889
2096.93308	0.99808
2094.87927	0.99685
2092.82547	0.99635
2090.77167	0.99659
2088.71786	0.99760
2086.66406	0.99813
2084.61026	0.99778
2082.55645	0.99715
2080.50265	0.99637
2078.44885	0.99690
2076.39504	0.99814
2074.34124	0.99735
2072.28744	0.99570
2070.23363	0.99514
2068.17983	0.99439
2066.12603	0.99392
2064.07223	0.99547
2062.01842	0.99724
2059.96462	0.99717
2057.91082	0.99578
2055.85701	0.99476
2053.80321	0.99535
2051.74941	0.99650
2049.69560	0.99787
2047.64180	1.00005
2045.58800	1.00158
2043.53419	1.00132
2041.48039	0.99857
2039.42659	0.99509
2037.37278	0.99354
2035.31898	0.99407
2033.26518	0.99619
2031.21137	0.99776
2029.15757	0.99922
2027.10377	1.00141
2025.04996	1.00051
2022.99616	0.99565
2020.94236	0.99179
2018.88855	0.99237
2016.83475	0.99528
2014.78095	0.99770
2012.72714	0.99928
2010.67334	0.99986
2008.61954	0.99949
2006.56574	0.99963
2004.51193	1.00098
2002.45813	1.00073
2000.40433	0.99839
1998.35052	0.99735
1996.29672	0.99814
1994.24292	0.99894
1992.18911	0.99792
1990.13531	0.99542
1988.08151	0.99443
1986.02770	0.99556
1983.97390	0.99637
1981.92010	0.99492
1979.86629	0.99331
1977.81249	0.99569
1975.75869	0.99937
1973.70488	0.99874
1971.65108	0.99734
1969.59728	0.99802
1967.54347	0.99778
1965.48967	0.99668
1963.43587	0.99768
1961.38206	1.00016
1959.32826	1.00034
1957.27446	0.99956
1955.22066	1.00046
1953.16685	1.00077
1951.11305	0.99963
1949.05925	0.99878
1947.00544	0.99843
1944.95164	0.99763
1942.89784	0.99703
1940.84403	0.99761
1938.79023	0.99893
1936.73643	0.99964
1934.68262	0.99874
1932.62882	0.99813
1930.57502	0.99889
1928.52121	0.99920
1926.46741	0.99883
1924.41361	0.99861
1922.35980	0.99809
1920.30600	0.99784
1918.25220	0.99906
1916.19839	1.00003
1914.14459	0.99945
1912.09079	0.99903
1910.03698	0.99987
1907.98318	1.00096
1905.92938	1.00054
1903.87557	0.99900
1901.82177	0.99810
1899.76797	0.99798
1897.71417	0.99800
1895.66036	0.99828
1893.60656	0.99867
1891.55276	0.99816
1889.49895	0.99708
1887.44515	0.99716
1885.39135	0.99814
1883.33754	0.99855
1881.28374	0.99812
1879.22994	0.99778
1877.17613	0.99834
1875.12233	0.99919
1873.06853	0.99935
1871.01472	0.99907
1868.96092	0.99831
1866.90712	0.99703
1864.85331	0.99684
1862.79951	0.99795
1860.74571	0.99828
1858.69190	0.99727
1856.63810	0.99686
1854.58430	0.99766
1852.53049	0.99851
1850.47669	0.99871
1848.42289	0.99855
1846.36908	0.99857
1844.31528	0.99897
1842.26148	0.99929
1840.20768	0.99939
1838.15387	0.99901
1836.10007	0.99809
1834.04627	0.99775
1831.99246	0.99791
1829.93866	0.99727
1827.88486	0.99634
1825.83105	0.99627
1823.77725	0.99668
1821.72345	0.99718
1819.66964	0.99788
1817.61584	0.99868
1815.56204	0.99884
1813.50823	0.99809
1811.45443	0.99727
1809.40063	0.99700
1807.34682	0.99714
1805.29302	0.99743
1803.23922	0.99775
1801.18541	0.99808
1799.13161	0.99836
1797.07781	0.99833
1795.02400	0.99784
1792.97020	0.99707
1790.91640	0.99668
1788.86260	0.99706
1786.80879	0.99740
1784.75499	0.99725
1782.70119	0.99706
1780.64738	0.99734
1778.59358	0.99764
1776.53978	0.99759
1774.48597	0.99769
1772.43217	0.99796
1770.37837	0.99770
1768.32456	0.99727
1766.27076	0.99718
1764.21696	0.99717
1762.16315	0.99707
1760.10935	0.99686
1758.05555	0.99670
1756.00174	0.99675
1753.94794	0.99681
1751.89414	0.99689
1749.84033	0.99709
1747.78653	0.99695
1745.73273	0.99632
1743.67892	0.99592
1741.62512	0.99621
1739.57132	0.99658
1737.51751	0.99642
1735.46371	0.99612
1733.40991	0.99623
1731.35611	0.99653
1729.30230	0.99664
1727.24850	0.99647
1725.19470	0.99606
1723.14089	0.99578
1721.08709	0.99576
1719.03329	0.99555
1716.97948	0.99488
1714.92568	0.99458
1712.87188	0.99493
1710.81807	0.99521
1708.76427	0.99520
1706.71047	0.99514
1704.65666	0.99489
1702.60286	0.99444
1700.54906	0.99405
1698.49525	0.99368
1696.44145	0.99319
1694.38765	0.99265
1692.33384	0.99221
1690.28004	0.99172
1688.22624	0.99136
1686.17243	0.99131
1684.11863	0.99100
1682.06483	0.99066
1680.01103	0.99060
1677.95722	0.99031
1675.90342	0.98990
1673.84962	0.98975
1671.79581	0.98967
1669.74201	0.98922
1667.68821	0.98862
1665.63440	0.98830
1663.58060	0.98805
1661.52680	0.98766
1659.47299	0.98712
1657.41919	0.98653
1655.36539	0.98616
1653.31158	0.98602
1651.25778	0.98548
1649.20398	0.98470
1647.15017	0.98402
1645.09637	0.98381
1643.04257	0.98367
1640.98876	0.98345
1638.93496	0.98350
1636.88116	0.98366
1634.82735	0.98336
1632.77355	0.98290
1630.71975	0.98262
1628.66594	0.98265
1626.61214	0.98288
1624.55834	0.98268
1622.50454	0.98222
1620.45073	0.98211
1618.39693	0.98205
1616.34313	0.98175
1614.28932	0.98146
1612.23552	0.98125
1610.18172	0.98094
1608.12791	0.98075
1606.07411	0.98088
1604.02031	0.98086
1601.96650	0.98059
1599.91270	0.98044
1597.85890	0.98044
1595.80509	0.98059
1593.75129	0.98059
1591.69749	0.98045
1589.64368	0.98075
1587.58988	0.98148
1585.53608	0.98199
1583.48227	0.98221
1581.42847	0.98244
1579.37467	0.98268
1577.32086	0.98324
1575.26706	0.98447
1573.21326	0.98540
1571.15945	0.98576
1569.10565	0.98571
1567.05185	0.98552
1564.99805	0.98579
1562.94424	0.98633
1560.89044	0.98656
1558.83664	0.98653
1556.78283	0.98696
1554.72903	0.98746
1552.67523	0.98765
1550.62142	0.98759
1548.56762	0.98748
1546.51382	0.98728
1544.46001	0.98667
1542.40621	0.98579
1540.35241	0.98577
1538.29860	0.98684
1536.24480	0.98766
1534.19100	0.98812
1532.13719	0.98828
1530.08339	0.98824
1528.02959	0.98831
1525.97578	0.98865
1523.92198	0.98891
1521.86818	0.98883
1519.81437	0.98870
1517.76057	0.98878
1515.70677	0.98899
1513.65297	0.98921
1511.59916	0.98922
1509.54536	0.98875
1507.49156	0.98817
1505.43775	0.98871
1503.38395	0.98949
1501.33015	0.98976
1499.27634	0.98954
1497.22254	0.98932
1495.16874	0.98984
1493.11493	0.99042
1491.06113	0.99063
1489.00733	0.99086
1486.95352	0.99110
1484.89972	0.99101
1482.84592	0.99082
1480.79211	0.99067
1478.73831	0.99042
1476.68451	0.99028
1474.63070	0.99079
1472.57690	0.99124
1470.52310	0.99072
1468.46929	0.99013
1466.41549	0.98981
1464.36169	0.98992
1462.30788	0.99019
1460.25408	0.99007
1458.20028	0.98984
1456.14648	0.99000
1454.09267	0.98996
1452.03887	0.98955
1449.98507	0.98895
1447.93126	0.98851
1445.87746	0.98856
1443.82366	0.98872
1441.76985	0.98855
1439.71605	0.98791
1437.66225	0.98715
1435.60844	0.98675
1433.55464	0.98663
1431.50084	0.98669
1429.44703	0.98708
1427.39323	0.98749
1425.33943	0.98765
1423.28562	0.98783
1421.23182	0.98790
1419.17802	0.98762
1417.12421	0.98771
1415.07041	0.98825
1413.01661	0.98882
1410.96280	0.98936
1408.90900	0.98956
1406.85520	0.98946
1404.80139	0.98962
1402.74759	0.98995
1400.69379	0.99010
1398.63999	0.99012
1396.58618	0.99005
1394.53238	0.99014
1392.47858	0.99064
1390.42477	0.99117
1388.37097	0.99109
1386.31717	0.99046
1384.26336	0.99012
1382.20956	0.99029
1380.15576	0.99052
1378.10195	0.99056
1376.04815	0.99080
1373.99435	0.99109
1371.94054	0.99115
1369.88674	0.99133
1367.83294	0.99157
1365.77913	0.99168
1363.72533	0.99177
1361.67153	0.99189
1359.61772	0.99186
1357.56392	0.99165
1355.51012	0.99166
1353.45631	0.99188
1351.40251	0.99213
1349.34871	0.99223
1347.29491	0.99209
1345.24110	0.99210
1343.18730	0.99240
1341.13350	0.99241
1339.07969	0.99200
1337.02589	0.99182
1334.97209	0.99205
1332.91828	0.99229
1330.86448	0.99251
1328.81068	0.99289
1326.75687	0.99322
1324.70307	0.99309
1322.64927	0.99274
1320.59546	0.99279
1318.54166	0.99310
1316.48786	0.99319
1314.43405	0.99310
1312.38025	0.99319
1310.32645	0.99343
1308.27264	0.99343
1306.21884	0.99313
1304.16504	0.99283
1302.11123	0.99278
1300.05743	0.99298
1298.00363	0.99316
1295.94982	0.99322
1293.89602	0.99318
1291.84222	0.99299
1289.78842	0.99278
1287.73461	0.99272
1285.68081	0.99286
1283.62701	0.99323
1281.57320	0.99359
1279.51940	0.99365
1277.46560	0.99347
1275.41179	0.99331
1273.35799	0.99334
1271.30419	0.99340
1269.25038	0.99332
1267.19658	0.99335
1265.14278	0.99365
1263.08897	0.99392
1261.03517	0.99374
1258.98137	0.99324
1256.92756	0.99307
1254.87376	0.99336
1252.81996	0.99363
1250.76615	0.99360
1248.71235	0.99333
1246.65855	0.99297
1244.60474	0.99278
1242.55094	0.99283
1240.49714	0.99281
1238.44334	0.99265
1236.38953	0.99270
1234.33573	0.99299
1232.28193	0.99309
1230.22812	0.99272
1228.17432	0.99217
1226.12052	0.99204
1224.06671	0.99222
1222.01291	0.99200
1219.95911	0.99129
1217.90530	0.99076
1215.85150	0.99056
1213.79770	0.99032
1211.74389	0.99009
1209.69009	0.98990
1207.63629	0.98957
1205.58248	0.98913
1203.52868	0.98868
1201.47488	0.98815
1199.42107	0.98752
1197.36727	0.98696
1195.31347	0.98639
1193.25966	0.98555
1191.20586	0.98470
1189.15206	0.98433
1187.09825	0.98384
1185.04445	0.98271
1182.99065	0.98186
1180.93685	0.98154
1178.88304	0.98112
1176.82924	0.98061
1174.77544	0.98008
1172.72163	0.97938
1170.66783	0.97861
1168.61403	0.97785
1166.56022	0.97701
1164.50642	0.97604
1162.45262	0.97499
1160.39881	0.97419
1158.34501	0.97356
1156.29121	0.97283
1154.23740	0.97205
1152.18360	0.97112
1150.12980	0.97016
1148.07599	0.96925
1146.02219	0.96835
1143.96839	0.96770
1141.91458	0.96707
1139.86078	0.96604
1137.80698	0.96490
1135.75317	0.96418
1133.69937	0.96361
1131.64557	0.96274
1129.59176	0.96189
1127.53796	0.96121
1125.48416	0.96040
1123.43036	0.95954
1121.37655	0.95894
1119.32275	0.95844
1117.26895	0.95750
1115.21514	0.95635
1113.16134	0.95561
1111.10754	0.95495
1109.05373	0.95371
1106.99993	0.95215
1104.94613	0.95083
1102.89232	0.94981
1100.83852	0.94928
1098.78472	0.94907
1096.73091	0.94817
1094.67711	0.94691
1092.62331	0.94624
1090.56950	0.94571
1088.51570	0.94514
1086.46190	0.94487
1084.40809	0.94489
1082.35429	0.94509
1080.30049	0.94510
1078.24668	0.94460
1076.19288	0.94381
1074.13908	0.94323
1072.08528	0.94316
1070.03147	0.94361
1067.97767	0.94436
1065.92387	0.94493
1063.87006	0.94510
1061.81626	0.94528
1059.76246	0.94572
1057.70865	0.94611
1055.65485	0.94620
1053.60105	0.94610
1051.54724	0.94601
1049.49344	0.94593
1047.43964	0.94579
1045.38583	0.94578
1043.33203	0.94610
1041.27823	0.94654
1039.22442	0.94668
1037.17062	0.94649
1035.11682	0.94618
1033.06301	0.94557
1031.00921	0.94477
1028.95541	0.94438
1026.90160	0.94415
1024.84780	0.94361
1022.79400	0.94287
1020.74019	0.94225
1018.68639	0.94143
1016.63259	0.94017
1014.57879	0.93855
1012.52498	0.93675
1010.47118	0.93527
1008.41738	0.93399
1006.36357	0.93259
1004.30977	0.93145
1002.25597	0.93037
1000.20216	0.92896
998.14836	0.92766
996.09456	0.92663
994.04075	0.92551
991.98695	0.92429
989.93315	0.92323
987.87934	0.92255
985.82554	0.92233
983.77174	0.92211
981.71793	0.92175
979.66413	0.92165
977.61033	0.92186
975.55652	0.92230
973.50272	0.92272
971.44892	0.92332
969.39511	0.92485
967.34131	0.92721
965.28751	0.92993
963.23371	0.93269
961.17990	0.93491
959.12610	0.93692
957.07230	0.93934
955.01849	0.94168
952.96469	0.94353
950.91089	0.94520
948.85708	0.94678
946.80328	0.94825
944.74948	0.94954
942.69567	0.95086
940.64187	0.95248
938.58807	0.95421
936.53426	0.95586
934.48046	0.95739
932.42666	0.95858
930.37285	0.95956
928.31905	0.96060
926.26525	0.96139
924.21144	0.96187
922.15764	0.96224
920.10384	0.96231
918.05003	0.96236
915.99623	0.96281
913.94243	0.96327
911.88862	0.96335
909.83482	0.96289
907.78102	0.96229
905.72722	0.96212
903.67341	0.96180
901.61961	0.96133
899.56581	0.96128
897.51200	0.96132
895.45820	0.96133
893.40440	0.96165
891.35059	0.96208
889.29679	0.96286
887.24299	0.96417
885.18918	0.96515
883.13538	0.96557
881.08158	0.96599
879.02777	0.96629
876.97397	0.96619
874.92017	0.96613
872.86636	0.96645
870.81256	0.96680
868.75876	0.96716
866.70495	0.96790
864.65115	0.96857
862.59735	0.96819
860.54354	0.96730
858.48974	0.96684
856.43594	0.96670
854.38213	0.96687
852.32833	0.96692
850.27453	0.96638
848.22073	0.96545
846.16692	0.96440
844.11312	0.96360
842.05932	0.96309
840.00551	0.96279
837.95171	0.96278
835.89791	0.96245
833.84410	0.96157
831.79030	0.96117
829.73650	0.96164
827.68269	0.96182
825.62889	0.96144
823.57509	0.96128
821.52128	0.96121
819.46748	0.96067
817.41368	0.95925
815.35987	0.95761
813.30607	0.95661
811.25227	0.95653
809.19846	0.95718
807.14466	0.95737
805.09086	0.95635
803.03705	0.95475
800.98325	0.95377
798.92945	0.95389
796.87565	0.95399
794.82184	0.95324
792.76804	0.95293
790.71424	0.95389
788.66043	0.95467
786.60663	0.95446
784.55283	0.95383
782.49902	0.95368
780.44522	0.95437
778.39142	0.95503
776.33761	0.95525
774.28381	0.95547
772.23001	0.95574
770.17620	0.95560
768.12240	0.95505
766.06860	0.95480
764.01479	0.95486
761.96099	0.95453
759.90719	0.95373
757.85338	0.95311
755.79958	0.95304
753.74578	0.95306
751.69197	0.95226
749.63817	0.95112
747.58437	0.95108
745.53056	0.95182
743.47676	0.95228
741.42296	0.95248
739.36916	0.95268
737.31535	0.95287
735.26155	0.95294
733.20775	0.95308
731.15394	0.95344
729.10014	0.95341
727.04634	0.95265
724.99253	0.95206
722.93873	0.95213
720.88493	0.95226
718.83112	0.95242
716.77732	0.95270
714.72352	0.95275
712.66971	0.95235
710.61591	0.95137
708.56211	0.95041
706.50830	0.95031
704.45450	0.95038
702.40070	0.94956
700.34689	0.94858
698.29309	0.94847
696.23929	0.94890
694.18548	0.94827
692.13168	0.94647
690.07788	0.94600
688.02408	0.94720
685.97027	0.94807
683.91647	0.94770
681.86267	0.94635
679.80886	0.94532
677.75506	0.94564
675.70126	0.94591
673.64745	0.94514
671.59365	0.94488
669.53985	0.94555
667.48604	0.94526
665.43224	0.94428
663.37844	0.94444
661.32463	0.94544
659.27083	0.94569
657.21703	0.94527
655.16322	0.94498
653.10942	0.94423
651.05562	0.94324
649.00181	0.94308
646.94801	0.94442
644.89421	0.94624
642.84040	0.94656
640.78660	0.94509
638.73280	0.94369
636.67899	0.94405
634.62519	0.94480
632.57139	0.94470
630.51759	0.94465
628.46378	0.94428
626.40998	0.94305
624.35618	0.94209
622.30237	0.94252
620.24857	0.94355
618.19477	0.94297
616.14096	0.94062
614.08716	0.93875
612.03336	0.93765
609.97955	0.93675
607.92575	0.93680
605.87195	0.93707
603.81814	0.93583
601.76434	0.93318
599.71054	0.93086
597.65673	0.93013
595.60293	0.92991
593.54913	0.92914
591.49532	0.92957
589.44152	0.93095
587.38772	0.93046
585.33391	0.92849
583.28011	0.92711
581.22631	0.92626
579.17250	0.92605
577.11870	0.92683
575.06490	0.92659
573.01110	0.92501
570.95729	0.92366
568.90349	0.92276
566.84969	0.92286
564.79588	0.92377
562.74208	0.92374
560.68828	0.92163
558.63447	0.91919
556.58067	0.91847
554.52687	0.91827
552.47306	0.91632
550.41926	0.91340
548.36546	0.91245
546.31165	0.91304
544.25785	0.91307
542.20405	0.91165
540.15024	0.90825
538.09644	0.90463
536.04264	0.90289
533.98883	0.90251
531.93503	0.90177
529.88123	0.89999
527.82742	0.89841
525.77362	0.89822
523.71982	0.89970
521.66602	0.90152
519.61221	0.90074
517.55841	0.89885
515.50461	0.90042
513.45080	0.90351
511.39700	0.90352
509.34320	0.90045
507.28939	0.89649
505.23559	0.89370
503.18179	0.89364
501.12798	0.89464
499.07418	0.89545
497.02038	0.89688
494.96657	0.89836
492.91277	0.89923
490.85897	0.89960
488.80516	0.90002
486.75136	0.90084
484.69756	0.90106
482.64375	0.89811
480.58995	0.89265
478.53615	0.89065
476.48234	0.89374
474.42854	0.89515
472.37474	0.89290
470.32093	0.89172
468.26713	0.89007
466.21333	0.88751
464.15953	0.88783
462.10572	0.88901
460.05192	0.88941
457.99812	0.89133
455.94431	0.89327
453.89051	0.89399
451.83671	0.89272
449.78290	0.89065
447.72910	0.89144
445.67530	0.89437
443.62149	0.89823
441.56769	0.89776
439.51389	0.89261
437.46008	0.88979
435.40628	0.88830
433.35248	0.88885
431.29867	0.89116
429.24487	0.89095
427.19107	0.89045
425.13726	0.88894
423.08346	0.88437
421.02966	0.88126
418.97585	0.88241
416.92205	0.88570
414.86825	0.88798
412.81445	0.88772
410.76064	0.88480
408.70684	0.88512
406.65304	0.88953
404.59923	0.89202
402.54543	0.89432
400.49163	0.89753
398.43782	0.88894
