3996.70104	0.95500
3994.64724	0.95499
3992.59344	0.95449
3990.53964	0.95414
3988.48583	0.95426
3986.43203	0.95443
3984.37823	0.95442
3982.32442	0.95436
3980.27062	0.95434
3978.21682	0.95459
3976.16301	0.95498
3974.10921	0.95493
3972.05541	0.95442
3970.00160	0.95437
3967.94780	0.95485
3965.89400	0.95493
3963.84019	0.95471
3961.78639	0.95494
3959.73259	0.95562
3957.67878	0.95613
3955.62498	0.95632
3953.57118	0.95626
3951.51737	0.95606
3949.46357	0.95624
3947.40977	0.95637
3945.35596	0.95558
3943.30216	0.95472
3941.24836	0.95489
3939.19455	0.95547
3937.14075	0.95544
3935.08695	0.95494
3933.03315	0.95445
3930.97934	0.95410
3928.92554	0.95406
3926.87174	0.95427
3924.81793	0.95477
3922.76413	0.95536
3920.71033	0.95548
3918.65652	0.95556
3916.60272	0.95551
3914.54892	0.95486
3912.49511	0.95470
3910.44131	0.95518
3908.38751	0.95558
3906.33370	0.95608
3904.27990	0.95658
3902.22610	0.95669
3900.17229	0.95642
3898.11849	0.95586
3896.06469	0.95580
3894.01088	0.95618
3891.95708	0.95655
3889.90328	0.95672
3887.84947	0.95649
3885.79567	0.95611
3883.74187	0.95568
3881.68807	0.95525
3879.63426	0.95514
3877.58046	0.95517
3875.52666	0.95471
3873.47285	0.95397
3871.41905	0.95359
3869.36525	0.95355
3867.31144	0.95345
3865.25764	0.95290
3863.20384	0.95273
3861.15003	0.95367
3859.09623	0.95450
3857.04243	0.95457
3854.98862	0.95414
3852.93482	0.95415
3850.88102	0.95485
3848.82721	0.95523
3846.77341	0.95552
3844.71961	0.95559
3842.66580	0.95514
3840.61200	0.95501
3838.55820	0.95559
3836.50439	0.95562
3834.45059	0.95511
3832.39679	0.95540
3830.34298	0.95631
3828.28918	0.95662
3826.23538	0.95618
3824.18158	0.95583
3822.12777	0.95610
3820.07397	0.95659
3818.02017	0.95680
3815.96636	0.95624
3813.91256	0.95517
3811.85876	0.95491
3809.80495	0.95514
3807.75115	0.95532
3805.69735	0.95585
3803.64354	0.95617
3801.58974	0.95552
3799.53594	0.95475
3797.48213	0.95459
3795.42833	0.95460
3793.37453	0.95476
3791.32072	0.95540
3789.26692	0.95631
3787.21312	0.95708
3785.15931	0.95751
3783.10551	0.95732
3781.05171	0.95680
3778.99790	0.95658
3776.94410	0.95670
3774.89030	0.95692
3772.83650	0.95712
3770.78269	0.95720
3768.72889	0.95719
3766.67509	0.95734
3764.62128	0.95729
3762.56748	0.95681
3760.51368	0.95650
3758.45987	0.95657
3756.40607	0.95705
3754.35227	0.95747
3752.29846	0.95657
3750.24466	0.95470
3748.19086	0.95491
3746.13705	0.95622
3744.08325	0.95701
3742.02945	0.95724
3739.97564	0.95698
3737.92184	0.95689
3735.86804	0.95774
3733.81423	0.95859
3731.76043	0.95866
3729.70663	0.95842
3727.65282	0.95823
3725.59902	0.95796
3723.54522	0.95738
3721.49141	0.95701
3719.43761	0.95662
3717.38381	0.95592
3715.33001	0.95541
3713.27620	0.95510
3711.22240	0.95398
3709.16860	0.95146
3707.11479	0.94906
3705.06099	0.94756
3703.00719	0.94585
3700.95338	0.94369
3698.89958	0.94281
3696.84578	0.94278
3694.79197	0.94274
3692.73817	0.94312
3690.68437	0.94412
3688.63056	0.94576
3686.57676	0.94727
3684.52296	0.94789
3682.46915	0.94787
3680.41535	0.94793
3678.36155	0.94816
3676.30774	0.94748
3674.25394	0.94705
3672.20014	0.94835
3670.14633	0.94907
3668.09253	0.94824
3666.03873	0.94755
3663.98492	0.94723
3661.93112	0.94662
3659.87732	0.94579
3657.82352	0.94532
3655.76971	0.94526
3653.71591	0.94528
3651.66211	0.94509
3649.60830	0.94410
3647.55450	0.94300
3645.50070	0.94271
3643.44689	0.94237
3641.39309	0.94181
3639.33929	0.94116
3637.28548	0.94037
3635.23168	0.93955
3633.17788	0.93885
3631.12407	0.93802
3629.07027	0.93648
3627.01647	0.93530
3624.96266	0.93493
3622.90886	0.93438
3620.85506	0.93396
3618.80125	0.93410
3616.74745	0.93508
3614.69365	0.93656
3612.63984	0.93756
3610.58604	0.93803
3608.53224	0.93779
3606.47844	0.93681
3604.42463	0.93665
3602.37083	0.93730
3600.31703	0.93749
3598.26322	0.93724
3596.20942	0.93761
3594.15562	0.93833
3592.10181	0.93848
3590.04801	0.93834
3587.99421	0.93803
3585.94040	0.93691
3583.88660	0.93593
3581.83280	0.93572
3579.77899	0.93545
3577.72519	0.93457
3575.67139	0.93356
3573.61758	0.93304
3571.56378	0.93276
3569.50998	0.93233
3567.45617	0.93132
3565.40237	0.93004
3563.34857	0.93036
3561.29476	0.93162
3559.24096	0.93173
3557.18716	0.93100
3555.13335	0.93076
3553.07955	0.93064
3551.02575	0.93011
3548.97195	0.92965
3546.91814	0.92975
3544.86434	0.92989
3542.81054	0.92942
3540.75673	0.92895
3538.70293	0.92850
3536.64913	0.92791
3534.59532	0.92770
3532.54152	0.92794
3530.48772	0.92824
3528.43391	0.92832
3526.38011	0.92817
3524.32631	0.92797
3522.27250	0.92786
3520.21870	0.92796
3518.16490	0.92767
3516.11109	0.92674
3514.05729	0.92644
3512.00349	0.92693
3509.94968	0.92710
3507.89588	0.92688
3505.84208	0.92653
3503.78827	0.92625
3501.73447	0.92653
3499.68067	0.92709
3497.62687	0.92721
3495.57306	0.92715
3493.51926	0.92731
3491.46546	0.92732
3489.41165	0.92741
3487.35785	0.92768
3485.30405	0.92749
3483.25024	0.92703
3481.19644	0.92691
3479.14264	0.92685
3477.08883	0.92663
3475.03503	0.92642
3472.98123	0.92601
3470.92742	0.92576
3468.87362	0.92596
3466.81982	0.92585
3464.76601	0.92526
3462.71221	0.92463
3460.65841	0.92397
3458.60460	0.92344
3456.55080	0.92311
3454.49700	0.92302
3452.44319	0.92322
3450.38939	0.92317
3448.33559	0.92243
3446.28178	0.92166
3444.22798	0.92156
3442.17418	0.92191
3440.12038	0.92220
3438.06657	0.92257
3436.01277	0.92316
3433.95897	0.92313
3431.90516	0.92226
3429.85136	0.92154
3427.79756	0.92103
3425.74375	0.92064
3423.68995	0.92071
3421.63615	0.92085
3419.58234	0.92045
3417.52854	0.91965
3415.47474	0.91918
3413.42093	0.91924
3411.36713	0.91921
3409.31333	0.91866
3407.25952	0.91795
3405.20572	0.91758
3403.15192	0.91737
3401.09811	0.91728
3399.04431	0.91731
3396.99051	0.91699
3394.93670	0.91669
3392.88290	0.91684
3390.82910	0.91713
3388.77529	0.91740
3386.72149	0.91754
3384.66769	0.91752
3382.61389	0.91733
3380.56008	0.91709
3378.50628	0.91707
3376.45248	0.91748
3374.39867	0.91847
3372.34487	0.91943
3370.29107	0.91973
3368.23726	0.91995
3366.18346	0.92031
3364.12966	0.92031
3362.07585	0.91996
3360.02205	0.91969
3357.96825	0.91985
3355.91444	0.92012
3353.86064	0.92038
3351.80684	0.92072
3349.75303	0.92085
3347.69923	0.92090
3345.64543	0.92088
3343.59162	0.92073
3341.53782	0.92081
3339.48402	0.92110
3337.43021	0.92109
3335.37641	0.92055
3333.32261	0.92010
3331.26881	0.92020
3329.21500	0.92059
3327.16120	0.92112
3325.10740	0.92163
3323.05359	0.92178
3320.99979	0.92136
3318.94599	0.92074
3316.89218	0.92074
3314.83838	0.92126
3312.78458	0.92155
3310.73077	0.92202
3308.67697	0.92291
3306.62317	0.92360
3304.56936	0.92371
3302.51556	0.92319
3300.46176	0.92277
3298.40795	0.92301
3296.35415	0.92350
3294.30035	0.92370
3292.24654	0.92366
3290.19274	0.92378
3288.13894	0.92426
3286.08513	0.92493
3284.03133	0.92518
3281.97753	0.92480
3279.92372	0.92419
3277.86992	0.92358
3275.81612	0.92326
3273.76232	0.92367
3271.70851	0.92428
3269.65471	0.92449
3267.60091	0.92455
3265.54710	0.92454
3263.49330	0.92446
3261.43950	0.92461
3259.38569	0.92519
3257.33189	0.92599
3255.27809	0.92650
3253.22428	0.92661
3251.17048	0.92668
3249.11668	0.92709
3247.06287	0.92753
3245.00907	0.92767
3242.95527	0.92798
3240.90146	0.92857
3238.84766	0.92884
3236.79386	0.92872
3234.74005	0.92854
3232.68625	0.92862
3230.63245	0.92889
3228.57864	0.92900
3226.52484	0.92903
3224.47104	0.92912
3222.41724	0.92917
3220.36343	0.92946
3218.30963	0.92994
3216.25583	0.93020
3214.20202	0.93026
3212.14822	0.93017
3210.09442	0.93000
3208.04061	0.93003
3205.98681	0.93032
3203.93301	0.93084
3201.87920	0.93135
3199.82540	0.93168
3197.77160	0.93184
3195.71779	0.93204
3193.66399	0.93252
3191.61019	0.93314
3189.55638	0.93361
3187.50258	0.93399
3185.44878	0.93446
3183.39497	0.93497
3181.34117	0.93540
3179.28737	0.93570
3177.23356	0.93573
3175.17976	0.93558
3173.12596	0.93577
3171.07215	0.93590
3169.01835	0.93551
3166.96455	0.93521
3164.91075	0.93524
3162.85694	0.93523
3160.80314	0.93525
3158.74934	0.93575
3156.69553	0.93657
3154.64173	0.93717
3152.58793	0.93746
3150.53412	0.93763
3148.48032	0.93775
3146.42652	0.93799
3144.37271	0.93842
3142.31891	0.93857
3140.26511	0.93842
3138.21130	0.93838
3136.15750	0.93873
3134.10370	0.93944
3132.04989	0.94006
3129.99609	0.94055
3127.94229	0.94111
3125.88848	0.94137
3123.83468	0.94146
3121.78088	0.94191
3119.72707	0.94238
3117.67327	0.94253
3115.61947	0.94298
3113.56566	0.94354
3111.51186	0.94318
3109.45806	0.94239
3107.40426	0.94187
3105.35045	0.94155
3103.29665	0.94173
3101.24285	0.94231
3099.18904	0.94267
3097.13524	0.94243
3095.08144	0.94175
3093.02763	0.94145
3090.97383	0.94198
3088.92003	0.94265
3086.86622	0.94285
3084.81242	0.94287
3082.75862	0.94311
3080.70481	0.94358
3078.65101	0.94415
3076.59721	0.94455
3074.54340	0.94483
3072.48960	0.94509
3070.43580	0.94512
3068.38199	0.94501
3066.32819	0.94508
3064.27439	0.94555
3062.22058	0.94595
3060.16678	0.94599
3058.11298	0.94615
3056.05918	0.94647
3054.00537	0.94638
3051.95157	0.94594
3049.89777	0.94569
3047.84396	0.94577
3045.79016	0.94586
3043.73636	0.94596
3041.68255	0.94602
3039.62875	0.94584
3037.57495	0.94592
3035.52114	0.94638
3033.46734	0.94665
3031.41354	0.94684
3029.35973	0.94691
3027.30593	0.94654
3025.25213	0.94645
3023.19832	0.94718
3021.14452	0.94798
3019.09072	0.94835
3017.03691	0.94857
3014.98311	0.94893
3012.92931	0.94908
3010.87550	0.94902
3008.82170	0.94906
3006.76790	0.94918
3004.71409	0.94929
3002.66029	0.94944
3000.60649	0.94991
2998.55269	0.95052
2996.49888	0.95043
2994.44508	0.94973
2992.39128	0.94952
2990.33747	0.95023
2988.28367	0.95098
2986.22987	0.95084
2984.17606	0.95019
2982.12226	0.94961
2980.06846	0.94895
2978.01465	0.94833
2975.96085	0.94813
2973.90705	0.94833
2971.85324	0.94826
2969.79944	0.94766
2967.74564	0.94686
2965.69183	0.94615
2963.63803	0.94561
2961.58423	0.94502
2959.53042	0.94413
2957.47662	0.94293
2955.42282	0.94154
2953.36901	0.93976
2951.31521	0.93761
2949.26141	0.93537
2947.20761	0.93239
2945.15380	0.92780
2943.10000	0.92123
2941.04620	0.91267
2938.99239	0.90230
2936.93859	0.88973
2934.88479	0.87460
2932.83098	0.85710
2930.77718	0.83675
2928.72338	0.81234
2926.66957	0.78269
2924.61577	0.74701
2922.56197	0.70536
2920.50816	0.65954
2918.45436	0.61463
2916.40056	0.58025
2914.34675	0.56792
2912.29295	0.58163
2910.23915	0.61221
2908.18534	0.64630
2906.13154	0.67636
2904.07774	0.70016
2902.02393	0.71818
2899.97013	0.73245
2897.91633	0.74474
2895.86252	0.75584
2893.80872	0.76623
2891.75492	0.77658
2889.70112	0.78747
2887.64731	0.79899
2885.59351	0.81085
2883.53971	0.82271
2881.48590	0.83470
2879.43210	0.84685
2877.37830	0.85851
2875.32449	0.86913
2873.27069	0.87821
2871.21689	0.88505
2869.16308	0.88900
2867.10928	0.88960
2865.05548	0.88715
2863.00167	0.88155
2860.94787	0.87084
2858.89407	0.85221
2856.84026	0.82223
2854.78646	0.77729
2852.73266	0.71739
2850.67885	0.65348
2848.62505	0.60844
2846.57125	0.60107
2844.51744	0.62934
2842.46364	0.67554
2840.40984	0.72273
2838.35603	0.76229
2836.30223	0.79295
2834.24843	0.81651
2832.19463	0.83485
2830.14082	0.84921
2828.08702	0.86041
2826.03322	0.86932
2823.97941	0.87649
2821.92561	0.88244
2819.87181	0.88777
2817.81800	0.89232
2815.76420	0.89587
2813.71040	0.89893
2811.65659	0.90178
2809.60279	0.90444
2807.54899	0.90704
2805.49518	0.90933
2803.44138	0.91101
2801.38758	0.91242
2799.33377	0.91387
2797.27997	0.91528
2795.22617	0.91656
2793.17236	0.91770
2791.11856	0.91890
2789.06476	0.92042
2787.01095	0.92206
2784.95715	0.92345
2782.90335	0.92468
2780.84955	0.92570
2778.79574	0.92658
2776.74194	0.92756
2774.68814	0.92853
2772.63433	0.92945
2770.58053	0.93016
2768.52673	0.93065
2766.47292	0.93121
2764.41912	0.93170
2762.36532	0.93200
2760.31151	0.93264
2758.25771	0.93364
2756.20391	0.93434
2754.15010	0.93464
2752.09630	0.93469
2750.04250	0.93457
2747.98869	0.93443
2745.93489	0.93435
2743.88109	0.93461
2741.82728	0.93509
2739.77348	0.93522
2737.71968	0.93507
2735.66587	0.93507
2733.61207	0.93528
2731.55827	0.93573
2729.50446	0.93628
2727.45066	0.93652
2725.39686	0.93651
2723.34306	0.93688
2721.28925	0.93765
2719.23545	0.93820
2717.18165	0.93866
2715.12784	0.93907
2713.07404	0.93904
2711.02024	0.93907
2708.96643	0.93952
2706.91263	0.93984
2704.85883	0.93984
2702.80502	0.93977
2700.75122	0.93992
2698.69742	0.94022
2696.64361	0.94044
2694.58981	0.94072
2692.53601	0.94098
2690.48220	0.94105
2688.42840	0.94100
2686.37460	0.94104
2684.32079	0.94116
2682.26699	0.94110
2680.21319	0.94082
2678.15938	0.94068
2676.10558	0.94080
2674.05178	0.94076
2671.99797	0.94033
2669.94417	0.93996
2667.89037	0.93997
2665.83657	0.94021
2663.78276	0.94044
2661.72896	0.94057
2659.67516	0.94058
2657.62135	0.94053
2655.56755	0.94057
2653.51375	0.94106
2651.45994	0.94200
2649.40614	0.94248
2647.35234	0.94212
2645.29853	0.94162
2643.24473	0.94138
2641.19093	0.94144
2639.13712	0.94153
2637.08332	0.94144
2635.02952	0.94134
2632.97571	0.94124
2630.92191	0.94112
2628.86811	0.94123
2626.81430	0.94171
2624.76050	0.94237
2622.70670	0.94281
2620.65289	0.94305
2618.59909	0.94323
2616.54529	0.94314
2614.49149	0.94298
2612.43768	0.94305
2610.38388	0.94341
2608.33008	0.94408
2606.27627	0.94468
2604.22247	0.94497
2602.16867	0.94493
2600.11486	0.94489
2598.06106	0.94534
2596.00726	0.94632
2593.95345	0.94740
2591.89965	0.94785
2589.84585	0.94781
2587.79204	0.94804
2585.73824	0.94834
2583.68444	0.94830
2581.63063	0.94826
2579.57683	0.94854
2577.52303	0.94862
2575.46922	0.94797
2573.41542	0.94732
2571.36162	0.94741
2569.30781	0.94811
2567.25401	0.94872
2565.20021	0.94876
2563.14640	0.94839
2561.09260	0.94785
2559.03880	0.94734
2556.98500	0.94682
2554.93119	0.94641
2552.87739	0.94675
2550.82359	0.94794
2548.76978	0.94896
2546.71598	0.94924
2544.66218	0.94924
2542.60837	0.94896
2540.55457	0.94888
2538.50077	0.94986
2536.44696	0.95081
2534.39316	0.95093
2532.33936	0.95104
2530.28555	0.95090
2528.23175	0.95025
2526.17795	0.94975
2524.12414	0.94971
2522.07034	0.95022
2520.01654	0.95082
2517.96273	0.95099
2515.90893	0.95085
2513.85513	0.95053
2511.80132	0.95021
2509.74752	0.94995
2507.69372	0.94988
2505.63992	0.95005
2503.58611	0.95009
2501.53231	0.95003
2499.47851	0.94990
2497.42470	0.94958
2495.37090	0.94949
2493.31710	0.94984
2491.26329	0.95028
2489.20949	0.95069
2487.15569	0.95096
2485.10188	0.95103
2483.04808	0.95115
2480.99428	0.95098
2478.94047	0.95059
2476.88667	0.95052
2474.83287	0.95093
2472.77906	0.95173
2470.72526	0.95243
2468.67146	0.95268
2466.61765	0.95250
2464.56385	0.95218
2462.51005	0.95226
2460.45624	0.95259
2458.40244	0.95248
2456.34864	0.95191
2454.29483	0.95157
2452.24103	0.95172
2450.18723	0.95188
2448.13343	0.95171
2446.07962	0.95163
2444.02582	0.95165
2441.97202	0.95163
2439.91821	0.95159
2437.86441	0.95117
2435.81061	0.95078
2433.75680	0.95105
2431.70300	0.95153
2429.64920	0.95194
2427.59539	0.95235
2425.54159	0.95270
2423.48779	0.95319
2421.43398	0.95346
2419.38018	0.95310
2417.32638	0.95256
2415.27257	0.95259
2413.21877	0.95317
2411.16497	0.95359
2409.11116	0.95337
2407.05736	0.95299
2405.00356	0.95315
2402.94975	0.95331
2400.89595	0.95295
2398.84215	0.95303
2396.78834	0.95342
2394.73454	0.95284
2392.68074	0.95177
2390.62694	0.95138
2388.57313	0.95153
2386.51933	0.95150
2384.46553	0.95140
2382.41172	0.95149
2380.35792	0.95166
2378.30412	0.95189
2376.25031	0.95210
2374.19651	0.95203
2372.14271	0.95140
2370.08890	0.95070
2368.03510	0.95065
2365.98130	0.95105
2363.92749	0.95103
2361.87369	0.95064
2359.81989	0.95126
2357.76608	0.95221
2355.71228	0.95221
2353.65848	0.95220
2351.60467	0.95280
2349.55087	0.95322
2347.49707	0.95280
2345.44326	0.95179
2343.38946	0.95156
2341.33566	0.95260
2339.28186	0.95301
2337.22805	0.95193
2335.17425	0.95071
2333.12045	0.95025
2331.06664	0.94980
2329.01284	0.94905
2326.95904	0.94843
2324.90523	0.94806
2322.85143	0.94796
2320.79763	0.94808
2318.74382	0.94877
2316.69002	0.94953
2314.63622	0.94920
2312.58241	0.94858
2310.52861	0.94901
2308.47481	0.94992
2306.42100	0.95043
2304.36720	0.95070
2302.31340	0.95125
2300.25959	0.95219
2298.20579	0.95287
2296.15199	0.95290
2294.09818	0.95263
2292.04438	0.95248
2289.99058	0.95262
2287.93677	0.95265
2285.88297	0.95252
2283.82917	0.95277
2281.77537	0.95325
2279.72156	0.95367
2277.66776	0.95417
2275.61396	0.95425
2273.56015	0.95350
2271.50635	0.95227
2269.45255	0.95132
2267.39874	0.95128
2265.34494	0.95176
2263.29114	0.95227
2261.23733	0.95243
2259.18353	0.95173
2257.12973	0.95110
2255.07592	0.95159
2253.02212	0.95301
2250.96832	0.95426
2248.91451	0.95455
2246.86071	0.95479
2244.80691	0.95493
2242.75310	0.95415
2240.69930	0.95385
2238.64550	0.95467
2236.59169	0.95545
2234.53789	0.95587
2232.48409	0.95615
2230.43029	0.95554
2228.37648	0.95422
2226.32268	0.95418
2224.26888	0.95538
2222.21507	0.95603
2220.16127	0.95556
2218.10747	0.95457
2216.05366	0.95384
2213.99986	0.95380
2211.94606	0.95395
2209.89225	0.95393
2207.83845	0.95428
2205.78465	0.95504
2203.73084	0.95451
2201.67704	0.95179
2199.62324	0.95053
2197.56943	0.95240
2195.51563	0.95292
2193.46183	0.95121
2191.40802	0.95100
2189.35422	0.95320
2187.30042	0.95551
2185.24661	0.95542
2183.19281	0.95472
2181.13901	0.95620
2179.08520	0.95868
2177.03140	0.96141
2174.97760	0.96255
2172.92380	0.96010
2170.86999	0.95747
2168.81619	0.95777
2166.76239	0.95891
2164.70858	0.95869
2162.65478	0.95857
2160.60098	0.95966
2158.54717	0.95995
2156.49337	0.95818
2154.43957	0.95634
2152.38576	0.95525
2150.33196	0.95402
2148.27816	0.95346
2146.22435	0.95360
2144.17055	0.95329
2142.11675	0.95296
2140.06294	0.95389
2138.00914	0.95584
2135.95534	0.95746
2133.90153	0.95811
2131.84773	0.95761
2129.79393	0.95676
2127.74012	0.95637
2125.68632	0.95632
2123.63252	0.95622
2121.57871	0.95583
2119.52491	0.95586
2117.47111	0.95679
2115.41731	0.95782
2113.36350	0.95847
2111.30970	0.95942
2109.25590	0.96004
2107.20209	0.95937
2105.14829	0.95907
2103.09449	0.95953
2101.04068	0.95892
2098.98688	0.95747
2096.93308	0.95648
2094.87927	0.95593
2092.82547	0.95550
2090.77167	0.95520
2088.71786	0.95493
2086.66406	0.95461
2084.61026	0.95440
2082.55645	0.95371
2080.50265	0.95237
2078.44885	0.95192
2076.39504	0.95218
2074.34124	0.95140
2072.28744	0.95069
2070.23363	0.95246
2068.17983	0.95545
2066.12603	0.95677
2064.07223	0.95695
2062.01842	0.95792
2059.96462	0.95911
2057.91082	0.95918
2055.85701	0.95874
2053.80321	0.95890
2051.74941	0.95921
2049.69560	0.95900
2047.64180	0.95891
2045.58800	0.95932
2043.53419	0.95886
2041.48039	0.95797
2039.42659	0.95744
2037.37278	0.95526
2035.31898	0.95281
2033.26518	0.95286
2031.21137	0.95335
2029.15757	0.95274
2027.10377	0.95185
2025.04996	0.95164
2022.99616	0.95183
2020.94236	0.95236
2018.88855	0.95430
2016.83475	0.95647
2014.78095	0.95672
2012.72714	0.95621
2010.67334	0.95714
2008.61954	0.95898
2006.56574	0.95974
2004.51193	0.95929
2002.45813	0.95927
2000.40433	0.96011
1998.35052	0.96091
1996.29672	0.96100
1994.24292	0.96186
1992.18911	0.96406
1990.13531	0.96507
1988.08151	0.96491
1986.02770	0.96414
1983.97390	0.96178
1981.92010	0.95881
1979.86629	0.95658
1977.81249	0.95583
1975.75869	0.95767
1973.70488	0.95918
1971.65108	0.95703
1969.59728	0.95460
1967.54347	0.95430
1965.48967	0.95387
1963.43587	0.95310
1961.38206	0.95368
1959.32826	0.95471
1957.27446	0.95456
1955.22066	0.95365
1953.16685	0.95364
1951.11305	0.95527
1949.05925	0.95719
1947.00544	0.95842
1944.95164	0.95907
1942.89784	0.95919
1940.84403	0.95921
1938.79023	0.95949
1936.73643	0.95908
1934.68262	0.95827
1932.62882	0.95821
1930.57502	0.95869
1928.52121	0.95945
1926.46741	0.95975
1924.41361	0.95900
1922.35980	0.95834
1920.30600	0.95830
1918.25220	0.95795
1916.19839	0.95749
1914.14459	0.95689
1912.09079	0.95570
1910.03698	0.95519
1907.98318	0.95557
1905.92938	0.95580
1903.87557	0.95534
1901.82177	0.95405
1899.76797	0.95335
1897.71417	0.95405
1895.66036	0.95497
1893.60656	0.95496
1891.55276	0.95465
1889.49895	0.95524
1887.44515	0.95638
1885.39135	0.95736
1883.33754	0.95758
1881.28374	0.95708
1879.22994	0.95675
1877.17613	0.95669
1875.12233	0.95696
1873.06853	0.95735
1871.01472	0.95734
1868.96092	0.95707
1866.90712	0.95693
1864.85331	0.95671
1862.79951	0.95657
1860.74571	0.95666
1858.69190	0.95638
1856.63810	0.95584
1854.58430	0.95552
1852.53049	0.95538
1850.47669	0.95530
1848.42289	0.95510
1846.36908	0.95485
1844.31528	0.95492
1842.26148	0.95484
1840.20768	0.95453
1838.15387	0.95496
1836.10007	0.95548
1834.04627	0.95517
1831.99246	0.95492
1829.93866	0.95550
1827.88486	0.95635
1825.83105	0.95661
1823.77725	0.95641
1821.72345	0.95663
1819.66964	0.95721
1817.61584	0.95727
1815.56204	0.95703
1813.50823	0.95713
1811.45443	0.95742
1809.40063	0.95727
1807.34682	0.95657
1805.29302	0.95594
1803.23922	0.95552
1801.18541	0.95517
1799.13161	0.95489
1797.07781	0.95483
1795.02400	0.95476
1792.97020	0.95435
1790.91640	0.95398
1788.86260	0.95394
1786.80879	0.95399
1784.75499	0.95408
1782.70119	0.95419
1780.64738	0.95430
1778.59358	0.95419
1776.53978	0.95378
1774.48597	0.95320
1772.43217	0.95270
1770.37837	0.95277
1768.32456	0.95318
1766.27076	0.95339
1764.21696	0.95340
1762.16315	0.95352
1760.10935	0.95383
1758.05555	0.95406
1756.00174	0.95393
1753.94794	0.95338
1751.89414	0.95267
1749.84033	0.95227
1747.78653	0.95199
1745.73273	0.95142
1743.67892	0.95095
1741.62512	0.95036
1739.57132	0.94920
1737.51751	0.94838
1735.46371	0.94830
1733.40991	0.94784
1731.35611	0.94673
1729.30230	0.94585
1727.24850	0.94537
1725.19470	0.94505
1723.14089	0.94458
1721.08709	0.94405
1719.03329	0.94345
1716.97948	0.94306
1714.92568	0.94330
1712.87188	0.94337
1710.81807	0.94299
1708.76427	0.94261
1706.71047	0.94221
1704.65666	0.94179
1702.60286	0.94190
1700.54906	0.94197
1698.49525	0.94083
1696.44145	0.93918
1694.38765	0.93764
1692.33384	0.93641
1690.28004	0.93521
1688.22624	0.93398
1686.17243	0.93290
1684.11863	0.93110
1682.06483	0.92883
1680.01103	0.92758
1677.95722	0.92697
1675.90342	0.92623
1673.84962	0.92503
1671.79581	0.92396
1669.74201	0.92284
1667.68821	0.92179
1665.63440	0.92106
1663.58060	0.92003
1661.52680	0.91882
1659.47299	0.91819
1657.41919	0.91792
1655.36539	0.91783
1653.31158	0.91705
1651.25778	0.91595
1649.20398	0.91600
1647.15017	0.91617
1645.09637	0.91622
1643.04257	0.91639
1640.98876	0.91648
1638.93496	0.91663
1636.88116	0.91674
1634.82735	0.91631
1632.77355	0.91599
1630.71975	0.91619
1628.66594	0.91640
1626.61214	0.91621
1624.55834	0.91562
1622.50454	0.91522
1620.45073	0.91566
1618.39693	0.91636
1616.34313	0.91697
1614.28932	0.91799
1612.23552	0.91915
1610.18172	0.91997
1608.12791	0.92049
1606.07411	0.92099
1604.02031	0.92161
1601.96650	0.92232
1599.91270	0.92284
1597.85890	0.92329
1595.80509	0.92399
1593.75129	0.92474
1591.69749	0.92508
1589.64368	0.92526
1587.58988	0.92567
1585.53608	0.92616
1583.48227	0.92669
1581.42847	0.92735
1579.37467	0.92812
1577.32086	0.92872
1575.26706	0.92874
1573.21326	0.92886
1571.15945	0.92940
1569.10565	0.92982
1567.05185	0.92975
1564.99805	0.92950
1562.94424	0.92921
1560.89044	0.92881
1558.83664	0.92826
1556.78283	0.92835
1554.72903	0.92872
1552.67523	0.92898
1550.62142	0.92938
1548.56762	0.93013
1546.51382	0.93096
1544.46001	0.93130
1542.40621	0.93110
1540.35241	0.93115
1538.29860	0.93198
1536.24480	0.93262
1534.19100	0.93323
1532.13719	0.93425
1530.08339	0.93515
1528.02959	0.93584
1525.97578	0.93660
1523.92198	0.93757
1521.86818	0.93884
1519.81437	0.93953
1517.76057	0.93920
1515.70677	0.93886
1513.65297	0.93900
1511.59916	0.93924
1509.54536	0.93971
1507.49156	0.94082
1505.43775	0.94117
1503.38395	0.94069
1501.33015	0.94041
1499.27634	0.94007
1497.22254	0.93996
1495.16874	0.94025
1493.11493	0.94039
1491.06113	0.94021
1489.00733	0.93976
1486.95352	0.93900
1484.89972	0.93813
1482.84592	0.93701
1480.79211	0.93413
1478.73831	0.92545
1476.68451	0.90050
1474.63070	0.85131
1472.57690	0.80484
1470.52310	0.80281
1468.46929	0.81946
1466.41549	0.82555
1464.36169	0.81281
1462.30788	0.80372
1460.25408	0.81892
1458.20028	0.85315
1456.14648	0.88416
1454.09267	0.89556
1452.03887	0.90099
1449.98507	0.90540
1447.93126	0.90875
1445.87746	0.91102
1443.82366	0.91243
1441.76985	0.91332
1439.71605	0.91419
1437.66225	0.91540
1435.60844	0.91667
1433.55464	0.91759
1431.50084	0.91862
1429.44703	0.92012
1427.39323	0.92170
1425.33943	0.92287
1423.28562	0.92389
1421.23182	0.92494
1419.17802	0.92590
1417.12421	0.92627
1415.07041	0.92643
1413.01661	0.92672
1410.96280	0.92709
1408.90900	0.92770
1406.85520	0.92854
1404.80139	0.92927
1402.74759	0.92966
1400.69379	0.93002
1398.63999	0.93048
1396.58618	0.93100
1394.53238	0.93134
1392.47858	0.93125
1390.42477	0.93094
1388.37097	0.93074
1386.31717	0.93070
1384.26336	0.93048
1382.20956	0.92996
1380.15576	0.92938
1378.10195	0.92881
1376.04815	0.92804
1373.99435	0.92706
1371.94054	0.92613
1369.88674	0.92545
1367.83294	0.92509
1365.77913	0.92523
1363.72533	0.92612
1361.67153	0.92744
1359.61772	0.92833
1357.56392	0.92891
1355.51012	0.92947
1353.45631	0.92969
1351.40251	0.92957
1349.34871	0.92964
1347.29491	0.93026
1345.24110	0.93106
1343.18730	0.93170
1341.13350	0.93217
1339.07969	0.93268
1337.02589	0.93333
1334.97209	0.93371
1332.91828	0.93354
1330.86448	0.93319
1328.81068	0.93300
1326.75687	0.93262
1324.70307	0.93202
1322.64927	0.93165
1320.59546	0.93165
1318.54166	0.93152
1316.48786	0.93088
1314.43405	0.93016
1312.38025	0.92975
1310.32645	0.92959
1308.27264	0.92958
1306.21884	0.92978
1304.16504	0.93016
1302.11123	0.93040
1300.05743	0.93036
1298.00363	0.93017
1295.94982	0.93017
1293.89602	0.93046
1291.84222	0.93073
1289.78842	0.93083
1287.73461	0.93086
1285.68081	0.93067
1283.62701	0.93020
1281.57320	0.92973
1279.51940	0.92944
1277.46560	0.92918
1275.41179	0.92886
1273.35799	0.92850
1271.30419	0.92808
1269.25038	0.92767
1267.19658	0.92718
1265.14278	0.92663
1263.08897	0.92622
1261.03517	0.92593
1258.98137	0.92554
1256.92756	0.92507
1254.87376	0.92475
1252.81996	0.92448
1250.76615	0.92396
1248.71235	0.92326
1246.65855	0.92268
1244.60474	0.92227
1242.55094	0.92184
1240.49714	0.92130
1238.44334	0.92066
1236.38953	0.92013
1234.33573	0.91969
1232.28193	0.91908
1230.22812	0.91848
1228.17432	0.91796
1226.12052	0.91716
1224.06671	0.91618
1222.01291	0.91521
1219.95911	0.91422
1217.90530	0.91305
1215.85150	0.91146
1213.79770	0.90985
1211.74389	0.90831
1209.69009	0.90633
1207.63629	0.90429
1205.58248	0.90249
1203.52868	0.90058
1201.47488	0.89841
1199.42107	0.89614
1197.36727	0.89357
1195.31347	0.89048
1193.25966	0.88736
1191.20586	0.88480
1189.15206	0.88239
1187.09825	0.87946
1185.04445	0.87607
1182.99065	0.87239
1180.93685	0.86870
1178.88304	0.86517
1176.82924	0.86156
1174.77544	0.85767
1172.72163	0.85357
1170.66783	0.84950
1168.61403	0.84542
1166.56022	0.84139
1164.50642	0.83798
1162.45262	0.83539
1160.39881	0.83331
1158.34501	0.83117
1156.29121	0.82849
1154.23740	0.82557
1152.18360	0.82273
1150.12980	0.81953
1148.07599	0.81622
1146.02219	0.81350
1143.96839	0.81117
1141.91458	0.80861
1139.86078	0.80576
1137.80698	0.80305
1135.75317	0.80062
1133.69937	0.79803
1131.64557	0.79500
1129.59176	0.79194
1127.53796	0.78874
1125.48416	0.78478
1123.43036	0.77993
1121.37655	0.77472
1119.32275	0.76997
1117.26895	0.76560
1115.21514	0.76110
1113.16134	0.75658
1111.10754	0.75234
1109.05373	0.74833
1106.99993	0.74449
1104.94613	0.74125
1102.89232	0.73884
1100.83852	0.73670
1098.78472	0.73478
1096.73091	0.73314
1094.67711	0.73146
1092.62331	0.73005
1090.56950	0.72937
1088.51570	0.72914
1086.46190	0.72872
1084.40809	0.72816
1082.35429	0.72786
1080.30049	0.72758
1078.24668	0.72692
1076.19288	0.72622
1074.13908	0.72550
1072.08528	0.72420
1070.03147	0.72216
1067.97767	0.71945
1065.92387	0.71627
1063.87006	0.71241
1061.81626	0.70798
1059.76246	0.70358
1057.70865	0.69890
1055.65485	0.69349
1053.60105	0.68756
1051.54724	0.68148
1049.49344	0.67566
1047.43964	0.67000
1045.38583	0.66404
1043.33203	0.65790
1041.27823	0.65217
1039.22442	0.64717
1037.17062	0.64284
1035.11682	0.63917
1033.06301	0.63657
1031.00921	0.63547
1028.95541	0.63602
1026.90160	0.63796
1024.84780	0.64033
1022.79400	0.64234
1020.74019	0.64399
1018.68639	0.64534
1016.63259	0.64608
1014.57879	0.64591
1012.52498	0.64528
1010.47118	0.64491
1008.41738	0.64507
1006.36357	0.64629
1004.30977	0.64922
1002.25597	0.65394
1000.20216	0.66042
998.14836	0.66839
996.09456	0.67698
994.04075	0.68564
991.98695	0.69444
989.93315	0.70333
987.87934	0.71211
985.82554	0.72114
983.77174	0.73075
981.71793	0.74017
979.66413	0.74880
977.61033	0.75705
975.55652	0.76521
973.50272	0.77304
971.44892	0.78041
969.39511	0.78731
967.34131	0.79365
965.28751	0.79938
963.23371	0.80469
961.17990	0.80971
959.12610	0.81426
957.07230	0.81841
955.01849	0.82245
952.96469	0.82596
950.91089	0.82855
948.85708	0.83071
946.80328	0.83310
944.74948	0.83561
942.69567	0.83771
940.64187	0.83951
938.58807	0.84110
936.53426	0.84271
934.48046	0.84496
932.42666	0.84730
930.37285	0.84874
928.31905	0.84955
926.26525	0.85035
924.21144	0.85083
922.15764	0.85040
920.10384	0.84946
918.05003	0.84848
915.99623	0.84715
913.94243	0.84604
911.88862	0.84661
909.83482	0.84940
907.78102	0.85364
905.72722	0.85808
903.67341	0.86230
901.61961	0.86680
899.56581	0.87176
897.51200	0.87623
895.45820	0.87925
893.40440	0.88119
891.35059	0.88311
889.29679	0.88517
887.24299	0.88702
885.18918	0.88876
883.13538	0.89044
881.08158	0.89201
879.02777	0.89326
876.97397	0.89415
874.92017	0.89495
872.86636	0.89636
870.81256	0.89865
868.75876	0.90055
866.70495	0.90154
864.65115	0.90256
862.59735	0.90403
860.54354	0.90614
858.48974	0.90848
856.43594	0.90969
854.38213	0.90988
852.32833	0.90993
850.27453	0.90972
848.22073	0.90943
846.16692	0.90956
844.11312	0.90994
842.05932	0.90995
840.00551	0.90916
837.95171	0.90812
835.89791	0.90763
833.84410	0.90733
831.79030	0.90693
829.73650	0.90672
827.68269	0.90616
825.62889	0.90547
823.57509	0.90562
821.52128	0.90572
819.46748	0.90484
817.41368	0.90398
815.35987	0.90350
813.30607	0.90262
811.25227	0.90125
809.19846	0.89870
807.14466	0.89401
805.09086	0.88847
803.03705	0.88265
800.98325	0.87689
798.92945	0.87324
796.87565	0.87218
794.82184	0.87291
792.76804	0.87451
790.71424	0.87565
788.66043	0.87588
786.60663	0.87525
784.55283	0.87363
782.49902	0.87128
780.44522	0.86922
778.39142	0.86872
776.33761	0.86967
774.28381	0.87111
772.23001	0.87291
770.17620	0.87449
768.12240	0.87502
766.06860	0.87447
764.01479	0.87379
761.96099	0.87426
759.90719	0.87508
757.85338	0.87461
755.79958	0.87395
753.74578	0.87451
751.69197	0.87515
749.63817	0.87489
747.58437	0.87477
745.53056	0.87499
743.47676	0.87459
741.42296	0.87407
739.36916	0.87335
737.31535	0.87050
735.26155	0.85928
733.20775	0.83047
731.15394	0.79637
729.10014	0.78731
727.04634	0.80061
724.99253	0.80489
722.93873	0.78126
720.88493	0.73205
718.83112	0.69141
716.77732	0.69547
714.72352	0.73516
712.66971	0.77892
710.61591	0.80877
708.56211	0.82480
706.50830	0.83219
704.45450	0.83538
702.40070	0.83757
700.34689	0.83863
698.29309	0.83811
696.23929	0.83779
694.18548	0.83908
692.13168	0.84183
690.07788	0.84470
688.02408	0.84621
685.97027	0.84726
683.91647	0.84878
681.86267	0.84995
679.80886	0.85079
677.75506	0.85153
675.70126	0.85136
673.64745	0.85019
671.59365	0.84875
669.53985	0.84745
667.48604	0.84793
665.43224	0.85000
663.37844	0.85087
661.32463	0.85048
659.27083	0.84986
657.21703	0.84911
655.16322	0.84787
653.10942	0.84627
651.05562	0.84459
649.00181	0.84321
646.94801	0.84299
644.89421	0.84415
642.84040	0.84514
640.78660	0.84468
638.73280	0.84368
636.67899	0.84417
634.62519	0.84648
632.57139	0.84806
630.51759	0.84780
628.46378	0.84727
626.40998	0.84736
624.35618	0.84679
622.30237	0.84403
620.24857	0.84047
618.19477	0.83793
616.14096	0.83563
614.08716	0.83208
612.03336	0.82732
609.97955	0.82247
607.92575	0.81797
605.87195	0.81402
603.81814	0.81064
601.76434	0.80728
599.71054	0.80427
597.65673	0.80256
595.60293	0.80114
593.54913	0.79899
591.49532	0.79737
589.44152	0.79619
587.38772	0.79421
585.33391	0.79258
583.28011	0.79320
581.22631	0.79476
579.17250	0.79489
577.11870	0.79471
575.06490	0.79556
573.01110	0.79706
570.95729	0.79862
568.90349	0.79844
566.84969	0.79601
564.79588	0.79318
562.74208	0.79116
560.68828	0.78872
558.63447	0.78516
556.58067	0.78246
554.52687	0.78027
552.47306	0.77674
550.41926	0.77250
548.36546	0.76685
546.31165	0.75844
544.25785	0.74954
542.20405	0.74241
540.15024	0.73658
538.09644	0.73154
536.04264	0.72900
533.98883	0.72992
531.93503	0.73121
529.88123	0.73127
527.82742	0.73196
525.77362	0.73373
523.71982	0.73653
521.66602	0.74086
519.61221	0.74583
517.55841	0.75093
515.50461	0.75562
513.45080	0.75892
511.39700	0.76151
509.34320	0.76407
507.28939	0.76678
505.23559	0.76995
503.18179	0.77177
501.12798	0.77068
499.07418	0.76863
497.02038	0.76663
494.96657	0.76506
492.91277	0.76502
490.85897	0.76306
488.80516	0.75608
486.75136	0.74702
484.69756	0.73628
482.64375	0.72264
480.58995	0.70875
478.53615	0.69561
476.48234	0.68325
474.42854	0.67198
472.37474	0.66168
470.32093	0.65441
468.26713	0.65053
466.21333	0.65040
464.15953	0.65441
462.10572	0.66173
460.05192	0.67326
457.99812	0.68728
455.94431	0.69692
453.89051	0.70212
451.83671	0.70717
449.78290	0.71212
447.72910	0.71677
445.67530	0.72165
443.62149	0.72542
441.56769	0.72409
439.51389	0.71807
437.46008	0.71034
435.40628	0.70269
433.35248	0.69857
431.29867	0.69559
429.24487	0.69165
427.19107	0.69037
425.13726	0.68992
423.08346	0.68669
421.02966	0.68516
418.97585	0.69292
416.92205	0.70624
414.86825	0.71579
412.81445	0.72599
410.76064	0.73804
408.70684	0.74571
406.65304	0.74905
404.59923	0.75469
402.54543	0.76264
400.49163	0.76805
398.43782	0.76945
