3996.70104	0.98202
3994.64724	0.98211
3992.59344	0.98163
3990.53964	0.98136
3988.48583	0.98160
3986.43203	0.98206
3984.37823	0.98194
3982.32442	0.98143
3980.27062	0.98116
3978.21682	0.98117
3976.16301	0.98139
3974.10921	0.98145
3972.05541	0.98129
3970.00160	0.98150
3967.94780	0.98186
3965.89400	0.98164
3963.84019	0.98103
3961.78639	0.98086
3959.73259	0.98126
3957.67878	0.98150
3955.62498	0.98164
3953.57118	0.98178
3951.51737	0.98137
3949.46357	0.98089
3947.40977	0.98133
3945.35596	0.98207
3943.30216	0.98216
3941.24836	0.98167
3939.19455	0.98125
3937.14075	0.98121
3935.08695	0.98116
3933.03315	0.98067
3930.97934	0.98040
3928.92554	0.98097
3926.87174	0.98154
3924.81793	0.98137
3922.76413	0.98090
3920.71033	0.98111
3918.65652	0.98221
3916.60272	0.98291
3914.54892	0.98227
3912.49511	0.98148
3910.44131	0.98155
3908.38751	0.98203
3906.33370	0.98207
3904.27990	0.98170
3902.22610	0.98144
3900.17229	0.98154
3898.11849	0.98200
3896.06469	0.98238
3894.01088	0.98240
3891.95708	0.98211
3889.90328	0.98193
3887.84947	0.98205
3885.79567	0.98223
3883.74187	0.98276
3881.68807	0.98333
3879.63426	0.98315
3877.58046	0.98306
3875.52666	0.98320
3873.47285	0.98250
3871.41905	0.98172
3869.36525	0.98172
3867.31144	0.98172
3865.25764	0.98162
3863.20384	0.98128
3861.15003	0.98088
3859.09623	0.98109
3857.04243	0.98137
3854.98862	0.98093
3852.93482	0.98083
3850.88102	0.98126
3848.82721	0.98094
3846.77341	0.98054
3844.71961	0.98048
3842.66580	0.98078
3840.61200	0.98121
3838.55820	0.98162
3836.50439	0.98201
3834.45059	0.98227
3832.39679	0.98244
3830.34298	0.98256
3828.28918	0.98242
3826.23538	0.98214
3824.18158	0.98223
3822.12777	0.98248
3820.07397	0.98242
3818.02017	0.98228
3815.96636	0.98218
3813.91256	0.98209
3811.85876	0.98189
3809.80495	0.98147
3807.75115	0.98108
3805.69735	0.98110
3803.64354	0.98119
3801.58974	0.98109
3799.53594	0.98110
3797.48213	0.98105
3795.42833	0.98075
3793.37453	0.98072
3791.32072	0.98123
3789.26692	0.98195
3787.21312	0.98260
3785.15931	0.98298
3783.10551	0.98307
3781.05171	0.98310
3778.99790	0.98308
3776.94410	0.98285
3774.89030	0.98256
3772.83650	0.98233
3770.78269	0.98219
3768.72889	0.98245
3766.67509	0.98288
3764.62128	0.98296
3762.56748	0.98253
3760.51368	0.98191
3758.45987	0.98171
3756.40607	0.98179
3754.35227	0.98149
3752.29846	0.98067
3750.24466	0.98026
3748.19086	0.98068
3746.13705	0.98095
3744.08325	0.98163
3742.02945	0.98284
3739.97564	0.98358
3737.92184	0.98340
3735.86804	0.98266
3733.81423	0.98278
3731.76043	0.98263
3729.70663	0.98146
3727.65282	0.98051
3725.59902	0.98070
3723.54522	0.98159
3721.49141	0.98181
3719.43761	0.98122
3717.38381	0.98065
3715.33001	0.98043
3713.27620	0.98003
3711.22240	0.97891
3709.16860	0.97782
3707.11479	0.97666
3705.06099	0.97483
3703.00719	0.97288
3700.95338	0.97212
3698.89958	0.97256
3696.84578	0.97295
3694.79197	0.97339
3692.73817	0.97417
3690.68437	0.97487
3688.63056	0.97531
3686.57676	0.97568
3684.52296	0.97600
3682.46915	0.97618
3680.41535	0.97622
3678.36155	0.97618
3676.30774	0.97609
3674.25394	0.97606
3672.20014	0.97581
3670.14633	0.97518
3668.09253	0.97469
3666.03873	0.97476
3663.98492	0.97520
3661.93112	0.97543
3659.87732	0.97539
3657.82352	0.97556
3655.76971	0.97558
3653.71591	0.97517
3651.66211	0.97469
3649.60830	0.97400
3647.55450	0.97338
3645.50070	0.97327
3643.44689	0.97297
3641.39309	0.97244
3639.33929	0.97243
3637.28548	0.97320
3635.23168	0.97385
3633.17788	0.97374
3631.12407	0.97309
3629.07027	0.97163
3627.01647	0.96998
3624.96266	0.96920
3622.90886	0.96897
3620.85506	0.96882
3618.80125	0.96855
3616.74745	0.96929
3614.69365	0.97061
3612.63984	0.97119
3610.58604	0.97116
3608.53224	0.97104
3606.47844	0.97094
3604.42463	0.97086
3602.37083	0.97082
3600.31703	0.97056
3598.26322	0.96969
3596.20942	0.96905
3594.15562	0.96936
3592.10181	0.96979
3590.04801	0.96991
3587.99421	0.97000
3585.94040	0.96987
3583.88660	0.96947
3581.83280	0.96908
3579.77899	0.96855
3577.72519	0.96812
3575.67139	0.96825
3573.61758	0.96835
3571.56378	0.96834
3569.50998	0.96848
3567.45617	0.96780
3565.40237	0.96650
3563.34857	0.96600
3561.29476	0.96574
3559.24096	0.96498
3557.18716	0.96403
3555.13335	0.96355
3553.07955	0.96338
3551.02575	0.96297
3548.97195	0.96234
3546.91814	0.96222
3544.86434	0.96249
3542.81054	0.96205
3540.75673	0.96132
3538.70293	0.96143
3536.64913	0.96207
3534.59532	0.96189
3532.54152	0.96134
3530.48772	0.96175
3528.43391	0.96273
3526.38011	0.96330
3524.32631	0.96371
3522.27250	0.96426
3520.21870	0.96453
3518.16490	0.96429
3516.11109	0.96387
3514.05729	0.96368
3512.00349	0.96377
3509.94968	0.96413
3507.89588	0.96482
3505.84208	0.96524
3503.78827	0.96487
3501.73447	0.96476
3499.68067	0.96531
3497.62687	0.96536
3495.57306	0.96477
3493.51926	0.96436
3491.46546	0.96429
3489.41165	0.96430
3487.35785	0.96434
3485.30405	0.96412
3483.25024	0.96343
3481.19644	0.96271
3479.14264	0.96262
3477.08883	0.96308
3475.03503	0.96352
3472.98123	0.96383
3470.92742	0.96399
3468.87362	0.96375
3466.81982	0.96366
3464.76601	0.96416
3462.71221	0.96450
3460.65841	0.96429
3458.60460	0.96379
3456.55080	0.96348
3454.49700	0.96375
3452.44319	0.96416
3450.38939	0.96394
3448.33559	0.96314
3446.28178	0.96246
3444.22798	0.96238
3442.17418	0.96236
3440.12038	0.96201
3438.06657	0.96170
3436.01277	0.96146
3433.95897	0.96112
3431.90516	0.96075
3429.85136	0.96036
3427.79756	0.96002
3425.74375	0.95983
3423.68995	0.95985
3421.63615	0.95981
3419.58234	0.95949
3417.52854	0.95894
3415.47474	0.95834
3413.42093	0.95789
3411.36713	0.95771
3409.31333	0.95774
3407.25952	0.95793
3405.20572	0.95808
3403.15192	0.95807
3401.09811	0.95817
3399.04431	0.95845
3396.99051	0.95865
3394.93670	0.95864
3392.88290	0.95854
3390.82910	0.95877
3388.77529	0.95910
3386.72149	0.95904
3384.66769	0.95908
3382.61389	0.95930
3380.56008	0.95927
3378.50628	0.95936
3376.45248	0.95962
3374.39867	0.95991
3372.34487	0.96065
3370.29107	0.96139
3368.23726	0.96126
3366.18346	0.96058
3364.12966	0.96014
3362.07585	0.96008
3360.02205	0.96005
3357.96825	0.96021
3355.91444	0.96102
3353.86064	0.96193
3351.80684	0.96187
3349.75303	0.96129
3347.69923	0.96129
3345.64543	0.96166
3343.59162	0.96189
3341.53782	0.96205
3339.48402	0.96213
3337.43021	0.96192
3335.37641	0.96187
3333.32261	0.96227
3331.26881	0.96274
3329.21500	0.96302
3327.16120	0.96271
3325.10740	0.96205
3323.05359	0.96185
3320.99979	0.96225
3318.94599	0.96281
3316.89218	0.96299
3314.83838	0.96279
3312.78458	0.96258
3310.73077	0.96260
3308.67697	0.96276
3306.62317	0.96271
3304.56936	0.96288
3302.51556	0.96352
3300.46176	0.96385
3298.40795	0.96364
3296.35415	0.96334
3294.30035	0.96338
3292.24654	0.96374
3290.19274	0.96366
3288.13894	0.96317
3286.08513	0.96309
3284.03133	0.96338
3281.97753	0.96352
3279.92372	0.96346
3277.86992	0.96371
3275.81612	0.96423
3273.76232	0.96419
3271.70851	0.96350
3269.65471	0.96289
3267.60091	0.96300
3265.54710	0.96381
3263.49330	0.96436
3261.43950	0.96433
3259.38569	0.96450
3257.33189	0.96496
3255.27809	0.96503
3253.22428	0.96466
3251.17048	0.96449
3249.11668	0.96488
3247.06287	0.96533
3245.00907	0.96553
3242.95527	0.96575
3240.90146	0.96605
3238.84766	0.96615
3236.79386	0.96610
3234.74005	0.96596
3232.68625	0.96572
3230.63245	0.96564
3228.57864	0.96568
3226.52484	0.96570
3224.47104	0.96568
3222.41724	0.96574
3220.36343	0.96601
3218.30963	0.96638
3216.25583	0.96664
3214.20202	0.96686
3212.14822	0.96679
3210.09442	0.96618
3208.04061	0.96592
3205.98681	0.96643
3203.93301	0.96708
3201.87920	0.96757
3199.82540	0.96814
3197.77160	0.96868
3195.71779	0.96866
3193.66399	0.96812
3191.61019	0.96784
3189.55638	0.96801
3187.50258	0.96819
3185.44878	0.96824
3183.39497	0.96834
3181.34117	0.96861
3179.28737	0.96874
3177.23356	0.96876
3175.17976	0.96908
3173.12596	0.96950
3171.07215	0.96977
3169.01835	0.96989
3166.96455	0.96964
3164.91075	0.96951
3162.85694	0.96996
3160.80314	0.97039
3158.74934	0.97019
3156.69553	0.96967
3154.64173	0.96983
3152.58793	0.97055
3150.53412	0.97078
3148.48032	0.97037
3146.42652	0.96995
3144.37271	0.97017
3142.31891	0.97120
3140.26511	0.97234
3138.21130	0.97297
3136.15750	0.97289
3134.10370	0.97233
3132.04989	0.97198
3129.99609	0.97203
3127.94229	0.97240
3125.88848	0.97307
3123.83468	0.97351
3121.78088	0.97332
3119.72707	0.97297
3117.67327	0.97296
3115.61947	0.97298
3113.56566	0.97303
3111.51186	0.97374
3109.45806	0.97433
3107.40426	0.97420
3105.35045	0.97400
3103.29665	0.97391
3101.24285	0.97377
3099.18904	0.97383
3097.13524	0.97414
3095.08144	0.97432
3093.02763	0.97436
3090.97383	0.97437
3088.92003	0.97434
3086.86622	0.97448
3084.81242	0.97469
3082.75862	0.97467
3080.70481	0.97473
3078.65101	0.97498
3076.59721	0.97501
3074.54340	0.97494
3072.48960	0.97507
3070.43580	0.97529
3068.38199	0.97568
3066.32819	0.97601
3064.27439	0.97602
3062.22058	0.97599
3060.16678	0.97614
3058.11298	0.97622
3056.05918	0.97614
3054.00537	0.97602
3051.95157	0.97585
3049.89777	0.97583
3047.84396	0.97607
3045.79016	0.97627
3043.73636	0.97632
3041.68255	0.97626
3039.62875	0.97620
3037.57495	0.97642
3035.52114	0.97679
3033.46734	0.97689
3031.41354	0.97698
3029.35973	0.97728
3027.30593	0.97750
3025.25213	0.97763
3023.19832	0.97777
3021.14452	0.97755
3019.09072	0.97675
3017.03691	0.97616
3014.98311	0.97664
3012.92931	0.97741
3010.87550	0.97736
3008.82170	0.97687
3006.76790	0.97666
3004.71409	0.97671
3002.66029	0.97682
3000.60649	0.97680
2998.55269	0.97629
2996.49888	0.97557
2994.44508	0.97499
2992.39128	0.97409
2990.33747	0.97275
2988.28367	0.97142
2986.22987	0.97018
2984.17606	0.96864
2982.12226	0.96629
2980.06846	0.96296
2978.01465	0.95888
2975.96085	0.95368
2973.90705	0.94641
2971.85324	0.93695
2969.79944	0.92551
2967.74564	0.91178
2965.69183	0.89592
2963.63803	0.87951
2961.58423	0.86504
2959.53042	0.85423
2957.47662	0.84669
2955.42282	0.84033
2953.36901	0.83364
2951.31521	0.82798
2949.26141	0.82748
2947.20761	0.83552
2945.15380	0.85139
2943.10000	0.86981
2941.04620	0.88425
2938.99239	0.89124
2936.93859	0.89081
2934.88479	0.88452
2932.83098	0.87395
2930.77718	0.86044
2928.72338	0.84549
2926.66957	0.83075
2924.61577	0.81753
2922.56197	0.80594
2920.50816	0.79601
2918.45436	0.78927
2916.40056	0.78812
2914.34675	0.79370
2912.29295	0.80381
2910.23915	0.81461
2908.18534	0.82427
2906.13154	0.83315
2904.07774	0.84195
2902.02393	0.85125
2899.97013	0.86122
2897.91633	0.87102
2895.86252	0.87925
2893.80872	0.88559
2891.75492	0.89002
2889.70112	0.89201
2887.64731	0.89214
2885.59351	0.89113
2883.53971	0.88871
2881.48590	0.88489
2879.43210	0.88063
2877.37830	0.87725
2875.32449	0.87595
2873.27069	0.87635
2871.21689	0.87619
2869.16308	0.87472
2867.10928	0.87454
2865.05548	0.87933
2863.00167	0.89034
2860.94787	0.90421
2858.89407	0.91586
2856.84026	0.92292
2854.78646	0.92565
2852.73266	0.92531
2850.67885	0.92344
2848.62505	0.92057
2846.57125	0.91590
2844.51744	0.90823
2842.46364	0.89737
2840.40984	0.88547
2838.35603	0.87682
2836.30223	0.87613
2834.24843	0.88538
2832.19463	0.90119
2830.14082	0.91773
2828.08702	0.93104
2826.03322	0.94003
2823.97941	0.94578
2821.92561	0.94987
2819.87181	0.95289
2817.81800	0.95501
2815.76420	0.95661
2813.71040	0.95793
2811.65659	0.95902
2809.60279	0.96006
2807.54899	0.96129
2805.49518	0.96273
2803.44138	0.96425
2801.38758	0.96545
2799.33377	0.96601
2797.27997	0.96617
2795.22617	0.96640
2793.17236	0.96695
2791.11856	0.96780
2789.06476	0.96869
2787.01095	0.96955
2784.95715	0.97039
2782.90335	0.97098
2780.84955	0.97120
2778.79574	0.97143
2776.74194	0.97193
2774.68814	0.97242
2772.63433	0.97277
2770.58053	0.97312
2768.52673	0.97328
2766.47292	0.97303
2764.41912	0.97269
2762.36532	0.97285
2760.31151	0.97347
2758.25771	0.97398
2756.20391	0.97437
2754.15010	0.97483
2752.09630	0.97494
2750.04250	0.97472
2747.98869	0.97465
2745.93489	0.97485
2743.88109	0.97499
2741.82728	0.97470
2739.77348	0.97418
2737.71968	0.97392
2735.66587	0.97384
2733.61207	0.97361
2731.55827	0.97316
2729.50446	0.97284
2727.45066	0.97281
2725.39686	0.97237
2723.34306	0.97153
2721.28925	0.97144
2719.23545	0.97207
2717.18165	0.97266
2715.12784	0.97318
2713.07404	0.97387
2711.02024	0.97452
2708.96643	0.97491
2706.91263	0.97514
2704.85883	0.97526
2702.80502	0.97536
2700.75122	0.97561
2698.69742	0.97582
2696.64361	0.97593
2694.58981	0.97611
2692.53601	0.97616
2690.48220	0.97594
2688.42840	0.97584
2686.37460	0.97600
2684.32079	0.97609
2682.26699	0.97597
2680.21319	0.97583
2678.15938	0.97588
2676.10558	0.97612
2674.05178	0.97620
2671.99797	0.97611
2669.94417	0.97609
2667.89037	0.97615
2665.83657	0.97611
2663.78276	0.97598
2661.72896	0.97607
2659.67516	0.97623
2657.62135	0.97602
2655.56755	0.97569
2653.51375	0.97589
2651.45994	0.97629
2649.40614	0.97626
2647.35234	0.97609
2645.29853	0.97616
2643.24473	0.97658
2641.19093	0.97708
2639.13712	0.97718
2637.08332	0.97726
2635.02952	0.97764
2632.97571	0.97805
2630.92191	0.97810
2628.86811	0.97763
2626.81430	0.97731
2624.76050	0.97765
2622.70670	0.97791
2620.65289	0.97772
2618.59909	0.97745
2616.54529	0.97750
2614.49149	0.97803
2612.43768	0.97853
2610.38388	0.97864
2608.33008	0.97872
2606.27627	0.97910
2604.22247	0.97940
2602.16867	0.97906
2600.11486	0.97849
2598.06106	0.97824
2596.00726	0.97841
2593.95345	0.97892
2591.89965	0.97946
2589.84585	0.97948
2587.79204	0.97903
2585.73824	0.97894
2583.68444	0.97901
2581.63063	0.97853
2579.57683	0.97827
2577.52303	0.97875
2575.46922	0.97922
2573.41542	0.97941
2571.36162	0.97946
2569.30781	0.97977
2567.25401	0.98028
2565.20021	0.97997
2563.14640	0.97910
2561.09260	0.97876
2559.03880	0.97895
2556.98500	0.97943
2554.93119	0.97971
2552.87739	0.97950
2550.82359	0.97939
2548.76978	0.97952
2546.71598	0.97988
2544.66218	0.98065
2542.60837	0.98099
2540.55457	0.98048
2538.50077	0.98018
2536.44696	0.98046
2534.39316	0.98068
2532.33936	0.98096
2530.28555	0.98130
2528.23175	0.98134
2526.17795	0.98136
2524.12414	0.98139
2522.07034	0.98100
2520.01654	0.98050
2517.96273	0.98044
2515.90893	0.98036
2513.85513	0.98013
2511.80132	0.98046
2509.74752	0.98141
2507.69372	0.98224
2505.63992	0.98224
2503.58611	0.98185
2501.53231	0.98191
2499.47851	0.98172
2497.42470	0.98120
2495.37090	0.98135
2493.31710	0.98188
2491.26329	0.98202
2489.20949	0.98154
2487.15569	0.98087
2485.10188	0.98081
2483.04808	0.98172
2480.99428	0.98295
2478.94047	0.98316
2476.88667	0.98254
2474.83287	0.98245
2472.77906	0.98271
2470.72526	0.98285
2468.67146	0.98277
2466.61765	0.98248
2464.56385	0.98210
2462.51005	0.98164
2460.45624	0.98168
2458.40244	0.98213
2456.34864	0.98222
2454.29483	0.98203
2452.24103	0.98200
2450.18723	0.98219
2448.13343	0.98245
2446.07962	0.98276
2444.02582	0.98273
2441.97202	0.98218
2439.91821	0.98165
2437.86441	0.98185
2435.81061	0.98249
2433.75680	0.98239
2431.70300	0.98173
2429.64920	0.98164
2427.59539	0.98200
2425.54159	0.98217
2423.48779	0.98239
2421.43398	0.98269
2419.38018	0.98269
2417.32638	0.98299
2415.27257	0.98357
2413.21877	0.98386
2411.16497	0.98390
2409.11116	0.98381
2407.05736	0.98362
2405.00356	0.98320
2402.94975	0.98253
2400.89595	0.98209
2398.84215	0.98184
2396.78834	0.98177
2394.73454	0.98228
2392.68074	0.98291
2390.62694	0.98270
2388.57313	0.98203
2386.51933	0.98184
2384.46553	0.98197
2382.41172	0.98243
2380.35792	0.98305
2378.30412	0.98294
2376.25031	0.98210
2374.19651	0.98160
2372.14271	0.98179
2370.08890	0.98121
2368.03510	0.98031
2365.98130	0.98115
2363.92749	0.98265
2361.87369	0.98334
2359.81989	0.98348
2357.76608	0.98328
2355.71228	0.98300
2353.65848	0.98283
2351.60467	0.98236
2349.55087	0.98171
2347.49707	0.98171
2345.44326	0.98250
2343.38946	0.98327
2341.33566	0.98358
2339.28186	0.98354
2337.22805	0.98303
2335.17425	0.98200
2333.12045	0.98099
2331.06664	0.98149
2329.01284	0.98274
2326.95904	0.98240
2324.90523	0.98110
2322.85143	0.98026
2320.79763	0.98036
2318.74382	0.98153
2316.69002	0.98276
2314.63622	0.98284
2312.58241	0.98181
2310.52861	0.98064
2308.47481	0.98012
2306.42100	0.98081
2304.36720	0.98195
2302.31340	0.98222
2300.25959	0.98190
2298.20579	0.98125
2296.15199	0.98069
2294.09818	0.98093
2292.04438	0.98152
2289.99058	0.98195
2287.93677	0.98214
2285.88297	0.98208
2283.82917	0.98227
2281.77537	0.98290
2279.72156	0.98324
2277.66776	0.98285
2275.61396	0.98259
2273.56015	0.98309
2271.50635	0.98345
2269.45255	0.98357
2267.39874	0.98341
2265.34494	0.98213
2263.29114	0.98088
2261.23733	0.98064
2259.18353	0.98118
2257.12973	0.98238
2255.07592	0.98312
2253.02212	0.98342
2250.96832	0.98392
2248.91451	0.98358
2246.86071	0.98243
2244.80691	0.98222
2242.75310	0.98353
2240.69930	0.98481
2238.64550	0.98508
2236.59169	0.98478
2234.53789	0.98432
2232.48409	0.98409
2230.43029	0.98429
2228.37648	0.98489
2226.32268	0.98508
2224.26888	0.98449
2222.21507	0.98432
2220.16127	0.98450
2218.10747	0.98410
2216.05366	0.98416
2213.99986	0.98498
2211.94606	0.98563
2209.89225	0.98679
2207.83845	0.98816
2205.78465	0.98692
2203.73084	0.98356
2201.67704	0.98216
2199.62324	0.98312
2197.56943	0.98384
2195.51563	0.98363
2193.46183	0.98392
2191.40802	0.98460
2189.35422	0.98462
2187.30042	0.98447
2185.24661	0.98518
2183.19281	0.98642
2181.13901	0.98697
2179.08520	0.98656
2177.03140	0.98563
2174.97760	0.98489
2172.92380	0.98319
2170.86999	0.98104
2168.81619	0.98143
2166.76239	0.98245
2164.70858	0.98090
2162.65478	0.97893
2160.60098	0.97915
2158.54717	0.98145
2156.49337	0.98437
2154.43957	0.98612
2152.38576	0.98699
2150.33196	0.98776
2148.27816	0.98790
2146.22435	0.98742
2144.17055	0.98745
2142.11675	0.98700
2140.06294	0.98607
2138.00914	0.98682
2135.95534	0.98838
2133.90153	0.98889
2131.84773	0.98788
2129.79393	0.98573
2127.74012	0.98390
2125.68632	0.98343
2123.63252	0.98396
2121.57871	0.98430
2119.52491	0.98452
2117.47111	0.98499
2115.41731	0.98428
2113.36350	0.98282
2111.30970	0.98270
2109.25590	0.98308
2107.20209	0.98293
2105.14829	0.98323
2103.09449	0.98415
2101.04068	0.98489
2098.98688	0.98499
2096.93308	0.98483
2094.87927	0.98516
2092.82547	0.98553
2090.77167	0.98523
2088.71786	0.98468
2086.66406	0.98426
2084.61026	0.98413
2082.55645	0.98408
2080.50265	0.98404
2078.44885	0.98475
2076.39504	0.98565
2074.34124	0.98543
2072.28744	0.98460
2070.23363	0.98455
2068.17983	0.98493
2066.12603	0.98459
2064.07223	0.98388
2062.01842	0.98396
2059.96462	0.98531
2057.91082	0.98726
2055.85701	0.98908
2053.80321	0.98961
2051.74941	0.98770
2049.69560	0.98561
2047.64180	0.98585
2045.58800	0.98680
2043.53419	0.98659
2041.48039	0.98507
2039.42659	0.98367
2037.37278	0.98328
2035.31898	0.98212
2033.26518	0.98086
2031.21137	0.98257
2029.15757	0.98629
2027.10377	0.98882
2025.04996	0.98871
2022.99616	0.98732
2020.94236	0.98719
2018.88855	0.98810
2016.83475	0.98832
2014.78095	0.98769
2012.72714	0.98694
2010.67334	0.98743
2008.61954	0.98897
2006.56574	0.98982
2004.51193	0.98964
2002.45813	0.98817
2000.40433	0.98618
1998.35052	0.98611
1996.29672	0.98730
1994.24292	0.98742
1992.18911	0.98738
1990.13531	0.98800
1988.08151	0.98765
1986.02770	0.98696
1983.97390	0.98735
1981.92010	0.98703
1979.86629	0.98489
1977.81249	0.98302
1975.75869	0.98236
1973.70488	0.98236
1971.65108	0.98354
1969.59728	0.98557
1967.54347	0.98739
1965.48967	0.98821
1963.43587	0.98708
1961.38206	0.98605
1959.32826	0.98733
1957.27446	0.98765
1955.22066	0.98580
1953.16685	0.98488
1951.11305	0.98438
1949.05925	0.98295
1947.00544	0.98248
1944.95164	0.98396
1942.89784	0.98599
1940.84403	0.98680
1938.79023	0.98652
1936.73643	0.98588
1934.68262	0.98482
1932.62882	0.98422
1930.57502	0.98497
1928.52121	0.98591
1926.46741	0.98584
1924.41361	0.98552
1922.35980	0.98540
1920.30600	0.98551
1918.25220	0.98606
1916.19839	0.98604
1914.14459	0.98515
1912.09079	0.98458
1910.03698	0.98471
1907.98318	0.98529
1905.92938	0.98608
1903.87557	0.98628
1901.82177	0.98544
1899.76797	0.98402
1897.71417	0.98320
1895.66036	0.98363
1893.60656	0.98459
1891.55276	0.98550
1889.49895	0.98632
1887.44515	0.98676
1885.39135	0.98634
1883.33754	0.98521
1881.28374	0.98434
1879.22994	0.98442
1877.17613	0.98481
1875.12233	0.98505
1873.06853	0.98536
1871.01472	0.98559
1868.96092	0.98590
1866.90712	0.98597
1864.85331	0.98537
1862.79951	0.98509
1860.74571	0.98556
1858.69190	0.98570
1856.63810	0.98527
1854.58430	0.98524
1852.53049	0.98547
1850.47669	0.98543
1848.42289	0.98515
1846.36908	0.98485
1844.31528	0.98476
1842.26148	0.98472
1840.20768	0.98485
1838.15387	0.98515
1836.10007	0.98545
1834.04627	0.98556
1831.99246	0.98521
1829.93866	0.98467
1827.88486	0.98440
1825.83105	0.98446
1823.77725	0.98491
1821.72345	0.98534
1819.66964	0.98536
1817.61584	0.98516
1815.56204	0.98536
1813.50823	0.98581
1811.45443	0.98588
1809.40063	0.98544
1807.34682	0.98505
1805.29302	0.98498
1803.23922	0.98489
1801.18541	0.98461
1799.13161	0.98456
1797.07781	0.98457
1795.02400	0.98438
1792.97020	0.98429
1790.91640	0.98435
1788.86260	0.98453
1786.80879	0.98481
1784.75499	0.98483
1782.70119	0.98447
1780.64738	0.98404
1778.59358	0.98382
1776.53978	0.98387
1774.48597	0.98394
1772.43217	0.98357
1770.37837	0.98311
1768.32456	0.98308
1766.27076	0.98326
1764.21696	0.98338
1762.16315	0.98329
1760.10935	0.98302
1758.05555	0.98249
1756.00174	0.98154
1753.94794	0.98047
1751.89414	0.97930
1749.84033	0.97835
1747.78653	0.97849
1745.73273	0.97890
1743.67892	0.97873
1741.62512	0.97829
1739.57132	0.97797
1737.51751	0.97779
1735.46371	0.97784
1733.40991	0.97814
1731.35611	0.97818
1729.30230	0.97813
1727.24850	0.97836
1725.19470	0.97849
1723.14089	0.97809
1721.08709	0.97760
1719.03329	0.97738
1716.97948	0.97728
1714.92568	0.97707
1712.87188	0.97688
1710.81807	0.97672
1708.76427	0.97656
1706.71047	0.97645
1704.65666	0.97622
1702.60286	0.97590
1700.54906	0.97570
1698.49525	0.97561
1696.44145	0.97512
1694.38765	0.97443
1692.33384	0.97405
1690.28004	0.97343
1688.22624	0.97252
1686.17243	0.97191
1684.11863	0.97143
1682.06483	0.97084
1680.01103	0.97025
1677.95722	0.96971
1675.90342	0.96939
1673.84962	0.96894
1671.79581	0.96804
1669.74201	0.96701
1667.68821	0.96656
1665.63440	0.96639
1663.58060	0.96598
1661.52680	0.96578
1659.47299	0.96593
1657.41919	0.96588
1655.36539	0.96537
1653.31158	0.96431
1651.25778	0.96392
1649.20398	0.96365
1647.15017	0.96290
1645.09637	0.96315
1643.04257	0.96408
1640.98876	0.96462
1638.93496	0.96486
1636.88116	0.96492
1634.82735	0.96443
1632.77355	0.96386
1630.71975	0.96351
1628.66594	0.96309
1626.61214	0.96250
1624.55834	0.96170
1622.50454	0.96110
1620.45073	0.96145
1618.39693	0.96254
1616.34313	0.96399
1614.28932	0.96514
1612.23552	0.96592
1610.18172	0.96654
1608.12791	0.96707
1606.07411	0.96777
1604.02031	0.96875
1601.96650	0.96943
1599.91270	0.96955
1597.85890	0.96969
1595.80509	0.96997
1593.75129	0.97011
1591.69749	0.97016
1589.64368	0.97029
1587.58988	0.97049
1585.53608	0.97060
1583.48227	0.97025
1581.42847	0.96968
1579.37467	0.96958
1577.32086	0.97008
1575.26706	0.97096
1573.21326	0.97155
1571.15945	0.97174
1569.10565	0.97182
1567.05185	0.97207
1564.99805	0.97240
1562.94424	0.97281
1560.89044	0.97342
1558.83664	0.97358
1556.78283	0.97308
1554.72903	0.97308
1552.67523	0.97305
1550.62142	0.97287
1548.56762	0.97289
1546.51382	0.97310
1544.46001	0.97311
1542.40621	0.97254
1540.35241	0.97189
1538.29860	0.97259
1536.24480	0.97353
1534.19100	0.97417
1532.13719	0.97485
1530.08339	0.97554
1528.02959	0.97606
1525.97578	0.97633
1523.92198	0.97629
1521.86818	0.97646
1519.81437	0.97729
1517.76057	0.97765
1515.70677	0.97723
1513.65297	0.97700
1511.59916	0.97714
1509.54536	0.97718
1507.49156	0.97728
1505.43775	0.97763
1503.38395	0.97773
1501.33015	0.97768
1499.27634	0.97748
1497.22254	0.97712
1495.16874	0.97677
1493.11493	0.97667
1491.06113	0.97644
1489.00733	0.97568
1486.95352	0.97454
1484.89972	0.97327
1482.84592	0.97162
1480.79211	0.96934
1478.73831	0.96673
1476.68451	0.96379
1474.63070	0.95892
1472.57690	0.94847
1470.52310	0.93527
1468.46929	0.92389
1466.41549	0.91070
1464.36169	0.89416
1462.30788	0.88159
1460.25408	0.87499
1458.20028	0.86985
1456.14648	0.86554
1454.09267	0.86527
1452.03887	0.86791
1449.98507	0.87476
1447.93126	0.88850
1445.87746	0.90558
1443.82366	0.91936
1441.76985	0.92852
1439.71605	0.93295
1437.66225	0.93402
1435.60844	0.93622
1433.55464	0.94262
1431.50084	0.95047
1429.44703	0.95690
1427.39323	0.96059
1425.33943	0.96268
1423.28562	0.96401
1421.23182	0.96466
1419.17802	0.96489
1417.12421	0.96530
1415.07041	0.96603
1413.01661	0.96673
1410.96280	0.96735
1408.90900	0.96782
1406.85520	0.96819
1404.80139	0.96854
1402.74759	0.96875
1400.69379	0.96886
1398.63999	0.96912
1396.58618	0.96934
1394.53238	0.96891
1392.47858	0.96761
1390.42477	0.96577
1388.37097	0.96237
1386.31717	0.95465
1384.26336	0.94043
1382.20956	0.91554
1380.15576	0.87599
1378.10195	0.83254
1376.04815	0.81180
1373.99435	0.83181
1371.94054	0.87319
1369.88674	0.90698
1367.83294	0.92827
1365.77913	0.93829
1363.72533	0.94035
1361.67153	0.93788
1359.61772	0.93545
1357.56392	0.93688
1355.51012	0.94264
1353.45631	0.94985
1351.40251	0.95555
1349.34871	0.95953
1347.29491	0.96257
1345.24110	0.96483
1343.18730	0.96639
1341.13350	0.96745
1339.07969	0.96807
1337.02589	0.96822
1334.97209	0.96785
1332.91828	0.96724
1330.86448	0.96666
1328.81068	0.96630
1326.75687	0.96653
1324.70307	0.96742
1322.64927	0.96846
1320.59546	0.96929
1318.54166	0.96996
1316.48786	0.97041
1314.43405	0.97071
1312.38025	0.97084
1310.32645	0.97036
1308.27264	0.96886
1306.21884	0.96678
1304.16504	0.96552
1302.11123	0.96590
1300.05743	0.96700
1298.00363	0.96750
1295.94982	0.96737
1293.89602	0.96760
1291.84222	0.96844
1289.78842	0.96927
1287.73461	0.96997
1285.68081	0.97046
1283.62701	0.97048
1281.57320	0.97030
1279.51940	0.97026
1277.46560	0.97013
1275.41179	0.96996
1273.35799	0.96994
1271.30419	0.96988
1269.25038	0.96962
1267.19658	0.96934
1265.14278	0.96889
1263.08897	0.96790
1261.03517	0.96638
1258.98137	0.96458
1256.92756	0.96311
1254.87376	0.96290
1252.81996	0.96395
1250.76615	0.96534
1248.71235	0.96634
1246.65855	0.96682
1244.60474	0.96708
1242.55094	0.96736
1240.49714	0.96758
1238.44334	0.96751
1236.38953	0.96716
1234.33573	0.96690
1232.28193	0.96674
1230.22812	0.96650
1228.17432	0.96601
1226.12052	0.96523
1224.06671	0.96430
1222.01291	0.96354
1219.95911	0.96302
1217.90530	0.96250
1215.85150	0.96208
1213.79770	0.96186
1211.74389	0.96172
1209.69009	0.96172
1207.63629	0.96179
1205.58248	0.96156
1203.52868	0.96088
1201.47488	0.95996
1199.42107	0.95901
1197.36727	0.95805
1195.31347	0.95723
1193.25966	0.95636
1191.20586	0.95509
1189.15206	0.95365
1187.09825	0.95206
1185.04445	0.95018
1182.99065	0.94787
1180.93685	0.94494
1178.88304	0.94130
1176.82924	0.93680
1174.77544	0.93091
1172.72163	0.92295
1170.66783	0.91379
1168.61403	0.90653
1166.56022	0.90366
1164.50642	0.90445
1162.45262	0.90642
1160.39881	0.90805
1158.34501	0.90898
1156.29121	0.90885
1154.23740	0.90789
1152.18360	0.90712
1150.12980	0.90698
1148.07599	0.90748
1146.02219	0.90851
1143.96839	0.90963
1141.91458	0.91078
1139.86078	0.91188
1137.80698	0.91253
1135.75317	0.91253
1133.69937	0.91217
1131.64557	0.91151
1129.59176	0.91042
1127.53796	0.90886
1125.48416	0.90661
1123.43036	0.90357
1121.37655	0.90021
1119.32275	0.89696
1117.26895	0.89417
1115.21514	0.89220
1113.16134	0.89083
1111.10754	0.88933
1109.05373	0.88712
1106.99993	0.88432
1104.94613	0.88162
1102.89232	0.87972
1100.83852	0.87915
1098.78472	0.87985
1096.73091	0.88096
1094.67711	0.88186
1092.62331	0.88252
1090.56950	0.88287
1088.51570	0.88310
1086.46190	0.88356
1084.40809	0.88423
1082.35429	0.88458
1080.30049	0.88445
1078.24668	0.88424
1076.19288	0.88385
1074.13908	0.88303
1072.08528	0.88185
1070.03147	0.88043
1067.97767	0.87905
1065.92387	0.87765
1063.87006	0.87591
1061.81626	0.87374
1059.76246	0.87151
1057.70865	0.86933
1055.65485	0.86682
1053.60105	0.86398
1051.54724	0.86076
1049.49344	0.85701
1047.43964	0.85314
1045.38583	0.84964
1043.33203	0.84663
1041.27823	0.84392
1039.22442	0.84154
1037.17062	0.83967
1035.11682	0.83858
1033.06301	0.83860
1031.00921	0.83973
1028.95541	0.84125
1026.90160	0.84255
1024.84780	0.84375
1022.79400	0.84515
1020.74019	0.84674
1018.68639	0.84780
1016.63259	0.84805
1014.57879	0.84825
1012.52498	0.84854
1010.47118	0.84852
1008.41738	0.84846
1006.36357	0.84830
1004.30977	0.84708
1002.25597	0.84415
1000.20216	0.83981
998.14836	0.83763
996.09456	0.84274
994.04075	0.85446
991.98695	0.86690
989.93315	0.87640
987.87934	0.88344
985.82554	0.88888
983.77174	0.89222
981.71793	0.89319
979.66413	0.89130
977.61033	0.88574
975.55652	0.87801
973.50272	0.87368
971.44892	0.87873
969.39511	0.89171
967.34131	0.90511
965.28751	0.91448
963.23371	0.92033
961.17990	0.92450
959.12610	0.92796
957.07230	0.93052
955.01849	0.93221
952.96469	0.93364
950.91089	0.93497
948.85708	0.93621
946.80328	0.93715
944.74948	0.93731
942.69567	0.93698
940.64187	0.93679
938.58807	0.93725
936.53426	0.93849
934.48046	0.94014
932.42666	0.94163
930.37285	0.94274
928.31905	0.94354
926.26525	0.94382
924.21144	0.94345
922.15764	0.94283
920.10384	0.94232
918.05003	0.94181
915.99623	0.94106
913.94243	0.94021
911.88862	0.93969
909.83482	0.93993
907.78102	0.94091
905.72722	0.94136
903.67341	0.94011
901.61961	0.93824
899.56581	0.93750
897.51200	0.93928
895.45820	0.94344
893.40440	0.94801
891.35059	0.95148
889.29679	0.95357
887.24299	0.95466
885.18918	0.95570
883.13538	0.95694
881.08158	0.95764
879.02777	0.95768
876.97397	0.95748
874.92017	0.95725
872.86636	0.95731
870.81256	0.95775
868.75876	0.95856
866.70495	0.95969
864.65115	0.96061
862.59735	0.96071
860.54354	0.96002
858.48974	0.95975
856.43594	0.96010
854.38213	0.95981
852.32833	0.95911
850.27453	0.95863
848.22073	0.95719
846.16692	0.95196
844.11312	0.94094
842.05932	0.93059
840.00551	0.93173
837.95171	0.94246
835.89791	0.95184
833.84410	0.95592
831.79030	0.95711
829.73650	0.95773
827.68269	0.95860
825.62889	0.95959
823.57509	0.96015
821.52128	0.95984
819.46748	0.95853
817.41368	0.95655
815.35987	0.95410
813.30607	0.95048
811.25227	0.94556
809.19846	0.94184
807.14466	0.94171
805.09086	0.94405
803.03705	0.94682
800.98325	0.94899
798.92945	0.94966
796.87565	0.94965
794.82184	0.95044
792.76804	0.95151
790.71424	0.95216
788.66043	0.95254
786.60663	0.95292
784.55283	0.95349
782.49902	0.95391
780.44522	0.95401
778.39142	0.95419
776.33761	0.95449
774.28381	0.95484
772.23001	0.95542
770.17620	0.95576
768.12240	0.95566
766.06860	0.95543
764.01479	0.95472
761.96099	0.95425
759.90719	0.95442
757.85338	0.95394
755.79958	0.95310
753.74578	0.95289
751.69197	0.95280
749.63817	0.95260
747.58437	0.95250
745.53056	0.95215
743.47676	0.95187
741.42296	0.95225
739.36916	0.95277
737.31535	0.95294
735.26155	0.95273
733.20775	0.95265
731.15394	0.95278
729.10014	0.95230
727.04634	0.95167
724.99253	0.95163
722.93873	0.95126
720.88493	0.95027
718.83112	0.94958
716.77732	0.94953
714.72352	0.94960
712.66971	0.94931
710.61591	0.94847
708.56211	0.94692
706.50830	0.94482
704.45450	0.94329
702.40070	0.94279
700.34689	0.94197
698.29309	0.94053
696.23929	0.93971
694.18548	0.93958
692.13168	0.93904
690.07788	0.93828
688.02408	0.93819
685.97027	0.93812
683.91647	0.93748
681.86267	0.93683
679.80886	0.93644
677.75506	0.93584
675.70126	0.93550
673.64745	0.93578
671.59365	0.93549
669.53985	0.93530
667.48604	0.93685
665.43224	0.93762
663.37844	0.93755
661.32463	0.93830
659.27083	0.93998
657.21703	0.94144
655.16322	0.94165
653.10942	0.94090
651.05562	0.94042
649.00181	0.94071
646.94801	0.94064
644.89421	0.93987
642.84040	0.93976
640.78660	0.93992
638.73280	0.93941
636.67899	0.93930
634.62519	0.93968
632.57139	0.93969
630.51759	0.93953
628.46378	0.93931
626.40998	0.93886
624.35618	0.93790
622.30237	0.93681
620.24857	0.93670
618.19477	0.93656
616.14096	0.93485
614.08716	0.93238
612.03336	0.93072
609.97955	0.93015
607.92575	0.92905
605.87195	0.92709
603.81814	0.92636
601.76434	0.92707
599.71054	0.92715
597.65673	0.92696
595.60293	0.92778
593.54913	0.92781
591.49532	0.92641
589.44152	0.92509
587.38772	0.92422
585.33391	0.92419
583.28011	0.92473
581.22631	0.92421
579.17250	0.92253
577.11870	0.92138
575.06490	0.92162
573.01110	0.92270
570.95729	0.92387
568.90349	0.92420
566.84969	0.92279
564.79588	0.92015
562.74208	0.91825
560.68828	0.91831
558.63447	0.91874
556.58067	0.91778
554.52687	0.91551
552.47306	0.91334
550.41926	0.91301
548.36546	0.91306
546.31165	0.91113
544.25785	0.90859
542.20405	0.90688
540.15024	0.90529
538.09644	0.90254
536.04264	0.89973
533.98883	0.89949
531.93503	0.90019
529.88123	0.90007
527.82742	0.90079
525.77362	0.90275
523.71982	0.90523
521.66602	0.90700
519.61221	0.90719
517.55841	0.90875
515.50461	0.91332
513.45080	0.91591
511.39700	0.91413
509.34320	0.91242
507.28939	0.91416
505.23559	0.91649
503.18179	0.91706
501.12798	0.91844
499.07418	0.92037
497.02038	0.92010
494.96657	0.91903
492.91277	0.91782
490.85897	0.91461
488.80516	0.91155
486.75136	0.91144
484.69756	0.91177
482.64375	0.90893
480.58995	0.90367
478.53615	0.89761
476.48234	0.89129
474.42854	0.88543
472.37474	0.88026
470.32093	0.87616
468.26713	0.87290
466.21333	0.87027
464.15953	0.86956
462.10572	0.87162
460.05192	0.87574
457.99812	0.88184
455.94431	0.88772
453.89051	0.88934
451.83671	0.88926
449.78290	0.89199
447.72910	0.89706
445.67530	0.90003
443.62149	0.89822
441.56769	0.89522
439.51389	0.89653
437.46008	0.90077
435.40628	0.90241
433.35248	0.90154
431.29867	0.90016
429.24487	0.89863
427.19107	0.89745
425.13726	0.89503
423.08346	0.89564
421.02966	0.90376
418.97585	0.90855
416.92205	0.90410
414.86825	0.90730
412.81445	0.91463
410.76064	0.91687
408.70684	0.91905
406.65304	0.92271
404.59923	0.92021
402.54543	0.91612
400.49163	0.91845
398.43782	0.92620
