3996.70104	0.97902
3994.64724	0.97851
3992.59344	0.97856
3990.53964	0.97889
3988.48583	0.97836
3986.43203	0.97761
3984.37823	0.97762
3982.32442	0.97792
3980.27062	0.97797
3978.21682	0.97808
3976.16301	0.97858
3974.10921	0.97905
3972.05541	0.97890
3970.00160	0.97820
3967.94780	0.97773
3965.89400	0.97799
3963.84019	0.97840
3961.78639	0.97858
3959.73259	0.97885
3957.67878	0.97884
3955.62498	0.97820
3953.57118	0.97753
3951.51737	0.97735
3949.46357	0.97769
3947.40977	0.97815
3945.35596	0.97829
3943.30216	0.97824
3941.24836	0.97823
3939.19455	0.97874
3937.14075	0.97957
3935.08695	0.97972
3933.03315	0.97940
3930.97934	0.97943
3928.92554	0.97942
3926.87174	0.97889
3924.81793	0.97834
3922.76413	0.97845
3920.71033	0.97898
3918.65652	0.97946
3916.60272	0.97992
3914.54892	0.97985
3912.49511	0.97904
3910.44131	0.97851
3908.38751	0.97879
3906.33370	0.97910
3904.27990	0.97879
3902.22610	0.97853
3900.17229	0.97856
3898.11849	0.97819
3896.06469	0.97774
3894.01088	0.97782
3891.95708	0.97811
3889.90328	0.97786
3887.84947	0.97755
3885.79567	0.97810
3883.74187	0.97909
3881.68807	0.97906
3879.63426	0.97835
3877.58046	0.97822
3875.52666	0.97865
3873.47285	0.97907
3871.41905	0.97903
3869.36525	0.97844
3867.31144	0.97800
3865.25764	0.97819
3863.20384	0.97834
3861.15003	0.97791
3859.09623	0.97762
3857.04243	0.97795
3854.98862	0.97889
3852.93482	0.97966
3850.88102	0.97920
3848.82721	0.97858
3846.77341	0.97824
3844.71961	0.97826
3842.66580	0.97844
3840.61200	0.97840
3838.55820	0.97840
3836.50439	0.97905
3834.45059	0.97937
3832.39679	0.97880
3830.34298	0.97839
3828.28918	0.97860
3826.23538	0.97907
3824.18158	0.97944
3822.12777	0.97948
3820.07397	0.97940
3818.02017	0.97902
3815.96636	0.97806
3813.91256	0.97736
3811.85876	0.97769
3809.80495	0.97864
3807.75115	0.97919
3805.69735	0.97881
3803.64354	0.97850
3801.58974	0.97892
3799.53594	0.97933
3797.48213	0.97921
3795.42833	0.97917
3793.37453	0.97916
3791.32072	0.97895
3789.26692	0.97899
3787.21312	0.97922
3785.15931	0.97876
3783.10551	0.97799
3781.05171	0.97801
3778.99790	0.97849
3776.94410	0.97869
3774.89030	0.97854
3772.83650	0.97801
3770.78269	0.97741
3768.72889	0.97741
3766.67509	0.97777
3764.62128	0.97790
3762.56748	0.97786
3760.51368	0.97810
3758.45987	0.97904
3756.40607	0.98006
3754.35227	0.98009
3752.29846	0.97898
3750.24466	0.97818
3748.19086	0.97817
3746.13705	0.97765
3744.08325	0.97829
3742.02945	0.98008
3739.97564	0.98051
3737.92184	0.97979
3735.86804	0.97891
3733.81423	0.97885
3731.76043	0.97926
3729.70663	0.97926
3727.65282	0.97907
3725.59902	0.97891
3723.54522	0.97815
3721.49141	0.97691
3719.43761	0.97632
3717.38381	0.97629
3715.33001	0.97601
3713.27620	0.97507
3711.22240	0.97356
3709.16860	0.97226
3707.11479	0.97063
3705.06099	0.96811
3703.00719	0.96582
3700.95338	0.96453
3698.89958	0.96350
3696.84578	0.96286
3694.79197	0.96309
3692.73817	0.96363
3690.68437	0.96492
3688.63056	0.96672
3686.57676	0.96698
3684.52296	0.96707
3682.46915	0.96795
3680.41535	0.96906
3678.36155	0.96980
3676.30774	0.96941
3674.25394	0.96788
3672.20014	0.96686
3670.14633	0.96645
3668.09253	0.96631
3666.03873	0.96618
3663.98492	0.96580
3661.93112	0.96518
3659.87732	0.96460
3657.82352	0.96394
3655.76971	0.96340
3653.71591	0.96325
3651.66211	0.96280
3649.60830	0.96189
3647.55450	0.96110
3645.50070	0.96060
3643.44689	0.96059
3641.39309	0.96049
3639.33929	0.95958
3637.28548	0.95842
3635.23168	0.95759
3633.17788	0.95693
3631.12407	0.95621
3629.07027	0.95527
3627.01647	0.95465
3624.96266	0.95443
3622.90886	0.95454
3620.85506	0.95494
3618.80125	0.95518
3616.74745	0.95520
3614.69365	0.95505
3612.63984	0.95477
3610.58604	0.95466
3608.53224	0.95449
3606.47844	0.95451
3604.42463	0.95487
3602.37083	0.95482
3600.31703	0.95444
3598.26322	0.95426
3596.20942	0.95412
3594.15562	0.95407
3592.10181	0.95425
3590.04801	0.95449
3587.99421	0.95449
3585.94040	0.95387
3583.88660	0.95308
3581.83280	0.95256
3579.77899	0.95233
3577.72519	0.95219
3575.67139	0.95186
3573.61758	0.95127
3571.56378	0.95075
3569.50998	0.95033
3567.45617	0.95010
3565.40237	0.95006
3563.34857	0.94985
3561.29476	0.94981
3559.24096	0.94954
3557.18716	0.94854
3555.13335	0.94749
3553.07955	0.94684
3551.02575	0.94661
3548.97195	0.94674
3546.91814	0.94686
3544.86434	0.94630
3542.81054	0.94519
3540.75673	0.94466
3538.70293	0.94489
3536.64913	0.94498
3534.59532	0.94467
3532.54152	0.94423
3530.48772	0.94394
3528.43391	0.94421
3526.38011	0.94472
3524.32631	0.94485
3522.27250	0.94515
3520.21870	0.94599
3518.16490	0.94663
3516.11109	0.94660
3514.05729	0.94628
3512.00349	0.94644
3509.94968	0.94689
3507.89588	0.94666
3505.84208	0.94619
3503.78827	0.94606
3501.73447	0.94587
3499.68067	0.94600
3497.62687	0.94629
3495.57306	0.94625
3493.51926	0.94632
3491.46546	0.94637
3489.41165	0.94596
3487.35785	0.94560
3485.30405	0.94590
3483.25024	0.94669
3481.19644	0.94707
3479.14264	0.94674
3477.08883	0.94641
3475.03503	0.94637
3472.98123	0.94649
3470.92742	0.94644
3468.87362	0.94603
3466.81982	0.94551
3464.76601	0.94508
3462.71221	0.94502
3460.65841	0.94540
3458.60460	0.94552
3456.55080	0.94526
3454.49700	0.94528
3452.44319	0.94545
3450.38939	0.94519
3448.33559	0.94426
3446.28178	0.94314
3444.22798	0.94284
3442.17418	0.94308
3440.12038	0.94289
3438.06657	0.94239
3436.01277	0.94227
3433.95897	0.94244
3431.90516	0.94210
3429.85136	0.94120
3427.79756	0.94067
3425.74375	0.94069
3423.68995	0.94028
3421.63615	0.93922
3419.58234	0.93838
3417.52854	0.93811
3415.47474	0.93806
3413.42093	0.93802
3411.36713	0.93799
3409.31333	0.93782
3407.25952	0.93722
3405.20572	0.93672
3403.15192	0.93686
3401.09811	0.93712
3399.04431	0.93699
3396.99051	0.93661
3394.93670	0.93638
3392.88290	0.93657
3390.82910	0.93705
3388.77529	0.93736
3386.72149	0.93784
3384.66769	0.93884
3382.61389	0.93962
3380.56008	0.93974
3378.50628	0.93959
3376.45248	0.93974
3374.39867	0.94009
3372.34487	0.94020
3370.29107	0.94048
3368.23726	0.94113
3366.18346	0.94157
3364.12966	0.94162
3362.07585	0.94155
3360.02205	0.94192
3357.96825	0.94270
3355.91444	0.94305
3353.86064	0.94288
3351.80684	0.94287
3349.75303	0.94315
3347.69923	0.94319
3345.64543	0.94296
3343.59162	0.94342
3341.53782	0.94422
3339.48402	0.94425
3337.43021	0.94394
3335.37641	0.94389
3333.32261	0.94429
3331.26881	0.94513
3329.21500	0.94573
3327.16120	0.94589
3325.10740	0.94582
3323.05359	0.94575
3320.99979	0.94567
3318.94599	0.94551
3316.89218	0.94558
3314.83838	0.94587
3312.78458	0.94609
3310.73077	0.94615
3308.67697	0.94641
3306.62317	0.94687
3304.56936	0.94683
3302.51556	0.94639
3300.46176	0.94644
3298.40795	0.94690
3296.35415	0.94714
3294.30035	0.94767
3292.24654	0.94859
3290.19274	0.94898
3288.13894	0.94839
3286.08513	0.94763
3284.03133	0.94771
3281.97753	0.94817
3279.92372	0.94842
3277.86992	0.94873
3275.81612	0.94911
3273.76232	0.94939
3271.70851	0.94951
3269.65471	0.94948
3267.60091	0.94946
3265.54710	0.94966
3263.49330	0.95005
3261.43950	0.95058
3259.38569	0.95112
3257.33189	0.95113
3255.27809	0.95058
3253.22428	0.95024
3251.17048	0.95048
3249.11668	0.95095
3247.06287	0.95130
3245.00907	0.95126
3242.95527	0.95077
3240.90146	0.95076
3238.84766	0.95150
3236.79386	0.95196
3234.74005	0.95206
3232.68625	0.95247
3230.63245	0.95288
3228.57864	0.95304
3226.52484	0.95324
3224.47104	0.95355
3222.41724	0.95368
3220.36343	0.95358
3218.30963	0.95385
3216.25583	0.95461
3214.20202	0.95499
3212.14822	0.95488
3210.09442	0.95513
3208.04061	0.95555
3205.98681	0.95558
3203.93301	0.95559
3201.87920	0.95594
3199.82540	0.95632
3197.77160	0.95660
3195.71779	0.95690
3193.66399	0.95681
3191.61019	0.95652
3189.55638	0.95658
3187.50258	0.95688
3185.44878	0.95748
3183.39497	0.95847
3181.34117	0.95916
3179.28737	0.95920
3177.23356	0.95893
3175.17976	0.95856
3173.12596	0.95868
3171.07215	0.95954
3169.01835	0.96028
3166.96455	0.96036
3164.91075	0.96016
3162.85694	0.96026
3160.80314	0.96077
3158.74934	0.96091
3156.69553	0.96043
3154.64173	0.96022
3152.58793	0.96084
3150.53412	0.96152
3148.48032	0.96160
3146.42652	0.96183
3144.37271	0.96272
3142.31891	0.96326
3140.26511	0.96306
3138.21130	0.96303
3136.15750	0.96365
3134.10370	0.96448
3132.04989	0.96459
3129.99609	0.96386
3127.94229	0.96344
3125.88848	0.96381
3123.83468	0.96418
3121.78088	0.96413
3119.72707	0.96444
3117.67327	0.96544
3115.61947	0.96606
3113.56566	0.96600
3111.51186	0.96608
3109.45806	0.96617
3107.40426	0.96617
3105.35045	0.96644
3103.29665	0.96688
3101.24285	0.96707
3099.18904	0.96674
3097.13524	0.96643
3095.08144	0.96663
3093.02763	0.96706
3090.97383	0.96735
3088.92003	0.96704
3086.86622	0.96623
3084.81242	0.96610
3082.75862	0.96705
3080.70481	0.96777
3078.65101	0.96763
3076.59721	0.96757
3074.54340	0.96806
3072.48960	0.96861
3070.43580	0.96878
3068.38199	0.96855
3066.32819	0.96828
3064.27439	0.96840
3062.22058	0.96857
3060.16678	0.96823
3058.11298	0.96792
3056.05918	0.96814
3054.00537	0.96845
3051.95157	0.96861
3049.89777	0.96885
3047.84396	0.96923
3045.79016	0.96960
3043.73636	0.96974
3041.68255	0.96946
3039.62875	0.96902
3037.57495	0.96900
3035.52114	0.96940
3033.46734	0.96957
3031.41354	0.96935
3029.35973	0.96923
3027.30593	0.96960
3025.25213	0.97018
3023.19832	0.97043
3021.14452	0.97023
3019.09072	0.97006
3017.03691	0.97027
3014.98311	0.97066
3012.92931	0.97105
3010.87550	0.97141
3008.82170	0.97148
3006.76790	0.97123
3004.71409	0.97110
3002.66029	0.97105
3000.60649	0.97103
2998.55269	0.97107
2996.49888	0.97086
2994.44508	0.97078
2992.39128	0.97113
2990.33747	0.97127
2988.28367	0.97107
2986.22987	0.97092
2984.17606	0.97062
2982.12226	0.96997
2980.06846	0.96939
2978.01465	0.96918
2975.96085	0.96903
2973.90705	0.96866
2971.85324	0.96796
2969.79944	0.96685
2967.74564	0.96550
2965.69183	0.96415
2963.63803	0.96270
2961.58423	0.96115
2959.53042	0.95971
2957.47662	0.95813
2955.42282	0.95651
2953.36901	0.95546
2951.31521	0.95423
2949.26141	0.95215
2947.20761	0.94965
2945.15380	0.94632
2943.10000	0.94149
2941.04620	0.93524
2938.99239	0.92749
2936.93859	0.91792
2934.88479	0.90629
2932.83098	0.89271
2930.77718	0.87695
2928.72338	0.85819
2926.66957	0.83597
2924.61577	0.81024
2922.56197	0.78094
2920.50816	0.74913
2918.45436	0.71866
2916.40056	0.69666
2914.34675	0.69038
2912.29295	0.70150
2910.23915	0.72380
2908.18534	0.74843
2906.13154	0.77030
2904.07774	0.78819
2902.02393	0.80228
2899.97013	0.81358
2897.91633	0.82322
2895.86252	0.83170
2893.80872	0.83963
2891.75492	0.84757
2889.70112	0.85564
2887.64731	0.86410
2885.59351	0.87308
2883.53971	0.88218
2881.48590	0.89090
2879.43210	0.89898
2877.37830	0.90656
2875.32449	0.91342
2873.27069	0.91873
2871.21689	0.92234
2869.16308	0.92448
2867.10928	0.92477
2865.05548	0.92287
2863.00167	0.91840
2860.94787	0.90996
2858.89407	0.89541
2856.84026	0.87303
2854.78646	0.84159
2852.73266	0.80155
2850.67885	0.75976
2848.62505	0.73095
2846.57125	0.72742
2844.51744	0.74743
2842.46364	0.77919
2840.40984	0.81196
2838.35603	0.84044
2836.30223	0.86355
2834.24843	0.88156
2832.19463	0.89525
2830.14082	0.90584
2828.08702	0.91414
2826.03322	0.92070
2823.97941	0.92590
2821.92561	0.93017
2819.87181	0.93400
2817.81800	0.93740
2815.76420	0.94012
2813.71040	0.94235
2811.65659	0.94458
2809.60279	0.94667
2807.54899	0.94822
2805.49518	0.94947
2803.44138	0.95078
2801.38758	0.95197
2799.33377	0.95304
2797.27997	0.95410
2795.22617	0.95490
2793.17236	0.95556
2791.11856	0.95644
2789.06476	0.95736
2787.01095	0.95805
2784.95715	0.95873
2782.90335	0.95961
2780.84955	0.96058
2778.79574	0.96129
2776.74194	0.96163
2774.68814	0.96212
2772.63433	0.96281
2770.58053	0.96321
2768.52673	0.96342
2766.47292	0.96370
2764.41912	0.96399
2762.36532	0.96436
2760.31151	0.96474
2758.25771	0.96490
2756.20391	0.96508
2754.15010	0.96544
2752.09630	0.96573
2750.04250	0.96596
2747.98869	0.96636
2745.93489	0.96678
2743.88109	0.96699
2741.82728	0.96701
2739.77348	0.96699
2737.71968	0.96710
2735.66587	0.96724
2733.61207	0.96727
2731.55827	0.96726
2729.50446	0.96735
2727.45066	0.96760
2725.39686	0.96802
2723.34306	0.96845
2721.28925	0.96853
2719.23545	0.96848
2717.18165	0.96870
2715.12784	0.96890
2713.07404	0.96889
2711.02024	0.96897
2708.96643	0.96918
2706.91263	0.96922
2704.85883	0.96907
2702.80502	0.96901
2700.75122	0.96922
2698.69742	0.96957
2696.64361	0.96976
2694.58981	0.96989
2692.53601	0.97010
2690.48220	0.97010
2688.42840	0.96999
2686.37460	0.97006
2684.32079	0.97040
2682.26699	0.97079
2680.21319	0.97085
2678.15938	0.97056
2676.10558	0.97026
2674.05178	0.97009
2671.99797	0.97000
2669.94417	0.97002
2667.89037	0.96990
2665.83657	0.96957
2663.78276	0.96958
2661.72896	0.96985
2659.67516	0.96999
2657.62135	0.97016
2655.56755	0.97030
2653.51375	0.97008
2651.45994	0.96981
2649.40614	0.96993
2647.35234	0.97030
2645.29853	0.97047
2643.24473	0.97013
2641.19093	0.96957
2639.13712	0.96936
2637.08332	0.96949
2635.02952	0.96972
2632.97571	0.96997
2630.92191	0.96995
2628.86811	0.96971
2626.81430	0.96981
2624.76050	0.97021
2622.70670	0.97052
2620.65289	0.97088
2618.59909	0.97163
2616.54529	0.97260
2614.49149	0.97307
2612.43768	0.97283
2610.38388	0.97257
2608.33008	0.97291
2606.27627	0.97342
2604.22247	0.97308
2602.16867	0.97239
2600.11486	0.97250
2598.06106	0.97304
2596.00726	0.97343
2593.95345	0.97363
2591.89965	0.97375
2589.84585	0.97383
2587.79204	0.97390
2585.73824	0.97418
2583.68444	0.97436
2581.63063	0.97402
2579.57683	0.97375
2577.52303	0.97391
2575.46922	0.97403
2573.41542	0.97387
2571.36162	0.97367
2569.30781	0.97362
2567.25401	0.97376
2565.20021	0.97411
2563.14640	0.97477
2561.09260	0.97555
2559.03880	0.97575
2556.98500	0.97553
2554.93119	0.97581
2552.87739	0.97651
2550.82359	0.97678
2548.76978	0.97647
2546.71598	0.97603
2544.66218	0.97587
2542.60837	0.97619
2540.55457	0.97633
2538.50077	0.97594
2536.44696	0.97573
2534.39316	0.97566
2532.33936	0.97562
2530.28555	0.97600
2528.23175	0.97640
2526.17795	0.97649
2524.12414	0.97660
2522.07034	0.97698
2520.01654	0.97721
2517.96273	0.97705
2515.90893	0.97668
2513.85513	0.97613
2511.80132	0.97618
2509.74752	0.97695
2507.69372	0.97706
2505.63992	0.97628
2503.58611	0.97571
2501.53231	0.97593
2499.47851	0.97649
2497.42470	0.97678
2495.37090	0.97659
2493.31710	0.97639
2491.26329	0.97651
2489.20949	0.97658
2487.15569	0.97641
2485.10188	0.97636
2483.04808	0.97698
2480.99428	0.97786
2478.94047	0.97802
2476.88667	0.97767
2474.83287	0.97717
2472.77906	0.97655
2470.72526	0.97653
2468.67146	0.97718
2466.61765	0.97768
2464.56385	0.97760
2462.51005	0.97729
2460.45624	0.97710
2458.40244	0.97721
2456.34864	0.97764
2454.29483	0.97757
2452.24103	0.97678
2450.18723	0.97631
2448.13343	0.97627
2446.07962	0.97614
2444.02582	0.97624
2441.97202	0.97689
2439.91821	0.97740
2437.86441	0.97721
2435.81061	0.97679
2433.75680	0.97663
2431.70300	0.97670
2429.64920	0.97684
2427.59539	0.97722
2425.54159	0.97780
2423.48779	0.97784
2421.43398	0.97767
2419.38018	0.97796
2417.32638	0.97830
2415.27257	0.97856
2413.21877	0.97854
2411.16497	0.97796
2409.11116	0.97754
2407.05736	0.97777
2405.00356	0.97780
2402.94975	0.97725
2400.89595	0.97700
2398.84215	0.97715
2396.78834	0.97733
2394.73454	0.97745
2392.68074	0.97759
2390.62694	0.97770
2388.57313	0.97769
2386.51933	0.97796
2384.46553	0.97838
2382.41172	0.97832
2380.35792	0.97788
2378.30412	0.97767
2376.25031	0.97805
2374.19651	0.97865
2372.14271	0.97849
2370.08890	0.97721
2368.03510	0.97553
2365.98130	0.97462
2363.92749	0.97556
2361.87369	0.97743
2359.81989	0.97775
2357.76608	0.97636
2355.71228	0.97582
2353.65848	0.97704
2351.60467	0.97818
2349.55087	0.97808
2347.49707	0.97708
2345.44326	0.97620
2343.38946	0.97653
2341.33566	0.97742
2339.28186	0.97743
2337.22805	0.97687
2335.17425	0.97645
2333.12045	0.97592
2331.06664	0.97608
2329.01284	0.97706
2326.95904	0.97684
2324.90523	0.97566
2322.85143	0.97535
2320.79763	0.97561
2318.74382	0.97571
2316.69002	0.97580
2314.63622	0.97582
2312.58241	0.97604
2310.52861	0.97670
2308.47481	0.97738
2306.42100	0.97748
2304.36720	0.97675
2302.31340	0.97591
2300.25959	0.97626
2298.20579	0.97744
2296.15199	0.97760
2294.09818	0.97647
2292.04438	0.97549
2289.99058	0.97570
2287.93677	0.97681
2285.88297	0.97760
2283.82917	0.97775
2281.77537	0.97810
2279.72156	0.97858
2277.66776	0.97842
2275.61396	0.97749
2273.56015	0.97645
2271.50635	0.97616
2269.45255	0.97661
2267.39874	0.97703
2265.34494	0.97730
2263.29114	0.97770
2261.23733	0.97801
2259.18353	0.97786
2257.12973	0.97765
2255.07592	0.97834
2253.02212	0.97922
2250.96832	0.97907
2248.91451	0.97825
2246.86071	0.97794
2244.80691	0.97799
2242.75310	0.97730
2240.69930	0.97707
2238.64550	0.97744
2236.59169	0.97727
2234.53789	0.97724
2232.48409	0.97748
2230.43029	0.97835
2228.37648	0.97956
2226.32268	0.97975
2224.26888	0.97987
2222.21507	0.98058
2220.16127	0.98022
2218.10747	0.97853
2216.05366	0.97713
2213.99986	0.97652
2211.94606	0.97646
2209.89225	0.97664
2207.83845	0.97722
2205.78465	0.97816
2203.73084	0.97915
2201.67704	0.98047
2199.62324	0.98072
2197.56943	0.98034
2195.51563	0.98127
2193.46183	0.98223
2191.40802	0.98200
2189.35422	0.98062
2187.30042	0.97958
2185.24661	0.98033
2183.19281	0.98102
2181.13901	0.98064
2179.08520	0.98119
2177.03140	0.98373
2174.97760	0.98632
2172.92380	0.98625
2170.86999	0.98309
2168.81619	0.97903
2166.76239	0.97677
2164.70858	0.97696
2162.65478	0.97728
2160.60098	0.97690
2158.54717	0.97773
2156.49337	0.97930
2154.43957	0.98018
2152.38576	0.97984
2150.33196	0.97962
2148.27816	0.98085
2146.22435	0.98110
2144.17055	0.98005
2142.11675	0.98030
2140.06294	0.98169
2138.00914	0.98207
2135.95534	0.98155
2133.90153	0.98158
2131.84773	0.98131
2129.79393	0.98060
2127.74012	0.98093
2125.68632	0.98136
2123.63252	0.98080
2121.57871	0.98096
2119.52491	0.98188
2117.47111	0.98121
2115.41731	0.97940
2113.36350	0.97860
2111.30970	0.97846
2109.25590	0.97824
2107.20209	0.97867
2105.14829	0.97950
2103.09449	0.98013
2101.04068	0.98081
2098.98688	0.98194
2096.93308	0.98288
2094.87927	0.98274
2092.82547	0.98208
2090.77167	0.98111
2088.71786	0.97920
2086.66406	0.97744
2084.61026	0.97785
2082.55645	0.97966
2080.50265	0.98101
2078.44885	0.98158
2076.39504	0.98131
2074.34124	0.98023
2072.28744	0.97941
2070.23363	0.97983
2068.17983	0.98057
2066.12603	0.98063
2064.07223	0.98090
2062.01842	0.98157
2059.96462	0.98158
2057.91082	0.98030
2055.85701	0.97871
2053.80321	0.97898
2051.74941	0.98041
2049.69560	0.98079
2047.64180	0.97944
2045.58800	0.97764
2043.53419	0.97694
2041.48039	0.97609
2039.42659	0.97551
2037.37278	0.97742
2035.31898	0.98069
2033.26518	0.98349
2031.21137	0.98448
2029.15757	0.98288
2027.10377	0.98106
2025.04996	0.98002
2022.99616	0.97971
2020.94236	0.98144
2018.88855	0.98273
2016.83475	0.98203
2014.78095	0.98201
2012.72714	0.98191
2010.67334	0.97995
2008.61954	0.98069
2006.56574	0.98485
2004.51193	0.98527
2002.45813	0.98203
2000.40433	0.97965
1998.35052	0.97907
1996.29672	0.98041
1994.24292	0.98283
1992.18911	0.98423
1990.13531	0.98401
1988.08151	0.98260
1986.02770	0.98012
1983.97390	0.97768
1981.92010	0.97711
1979.86629	0.97907
1977.81249	0.98188
1975.75869	0.98342
1973.70488	0.98360
1971.65108	0.98345
1969.59728	0.98393
1967.54347	0.98465
1965.48967	0.98285
1963.43587	0.97957
1961.38206	0.97959
1959.32826	0.98237
1957.27446	0.98386
1955.22066	0.98368
1953.16685	0.98355
1951.11305	0.98366
1949.05925	0.98306
1947.00544	0.98169
1944.95164	0.98015
1942.89784	0.97850
1940.84403	0.97732
1938.79023	0.97711
1936.73643	0.97791
1934.68262	0.97919
1932.62882	0.97947
1930.57502	0.97917
1928.52121	0.97907
1926.46741	0.97877
1924.41361	0.97909
1922.35980	0.98025
1920.30600	0.98066
1918.25220	0.98007
1916.19839	0.97948
1914.14459	0.97949
1912.09079	0.98031
1910.03698	0.98109
1907.98318	0.98079
1905.92938	0.98001
1903.87557	0.97957
1901.82177	0.97914
1899.76797	0.97836
1897.71417	0.97805
1895.66036	0.97880
1893.60656	0.97941
1891.55276	0.97929
1889.49895	0.97930
1887.44515	0.97953
1885.39135	0.97960
1883.33754	0.97958
1881.28374	0.97977
1879.22994	0.98011
1877.17613	0.98013
1875.12233	0.97975
1873.06853	0.97940
1871.01472	0.97913
1868.96092	0.97890
1866.90712	0.97930
1864.85331	0.97966
1862.79951	0.97965
1860.74571	0.97996
1858.69190	0.98032
1856.63810	0.98011
1854.58430	0.97950
1852.53049	0.97929
1850.47669	0.97951
1848.42289	0.97948
1846.36908	0.97968
1844.31528	0.98067
1842.26148	0.98100
1840.20768	0.98045
1838.15387	0.98010
1836.10007	0.98004
1834.04627	0.97978
1831.99246	0.97909
1829.93866	0.97860
1827.88486	0.97880
1825.83105	0.97928
1823.77725	0.97962
1821.72345	0.97947
1819.66964	0.97941
1817.61584	0.97973
1815.56204	0.97979
1813.50823	0.97940
1811.45443	0.97890
1809.40063	0.97863
1807.34682	0.97867
1805.29302	0.97887
1803.23922	0.97936
1801.18541	0.97981
1799.13161	0.97932
1797.07781	0.97847
1795.02400	0.97852
1792.97020	0.97921
1790.91640	0.97917
1788.86260	0.97835
1786.80879	0.97746
1784.75499	0.97701
1782.70119	0.97729
1780.64738	0.97772
1778.59358	0.97785
1776.53978	0.97779
1774.48597	0.97776
1772.43217	0.97786
1770.37837	0.97759
1768.32456	0.97681
1766.27076	0.97629
1764.21696	0.97629
1762.16315	0.97650
1760.10935	0.97658
1758.05555	0.97640
1756.00174	0.97610
1753.94794	0.97594
1751.89414	0.97606
1749.84033	0.97603
1747.78653	0.97514
1745.73273	0.97423
1743.67892	0.97414
1741.62512	0.97428
1739.57132	0.97384
1737.51751	0.97327
1735.46371	0.97299
1733.40991	0.97281
1731.35611	0.97272
1729.30230	0.97240
1727.24850	0.97203
1725.19470	0.97181
1723.14089	0.97133
1721.08709	0.97056
1719.03329	0.96998
1716.97948	0.96967
1714.92568	0.96940
1712.87188	0.96948
1710.81807	0.96965
1708.76427	0.96910
1706.71047	0.96805
1704.65666	0.96776
1702.60286	0.96803
1700.54906	0.96772
1698.49525	0.96666
1696.44145	0.96538
1694.38765	0.96449
1692.33384	0.96402
1690.28004	0.96291
1688.22624	0.96133
1686.17243	0.96041
1684.11863	0.95970
1682.06483	0.95864
1680.01103	0.95790
1677.95722	0.95748
1675.90342	0.95696
1673.84962	0.95614
1671.79581	0.95560
1669.74201	0.95527
1667.68821	0.95454
1665.63440	0.95360
1663.58060	0.95272
1661.52680	0.95207
1659.47299	0.95171
1657.41919	0.95135
1655.36539	0.95076
1653.31158	0.94973
1651.25778	0.94900
1649.20398	0.94892
1647.15017	0.94893
1645.09637	0.94874
1643.04257	0.94846
1640.98876	0.94817
1638.93496	0.94780
1636.88116	0.94744
1634.82735	0.94733
1632.77355	0.94739
1630.71975	0.94722
1628.66594	0.94681
1626.61214	0.94627
1624.55834	0.94561
1622.50454	0.94516
1620.45073	0.94532
1618.39693	0.94622
1616.34313	0.94786
1614.28932	0.94915
1612.23552	0.94995
1610.18172	0.95101
1608.12791	0.95243
1606.07411	0.95337
1604.02031	0.95362
1601.96650	0.95368
1599.91270	0.95385
1597.85890	0.95429
1595.80509	0.95502
1593.75129	0.95570
1591.69749	0.95598
1589.64368	0.95596
1587.58988	0.95601
1585.53608	0.95604
1583.48227	0.95597
1581.42847	0.95604
1579.37467	0.95625
1577.32086	0.95635
1575.26706	0.95638
1573.21326	0.95660
1571.15945	0.95698
1569.10565	0.95780
1567.05185	0.95880
1564.99805	0.95934
1562.94424	0.95926
1560.89044	0.95861
1558.83664	0.95823
1556.78283	0.95912
1554.72903	0.95936
1552.67523	0.95893
1550.62142	0.95879
1548.56762	0.95922
1546.51382	0.95968
1544.46001	0.95983
1542.40621	0.95974
1540.35241	0.95989
1538.29860	0.96025
1536.24480	0.96048
1534.19100	0.96075
1532.13719	0.96109
1530.08339	0.96151
1528.02959	0.96192
1525.97578	0.96221
1523.92198	0.96249
1521.86818	0.96277
1519.81437	0.96272
1517.76057	0.96250
1515.70677	0.96256
1513.65297	0.96284
1511.59916	0.96301
1509.54536	0.96298
1507.49156	0.96278
1505.43775	0.96247
1503.38395	0.96225
1501.33015	0.96212
1499.27634	0.96186
1497.22254	0.96119
1495.16874	0.96043
1493.11493	0.96016
1491.06113	0.95988
1489.00733	0.95885
1486.95352	0.95779
1484.89972	0.95703
1482.84592	0.95564
1480.79211	0.95276
1478.73831	0.94671
1476.68451	0.93105
1474.63070	0.89937
1472.57690	0.86597
1470.52310	0.85960
1468.46929	0.86704
1466.41549	0.86950
1464.36169	0.86228
1462.30788	0.85817
1460.25408	0.86720
1458.20028	0.88611
1456.14648	0.90416
1454.09267	0.91196
1452.03887	0.91640
1449.98507	0.92014
1447.93126	0.92284
1445.87746	0.92446
1443.82366	0.92565
1441.76985	0.92671
1439.71605	0.92743
1437.66225	0.92783
1435.60844	0.92822
1433.55464	0.92904
1431.50084	0.93049
1429.44703	0.93216
1427.39323	0.93350
1425.33943	0.93457
1423.28562	0.93544
1421.23182	0.93619
1419.17802	0.93692
1417.12421	0.93771
1415.07041	0.93896
1413.01661	0.94033
1410.96280	0.94150
1408.90900	0.94264
1406.85520	0.94379
1404.80139	0.94495
1402.74759	0.94594
1400.69379	0.94662
1398.63999	0.94710
1396.58618	0.94778
1394.53238	0.94884
1392.47858	0.94977
1390.42477	0.95025
1388.37097	0.95070
1386.31717	0.95146
1384.26336	0.95197
1382.20956	0.95146
1380.15576	0.95012
1378.10195	0.94874
1376.04815	0.94787
1373.99435	0.94788
1371.94054	0.94857
1369.88674	0.94933
1367.83294	0.95010
1365.77913	0.95098
1363.72533	0.95193
1361.67153	0.95275
1359.61772	0.95326
1357.56392	0.95357
1355.51012	0.95381
1353.45631	0.95423
1351.40251	0.95496
1349.34871	0.95574
1347.29491	0.95635
1345.24110	0.95683
1343.18730	0.95734
1341.13350	0.95793
1339.07969	0.95834
1337.02589	0.95853
1334.97209	0.95866
1332.91828	0.95868
1330.86448	0.95871
1328.81068	0.95890
1326.75687	0.95893
1324.70307	0.95889
1322.64927	0.95911
1320.59546	0.95915
1318.54166	0.95878
1316.48786	0.95853
1314.43405	0.95851
1312.38025	0.95848
1310.32645	0.95841
1308.27264	0.95832
1306.21884	0.95818
1304.16504	0.95803
1302.11123	0.95798
1300.05743	0.95812
1298.00363	0.95852
1295.94982	0.95892
1293.89602	0.95886
1291.84222	0.95874
1289.78842	0.95901
1287.73461	0.95918
1285.68081	0.95888
1283.62701	0.95855
1281.57320	0.95843
1279.51940	0.95838
1277.46560	0.95824
1275.41179	0.95783
1273.35799	0.95737
1271.30419	0.95714
1269.25038	0.95691
1267.19658	0.95663
1265.14278	0.95637
1263.08897	0.95602
1261.03517	0.95550
1258.98137	0.95490
1256.92756	0.95451
1254.87376	0.95432
1252.81996	0.95402
1250.76615	0.95341
1248.71235	0.95263
1246.65855	0.95201
1244.60474	0.95152
1242.55094	0.95098
1240.49714	0.95030
1238.44334	0.94956
1236.38953	0.94885
1234.33573	0.94827
1232.28193	0.94787
1230.22812	0.94754
1228.17432	0.94724
1226.12052	0.94673
1224.06671	0.94575
1222.01291	0.94447
1219.95911	0.94328
1217.90530	0.94253
1215.85150	0.94205
1213.79770	0.94142
1211.74389	0.94054
1209.69009	0.93935
1207.63629	0.93795
1205.58248	0.93652
1203.52868	0.93512
1201.47488	0.93361
1199.42107	0.93188
1197.36727	0.93004
1195.31347	0.92824
1193.25966	0.92642
1191.20586	0.92451
1189.15206	0.92243
1187.09825	0.91997
1185.04445	0.91707
1182.99065	0.91374
1180.93685	0.91018
1178.88304	0.90644
1176.82924	0.90269
1174.77544	0.89912
1172.72163	0.89558
1170.66783	0.89213
1168.61403	0.88895
1166.56022	0.88619
1164.50642	0.88373
1162.45262	0.88130
1160.39881	0.87879
1158.34501	0.87641
1156.29121	0.87426
1154.23740	0.87221
1152.18360	0.86998
1150.12980	0.86739
1148.07599	0.86500
1146.02219	0.86314
1143.96839	0.86162
1141.91458	0.86039
1139.86078	0.85921
1137.80698	0.85772
1135.75317	0.85595
1133.69937	0.85402
1131.64557	0.85185
1129.59176	0.84943
1127.53796	0.84651
1125.48416	0.84297
1123.43036	0.83922
1121.37655	0.83532
1119.32275	0.83122
1117.26895	0.82708
1115.21514	0.82305
1113.16134	0.81932
1111.10754	0.81602
1109.05373	0.81324
1106.99993	0.81098
1104.94613	0.80907
1102.89232	0.80755
1100.83852	0.80620
1098.78472	0.80468
1096.73091	0.80343
1094.67711	0.80278
1092.62331	0.80223
1090.56950	0.80157
1088.51570	0.80099
1086.46190	0.80052
1084.40809	0.80014
1082.35429	0.79962
1080.30049	0.79871
1078.24668	0.79758
1076.19288	0.79658
1074.13908	0.79558
1072.08528	0.79392
1070.03147	0.79148
1067.97767	0.78854
1065.92387	0.78532
1063.87006	0.78210
1061.81626	0.77866
1059.76246	0.77453
1057.70865	0.76970
1055.65485	0.76461
1053.60105	0.75965
1051.54724	0.75440
1049.49344	0.74873
1047.43964	0.74305
1045.38583	0.73754
1043.33203	0.73220
1041.27823	0.72721
1039.22442	0.72283
1037.17062	0.71912
1035.11682	0.71590
1033.06301	0.71337
1031.00921	0.71222
1028.95541	0.71244
1026.90160	0.71343
1024.84780	0.71481
1022.79400	0.71620
1020.74019	0.71726
1018.68639	0.71810
1016.63259	0.71870
1014.57879	0.71881
1012.52498	0.71844
1010.47118	0.71820
1008.41738	0.71868
1006.36357	0.71969
1004.30977	0.72123
1002.25597	0.72367
1000.20216	0.72704
998.14836	0.73162
996.09456	0.73789
994.04075	0.74533
991.98695	0.75287
989.93315	0.76009
987.87934	0.76722
985.82554	0.77460
983.77174	0.78204
981.71793	0.78929
979.66413	0.79630
977.61033	0.80315
975.55652	0.80985
973.50272	0.81627
971.44892	0.82253
969.39511	0.82869
967.34131	0.83436
965.28751	0.83928
963.23371	0.84380
961.17990	0.84844
959.12610	0.85299
957.07230	0.85676
955.01849	0.85955
952.96469	0.86202
950.91089	0.86465
948.85708	0.86706
946.80328	0.86918
944.74948	0.87109
942.69567	0.87260
940.64187	0.87387
938.58807	0.87503
936.53426	0.87620
934.48046	0.87749
932.42666	0.87862
930.37285	0.87938
928.31905	0.87991
926.26525	0.88016
924.21144	0.87974
922.15764	0.87887
920.10384	0.87811
918.05003	0.87723
915.99623	0.87579
913.94243	0.87431
911.88862	0.87388
909.83482	0.87535
907.78102	0.87877
905.72722	0.88336
903.67341	0.88846
901.61961	0.89352
899.56581	0.89767
897.51200	0.90057
895.45820	0.90299
893.40440	0.90525
891.35059	0.90696
889.29679	0.90812
887.24299	0.90883
885.18918	0.90879
883.13538	0.90809
881.08158	0.90679
879.02777	0.90445
876.97397	0.90185
874.92017	0.90115
872.86636	0.90354
870.81256	0.90820
868.75876	0.91323
866.70495	0.91737
864.65115	0.92086
862.59735	0.92388
860.54354	0.92581
858.48974	0.92707
856.43594	0.92828
854.38213	0.92880
852.32833	0.92872
850.27453	0.92896
848.22073	0.92943
846.16692	0.93000
844.11312	0.93077
842.05932	0.93112
840.00551	0.93071
837.95171	0.93014
835.89791	0.92963
833.84410	0.92944
831.79030	0.92997
829.73650	0.93007
827.68269	0.92908
825.62889	0.92785
823.57509	0.92712
821.52128	0.92724
819.46748	0.92738
817.41368	0.92636
815.35987	0.92514
813.30607	0.92489
811.25227	0.92444
809.19846	0.92278
807.14466	0.92000
805.09086	0.91660
803.03705	0.91351
800.98325	0.91076
798.92945	0.90851
796.87565	0.90794
794.82184	0.90879
792.76804	0.90910
790.71424	0.90808
788.66043	0.90718
786.60663	0.90749
784.55283	0.90809
782.49902	0.90785
780.44522	0.90685
778.39142	0.90608
776.33761	0.90612
774.28381	0.90686
772.23001	0.90768
770.17620	0.90751
768.12240	0.90639
766.06860	0.90499
764.01479	0.90365
761.96099	0.90283
759.90719	0.90243
757.85338	0.90160
755.79958	0.90009
753.74578	0.89812
751.69197	0.89670
749.63817	0.89642
747.58437	0.89626
745.53056	0.89561
743.47676	0.89530
741.42296	0.89553
739.36916	0.89514
737.31535	0.89288
735.26155	0.88545
733.20775	0.86767
731.15394	0.84555
729.10014	0.83701
727.04634	0.84306
724.99253	0.84554
722.93873	0.83242
720.88493	0.80443
718.83112	0.77946
716.77732	0.77827
714.72352	0.79828
712.66971	0.82284
710.61591	0.84057
708.56211	0.85030
706.50830	0.85496
704.45450	0.85656
702.40070	0.85648
700.34689	0.85564
698.29309	0.85433
696.23929	0.85326
694.18548	0.85310
692.13168	0.85370
690.07788	0.85424
688.02408	0.85394
685.97027	0.85303
683.91647	0.85209
681.86267	0.85145
679.80886	0.85089
677.75506	0.85003
675.70126	0.84969
673.64745	0.84979
671.59365	0.84906
669.53985	0.84809
667.48604	0.84927
665.43224	0.85203
663.37844	0.85423
661.32463	0.85545
659.27083	0.85568
657.21703	0.85550
655.16322	0.85518
653.10942	0.85502
651.05562	0.85497
649.00181	0.85480
646.94801	0.85417
644.89421	0.85323
642.84040	0.85337
640.78660	0.85433
638.73280	0.85484
636.67899	0.85464
634.62519	0.85331
632.57139	0.85210
630.51759	0.85275
628.46378	0.85330
626.40998	0.85164
624.35618	0.84963
622.30237	0.84874
620.24857	0.84789
618.19477	0.84613
616.14096	0.84337
614.08716	0.84001
612.03336	0.83682
609.97955	0.83444
607.92575	0.83216
605.87195	0.82980
603.81814	0.82771
601.76434	0.82592
599.71054	0.82482
597.65673	0.82372
595.60293	0.82235
593.54913	0.82176
591.49532	0.82177
589.44152	0.82188
587.38772	0.82184
585.33391	0.82073
583.28011	0.81862
581.22631	0.81622
579.17250	0.81483
577.11870	0.81599
575.06490	0.81770
573.01110	0.81703
570.95729	0.81521
568.90349	0.81351
566.84969	0.81122
564.79588	0.80815
562.74208	0.80467
560.68828	0.80162
558.63447	0.79925
556.58067	0.79745
554.52687	0.79630
552.47306	0.79476
550.41926	0.79245
548.36546	0.78924
546.31165	0.78416
544.25785	0.77857
542.20405	0.77446
540.15024	0.77178
538.09644	0.77006
536.04264	0.76792
533.98883	0.76504
531.93503	0.76380
529.88123	0.76455
527.82742	0.76589
525.77362	0.76814
523.71982	0.77080
521.66602	0.77223
519.61221	0.77322
517.55841	0.77524
515.50461	0.77879
513.45080	0.78217
511.39700	0.78250
509.34320	0.78251
507.28939	0.78615
505.23559	0.79026
503.18179	0.79183
501.12798	0.79135
499.07418	0.79001
497.02038	0.78940
494.96657	0.78924
492.91277	0.78750
490.85897	0.78432
488.80516	0.78207
486.75136	0.77972
484.69756	0.77424
482.64375	0.76635
480.58995	0.75882
478.53615	0.75180
476.48234	0.74420
474.42854	0.73443
472.37474	0.72243
470.32093	0.71427
468.26713	0.71258
466.21333	0.71317
464.15953	0.71432
462.10572	0.71792
460.05192	0.72380
457.99812	0.72876
455.94431	0.73110
453.89051	0.73390
451.83671	0.73879
449.78290	0.74469
447.72910	0.74989
445.67530	0.75007
443.62149	0.74542
441.56769	0.74201
439.51389	0.73995
437.46008	0.73659
435.40628	0.73313
433.35248	0.73079
431.29867	0.72956
429.24487	0.72977
427.19107	0.73115
425.13726	0.73347
423.08346	0.73813
421.02966	0.74693
418.97585	0.75473
416.92205	0.75168
414.86825	0.75026
412.81445	0.75850
410.76064	0.76969
408.70684	0.77576
406.65304	0.77840
404.59923	0.78400
402.54543	0.79378
400.49163	0.80177
398.43782	0.79675
