3996.70104	0.98365
3994.64724	0.98388
3992.59344	0.98473
3990.53964	0.98529
3988.48583	0.98531
3986.43203	0.98488
3984.37823	0.98449
3982.32442	0.98458
3980.27062	0.98474
3978.21682	0.98450
3976.16301	0.98438
3974.10921	0.98465
3972.05541	0.98498
3970.00160	0.98544
3967.94780	0.98574
3965.89400	0.98551
3963.84019	0.98507
3961.78639	0.98452
3959.73259	0.98409
3957.67878	0.98429
3955.62498	0.98483
3953.57118	0.98519
3951.51737	0.98558
3949.46357	0.98592
3947.40977	0.98583
3945.35596	0.98576
3943.30216	0.98572
3941.24836	0.98527
3939.19455	0.98485
3937.14075	0.98484
3935.08695	0.98500
3933.03315	0.98471
3930.97934	0.98397
3928.92554	0.98361
3926.87174	0.98377
3924.81793	0.98441
3922.76413	0.98517
3920.71033	0.98527
3918.65652	0.98478
3916.60272	0.98472
3914.54892	0.98503
3912.49511	0.98507
3910.44131	0.98528
3908.38751	0.98570
3906.33370	0.98570
3904.27990	0.98499
3902.22610	0.98386
3900.17229	0.98335
3898.11849	0.98376
3896.06469	0.98441
3894.01088	0.98485
3891.95708	0.98491
3889.90328	0.98488
3887.84947	0.98491
3885.79567	0.98469
3883.74187	0.98463
3881.68807	0.98510
3879.63426	0.98558
3877.58046	0.98580
3875.52666	0.98597
3873.47285	0.98597
3871.41905	0.98569
3869.36525	0.98568
3867.31144	0.98606
3865.25764	0.98613
3863.20384	0.98581
3861.15003	0.98556
3859.09623	0.98568
3857.04243	0.98614
3854.98862	0.98627
3852.93482	0.98539
3850.88102	0.98483
3848.82721	0.98487
3846.77341	0.98490
3844.71961	0.98495
3842.66580	0.98499
3840.61200	0.98500
3838.55820	0.98518
3836.50439	0.98546
3834.45059	0.98561
3832.39679	0.98555
3830.34298	0.98563
3828.28918	0.98572
3826.23538	0.98537
3824.18158	0.98500
3822.12777	0.98516
3820.07397	0.98596
3818.02017	0.98624
3815.96636	0.98560
3813.91256	0.98522
3811.85876	0.98526
3809.80495	0.98522
3807.75115	0.98523
3805.69735	0.98513
3803.64354	0.98524
3801.58974	0.98611
3799.53594	0.98656
3797.48213	0.98591
3795.42833	0.98532
3793.37453	0.98563
3791.32072	0.98637
3789.26692	0.98669
3787.21312	0.98622
3785.15931	0.98567
3783.10551	0.98549
3781.05171	0.98540
3778.99790	0.98553
3776.94410	0.98583
3774.89030	0.98619
3772.83650	0.98671
3770.78269	0.98666
3768.72889	0.98595
3766.67509	0.98582
3764.62128	0.98605
3762.56748	0.98590
3760.51368	0.98576
3758.45987	0.98629
3756.40607	0.98722
3754.35227	0.98738
3752.29846	0.98622
3750.24466	0.98495
3748.19086	0.98512
3746.13705	0.98586
3744.08325	0.98623
3742.02945	0.98525
3739.97564	0.98401
3737.92184	0.98397
3735.86804	0.98496
3733.81423	0.98511
3731.76043	0.98527
3729.70663	0.98572
3727.65282	0.98571
3725.59902	0.98555
3723.54522	0.98526
3721.49141	0.98503
3719.43761	0.98464
3717.38381	0.98321
3715.33001	0.98136
3713.27620	0.98011
3711.22240	0.97888
3709.16860	0.97616
3707.11479	0.97293
3705.06099	0.97031
3703.00719	0.96768
3700.95338	0.96469
3698.89958	0.96244
3696.84578	0.96149
3694.79197	0.96200
3692.73817	0.96345
3690.68437	0.96489
3688.63056	0.96695
3686.57676	0.96939
3684.52296	0.97055
3682.46915	0.97069
3680.41535	0.97035
3678.36155	0.96951
3676.30774	0.96894
3674.25394	0.96977
3672.20014	0.97045
3670.14633	0.97037
3668.09253	0.96997
3666.03873	0.96951
3663.98492	0.96901
3661.93112	0.96869
3659.87732	0.96858
3657.82352	0.96818
3655.76971	0.96716
3653.71591	0.96653
3651.66211	0.96678
3649.60830	0.96624
3647.55450	0.96439
3645.50070	0.96386
3643.44689	0.96395
3641.39309	0.96385
3639.33929	0.96418
3637.28548	0.96491
3635.23168	0.96482
3633.17788	0.96371
3631.12407	0.96250
3629.07027	0.96121
3627.01647	0.96032
3624.96266	0.95994
3622.90886	0.95893
3620.85506	0.95774
3618.80125	0.95813
3616.74745	0.95993
3614.69365	0.96159
3612.63984	0.96239
3610.58604	0.96218
3608.53224	0.96164
3606.47844	0.96149
3604.42463	0.96188
3602.37083	0.96230
3600.31703	0.96204
3598.26322	0.96107
3596.20942	0.96059
3594.15562	0.96139
3592.10181	0.96274
3590.04801	0.96345
3587.99421	0.96321
3585.94040	0.96246
3583.88660	0.96178
3581.83280	0.96170
3579.77899	0.96241
3577.72519	0.96283
3575.67139	0.96226
3573.61758	0.96145
3571.56378	0.96095
3569.50998	0.96073
3567.45617	0.96022
3565.40237	0.95909
3563.34857	0.95814
3561.29476	0.95771
3559.24096	0.95744
3557.18716	0.95685
3555.13335	0.95628
3553.07955	0.95637
3551.02575	0.95654
3548.97195	0.95607
3546.91814	0.95542
3544.86434	0.95471
3542.81054	0.95424
3540.75673	0.95449
3538.70293	0.95459
3536.64913	0.95425
3534.59532	0.95421
3532.54152	0.95449
3530.48772	0.95477
3528.43391	0.95513
3526.38011	0.95547
3524.32631	0.95543
3522.27250	0.95511
3520.21870	0.95493
3518.16490	0.95523
3516.11109	0.95571
3514.05729	0.95581
3512.00349	0.95565
3509.94968	0.95571
3507.89588	0.95607
3505.84208	0.95637
3503.78827	0.95665
3501.73447	0.95662
3499.68067	0.95623
3497.62687	0.95617
3495.57306	0.95648
3493.51926	0.95702
3491.46546	0.95739
3489.41165	0.95683
3487.35785	0.95578
3485.30405	0.95555
3483.25024	0.95611
3481.19644	0.95617
3479.14264	0.95581
3477.08883	0.95578
3475.03503	0.95538
3472.98123	0.95435
3470.92742	0.95368
3468.87362	0.95368
3466.81982	0.95392
3464.76601	0.95400
3462.71221	0.95402
3460.65841	0.95420
3458.60460	0.95420
3456.55080	0.95370
3454.49700	0.95329
3452.44319	0.95329
3450.38939	0.95326
3448.33559	0.95336
3446.28178	0.95371
3444.22798	0.95384
3442.17418	0.95355
3440.12038	0.95305
3438.06657	0.95250
3436.01277	0.95198
3433.95897	0.95161
3431.90516	0.95137
3429.85136	0.95131
3427.79756	0.95127
3425.74375	0.95090
3423.68995	0.95035
3421.63615	0.95017
3419.58234	0.95011
3417.52854	0.94981
3415.47474	0.94939
3413.42093	0.94881
3411.36713	0.94826
3409.31333	0.94781
3407.25952	0.94723
3405.20572	0.94687
3403.15192	0.94692
3401.09811	0.94703
3399.04431	0.94729
3396.99051	0.94775
3394.93670	0.94811
3392.88290	0.94836
3390.82910	0.94868
3388.77529	0.94882
3386.72149	0.94874
3384.66769	0.94875
3382.61389	0.94887
3380.56008	0.94914
3378.50628	0.94941
3376.45248	0.94936
3374.39867	0.94917
3372.34487	0.94918
3370.29107	0.94934
3368.23726	0.94955
3366.18346	0.94975
3364.12966	0.94981
3362.07585	0.95007
3360.02205	0.95065
3357.96825	0.95123
3355.91444	0.95169
3353.86064	0.95198
3351.80684	0.95218
3349.75303	0.95216
3347.69923	0.95178
3345.64543	0.95134
3343.59162	0.95098
3341.53782	0.95087
3339.48402	0.95100
3337.43021	0.95103
3335.37641	0.95114
3333.32261	0.95143
3331.26881	0.95171
3329.21500	0.95197
3327.16120	0.95226
3325.10740	0.95248
3323.05359	0.95259
3320.99979	0.95277
3318.94599	0.95285
3316.89218	0.95259
3314.83838	0.95221
3312.78458	0.95210
3310.73077	0.95230
3308.67697	0.95230
3306.62317	0.95240
3304.56936	0.95310
3302.51556	0.95357
3300.46176	0.95334
3298.40795	0.95319
3296.35415	0.95372
3294.30035	0.95438
3292.24654	0.95455
3290.19274	0.95454
3288.13894	0.95457
3286.08513	0.95455
3284.03133	0.95427
3281.97753	0.95350
3279.92372	0.95302
3277.86992	0.95370
3275.81612	0.95452
3273.76232	0.95451
3271.70851	0.95434
3269.65471	0.95468
3267.60091	0.95512
3265.54710	0.95528
3263.49330	0.95552
3261.43950	0.95594
3259.38569	0.95615
3257.33189	0.95606
3255.27809	0.95583
3253.22428	0.95573
3251.17048	0.95593
3249.11668	0.95620
3247.06287	0.95638
3245.00907	0.95654
3242.95527	0.95662
3240.90146	0.95667
3238.84766	0.95671
3236.79386	0.95672
3234.74005	0.95707
3232.68625	0.95761
3230.63245	0.95781
3228.57864	0.95786
3226.52484	0.95800
3224.47104	0.95819
3222.41724	0.95842
3220.36343	0.95846
3218.30963	0.95841
3216.25583	0.95874
3214.20202	0.95899
3212.14822	0.95875
3210.09442	0.95858
3208.04061	0.95869
3205.98681	0.95917
3203.93301	0.95998
3201.87920	0.96073
3199.82540	0.96125
3197.77160	0.96145
3195.71779	0.96137
3193.66399	0.96122
3191.61019	0.96116
3189.55638	0.96150
3187.50258	0.96217
3185.44878	0.96246
3183.39497	0.96239
3181.34117	0.96250
3179.28737	0.96262
3177.23356	0.96286
3175.17976	0.96342
3173.12596	0.96390
3171.07215	0.96415
3169.01835	0.96438
3166.96455	0.96465
3164.91075	0.96490
3162.85694	0.96505
3160.80314	0.96486
3158.74934	0.96451
3156.69553	0.96463
3154.64173	0.96528
3152.58793	0.96580
3150.53412	0.96590
3148.48032	0.96602
3146.42652	0.96653
3144.37271	0.96731
3142.31891	0.96756
3140.26511	0.96714
3138.21130	0.96686
3136.15750	0.96704
3134.10370	0.96745
3132.04989	0.96791
3129.99609	0.96834
3127.94229	0.96862
3125.88848	0.96888
3123.83468	0.96924
3121.78088	0.96931
3119.72707	0.96873
3117.67327	0.96831
3115.61947	0.96854
3113.56566	0.96879
3111.51186	0.96885
3109.45806	0.96870
3107.40426	0.96844
3105.35045	0.96853
3103.29665	0.96892
3101.24285	0.96905
3099.18904	0.96896
3097.13524	0.96902
3095.08144	0.96915
3093.02763	0.96919
3090.97383	0.96912
3088.92003	0.96906
3086.86622	0.96923
3084.81242	0.96955
3082.75862	0.96956
3080.70481	0.96926
3078.65101	0.96917
3076.59721	0.96926
3074.54340	0.96926
3072.48960	0.96942
3070.43580	0.96967
3068.38199	0.96981
3066.32819	0.97001
3064.27439	0.97016
3062.22058	0.97033
3060.16678	0.97066
3058.11298	0.97089
3056.05918	0.97099
3054.00537	0.97106
3051.95157	0.97100
3049.89777	0.97077
3047.84396	0.97073
3045.79016	0.97105
3043.73636	0.97134
3041.68255	0.97135
3039.62875	0.97103
3037.57495	0.97066
3035.52114	0.97074
3033.46734	0.97131
3031.41354	0.97186
3029.35973	0.97213
3027.30593	0.97205
3025.25213	0.97165
3023.19832	0.97146
3021.14452	0.97159
3019.09072	0.97141
3017.03691	0.97100
3014.98311	0.97112
3012.92931	0.97141
3010.87550	0.97135
3008.82170	0.97158
3006.76790	0.97203
3004.71409	0.97213
3002.66029	0.97205
3000.60649	0.97185
2998.55269	0.97156
2996.49888	0.97130
2994.44508	0.97108
2992.39128	0.97085
2990.33747	0.97046
2988.28367	0.97012
2986.22987	0.96973
2984.17606	0.96877
2982.12226	0.96771
2980.06846	0.96703
2978.01465	0.96621
2975.96085	0.96502
2973.90705	0.96358
2971.85324	0.96187
2969.79944	0.96017
2967.74564	0.95852
2965.69183	0.95631
2963.63803	0.95342
2961.58423	0.95076
2959.53042	0.94881
2957.47662	0.94720
2955.42282	0.94538
2953.36901	0.94339
2951.31521	0.94176
2949.26141	0.94020
2947.20761	0.93762
2945.15380	0.93317
2943.10000	0.92668
2941.04620	0.91866
2938.99239	0.90937
2936.93859	0.89815
2934.88479	0.88450
2932.83098	0.86829
2930.77718	0.84906
2928.72338	0.82635
2926.66957	0.79936
2924.61577	0.76702
2922.56197	0.73011
2920.50816	0.69186
2918.45436	0.65686
2916.40056	0.63167
2914.34675	0.62301
2912.29295	0.63161
2910.23915	0.65111
2908.18534	0.67438
2906.13154	0.69721
2904.07774	0.71785
2902.02393	0.73583
2899.97013	0.75113
2897.91633	0.76417
2895.86252	0.77574
2893.80872	0.78683
2891.75492	0.79827
2889.70112	0.81021
2887.64731	0.82241
2885.59351	0.83452
2883.53971	0.84620
2881.48590	0.85743
2879.43210	0.86855
2877.37830	0.87938
2875.32449	0.88887
2873.27069	0.89623
2871.21689	0.90127
2869.16308	0.90396
2867.10928	0.90440
2865.05548	0.90193
2863.00167	0.89517
2860.94787	0.88303
2858.89407	0.86373
2856.84026	0.83444
2854.78646	0.79264
2852.73266	0.73957
2850.67885	0.68569
2848.62505	0.65017
2846.57125	0.64742
2844.51744	0.67477
2842.46364	0.71803
2840.40984	0.76359
2838.35603	0.80354
2836.30223	0.83550
2834.24843	0.85993
2832.19463	0.87837
2830.14082	0.89270
2828.08702	0.90400
2826.03322	0.91278
2823.97941	0.91970
2821.92561	0.92555
2819.87181	0.93077
2817.81800	0.93509
2815.76420	0.93842
2813.71040	0.94126
2811.65659	0.94399
2809.60279	0.94692
2807.54899	0.94966
2805.49518	0.95145
2803.44138	0.95264
2801.38758	0.95373
2799.33377	0.95489
2797.27997	0.95639
2795.22617	0.95820
2793.17236	0.95958
2791.11856	0.96039
2789.06476	0.96143
2787.01095	0.96255
2784.95715	0.96318
2782.90335	0.96374
2780.84955	0.96470
2778.79574	0.96581
2776.74194	0.96666
2774.68814	0.96720
2772.63433	0.96776
2770.58053	0.96832
2768.52673	0.96861
2766.47292	0.96895
2764.41912	0.96979
2762.36532	0.97070
2760.31151	0.97097
2758.25771	0.97079
2756.20391	0.97087
2754.15010	0.97146
2752.09630	0.97205
2750.04250	0.97214
2747.98869	0.97203
2745.93489	0.97224
2743.88109	0.97244
2741.82728	0.97222
2739.77348	0.97195
2737.71968	0.97199
2735.66587	0.97224
2733.61207	0.97258
2731.55827	0.97299
2729.50446	0.97320
2727.45066	0.97317
2725.39686	0.97326
2723.34306	0.97344
2721.28925	0.97351
2719.23545	0.97351
2717.18165	0.97381
2715.12784	0.97446
2713.07404	0.97507
2711.02024	0.97527
2708.96643	0.97509
2706.91263	0.97492
2704.85883	0.97500
2702.80502	0.97538
2700.75122	0.97603
2698.69742	0.97642
2696.64361	0.97627
2694.58981	0.97602
2692.53601	0.97601
2690.48220	0.97605
2688.42840	0.97596
2686.37460	0.97598
2684.32079	0.97625
2682.26699	0.97637
2680.21319	0.97631
2678.15938	0.97635
2676.10558	0.97620
2674.05178	0.97569
2671.99797	0.97531
2669.94417	0.97525
2667.89037	0.97538
2665.83657	0.97556
2663.78276	0.97547
2661.72896	0.97513
2659.67516	0.97492
2657.62135	0.97499
2655.56755	0.97517
2653.51375	0.97539
2651.45994	0.97551
2649.40614	0.97556
2647.35234	0.97557
2645.29853	0.97540
2643.24473	0.97551
2641.19093	0.97582
2639.13712	0.97567
2637.08332	0.97546
2635.02952	0.97570
2632.97571	0.97609
2630.92191	0.97642
2628.86811	0.97678
2626.81430	0.97702
2624.76050	0.97702
2622.70670	0.97700
2620.65289	0.97730
2618.59909	0.97795
2616.54529	0.97846
2614.49149	0.97870
2612.43768	0.97906
2610.38388	0.97936
2608.33008	0.97927
2606.27627	0.97915
2604.22247	0.97940
2602.16867	0.97986
2600.11486	0.98025
2598.06106	0.98044
2596.00726	0.98045
2593.95345	0.98036
2591.89965	0.98041
2589.84585	0.98075
2587.79204	0.98114
2585.73824	0.98118
2583.68444	0.98112
2581.63063	0.98135
2579.57683	0.98163
2577.52303	0.98193
2575.46922	0.98221
2573.41542	0.98220
2571.36162	0.98242
2569.30781	0.98287
2567.25401	0.98290
2565.20021	0.98271
2563.14640	0.98272
2561.09260	0.98295
2559.03880	0.98324
2556.98500	0.98350
2554.93119	0.98394
2552.87739	0.98412
2550.82359	0.98360
2548.76978	0.98319
2546.71598	0.98319
2544.66218	0.98296
2542.60837	0.98262
2540.55457	0.98274
2538.50077	0.98339
2536.44696	0.98402
2534.39316	0.98420
2532.33936	0.98417
2530.28555	0.98393
2528.23175	0.98349
2526.17795	0.98324
2524.12414	0.98337
2522.07034	0.98386
2520.01654	0.98389
2517.96273	0.98296
2515.90893	0.98250
2513.85513	0.98333
2511.80132	0.98438
2509.74752	0.98506
2507.69372	0.98554
2505.63992	0.98592
2503.58611	0.98604
2501.53231	0.98574
2499.47851	0.98543
2497.42470	0.98511
2495.37090	0.98480
2493.31710	0.98503
2491.26329	0.98529
2489.20949	0.98529
2487.15569	0.98560
2485.10188	0.98581
2483.04808	0.98514
2480.99428	0.98423
2478.94047	0.98408
2476.88667	0.98435
2474.83287	0.98442
2472.77906	0.98436
2470.72526	0.98408
2468.67146	0.98373
2466.61765	0.98389
2464.56385	0.98449
2462.51005	0.98496
2460.45624	0.98505
2458.40244	0.98480
2456.34864	0.98478
2454.29483	0.98530
2452.24103	0.98535
2450.18723	0.98474
2448.13343	0.98443
2446.07962	0.98464
2444.02582	0.98495
2441.97202	0.98499
2439.91821	0.98477
2437.86441	0.98483
2435.81061	0.98543
2433.75680	0.98587
2431.70300	0.98574
2429.64920	0.98560
2427.59539	0.98536
2425.54159	0.98471
2423.48779	0.98420
2421.43398	0.98425
2419.38018	0.98432
2417.32638	0.98439
2415.27257	0.98497
2413.21877	0.98540
2411.16497	0.98520
2409.11116	0.98482
2407.05736	0.98468
2405.00356	0.98523
2402.94975	0.98616
2400.89595	0.98642
2398.84215	0.98604
2396.78834	0.98571
2394.73454	0.98561
2392.68074	0.98566
2390.62694	0.98555
2388.57313	0.98534
2386.51933	0.98538
2384.46553	0.98538
2382.41172	0.98501
2380.35792	0.98473
2378.30412	0.98503
2376.25031	0.98526
2374.19651	0.98466
2372.14271	0.98445
2370.08890	0.98515
2368.03510	0.98491
2365.98130	0.98431
2363.92749	0.98490
2361.87369	0.98485
2359.81989	0.98349
2357.76608	0.98313
2355.71228	0.98418
2353.65848	0.98443
2351.60467	0.98350
2349.55087	0.98312
2347.49707	0.98340
2345.44326	0.98347
2343.38946	0.98283
2341.33566	0.98183
2339.28186	0.98200
2337.22805	0.98340
2335.17425	0.98427
2333.12045	0.98434
2331.06664	0.98445
2329.01284	0.98428
2326.95904	0.98300
2324.90523	0.98204
2322.85143	0.98300
2320.79763	0.98409
2318.74382	0.98347
2316.69002	0.98256
2314.63622	0.98271
2312.58241	0.98367
2310.52861	0.98438
2308.47481	0.98416
2306.42100	0.98371
2304.36720	0.98362
2302.31340	0.98381
2300.25959	0.98412
2298.20579	0.98406
2296.15199	0.98353
2294.09818	0.98322
2292.04438	0.98369
2289.99058	0.98466
2287.93677	0.98504
2285.88297	0.98470
2283.82917	0.98529
2281.77537	0.98644
2279.72156	0.98631
2277.66776	0.98518
2275.61396	0.98394
2273.56015	0.98312
2271.50635	0.98322
2269.45255	0.98409
2267.39874	0.98537
2265.34494	0.98644
2263.29114	0.98674
2261.23733	0.98667
2259.18353	0.98717
2257.12973	0.98761
2255.07592	0.98655
2253.02212	0.98522
2250.96832	0.98574
2248.91451	0.98627
2246.86071	0.98489
2244.80691	0.98394
2242.75310	0.98468
2240.69930	0.98609
2238.64550	0.98699
2236.59169	0.98695
2234.53789	0.98695
2232.48409	0.98662
2230.43029	0.98585
2228.37648	0.98577
2226.32268	0.98642
2224.26888	0.98747
2222.21507	0.98805
2220.16127	0.98785
2218.10747	0.98725
2216.05366	0.98663
2213.99986	0.98709
2211.94606	0.98765
2209.89225	0.98734
2207.83845	0.98745
2205.78465	0.98773
2203.73084	0.98844
2201.67704	0.98927
2199.62324	0.98872
2197.56943	0.98803
2195.51563	0.98843
2193.46183	0.98959
2191.40802	0.99029
2189.35422	0.98877
2187.30042	0.98667
2185.24661	0.98696
2183.19281	0.98868
2181.13901	0.98962
2179.08520	0.98943
2177.03140	0.98931
2174.97760	0.98954
2172.92380	0.98965
2170.86999	0.98960
2168.81619	0.98818
2166.76239	0.98619
2164.70858	0.98545
2162.65478	0.98639
2160.60098	0.98948
2158.54717	0.99204
2156.49337	0.99127
2154.43957	0.99101
2152.38576	0.99232
2150.33196	0.99126
2148.27816	0.98865
2146.22435	0.98840
2144.17055	0.99020
2142.11675	0.99171
2140.06294	0.99167
2138.00914	0.99019
2135.95534	0.98962
2133.90153	0.99064
2131.84773	0.99099
2129.79393	0.98980
2127.74012	0.98844
2125.68632	0.98857
2123.63252	0.98966
2121.57871	0.98981
2119.52491	0.98926
2117.47111	0.98952
2115.41731	0.98973
2113.36350	0.98844
2111.30970	0.98704
2109.25590	0.98694
2107.20209	0.98722
2105.14829	0.98708
2103.09449	0.98714
2101.04068	0.98793
2098.98688	0.98897
2096.93308	0.98918
2094.87927	0.98868
2092.82547	0.98878
2090.77167	0.98961
2088.71786	0.99018
2086.66406	0.99004
2084.61026	0.98901
2082.55645	0.98798
2080.50265	0.98784
2078.44885	0.98785
2076.39504	0.98822
2074.34124	0.98933
2072.28744	0.99012
2070.23363	0.99002
2068.17983	0.98907
2066.12603	0.98733
2064.07223	0.98591
2062.01842	0.98653
2059.96462	0.98821
2057.91082	0.98917
2055.85701	0.98952
2053.80321	0.98792
2051.74941	0.98503
2049.69560	0.98441
2047.64180	0.98463
2045.58800	0.98382
2043.53419	0.98484
2041.48039	0.98848
2039.42659	0.99078
2037.37278	0.99011
2035.31898	0.99062
2033.26518	0.99259
2031.21137	0.99371
2029.15757	0.99428
2027.10377	0.99353
2025.04996	0.99162
2022.99616	0.98914
2020.94236	0.98638
2018.88855	0.98568
2016.83475	0.98796
2014.78095	0.98960
2012.72714	0.98839
2010.67334	0.98727
2008.61954	0.98748
2006.56574	0.98832
2004.51193	0.99056
2002.45813	0.99181
2000.40433	0.98977
1998.35052	0.98578
1996.29672	0.98371
1994.24292	0.98655
1992.18911	0.98948
1990.13531	0.98809
1988.08151	0.98644
1986.02770	0.98706
1983.97390	0.98840
1981.92010	0.98974
1979.86629	0.99106
1977.81249	0.99017
1975.75869	0.98759
1973.70488	0.98689
1971.65108	0.98805
1969.59728	0.99087
1967.54347	0.99356
1965.48967	0.99363
1963.43587	0.99250
1961.38206	0.99108
1959.32826	0.99031
1957.27446	0.99103
1955.22066	0.99064
1953.16685	0.98846
1951.11305	0.98712
1949.05925	0.98689
1947.00544	0.98649
1944.95164	0.98585
1942.89784	0.98618
1940.84403	0.98791
1938.79023	0.98894
1936.73643	0.98866
1934.68262	0.98875
1932.62882	0.98924
1930.57502	0.98884
1928.52121	0.98794
1926.46741	0.98771
1924.41361	0.98827
1922.35980	0.98857
1920.30600	0.98835
1918.25220	0.98790
1916.19839	0.98689
1914.14459	0.98646
1912.09079	0.98730
1910.03698	0.98815
1907.98318	0.98793
1905.92938	0.98746
1903.87557	0.98731
1901.82177	0.98646
1899.76797	0.98534
1897.71417	0.98559
1895.66036	0.98662
1893.60656	0.98681
1891.55276	0.98658
1889.49895	0.98680
1887.44515	0.98693
1885.39135	0.98679
1883.33754	0.98692
1881.28374	0.98711
1879.22994	0.98724
1877.17613	0.98726
1875.12233	0.98686
1873.06853	0.98633
1871.01472	0.98622
1868.96092	0.98659
1866.90712	0.98702
1864.85331	0.98714
1862.79951	0.98698
1860.74571	0.98695
1858.69190	0.98718
1856.63810	0.98753
1854.58430	0.98794
1852.53049	0.98818
1850.47669	0.98840
1848.42289	0.98867
1846.36908	0.98833
1844.31528	0.98722
1842.26148	0.98619
1840.20768	0.98583
1838.15387	0.98602
1836.10007	0.98623
1834.04627	0.98602
1831.99246	0.98574
1829.93866	0.98592
1827.88486	0.98626
1825.83105	0.98662
1823.77725	0.98695
1821.72345	0.98679
1819.66964	0.98636
1817.61584	0.98621
1815.56204	0.98655
1813.50823	0.98657
1811.45443	0.98582
1809.40063	0.98518
1807.34682	0.98517
1805.29302	0.98538
1803.23922	0.98539
1801.18541	0.98542
1799.13161	0.98602
1797.07781	0.98662
1795.02400	0.98670
1792.97020	0.98639
1790.91640	0.98576
1788.86260	0.98561
1786.80879	0.98604
1784.75499	0.98614
1782.70119	0.98564
1780.64738	0.98525
1778.59358	0.98521
1776.53978	0.98509
1774.48597	0.98466
1772.43217	0.98426
1770.37837	0.98408
1768.32456	0.98374
1766.27076	0.98369
1764.21696	0.98413
1762.16315	0.98422
1760.10935	0.98351
1758.05555	0.98267
1756.00174	0.98205
1753.94794	0.98161
1751.89414	0.98138
1749.84033	0.98102
1747.78653	0.97995
1745.73273	0.97888
1743.67892	0.97826
1741.62512	0.97732
1739.57132	0.97592
1737.51751	0.97510
1735.46371	0.97485
1733.40991	0.97451
1731.35611	0.97440
1729.30230	0.97440
1727.24850	0.97425
1725.19470	0.97415
1723.14089	0.97405
1721.08709	0.97391
1719.03329	0.97361
1716.97948	0.97292
1714.92568	0.97228
1712.87188	0.97232
1710.81807	0.97257
1708.76427	0.97254
1706.71047	0.97227
1704.65666	0.97206
1702.60286	0.97165
1700.54906	0.97034
1698.49525	0.96885
1696.44145	0.96824
1694.38765	0.96795
1692.33384	0.96758
1690.28004	0.96709
1688.22624	0.96671
1686.17243	0.96606
1684.11863	0.96387
1682.06483	0.96165
1680.01103	0.96059
1677.95722	0.95940
1675.90342	0.95806
1673.84962	0.95716
1671.79581	0.95654
1669.74201	0.95558
1667.68821	0.95470
1665.63440	0.95444
1663.58060	0.95420
1661.52680	0.95358
1659.47299	0.95272
1657.41919	0.95170
1655.36539	0.95072
1653.31158	0.95009
1651.25778	0.95016
1649.20398	0.95030
1647.15017	0.95030
1645.09637	0.95040
1643.04257	0.95053
1640.98876	0.95039
1638.93496	0.95020
1636.88116	0.95007
1634.82735	0.94954
1632.77355	0.94898
1630.71975	0.94869
1628.66594	0.94845
1626.61214	0.94823
1624.55834	0.94785
1622.50454	0.94740
1620.45073	0.94776
1618.39693	0.94893
1616.34313	0.95021
1614.28932	0.95113
1612.23552	0.95217
1610.18172	0.95310
1608.12791	0.95336
1606.07411	0.95356
1604.02031	0.95420
1601.96650	0.95486
1599.91270	0.95540
1597.85890	0.95567
1595.80509	0.95570
1593.75129	0.95590
1591.69749	0.95641
1589.64368	0.95702
1587.58988	0.95754
1585.53608	0.95782
1583.48227	0.95777
1581.42847	0.95755
1579.37467	0.95734
1577.32086	0.95711
1575.26706	0.95757
1573.21326	0.95888
1571.15945	0.96013
1569.10565	0.96131
1567.05185	0.96218
1564.99805	0.96269
1562.94424	0.96320
1560.89044	0.96369
1558.83664	0.96371
1556.78283	0.96346
1554.72903	0.96352
1552.67523	0.96360
1550.62142	0.96360
1548.56762	0.96350
1546.51382	0.96337
1544.46001	0.96287
1542.40621	0.96159
1540.35241	0.96068
1538.29860	0.96192
1536.24480	0.96338
1534.19100	0.96461
1532.13719	0.96604
1530.08339	0.96722
1528.02959	0.96815
1525.97578	0.96894
1523.92198	0.96951
1521.86818	0.96990
1519.81437	0.97033
1517.76057	0.97050
1515.70677	0.97025
1513.65297	0.97044
1511.59916	0.97107
1509.54536	0.97142
1507.49156	0.97163
1505.43775	0.97228
1503.38395	0.97267
1501.33015	0.97265
1499.27634	0.97210
1497.22254	0.97096
1495.16874	0.96969
1493.11493	0.96882
1491.06113	0.96794
1489.00733	0.96666
1486.95352	0.96522
1484.89972	0.96367
1482.84592	0.96146
1480.79211	0.95706
1478.73831	0.94719
1476.68451	0.92299
1474.63070	0.87655
1472.57690	0.82731
1470.52310	0.81598
1468.46929	0.82781
1466.41549	0.83791
1464.36169	0.84185
1462.30788	0.85042
1460.25408	0.86993
1458.20028	0.89654
1456.14648	0.91854
1454.09267	0.92776
1452.03887	0.93329
1449.98507	0.93819
1447.93126	0.94192
1445.87746	0.94420
1443.82366	0.94562
1441.76985	0.94691
1439.71605	0.94806
1437.66225	0.94880
1435.60844	0.94954
1433.55464	0.95093
1431.50084	0.95282
1429.44703	0.95471
1427.39323	0.95613
1425.33943	0.95707
1423.28562	0.95765
1421.23182	0.95795
1419.17802	0.95821
1417.12421	0.95852
1415.07041	0.95893
1413.01661	0.95935
1410.96280	0.95979
1408.90900	0.96043
1406.85520	0.96125
1404.80139	0.96211
1402.74759	0.96285
1400.69379	0.96344
1398.63999	0.96391
1396.58618	0.96443
1394.53238	0.96499
1392.47858	0.96511
1390.42477	0.96484
1388.37097	0.96470
1386.31717	0.96457
1384.26336	0.96406
1382.20956	0.96322
1380.15576	0.96220
1378.10195	0.96115
1376.04815	0.96051
1373.99435	0.96061
1371.94054	0.96095
1369.88674	0.96114
1367.83294	0.96108
1365.77913	0.96099
1363.72533	0.96167
1361.67153	0.96315
1359.61772	0.96430
1357.56392	0.96484
1355.51012	0.96515
1353.45631	0.96535
1351.40251	0.96549
1349.34871	0.96568
1347.29491	0.96617
1345.24110	0.96681
1343.18730	0.96711
1341.13350	0.96724
1339.07969	0.96751
1337.02589	0.96777
1334.97209	0.96794
1332.91828	0.96802
1330.86448	0.96796
1328.81068	0.96765
1326.75687	0.96701
1324.70307	0.96626
1322.64927	0.96577
1320.59546	0.96554
1318.54166	0.96549
1316.48786	0.96576
1314.43405	0.96612
1312.38025	0.96620
1310.32645	0.96608
1308.27264	0.96607
1306.21884	0.96617
1304.16504	0.96618
1302.11123	0.96619
1300.05743	0.96626
1298.00363	0.96615
1295.94982	0.96599
1293.89602	0.96600
1291.84222	0.96611
1289.78842	0.96611
1287.73461	0.96589
1285.68081	0.96560
1283.62701	0.96521
1281.57320	0.96462
1279.51940	0.96376
1277.46560	0.96280
1275.41179	0.96199
1273.35799	0.96131
1271.30419	0.96080
1269.25038	0.96060
1267.19658	0.96075
1265.14278	0.96110
1263.08897	0.96124
1261.03517	0.96110
1258.98137	0.96095
1256.92756	0.96088
1254.87376	0.96082
1252.81996	0.96050
1250.76615	0.95992
1248.71235	0.95968
1246.65855	0.95968
1244.60474	0.95947
1242.55094	0.95921
1240.49714	0.95906
1238.44334	0.95884
1236.38953	0.95857
1234.33573	0.95836
1232.28193	0.95799
1230.22812	0.95744
1228.17432	0.95711
1226.12052	0.95693
1224.06671	0.95665
1222.01291	0.95627
1219.95911	0.95561
1217.90530	0.95468
1215.85150	0.95385
1213.79770	0.95334
1211.74389	0.95286
1209.69009	0.95225
1207.63629	0.95155
1205.58248	0.95063
1203.52868	0.94950
1201.47488	0.94831
1199.42107	0.94710
1197.36727	0.94576
1195.31347	0.94422
1193.25966	0.94261
1191.20586	0.94097
1189.15206	0.93944
1187.09825	0.93788
1185.04445	0.93600
1182.99065	0.93386
1180.93685	0.93153
1178.88304	0.92908
1176.82924	0.92667
1174.77544	0.92429
1172.72163	0.92189
1170.66783	0.91931
1168.61403	0.91656
1166.56022	0.91409
1164.50642	0.91210
1162.45262	0.91030
1160.39881	0.90855
1158.34501	0.90704
1156.29121	0.90558
1154.23740	0.90384
1152.18360	0.90219
1150.12980	0.90068
1148.07599	0.89897
1146.02219	0.89741
1143.96839	0.89608
1141.91458	0.89464
1139.86078	0.89317
1137.80698	0.89153
1135.75317	0.88942
1133.69937	0.88713
1131.64557	0.88454
1129.59176	0.88133
1127.53796	0.87788
1125.48416	0.87435
1123.43036	0.87044
1121.37655	0.86614
1119.32275	0.86167
1117.26895	0.85754
1115.21514	0.85439
1113.16134	0.85194
1111.10754	0.84957
1109.05373	0.84701
1106.99993	0.84441
1104.94613	0.84223
1102.89232	0.84065
1100.83852	0.83928
1098.78472	0.83772
1096.73091	0.83605
1094.67711	0.83458
1092.62331	0.83358
1090.56950	0.83291
1088.51570	0.83257
1086.46190	0.83283
1084.40809	0.83326
1082.35429	0.83314
1080.30049	0.83214
1078.24668	0.83046
1076.19288	0.82913
1074.13908	0.82844
1072.08528	0.82730
1070.03147	0.82528
1067.97767	0.82293
1065.92387	0.82031
1063.87006	0.81748
1061.81626	0.81445
1059.76246	0.81094
1057.70865	0.80691
1055.65485	0.80263
1053.60105	0.79801
1051.54724	0.79290
1049.49344	0.78802
1047.43964	0.78360
1045.38583	0.77921
1043.33203	0.77470
1041.27823	0.77004
1039.22442	0.76549
1037.17062	0.76155
1035.11682	0.75860
1033.06301	0.75679
1031.00921	0.75611
1028.95541	0.75639
1026.90160	0.75727
1024.84780	0.75870
1022.79400	0.76041
1020.74019	0.76170
1018.68639	0.76250
1016.63259	0.76282
1014.57879	0.76266
1012.52498	0.76230
1010.47118	0.76196
1008.41738	0.76216
1006.36357	0.76349
1004.30977	0.76590
1002.25597	0.76935
1000.20216	0.77399
998.14836	0.77938
996.09456	0.78501
994.04075	0.79094
991.98695	0.79722
989.93315	0.80366
987.87934	0.81004
985.82554	0.81601
983.77174	0.82169
981.71793	0.82778
979.66413	0.83419
977.61033	0.84019
975.55652	0.84565
973.50272	0.85086
971.44892	0.85596
969.39511	0.86101
967.34131	0.86586
965.28751	0.86982
963.23371	0.87299
961.17990	0.87631
959.12610	0.87960
957.07230	0.88223
955.01849	0.88466
952.96469	0.88701
950.91089	0.88878
948.85708	0.89013
946.80328	0.89124
944.74948	0.89203
942.69567	0.89276
940.64187	0.89362
938.58807	0.89428
936.53426	0.89456
934.48046	0.89499
932.42666	0.89601
930.37285	0.89730
928.31905	0.89821
926.26525	0.89846
924.21144	0.89824
922.15764	0.89765
920.10384	0.89656
918.05003	0.89492
915.99623	0.89286
913.94243	0.89140
911.88862	0.89170
909.83482	0.89377
907.78102	0.89701
905.72722	0.90073
903.67341	0.90457
901.61961	0.90858
899.56581	0.91262
897.51200	0.91616
895.45820	0.91877
893.40440	0.92047
891.35059	0.92153
889.29679	0.92261
887.24299	0.92411
885.18918	0.92590
883.13538	0.92747
881.08158	0.92831
879.02777	0.92874
876.97397	0.92923
874.92017	0.92970
872.86636	0.93048
870.81256	0.93168
868.75876	0.93276
866.70495	0.93383
864.65115	0.93541
862.59735	0.93722
860.54354	0.93904
858.48974	0.94083
856.43594	0.94205
854.38213	0.94281
852.32833	0.94381
850.27453	0.94470
848.22073	0.94532
846.16692	0.94626
844.11312	0.94680
842.05932	0.94610
840.00551	0.94475
837.95171	0.94370
835.89791	0.94352
833.84410	0.94414
831.79030	0.94475
829.73650	0.94445
827.68269	0.94357
825.62889	0.94283
823.57509	0.94198
821.52128	0.94133
819.46748	0.94150
817.41368	0.94147
815.35987	0.94032
813.30607	0.93910
811.25227	0.93871
809.19846	0.93814
807.14466	0.93670
805.09086	0.93505
803.03705	0.93334
800.98325	0.93133
798.92945	0.92969
796.87565	0.92948
794.82184	0.93002
792.76804	0.92983
790.71424	0.92942
788.66043	0.92980
786.60663	0.93017
784.55283	0.92950
782.49902	0.92844
780.44522	0.92806
778.39142	0.92842
776.33761	0.92936
774.28381	0.93045
772.23001	0.93052
770.17620	0.92955
768.12240	0.92845
766.06860	0.92762
764.01479	0.92672
761.96099	0.92518
759.90719	0.92388
757.85338	0.92323
755.79958	0.92182
753.74578	0.91977
751.69197	0.91871
749.63817	0.91898
747.58437	0.91952
745.53056	0.91938
743.47676	0.91891
741.42296	0.91866
739.36916	0.91773
737.31535	0.91463
735.26155	0.90636
733.20775	0.88743
731.15394	0.86247
729.10014	0.85005
727.04634	0.85345
724.99253	0.85357
722.93873	0.83618
720.88493	0.80303
718.83112	0.77213
716.77732	0.76560
714.72352	0.78788
712.66971	0.82368
710.61591	0.85346
708.56211	0.87058
706.50830	0.87894
704.45450	0.88259
702.40070	0.88382
700.34689	0.88421
698.29309	0.88389
696.23929	0.88327
694.18548	0.88345
692.13168	0.88431
690.07788	0.88548
688.02408	0.88615
685.97027	0.88672
683.91647	0.88777
681.86267	0.88792
679.80886	0.88740
677.75506	0.88731
675.70126	0.88723
673.64745	0.88691
671.59365	0.88704
669.53985	0.88791
667.48604	0.88962
665.43224	0.89201
663.37844	0.89437
661.32463	0.89647
659.27083	0.89795
657.21703	0.89816
655.16322	0.89753
653.10942	0.89745
651.05562	0.89855
649.00181	0.90014
646.94801	0.90112
644.89421	0.90063
642.84040	0.89837
640.78660	0.89613
638.73280	0.89634
636.67899	0.89826
634.62519	0.89881
632.57139	0.89779
630.51759	0.89746
628.46378	0.89774
626.40998	0.89768
624.35618	0.89704
622.30237	0.89568
620.24857	0.89431
618.19477	0.89330
616.14096	0.89218
614.08716	0.89118
612.03336	0.89038
609.97955	0.88866
607.92575	0.88599
605.87195	0.88379
603.81814	0.88241
601.76434	0.88109
599.71054	0.88028
597.65673	0.88054
595.60293	0.88031
593.54913	0.87903
591.49532	0.87766
589.44152	0.87551
587.38772	0.87356
585.33391	0.87411
583.28011	0.87477
581.22631	0.87326
579.17250	0.87176
577.11870	0.87091
575.06490	0.86976
573.01110	0.86841
570.95729	0.86668
568.90349	0.86389
566.84969	0.86028
564.79588	0.85770
562.74208	0.85716
560.68828	0.85639
558.63447	0.85438
556.58067	0.85283
554.52687	0.85078
552.47306	0.84718
550.41926	0.84366
548.36546	0.84037
546.31165	0.83709
544.25785	0.83435
542.20405	0.83195
540.15024	0.83004
538.09644	0.82820
536.04264	0.82614
533.98883	0.82446
531.93503	0.82385
529.88123	0.82441
527.82742	0.82501
525.77362	0.82614
523.71982	0.82849
521.66602	0.83014
519.61221	0.83164
517.55841	0.83516
515.50461	0.83854
513.45080	0.84107
511.39700	0.84371
509.34320	0.84330
507.28939	0.84070
505.23559	0.84092
503.18179	0.84299
501.12798	0.84390
499.07418	0.84589
497.02038	0.84942
494.96657	0.85087
492.91277	0.84994
490.85897	0.84894
488.80516	0.84784
486.75136	0.84588
484.69756	0.84236
482.64375	0.83521
480.58995	0.82599
478.53615	0.81802
476.48234	0.81022
474.42854	0.80123
472.37474	0.79347
470.32093	0.78880
468.26713	0.78470
466.21333	0.78230
464.15953	0.78428
462.10572	0.78768
460.05192	0.79098
457.99812	0.79858
455.94431	0.80885
453.89051	0.81419
451.83671	0.81525
449.78290	0.81532
447.72910	0.81521
445.67530	0.81548
443.62149	0.81667
441.56769	0.81824
439.51389	0.81999
437.46008	0.81973
435.40628	0.81791
433.35248	0.81840
431.29867	0.81954
429.24487	0.81765
427.19107	0.81321
425.13726	0.81193
423.08346	0.81667
421.02966	0.82301
418.97585	0.82631
416.92205	0.82665
414.86825	0.83230
412.81445	0.84083
410.76064	0.84242
408.70684	0.84110
406.65304	0.84766
404.59923	0.85796
402.54543	0.86631
400.49163	0.87210
398.43782	0.86971
