3996.70104	0.99468
3994.64724	0.99461
3992.59344	0.99419
3990.53964	0.99378
3988.48583	0.99356
3986.43203	0.99362
3984.37823	0.99388
3982.32442	0.99389
3980.27062	0.99367
3978.21682	0.99381
3976.16301	0.99417
3974.10921	0.99438
3972.05541	0.99459
3970.00160	0.99472
3967.94780	0.99479
3965.89400	0.99492
3963.84019	0.99459
3961.78639	0.99405
3959.73259	0.99450
3957.67878	0.99544
3955.62498	0.99544
3953.57118	0.99481
3951.51737	0.99434
3949.46357	0.99398
3947.40977	0.99417
3945.35596	0.99487
3943.30216	0.99475
3941.24836	0.99367
3939.19455	0.99311
3937.14075	0.99352
3935.08695	0.99425
3933.03315	0.99503
3930.97934	0.99575
3928.92554	0.99598
3926.87174	0.99562
3924.81793	0.99507
3922.76413	0.99471
3920.71033	0.99473
3918.65652	0.99495
3916.60272	0.99470
3914.54892	0.99424
3912.49511	0.99407
3910.44131	0.99360
3908.38751	0.99294
3906.33370	0.99287
3904.27990	0.99316
3902.22610	0.99313
3900.17229	0.99322
3898.11849	0.99384
3896.06469	0.99414
3894.01088	0.99383
3891.95708	0.99386
3889.90328	0.99431
3887.84947	0.99454
3885.79567	0.99508
3883.74187	0.99529
3881.68807	0.99470
3879.63426	0.99451
3877.58046	0.99474
3875.52666	0.99491
3873.47285	0.99497
3871.41905	0.99492
3869.36525	0.99463
3867.31144	0.99400
3865.25764	0.99363
3863.20384	0.99401
3861.15003	0.99443
3859.09623	0.99443
3857.04243	0.99429
3854.98862	0.99417
3852.93482	0.99443
3850.88102	0.99512
3848.82721	0.99526
3846.77341	0.99496
3844.71961	0.99514
3842.66580	0.99589
3840.61200	0.99594
3838.55820	0.99510
3836.50439	0.99452
3834.45059	0.99485
3832.39679	0.99539
3830.34298	0.99547
3828.28918	0.99553
3826.23538	0.99579
3824.18158	0.99607
3822.12777	0.99639
3820.07397	0.99638
3818.02017	0.99560
3815.96636	0.99433
3813.91256	0.99377
3811.85876	0.99398
3809.80495	0.99408
3807.75115	0.99413
3805.69735	0.99446
3803.64354	0.99463
3801.58974	0.99437
3799.53594	0.99447
3797.48213	0.99493
3795.42833	0.99507
3793.37453	0.99498
3791.32072	0.99510
3789.26692	0.99521
3787.21312	0.99510
3785.15931	0.99500
3783.10551	0.99510
3781.05171	0.99526
3778.99790	0.99500
3776.94410	0.99445
3774.89030	0.99454
3772.83650	0.99527
3770.78269	0.99590
3768.72889	0.99608
3766.67509	0.99610
3764.62128	0.99586
3762.56748	0.99514
3760.51368	0.99422
3758.45987	0.99378
3756.40607	0.99442
3754.35227	0.99532
3752.29846	0.99580
3750.24466	0.99566
3748.19086	0.99535
3746.13705	0.99535
3744.08325	0.99495
3742.02945	0.99444
3739.97564	0.99482
3737.92184	0.99571
3735.86804	0.99635
3733.81423	0.99636
3731.76043	0.99591
3729.70663	0.99558
3727.65282	0.99571
3725.59902	0.99559
3723.54522	0.99461
3721.49141	0.99380
3719.43761	0.99384
3717.38381	0.99407
3715.33001	0.99388
3713.27620	0.99358
3711.22240	0.99377
3709.16860	0.99384
3707.11479	0.99312
3705.06099	0.99240
3703.00719	0.99196
3700.95338	0.99143
3698.89958	0.99099
3696.84578	0.99124
3694.79197	0.99203
3692.73817	0.99238
3690.68437	0.99209
3688.63056	0.99213
3686.57676	0.99216
3684.52296	0.99159
3682.46915	0.99101
3680.41535	0.99085
3678.36155	0.99082
3676.30774	0.99114
3674.25394	0.99217
3672.20014	0.99229
3670.14633	0.99133
3668.09253	0.99039
3666.03873	0.98982
3663.98492	0.98950
3661.93112	0.98971
3659.87732	0.99025
3657.82352	0.99026
3655.76971	0.98944
3653.71591	0.98870
3651.66211	0.98836
3649.60830	0.98795
3647.55450	0.98765
3645.50070	0.98763
3643.44689	0.98740
3641.39309	0.98677
3639.33929	0.98648
3637.28548	0.98655
3635.23168	0.98623
3633.17788	0.98607
3631.12407	0.98627
3629.07027	0.98602
3627.01647	0.98542
3624.96266	0.98493
3622.90886	0.98444
3620.85506	0.98420
3618.80125	0.98454
3616.74745	0.98543
3614.69365	0.98619
3612.63984	0.98620
3610.58604	0.98564
3608.53224	0.98517
3606.47844	0.98499
3604.42463	0.98504
3602.37083	0.98510
3600.31703	0.98484
3598.26322	0.98429
3596.20942	0.98391
3594.15562	0.98403
3592.10181	0.98427
3590.04801	0.98428
3587.99421	0.98427
3585.94040	0.98431
3583.88660	0.98416
3581.83280	0.98378
3579.77899	0.98350
3577.72519	0.98347
3575.67139	0.98336
3573.61758	0.98298
3571.56378	0.98263
3569.50998	0.98254
3567.45617	0.98255
3565.40237	0.98246
3563.34857	0.98280
3561.29476	0.98340
3559.24096	0.98343
3557.18716	0.98329
3555.13335	0.98365
3553.07955	0.98386
3551.02575	0.98352
3548.97195	0.98352
3546.91814	0.98405
3544.86434	0.98426
3542.81054	0.98374
3540.75673	0.98317
3538.70293	0.98316
3536.64913	0.98322
3534.59532	0.98299
3532.54152	0.98295
3530.48772	0.98328
3528.43391	0.98389
3526.38011	0.98426
3524.32631	0.98407
3522.27250	0.98395
3520.21870	0.98379
3518.16490	0.98341
3516.11109	0.98336
3514.05729	0.98373
3512.00349	0.98443
3509.94968	0.98506
3507.89588	0.98500
3505.84208	0.98449
3503.78827	0.98432
3501.73447	0.98451
3499.68067	0.98435
3497.62687	0.98411
3495.57306	0.98433
3493.51926	0.98469
3491.46546	0.98498
3489.41165	0.98513
3487.35785	0.98498
3485.30405	0.98504
3483.25024	0.98520
3481.19644	0.98482
3479.14264	0.98438
3477.08883	0.98439
3475.03503	0.98441
3472.98123	0.98424
3470.92742	0.98421
3468.87362	0.98416
3466.81982	0.98380
3464.76601	0.98355
3462.71221	0.98329
3460.65841	0.98304
3458.60460	0.98351
3456.55080	0.98406
3454.49700	0.98395
3452.44319	0.98347
3450.38939	0.98319
3448.33559	0.98348
3446.28178	0.98360
3444.22798	0.98300
3442.17418	0.98255
3440.12038	0.98290
3438.06657	0.98362
3436.01277	0.98409
3433.95897	0.98406
3431.90516	0.98362
3429.85136	0.98306
3427.79756	0.98289
3425.74375	0.98346
3423.68995	0.98393
3421.63615	0.98366
3419.58234	0.98343
3417.52854	0.98355
3415.47474	0.98340
3413.42093	0.98287
3411.36713	0.98264
3409.31333	0.98261
3407.25952	0.98253
3405.20572	0.98259
3403.15192	0.98242
3401.09811	0.98212
3399.04431	0.98227
3396.99051	0.98305
3394.93670	0.98367
3392.88290	0.98330
3390.82910	0.98264
3388.77529	0.98264
3386.72149	0.98305
3384.66769	0.98337
3382.61389	0.98346
3380.56008	0.98326
3378.50628	0.98304
3376.45248	0.98304
3374.39867	0.98309
3372.34487	0.98337
3370.29107	0.98367
3368.23726	0.98341
3366.18346	0.98301
3364.12966	0.98312
3362.07585	0.98360
3360.02205	0.98395
3357.96825	0.98408
3355.91444	0.98414
3353.86064	0.98429
3351.80684	0.98445
3349.75303	0.98421
3347.69923	0.98393
3345.64543	0.98418
3343.59162	0.98455
3341.53782	0.98482
3339.48402	0.98512
3337.43021	0.98520
3335.37641	0.98484
3333.32261	0.98439
3331.26881	0.98424
3329.21500	0.98441
3327.16120	0.98507
3325.10740	0.98576
3323.05359	0.98580
3320.99979	0.98551
3318.94599	0.98512
3316.89218	0.98485
3314.83838	0.98503
3312.78458	0.98547
3310.73077	0.98592
3308.67697	0.98623
3306.62317	0.98642
3304.56936	0.98658
3302.51556	0.98649
3300.46176	0.98617
3298.40795	0.98608
3296.35415	0.98613
3294.30035	0.98637
3292.24654	0.98665
3290.19274	0.98641
3288.13894	0.98613
3286.08513	0.98617
3284.03133	0.98618
3281.97753	0.98634
3279.92372	0.98676
3277.86992	0.98691
3275.81612	0.98679
3273.76232	0.98680
3271.70851	0.98701
3269.65471	0.98713
3267.60091	0.98684
3265.54710	0.98655
3263.49330	0.98650
3261.43950	0.98613
3259.38569	0.98554
3257.33189	0.98566
3255.27809	0.98615
3253.22428	0.98631
3251.17048	0.98646
3249.11668	0.98636
3247.06287	0.98565
3245.00907	0.98543
3242.95527	0.98630
3240.90146	0.98728
3238.84766	0.98775
3236.79386	0.98779
3234.74005	0.98748
3232.68625	0.98722
3230.63245	0.98733
3228.57864	0.98767
3226.52484	0.98804
3224.47104	0.98819
3222.41724	0.98813
3220.36343	0.98826
3218.30963	0.98847
3216.25583	0.98825
3214.20202	0.98765
3212.14822	0.98745
3210.09442	0.98788
3208.04061	0.98801
3205.98681	0.98768
3203.93301	0.98760
3201.87920	0.98777
3199.82540	0.98779
3197.77160	0.98773
3195.71779	0.98776
3193.66399	0.98781
3191.61019	0.98804
3189.55638	0.98849
3187.50258	0.98866
3185.44878	0.98816
3183.39497	0.98743
3181.34117	0.98751
3179.28737	0.98841
3177.23356	0.98903
3175.17976	0.98917
3173.12596	0.98922
3171.07215	0.98910
3169.01835	0.98883
3166.96455	0.98857
3164.91075	0.98863
3162.85694	0.98893
3160.80314	0.98918
3158.74934	0.98966
3156.69553	0.99022
3154.64173	0.99022
3152.58793	0.98964
3150.53412	0.98898
3148.48032	0.98860
3146.42652	0.98865
3144.37271	0.98915
3142.31891	0.98983
3140.26511	0.99016
3138.21130	0.99001
3136.15750	0.98975
3134.10370	0.98975
3132.04989	0.99006
3129.99609	0.99030
3127.94229	0.99052
3125.88848	0.99056
3123.83468	0.99019
3121.78088	0.99007
3119.72707	0.99038
3117.67327	0.99059
3115.61947	0.99080
3113.56566	0.99098
3111.51186	0.99090
3109.45806	0.99099
3107.40426	0.99126
3105.35045	0.99130
3103.29665	0.99126
3101.24285	0.99136
3099.18904	0.99147
3097.13524	0.99151
3095.08144	0.99161
3093.02763	0.99181
3090.97383	0.99168
3088.92003	0.99101
3086.86622	0.99058
3084.81242	0.99078
3082.75862	0.99100
3080.70481	0.99130
3078.65101	0.99200
3076.59721	0.99219
3074.54340	0.99143
3072.48960	0.99086
3070.43580	0.99117
3068.38199	0.99162
3066.32819	0.99160
3064.27439	0.99146
3062.22058	0.99155
3060.16678	0.99187
3058.11298	0.99217
3056.05918	0.99224
3054.00537	0.99220
3051.95157	0.99206
3049.89777	0.99182
3047.84396	0.99161
3045.79016	0.99142
3043.73636	0.99133
3041.68255	0.99161
3039.62875	0.99201
3037.57495	0.99213
3035.52114	0.99221
3033.46734	0.99235
3031.41354	0.99228
3029.35973	0.99218
3027.30593	0.99232
3025.25213	0.99254
3023.19832	0.99248
3021.14452	0.99218
3019.09072	0.99207
3017.03691	0.99210
3014.98311	0.99193
3012.92931	0.99187
3010.87550	0.99205
3008.82170	0.99199
3006.76790	0.99158
3004.71409	0.99127
3002.66029	0.99113
3000.60649	0.99085
2998.55269	0.99054
2996.49888	0.99043
2994.44508	0.99021
2992.39128	0.98969
2990.33747	0.98911
2988.28367	0.98871
2986.22987	0.98805
2984.17606	0.98682
2982.12226	0.98534
2980.06846	0.98348
2978.01465	0.98115
2975.96085	0.97848
2973.90705	0.97524
2971.85324	0.97091
2969.79944	0.96523
2967.74564	0.95858
2965.69183	0.95127
2963.63803	0.94362
2961.58423	0.93675
2959.53042	0.93171
2957.47662	0.92818
2955.42282	0.92475
2953.36901	0.92070
2951.31521	0.91728
2949.26141	0.91660
2947.20761	0.92018
2945.15380	0.92780
2943.10000	0.93678
2941.04620	0.94352
2938.99239	0.94609
2936.93859	0.94461
2934.88479	0.94026
2932.83098	0.93429
2930.77718	0.92678
2928.72338	0.91775
2926.66957	0.90856
2924.61577	0.89991
2922.56197	0.89116
2920.50816	0.88275
2918.45436	0.87618
2916.40056	0.87342
2914.34675	0.87583
2912.29295	0.88197
2910.23915	0.88914
2908.18534	0.89606
2906.13154	0.90242
2904.07774	0.90850
2902.02393	0.91480
2899.97013	0.92097
2897.91633	0.92646
2895.86252	0.93124
2893.80872	0.93524
2891.75492	0.93823
2889.70112	0.94008
2887.64731	0.94119
2885.59351	0.94168
2883.53971	0.94107
2881.48590	0.93951
2879.43210	0.93766
2877.37830	0.93610
2875.32449	0.93547
2873.27069	0.93563
2871.21689	0.93546
2869.16308	0.93444
2867.10928	0.93406
2865.05548	0.93652
2863.00167	0.94210
2860.94787	0.94830
2858.89407	0.95223
2856.84026	0.95281
2854.78646	0.95007
2852.73266	0.94561
2850.67885	0.94265
2848.62505	0.94277
2846.57125	0.94439
2844.51744	0.94486
2842.46364	0.94288
2840.40984	0.93922
2838.35603	0.93620
2836.30223	0.93672
2834.24843	0.94231
2832.19463	0.95121
2830.14082	0.96007
2828.08702	0.96692
2826.03322	0.97144
2823.97941	0.97432
2821.92561	0.97656
2819.87181	0.97833
2817.81800	0.97953
2815.76420	0.98049
2813.71040	0.98147
2811.65659	0.98247
2809.60279	0.98337
2807.54899	0.98410
2805.49518	0.98492
2803.44138	0.98587
2801.38758	0.98653
2799.33377	0.98686
2797.27997	0.98701
2795.22617	0.98715
2793.17236	0.98745
2791.11856	0.98782
2789.06476	0.98812
2787.01095	0.98835
2784.95715	0.98867
2782.90335	0.98903
2780.84955	0.98919
2778.79574	0.98935
2776.74194	0.98971
2774.68814	0.99011
2772.63433	0.99022
2770.58053	0.98999
2768.52673	0.98979
2766.47292	0.99011
2764.41912	0.99087
2762.36532	0.99143
2760.31151	0.99128
2758.25771	0.99085
2756.20391	0.99091
2754.15010	0.99130
2752.09630	0.99158
2750.04250	0.99160
2747.98869	0.99141
2745.93489	0.99129
2743.88109	0.99126
2741.82728	0.99122
2739.77348	0.99122
2737.71968	0.99116
2735.66587	0.99102
2733.61207	0.99089
2731.55827	0.99052
2729.50446	0.99007
2727.45066	0.98996
2725.39686	0.98988
2723.34306	0.98982
2721.28925	0.99003
2719.23545	0.99019
2717.18165	0.99035
2715.12784	0.99064
2713.07404	0.99084
2711.02024	0.99112
2708.96643	0.99148
2706.91263	0.99164
2704.85883	0.99156
2702.80502	0.99137
2700.75122	0.99137
2698.69742	0.99154
2696.64361	0.99164
2694.58981	0.99174
2692.53601	0.99184
2690.48220	0.99178
2688.42840	0.99162
2686.37460	0.99150
2684.32079	0.99154
2682.26699	0.99191
2680.21319	0.99243
2678.15938	0.99244
2676.10558	0.99206
2674.05178	0.99193
2671.99797	0.99208
2669.94417	0.99214
2667.89037	0.99189
2665.83657	0.99166
2663.78276	0.99158
2661.72896	0.99139
2659.67516	0.99120
2657.62135	0.99123
2655.56755	0.99150
2653.51375	0.99170
2651.45994	0.99178
2649.40614	0.99207
2647.35234	0.99234
2645.29853	0.99238
2643.24473	0.99244
2641.19093	0.99261
2639.13712	0.99278
2637.08332	0.99287
2635.02952	0.99268
2632.97571	0.99233
2630.92191	0.99203
2628.86811	0.99183
2626.81430	0.99189
2624.76050	0.99208
2622.70670	0.99231
2620.65289	0.99259
2618.59909	0.99267
2616.54529	0.99237
2614.49149	0.99192
2612.43768	0.99164
2610.38388	0.99153
2608.33008	0.99165
2606.27627	0.99208
2604.22247	0.99276
2602.16867	0.99332
2600.11486	0.99330
2598.06106	0.99283
2596.00726	0.99218
2593.95345	0.99180
2591.89965	0.99199
2589.84585	0.99249
2587.79204	0.99288
2585.73824	0.99295
2583.68444	0.99310
2581.63063	0.99341
2579.57683	0.99312
2577.52303	0.99238
2575.46922	0.99228
2573.41542	0.99294
2571.36162	0.99353
2569.30781	0.99416
2567.25401	0.99500
2565.20021	0.99501
2563.14640	0.99420
2561.09260	0.99370
2559.03880	0.99358
2556.98500	0.99352
2554.93119	0.99348
2552.87739	0.99358
2550.82359	0.99394
2548.76978	0.99388
2546.71598	0.99321
2544.66218	0.99278
2542.60837	0.99309
2540.55457	0.99366
2538.50077	0.99368
2536.44696	0.99324
2534.39316	0.99302
2532.33936	0.99311
2530.28555	0.99312
2528.23175	0.99310
2526.17795	0.99365
2524.12414	0.99464
2522.07034	0.99480
2520.01654	0.99417
2517.96273	0.99397
2515.90893	0.99403
2513.85513	0.99409
2511.80132	0.99434
2509.74752	0.99432
2507.69372	0.99395
2505.63992	0.99353
2503.58611	0.99340
2501.53231	0.99365
2499.47851	0.99416
2497.42470	0.99465
2495.37090	0.99457
2493.31710	0.99451
2491.26329	0.99478
2489.20949	0.99478
2487.15569	0.99485
2485.10188	0.99528
2483.04808	0.99576
2480.99428	0.99568
2478.94047	0.99499
2476.88667	0.99449
2474.83287	0.99460
2472.77906	0.99503
2470.72526	0.99509
2468.67146	0.99464
2466.61765	0.99486
2464.56385	0.99589
2462.51005	0.99609
2460.45624	0.99537
2458.40244	0.99514
2456.34864	0.99518
2454.29483	0.99493
2452.24103	0.99482
2450.18723	0.99469
2448.13343	0.99442
2446.07962	0.99455
2444.02582	0.99476
2441.97202	0.99454
2439.91821	0.99430
2437.86441	0.99445
2435.81061	0.99464
2433.75680	0.99476
2431.70300	0.99468
2429.64920	0.99418
2427.59539	0.99375
2425.54159	0.99372
2423.48779	0.99409
2421.43398	0.99455
2419.38018	0.99450
2417.32638	0.99438
2415.27257	0.99474
2413.21877	0.99485
2411.16497	0.99475
2409.11116	0.99487
2407.05736	0.99496
2405.00356	0.99511
2402.94975	0.99537
2400.89595	0.99571
2398.84215	0.99592
2396.78834	0.99583
2394.73454	0.99577
2392.68074	0.99583
2390.62694	0.99575
2388.57313	0.99544
2386.51933	0.99511
2384.46553	0.99506
2382.41172	0.99511
2380.35792	0.99479
2378.30412	0.99420
2376.25031	0.99413
2374.19651	0.99462
2372.14271	0.99492
2370.08890	0.99526
2368.03510	0.99591
2365.98130	0.99639
2363.92749	0.99629
2361.87369	0.99503
2359.81989	0.99337
2357.76608	0.99334
2355.71228	0.99378
2353.65848	0.99339
2351.60467	0.99379
2349.55087	0.99446
2347.49707	0.99426
2345.44326	0.99383
2343.38946	0.99428
2341.33566	0.99541
2339.28186	0.99576
2337.22805	0.99466
2335.17425	0.99358
2333.12045	0.99365
2331.06664	0.99403
2329.01284	0.99446
2326.95904	0.99472
2324.90523	0.99412
2322.85143	0.99325
2320.79763	0.99303
2318.74382	0.99367
2316.69002	0.99448
2314.63622	0.99467
2312.58241	0.99455
2310.52861	0.99475
2308.47481	0.99502
2306.42100	0.99462
2304.36720	0.99380
2302.31340	0.99371
2300.25959	0.99429
2298.20579	0.99440
2296.15199	0.99407
2294.09818	0.99415
2292.04438	0.99462
2289.99058	0.99492
2287.93677	0.99474
2285.88297	0.99425
2283.82917	0.99397
2281.77537	0.99413
2279.72156	0.99451
2277.66776	0.99479
2275.61396	0.99498
2273.56015	0.99474
2271.50635	0.99394
2269.45255	0.99357
2267.39874	0.99382
2265.34494	0.99406
2263.29114	0.99441
2261.23733	0.99503
2259.18353	0.99552
2257.12973	0.99552
2255.07592	0.99553
2253.02212	0.99587
2250.96832	0.99575
2248.91451	0.99538
2246.86071	0.99540
2244.80691	0.99537
2242.75310	0.99545
2240.69930	0.99558
2238.64550	0.99516
2236.59169	0.99452
2234.53789	0.99440
2232.48409	0.99476
2230.43029	0.99530
2228.37648	0.99546
2226.32268	0.99431
2224.26888	0.99256
2222.21507	0.99172
2220.16127	0.99243
2218.10747	0.99471
2216.05366	0.99748
2213.99986	0.99905
2211.94606	0.99839
2209.89225	0.99685
2207.83845	0.99610
2205.78465	0.99583
2203.73084	0.99631
2201.67704	0.99778
2199.62324	0.99798
2197.56943	0.99583
2195.51563	0.99414
2193.46183	0.99443
2191.40802	0.99485
2189.35422	0.99468
2187.30042	0.99360
2185.24661	0.99191
2183.19281	0.99314
2181.13901	0.99735
2179.08520	0.99967
2177.03140	0.99887
2174.97760	0.99767
2172.92380	0.99762
2170.86999	0.99803
2168.81619	0.99770
2166.76239	0.99639
2164.70858	0.99478
2162.65478	0.99368
2160.60098	0.99410
2158.54717	0.99630
2156.49337	0.99871
2154.43957	1.00028
2152.38576	1.00139
2150.33196	1.00135
2148.27816	0.99987
2146.22435	0.99963
2144.17055	0.99969
2142.11675	0.99750
2140.06294	0.99635
2138.00914	0.99740
2135.95534	0.99779
2133.90153	0.99759
2131.84773	0.99722
2129.79393	0.99611
2127.74012	0.99530
2125.68632	0.99585
2123.63252	0.99699
2121.57871	0.99754
2119.52491	0.99680
2117.47111	0.99533
2115.41731	0.99474
2113.36350	0.99543
2111.30970	0.99636
2109.25590	0.99647
2107.20209	0.99617
2105.14829	0.99606
2103.09449	0.99601
2101.04068	0.99587
2098.98688	0.99477
2096.93308	0.99334
2094.87927	0.99350
2092.82547	0.99477
2090.77167	0.99534
2088.71786	0.99487
2086.66406	0.99449
2084.61026	0.99521
2082.55645	0.99659
2080.50265	0.99767
2078.44885	0.99812
2076.39504	0.99753
2074.34124	0.99633
2072.28744	0.99516
2070.23363	0.99367
2068.17983	0.99284
2066.12603	0.99432
2064.07223	0.99720
2062.01842	0.99876
2059.96462	0.99787
2057.91082	0.99540
2055.85701	0.99255
2053.80321	0.99056
2051.74941	0.98964
2049.69560	0.98975
2047.64180	0.99221
2045.58800	0.99570
2043.53419	0.99680
2041.48039	0.99548
2039.42659	0.99441
2037.37278	0.99461
2035.31898	0.99640
2033.26518	0.99920
2031.21137	0.99915
2029.15757	0.99754
2027.10377	0.99873
2025.04996	0.99977
2022.99616	0.99832
2020.94236	0.99685
2018.88855	0.99639
2016.83475	0.99739
2014.78095	0.99851
2012.72714	0.99922
2010.67334	1.00066
2008.61954	0.99952
2006.56574	0.99570
2004.51193	0.99430
2002.45813	0.99513
2000.40433	0.99531
1998.35052	0.99483
1996.29672	0.99530
1994.24292	0.99735
1992.18911	0.99973
1990.13531	0.99993
1988.08151	0.99753
1986.02770	0.99535
1983.97390	0.99423
1981.92010	0.99253
1979.86629	0.99122
1977.81249	0.99265
1975.75869	0.99527
1973.70488	0.99718
1971.65108	0.99956
1969.59728	1.00081
1967.54347	0.99918
1965.48967	0.99675
1963.43587	0.99538
1961.38206	0.99519
1959.32826	0.99623
1957.27446	0.99836
1955.22066	0.99955
1953.16685	0.99823
1951.11305	0.99578
1949.05925	0.99424
1947.00544	0.99374
1944.95164	0.99427
1942.89784	0.99642
1940.84403	0.99844
1938.79023	0.99841
1936.73643	0.99732
1934.68262	0.99639
1932.62882	0.99583
1930.57502	0.99550
1928.52121	0.99533
1926.46741	0.99569
1924.41361	0.99580
1922.35980	0.99520
1920.30600	0.99512
1918.25220	0.99567
1916.19839	0.99652
1914.14459	0.99695
1912.09079	0.99634
1910.03698	0.99524
1907.98318	0.99400
1905.92938	0.99331
1903.87557	0.99416
1901.82177	0.99558
1899.76797	0.99619
1897.71417	0.99635
1895.66036	0.99667
1893.60656	0.99676
1891.55276	0.99629
1889.49895	0.99558
1887.44515	0.99446
1885.39135	0.99339
1883.33754	0.99328
1881.28374	0.99422
1879.22994	0.99553
1877.17613	0.99585
1875.12233	0.99544
1873.06853	0.99550
1871.01472	0.99571
1868.96092	0.99589
1866.90712	0.99606
1864.85331	0.99565
1862.79951	0.99503
1860.74571	0.99501
1858.69190	0.99547
1856.63810	0.99557
1854.58430	0.99532
1852.53049	0.99524
1850.47669	0.99553
1848.42289	0.99574
1846.36908	0.99525
1844.31528	0.99471
1842.26148	0.99490
1840.20768	0.99533
1838.15387	0.99538
1836.10007	0.99481
1834.04627	0.99424
1831.99246	0.99429
1829.93866	0.99453
1827.88486	0.99459
1825.83105	0.99487
1823.77725	0.99493
1821.72345	0.99448
1819.66964	0.99436
1817.61584	0.99479
1815.56204	0.99532
1813.50823	0.99540
1811.45443	0.99519
1809.40063	0.99520
1807.34682	0.99493
1805.29302	0.99433
1803.23922	0.99427
1801.18541	0.99483
1799.13161	0.99525
1797.07781	0.99521
1795.02400	0.99487
1792.97020	0.99453
1790.91640	0.99440
1788.86260	0.99437
1786.80879	0.99452
1784.75499	0.99473
1782.70119	0.99485
1780.64738	0.99493
1778.59358	0.99464
1776.53978	0.99410
1774.48597	0.99374
1772.43217	0.99360
1770.37837	0.99367
1768.32456	0.99390
1766.27076	0.99394
1764.21696	0.99381
1762.16315	0.99390
1760.10935	0.99411
1758.05555	0.99418
1756.00174	0.99416
1753.94794	0.99404
1751.89414	0.99357
1749.84033	0.99303
1747.78653	0.99334
1745.73273	0.99377
1743.67892	0.99359
1741.62512	0.99325
1739.57132	0.99276
1737.51751	0.99216
1735.46371	0.99200
1733.40991	0.99204
1731.35611	0.99195
1729.30230	0.99214
1727.24850	0.99248
1725.19470	0.99273
1723.14089	0.99291
1721.08709	0.99275
1719.03329	0.99233
1716.97948	0.99233
1714.92568	0.99263
1712.87188	0.99268
1710.81807	0.99253
1708.76427	0.99238
1706.71047	0.99261
1704.65666	0.99275
1702.60286	0.99220
1700.54906	0.99150
1698.49525	0.99126
1696.44145	0.99096
1694.38765	0.99053
1692.33384	0.99048
1690.28004	0.99051
1688.22624	0.99016
1686.17243	0.98948
1684.11863	0.98883
1682.06483	0.98883
1680.01103	0.98904
1677.95722	0.98921
1675.90342	0.98955
1673.84962	0.98984
1671.79581	0.98970
1669.74201	0.98905
1667.68821	0.98835
1665.63440	0.98800
1663.58060	0.98795
1661.52680	0.98809
1659.47299	0.98790
1657.41919	0.98742
1655.36539	0.98727
1653.31158	0.98787
1651.25778	0.98797
1649.20398	0.98732
1647.15017	0.98693
1645.09637	0.98698
1643.04257	0.98686
1640.98876	0.98683
1638.93496	0.98708
1636.88116	0.98724
1634.82735	0.98710
1632.77355	0.98693
1630.71975	0.98691
1628.66594	0.98712
1626.61214	0.98739
1624.55834	0.98745
1622.50454	0.98749
1620.45073	0.98753
1618.39693	0.98739
1616.34313	0.98737
1614.28932	0.98753
1612.23552	0.98744
1610.18172	0.98730
1608.12791	0.98747
1606.07411	0.98779
1604.02031	0.98812
1601.96650	0.98842
1599.91270	0.98866
1597.85890	0.98868
1595.80509	0.98854
1593.75129	0.98869
1591.69749	0.98898
1589.64368	0.98895
1587.58988	0.98888
1585.53608	0.98893
1583.48227	0.98894
1581.42847	0.98902
1579.37467	0.98909
1577.32086	0.98885
1575.26706	0.98832
1573.21326	0.98822
1571.15945	0.98863
1569.10565	0.98909
1567.05185	0.98899
1564.99805	0.98891
1562.94424	0.98925
1560.89044	0.98962
1558.83664	0.98946
1556.78283	0.98895
1554.72903	0.98888
1552.67523	0.98884
1550.62142	0.98870
1548.56762	0.98863
1546.51382	0.98855
1544.46001	0.98857
1542.40621	0.98866
1540.35241	0.98857
1538.29860	0.98838
1536.24480	0.98820
1534.19100	0.98791
1532.13719	0.98715
1530.08339	0.98638
1528.02959	0.98605
1525.97578	0.98582
1523.92198	0.98529
1521.86818	0.98442
1519.81437	0.98359
1517.76057	0.98315
1515.70677	0.98275
1513.65297	0.98241
1511.59916	0.98227
1509.54536	0.98221
1507.49156	0.98194
1505.43775	0.98084
1503.38395	0.97975
1501.33015	0.97899
1499.27634	0.97830
1497.22254	0.97740
1495.16874	0.97635
1493.11493	0.97577
1491.06113	0.97564
1489.00733	0.97537
1486.95352	0.97468
1484.89972	0.97371
1482.84592	0.97252
1480.79211	0.97111
1478.73831	0.96950
1476.68451	0.96745
1474.63070	0.96382
1472.57690	0.95783
1470.52310	0.95180
1468.46929	0.94658
1466.41549	0.94024
1464.36169	0.93281
1462.30788	0.92749
1460.25408	0.92466
1458.20028	0.92304
1456.14648	0.92265
1454.09267	0.92345
1452.03887	0.92544
1449.98507	0.92945
1447.93126	0.93652
1445.87746	0.94491
1443.82366	0.95164
1441.76985	0.95609
1439.71605	0.95823
1437.66225	0.95893
1435.60844	0.96015
1433.55464	0.96321
1431.50084	0.96739
1429.44703	0.97120
1427.39323	0.97336
1425.33943	0.97466
1423.28562	0.97587
1421.23182	0.97666
1419.17802	0.97720
1417.12421	0.97820
1415.07041	0.97934
1413.01661	0.98024
1410.96280	0.98083
1408.90900	0.98112
1406.85520	0.98150
1404.80139	0.98226
1402.74759	0.98315
1400.69379	0.98371
1398.63999	0.98377
1396.58618	0.98365
1394.53238	0.98347
1392.47858	0.98320
1390.42477	0.98288
1388.37097	0.98146
1386.31717	0.97752
1384.26336	0.97053
1382.20956	0.95869
1380.15576	0.93994
1378.10195	0.91853
1376.04815	0.90658
1373.99435	0.91378
1371.94054	0.93325
1369.88674	0.95139
1367.83294	0.96376
1365.77913	0.96965
1363.72533	0.97106
1361.67153	0.97016
1359.61772	0.96883
1357.56392	0.96905
1355.51012	0.97163
1353.45631	0.97529
1351.40251	0.97822
1349.34871	0.98021
1347.29491	0.98169
1345.24110	0.98277
1343.18730	0.98350
1341.13350	0.98411
1339.07969	0.98455
1337.02589	0.98473
1334.97209	0.98460
1332.91828	0.98426
1330.86448	0.98393
1328.81068	0.98373
1326.75687	0.98373
1324.70307	0.98404
1322.64927	0.98465
1320.59546	0.98532
1318.54166	0.98560
1316.48786	0.98557
1314.43405	0.98563
1312.38025	0.98568
1310.32645	0.98554
1308.27264	0.98509
1306.21884	0.98433
1304.16504	0.98371
1302.11123	0.98354
1300.05743	0.98360
1298.00363	0.98353
1295.94982	0.98317
1293.89602	0.98294
1291.84222	0.98326
1289.78842	0.98373
1287.73461	0.98401
1285.68081	0.98428
1283.62701	0.98461
1281.57320	0.98475
1279.51940	0.98467
1277.46560	0.98460
1275.41179	0.98451
1273.35799	0.98418
1271.30419	0.98366
1269.25038	0.98341
1267.19658	0.98355
1265.14278	0.98365
1263.08897	0.98345
1261.03517	0.98310
1258.98137	0.98257
1256.92756	0.98196
1254.87376	0.98158
1252.81996	0.98147
1250.76615	0.98149
1248.71235	0.98148
1246.65855	0.98131
1244.60474	0.98117
1242.55094	0.98101
1240.49714	0.98074
1238.44334	0.98061
1236.38953	0.98050
1234.33573	0.98027
1232.28193	0.97997
1230.22812	0.97952
1228.17432	0.97894
1226.12052	0.97837
1224.06671	0.97764
1222.01291	0.97645
1219.95911	0.97494
1217.90530	0.97351
1215.85150	0.97234
1213.79770	0.97145
1211.74389	0.97067
1209.69009	0.96972
1207.63629	0.96866
1205.58248	0.96737
1203.52868	0.96553
1201.47488	0.96369
1199.42107	0.96218
1197.36727	0.96049
1195.31347	0.95855
1193.25966	0.95659
1191.20586	0.95463
1189.15206	0.95265
1187.09825	0.95071
1185.04445	0.94876
1182.99065	0.94665
1180.93685	0.94432
1178.88304	0.94191
1176.82924	0.93953
1174.77544	0.93695
1172.72163	0.93371
1170.66783	0.92999
1168.61403	0.92657
1166.56022	0.92420
1164.50642	0.92299
1162.45262	0.92260
1160.39881	0.92275
1158.34501	0.92303
1156.29121	0.92297
1154.23740	0.92219
1152.18360	0.92096
1150.12980	0.92025
1148.07599	0.92010
1146.02219	0.91978
1143.96839	0.91946
1141.91458	0.91962
1139.86078	0.91984
1137.80698	0.91942
1135.75317	0.91831
1133.69937	0.91711
1131.64557	0.91631
1129.59176	0.91580
1127.53796	0.91491
1125.48416	0.91337
1123.43036	0.91172
1121.37655	0.91006
1119.32275	0.90816
1117.26895	0.90617
1115.21514	0.90416
1113.16134	0.90207
1111.10754	0.89995
1109.05373	0.89773
1106.99993	0.89536
1104.94613	0.89304
1102.89232	0.89112
1100.83852	0.88968
1098.78472	0.88843
1096.73091	0.88723
1094.67711	0.88621
1092.62331	0.88538
1090.56950	0.88463
1088.51570	0.88418
1086.46190	0.88405
1084.40809	0.88364
1082.35429	0.88313
1080.30049	0.88300
1078.24668	0.88261
1076.19288	0.88181
1074.13908	0.88121
1072.08528	0.88037
1070.03147	0.87913
1067.97767	0.87800
1065.92387	0.87655
1063.87006	0.87446
1061.81626	0.87230
1059.76246	0.87037
1057.70865	0.86846
1055.65485	0.86643
1053.60105	0.86426
1051.54724	0.86204
1049.49344	0.85986
1047.43964	0.85751
1045.38583	0.85492
1043.33203	0.85221
1041.27823	0.84947
1039.22442	0.84692
1037.17062	0.84453
1035.11682	0.84225
1033.06301	0.84059
1031.00921	0.83974
1028.95541	0.83906
1026.90160	0.83814
1024.84780	0.83731
1022.79400	0.83671
1020.74019	0.83626
1018.68639	0.83591
1016.63259	0.83531
1014.57879	0.83465
1012.52498	0.83455
1010.47118	0.83457
1008.41738	0.83430
1006.36357	0.83411
1004.30977	0.83380
1002.25597	0.83293
1000.20216	0.83190
998.14836	0.83164
996.09456	0.83328
994.04075	0.83670
991.98695	0.84046
989.93315	0.84391
987.87934	0.84726
985.82554	0.85075
983.77174	0.85446
981.71793	0.85824
979.66413	0.86141
977.61033	0.86348
975.55652	0.86507
973.50272	0.86757
971.44892	0.87236
969.39511	0.87922
967.34131	0.88627
965.28751	0.89238
963.23371	0.89770
961.17990	0.90220
959.12610	0.90576
957.07230	0.90890
955.01849	0.91226
952.96469	0.91570
950.91089	0.91862
948.85708	0.92082
946.80328	0.92209
944.74948	0.92278
942.69567	0.92384
940.64187	0.92531
938.58807	0.92672
936.53426	0.92846
934.48046	0.93085
932.42666	0.93312
930.37285	0.93486
928.31905	0.93623
926.26525	0.93697
924.21144	0.93736
922.15764	0.93783
920.10384	0.93842
918.05003	0.93904
915.99623	0.93928
913.94243	0.93932
911.88862	0.93994
909.83482	0.94125
907.78102	0.94297
905.72722	0.94435
903.67341	0.94471
901.61961	0.94450
899.56581	0.94499
897.51200	0.94718
895.45820	0.95044
893.40440	0.95330
891.35059	0.95527
889.29679	0.95646
887.24299	0.95728
885.18918	0.95800
883.13538	0.95836
881.08158	0.95841
879.02777	0.95842
876.97397	0.95833
874.92017	0.95860
872.86636	0.95991
870.81256	0.96175
868.75876	0.96334
866.70495	0.96413
864.65115	0.96365
862.59735	0.96267
860.54354	0.96269
858.48974	0.96410
856.43594	0.96590
854.38213	0.96729
852.32833	0.96789
850.27453	0.96756
848.22073	0.96714
846.16692	0.96643
844.11312	0.96387
842.05932	0.96048
840.00551	0.95945
837.95171	0.96094
835.89791	0.96244
833.84410	0.96333
831.79030	0.96429
829.73650	0.96476
827.68269	0.96468
825.62889	0.96480
823.57509	0.96488
821.52128	0.96460
819.46748	0.96433
817.41368	0.96456
815.35987	0.96470
813.30607	0.96297
811.25227	0.95928
809.19846	0.95494
807.14466	0.95085
805.09086	0.94819
803.03705	0.94700
800.98325	0.94616
798.92945	0.94611
796.87565	0.94745
794.82184	0.94945
792.76804	0.95121
790.71424	0.95251
788.66043	0.95346
786.60663	0.95334
784.55283	0.95207
782.49902	0.95114
780.44522	0.95127
778.39142	0.95197
776.33761	0.95305
774.28381	0.95427
772.23001	0.95509
770.17620	0.95544
768.12240	0.95538
766.06860	0.95483
764.01479	0.95405
761.96099	0.95348
759.90719	0.95316
757.85338	0.95311
755.79958	0.95351
753.74578	0.95420
751.69197	0.95464
749.63817	0.95457
747.58437	0.95449
745.53056	0.95500
743.47676	0.95591
741.42296	0.95667
739.36916	0.95724
737.31535	0.95761
735.26155	0.95758
733.20775	0.95641
731.15394	0.95413
729.10014	0.95234
727.04634	0.95111
724.99253	0.94945
722.93873	0.94806
720.88493	0.94809
718.83112	0.94928
716.77732	0.95077
714.72352	0.95271
712.66971	0.95512
710.61591	0.95719
708.56211	0.95859
706.50830	0.95931
704.45450	0.95860
702.40070	0.95679
700.34689	0.95532
698.29309	0.95391
696.23929	0.95227
694.18548	0.95191
692.13168	0.95289
690.07788	0.95364
688.02408	0.95405
685.97027	0.95470
683.91647	0.95539
681.86267	0.95586
679.80886	0.95583
677.75506	0.95489
675.70126	0.95369
673.64745	0.95331
671.59365	0.95353
669.53985	0.95447
667.48604	0.95614
665.43224	0.95580
663.37844	0.95377
661.32463	0.95213
659.27083	0.95154
657.21703	0.95066
655.16322	0.94919
653.10942	0.94725
651.05562	0.94501
649.00181	0.94366
646.94801	0.94394
644.89421	0.94556
642.84040	0.94775
640.78660	0.94948
638.73280	0.94973
636.67899	0.94899
634.62519	0.94925
632.57139	0.95034
630.51759	0.95087
628.46378	0.95073
626.40998	0.95017
624.35618	0.94917
622.30237	0.94730
620.24857	0.94557
618.19477	0.94493
616.14096	0.94330
614.08716	0.94086
612.03336	0.94011
609.97955	0.93991
607.92575	0.93887
605.87195	0.93759
603.81814	0.93626
601.76434	0.93529
599.71054	0.93423
597.65673	0.93174
595.60293	0.92785
593.54913	0.92377
591.49532	0.92143
589.44152	0.92180
587.38772	0.92354
585.33391	0.92490
583.28011	0.92573
581.22631	0.92673
579.17250	0.92810
577.11870	0.92938
575.06490	0.92925
573.01110	0.92735
570.95729	0.92493
568.90349	0.92341
566.84969	0.92196
564.79588	0.91896
562.74208	0.91641
560.68828	0.91532
558.63447	0.91398
556.58067	0.91224
554.52687	0.91063
552.47306	0.90930
550.41926	0.90777
548.36546	0.90588
546.31165	0.90367
544.25785	0.90046
542.20405	0.89765
540.15024	0.89656
538.09644	0.89511
536.04264	0.89246
533.98883	0.89078
531.93503	0.89051
529.88123	0.89083
527.82742	0.89185
525.77362	0.89263
523.71982	0.89285
521.66602	0.89373
519.61221	0.89511
517.55841	0.89690
515.50461	0.89945
513.45080	0.90145
511.39700	0.90331
509.34320	0.90612
507.28939	0.90799
505.23559	0.90811
503.18179	0.90793
501.12798	0.90812
499.07418	0.90916
497.02038	0.91032
494.96657	0.90922
492.91277	0.90485
490.85897	0.89999
488.80516	0.89701
486.75136	0.89302
484.69756	0.88607
482.64375	0.87825
480.58995	0.87096
478.53615	0.86514
476.48234	0.86073
474.42854	0.85663
472.37474	0.85382
470.32093	0.85326
468.26713	0.85337
466.21333	0.85376
464.15953	0.85697
462.10572	0.86286
460.05192	0.86837
457.99812	0.87199
455.94431	0.87255
453.89051	0.87277
451.83671	0.87685
449.78290	0.88243
447.72910	0.88498
445.67530	0.88599
443.62149	0.88686
441.56769	0.88596
439.51389	0.88554
437.46008	0.88604
435.40628	0.88480
433.35248	0.88344
431.29867	0.88240
429.24487	0.88001
427.19107	0.87685
425.13726	0.87486
423.08346	0.87733
421.02966	0.88228
418.97585	0.88590
416.92205	0.88954
414.86825	0.89354
412.81445	0.89911
410.76064	0.90506
408.70684	0.90609
406.65304	0.90564
404.59923	0.90982
402.54543	0.91140
400.49163	0.90352
398.43782	0.89438
