3996.70104	0.94462
3994.64724	0.94509
3992.59344	0.94517
3990.53964	0.94495
3988.48583	0.94510
3986.43203	0.94560
3984.37823	0.94561
3982.32442	0.94516
3980.27062	0.94513
3978.21682	0.94554
3976.16301	0.94580
3974.10921	0.94577
3972.05541	0.94563
3970.00160	0.94552
3967.94780	0.94558
3965.89400	0.94555
3963.84019	0.94513
3961.78639	0.94475
3959.73259	0.94486
3957.67878	0.94547
3955.62498	0.94605
3953.57118	0.94589
3951.51737	0.94525
3949.46357	0.94477
3947.40977	0.94462
3945.35596	0.94503
3943.30216	0.94564
3941.24836	0.94571
3939.19455	0.94554
3937.14075	0.94546
3935.08695	0.94535
3933.03315	0.94537
3930.97934	0.94555
3928.92554	0.94551
3926.87174	0.94529
3924.81793	0.94523
3922.76413	0.94531
3920.71033	0.94516
3918.65652	0.94511
3916.60272	0.94571
3914.54892	0.94626
3912.49511	0.94594
3910.44131	0.94516
3908.38751	0.94457
3906.33370	0.94434
3904.27990	0.94485
3902.22610	0.94588
3900.17229	0.94605
3898.11849	0.94545
3896.06469	0.94513
3894.01088	0.94497
3891.95708	0.94466
3889.90328	0.94504
3887.84947	0.94620
3885.79567	0.94706
3883.74187	0.94715
3881.68807	0.94709
3879.63426	0.94704
3877.58046	0.94684
3875.52666	0.94665
3873.47285	0.94613
3871.41905	0.94523
3869.36525	0.94490
3867.31144	0.94535
3865.25764	0.94568
3863.20384	0.94548
3861.15003	0.94512
3859.09623	0.94494
3857.04243	0.94476
3854.98862	0.94462
3852.93482	0.94490
3850.88102	0.94489
3848.82721	0.94473
3846.77341	0.94514
3844.71961	0.94594
3842.66580	0.94650
3840.61200	0.94638
3838.55820	0.94613
3836.50439	0.94614
3834.45059	0.94591
3832.39679	0.94571
3830.34298	0.94612
3828.28918	0.94687
3826.23538	0.94711
3824.18158	0.94675
3822.12777	0.94654
3820.07397	0.94648
3818.02017	0.94613
3815.96636	0.94582
3813.91256	0.94593
3811.85876	0.94630
3809.80495	0.94671
3807.75115	0.94700
3805.69735	0.94683
3803.64354	0.94641
3801.58974	0.94637
3799.53594	0.94675
3797.48213	0.94697
3795.42833	0.94678
3793.37453	0.94651
3791.32072	0.94628
3789.26692	0.94610
3787.21312	0.94648
3785.15931	0.94743
3783.10551	0.94786
3781.05171	0.94750
3778.99790	0.94727
3776.94410	0.94742
3774.89030	0.94727
3772.83650	0.94674
3770.78269	0.94637
3768.72889	0.94614
3766.67509	0.94570
3764.62128	0.94533
3762.56748	0.94544
3760.51368	0.94607
3758.45987	0.94674
3756.40607	0.94718
3754.35227	0.94743
3752.29846	0.94724
3750.24466	0.94763
3748.19086	0.94919
3746.13705	0.94987
3744.08325	0.94910
3742.02945	0.94881
3739.97564	0.94927
3737.92184	0.94952
3735.86804	0.94927
3733.81423	0.94865
3731.76043	0.94815
3729.70663	0.94793
3727.65282	0.94760
3725.59902	0.94741
3723.54522	0.94774
3721.49141	0.94812
3719.43761	0.94816
3717.38381	0.94763
3715.33001	0.94672
3713.27620	0.94573
3711.22240	0.94481
3709.16860	0.94398
3707.11479	0.94311
3705.06099	0.94243
3703.00719	0.94206
3700.95338	0.94165
3698.89958	0.94067
3696.84578	0.93935
3694.79197	0.93849
3692.73817	0.93842
3690.68437	0.93873
3688.63056	0.93894
3686.57676	0.93914
3684.52296	0.93979
3682.46915	0.94056
3680.41535	0.94088
3678.36155	0.94055
3676.30774	0.93975
3674.25394	0.93903
3672.20014	0.93858
3670.14633	0.93840
3668.09253	0.93824
3666.03873	0.93753
3663.98492	0.93678
3661.93112	0.93653
3659.87732	0.93654
3657.82352	0.93648
3655.76971	0.93594
3653.71591	0.93483
3651.66211	0.93397
3649.60830	0.93392
3647.55450	0.93377
3645.50070	0.93329
3643.44689	0.93305
3641.39309	0.93267
3639.33929	0.93228
3637.28548	0.93220
3635.23168	0.93212
3633.17788	0.93221
3631.12407	0.93256
3629.07027	0.93165
3627.01647	0.92966
3624.96266	0.92866
3622.90886	0.92810
3620.85506	0.92801
3618.80125	0.92876
3616.74745	0.92958
3614.69365	0.93014
3612.63984	0.93082
3610.58604	0.93100
3608.53224	0.93057
3606.47844	0.93063
3604.42463	0.93104
3602.37083	0.93128
3600.31703	0.93116
3598.26322	0.93072
3596.20942	0.93067
3594.15562	0.93078
3592.10181	0.93051
3590.04801	0.93032
3587.99421	0.93023
3585.94040	0.93026
3583.88660	0.93097
3581.83280	0.93201
3579.77899	0.93260
3577.72519	0.93186
3575.67139	0.93039
3573.61758	0.92978
3571.56378	0.93017
3569.50998	0.93053
3567.45617	0.93049
3565.40237	0.93030
3563.34857	0.93015
3561.29476	0.93022
3559.24096	0.93036
3557.18716	0.93016
3555.13335	0.92977
3553.07955	0.92977
3551.02575	0.93014
3548.97195	0.93015
3546.91814	0.92951
3544.86434	0.92867
3542.81054	0.92840
3540.75673	0.92838
3538.70293	0.92814
3536.64913	0.92824
3534.59532	0.92857
3532.54152	0.92837
3530.48772	0.92810
3528.43391	0.92839
3526.38011	0.92874
3524.32631	0.92890
3522.27250	0.92933
3520.21870	0.92972
3518.16490	0.92962
3516.11109	0.92938
3514.05729	0.92905
3512.00349	0.92841
3509.94968	0.92798
3507.89588	0.92804
3505.84208	0.92805
3503.78827	0.92819
3501.73447	0.92855
3499.68067	0.92863
3497.62687	0.92873
3495.57306	0.92901
3493.51926	0.92892
3491.46546	0.92878
3489.41165	0.92882
3487.35785	0.92865
3485.30405	0.92844
3483.25024	0.92861
3481.19644	0.92902
3479.14264	0.92897
3477.08883	0.92842
3475.03503	0.92808
3472.98123	0.92830
3470.92742	0.92860
3468.87362	0.92819
3466.81982	0.92726
3464.76601	0.92670
3462.71221	0.92675
3460.65841	0.92693
3458.60460	0.92653
3456.55080	0.92591
3454.49700	0.92574
3452.44319	0.92585
3450.38939	0.92580
3448.33559	0.92565
3446.28178	0.92601
3444.22798	0.92657
3442.17418	0.92669
3440.12038	0.92662
3438.06657	0.92653
3436.01277	0.92627
3433.95897	0.92584
3431.90516	0.92546
3429.85136	0.92522
3427.79756	0.92518
3425.74375	0.92534
3423.68995	0.92532
3421.63615	0.92517
3419.58234	0.92512
3417.52854	0.92520
3415.47474	0.92558
3413.42093	0.92597
3411.36713	0.92600
3409.31333	0.92580
3407.25952	0.92561
3405.20572	0.92569
3403.15192	0.92592
3401.09811	0.92582
3399.04431	0.92552
3396.99051	0.92537
3394.93670	0.92542
3392.88290	0.92549
3390.82910	0.92541
3388.77529	0.92548
3386.72149	0.92596
3384.66769	0.92632
3382.61389	0.92601
3380.56008	0.92563
3378.50628	0.92585
3376.45248	0.92628
3374.39867	0.92620
3372.34487	0.92552
3370.29107	0.92526
3368.23726	0.92575
3366.18346	0.92589
3364.12966	0.92555
3362.07585	0.92540
3360.02205	0.92528
3357.96825	0.92520
3355.91444	0.92553
3353.86064	0.92609
3351.80684	0.92650
3349.75303	0.92675
3347.69923	0.92673
3345.64543	0.92659
3343.59162	0.92685
3341.53782	0.92704
3339.48402	0.92660
3337.43021	0.92645
3335.37641	0.92687
3333.32261	0.92704
3331.26881	0.92697
3329.21500	0.92693
3327.16120	0.92684
3325.10740	0.92675
3323.05359	0.92654
3320.99979	0.92636
3318.94599	0.92667
3316.89218	0.92714
3314.83838	0.92741
3312.78458	0.92745
3310.73077	0.92742
3308.67697	0.92774
3306.62317	0.92815
3304.56936	0.92806
3302.51556	0.92803
3300.46176	0.92864
3298.40795	0.92908
3296.35415	0.92866
3294.30035	0.92820
3292.24654	0.92844
3290.19274	0.92858
3288.13894	0.92804
3286.08513	0.92748
3284.03133	0.92767
3281.97753	0.92831
3279.92372	0.92851
3277.86992	0.92853
3275.81612	0.92884
3273.76232	0.92922
3271.70851	0.92948
3269.65471	0.92937
3267.60091	0.92907
3265.54710	0.92909
3263.49330	0.92936
3261.43950	0.92949
3259.38569	0.92950
3257.33189	0.92957
3255.27809	0.92947
3253.22428	0.92952
3251.17048	0.93025
3249.11668	0.93060
3247.06287	0.93009
3245.00907	0.92987
3242.95527	0.93015
3240.90146	0.93026
3238.84766	0.93011
3236.79386	0.93017
3234.74005	0.93063
3232.68625	0.93088
3230.63245	0.93055
3228.57864	0.93032
3226.52484	0.93064
3224.47104	0.93112
3222.41724	0.93155
3220.36343	0.93189
3218.30963	0.93198
3216.25583	0.93203
3214.20202	0.93190
3212.14822	0.93155
3210.09442	0.93152
3208.04061	0.93191
3205.98681	0.93227
3203.93301	0.93228
3201.87920	0.93231
3199.82540	0.93275
3197.77160	0.93306
3195.71779	0.93304
3193.66399	0.93327
3191.61019	0.93359
3189.55638	0.93364
3187.50258	0.93370
3185.44878	0.93404
3183.39497	0.93430
3181.34117	0.93429
3179.28737	0.93429
3177.23356	0.93462
3175.17976	0.93516
3173.12596	0.93527
3171.07215	0.93499
3169.01835	0.93484
3166.96455	0.93486
3164.91075	0.93495
3162.85694	0.93502
3160.80314	0.93490
3158.74934	0.93487
3156.69553	0.93512
3154.64173	0.93564
3152.58793	0.93632
3150.53412	0.93652
3148.48032	0.93637
3146.42652	0.93652
3144.37271	0.93682
3142.31891	0.93701
3140.26511	0.93719
3138.21130	0.93760
3136.15750	0.93803
3134.10370	0.93798
3132.04989	0.93756
3129.99609	0.93752
3127.94229	0.93789
3125.88848	0.93778
3123.83468	0.93716
3121.78088	0.93701
3119.72707	0.93761
3117.67327	0.93806
3115.61947	0.93776
3113.56566	0.93713
3111.51186	0.93674
3109.45806	0.93647
3107.40426	0.93590
3105.35045	0.93526
3103.29665	0.93505
3101.24285	0.93509
3099.18904	0.93511
3097.13524	0.93506
3095.08144	0.93488
3093.02763	0.93456
3090.97383	0.93365
3088.92003	0.93173
3086.86622	0.92929
3084.81242	0.92700
3082.75862	0.92558
3080.70481	0.92582
3078.65101	0.92733
3076.59721	0.92901
3074.54340	0.93041
3072.48960	0.93091
3070.43580	0.93031
3068.38199	0.92902
3066.32819	0.92671
3064.27439	0.92365
3062.22058	0.92121
3060.16678	0.91988
3058.11298	0.91958
3056.05918	0.92089
3054.00537	0.92349
3051.95157	0.92612
3049.89777	0.92832
3047.84396	0.93015
3045.79016	0.93130
3043.73636	0.93171
3041.68255	0.93148
3039.62875	0.93037
3037.57495	0.92839
3035.52114	0.92561
3033.46734	0.92151
3031.41354	0.91556
3029.35973	0.90824
3027.30593	0.90156
3025.25213	0.89814
3023.19832	0.89929
3021.14452	0.90414
3019.09072	0.91071
3017.03691	0.91700
3014.98311	0.92186
3012.92931	0.92540
3010.87550	0.92802
3008.82170	0.92958
3006.76790	0.93004
3004.71409	0.92973
3002.66029	0.92927
3000.60649	0.92931
2998.55269	0.92996
2996.49888	0.93113
2994.44508	0.93287
2992.39128	0.93479
2990.33747	0.93616
2988.28367	0.93687
2986.22987	0.93707
2984.17606	0.93709
2982.12226	0.93744
2980.06846	0.93785
2978.01465	0.93787
2975.96085	0.93766
2973.90705	0.93764
2971.85324	0.93784
2969.79944	0.93789
2967.74564	0.93752
2965.69183	0.93666
2963.63803	0.93595
2961.58423	0.93591
2959.53042	0.93567
2957.47662	0.93492
2955.42282	0.93412
2953.36901	0.93331
2951.31521	0.93225
2949.26141	0.93061
2947.20761	0.92862
2945.15380	0.92650
2943.10000	0.92405
2941.04620	0.92114
2938.99239	0.91781
2936.93859	0.91402
2934.88479	0.91007
2932.83098	0.90630
2930.77718	0.90252
2928.72338	0.89860
2926.66957	0.89500
2924.61577	0.89217
2922.56197	0.89004
2920.50816	0.88902
2918.45436	0.88924
2916.40056	0.88985
2914.34675	0.89089
2912.29295	0.89301
2910.23915	0.89591
2908.18534	0.89878
2906.13154	0.90128
2904.07774	0.90366
2902.02393	0.90645
2899.97013	0.90967
2897.91633	0.91254
2895.86252	0.91471
2893.80872	0.91647
2891.75492	0.91797
2889.70112	0.91921
2887.64731	0.92035
2885.59351	0.92143
2883.53971	0.92229
2881.48590	0.92321
2879.43210	0.92437
2877.37830	0.92532
2875.32449	0.92605
2873.27069	0.92670
2871.21689	0.92713
2869.16308	0.92752
2867.10928	0.92778
2865.05548	0.92727
2863.00167	0.92624
2860.94787	0.92548
2858.89407	0.92462
2856.84026	0.92312
2854.78646	0.92114
2852.73266	0.91901
2850.67885	0.91733
2848.62505	0.91682
2846.57125	0.91767
2844.51744	0.91949
2842.46364	0.92172
2840.40984	0.92399
2838.35603	0.92650
2836.30223	0.92913
2834.24843	0.93120
2832.19463	0.93265
2830.14082	0.93379
2828.08702	0.93465
2826.03322	0.93517
2823.97941	0.93539
2821.92561	0.93558
2819.87181	0.93595
2817.81800	0.93650
2815.76420	0.93698
2813.71040	0.93703
2811.65659	0.93691
2809.60279	0.93701
2807.54899	0.93739
2805.49518	0.93789
2803.44138	0.93813
2801.38758	0.93809
2799.33377	0.93802
2797.27997	0.93798
2795.22617	0.93800
2793.17236	0.93842
2791.11856	0.93918
2789.06476	0.93953
2787.01095	0.93949
2784.95715	0.93953
2782.90335	0.93964
2780.84955	0.93974
2778.79574	0.93965
2776.74194	0.93946
2774.68814	0.93962
2772.63433	0.94013
2770.58053	0.94030
2768.52673	0.94008
2766.47292	0.93999
2764.41912	0.94021
2762.36532	0.94048
2760.31151	0.94064
2758.25771	0.94078
2756.20391	0.94103
2754.15010	0.94120
2752.09630	0.94090
2750.04250	0.94058
2747.98869	0.94071
2745.93489	0.94095
2743.88109	0.94103
2741.82728	0.94083
2739.77348	0.94067
2737.71968	0.94099
2735.66587	0.94150
2733.61207	0.94156
2731.55827	0.94125
2729.50446	0.94108
2727.45066	0.94110
2725.39686	0.94123
2723.34306	0.94146
2721.28925	0.94164
2719.23545	0.94177
2717.18165	0.94189
2715.12784	0.94174
2713.07404	0.94145
2711.02024	0.94151
2708.96643	0.94182
2706.91263	0.94209
2704.85883	0.94218
2702.80502	0.94212
2700.75122	0.94220
2698.69742	0.94240
2696.64361	0.94227
2694.58981	0.94176
2692.53601	0.94163
2690.48220	0.94209
2688.42840	0.94235
2686.37460	0.94224
2684.32079	0.94215
2682.26699	0.94227
2680.21319	0.94226
2678.15938	0.94203
2676.10558	0.94222
2674.05178	0.94266
2671.99797	0.94264
2669.94417	0.94217
2667.89037	0.94158
2665.83657	0.94149
2663.78276	0.94186
2661.72896	0.94197
2659.67516	0.94181
2657.62135	0.94194
2655.56755	0.94223
2653.51375	0.94220
2651.45994	0.94214
2649.40614	0.94232
2647.35234	0.94253
2645.29853	0.94258
2643.24473	0.94224
2641.19093	0.94189
2639.13712	0.94195
2637.08332	0.94215
2635.02952	0.94218
2632.97571	0.94205
2630.92191	0.94223
2628.86811	0.94294
2626.81430	0.94357
2624.76050	0.94363
2622.70670	0.94308
2620.65289	0.94243
2618.59909	0.94242
2616.54529	0.94301
2614.49149	0.94359
2612.43768	0.94370
2610.38388	0.94330
2608.33008	0.94294
2606.27627	0.94301
2604.22247	0.94332
2602.16867	0.94366
2600.11486	0.94385
2598.06106	0.94390
2596.00726	0.94394
2593.95345	0.94419
2591.89965	0.94469
2589.84585	0.94497
2587.79204	0.94504
2585.73824	0.94527
2583.68444	0.94521
2581.63063	0.94465
2579.57683	0.94429
2577.52303	0.94445
2575.46922	0.94485
2573.41542	0.94486
2571.36162	0.94462
2569.30781	0.94504
2567.25401	0.94571
2565.20021	0.94581
2563.14640	0.94548
2561.09260	0.94517
2559.03880	0.94548
2556.98500	0.94620
2554.93119	0.94646
2552.87739	0.94664
2550.82359	0.94700
2548.76978	0.94692
2546.71598	0.94624
2544.66218	0.94541
2542.60837	0.94514
2540.55457	0.94551
2538.50077	0.94597
2536.44696	0.94614
2534.39316	0.94610
2532.33936	0.94582
2530.28555	0.94551
2528.23175	0.94572
2526.17795	0.94625
2524.12414	0.94642
2522.07034	0.94603
2520.01654	0.94562
2517.96273	0.94554
2515.90893	0.94564
2513.85513	0.94575
2511.80132	0.94581
2509.74752	0.94560
2507.69372	0.94511
2505.63992	0.94515
2503.58611	0.94596
2501.53231	0.94628
2499.47851	0.94550
2497.42470	0.94466
2495.37090	0.94464
2493.31710	0.94517
2491.26329	0.94567
2489.20949	0.94604
2487.15569	0.94659
2485.10188	0.94726
2483.04808	0.94753
2480.99428	0.94729
2478.94047	0.94725
2476.88667	0.94727
2474.83287	0.94680
2472.77906	0.94643
2470.72526	0.94658
2468.67146	0.94695
2466.61765	0.94724
2464.56385	0.94736
2462.51005	0.94722
2460.45624	0.94706
2458.40244	0.94748
2456.34864	0.94814
2454.29483	0.94820
2452.24103	0.94755
2450.18723	0.94707
2448.13343	0.94721
2446.07962	0.94725
2444.02582	0.94693
2441.97202	0.94667
2439.91821	0.94649
2437.86441	0.94610
2435.81061	0.94578
2433.75680	0.94624
2431.70300	0.94714
2429.64920	0.94747
2427.59539	0.94743
2425.54159	0.94763
2423.48779	0.94768
2421.43398	0.94758
2419.38018	0.94792
2417.32638	0.94809
2415.27257	0.94752
2413.21877	0.94700
2411.16497	0.94687
2409.11116	0.94683
2407.05736	0.94701
2405.00356	0.94715
2402.94975	0.94694
2400.89595	0.94679
2398.84215	0.94688
2396.78834	0.94679
2394.73454	0.94639
2392.68074	0.94628
2390.62694	0.94677
2388.57313	0.94710
2386.51933	0.94699
2384.46553	0.94719
2382.41172	0.94751
2380.35792	0.94728
2378.30412	0.94688
2376.25031	0.94671
2374.19651	0.94641
2372.14271	0.94663
2370.08890	0.94795
2368.03510	0.94913
2365.98130	0.94970
2363.92749	0.95016
2361.87369	0.94984
2359.81989	0.94881
2357.76608	0.94810
2355.71228	0.94746
2353.65848	0.94668
2351.60467	0.94644
2349.55087	0.94697
2347.49707	0.94759
2345.44326	0.94779
2343.38946	0.94750
2341.33566	0.94703
2339.28186	0.94730
2337.22805	0.94759
2335.17425	0.94693
2333.12045	0.94629
2331.06664	0.94654
2329.01284	0.94677
2326.95904	0.94578
2324.90523	0.94452
2322.85143	0.94457
2320.79763	0.94560
2318.74382	0.94642
2316.69002	0.94684
2314.63622	0.94738
2312.58241	0.94796
2310.52861	0.94762
2308.47481	0.94673
2306.42100	0.94656
2304.36720	0.94698
2302.31340	0.94701
2300.25959	0.94643
2298.20579	0.94612
2296.15199	0.94648
2294.09818	0.94686
2292.04438	0.94647
2289.99058	0.94582
2287.93677	0.94584
2285.88297	0.94614
2283.82917	0.94675
2281.77537	0.94789
2279.72156	0.94870
2277.66776	0.94928
2275.61396	0.94982
2273.56015	0.94964
2271.50635	0.94915
2269.45255	0.94883
2267.39874	0.94860
2265.34494	0.94892
2263.29114	0.94916
2261.23733	0.94878
2259.18353	0.94892
2257.12973	0.94972
2255.07592	0.95006
2253.02212	0.94966
2250.96832	0.94923
2248.91451	0.94885
2246.86071	0.94824
2244.80691	0.94813
2242.75310	0.94870
2240.69930	0.94909
2238.64550	0.94810
2236.59169	0.94597
2234.53789	0.94506
2232.48409	0.94617
2230.43029	0.94715
2228.37648	0.94736
2226.32268	0.94801
2224.26888	0.94976
2222.21507	0.95194
2220.16127	0.95317
2218.10747	0.95334
2216.05366	0.95209
2213.99986	0.95043
2211.94606	0.95042
2209.89225	0.95139
2207.83845	0.95185
2205.78465	0.95177
2203.73084	0.95206
2201.67704	0.95161
2199.62324	0.94975
2197.56943	0.94831
2195.51563	0.94818
2193.46183	0.94919
2191.40802	0.95035
2189.35422	0.95102
2187.30042	0.95178
2185.24661	0.95207
2183.19281	0.95180
2181.13901	0.95276
2179.08520	0.95340
2177.03140	0.95039
2174.97760	0.94761
2172.92380	0.94983
2170.86999	0.95362
2168.81619	0.95531
2166.76239	0.95552
2164.70858	0.95406
2162.65478	0.95087
2160.60098	0.94897
2158.54717	0.94941
2156.49337	0.95018
2154.43957	0.95204
2152.38576	0.95478
2150.33196	0.95667
2148.27816	0.95799
2146.22435	0.95847
2144.17055	0.95718
2142.11675	0.95595
2140.06294	0.95511
2138.00914	0.95319
2135.95534	0.95126
2133.90153	0.95069
2131.84773	0.95156
2129.79393	0.95219
2127.74012	0.95162
2125.68632	0.95185
2123.63252	0.95338
2121.57871	0.95390
2119.52491	0.95259
2117.47111	0.95109
2115.41731	0.95040
2113.36350	0.95002
2111.30970	0.94964
2109.25590	0.94944
2107.20209	0.94934
2105.14829	0.94975
2103.09449	0.95106
2101.04068	0.95199
2098.98688	0.95252
2096.93308	0.95344
2094.87927	0.95370
2092.82547	0.95287
2090.77167	0.95186
2088.71786	0.95109
2086.66406	0.95052
2084.61026	0.94985
2082.55645	0.94948
2080.50265	0.95022
2078.44885	0.95094
2076.39504	0.95084
2074.34124	0.95161
2072.28744	0.95309
2070.23363	0.95279
2068.17983	0.95111
2066.12603	0.95080
2064.07223	0.95150
2062.01842	0.95216
2059.96462	0.95330
2057.91082	0.95350
2055.85701	0.95225
2053.80321	0.95141
2051.74941	0.95094
2049.69560	0.95089
2047.64180	0.95204
2045.58800	0.95285
2043.53419	0.95387
2041.48039	0.95540
2039.42659	0.95501
2037.37278	0.95407
2035.31898	0.95339
2033.26518	0.95103
2031.21137	0.94997
2029.15757	0.95290
2027.10377	0.95641
2025.04996	0.95711
2022.99616	0.95577
2020.94236	0.95532
2018.88855	0.95678
2016.83475	0.95843
2014.78095	0.95815
2012.72714	0.95605
2010.67334	0.95428
2008.61954	0.95430
2006.56574	0.95417
2004.51193	0.95259
2002.45813	0.95159
2000.40433	0.95232
1998.35052	0.95417
1996.29672	0.95558
1994.24292	0.95623
1992.18911	0.95685
1990.13531	0.95746
1988.08151	0.95729
1986.02770	0.95564
1983.97390	0.95408
1981.92010	0.95410
1979.86629	0.95359
1977.81249	0.95258
1975.75869	0.95482
1973.70488	0.95761
1971.65108	0.95666
1969.59728	0.95413
1967.54347	0.95402
1965.48967	0.95513
1963.43587	0.95320
1961.38206	0.95096
1959.32826	0.95125
1957.27446	0.95117
1955.22066	0.94996
1953.16685	0.94956
1951.11305	0.95019
1949.05925	0.95096
1947.00544	0.95094
1944.95164	0.94959
1942.89784	0.94778
1940.84403	0.94682
1938.79023	0.94667
1936.73643	0.94720
1934.68262	0.94854
1932.62882	0.94959
1930.57502	0.95007
1928.52121	0.95104
1926.46741	0.95263
1924.41361	0.95395
1922.35980	0.95440
1920.30600	0.95419
1918.25220	0.95381
1916.19839	0.95343
1914.14459	0.95316
1912.09079	0.95289
1910.03698	0.95227
1907.98318	0.95178
1905.92938	0.95184
1903.87557	0.95262
1901.82177	0.95386
1899.76797	0.95422
1897.71417	0.95364
1895.66036	0.95305
1893.60656	0.95243
1891.55276	0.95137
1889.49895	0.95037
1887.44515	0.95017
1885.39135	0.95044
1883.33754	0.95047
1881.28374	0.95009
1879.22994	0.94968
1877.17613	0.94912
1875.12233	0.94809
1873.06853	0.94729
1871.01472	0.94731
1868.96092	0.94743
1866.90712	0.94707
1864.85331	0.94715
1862.79951	0.94822
1860.74571	0.94923
1858.69190	0.94933
1856.63810	0.94923
1854.58430	0.94943
1852.53049	0.94973
1850.47669	0.95033
1848.42289	0.95138
1846.36908	0.95236
1844.31528	0.95270
1842.26148	0.95253
1840.20768	0.95263
1838.15387	0.95310
1836.10007	0.95334
1834.04627	0.95315
1831.99246	0.95291
1829.93866	0.95255
1827.88486	0.95197
1825.83105	0.95160
1823.77725	0.95143
1821.72345	0.95130
1819.66964	0.95118
1817.61584	0.95108
1815.56204	0.95066
1813.50823	0.94975
1811.45443	0.94864
1809.40063	0.94792
1807.34682	0.94779
1805.29302	0.94778
1803.23922	0.94767
1801.18541	0.94770
1799.13161	0.94789
1797.07781	0.94800
1795.02400	0.94816
1792.97020	0.94850
1790.91640	0.94904
1788.86260	0.94974
1786.80879	0.95047
1784.75499	0.95100
1782.70119	0.95089
1780.64738	0.95049
1778.59358	0.95032
1776.53978	0.95044
1774.48597	0.95061
1772.43217	0.95033
1770.37837	0.94979
1768.32456	0.94972
1766.27076	0.94996
1764.21696	0.95001
1762.16315	0.94972
1760.10935	0.94942
1758.05555	0.94918
1756.00174	0.94889
1753.94794	0.94854
1751.89414	0.94810
1749.84033	0.94772
1747.78653	0.94792
1745.73273	0.94824
1743.67892	0.94768
1741.62512	0.94663
1739.57132	0.94608
1737.51751	0.94610
1735.46371	0.94664
1733.40991	0.94743
1731.35611	0.94758
1729.30230	0.94725
1727.24850	0.94665
1725.19470	0.94609
1723.14089	0.94582
1721.08709	0.94568
1719.03329	0.94578
1716.97948	0.94642
1714.92568	0.94702
1712.87188	0.94723
1710.81807	0.94734
1708.76427	0.94739
1706.71047	0.94717
1704.65666	0.94667
1702.60286	0.94618
1700.54906	0.94602
1698.49525	0.94616
1696.44145	0.94593
1694.38765	0.94522
1692.33384	0.94458
1690.28004	0.94390
1688.22624	0.94297
1686.17243	0.94205
1684.11863	0.94106
1682.06483	0.94032
1680.01103	0.93996
1677.95722	0.93955
1675.90342	0.93869
1673.84962	0.93757
1671.79581	0.93690
1669.74201	0.93607
1667.68821	0.93488
1665.63440	0.93402
1663.58060	0.93360
1661.52680	0.93355
1659.47299	0.93334
1657.41919	0.93276
1655.36539	0.93221
1653.31158	0.93230
1651.25778	0.93300
1649.20398	0.93327
1647.15017	0.93303
1645.09637	0.93258
1643.04257	0.93239
1640.98876	0.93252
1638.93496	0.93288
1636.88116	0.93288
1634.82735	0.93242
1632.77355	0.93245
1630.71975	0.93271
1628.66594	0.93294
1626.61214	0.93326
1624.55834	0.93346
1622.50454	0.93337
1620.45073	0.93319
1618.39693	0.93303
1616.34313	0.93278
1614.28932	0.93223
1612.23552	0.93122
1610.18172	0.92914
1608.12791	0.92455
1606.07411	0.91702
1604.02031	0.90823
1601.96650	0.90154
1599.91270	0.90069
1597.85890	0.90561
1595.80509	0.91281
1593.75129	0.91901
1591.69749	0.92301
1589.64368	0.92514
1587.58988	0.92548
1585.53608	0.92403
1583.48227	0.92265
1581.42847	0.92372
1579.37467	0.92668
1577.32086	0.92960
1575.26706	0.93183
1573.21326	0.93337
1571.15945	0.93453
1569.10565	0.93570
1567.05185	0.93678
1564.99805	0.93733
1562.94424	0.93734
1560.89044	0.93730
1558.83664	0.93788
1556.78283	0.93846
1554.72903	0.93834
1552.67523	0.93796
1550.62142	0.93746
1548.56762	0.93699
1546.51382	0.93675
1544.46001	0.93676
1542.40621	0.93708
1540.35241	0.93763
1538.29860	0.93787
1536.24480	0.93793
1534.19100	0.93834
1532.13719	0.93907
1530.08339	0.93976
1528.02959	0.94053
1525.97578	0.94150
1523.92198	0.94250
1521.86818	0.94286
1519.81437	0.94255
1517.76057	0.94239
1515.70677	0.94224
1513.65297	0.94190
1511.59916	0.94164
1509.54536	0.94170
1507.49156	0.94209
1505.43775	0.94191
1503.38395	0.94060
1501.33015	0.93759
1499.27634	0.92947
1497.22254	0.90789
1495.16874	0.87492
1493.11493	0.85309
1491.06113	0.85516
1489.00733	0.87930
1486.95352	0.90202
1484.89972	0.91382
1482.84592	0.92086
1480.79211	0.92588
1478.73831	0.92895
1476.68451	0.93050
1474.63070	0.93149
1472.57690	0.93241
1470.52310	0.93292
1468.46929	0.93322
1466.41549	0.93351
1464.36169	0.93326
1462.30788	0.93231
1460.25408	0.93024
1458.20028	0.92014
1456.14648	0.89008
1454.09267	0.86024
1452.03887	0.84616
1449.98507	0.84825
1447.93126	0.86102
1445.87746	0.87400
1443.82366	0.88379
1441.76985	0.89215
1439.71605	0.89878
1437.66225	0.90477
1435.60844	0.91157
1433.55464	0.91653
1431.50084	0.91981
1429.44703	0.92284
1427.39323	0.92510
1425.33943	0.92644
1423.28562	0.92742
1421.23182	0.92831
1419.17802	0.92916
1417.12421	0.92982
1415.07041	0.93041
1413.01661	0.93119
1410.96280	0.93211
1408.90900	0.93299
1406.85520	0.93373
1404.80139	0.93433
1402.74759	0.93480
1400.69379	0.93524
1398.63999	0.93581
1396.58618	0.93635
1394.53238	0.93618
1392.47858	0.93554
1390.42477	0.93503
1388.37097	0.93452
1386.31717	0.93342
1384.26336	0.93195
1382.20956	0.93085
1380.15576	0.92989
1378.10195	0.92870
1376.04815	0.92762
1373.99435	0.92700
1371.94054	0.92689
1369.88674	0.92712
1367.83294	0.92723
1365.77913	0.92726
1363.72533	0.92761
1361.67153	0.92820
1359.61772	0.92880
1357.56392	0.92949
1355.51012	0.92998
1353.45631	0.93013
1351.40251	0.93044
1349.34871	0.93104
1347.29491	0.93179
1345.24110	0.93252
1343.18730	0.93300
1341.13350	0.93337
1339.07969	0.93397
1337.02589	0.93453
1334.97209	0.93450
1332.91828	0.93394
1330.86448	0.93335
1328.81068	0.93313
1326.75687	0.93324
1324.70307	0.93359
1322.64927	0.93402
1320.59546	0.93416
1318.54166	0.93392
1316.48786	0.93361
1314.43405	0.93338
1312.38025	0.93343
1310.32645	0.93387
1308.27264	0.93467
1306.21884	0.93557
1304.16504	0.93598
1302.11123	0.93607
1300.05743	0.93646
1298.00363	0.93706
1295.94982	0.93738
1293.89602	0.93723
1291.84222	0.93692
1289.78842	0.93688
1287.73461	0.93687
1285.68081	0.93657
1283.62701	0.93623
1281.57320	0.93612
1279.51940	0.93627
1277.46560	0.93627
1275.41179	0.93603
1273.35799	0.93600
1271.30419	0.93608
1269.25038	0.93599
1267.19658	0.93613
1265.14278	0.93663
1263.08897	0.93705
1261.03517	0.93712
1258.98137	0.93703
1256.92756	0.93703
1254.87376	0.93696
1252.81996	0.93664
1250.76615	0.93631
1248.71235	0.93605
1246.65855	0.93571
1244.60474	0.93540
1242.55094	0.93525
1240.49714	0.93529
1238.44334	0.93529
1236.38953	0.93504
1234.33573	0.93452
1232.28193	0.93390
1230.22812	0.93351
1228.17432	0.93337
1226.12052	0.93313
1224.06671	0.93255
1222.01291	0.93166
1219.95911	0.93057
1217.90530	0.92932
1215.85150	0.92805
1213.79770	0.92664
1211.74389	0.92492
1209.69009	0.92314
1207.63629	0.92155
1205.58248	0.91978
1203.52868	0.91764
1201.47488	0.91539
1199.42107	0.91305
1197.36727	0.91068
1195.31347	0.90832
1193.25966	0.90568
1191.20586	0.90288
1189.15206	0.89994
1187.09825	0.89652
1185.04445	0.89278
1182.99065	0.88910
1180.93685	0.88596
1178.88304	0.88407
1176.82924	0.88324
1174.77544	0.88247
1172.72163	0.88138
1170.66783	0.87986
1168.61403	0.87770
1166.56022	0.87519
1164.50642	0.87305
1162.45262	0.87141
1160.39881	0.86959
1158.34501	0.86728
1156.29121	0.86484
1154.23740	0.86270
1152.18360	0.86148
1150.12980	0.86140
1148.07599	0.86178
1146.02219	0.86206
1143.96839	0.86173
1141.91458	0.86059
1139.86078	0.85949
1137.80698	0.85835
1135.75317	0.85661
1133.69937	0.85462
1131.64557	0.85248
1129.59176	0.85006
1127.53796	0.84733
1125.48416	0.84410
1123.43036	0.84023
1121.37655	0.83594
1119.32275	0.83121
1117.26895	0.82555
1115.21514	0.81952
1113.16134	0.81427
1111.10754	0.80990
1109.05373	0.80614
1106.99993	0.80303
1104.94613	0.80055
1102.89232	0.79826
1100.83852	0.79558
1098.78472	0.79266
1096.73091	0.79010
1094.67711	0.78795
1092.62331	0.78592
1090.56950	0.78399
1088.51570	0.78241
1086.46190	0.78087
1084.40809	0.77871
1082.35429	0.77592
1080.30049	0.77321
1078.24668	0.77115
1076.19288	0.76883
1074.13908	0.76521
1072.08528	0.76094
1070.03147	0.75715
1067.97767	0.75384
1065.92387	0.75062
1063.87006	0.74754
1061.81626	0.74463
1059.76246	0.74205
1057.70865	0.73958
1055.65485	0.73644
1053.60105	0.73234
1051.54724	0.72764
1049.49344	0.72271
1047.43964	0.71721
1045.38583	0.71100
1043.33203	0.70433
1041.27823	0.69719
1039.22442	0.68954
1037.17062	0.68143
1035.11682	0.67254
1033.06301	0.66264
1031.00921	0.65240
1028.95541	0.64372
1026.90160	0.63878
1024.84780	0.63769
1022.79400	0.63820
1020.74019	0.63857
1018.68639	0.63840
1016.63259	0.63756
1014.57879	0.63636
1012.52498	0.63504
1010.47118	0.63374
1008.41738	0.63256
1006.36357	0.63130
1004.30977	0.63040
1002.25597	0.63114
1000.20216	0.63405
998.14836	0.63804
996.09456	0.64205
994.04075	0.64589
991.98695	0.64977
989.93315	0.65432
987.87934	0.65979
985.82554	0.66565
983.77174	0.67169
981.71793	0.67824
979.66413	0.68585
977.61033	0.69462
975.55652	0.70426
973.50272	0.71438
971.44892	0.72425
969.39511	0.73319
967.34131	0.74106
965.28751	0.74807
963.23371	0.75480
961.17990	0.76196
959.12610	0.76948
957.07230	0.77652
955.01849	0.78250
952.96469	0.78753
950.91089	0.79181
948.85708	0.79522
946.80328	0.79799
944.74948	0.80092
942.69567	0.80423
940.64187	0.80753
938.58807	0.81082
936.53426	0.81428
934.48046	0.81780
932.42666	0.82125
930.37285	0.82431
928.31905	0.82677
926.26525	0.82862
924.21144	0.82970
922.15764	0.83006
920.10384	0.82978
918.05003	0.82873
915.99623	0.82696
913.94243	0.82450
911.88862	0.82166
909.83482	0.81927
907.78102	0.81859
905.72722	0.82086
903.67341	0.82640
901.61961	0.83459
899.56581	0.84389
897.51200	0.85253
895.45820	0.85928
893.40440	0.86438
891.35059	0.86899
889.29679	0.87325
887.24299	0.87672
885.18918	0.87937
883.13538	0.88132
881.08158	0.88286
879.02777	0.88425
876.97397	0.88570
874.92017	0.88757
872.86636	0.89033
870.81256	0.89363
868.75876	0.89620
866.70495	0.89734
864.65115	0.89760
862.59735	0.89794
860.54354	0.89867
858.48974	0.89983
856.43594	0.90194
854.38213	0.90444
852.32833	0.90570
850.27453	0.90526
848.22073	0.90381
846.16692	0.90233
844.11312	0.90108
842.05932	0.89998
840.00551	0.89911
837.95171	0.89843
835.89791	0.89826
833.84410	0.89889
831.79030	0.89991
829.73650	0.90080
827.68269	0.90170
825.62889	0.90275
823.57509	0.90317
821.52128	0.90340
819.46748	0.90461
817.41368	0.90594
815.35987	0.90630
813.30607	0.90574
811.25227	0.90395
809.19846	0.90073
807.14466	0.89676
805.09086	0.89206
803.03705	0.88664
800.98325	0.88217
798.92945	0.88025
796.87565	0.88055
794.82184	0.88156
792.76804	0.88242
790.71424	0.88302
788.66043	0.88281
786.60663	0.88133
784.55283	0.87865
782.49902	0.87545
780.44522	0.87230
778.39142	0.86821
776.33761	0.86220
774.28381	0.85484
772.23001	0.84624
770.17620	0.83542
768.12240	0.82251
766.06860	0.80887
764.01479	0.79529
761.96099	0.78174
759.90719	0.76848
757.85338	0.75713
755.79958	0.75008
753.74578	0.74779
751.69197	0.74809
749.63817	0.74963
747.58437	0.75359
745.53056	0.76177
743.47676	0.77564
741.42296	0.79388
739.36916	0.81225
737.31535	0.82845
735.26155	0.84265
733.20775	0.85514
731.15394	0.86554
729.10014	0.87295
727.04634	0.87779
724.99253	0.88165
722.93873	0.88512
720.88493	0.88818
718.83112	0.89039
716.77732	0.89123
714.72352	0.89066
712.66971	0.88649
710.61591	0.87423
708.56211	0.84893
706.50830	0.80745
704.45450	0.74918
702.40070	0.67692
700.34689	0.59760
698.29309	0.52362
696.23929	0.48039
694.18548	0.49481
692.13168	0.55954
690.07788	0.63570
688.02408	0.69430
685.97027	0.73224
683.91647	0.75736
681.86267	0.77486
679.80886	0.78684
677.75506	0.79569
675.70126	0.80247
673.64745	0.80742
671.59365	0.81111
669.53985	0.81513
667.48604	0.82100
665.43224	0.82510
663.37844	0.82750
661.32463	0.82925
659.27083	0.82961
657.21703	0.82951
655.16322	0.82986
653.10942	0.83003
651.05562	0.82962
649.00181	0.82971
646.94801	0.83144
644.89421	0.83391
642.84040	0.83588
640.78660	0.83791
638.73280	0.83981
636.67899	0.84039
634.62519	0.84066
632.57139	0.84145
630.51759	0.84196
628.46378	0.84272
626.40998	0.84283
624.35618	0.83998
622.30237	0.83554
620.24857	0.83215
618.19477	0.83046
616.14096	0.82995
614.08716	0.82957
612.03336	0.82835
609.97955	0.82680
607.92575	0.82590
605.87195	0.82443
603.81814	0.82172
601.76434	0.81898
599.71054	0.81658
597.65673	0.81377
595.60293	0.81110
593.54913	0.80993
591.49532	0.80888
589.44152	0.80658
587.38772	0.80489
585.33391	0.80370
583.28011	0.80112
581.22631	0.79842
579.17250	0.79663
577.11870	0.79364
575.06490	0.78839
573.01110	0.78309
570.95729	0.77873
568.90349	0.77335
566.84969	0.76690
564.79588	0.76099
562.74208	0.75517
560.68828	0.74889
558.63447	0.74250
556.58067	0.73521
554.52687	0.72677
552.47306	0.71828
550.41926	0.70967
548.36546	0.70044
546.31165	0.69050
544.25785	0.67869
542.20405	0.66530
540.15024	0.65267
538.09644	0.64218
536.04264	0.63584
533.98883	0.63582
531.93503	0.64044
529.88123	0.64660
527.82742	0.65445
525.77362	0.66369
523.71982	0.67086
521.66602	0.67669
519.61221	0.68444
517.55841	0.69308
515.50461	0.69979
513.45080	0.70478
511.39700	0.70950
509.34320	0.71569
507.28939	0.72341
505.23559	0.72920
503.18179	0.73063
501.12798	0.72916
499.07418	0.72825
497.02038	0.72848
494.96657	0.72807
492.91277	0.72526
490.85897	0.71899
488.80516	0.71039
486.75136	0.70045
484.69756	0.68885
482.64375	0.67624
480.58995	0.66292
478.53615	0.64845
476.48234	0.63491
474.42854	0.62374
472.37474	0.61428
470.32093	0.60797
468.26713	0.60461
466.21333	0.60324
464.15953	0.60535
462.10572	0.61144
460.05192	0.61917
457.99812	0.62808
455.94431	0.64068
453.89051	0.65196
451.83671	0.65588
449.78290	0.65634
447.72910	0.65988
445.67530	0.66455
443.62149	0.66758
441.56769	0.67107
439.51389	0.67365
437.46008	0.67251
435.40628	0.66871
433.35248	0.66501
431.29867	0.66299
429.24487	0.66340
427.19107	0.66601
425.13726	0.66846
423.08346	0.66751
421.02966	0.66513
418.97585	0.66968
416.92205	0.68076
414.86825	0.68719
412.81445	0.68810
410.76064	0.68986
408.70684	0.69904
406.65304	0.71258
404.59923	0.72196
402.54543	0.72165
400.49163	0.71384
398.43782	0.70873
