3996.70104	0.98911
3994.64724	0.98960
3992.59344	0.98959
3990.53964	0.98928
3988.48583	0.98922
3986.43203	0.98940
3984.37823	0.98972
3982.32442	0.98978
3980.27062	0.98918
3978.21682	0.98840
3976.16301	0.98820
3974.10921	0.98845
3972.05541	0.98865
3970.00160	0.98909
3967.94780	0.98933
3965.89400	0.98894
3963.84019	0.98884
3961.78639	0.98931
3959.73259	0.98951
3957.67878	0.98964
3955.62498	0.99000
3953.57118	0.98981
3951.51737	0.98927
3949.46357	0.98903
3947.40977	0.98918
3945.35596	0.98950
3943.30216	0.98965
3941.24836	0.98941
3939.19455	0.98889
3937.14075	0.98883
3935.08695	0.98954
3933.03315	0.99016
3930.97934	0.99016
3928.92554	0.98992
3926.87174	0.98963
3924.81793	0.98939
3922.76413	0.98936
3920.71033	0.98951
3918.65652	0.98937
3916.60272	0.98853
3914.54892	0.98818
3912.49511	0.98901
3910.44131	0.99017
3908.38751	0.99099
3906.33370	0.99095
3904.27990	0.98977
3902.22610	0.98830
3900.17229	0.98774
3898.11849	0.98807
3896.06469	0.98849
3894.01088	0.98864
3891.95708	0.98896
3889.90328	0.98974
3887.84947	0.99029
3885.79567	0.99020
3883.74187	0.99004
3881.68807	0.99006
3879.63426	0.99004
3877.58046	0.99009
3875.52666	0.99003
3873.47285	0.98981
3871.41905	0.98938
3869.36525	0.98883
3867.31144	0.98848
3865.25764	0.98834
3863.20384	0.98878
3861.15003	0.98951
3859.09623	0.98947
3857.04243	0.98861
3854.98862	0.98752
3852.93482	0.98712
3850.88102	0.98802
3848.82721	0.98879
3846.77341	0.98870
3844.71961	0.98821
3842.66580	0.98807
3840.61200	0.98846
3838.55820	0.98938
3836.50439	0.99036
3834.45059	0.99016
3832.39679	0.98932
3830.34298	0.98939
3828.28918	0.99010
3826.23538	0.99046
3824.18158	0.99030
3822.12777	0.99000
3820.07397	0.99019
3818.02017	0.99033
3815.96636	0.98974
3813.91256	0.98921
3811.85876	0.98949
3809.80495	0.99011
3807.75115	0.99063
3805.69735	0.99101
3803.64354	0.99091
3801.58974	0.99052
3799.53594	0.99030
3797.48213	0.99014
3795.42833	0.98996
3793.37453	0.98956
3791.32072	0.98922
3789.26692	0.98939
3787.21312	0.98971
3785.15931	0.98977
3783.10551	0.98970
3781.05171	0.98968
3778.99790	0.98984
3776.94410	0.99030
3774.89030	0.99043
3772.83650	0.98956
3770.78269	0.98839
3768.72889	0.98831
3766.67509	0.98908
3764.62128	0.98957
3762.56748	0.98923
3760.51368	0.98847
3758.45987	0.98841
3756.40607	0.98955
3754.35227	0.99075
3752.29846	0.99123
3750.24466	0.99132
3748.19086	0.99096
3746.13705	0.99039
3744.08325	0.99068
3742.02945	0.99065
3739.97564	0.98961
3737.92184	0.98874
3735.86804	0.98862
3733.81423	0.98931
3731.76043	0.99008
3729.70663	0.99025
3727.65282	0.99015
3725.59902	0.99013
3723.54522	0.99000
3721.49141	0.98894
3719.43761	0.98720
3717.38381	0.98626
3715.33001	0.98623
3713.27620	0.98616
3711.22240	0.98528
3709.16860	0.98371
3707.11479	0.98218
3705.06099	0.98039
3703.00719	0.97830
3700.95338	0.97674
3698.89958	0.97611
3696.84578	0.97621
3694.79197	0.97617
3692.73817	0.97589
3690.68437	0.97662
3688.63056	0.97787
3686.57676	0.97843
3684.52296	0.97898
3682.46915	0.97969
3680.41535	0.98020
3678.36155	0.97974
3676.30774	0.97858
3674.25394	0.97812
3672.20014	0.97783
3670.14633	0.97705
3668.09253	0.97661
3666.03873	0.97641
3663.98492	0.97538
3661.93112	0.97373
3659.87732	0.97286
3657.82352	0.97278
3655.76971	0.97304
3653.71591	0.97363
3651.66211	0.97378
3649.60830	0.97299
3647.55450	0.97170
3645.50070	0.97084
3643.44689	0.97025
3641.39309	0.96976
3639.33929	0.96982
3637.28548	0.96972
3635.23168	0.96855
3633.17788	0.96699
3631.12407	0.96596
3629.07027	0.96538
3627.01647	0.96499
3624.96266	0.96468
3622.90886	0.96434
3620.85506	0.96372
3618.80125	0.96302
3616.74745	0.96312
3614.69365	0.96384
3612.63984	0.96494
3610.58604	0.96595
3608.53224	0.96634
3606.47844	0.96666
3604.42463	0.96705
3602.37083	0.96727
3600.31703	0.96753
3598.26322	0.96771
3596.20942	0.96748
3594.15562	0.96745
3592.10181	0.96765
3590.04801	0.96738
3587.99421	0.96681
3585.94040	0.96644
3583.88660	0.96676
3581.83280	0.96736
3579.77899	0.96713
3577.72519	0.96622
3575.67139	0.96586
3573.61758	0.96596
3571.56378	0.96551
3569.50998	0.96487
3567.45617	0.96475
3565.40237	0.96467
3563.34857	0.96441
3561.29476	0.96436
3559.24096	0.96451
3557.18716	0.96483
3555.13335	0.96515
3553.07955	0.96507
3551.02575	0.96486
3548.97195	0.96491
3546.91814	0.96463
3544.86434	0.96428
3542.81054	0.96455
3540.75673	0.96469
3538.70293	0.96396
3536.64913	0.96316
3534.59532	0.96328
3532.54152	0.96374
3530.48772	0.96388
3528.43391	0.96383
3526.38011	0.96419
3524.32631	0.96469
3522.27250	0.96457
3520.21870	0.96434
3518.16490	0.96436
3516.11109	0.96399
3514.05729	0.96332
3512.00349	0.96311
3509.94968	0.96327
3507.89588	0.96354
3505.84208	0.96360
3503.78827	0.96302
3501.73447	0.96222
3499.68067	0.96205
3497.62687	0.96238
3495.57306	0.96242
3493.51926	0.96241
3491.46546	0.96283
3489.41165	0.96326
3487.35785	0.96347
3485.30405	0.96332
3483.25024	0.96273
3481.19644	0.96214
3479.14264	0.96163
3477.08883	0.96134
3475.03503	0.96150
3472.98123	0.96154
3470.92742	0.96130
3468.87362	0.96109
3466.81982	0.96102
3464.76601	0.96105
3462.71221	0.96097
3460.65841	0.96081
3458.60460	0.96087
3456.55080	0.96094
3454.49700	0.96047
3452.44319	0.95986
3450.38939	0.95984
3448.33559	0.96003
3446.28178	0.95986
3444.22798	0.95966
3442.17418	0.95948
3440.12038	0.95921
3438.06657	0.95941
3436.01277	0.95999
3433.95897	0.95991
3431.90516	0.95918
3429.85136	0.95902
3427.79756	0.95952
3425.74375	0.95997
3423.68995	0.95999
3421.63615	0.95960
3419.58234	0.95910
3417.52854	0.95893
3415.47474	0.95886
3413.42093	0.95847
3411.36713	0.95825
3409.31333	0.95865
3407.25952	0.95918
3405.20572	0.95945
3403.15192	0.95959
3401.09811	0.95946
3399.04431	0.95901
3396.99051	0.95887
3394.93670	0.95924
3392.88290	0.95976
3390.82910	0.95996
3388.77529	0.95968
3386.72149	0.95934
3384.66769	0.95912
3382.61389	0.95909
3380.56008	0.95925
3378.50628	0.95919
3376.45248	0.95903
3374.39867	0.95916
3372.34487	0.95967
3370.29107	0.96039
3368.23726	0.96065
3366.18346	0.96025
3364.12966	0.95979
3362.07585	0.95978
3360.02205	0.96013
3357.96825	0.96035
3355.91444	0.96020
3353.86064	0.96000
3351.80684	0.96035
3349.75303	0.96128
3347.69923	0.96149
3345.64543	0.96071
3343.59162	0.96055
3341.53782	0.96125
3339.48402	0.96188
3337.43021	0.96182
3335.37641	0.96116
3333.32261	0.96106
3331.26881	0.96161
3329.21500	0.96176
3327.16120	0.96160
3325.10740	0.96200
3323.05359	0.96284
3320.99979	0.96322
3318.94599	0.96298
3316.89218	0.96276
3314.83838	0.96292
3312.78458	0.96321
3310.73077	0.96331
3308.67697	0.96335
3306.62317	0.96351
3304.56936	0.96370
3302.51556	0.96387
3300.46176	0.96397
3298.40795	0.96362
3296.35415	0.96317
3294.30035	0.96332
3292.24654	0.96364
3290.19274	0.96379
3288.13894	0.96395
3286.08513	0.96397
3284.03133	0.96408
3281.97753	0.96445
3279.92372	0.96482
3277.86992	0.96504
3275.81612	0.96494
3273.76232	0.96473
3271.70851	0.96479
3269.65471	0.96494
3267.60091	0.96520
3265.54710	0.96575
3263.49330	0.96648
3261.43950	0.96692
3259.38569	0.96677
3257.33189	0.96675
3255.27809	0.96691
3253.22428	0.96668
3251.17048	0.96627
3249.11668	0.96591
3247.06287	0.96561
3245.00907	0.96559
3242.95527	0.96579
3240.90146	0.96593
3238.84766	0.96610
3236.79386	0.96659
3234.74005	0.96730
3232.68625	0.96771
3230.63245	0.96762
3228.57864	0.96733
3226.52484	0.96736
3224.47104	0.96805
3222.41724	0.96874
3220.36343	0.96865
3218.30963	0.96828
3216.25583	0.96820
3214.20202	0.96808
3212.14822	0.96799
3210.09442	0.96819
3208.04061	0.96832
3205.98681	0.96821
3203.93301	0.96830
3201.87920	0.96852
3199.82540	0.96868
3197.77160	0.96923
3195.71779	0.96981
3193.66399	0.96973
3191.61019	0.96940
3189.55638	0.96950
3187.50258	0.97006
3185.44878	0.97053
3183.39497	0.97063
3181.34117	0.97034
3179.28737	0.96984
3177.23356	0.96978
3175.17976	0.97019
3173.12596	0.97047
3171.07215	0.97083
3169.01835	0.97135
3166.96455	0.97136
3164.91075	0.97109
3162.85694	0.97129
3160.80314	0.97158
3158.74934	0.97178
3156.69553	0.97205
3154.64173	0.97234
3152.58793	0.97253
3150.53412	0.97254
3148.48032	0.97245
3146.42652	0.97230
3144.37271	0.97230
3142.31891	0.97285
3140.26511	0.97337
3138.21130	0.97304
3136.15750	0.97253
3134.10370	0.97265
3132.04989	0.97321
3129.99609	0.97370
3127.94229	0.97398
3125.88848	0.97428
3123.83468	0.97452
3121.78088	0.97436
3119.72707	0.97400
3117.67327	0.97408
3115.61947	0.97427
3113.56566	0.97407
3111.51186	0.97396
3109.45806	0.97435
3107.40426	0.97475
3105.35045	0.97476
3103.29665	0.97456
3101.24285	0.97443
3099.18904	0.97439
3097.13524	0.97435
3095.08144	0.97444
3093.02763	0.97474
3090.97383	0.97522
3088.92003	0.97550
3086.86622	0.97525
3084.81242	0.97474
3082.75862	0.97448
3080.70481	0.97464
3078.65101	0.97488
3076.59721	0.97495
3074.54340	0.97488
3072.48960	0.97483
3070.43580	0.97502
3068.38199	0.97524
3066.32819	0.97526
3064.27439	0.97525
3062.22058	0.97512
3060.16678	0.97486
3058.11298	0.97490
3056.05918	0.97516
3054.00537	0.97519
3051.95157	0.97508
3049.89777	0.97518
3047.84396	0.97550
3045.79016	0.97588
3043.73636	0.97601
3041.68255	0.97590
3039.62875	0.97589
3037.57495	0.97598
3035.52114	0.97574
3033.46734	0.97541
3031.41354	0.97569
3029.35973	0.97615
3027.30593	0.97615
3025.25213	0.97596
3023.19832	0.97572
3021.14452	0.97531
3019.09072	0.97515
3017.03691	0.97537
3014.98311	0.97531
3012.92931	0.97498
3010.87550	0.97484
3008.82170	0.97482
3006.76790	0.97485
3004.71409	0.97506
3002.66029	0.97515
3000.60649	0.97496
2998.55269	0.97468
2996.49888	0.97426
2994.44508	0.97394
2992.39128	0.97381
2990.33747	0.97329
2988.28367	0.97234
2986.22987	0.97130
2984.17606	0.97005
2982.12226	0.96879
2980.06846	0.96761
2978.01465	0.96637
2975.96085	0.96537
2973.90705	0.96439
2971.85324	0.96309
2969.79944	0.96132
2967.74564	0.95890
2965.69183	0.95613
2963.63803	0.95328
2961.58423	0.95048
2959.53042	0.94756
2957.47662	0.94435
2955.42282	0.94133
2953.36901	0.93874
2951.31521	0.93624
2949.26141	0.93324
2947.20761	0.92876
2945.15380	0.92218
2943.10000	0.91375
2941.04620	0.90316
2938.99239	0.88975
2936.93859	0.87395
2934.88479	0.85641
2932.83098	0.83690
2930.77718	0.81463
2928.72338	0.78880
2926.66957	0.75867
2924.61577	0.72347
2922.56197	0.68316
2920.50816	0.64010
2918.45436	0.60012
2916.40056	0.57235
2914.34675	0.56542
2912.29295	0.58027
2910.23915	0.60918
2908.18534	0.64232
2906.13154	0.67322
2904.07774	0.69916
2902.02393	0.71996
2899.97013	0.73691
2897.91633	0.75161
2895.86252	0.76508
2893.80872	0.77788
2891.75492	0.79063
2889.70112	0.80361
2887.64731	0.81682
2885.59351	0.83009
2883.53971	0.84309
2881.48590	0.85564
2879.43210	0.86745
2877.37830	0.87799
2875.32449	0.88655
2873.27069	0.89263
2871.21689	0.89598
2869.16308	0.89701
2867.10928	0.89558
2865.05548	0.89056
2863.00167	0.88100
2860.94787	0.86553
2858.89407	0.84209
2856.84026	0.80801
2854.78646	0.76022
2852.73266	0.69938
2850.67885	0.63751
2848.62505	0.59851
2846.57125	0.60161
2844.51744	0.64294
2842.46364	0.70092
2840.40984	0.75639
2838.35603	0.80181
2836.30223	0.83684
2834.24843	0.86298
2832.19463	0.88212
2830.14082	0.89649
2828.08702	0.90786
2826.03322	0.91719
2823.97941	0.92483
2821.92561	0.93100
2819.87181	0.93598
2817.81800	0.93992
2815.76420	0.94320
2813.71040	0.94627
2811.65659	0.94908
2809.60279	0.95156
2807.54899	0.95386
2805.49518	0.95574
2803.44138	0.95723
2801.38758	0.95863
2799.33377	0.95979
2797.27997	0.96075
2795.22617	0.96173
2793.17236	0.96273
2791.11856	0.96382
2789.06476	0.96496
2787.01095	0.96601
2784.95715	0.96704
2782.90335	0.96818
2780.84955	0.96937
2778.79574	0.97022
2776.74194	0.97066
2774.68814	0.97085
2772.63433	0.97107
2770.58053	0.97169
2768.52673	0.97263
2766.47292	0.97349
2764.41912	0.97396
2762.36532	0.97390
2760.31151	0.97374
2758.25771	0.97402
2756.20391	0.97445
2754.15010	0.97456
2752.09630	0.97471
2750.04250	0.97516
2747.98869	0.97536
2745.93489	0.97521
2743.88109	0.97534
2741.82728	0.97585
2739.77348	0.97616
2737.71968	0.97604
2735.66587	0.97582
2733.61207	0.97590
2731.55827	0.97625
2729.50446	0.97657
2727.45066	0.97673
2725.39686	0.97684
2723.34306	0.97691
2721.28925	0.97702
2719.23545	0.97740
2717.18165	0.97791
2715.12784	0.97811
2713.07404	0.97829
2711.02024	0.97869
2708.96643	0.97885
2706.91263	0.97867
2704.85883	0.97857
2702.80502	0.97885
2700.75122	0.97900
2698.69742	0.97869
2696.64361	0.97858
2694.58981	0.97900
2692.53601	0.97955
2690.48220	0.98007
2688.42840	0.98022
2686.37460	0.97975
2684.32079	0.97934
2682.26699	0.97940
2680.21319	0.97963
2678.15938	0.97967
2676.10558	0.97928
2674.05178	0.97887
2671.99797	0.97880
2669.94417	0.97878
2667.89037	0.97867
2665.83657	0.97850
2663.78276	0.97824
2661.72896	0.97788
2659.67516	0.97781
2657.62135	0.97820
2655.56755	0.97847
2653.51375	0.97858
2651.45994	0.97879
2649.40614	0.97875
2647.35234	0.97860
2645.29853	0.97856
2643.24473	0.97830
2641.19093	0.97787
2639.13712	0.97820
2637.08332	0.97899
2635.02952	0.97900
2632.97571	0.97863
2630.92191	0.97875
2628.86811	0.97913
2626.81430	0.97943
2624.76050	0.97973
2622.70670	0.98009
2620.65289	0.98029
2618.59909	0.98059
2616.54529	0.98148
2614.49149	0.98246
2612.43768	0.98264
2610.38388	0.98217
2608.33008	0.98174
2606.27627	0.98129
2604.22247	0.98112
2602.16867	0.98159
2600.11486	0.98232
2598.06106	0.98313
2596.00726	0.98392
2593.95345	0.98416
2591.89965	0.98394
2589.84585	0.98405
2587.79204	0.98413
2585.73824	0.98401
2583.68444	0.98430
2581.63063	0.98457
2579.57683	0.98464
2577.52303	0.98481
2575.46922	0.98511
2573.41542	0.98552
2571.36162	0.98550
2569.30781	0.98493
2567.25401	0.98468
2565.20021	0.98514
2563.14640	0.98593
2561.09260	0.98655
2559.03880	0.98666
2556.98500	0.98644
2554.93119	0.98632
2552.87739	0.98668
2550.82359	0.98745
2548.76978	0.98775
2546.71598	0.98734
2544.66218	0.98715
2542.60837	0.98729
2540.55457	0.98697
2538.50077	0.98604
2536.44696	0.98533
2534.39316	0.98553
2532.33936	0.98615
2530.28555	0.98632
2528.23175	0.98596
2526.17795	0.98562
2524.12414	0.98549
2522.07034	0.98544
2520.01654	0.98554
2517.96273	0.98587
2515.90893	0.98660
2513.85513	0.98739
2511.80132	0.98780
2509.74752	0.98829
2507.69372	0.98885
2505.63992	0.98856
2503.58611	0.98781
2501.53231	0.98767
2499.47851	0.98809
2497.42470	0.98842
2495.37090	0.98780
2493.31710	0.98665
2491.26329	0.98638
2489.20949	0.98697
2487.15569	0.98749
2485.10188	0.98779
2483.04808	0.98822
2480.99428	0.98883
2478.94047	0.98921
2476.88667	0.98867
2474.83287	0.98776
2472.77906	0.98756
2470.72526	0.98776
2468.67146	0.98789
2466.61765	0.98809
2464.56385	0.98861
2462.51005	0.98936
2460.45624	0.98942
2458.40244	0.98864
2456.34864	0.98817
2454.29483	0.98836
2452.24103	0.98871
2450.18723	0.98894
2448.13343	0.98864
2446.07962	0.98832
2444.02582	0.98879
2441.97202	0.98935
2439.91821	0.98952
2437.86441	0.98973
2435.81061	0.98984
2433.75680	0.98955
2431.70300	0.98890
2429.64920	0.98837
2427.59539	0.98854
2425.54159	0.98914
2423.48779	0.98959
2421.43398	0.98970
2419.38018	0.98986
2417.32638	0.99032
2415.27257	0.99028
2413.21877	0.98960
2411.16497	0.98922
2409.11116	0.98957
2407.05736	0.99022
2405.00356	0.99029
2402.94975	0.98946
2400.89595	0.98914
2398.84215	0.98970
2396.78834	0.98981
2394.73454	0.98960
2392.68074	0.98961
2390.62694	0.98985
2388.57313	0.99037
2386.51933	0.99059
2384.46553	0.99042
2382.41172	0.99031
2380.35792	0.98998
2378.30412	0.98943
2376.25031	0.98923
2374.19651	0.98942
2372.14271	0.98979
2370.08890	0.98959
2368.03510	0.98875
2365.98130	0.98867
2363.92749	0.98989
2361.87369	0.99082
2359.81989	0.99019
2357.76608	0.98893
2355.71228	0.98826
2353.65848	0.98822
2351.60467	0.98829
2349.55087	0.98839
2347.49707	0.98839
2345.44326	0.98822
2343.38946	0.98802
2341.33566	0.98800
2339.28186	0.98806
2337.22805	0.98797
2335.17425	0.98772
2333.12045	0.98764
2331.06664	0.98812
2329.01284	0.98816
2326.95904	0.98719
2324.90523	0.98641
2322.85143	0.98641
2320.79763	0.98685
2318.74382	0.98712
2316.69002	0.98735
2314.63622	0.98791
2312.58241	0.98832
2310.52861	0.98839
2308.47481	0.98856
2306.42100	0.98872
2304.36720	0.98838
2302.31340	0.98760
2300.25959	0.98724
2298.20579	0.98733
2296.15199	0.98725
2294.09818	0.98734
2292.04438	0.98804
2289.99058	0.98875
2287.93677	0.98886
2285.88297	0.98893
2283.82917	0.98925
2281.77537	0.98960
2279.72156	0.99024
2277.66776	0.99048
2275.61396	0.98955
2273.56015	0.98881
2271.50635	0.98955
2269.45255	0.99033
2267.39874	0.98971
2265.34494	0.98963
2263.29114	0.99150
2261.23733	0.99283
2259.18353	0.99212
2257.12973	0.99105
2255.07592	0.99105
2253.02212	0.99197
2250.96832	0.99243
2248.91451	0.99144
2246.86071	0.99017
2244.80691	0.99037
2242.75310	0.99180
2240.69930	0.99309
2238.64550	0.99310
2236.59169	0.99176
2234.53789	0.99033
2232.48409	0.98950
2230.43029	0.98937
2228.37648	0.98950
2226.32268	0.98943
2224.26888	0.99008
2222.21507	0.99149
2220.16127	0.99219
2218.10747	0.99154
2216.05366	0.99028
2213.99986	0.98991
2211.94606	0.99023
2209.89225	0.99014
2207.83845	0.98995
2205.78465	0.98998
2203.73084	0.99063
2201.67704	0.99214
2199.62324	0.99314
2197.56943	0.99213
2195.51563	0.99015
2193.46183	0.98893
2191.40802	0.98847
2189.35422	0.98856
2187.30042	0.98961
2185.24661	0.99151
2183.19281	0.99301
2181.13901	0.99345
2179.08520	0.99260
2177.03140	0.99145
2174.97760	0.99209
2172.92380	0.99391
2170.86999	0.99535
2168.81619	0.99602
2166.76239	0.99496
2164.70858	0.99217
2162.65478	0.98992
2160.60098	0.99170
2158.54717	0.99629
2156.49337	0.99613
2154.43957	0.99342
2152.38576	0.99384
2150.33196	0.99478
2148.27816	0.99487
2146.22435	0.99524
2144.17055	0.99495
2142.11675	0.99435
2140.06294	0.99504
2138.00914	0.99660
2135.95534	0.99762
2133.90153	0.99738
2131.84773	0.99603
2129.79393	0.99504
2127.74012	0.99501
2125.68632	0.99438
2123.63252	0.99312
2121.57871	0.99255
2119.52491	0.99253
2117.47111	0.99278
2115.41731	0.99249
2113.36350	0.99097
2111.30970	0.99010
2109.25590	0.99040
2107.20209	0.99046
2105.14829	0.99093
2103.09449	0.99159
2101.04068	0.99143
2098.98688	0.99160
2096.93308	0.99274
2094.87927	0.99467
2092.82547	0.99615
2090.77167	0.99514
2088.71786	0.99267
2086.66406	0.99115
2084.61026	0.99059
2082.55645	0.99025
2080.50265	0.98978
2078.44885	0.98933
2076.39504	0.98923
2074.34124	0.98925
2072.28744	0.98965
2070.23363	0.99047
2068.17983	0.99122
2066.12603	0.99206
2064.07223	0.99316
2062.01842	0.99309
2059.96462	0.99152
2057.91082	0.99071
2055.85701	0.99074
2053.80321	0.99053
2051.74941	0.98983
2049.69560	0.98825
2047.64180	0.98734
2045.58800	0.98893
2043.53419	0.99117
2041.48039	0.99172
2039.42659	0.99210
2037.37278	0.99314
2035.31898	0.99304
2033.26518	0.99271
2031.21137	0.99389
2029.15757	0.99513
2027.10377	0.99490
2025.04996	0.99351
2022.99616	0.99313
2020.94236	0.99447
2018.88855	0.99496
2016.83475	0.99331
2014.78095	0.99149
2012.72714	0.99095
2010.67334	0.99077
2008.61954	0.99115
2006.56574	0.99270
2004.51193	0.99371
2002.45813	0.99473
2000.40433	0.99684
1998.35052	0.99740
1996.29672	0.99489
1994.24292	0.99154
1992.18911	0.99010
1990.13531	0.99050
1988.08151	0.99102
1986.02770	0.99110
1983.97390	0.99114
1981.92010	0.99199
1979.86629	0.99340
1977.81249	0.99463
1975.75869	0.99518
1973.70488	0.99459
1971.65108	0.99397
1969.59728	0.99331
1967.54347	0.99156
1965.48967	0.99092
1963.43587	0.99204
1961.38206	0.99310
1959.32826	0.99437
1957.27446	0.99572
1955.22066	0.99543
1953.16685	0.99324
1951.11305	0.99073
1949.05925	0.98920
1947.00544	0.98884
1944.95164	0.98901
1942.89784	0.98930
1940.84403	0.98994
1938.79023	0.99113
1936.73643	0.99253
1934.68262	0.99289
1932.62882	0.99171
1930.57502	0.99072
1928.52121	0.99117
1926.46741	0.99248
1924.41361	0.99314
1922.35980	0.99254
1920.30600	0.99208
1918.25220	0.99199
1916.19839	0.99180
1914.14459	0.99190
1912.09079	0.99123
1910.03698	0.99010
1907.98318	0.99018
1905.92938	0.99066
1903.87557	0.99062
1901.82177	0.99004
1899.76797	0.98941
1897.71417	0.98907
1895.66036	0.98874
1893.60656	0.98861
1891.55276	0.98869
1889.49895	0.98885
1887.44515	0.98907
1885.39135	0.98963
1883.33754	0.99060
1881.28374	0.99122
1879.22994	0.99115
1877.17613	0.99066
1875.12233	0.99006
1873.06853	0.98944
1871.01472	0.98882
1868.96092	0.98874
1866.90712	0.98935
1864.85331	0.98978
1862.79951	0.98991
1860.74571	0.98981
1858.69190	0.98966
1856.63810	0.98991
1854.58430	0.99023
1852.53049	0.99011
1850.47669	0.98950
1848.42289	0.98892
1846.36908	0.98913
1844.31528	0.99004
1842.26148	0.99068
1840.20768	0.99093
1838.15387	0.99087
1836.10007	0.99029
1834.04627	0.98947
1831.99246	0.98883
1829.93866	0.98902
1827.88486	0.98978
1825.83105	0.98988
1823.77725	0.98951
1821.72345	0.98927
1819.66964	0.98891
1817.61584	0.98837
1815.56204	0.98796
1813.50823	0.98776
1811.45443	0.98770
1809.40063	0.98767
1807.34682	0.98751
1805.29302	0.98721
1803.23922	0.98676
1801.18541	0.98604
1799.13161	0.98524
1797.07781	0.98459
1795.02400	0.98418
1792.97020	0.98392
1790.91640	0.98341
1788.86260	0.98286
1786.80879	0.98241
1784.75499	0.98181
1782.70119	0.98136
1780.64738	0.98099
1778.59358	0.98048
1776.53978	0.98002
1774.48597	0.97965
1772.43217	0.97949
1770.37837	0.97954
1768.32456	0.97935
1766.27076	0.97884
1764.21696	0.97837
1762.16315	0.97789
1760.10935	0.97739
1758.05555	0.97710
1756.00174	0.97667
1753.94794	0.97588
1751.89414	0.97457
1749.84033	0.97234
1747.78653	0.96983
1745.73273	0.96782
1743.67892	0.96596
1741.62512	0.96401
1739.57132	0.96235
1737.51751	0.96152
1735.46371	0.96135
1733.40991	0.96142
1731.35611	0.96107
1729.30230	0.95990
1727.24850	0.95823
1725.19470	0.95623
1723.14089	0.95347
1721.08709	0.95048
1719.03329	0.94785
1716.97948	0.94514
1714.92568	0.94304
1712.87188	0.94251
1710.81807	0.94335
1708.76427	0.94511
1706.71047	0.94751
1704.65666	0.95015
1702.60286	0.95258
1700.54906	0.95534
1698.49525	0.95766
1696.44145	0.95967
1694.38765	0.96223
1692.33384	0.96415
1690.28004	0.96522
1688.22624	0.96574
1686.17243	0.96632
1684.11863	0.96718
1682.06483	0.96751
1680.01103	0.96750
1677.95722	0.96748
1675.90342	0.96730
1673.84962	0.96707
1671.79581	0.96670
1669.74201	0.96599
1667.68821	0.96541
1665.63440	0.96509
1663.58060	0.96493
1661.52680	0.96479
1659.47299	0.96446
1657.41919	0.96386
1655.36539	0.96293
1653.31158	0.96216
1651.25778	0.96188
1649.20398	0.96143
1647.15017	0.96094
1645.09637	0.96050
1643.04257	0.95994
1640.98876	0.95941
1638.93496	0.95925
1636.88116	0.95926
1634.82735	0.95887
1632.77355	0.95843
1630.71975	0.95801
1628.66594	0.95741
1626.61214	0.95686
1624.55834	0.95645
1622.50454	0.95601
1620.45073	0.95564
1618.39693	0.95524
1616.34313	0.95472
1614.28932	0.95461
1612.23552	0.95458
1610.18172	0.95412
1608.12791	0.95351
1606.07411	0.95306
1604.02031	0.95280
1601.96650	0.95276
1599.91270	0.95287
1597.85890	0.95295
1595.80509	0.95293
1593.75129	0.95277
1591.69749	0.95276
1589.64368	0.95327
1587.58988	0.95407
1585.53608	0.95491
1583.48227	0.95574
1581.42847	0.95646
1579.37467	0.95718
1577.32086	0.95818
1575.26706	0.95938
1573.21326	0.96036
1571.15945	0.96146
1569.10565	0.96275
1567.05185	0.96368
1564.99805	0.96443
1562.94424	0.96497
1560.89044	0.96521
1558.83664	0.96589
1556.78283	0.96701
1554.72903	0.96755
1552.67523	0.96786
1550.62142	0.96805
1548.56762	0.96806
1546.51382	0.96814
1544.46001	0.96853
1542.40621	0.96892
1540.35241	0.96894
1538.29860	0.96880
1536.24480	0.96852
1534.19100	0.96804
1532.13719	0.96783
1530.08339	0.96799
1528.02959	0.96788
1525.97578	0.96717
1523.92198	0.96626
1521.86818	0.96529
1519.81437	0.96441
1517.76057	0.96342
1515.70677	0.96226
1513.65297	0.96163
1511.59916	0.96127
1509.54536	0.96031
1507.49156	0.95833
1505.43775	0.95718
1503.38395	0.95699
1501.33015	0.95606
1499.27634	0.95434
1497.22254	0.95269
1495.16874	0.95157
1493.11493	0.95058
1491.06113	0.94917
1489.00733	0.94720
1486.95352	0.94508
1484.89972	0.94286
1482.84592	0.93998
1480.79211	0.93529
1478.73831	0.92570
1476.68451	0.90153
1474.63070	0.85445
1472.57690	0.80736
1470.52310	0.80064
1468.46929	0.81445
1466.41549	0.82109
1464.36169	0.81771
1462.30788	0.82137
1460.25408	0.83960
1458.20028	0.86516
1456.14648	0.88628
1454.09267	0.89702
1452.03887	0.90444
1449.98507	0.91070
1447.93126	0.91573
1445.87746	0.91948
1443.82366	0.92183
1441.76985	0.92343
1439.71605	0.92478
1437.66225	0.92608
1435.60844	0.92743
1433.55464	0.92890
1431.50084	0.93078
1429.44703	0.93298
1427.39323	0.93489
1425.33943	0.93633
1423.28562	0.93749
1421.23182	0.93835
1419.17802	0.93911
1417.12421	0.93979
1415.07041	0.94034
1413.01661	0.94115
1410.96280	0.94251
1408.90900	0.94420
1406.85520	0.94557
1404.80139	0.94683
1402.74759	0.94845
1400.69379	0.95003
1398.63999	0.95130
1396.58618	0.95248
1394.53238	0.95357
1392.47858	0.95434
1390.42477	0.95486
1388.37097	0.95521
1386.31717	0.95511
1384.26336	0.95438
1382.20956	0.95290
1380.15576	0.95080
1378.10195	0.94924
1376.04815	0.94893
1373.99435	0.94939
1371.94054	0.94972
1369.88674	0.94974
1367.83294	0.94982
1365.77913	0.95020
1363.72533	0.95119
1361.67153	0.95280
1359.61772	0.95416
1357.56392	0.95490
1355.51012	0.95531
1353.45631	0.95565
1351.40251	0.95619
1349.34871	0.95702
1347.29491	0.95795
1345.24110	0.95877
1343.18730	0.95952
1341.13350	0.96028
1339.07969	0.96088
1337.02589	0.96141
1334.97209	0.96197
1332.91828	0.96236
1330.86448	0.96241
1328.81068	0.96207
1326.75687	0.96153
1324.70307	0.96103
1322.64927	0.96040
1320.59546	0.95949
1318.54166	0.95842
1316.48786	0.95751
1314.43405	0.95705
1312.38025	0.95705
1310.32645	0.95724
1308.27264	0.95719
1306.21884	0.95686
1304.16504	0.95656
1302.11123	0.95633
1300.05743	0.95619
1298.00363	0.95605
1295.94982	0.95574
1293.89602	0.95554
1291.84222	0.95552
1289.78842	0.95546
1287.73461	0.95529
1285.68081	0.95484
1283.62701	0.95420
1281.57320	0.95369
1279.51940	0.95329
1277.46560	0.95284
1275.41179	0.95241
1273.35799	0.95200
1271.30419	0.95160
1269.25038	0.95128
1267.19658	0.95100
1265.14278	0.95080
1263.08897	0.95061
1261.03517	0.95038
1258.98137	0.95025
1256.92756	0.94996
1254.87376	0.94959
1252.81996	0.94947
1250.76615	0.94933
1248.71235	0.94900
1246.65855	0.94863
1244.60474	0.94837
1242.55094	0.94807
1240.49714	0.94755
1238.44334	0.94718
1236.38953	0.94720
1234.33573	0.94729
1232.28193	0.94709
1230.22812	0.94646
1228.17432	0.94553
1226.12052	0.94441
1224.06671	0.94341
1222.01291	0.94277
1219.95911	0.94187
1217.90530	0.94040
1215.85150	0.93892
1213.79770	0.93744
1211.74389	0.93576
1209.69009	0.93416
1207.63629	0.93247
1205.58248	0.93032
1203.52868	0.92793
1201.47488	0.92537
1199.42107	0.92257
1197.36727	0.91985
1195.31347	0.91732
1193.25966	0.91457
1191.20586	0.91155
1189.15206	0.90846
1187.09825	0.90542
1185.04445	0.90241
1182.99065	0.89924
1180.93685	0.89585
1178.88304	0.89269
1176.82924	0.88989
1174.77544	0.88706
1172.72163	0.88437
1170.66783	0.88194
1168.61403	0.87962
1166.56022	0.87752
1164.50642	0.87581
1162.45262	0.87465
1160.39881	0.87400
1158.34501	0.87354
1156.29121	0.87295
1154.23740	0.87200
1152.18360	0.87068
1150.12980	0.86923
1148.07599	0.86792
1146.02219	0.86653
1143.96839	0.86475
1141.91458	0.86303
1139.86078	0.86153
1137.80698	0.85991
1135.75317	0.85813
1133.69937	0.85596
1131.64557	0.85345
1129.59176	0.85083
1127.53796	0.84781
1125.48416	0.84462
1123.43036	0.84154
1121.37655	0.83844
1119.32275	0.83525
1117.26895	0.83164
1115.21514	0.82749
1113.16134	0.82308
1111.10754	0.81868
1109.05373	0.81473
1106.99993	0.81137
1104.94613	0.80815
1102.89232	0.80480
1100.83852	0.80157
1098.78472	0.79897
1096.73091	0.79682
1094.67711	0.79449
1092.62331	0.79217
1090.56950	0.79026
1088.51570	0.78843
1086.46190	0.78659
1084.40809	0.78513
1082.35429	0.78447
1080.30049	0.78424
1078.24668	0.78367
1076.19288	0.78279
1074.13908	0.78180
1072.08528	0.78048
1070.03147	0.77879
1067.97767	0.77664
1065.92387	0.77370
1063.87006	0.77039
1061.81626	0.76755
1059.76246	0.76511
1057.70865	0.76232
1055.65485	0.75885
1053.60105	0.75498
1051.54724	0.75106
1049.49344	0.74695
1047.43964	0.74277
1045.38583	0.73866
1043.33203	0.73405
1041.27823	0.72870
1039.22442	0.72345
1037.17062	0.71907
1035.11682	0.71553
1033.06301	0.71270
1031.00921	0.71063
1028.95541	0.70912
1026.90160	0.70784
1024.84780	0.70659
1022.79400	0.70534
1020.74019	0.70430
1018.68639	0.70369
1016.63259	0.70324
1014.57879	0.70261
1012.52498	0.70208
1010.47118	0.70196
1008.41738	0.70182
1006.36357	0.70184
1004.30977	0.70281
1002.25597	0.70479
1000.20216	0.70727
998.14836	0.70999
996.09456	0.71311
994.04075	0.71659
991.98695	0.72038
989.93315	0.72476
987.87934	0.73004
985.82554	0.73614
983.77174	0.74272
981.71793	0.74980
979.66413	0.75736
977.61033	0.76525
975.55652	0.77355
973.50272	0.78208
971.44892	0.79041
969.39511	0.79839
967.34131	0.80572
965.28751	0.81231
963.23371	0.81856
961.17990	0.82426
959.12610	0.82914
957.07230	0.83357
955.01849	0.83745
952.96469	0.84062
950.91089	0.84400
948.85708	0.84758
946.80328	0.85023
944.74948	0.85239
942.69567	0.85487
940.64187	0.85725
938.58807	0.85942
936.53426	0.86187
934.48046	0.86482
932.42666	0.86791
930.37285	0.87060
928.31905	0.87270
926.26525	0.87415
924.21144	0.87512
922.15764	0.87599
920.10384	0.87663
918.05003	0.87695
915.99623	0.87726
913.94243	0.87742
911.88862	0.87759
909.83482	0.87856
907.78102	0.88114
905.72722	0.88569
903.67341	0.89119
901.61961	0.89685
899.56581	0.90244
897.51200	0.90684
895.45820	0.90972
893.40440	0.91203
891.35059	0.91437
889.29679	0.91625
887.24299	0.91746
885.18918	0.91853
883.13538	0.91931
881.08158	0.91916
879.02777	0.91835
876.97397	0.91824
874.92017	0.91980
872.86636	0.92267
870.81256	0.92527
868.75876	0.92633
866.70495	0.92641
864.65115	0.92624
862.59735	0.92640
860.54354	0.92773
858.48974	0.93008
856.43594	0.93302
854.38213	0.93629
852.32833	0.93901
850.27453	0.94077
848.22073	0.94177
846.16692	0.94204
844.11312	0.94171
842.05932	0.94111
840.00551	0.94031
837.95171	0.93927
835.89791	0.93815
833.84410	0.93716
831.79030	0.93648
829.73650	0.93629
827.68269	0.93664
825.62889	0.93693
823.57509	0.93697
821.52128	0.93703
819.46748	0.93717
817.41368	0.93722
815.35987	0.93721
813.30607	0.93719
811.25227	0.93638
809.19846	0.93334
807.14466	0.92796
805.09086	0.92196
803.03705	0.91619
800.98325	0.91120
798.92945	0.90885
796.87565	0.90980
794.82184	0.91196
792.76804	0.91333
790.71424	0.91436
788.66043	0.91567
786.60663	0.91629
784.55283	0.91504
782.49902	0.91248
780.44522	0.91070
778.39142	0.91076
776.33761	0.91233
774.28381	0.91434
772.23001	0.91534
770.17620	0.91593
768.12240	0.91688
766.06860	0.91683
764.01479	0.91589
761.96099	0.91523
759.90719	0.91464
757.85338	0.91462
755.79958	0.91567
753.74578	0.91637
751.69197	0.91596
749.63817	0.91528
747.58437	0.91457
745.53056	0.91405
743.47676	0.91422
741.42296	0.91466
739.36916	0.91410
737.31535	0.91105
735.26155	0.90070
733.20775	0.87566
731.15394	0.84518
729.10014	0.83377
727.04634	0.84135
724.99253	0.84354
722.93873	0.82527
720.88493	0.78948
718.83112	0.75936
716.77732	0.76043
714.72352	0.79292
712.66971	0.83564
710.61591	0.86775
708.56211	0.88525
706.50830	0.89426
704.45450	0.89914
702.40070	0.90125
700.34689	0.90117
698.29309	0.90031
696.23929	0.90056
694.18548	0.90246
692.13168	0.90514
690.07788	0.90690
688.02408	0.90692
685.97027	0.90648
683.91647	0.90647
681.86267	0.90734
679.80886	0.90888
677.75506	0.90984
675.70126	0.91018
673.64745	0.90999
671.59365	0.90911
669.53985	0.90866
667.48604	0.90956
665.43224	0.90997
663.37844	0.90874
661.32463	0.90657
659.27083	0.90528
657.21703	0.90457
655.16322	0.90281
653.10942	0.89998
651.05562	0.89705
649.00181	0.89573
646.94801	0.89617
644.89421	0.89726
642.84040	0.89911
640.78660	0.90178
638.73280	0.90414
636.67899	0.90542
634.62519	0.90600
632.57139	0.90625
630.51759	0.90684
628.46378	0.90716
626.40998	0.90570
624.35618	0.90373
622.30237	0.90282
620.24857	0.90235
618.19477	0.90144
616.14096	0.89957
614.08716	0.89674
612.03336	0.89351
609.97955	0.89152
607.92575	0.89129
605.87195	0.89071
603.81814	0.88888
601.76434	0.88668
599.71054	0.88438
597.65673	0.88158
595.60293	0.87846
593.54913	0.87611
591.49532	0.87541
589.44152	0.87501
587.38772	0.87289
585.33391	0.87063
583.28011	0.87003
581.22631	0.87003
579.17250	0.87069
577.11870	0.87196
575.06490	0.87121
573.01110	0.86910
570.95729	0.86859
568.90349	0.86782
566.84969	0.86577
564.79588	0.86368
562.74208	0.86073
560.68828	0.85791
558.63447	0.85599
556.58067	0.85382
554.52687	0.85104
552.47306	0.84742
550.41926	0.84346
548.36546	0.84043
546.31165	0.83916
544.25785	0.83789
542.20405	0.83418
540.15024	0.82903
538.09644	0.82514
536.04264	0.82300
533.98883	0.82051
531.93503	0.81868
529.88123	0.81968
527.82742	0.82138
525.77362	0.82151
523.71982	0.82185
521.66602	0.82358
519.61221	0.82485
517.55841	0.82636
515.50461	0.82871
513.45080	0.82998
511.39700	0.83143
509.34320	0.83397
507.28939	0.83722
505.23559	0.84081
503.18179	0.84292
501.12798	0.84394
499.07418	0.84435
497.02038	0.84293
494.96657	0.84076
492.91277	0.83850
490.85897	0.83537
488.80516	0.83163
486.75136	0.82574
484.69756	0.81616
482.64375	0.80608
480.58995	0.79689
478.53615	0.78576
476.48234	0.77425
474.42854	0.76674
472.37474	0.76378
470.32093	0.76327
468.26713	0.76299
466.21333	0.76090
464.15953	0.75972
462.10572	0.76444
460.05192	0.77109
457.99812	0.77550
455.94431	0.78096
453.89051	0.78740
451.83671	0.79456
449.78290	0.80075
447.72910	0.80433
445.67530	0.80953
443.62149	0.81547
441.56769	0.81865
439.51389	0.82105
437.46008	0.82121
435.40628	0.81806
433.35248	0.81633
431.29867	0.81774
429.24487	0.81859
427.19107	0.81619
425.13726	0.81495
423.08346	0.81697
421.02966	0.81618
418.97585	0.81524
416.92205	0.82203
414.86825	0.83057
412.81445	0.83594
410.76064	0.83788
408.70684	0.84088
406.65304	0.84587
404.59923	0.84882
402.54543	0.84681
400.49163	0.84028
398.43782	0.83460
