3996.70104	0.96542
3994.64724	0.96567
3992.59344	0.96595
3990.53964	0.96586
3988.48583	0.96537
3986.43203	0.96505
3984.37823	0.96492
3982.32442	0.96468
3980.27062	0.96452
3978.21682	0.96462
3976.16301	0.96462
3974.10921	0.96467
3972.05541	0.96498
3970.00160	0.96516
3967.94780	0.96532
3965.89400	0.96540
3963.84019	0.96515
3961.78639	0.96482
3959.73259	0.96476
3957.67878	0.96509
3955.62498	0.96541
3953.57118	0.96569
3951.51737	0.96589
3949.46357	0.96579
3947.40977	0.96583
3945.35596	0.96627
3943.30216	0.96654
3941.24836	0.96625
3939.19455	0.96571
3937.14075	0.96537
3935.08695	0.96555
3933.03315	0.96596
3930.97934	0.96599
3928.92554	0.96580
3926.87174	0.96596
3924.81793	0.96644
3922.76413	0.96658
3920.71033	0.96610
3918.65652	0.96533
3916.60272	0.96467
3914.54892	0.96451
3912.49511	0.96478
3910.44131	0.96500
3908.38751	0.96537
3906.33370	0.96556
3904.27990	0.96484
3902.22610	0.96431
3900.17229	0.96486
3898.11849	0.96579
3896.06469	0.96618
3894.01088	0.96607
3891.95708	0.96577
3889.90328	0.96536
3887.84947	0.96501
3885.79567	0.96473
3883.74187	0.96519
3881.68807	0.96635
3879.63426	0.96677
3877.58046	0.96620
3875.52666	0.96576
3873.47285	0.96574
3871.41905	0.96578
3869.36525	0.96546
3867.31144	0.96533
3865.25764	0.96573
3863.20384	0.96580
3861.15003	0.96568
3859.09623	0.96637
3857.04243	0.96751
3854.98862	0.96806
3852.93482	0.96768
3850.88102	0.96689
3848.82721	0.96651
3846.77341	0.96642
3844.71961	0.96605
3842.66580	0.96575
3840.61200	0.96594
3838.55820	0.96586
3836.50439	0.96505
3834.45059	0.96442
3832.39679	0.96479
3830.34298	0.96590
3828.28918	0.96683
3826.23538	0.96705
3824.18158	0.96683
3822.12777	0.96649
3820.07397	0.96603
3818.02017	0.96588
3815.96636	0.96603
3813.91256	0.96595
3811.85876	0.96567
3809.80495	0.96540
3807.75115	0.96530
3805.69735	0.96594
3803.64354	0.96706
3801.58974	0.96724
3799.53594	0.96644
3797.48213	0.96611
3795.42833	0.96597
3793.37453	0.96574
3791.32072	0.96576
3789.26692	0.96595
3787.21312	0.96632
3785.15931	0.96666
3783.10551	0.96635
3781.05171	0.96529
3778.99790	0.96438
3776.94410	0.96510
3774.89030	0.96660
3772.83650	0.96696
3770.78269	0.96623
3768.72889	0.96561
3766.67509	0.96567
3764.62128	0.96619
3762.56748	0.96659
3760.51368	0.96635
3758.45987	0.96558
3756.40607	0.96545
3754.35227	0.96605
3752.29846	0.96644
3750.24466	0.96628
3748.19086	0.96601
3746.13705	0.96581
3744.08325	0.96608
3742.02945	0.96677
3739.97564	0.96729
3737.92184	0.96735
3735.86804	0.96663
3733.81423	0.96606
3731.76043	0.96619
3729.70663	0.96656
3727.65282	0.96676
3725.59902	0.96621
3723.54522	0.96559
3721.49141	0.96545
3719.43761	0.96518
3717.38381	0.96500
3715.33001	0.96478
3713.27620	0.96388
3711.22240	0.96253
3709.16860	0.96162
3707.11479	0.96120
3705.06099	0.96065
3703.00719	0.95941
3700.95338	0.95799
3698.89958	0.95710
3696.84578	0.95624
3694.79197	0.95602
3692.73817	0.95695
3690.68437	0.95776
3688.63056	0.95754
3686.57676	0.95769
3684.52296	0.95822
3682.46915	0.95832
3680.41535	0.95831
3678.36155	0.95831
3676.30774	0.95803
3674.25394	0.95764
3672.20014	0.95743
3670.14633	0.95710
3668.09253	0.95664
3666.03873	0.95649
3663.98492	0.95631
3661.93112	0.95587
3659.87732	0.95558
3657.82352	0.95537
3655.76971	0.95445
3653.71591	0.95350
3651.66211	0.95335
3649.60830	0.95294
3647.55450	0.95164
3645.50070	0.95136
3643.44689	0.95172
3641.39309	0.95151
3639.33929	0.95094
3637.28548	0.95047
3635.23168	0.94961
3633.17788	0.94890
3631.12407	0.94936
3629.07027	0.94982
3627.01647	0.94886
3624.96266	0.94747
3622.90886	0.94655
3620.85506	0.94670
3618.80125	0.94718
3616.74745	0.94738
3614.69365	0.94794
3612.63984	0.94872
3610.58604	0.94924
3608.53224	0.94921
3606.47844	0.94863
3604.42463	0.94820
3602.37083	0.94823
3600.31703	0.94818
3598.26322	0.94779
3596.20942	0.94753
3594.15562	0.94788
3592.10181	0.94834
3590.04801	0.94797
3587.99421	0.94709
3585.94040	0.94686
3583.88660	0.94752
3581.83280	0.94860
3579.77899	0.94921
3577.72519	0.94873
3575.67139	0.94804
3573.61758	0.94796
3571.56378	0.94826
3569.50998	0.94847
3567.45617	0.94806
3565.40237	0.94708
3563.34857	0.94657
3561.29476	0.94656
3559.24096	0.94627
3557.18716	0.94569
3555.13335	0.94526
3553.07955	0.94551
3551.02575	0.94629
3548.97195	0.94621
3546.91814	0.94537
3544.86434	0.94530
3542.81054	0.94563
3540.75673	0.94543
3538.70293	0.94519
3536.64913	0.94516
3534.59532	0.94534
3532.54152	0.94555
3530.48772	0.94533
3528.43391	0.94468
3526.38011	0.94420
3524.32631	0.94425
3522.27250	0.94458
3520.21870	0.94490
3518.16490	0.94501
3516.11109	0.94485
3514.05729	0.94491
3512.00349	0.94537
3509.94968	0.94569
3507.89588	0.94542
3505.84208	0.94465
3503.78827	0.94409
3501.73447	0.94401
3499.68067	0.94399
3497.62687	0.94422
3495.57306	0.94478
3493.51926	0.94500
3491.46546	0.94457
3489.41165	0.94402
3487.35785	0.94392
3485.30405	0.94387
3483.25024	0.94352
3481.19644	0.94311
3479.14264	0.94303
3477.08883	0.94344
3475.03503	0.94370
3472.98123	0.94350
3470.92742	0.94317
3468.87362	0.94275
3466.81982	0.94234
3464.76601	0.94220
3462.71221	0.94231
3460.65841	0.94218
3458.60460	0.94189
3456.55080	0.94198
3454.49700	0.94186
3452.44319	0.94110
3450.38939	0.94049
3448.33559	0.94048
3446.28178	0.94082
3444.22798	0.94098
3442.17418	0.94078
3440.12038	0.94058
3438.06657	0.94059
3436.01277	0.94069
3433.95897	0.94065
3431.90516	0.94050
3429.85136	0.94043
3427.79756	0.94019
3425.74375	0.93988
3423.68995	0.93979
3421.63615	0.93971
3419.58234	0.93979
3417.52854	0.93964
3415.47474	0.93923
3413.42093	0.93960
3411.36713	0.94026
3409.31333	0.94013
3407.25952	0.93939
3405.20572	0.93880
3403.15192	0.93867
3401.09811	0.93869
3399.04431	0.93899
3396.99051	0.93944
3394.93670	0.93934
3392.88290	0.93881
3390.82910	0.93866
3388.77529	0.93897
3386.72149	0.93914
3384.66769	0.93924
3382.61389	0.93957
3380.56008	0.93949
3378.50628	0.93866
3376.45248	0.93825
3374.39867	0.93900
3372.34487	0.93978
3370.29107	0.93982
3368.23726	0.93949
3366.18346	0.93924
3364.12966	0.93929
3362.07585	0.93948
3360.02205	0.93967
3357.96825	0.93981
3355.91444	0.93995
3353.86064	0.94015
3351.80684	0.94027
3349.75303	0.94019
3347.69923	0.94019
3345.64543	0.94020
3343.59162	0.94000
3341.53782	0.94001
3339.48402	0.94035
3337.43021	0.94065
3335.37641	0.94080
3333.32261	0.94104
3331.26881	0.94114
3329.21500	0.94090
3327.16120	0.94083
3325.10740	0.94110
3323.05359	0.94148
3320.99979	0.94178
3318.94599	0.94189
3316.89218	0.94185
3314.83838	0.94172
3312.78458	0.94138
3310.73077	0.94140
3308.67697	0.94206
3306.62317	0.94247
3304.56936	0.94234
3302.51556	0.94223
3300.46176	0.94237
3298.40795	0.94246
3296.35415	0.94225
3294.30035	0.94191
3292.24654	0.94187
3290.19274	0.94206
3288.13894	0.94220
3286.08513	0.94251
3284.03133	0.94280
3281.97753	0.94293
3279.92372	0.94331
3277.86992	0.94388
3275.81612	0.94412
3273.76232	0.94404
3271.70851	0.94405
3269.65471	0.94395
3267.60091	0.94363
3265.54710	0.94397
3263.49330	0.94486
3261.43950	0.94514
3259.38569	0.94488
3257.33189	0.94483
3255.27809	0.94499
3253.22428	0.94504
3251.17048	0.94508
3249.11668	0.94548
3247.06287	0.94591
3245.00907	0.94586
3242.95527	0.94540
3240.90146	0.94492
3238.84766	0.94488
3236.79386	0.94520
3234.74005	0.94524
3232.68625	0.94508
3230.63245	0.94519
3228.57864	0.94555
3226.52484	0.94615
3224.47104	0.94688
3222.41724	0.94704
3220.36343	0.94665
3218.30963	0.94648
3216.25583	0.94640
3214.20202	0.94617
3212.14822	0.94646
3210.09442	0.94732
3208.04061	0.94818
3205.98681	0.94887
3203.93301	0.94928
3201.87920	0.94937
3199.82540	0.94919
3197.77160	0.94880
3195.71779	0.94860
3193.66399	0.94883
3191.61019	0.94939
3189.55638	0.95013
3187.50258	0.95071
3185.44878	0.95080
3183.39497	0.95039
3181.34117	0.94992
3179.28737	0.95000
3177.23356	0.95046
3175.17976	0.95050
3173.12596	0.95019
3171.07215	0.95049
3169.01835	0.95115
3166.96455	0.95120
3164.91075	0.95108
3162.85694	0.95137
3160.80314	0.95177
3158.74934	0.95180
3156.69553	0.95144
3154.64173	0.95154
3152.58793	0.95200
3150.53412	0.95190
3148.48032	0.95179
3146.42652	0.95195
3144.37271	0.95203
3142.31891	0.95236
3140.26511	0.95282
3138.21130	0.95301
3136.15750	0.95335
3134.10370	0.95413
3132.04989	0.95488
3129.99609	0.95514
3127.94229	0.95499
3125.88848	0.95503
3123.83468	0.95531
3121.78088	0.95525
3119.72707	0.95492
3117.67327	0.95466
3115.61947	0.95435
3113.56566	0.95405
3111.51186	0.95373
3109.45806	0.95325
3107.40426	0.95266
3105.35045	0.95229
3103.29665	0.95241
3101.24285	0.95278
3099.18904	0.95320
3097.13524	0.95349
3095.08144	0.95325
3093.02763	0.95266
3090.97383	0.95189
3088.92003	0.95040
3086.86622	0.94827
3084.81242	0.94650
3082.75862	0.94564
3080.70481	0.94561
3078.65101	0.94618
3076.59721	0.94708
3074.54340	0.94798
3072.48960	0.94871
3070.43580	0.94891
3068.38199	0.94791
3066.32819	0.94601
3064.27439	0.94416
3062.22058	0.94277
3060.16678	0.94225
3058.11298	0.94273
3056.05918	0.94378
3054.00537	0.94517
3051.95157	0.94685
3049.89777	0.94858
3047.84396	0.94981
3045.79016	0.95041
3043.73636	0.95080
3041.68255	0.95075
3039.62875	0.94988
3037.57495	0.94831
3035.52114	0.94623
3033.46734	0.94296
3031.41354	0.93772
3029.35973	0.93168
3027.30593	0.92705
3025.25213	0.92543
3023.19832	0.92718
3021.14452	0.93110
3019.09072	0.93582
3017.03691	0.94088
3014.98311	0.94534
3012.92931	0.94810
3010.87550	0.94942
3008.82170	0.95014
3006.76790	0.95068
3004.71409	0.95091
3002.66029	0.95081
3000.60649	0.95092
2998.55269	0.95163
2996.49888	0.95268
2994.44508	0.95383
2992.39128	0.95481
2990.33747	0.95548
2988.28367	0.95592
2986.22987	0.95610
2984.17606	0.95639
2982.12226	0.95686
2980.06846	0.95708
2978.01465	0.95744
2975.96085	0.95796
2973.90705	0.95782
2971.85324	0.95707
2969.79944	0.95619
2967.74564	0.95554
2965.69183	0.95531
2963.63803	0.95503
2961.58423	0.95447
2959.53042	0.95397
2957.47662	0.95354
2955.42282	0.95293
2953.36901	0.95193
2951.31521	0.95040
2949.26141	0.94875
2947.20761	0.94749
2945.15380	0.94627
2943.10000	0.94447
2941.04620	0.94215
2938.99239	0.93961
2936.93859	0.93671
2934.88479	0.93335
2932.83098	0.92980
2930.77718	0.92623
2928.72338	0.92279
2926.66957	0.91993
2924.61577	0.91789
2922.56197	0.91667
2920.50816	0.91615
2918.45436	0.91631
2916.40056	0.91722
2914.34675	0.91875
2912.29295	0.92074
2910.23915	0.92281
2908.18534	0.92477
2906.13154	0.92688
2904.07774	0.92922
2902.02393	0.93160
2899.97013	0.93394
2897.91633	0.93625
2895.86252	0.93850
2893.80872	0.94036
2891.75492	0.94150
2889.70112	0.94239
2887.64731	0.94332
2885.59351	0.94408
2883.53971	0.94491
2881.48590	0.94580
2879.43210	0.94638
2877.37830	0.94693
2875.32449	0.94783
2873.27069	0.94883
2871.21689	0.94957
2869.16308	0.94987
2867.10928	0.94972
2865.05548	0.94915
2863.00167	0.94840
2860.94787	0.94753
2858.89407	0.94640
2856.84026	0.94506
2854.78646	0.94348
2852.73266	0.94187
2850.67885	0.94079
2848.62505	0.94059
2846.57125	0.94121
2844.51744	0.94238
2842.46364	0.94399
2840.40984	0.94616
2838.35603	0.94861
2836.30223	0.95075
2834.24843	0.95255
2832.19463	0.95404
2830.14082	0.95506
2828.08702	0.95575
2826.03322	0.95627
2823.97941	0.95677
2821.92561	0.95738
2819.87181	0.95773
2817.81800	0.95777
2815.76420	0.95788
2813.71040	0.95822
2811.65659	0.95852
2809.60279	0.95843
2807.54899	0.95825
2805.49518	0.95840
2803.44138	0.95869
2801.38758	0.95879
2799.33377	0.95881
2797.27997	0.95904
2795.22617	0.95936
2793.17236	0.95953
2791.11856	0.95970
2789.06476	0.95988
2787.01095	0.95980
2784.95715	0.95967
2782.90335	0.95977
2780.84955	0.95996
2778.79574	0.96007
2776.74194	0.96003
2774.68814	0.96015
2772.63433	0.96075
2770.58053	0.96131
2768.52673	0.96126
2766.47292	0.96096
2764.41912	0.96092
2762.36532	0.96095
2760.31151	0.96103
2758.25771	0.96135
2756.20391	0.96154
2754.15010	0.96135
2752.09630	0.96124
2750.04250	0.96137
2747.98869	0.96152
2745.93489	0.96161
2743.88109	0.96169
2741.82728	0.96175
2739.77348	0.96172
2737.71968	0.96165
2735.66587	0.96163
2733.61207	0.96163
2731.55827	0.96163
2729.50446	0.96157
2727.45066	0.96155
2725.39686	0.96160
2723.34306	0.96160
2721.28925	0.96148
2719.23545	0.96132
2717.18165	0.96131
2715.12784	0.96142
2713.07404	0.96143
2711.02024	0.96144
2708.96643	0.96142
2706.91263	0.96115
2704.85883	0.96098
2702.80502	0.96117
2700.75122	0.96151
2698.69742	0.96189
2696.64361	0.96201
2694.58981	0.96189
2692.53601	0.96178
2690.48220	0.96173
2688.42840	0.96180
2686.37460	0.96197
2684.32079	0.96221
2682.26699	0.96249
2680.21319	0.96267
2678.15938	0.96267
2676.10558	0.96238
2674.05178	0.96215
2671.99797	0.96230
2669.94417	0.96244
2667.89037	0.96243
2665.83657	0.96255
2663.78276	0.96259
2661.72896	0.96241
2659.67516	0.96233
2657.62135	0.96227
2655.56755	0.96195
2653.51375	0.96163
2651.45994	0.96172
2649.40614	0.96215
2647.35234	0.96238
2645.29853	0.96225
2643.24473	0.96221
2641.19093	0.96247
2639.13712	0.96279
2637.08332	0.96293
2635.02952	0.96301
2632.97571	0.96319
2630.92191	0.96312
2628.86811	0.96281
2626.81430	0.96287
2624.76050	0.96313
2622.70670	0.96308
2620.65289	0.96285
2618.59909	0.96275
2616.54529	0.96295
2614.49149	0.96308
2612.43768	0.96282
2610.38388	0.96266
2608.33008	0.96296
2606.27627	0.96335
2604.22247	0.96361
2602.16867	0.96356
2600.11486	0.96303
2598.06106	0.96282
2596.00726	0.96333
2593.95345	0.96370
2591.89965	0.96369
2589.84585	0.96366
2587.79204	0.96374
2585.73824	0.96374
2583.68444	0.96354
2581.63063	0.96358
2579.57683	0.96386
2577.52303	0.96392
2575.46922	0.96386
2573.41542	0.96388
2571.36162	0.96395
2569.30781	0.96416
2567.25401	0.96431
2565.20021	0.96395
2563.14640	0.96341
2561.09260	0.96332
2559.03880	0.96358
2556.98500	0.96372
2554.93119	0.96379
2552.87739	0.96408
2550.82359	0.96421
2548.76978	0.96396
2546.71598	0.96353
2544.66218	0.96304
2542.60837	0.96330
2540.55457	0.96450
2538.50077	0.96507
2536.44696	0.96461
2534.39316	0.96455
2532.33936	0.96499
2530.28555	0.96534
2528.23175	0.96580
2526.17795	0.96584
2524.12414	0.96509
2522.07034	0.96457
2520.01654	0.96489
2517.96273	0.96511
2515.90893	0.96477
2513.85513	0.96447
2511.80132	0.96452
2509.74752	0.96441
2507.69372	0.96400
2505.63992	0.96420
2503.58611	0.96476
2501.53231	0.96492
2499.47851	0.96522
2497.42470	0.96569
2495.37090	0.96567
2493.31710	0.96523
2491.26329	0.96489
2489.20949	0.96493
2487.15569	0.96526
2485.10188	0.96566
2483.04808	0.96593
2480.99428	0.96604
2478.94047	0.96601
2476.88667	0.96573
2474.83287	0.96528
2472.77906	0.96505
2470.72526	0.96521
2468.67146	0.96532
2466.61765	0.96533
2464.56385	0.96549
2462.51005	0.96543
2460.45624	0.96490
2458.40244	0.96439
2456.34864	0.96450
2454.29483	0.96511
2452.24103	0.96553
2450.18723	0.96567
2448.13343	0.96594
2446.07962	0.96604
2444.02582	0.96571
2441.97202	0.96555
2439.91821	0.96548
2437.86441	0.96495
2435.81061	0.96445
2433.75680	0.96455
2431.70300	0.96519
2429.64920	0.96606
2427.59539	0.96632
2425.54159	0.96564
2423.48779	0.96509
2421.43398	0.96542
2419.38018	0.96599
2417.32638	0.96623
2415.27257	0.96623
2413.21877	0.96617
2411.16497	0.96653
2409.11116	0.96708
2407.05736	0.96716
2405.00356	0.96703
2402.94975	0.96706
2400.89595	0.96710
2398.84215	0.96705
2396.78834	0.96708
2394.73454	0.96709
2392.68074	0.96703
2390.62694	0.96696
2388.57313	0.96675
2386.51933	0.96662
2384.46553	0.96667
2382.41172	0.96668
2380.35792	0.96656
2378.30412	0.96634
2376.25031	0.96602
2374.19651	0.96580
2372.14271	0.96601
2370.08890	0.96643
2368.03510	0.96654
2365.98130	0.96620
2363.92749	0.96567
2361.87369	0.96504
2359.81989	0.96466
2357.76608	0.96475
2355.71228	0.96472
2353.65848	0.96482
2351.60467	0.96548
2349.55087	0.96594
2347.49707	0.96596
2345.44326	0.96566
2343.38946	0.96478
2341.33566	0.96392
2339.28186	0.96399
2337.22805	0.96469
2335.17425	0.96554
2333.12045	0.96597
2331.06664	0.96564
2329.01284	0.96522
2326.95904	0.96463
2324.90523	0.96357
2322.85143	0.96308
2320.79763	0.96383
2318.74382	0.96450
2316.69002	0.96428
2314.63622	0.96402
2312.58241	0.96419
2310.52861	0.96448
2308.47481	0.96437
2306.42100	0.96405
2304.36720	0.96423
2302.31340	0.96493
2300.25959	0.96582
2298.20579	0.96656
2296.15199	0.96667
2294.09818	0.96597
2292.04438	0.96502
2289.99058	0.96471
2287.93677	0.96507
2285.88297	0.96542
2283.82917	0.96556
2281.77537	0.96556
2279.72156	0.96558
2277.66776	0.96576
2275.61396	0.96561
2273.56015	0.96520
2271.50635	0.96551
2269.45255	0.96660
2267.39874	0.96718
2265.34494	0.96724
2263.29114	0.96773
2261.23733	0.96736
2259.18353	0.96610
2257.12973	0.96604
2255.07592	0.96623
2253.02212	0.96530
2250.96832	0.96501
2248.91451	0.96610
2246.86071	0.96686
2244.80691	0.96613
2242.75310	0.96475
2240.69930	0.96507
2238.64550	0.96693
2236.59169	0.96691
2234.53789	0.96550
2232.48409	0.96578
2230.43029	0.96650
2228.37648	0.96527
2226.32268	0.96388
2224.26888	0.96474
2222.21507	0.96640
2220.16127	0.96732
2218.10747	0.96829
2216.05366	0.96924
2213.99986	0.96942
2211.94606	0.96911
2209.89225	0.96834
2207.83845	0.96781
2205.78465	0.96843
2203.73084	0.96849
2201.67704	0.96757
2199.62324	0.96739
2197.56943	0.96724
2195.51563	0.96603
2193.46183	0.96444
2191.40802	0.96353
2189.35422	0.96413
2187.30042	0.96590
2185.24661	0.96675
2183.19281	0.96557
2181.13901	0.96440
2179.08520	0.96511
2177.03140	0.96685
2174.97760	0.96811
2172.92380	0.96884
2170.86999	0.96867
2168.81619	0.96737
2166.76239	0.96691
2164.70858	0.96779
2162.65478	0.96848
2160.60098	0.97002
2158.54717	0.97343
2156.49337	0.97516
2154.43957	0.97437
2152.38576	0.97372
2150.33196	0.97340
2148.27816	0.97251
2146.22435	0.97078
2144.17055	0.96919
2142.11675	0.96843
2140.06294	0.96821
2138.00914	0.96888
2135.95534	0.97047
2133.90153	0.97191
2131.84773	0.97200
2129.79393	0.97108
2127.74012	0.97016
2125.68632	0.96944
2123.63252	0.96902
2121.57871	0.96863
2119.52491	0.96818
2117.47111	0.96810
2115.41731	0.96797
2113.36350	0.96791
2111.30970	0.96845
2109.25590	0.96841
2107.20209	0.96748
2105.14829	0.96717
2103.09449	0.96811
2101.04068	0.96939
2098.98688	0.97004
2096.93308	0.97025
2094.87927	0.96983
2092.82547	0.96851
2090.77167	0.96743
2088.71786	0.96714
2086.66406	0.96718
2084.61026	0.96734
2082.55645	0.96766
2080.50265	0.96854
2078.44885	0.97009
2076.39504	0.97056
2074.34124	0.96967
2072.28744	0.96908
2070.23363	0.96857
2068.17983	0.96837
2066.12603	0.96885
2064.07223	0.96982
2062.01842	0.97168
2059.96462	0.97231
2057.91082	0.97005
2055.85701	0.96802
2053.80321	0.96787
2051.74941	0.96769
2049.69560	0.96831
2047.64180	0.96959
2045.58800	0.96886
2043.53419	0.96705
2041.48039	0.96567
2039.42659	0.96559
2037.37278	0.96693
2035.31898	0.96753
2033.26518	0.96761
2031.21137	0.96882
2029.15757	0.97007
2027.10377	0.97096
2025.04996	0.97146
2022.99616	0.97119
2020.94236	0.97153
2018.88855	0.97235
2016.83475	0.97153
2014.78095	0.97036
2012.72714	0.97062
2010.67334	0.97126
2008.61954	0.97136
2006.56574	0.97074
2004.51193	0.97080
2002.45813	0.97181
2000.40433	0.97193
1998.35052	0.97096
1996.29672	0.96990
1994.24292	0.96984
1992.18911	0.97121
1990.13531	0.97215
1988.08151	0.97100
1986.02770	0.96948
1983.97390	0.96917
1981.92010	0.96860
1979.86629	0.96656
1977.81249	0.96498
1975.75869	0.96594
1973.70488	0.96758
1971.65108	0.96766
1969.59728	0.96726
1967.54347	0.96749
1965.48967	0.96774
1963.43587	0.96865
1961.38206	0.97048
1959.32826	0.97041
1957.27446	0.96806
1955.22066	0.96754
1953.16685	0.96930
1951.11305	0.96976
1949.05925	0.96784
1947.00544	0.96595
1944.95164	0.96536
1942.89784	0.96446
1940.84403	0.96363
1938.79023	0.96440
1936.73643	0.96563
1934.68262	0.96640
1932.62882	0.96705
1930.57502	0.96777
1928.52121	0.96849
1926.46741	0.96944
1924.41361	0.97013
1922.35980	0.96959
1920.30600	0.96854
1918.25220	0.96821
1916.19839	0.96769
1914.14459	0.96709
1912.09079	0.96773
1910.03698	0.96873
1907.98318	0.96929
1905.92938	0.96979
1903.87557	0.96962
1901.82177	0.96842
1899.76797	0.96725
1897.71417	0.96701
1895.66036	0.96733
1893.60656	0.96724
1891.55276	0.96652
1889.49895	0.96579
1887.44515	0.96564
1885.39135	0.96570
1883.33754	0.96550
1881.28374	0.96519
1879.22994	0.96523
1877.17613	0.96557
1875.12233	0.96529
1873.06853	0.96469
1871.01472	0.96479
1868.96092	0.96521
1866.90712	0.96536
1864.85331	0.96579
1862.79951	0.96650
1860.74571	0.96673
1858.69190	0.96682
1856.63810	0.96723
1854.58430	0.96730
1852.53049	0.96673
1850.47669	0.96636
1848.42289	0.96690
1846.36908	0.96783
1844.31528	0.96803
1842.26148	0.96720
1840.20768	0.96659
1838.15387	0.96684
1836.10007	0.96754
1834.04627	0.96817
1831.99246	0.96857
1829.93866	0.96856
1827.88486	0.96831
1825.83105	0.96813
1823.77725	0.96763
1821.72345	0.96720
1819.66964	0.96700
1817.61584	0.96663
1815.56204	0.96650
1813.50823	0.96646
1811.45443	0.96548
1809.40063	0.96407
1807.34682	0.96350
1805.29302	0.96366
1803.23922	0.96400
1801.18541	0.96427
1799.13161	0.96429
1797.07781	0.96409
1795.02400	0.96417
1792.97020	0.96479
1790.91640	0.96559
1788.86260	0.96626
1786.80879	0.96680
1784.75499	0.96725
1782.70119	0.96717
1780.64738	0.96652
1778.59358	0.96617
1776.53978	0.96626
1774.48597	0.96625
1772.43217	0.96622
1770.37837	0.96633
1768.32456	0.96621
1766.27076	0.96597
1764.21696	0.96575
1762.16315	0.96555
1760.10935	0.96562
1758.05555	0.96582
1756.00174	0.96568
1753.94794	0.96539
1751.89414	0.96515
1749.84033	0.96485
1747.78653	0.96440
1745.73273	0.96377
1743.67892	0.96302
1741.62512	0.96234
1739.57132	0.96213
1737.51751	0.96259
1735.46371	0.96326
1733.40991	0.96337
1731.35611	0.96297
1729.30230	0.96279
1727.24850	0.96270
1725.19470	0.96251
1723.14089	0.96234
1721.08709	0.96247
1719.03329	0.96312
1716.97948	0.96379
1714.92568	0.96357
1712.87188	0.96321
1710.81807	0.96305
1708.76427	0.96306
1706.71047	0.96316
1704.65666	0.96310
1702.60286	0.96284
1700.54906	0.96231
1698.49525	0.96194
1696.44145	0.96189
1694.38765	0.96132
1692.33384	0.96053
1690.28004	0.95973
1688.22624	0.95882
1686.17243	0.95770
1684.11863	0.95628
1682.06483	0.95558
1680.01103	0.95531
1677.95722	0.95471
1675.90342	0.95352
1673.84962	0.95225
1671.79581	0.95163
1669.74201	0.95117
1667.68821	0.95070
1665.63440	0.95043
1663.58060	0.95002
1661.52680	0.94940
1659.47299	0.94889
1657.41919	0.94870
1655.36539	0.94880
1653.31158	0.94884
1651.25778	0.94864
1649.20398	0.94856
1647.15017	0.94853
1645.09637	0.94847
1643.04257	0.94847
1640.98876	0.94876
1638.93496	0.94902
1636.88116	0.94893
1634.82735	0.94904
1632.77355	0.94939
1630.71975	0.94951
1628.66594	0.94957
1626.61214	0.94967
1624.55834	0.94956
1622.50454	0.94945
1620.45073	0.94976
1618.39693	0.95009
1616.34313	0.95019
1614.28932	0.95019
1612.23552	0.94962
1610.18172	0.94792
1608.12791	0.94440
1606.07411	0.93874
1604.02031	0.93217
1601.96650	0.92746
1599.91270	0.92714
1597.85890	0.93095
1595.80509	0.93656
1593.75129	0.94150
1591.69749	0.94477
1589.64368	0.94670
1587.58988	0.94703
1585.53608	0.94565
1583.48227	0.94430
1581.42847	0.94509
1579.37467	0.94759
1577.32086	0.95003
1575.26706	0.95165
1573.21326	0.95274
1571.15945	0.95369
1569.10565	0.95460
1567.05185	0.95532
1564.99805	0.95600
1562.94424	0.95665
1560.89044	0.95709
1558.83664	0.95693
1556.78283	0.95607
1554.72903	0.95566
1552.67523	0.95570
1550.62142	0.95572
1548.56762	0.95532
1546.51382	0.95473
1544.46001	0.95416
1542.40621	0.95386
1540.35241	0.95415
1538.29860	0.95423
1536.24480	0.95404
1534.19100	0.95435
1532.13719	0.95514
1530.08339	0.95559
1528.02959	0.95568
1525.97578	0.95576
1523.92198	0.95601
1521.86818	0.95600
1519.81437	0.95584
1517.76057	0.95580
1515.70677	0.95569
1513.65297	0.95577
1511.59916	0.95591
1509.54536	0.95610
1507.49156	0.95591
1505.43775	0.95427
1503.38395	0.95266
1501.33015	0.95040
1499.27634	0.94413
1497.22254	0.92710
1495.16874	0.90184
1493.11493	0.88609
1491.06113	0.88823
1489.00733	0.90596
1486.95352	0.92288
1484.89972	0.93209
1482.84592	0.93722
1480.79211	0.94034
1478.73831	0.94228
1476.68451	0.94364
1474.63070	0.94447
1472.57690	0.94457
1470.52310	0.94464
1468.46929	0.94516
1466.41549	0.94565
1464.36169	0.94554
1462.30788	0.94484
1460.25408	0.94288
1458.20028	0.93394
1456.14648	0.91061
1454.09267	0.88942
1452.03887	0.88017
1449.98507	0.88226
1447.93126	0.89152
1445.87746	0.90110
1443.82366	0.90881
1441.76985	0.91553
1439.71605	0.92124
1437.66225	0.92645
1435.60844	0.93136
1433.55464	0.93479
1431.50084	0.93746
1429.44703	0.93995
1427.39323	0.94187
1425.33943	0.94318
1423.28562	0.94410
1421.23182	0.94487
1419.17802	0.94587
1417.12421	0.94722
1415.07041	0.94836
1413.01661	0.94906
1410.96280	0.94956
1408.90900	0.95015
1406.85520	0.95078
1404.80139	0.95137
1402.74759	0.95199
1400.69379	0.95258
1398.63999	0.95304
1396.58618	0.95353
1394.53238	0.95378
1392.47858	0.95340
1390.42477	0.95276
1388.37097	0.95207
1386.31717	0.95120
1384.26336	0.95036
1382.20956	0.94960
1380.15576	0.94880
1378.10195	0.94808
1376.04815	0.94738
1373.99435	0.94652
1371.94054	0.94597
1369.88674	0.94600
1367.83294	0.94639
1365.77913	0.94704
1363.72533	0.94782
1361.67153	0.94849
1359.61772	0.94897
1357.56392	0.94929
1355.51012	0.94948
1353.45631	0.94962
1351.40251	0.94986
1349.34871	0.95025
1347.29491	0.95068
1345.24110	0.95106
1343.18730	0.95164
1341.13350	0.95242
1339.07969	0.95275
1337.02589	0.95239
1334.97209	0.95205
1332.91828	0.95166
1330.86448	0.95097
1328.81068	0.95053
1326.75687	0.95071
1324.70307	0.95132
1322.64927	0.95162
1320.59546	0.95141
1318.54166	0.95121
1316.48786	0.95115
1314.43405	0.95118
1312.38025	0.95137
1310.32645	0.95147
1308.27264	0.95144
1306.21884	0.95176
1304.16504	0.95249
1302.11123	0.95311
1300.05743	0.95342
1298.00363	0.95352
1295.94982	0.95357
1293.89602	0.95373
1291.84222	0.95388
1289.78842	0.95391
1287.73461	0.95379
1285.68081	0.95365
1283.62701	0.95356
1281.57320	0.95331
1279.51940	0.95318
1277.46560	0.95334
1275.41179	0.95336
1273.35799	0.95320
1271.30419	0.95314
1269.25038	0.95309
1267.19658	0.95292
1265.14278	0.95280
1263.08897	0.95290
1261.03517	0.95319
1258.98137	0.95364
1256.92756	0.95396
1254.87376	0.95362
1252.81996	0.95279
1250.76615	0.95230
1248.71235	0.95231
1246.65855	0.95232
1244.60474	0.95202
1242.55094	0.95168
1240.49714	0.95184
1238.44334	0.95221
1236.38953	0.95207
1234.33573	0.95159
1232.28193	0.95119
1230.22812	0.95063
1228.17432	0.94978
1226.12052	0.94891
1224.06671	0.94822
1222.01291	0.94775
1219.95911	0.94730
1217.90530	0.94662
1215.85150	0.94568
1213.79770	0.94451
1211.74389	0.94302
1209.69009	0.94139
1207.63629	0.93977
1205.58248	0.93798
1203.52868	0.93595
1201.47488	0.93405
1199.42107	0.93245
1197.36727	0.93079
1195.31347	0.92898
1193.25966	0.92706
1191.20586	0.92465
1189.15206	0.92188
1187.09825	0.91913
1185.04445	0.91622
1182.99065	0.91311
1180.93685	0.91044
1178.88304	0.90871
1176.82924	0.90759
1174.77544	0.90652
1172.72163	0.90538
1170.66783	0.90410
1168.61403	0.90255
1166.56022	0.90079
1164.50642	0.89884
1162.45262	0.89684
1160.39881	0.89502
1158.34501	0.89319
1156.29121	0.89122
1154.23740	0.88952
1152.18360	0.88856
1150.12980	0.88837
1148.07599	0.88822
1146.02219	0.88772
1143.96839	0.88719
1141.91458	0.88654
1139.86078	0.88535
1137.80698	0.88367
1135.75317	0.88201
1133.69937	0.88094
1131.64557	0.87972
1129.59176	0.87750
1127.53796	0.87495
1125.48416	0.87263
1123.43036	0.87003
1121.37655	0.86660
1119.32275	0.86242
1117.26895	0.85806
1115.21514	0.85379
1113.16134	0.84942
1111.10754	0.84532
1109.05373	0.84194
1106.99993	0.83922
1104.94613	0.83714
1102.89232	0.83496
1100.83852	0.83226
1098.78472	0.82984
1096.73091	0.82817
1094.67711	0.82675
1092.62331	0.82501
1090.56950	0.82331
1088.51570	0.82214
1086.46190	0.82087
1084.40809	0.81910
1082.35429	0.81730
1080.30049	0.81559
1078.24668	0.81361
1076.19288	0.81128
1074.13908	0.80863
1072.08528	0.80567
1070.03147	0.80287
1067.97767	0.80011
1065.92387	0.79710
1063.87006	0.79460
1061.81626	0.79303
1059.76246	0.79127
1057.70865	0.78818
1055.65485	0.78445
1053.60105	0.78094
1051.54724	0.77730
1049.49344	0.77322
1047.43964	0.76839
1045.38583	0.76267
1043.33203	0.75663
1041.27823	0.75072
1039.22442	0.74477
1037.17062	0.73860
1035.11682	0.73191
1033.06301	0.72425
1031.00921	0.71624
1028.95541	0.70955
1026.90160	0.70544
1024.84780	0.70389
1022.79400	0.70363
1020.74019	0.70339
1018.68639	0.70268
1016.63259	0.70169
1014.57879	0.70075
1012.52498	0.69978
1010.47118	0.69873
1008.41738	0.69765
1006.36357	0.69648
1004.30977	0.69565
1002.25597	0.69632
1000.20216	0.69880
998.14836	0.70176
996.09456	0.70450
994.04075	0.70764
991.98695	0.71119
989.93315	0.71483
987.87934	0.71856
985.82554	0.72246
983.77174	0.72683
981.71793	0.73189
979.66413	0.73807
977.61033	0.74543
975.55652	0.75316
973.50272	0.76084
971.44892	0.76868
969.39511	0.77628
967.34131	0.78277
965.28751	0.78843
963.23371	0.79434
961.17990	0.80051
959.12610	0.80655
957.07230	0.81223
955.01849	0.81702
952.96469	0.82098
950.91089	0.82438
948.85708	0.82734
946.80328	0.82998
944.74948	0.83219
942.69567	0.83436
940.64187	0.83684
938.58807	0.83943
936.53426	0.84200
934.48046	0.84464
932.42666	0.84728
930.37285	0.84988
928.31905	0.85234
926.26525	0.85403
924.21144	0.85480
922.15764	0.85505
920.10384	0.85465
918.05003	0.85345
915.99623	0.85172
913.94243	0.84966
911.88862	0.84768
909.83482	0.84644
907.78102	0.84689
905.72722	0.84974
903.67341	0.85445
901.61961	0.86056
899.56581	0.86776
897.51200	0.87467
895.45820	0.88019
893.40440	0.88478
891.35059	0.88913
889.29679	0.89289
887.24299	0.89546
885.18918	0.89708
883.13538	0.89822
881.08158	0.89915
879.02777	0.89998
876.97397	0.90107
874.92017	0.90294
872.86636	0.90567
870.81256	0.90868
868.75876	0.91085
866.70495	0.91207
864.65115	0.91317
862.59735	0.91452
860.54354	0.91639
858.48974	0.91835
856.43594	0.91972
854.38213	0.92056
852.32833	0.92073
850.27453	0.92037
848.22073	0.91961
846.16692	0.91810
844.11312	0.91654
842.05932	0.91560
840.00551	0.91513
837.95171	0.91543
835.89791	0.91627
833.84410	0.91654
831.79030	0.91644
829.73650	0.91663
827.68269	0.91677
825.62889	0.91713
823.57509	0.91828
821.52128	0.91995
819.46748	0.92156
817.41368	0.92242
815.35987	0.92263
813.30607	0.92242
811.25227	0.92116
809.19846	0.91871
807.14466	0.91523
805.09086	0.91068
803.03705	0.90600
800.98325	0.90284
798.92945	0.90204
796.87565	0.90269
794.82184	0.90364
792.76804	0.90436
790.71424	0.90416
788.66043	0.90347
786.60663	0.90311
784.55283	0.90175
782.49902	0.89841
780.44522	0.89434
778.39142	0.89065
776.33761	0.88716
774.28381	0.88301
772.23001	0.87731
770.17620	0.86938
768.12240	0.85962
766.06860	0.84962
764.01479	0.83983
761.96099	0.82962
759.90719	0.81949
757.85338	0.81107
755.79958	0.80591
753.74578	0.80355
751.69197	0.80243
749.63817	0.80273
747.58437	0.80566
745.53056	0.81175
743.47676	0.82114
741.42296	0.83337
739.36916	0.84640
737.31535	0.85854
735.26155	0.86992
733.20775	0.88003
731.15394	0.88779
729.10014	0.89373
727.04634	0.89832
724.99253	0.90140
722.93873	0.90425
720.88493	0.90737
718.83112	0.90963
716.77732	0.91087
714.72352	0.91058
712.66971	0.90712
710.61591	0.89828
708.56211	0.88045
706.50830	0.85084
704.45450	0.81041
702.40070	0.76206
700.34689	0.70824
698.29309	0.65595
696.23929	0.62253
694.18548	0.62634
692.13168	0.66523
690.07788	0.71547
688.02408	0.75651
685.97027	0.78417
683.91647	0.80292
681.86267	0.81652
679.80886	0.82594
677.75506	0.83291
675.70126	0.83874
673.64745	0.84237
671.59365	0.84412
669.53985	0.84630
667.48604	0.85018
665.43224	0.85290
663.37844	0.85418
661.32463	0.85548
659.27083	0.85671
657.21703	0.85712
655.16322	0.85671
653.10942	0.85588
651.05562	0.85537
649.00181	0.85645
646.94801	0.85880
644.89421	0.86082
642.84040	0.86274
640.78660	0.86494
638.73280	0.86608
636.67899	0.86558
634.62519	0.86500
632.57139	0.86580
630.51759	0.86665
628.46378	0.86671
626.40998	0.86707
624.35618	0.86731
622.30237	0.86625
620.24857	0.86404
618.19477	0.86236
616.14096	0.86249
614.08716	0.86300
612.03336	0.86181
609.97955	0.85908
607.92575	0.85616
605.87195	0.85359
603.81814	0.85193
601.76434	0.85116
599.71054	0.84930
597.65673	0.84573
595.60293	0.84296
593.54913	0.84235
591.49532	0.84295
589.44152	0.84273
587.38772	0.84075
585.33391	0.83913
583.28011	0.83851
581.22631	0.83669
579.17250	0.83426
577.11870	0.83319
575.06490	0.83145
573.01110	0.82724
570.95729	0.82164
568.90349	0.81650
566.84969	0.81287
564.79588	0.80858
562.74208	0.80259
560.68828	0.79655
558.63447	0.79128
556.58067	0.78662
554.52687	0.78125
552.47306	0.77426
550.41926	0.76648
548.36546	0.75877
546.31165	0.75104
544.25785	0.74234
542.20405	0.73255
540.15024	0.72225
538.09644	0.71386
536.04264	0.71079
533.98883	0.71157
531.93503	0.71233
529.88123	0.71354
527.82742	0.71773
525.77362	0.72411
523.71982	0.73035
521.66602	0.73586
519.61221	0.74032
517.55841	0.74397
515.50461	0.74815
513.45080	0.75354
511.39700	0.75905
509.34320	0.76339
507.28939	0.76753
505.23559	0.77191
503.18179	0.77499
501.12798	0.77658
499.07418	0.77748
497.02038	0.77755
494.96657	0.77686
492.91277	0.77464
490.85897	0.76894
488.80516	0.76168
486.75136	0.75600
484.69756	0.75009
482.64375	0.74001
480.58995	0.72694
478.53615	0.71510
476.48234	0.70488
474.42854	0.69522
472.37474	0.68764
470.32093	0.68351
468.26713	0.68086
466.21333	0.67780
464.15953	0.67732
462.10572	0.68283
460.05192	0.69116
457.99812	0.69752
455.94431	0.70229
453.89051	0.70773
451.83671	0.71281
449.78290	0.71656
447.72910	0.72087
445.67530	0.72564
443.62149	0.72710
441.56769	0.72654
439.51389	0.72790
437.46008	0.72662
435.40628	0.72032
433.35248	0.71553
431.29867	0.71516
429.24487	0.71936
427.19107	0.72514
425.13726	0.72670
423.08346	0.72384
421.02966	0.71946
418.97585	0.72016
416.92205	0.72856
414.86825	0.73579
412.81445	0.74295
410.76064	0.74864
408.70684	0.74931
406.65304	0.75076
404.59923	0.75669
402.54543	0.76193
400.49163	0.76208
398.43782	0.75817
