3996.71440	0.97918
3994.66059	0.97931
3992.60678	0.97947
3990.55297	0.97950
3988.49916	0.97932
3986.44535	0.97914
3984.39154	0.97925
3982.33773	0.97949
3980.28391	0.97957
3978.23010	0.97961
3976.17629	0.97969
3974.12248	0.97964
3972.06867	0.97939
3970.01486	0.97920
3967.96105	0.97937
3965.90724	0.97966
3963.85343	0.97964
3961.79962	0.97965
3959.74581	0.97992
3957.69200	0.97994
3955.63819	0.97976
3953.58438	0.97979
3951.53057	0.97991
3949.47676	0.97992
3947.42295	0.97977
3945.36914	0.97958
3943.31533	0.97945
3941.26152	0.97933
3939.20771	0.97912
3937.15390	0.97910
3935.10009	0.97940
3933.04628	0.97943
3930.99247	0.97916
3928.93866	0.97928
3926.88485	0.97965
3924.83104	0.97978
3922.77723	0.97962
3920.72342	0.97939
3918.66961	0.97929
3916.61580	0.97937
3914.56199	0.97952
3912.50818	0.97964
3910.45437	0.97969
3908.40056	0.97978
3906.34675	0.97993
3904.29294	0.97999
3902.23913	0.97982
3900.18532	0.97954
3898.13151	0.97922
3896.07770	0.97903
3894.02389	0.97910
3891.97008	0.97910
3889.91627	0.97895
3887.86246	0.97908
3885.80865	0.97933
3883.75484	0.97932
3881.70103	0.97936
3879.64722	0.97962
3877.59341	0.97972
3875.53960	0.97955
3873.48579	0.97952
3871.43198	0.97986
3869.37817	0.98005
3867.32436	0.97985
3865.27055	0.97943
3863.21674	0.97894
3861.16293	0.97895
3859.10912	0.97933
3857.05531	0.97971
3855.00150	0.97980
3852.94769	0.97936
3850.89388	0.97924
3848.84007	0.97944
3846.78626	0.97954
3844.73245	0.97938
3842.67864	0.97924
3840.62483	0.97948
3838.57102	0.97946
3836.51721	0.97897
3834.46340	0.97885
3832.40959	0.97918
3830.35578	0.97955
3828.30197	0.97978
3826.24816	0.97980
3824.19435	0.97979
3822.14054	0.97990
3820.08673	0.97997
3818.03292	0.98010
3815.97911	0.98033
3813.92530	0.98054
3811.87149	0.98073
3809.81768	0.98064
3807.76387	0.97991
3805.71006	0.97927
3803.65625	0.97940
3801.60244	0.97926
3799.54863	0.97891
3797.49482	0.97925
3795.44101	0.97978
3793.38720	0.98007
3791.33339	0.98005
3789.27958	0.97977
3787.22577	0.97969
3785.17196	0.98000
3783.11815	0.98035
3781.06434	0.98045
3779.01053	0.98009
3776.95672	0.97976
3774.90291	0.97999
3772.84910	0.98044
3770.79529	0.98057
3768.74148	0.98028
3766.68767	0.97997
3764.63386	0.97987
3762.58005	0.98016
3760.52624	0.98046
3758.47243	0.98011
3756.41862	0.97984
3754.36481	0.97999
3752.31100	0.97989
3750.25719	0.97976
3748.20338	0.98001
3746.14957	0.98010
3744.09576	0.97986
3742.04195	0.97970
3739.98814	0.97986
3737.93433	0.97995
3735.88052	0.97994
3733.82671	0.98046
3731.77290	0.98096
3729.71909	0.98097
3727.66528	0.98076
3725.61147	0.98035
3723.55766	0.97990
3721.50385	0.97977
3719.45004	0.97980
3717.39623	0.97982
3715.34242	0.98011
3713.28861	0.98037
3711.23480	0.97985
3709.18099	0.97925
3707.12718	0.97945
3705.07337	0.97975
3703.01956	0.97948
3700.96575	0.97901
3698.91194	0.97903
3696.85813	0.97953
3694.80432	0.97990
3692.75051	0.97954
3690.69670	0.97871
3688.64289	0.97817
3686.58907	0.97841
3684.53526	0.97914
3682.48145	0.97961
3680.42764	0.97934
3678.37383	0.97878
3676.32002	0.97866
3674.26621	0.97921
3672.21240	0.97984
3670.15859	0.97969
3668.10478	0.97892
3666.05097	0.97864
3663.99716	0.97883
3661.94335	0.97898
3659.88954	0.97899
3657.83573	0.97910
3655.78192	0.97931
3653.72811	0.97952
3651.67430	0.97954
3649.62049	0.97917
3647.56668	0.97860
3645.51287	0.97837
3643.45906	0.97857
3641.40525	0.97896
3639.35144	0.97903
3637.29763	0.97855
3635.24382	0.97806
3633.19001	0.97808
3631.13620	0.97857
3629.08239	0.97870
3627.02858	0.97827
3624.97477	0.97821
3622.92096	0.97820
3620.86715	0.97795
3618.81334	0.97770
3616.75953	0.97783
3614.70572	0.97827
3612.65191	0.97844
3610.59810	0.97828
3608.54429	0.97820
3606.49048	0.97825
3604.43667	0.97808
3602.38286	0.97747
3600.32905	0.97708
3598.27524	0.97754
3596.22143	0.97825
3594.16762	0.97862
3592.11381	0.97849
3590.06000	0.97784
3588.00619	0.97713
3585.95238	0.97709
3583.89857	0.97732
3581.84476	0.97731
3579.79095	0.97704
3577.73714	0.97678
3575.68333	0.97700
3573.62952	0.97734
3571.57571	0.97724
3569.52190	0.97676
3567.46809	0.97616
3565.41428	0.97604
3563.36047	0.97640
3561.30666	0.97649
3559.25285	0.97624
3557.19904	0.97623
3555.14523	0.97644
3553.09142	0.97649
3551.03761	0.97612
3548.98380	0.97551
3546.92999	0.97515
3544.87618	0.97526
3542.82237	0.97545
3540.76856	0.97560
3538.71475	0.97592
3536.66094	0.97623
3534.60713	0.97617
3532.55332	0.97572
3530.49951	0.97513
3528.44570	0.97471
3526.39189	0.97468
3524.33808	0.97492
3522.28427	0.97525
3520.23046	0.97550
3518.17665	0.97547
3516.12284	0.97529
3514.06903	0.97502
3512.01522	0.97448
3509.96141	0.97412
3507.90760	0.97439
3505.85379	0.97497
3503.79998	0.97507
3501.74617	0.97451
3499.69236	0.97378
3497.63855	0.97355
3495.58474	0.97402
3493.53093	0.97443
3491.47712	0.97436
3489.42331	0.97406
3487.36950	0.97352
3485.31569	0.97292
3483.26188	0.97264
3481.20807	0.97253
3479.15426	0.97237
3477.10045	0.97244
3475.04664	0.97269
3472.99283	0.97286
3470.93902	0.97294
3468.88521	0.97290
3466.83140	0.97284
3464.77759	0.97274
3462.72378	0.97250
3460.66997	0.97245
3458.61616	0.97270
3456.56235	0.97275
3454.50854	0.97251
3452.45473	0.97226
3450.40092	0.97208
3448.34711	0.97210
3446.29330	0.97226
3444.23949	0.97240
3442.18568	0.97249
3440.13187	0.97237
3438.07806	0.97211
3436.02425	0.97204
3433.97044	0.97203
3431.91663	0.97178
3429.86282	0.97151
3427.80901	0.97151
3425.75520	0.97150
3423.70139	0.97117
3421.64758	0.97103
3419.59377	0.97127
3417.53996	0.97139
3415.48615	0.97139
3413.43234	0.97144
3411.37853	0.97129
3409.32472	0.97107
3407.27091	0.97103
3405.21710	0.97103
3403.16329	0.97099
3401.10948	0.97077
3399.05567	0.97038
3397.00186	0.97020
3394.94805	0.97039
3392.89424	0.97048
3390.84042	0.97036
3388.78661	0.97043
3386.73280	0.97073
3384.67899	0.97086
3382.62518	0.97073
3380.57137	0.97060
3378.51756	0.97063
3376.46375	0.97058
3374.40994	0.97034
3372.35613	0.97011
3370.30232	0.97008
3368.24851	0.97016
3366.19470	0.97022
3364.14089	0.97034
3362.08708	0.97045
3360.03327	0.97033
3357.97946	0.97014
3355.92565	0.97010
3353.87184	0.97002
3351.81803	0.96994
3349.76422	0.97020
3347.71041	0.97071
3345.65660	0.97095
3343.60279	0.97072
3341.54898	0.97032
3339.49517	0.97002
3337.44136	0.96985
3335.38755	0.96991
3333.33374	0.97024
3331.27993	0.97048
3329.22612	0.97039
3327.17231	0.97020
3325.11850	0.97015
3323.06469	0.97028
3321.01088	0.97054
3318.95707	0.97087
3316.90326	0.97098
3314.84945	0.97055
3312.79564	0.97000
3310.74183	0.97000
3308.68802	0.97048
3306.63421	0.97072
3304.58040	0.97052
3302.52659	0.97043
3300.47278	0.97054
3298.41897	0.97053
3296.36516	0.97053
3294.31135	0.97072
3292.25754	0.97090
3290.20373	0.97087
3288.14992	0.97077
3286.09611	0.97093
3284.04230	0.97127
3281.98849	0.97117
3279.93468	0.97073
3277.88087	0.97060
3275.82706	0.97057
3273.77325	0.97050
3271.71944	0.97072
3269.66563	0.97104
3267.61182	0.97110
3265.55801	0.97109
3263.50420	0.97105
3261.45039	0.97096
3259.39658	0.97112
3257.34277	0.97142
3255.28896	0.97149
3253.23515	0.97155
3251.18134	0.97181
3249.12753	0.97188
3247.07372	0.97165
3245.01991	0.97149
3242.96610	0.97150
3240.91229	0.97154
3238.85848	0.97161
3236.80467	0.97162
3234.75086	0.97153
3232.69705	0.97172
3230.64324	0.97216
3228.58943	0.97229
3226.53562	0.97211
3224.48181	0.97193
3222.42800	0.97168
3220.37419	0.97139
3218.32038	0.97139
3216.26657	0.97180
3214.21276	0.97213
3212.15895	0.97210
3210.10514	0.97209
3208.05133	0.97223
3205.99752	0.97221
3203.94371	0.97194
3201.88990	0.97187
3199.83609	0.97213
3197.78228	0.97240
3195.72847	0.97253
3193.67466	0.97247
3191.62085	0.97226
3189.56704	0.97227
3187.51323	0.97247
3185.45942	0.97261
3183.40561	0.97263
3181.35180	0.97272
3179.29799	0.97282
3177.24418	0.97257
3175.19037	0.97238
3173.13656	0.97267
3171.08275	0.97297
3169.02894	0.97296
3166.97513	0.97298
3164.92132	0.97315
3162.86751	0.97321
3160.81370	0.97333
3158.75989	0.97376
3156.70608	0.97410
3154.65227	0.97400
3152.59846	0.97387
3150.54465	0.97400
3148.49084	0.97396
3146.43703	0.97365
3144.38322	0.97340
3142.32941	0.97342
3140.27560	0.97376
3138.22179	0.97401
3136.16798	0.97394
3134.11417	0.97379
3132.06036	0.97371
3130.00655	0.97367
3127.95274	0.97367
3125.89893	0.97381
3123.84512	0.97424
3121.79131	0.97461
3119.73750	0.97463
3117.68369	0.97460
3115.62988	0.97470
3113.57607	0.97484
3111.52226	0.97495
3109.46845	0.97502
3107.41464	0.97510
3105.36083	0.97511
3103.30702	0.97515
3101.25321	0.97549
3099.19940	0.97585
3097.14559	0.97575
3095.09177	0.97542
3093.03796	0.97527
3090.98415	0.97516
3088.93034	0.97500
3086.87653	0.97496
3084.82272	0.97518
3082.76891	0.97542
3080.71510	0.97555
3078.66129	0.97583
3076.60748	0.97603
3074.55367	0.97585
3072.49986	0.97566
3070.44605	0.97566
3068.39224	0.97579
3066.33843	0.97596
3064.28462	0.97605
3062.23081	0.97608
3060.17700	0.97604
3058.12319	0.97594
3056.06938	0.97590
3054.01557	0.97585
3051.96176	0.97582
3049.90795	0.97597
3047.85414	0.97611
3045.80033	0.97604
3043.74652	0.97600
3041.69271	0.97626
3039.63890	0.97646
3037.58509	0.97647
3035.53128	0.97667
3033.47747	0.97687
3031.42366	0.97682
3029.36985	0.97676
3027.31604	0.97688
3025.26223	0.97701
3023.20842	0.97693
3021.15461	0.97679
3019.10080	0.97684
3017.04699	0.97687
3014.99318	0.97673
3012.93937	0.97660
3010.88556	0.97652
3008.83175	0.97629
3006.77794	0.97586
3004.72413	0.97551
3002.67032	0.97562
3000.61651	0.97597
2998.56270	0.97596
2996.50889	0.97557
2994.45508	0.97501
2992.40127	0.97436
2990.34746	0.97382
2988.29365	0.97340
2986.23984	0.97263
2984.18603	0.97121
2982.13222	0.96945
2980.07841	0.96744
2978.02460	0.96518
2975.97079	0.96240
2973.91698	0.95825
2971.86317	0.95244
2969.80936	0.94544
2967.75555	0.93737
2965.70174	0.92798
2963.64793	0.91776
2961.59412	0.90851
2959.54031	0.90172
2957.48650	0.89698
2955.43269	0.89298
2953.37888	0.88912
2951.32507	0.88591
2949.27126	0.88507
2947.21745	0.88859
2945.16364	0.89658
2943.10983	0.90637
2941.05602	0.91425
2939.00221	0.91801
2936.94840	0.91745
2934.89459	0.91315
2932.84078	0.90615
2930.78697	0.89746
2928.73316	0.88795
2926.67935	0.87888
2924.62554	0.87104
2922.57173	0.86430
2920.51792	0.85861
2918.46411	0.85484
2916.41030	0.85424
2914.35649	0.85737
2912.30268	0.86324
2910.24887	0.86976
2908.19506	0.87567
2906.14125	0.88103
2904.08744	0.88637
2902.03363	0.89214
2899.97982	0.89809
2897.92601	0.90364
2895.87220	0.90867
2893.81839	0.91301
2891.76458	0.91617
2889.71077	0.91795
2887.65696	0.91866
2885.60315	0.91850
2883.54934	0.91738
2881.49553	0.91519
2879.44172	0.91245
2877.38791	0.91030
2875.33410	0.90942
2873.28029	0.90937
2871.22648	0.90899
2869.17267	0.90782
2867.11886	0.90715
2865.06505	0.90920
2863.01124	0.91463
2860.95743	0.92146
2858.90362	0.92689
2856.84981	0.92983
2854.79600	0.93112
2852.74219	0.93177
2850.68838	0.93200
2848.63457	0.93164
2846.58076	0.93026
2844.52695	0.92705
2842.47314	0.92194
2840.41933	0.91602
2838.36552	0.91122
2836.31171	0.91025
2834.25790	0.91500
2832.20409	0.92396
2830.15028	0.93349
2828.09647	0.94112
2826.04266	0.94644
2823.98885	0.95014
2821.93504	0.95286
2819.88123	0.95491
2817.82742	0.95639
2815.77361	0.95741
2813.71980	0.95832
2811.66599	0.95942
2809.61218	0.96044
2807.55837	0.96111
2805.50456	0.96163
2803.45075	0.96232
2801.39693	0.96318
2799.34312	0.96389
2797.28931	0.96432
2795.23550	0.96469
2793.18169	0.96515
2791.12788	0.96579
2789.07407	0.96642
2787.02026	0.96679
2784.96645	0.96721
2782.91264	0.96773
2780.85883	0.96802
2778.80502	0.96828
2776.75121	0.96879
2774.69740	0.96923
2772.64359	0.96923
2770.58978	0.96914
2768.53597	0.96927
2766.48216	0.96946
2764.42835	0.96953
2762.37454	0.96954
2760.32073	0.96970
2758.26692	0.97003
2756.21311	0.97026
2754.15930	0.97022
2752.10549	0.97026
2750.05168	0.97045
2747.99787	0.97045
2745.94406	0.97032
2743.89025	0.97030
2741.83644	0.97028
2739.78263	0.97017
2737.72882	0.97008
2735.67501	0.97000
2733.62120	0.96981
2731.56739	0.96953
2729.51358	0.96931
2727.45977	0.96928
2725.40596	0.96932
2723.35215	0.96920
2721.29834	0.96900
2719.24453	0.96908
2717.19072	0.96941
2715.13691	0.96973
2713.08310	0.97003
2711.02929	0.97044
2708.97548	0.97084
2706.92167	0.97108
2704.86786	0.97120
2702.81405	0.97128
2700.76024	0.97138
2698.70643	0.97150
2696.65262	0.97157
2694.59881	0.97174
2692.54500	0.97201
2690.49119	0.97194
2688.43738	0.97156
2686.38357	0.97133
2684.32976	0.97138
2682.27595	0.97144
2680.22214	0.97152
2678.16833	0.97169
2676.11452	0.97188
2674.06071	0.97212
2672.00690	0.97223
2669.95309	0.97202
2667.89928	0.97181
2665.84547	0.97179
2663.79166	0.97182
2661.73785	0.97181
2659.68404	0.97169
2657.63023	0.97155
2655.57642	0.97167
2653.52261	0.97200
2651.46880	0.97214
2649.41499	0.97202
2647.36118	0.97196
2645.30737	0.97203
2643.25356	0.97204
2641.19975	0.97223
2639.14594	0.97263
2637.09213	0.97284
2635.03832	0.97277
2632.98451	0.97275
2630.93070	0.97286
2628.87689	0.97299
2626.82308	0.97303
2624.76927	0.97296
2622.71546	0.97292
2620.66165	0.97293
2618.60784	0.97298
2616.55403	0.97315
2614.50022	0.97325
2612.44641	0.97305
2610.39260	0.97304
2608.33879	0.97357
2606.28498	0.97416
2604.23117	0.97437
2602.17736	0.97420
2600.12355	0.97382
2598.06974	0.97377
2596.01593	0.97419
2593.96212	0.97442
2591.90831	0.97419
2589.85450	0.97403
2587.80069	0.97409
2585.74688	0.97405
2583.69307	0.97400
2581.63926	0.97394
2579.58545	0.97399
2577.53164	0.97439
2575.47783	0.97463
2573.42402	0.97446
2571.37021	0.97429
2569.31640	0.97434
2567.26259	0.97455
2565.20878	0.97466
2563.15497	0.97462
2561.10116	0.97475
2559.04735	0.97493
2556.99354	0.97476
2554.93973	0.97455
2552.88592	0.97465
2550.83211	0.97488
2548.77830	0.97509
2546.72449	0.97525
2544.67068	0.97530
2542.61687	0.97534
2540.56306	0.97554
2538.50925	0.97578
2536.45544	0.97569
2534.40163	0.97543
2532.34782	0.97549
2530.29401	0.97583
2528.24020	0.97613
2526.18639	0.97612
2524.13258	0.97582
2522.07877	0.97559
2520.02496	0.97549
2517.97115	0.97524
2515.91734	0.97497
2513.86353	0.97514
2511.80972	0.97575
2509.75591	0.97627
2507.70210	0.97625
2505.64828	0.97614
2503.59447	0.97631
2501.54066	0.97626
2499.48685	0.97591
2497.43304	0.97575
2495.37923	0.97596
2493.32542	0.97628
2491.27161	0.97638
2489.21780	0.97638
2487.16399	0.97635
2485.11018	0.97604
2483.05637	0.97577
2481.00256	0.97603
2478.94875	0.97652
2476.89494	0.97661
2474.84113	0.97629
2472.78732	0.97603
2470.73351	0.97600
2468.67970	0.97631
2466.62589	0.97680
2464.57208	0.97688
2462.51827	0.97660
2460.46446	0.97643
2458.41065	0.97629
2456.35684	0.97607
2454.30303	0.97621
2452.24922	0.97662
2450.19541	0.97662
2448.14160	0.97629
2446.08779	0.97610
2444.03398	0.97588
2441.98017	0.97554
2439.92636	0.97560
2437.87255	0.97631
2435.81874	0.97706
2433.76493	0.97728
2431.71112	0.97723
2429.65731	0.97734
2427.60350	0.97735
2425.54969	0.97698
2423.49588	0.97652
2421.44207	0.97624
2419.38826	0.97613
2417.33445	0.97631
2415.28064	0.97684
2413.22683	0.97724
2411.17302	0.97693
2409.11921	0.97634
2407.06540	0.97602
2405.01159	0.97579
2402.95778	0.97592
2400.90397	0.97649
2398.85016	0.97688
2396.79635	0.97687
2394.74254	0.97671
2392.68873	0.97650
2390.63492	0.97636
2388.58111	0.97638
2386.52730	0.97663
2384.47349	0.97691
2382.41968	0.97680
2380.36587	0.97649
2378.31206	0.97623
2376.25825	0.97595
2374.20444	0.97584
2372.15063	0.97621
2370.09682	0.97650
2368.04301	0.97571
2365.98920	0.97459
2363.93539	0.97515
2361.88158	0.97681
2359.82777	0.97760
2357.77396	0.97741
2355.72015	0.97693
2353.66634	0.97663
2351.61253	0.97666
2349.55872	0.97672
2347.50491	0.97667
2345.45110	0.97659
2343.39729	0.97636
2341.34348	0.97587
2339.28967	0.97546
2337.23586	0.97572
2335.18205	0.97663
2333.12824	0.97700
2331.07443	0.97651
2329.02062	0.97620
2326.96681	0.97628
2324.91300	0.97621
2322.85919	0.97578
2320.80538	0.97535
2318.75157	0.97551
2316.69776	0.97599
2314.64395	0.97626
2312.59014	0.97652
2310.53633	0.97680
2308.48252	0.97665
2306.42871	0.97657
2304.37490	0.97692
2302.32109	0.97708
2300.26728	0.97699
2298.21347	0.97711
2296.15966	0.97718
2294.10585	0.97690
2292.05204	0.97655
2289.99823	0.97624
2287.94442	0.97615
2285.89061	0.97645
2283.83680	0.97700
2281.78299	0.97766
2279.72918	0.97829
2277.67537	0.97863
2275.62156	0.97850
2273.56775	0.97790
2271.51394	0.97735
2269.46013	0.97731
2267.40632	0.97750
2265.35251	0.97788
2263.29870	0.97854
2261.24489	0.97887
2259.19108	0.97854
2257.13727	0.97789
2255.08346	0.97754
2253.02965	0.97763
2250.97584	0.97776
2248.92203	0.97833
2246.86822	0.97912
2244.81441	0.97934
2242.76060	0.97895
2240.70679	0.97830
2238.65298	0.97818
2236.59917	0.97819
2234.54536	0.97770
2232.49155	0.97767
2230.43774	0.97816
2228.38393	0.97815
2226.33012	0.97743
2224.27631	0.97666
2222.22250	0.97648
2220.16869	0.97680
2218.11488	0.97734
2216.06107	0.97798
2214.00726	0.97849
2211.95344	0.97889
2209.89963	0.97883
2207.84582	0.97792
2205.79201	0.97747
2203.73820	0.97847
2201.68439	0.97945
2199.63058	0.97909
2197.57677	0.97838
2195.52296	0.97872
2193.46915	0.97932
2191.41534	0.97900
2189.36153	0.97816
2187.30772	0.97803
2185.25391	0.97915
2183.20010	0.98016
2181.14629	0.98024
2179.09248	0.97949
2177.03867	0.97884
2174.98486	0.97986
2172.93105	0.98096
2170.87724	0.98002
2168.82343	0.97834
2166.76962	0.97757
2164.71581	0.97831
2162.66200	0.97979
2160.60819	0.97930
2158.55438	0.97805
2156.50057	0.97968
2154.44676	0.98259
2152.39295	0.98382
2150.33914	0.98305
2148.28533	0.98208
2146.23152	0.98152
2144.17771	0.98066
2142.12390	0.97980
2140.07009	0.97985
2138.01628	0.98003
2135.96247	0.97941
2133.90866	0.97903
2131.85485	0.97951
2129.80104	0.97971
2127.74723	0.97923
2125.69342	0.97891
2123.63961	0.97870
2121.58580	0.97845
2119.53199	0.97839
2117.47818	0.97814
2115.42437	0.97802
2113.37056	0.97807
2111.31675	0.97747
2109.26294	0.97703
2107.20913	0.97788
2105.15532	0.97875
2103.10151	0.97896
2101.04770	0.97916
2098.99389	0.97878
2096.94008	0.97837
2094.88627	0.97880
2092.83246	0.97890
2090.77865	0.97879
2088.72484	0.97900
2086.67103	0.97878
2084.61722	0.97840
2082.56341	0.97823
2080.50960	0.97804
2078.45579	0.97827
2076.40198	0.97898
2074.34817	0.97938
2072.29436	0.97930
2070.24055	0.97908
2068.18674	0.97881
2066.13293	0.97909
2064.07912	0.97977
2062.02531	0.97998
2059.97150	0.97948
2057.91769	0.97841
2055.86388	0.97793
2053.81007	0.97851
2051.75626	0.97886
2049.70245	0.97825
2047.64864	0.97749
2045.59483	0.97776
2043.54102	0.97853
2041.48721	0.97916
2039.43340	0.97956
2037.37959	0.97933
2035.32578	0.97919
2033.27197	0.98056
2031.21816	0.98207
2029.16435	0.98142
2027.11054	0.98007
2025.05673	0.97991
2023.00292	0.98029
2020.94911	0.98053
2018.89530	0.98070
2016.84149	0.98066
2014.78768	0.98048
2012.73387	0.98073
2010.68006	0.98092
2008.62625	0.97995
2006.57244	0.97913
2004.51863	0.97983
2002.46482	0.98151
2000.41101	0.98305
1998.35720	0.98276
1996.30339	0.98075
1994.24958	0.97912
1992.19577	0.97891
1990.14196	0.97992
1988.08815	0.98098
1986.03434	0.98024
1983.98053	0.97842
1981.92672	0.97821
1979.87291	0.97927
1977.81910	0.97953
1975.76529	0.97963
1973.71148	0.98031
1971.65767	0.97953
1969.60386	0.97764
1967.55005	0.97694
1965.49624	0.97791
1963.44243	0.97956
1961.38862	0.98008
1959.33481	0.97943
1957.28100	0.97918
1955.22719	0.97961
1953.17338	0.98002
1951.11957	0.97980
1949.06576	0.97925
1947.01195	0.97906
1944.95814	0.97894
1942.90433	0.97887
1940.85052	0.97924
1938.79671	0.97960
1936.74290	0.97997
1934.68909	0.98030
1932.63528	0.98038
1930.58147	0.98039
1928.52766	0.98004
1926.47385	0.97950
1924.42004	0.97960
1922.36623	0.98012
1920.31242	0.98019
1918.25861	0.97988
1916.20479	0.97998
1914.15098	0.98042
1912.09717	0.98026
1910.04336	0.97955
1907.98955	0.97889
1905.93574	0.97874
1903.88193	0.97919
1901.82812	0.97978
1899.77431	0.98005
1897.72050	0.97991
1895.66669	0.97957
1893.61288	0.97934
1891.55907	0.97925
1889.50526	0.97892
1887.45145	0.97855
1885.39764	0.97876
1883.34383	0.97955
1881.29002	0.98031
1879.23621	0.98043
1877.18240	0.97988
1875.12859	0.97946
1873.07478	0.97958
1871.02097	0.97963
1868.96716	0.97939
1866.91335	0.97931
1864.85954	0.97951
1862.80573	0.97984
1860.75192	0.98006
1858.69811	0.98003
1856.64430	0.97995
1854.59049	0.98003
1852.53668	0.98018
1850.48287	0.98010
1848.42906	0.97984
1846.37525	0.97981
1844.32144	0.97974
1842.26763	0.97917
1840.21382	0.97880
1838.16001	0.97904
1836.10620	0.97946
1834.05239	0.97965
1831.99858	0.97963
1829.94477	0.97940
1827.89096	0.97926
1825.83715	0.97931
1823.78334	0.97914
1821.72953	0.97902
1819.67572	0.97921
1817.62191	0.97939
1815.56810	0.97925
1813.51429	0.97896
1811.46048	0.97888
1809.40667	0.97889
1807.35286	0.97889
1805.29905	0.97896
1803.24524	0.97899
1801.19143	0.97895
1799.13762	0.97883
1797.08381	0.97862
1795.03000	0.97854
1792.97619	0.97839
1790.92238	0.97803
1788.86857	0.97790
1786.81476	0.97795
1784.76095	0.97786
1782.70714	0.97767
1780.65333	0.97735
1778.59952	0.97701
1776.54571	0.97700
1774.49190	0.97710
1772.43809	0.97692
1770.38428	0.97660
1768.33047	0.97639
1766.27666	0.97629
1764.22285	0.97617
1762.16904	0.97572
1760.11523	0.97499
1758.06142	0.97424
1756.00761	0.97324
1753.95380	0.97198
1751.89999	0.97074
1749.84618	0.96957
1747.79237	0.96852
1745.73856	0.96777
1743.68475	0.96746
1741.63094	0.96759
1739.57713	0.96794
1737.52332	0.96832
1735.46951	0.96868
1733.41570	0.96905
1731.36189	0.96959
1729.30808	0.97014
1727.25427	0.97036
1725.20046	0.97030
1723.14665	0.97014
1721.09284	0.97001
1719.03903	0.97000
1716.98522	0.96967
1714.93141	0.96900
1712.87760	0.96876
1710.82379	0.96888
1708.76998	0.96908
1706.71617	0.96925
1704.66236	0.96944
1702.60855	0.96967
1700.55474	0.96992
1698.50093	0.97018
1696.44712	0.97002
1694.39331	0.96955
1692.33950	0.96914
1690.28569	0.96852
1688.23188	0.96800
1686.17807	0.96794
1684.12426	0.96753
1682.07045	0.96682
1680.01664	0.96650
1677.96283	0.96636
1675.90902	0.96610
1673.85521	0.96563
1671.80140	0.96517
1669.74759	0.96451
1667.69378	0.96392
1665.63997	0.96369
1663.58616	0.96343
1661.53235	0.96323
1659.47854	0.96311
1657.42473	0.96280
1655.37092	0.96251
1653.31711	0.96216
1651.26330	0.96203
1649.20949	0.96218
1647.15568	0.96215
1645.10187	0.96208
1643.04806	0.96207
1640.99425	0.96187
1638.94044	0.96151
1636.88663	0.96095
1634.83282	0.96038
1632.77901	0.96028
1630.72520	0.96032
1628.67139	0.96022
1626.61758	0.96005
1624.56377	0.95983
1622.50996	0.95940
1620.45614	0.95917
1618.40233	0.95925
1616.34852	0.95914
1614.29471	0.95905
1612.24090	0.95928
1610.18709	0.95948
1608.13328	0.95945
1606.07947	0.95934
1604.02566	0.95936
1601.97185	0.95954
1599.91804	0.95972
1597.86423	0.95999
1595.81042	0.96041
1593.75661	0.96065
1591.70280	0.96072
1589.64899	0.96086
1587.59518	0.96102
1585.54137	0.96120
1583.48756	0.96148
1581.43375	0.96191
1579.37994	0.96245
1577.32613	0.96289
1575.27232	0.96336
1573.21851	0.96390
1571.16470	0.96440
1569.11089	0.96492
1567.05708	0.96537
1565.00327	0.96587
1562.94946	0.96648
1560.89565	0.96686
1558.84184	0.96660
1556.78803	0.96640
1554.73422	0.96655
1552.68041	0.96667
1550.62660	0.96687
1548.57279	0.96724
1546.51898	0.96766
1544.46517	0.96798
1542.41136	0.96824
1540.35755	0.96856
1538.30374	0.96896
1536.24993	0.96927
1534.19612	0.96939
1532.14231	0.96939
1530.08850	0.96952
1528.03469	0.96979
1525.98088	0.97000
1523.92707	0.96997
1521.87326	0.96979
1519.81945	0.96986
1517.76564	0.97027
1515.71183	0.97077
1513.65802	0.97111
1511.60421	0.97126
1509.55040	0.97129
1507.49659	0.97118
1505.44278	0.97135
1503.38897	0.97186
1501.33516	0.97236
1499.28135	0.97255
1497.22754	0.97217
1495.17373	0.97171
1493.11992	0.97161
1491.06611	0.97151
1489.01230	0.97111
1486.95849	0.97056
1484.90468	0.96987
1482.85087	0.96892
1480.79706	0.96781
1478.74325	0.96648
1476.68944	0.96445
1474.63563	0.96096
1472.58182	0.95468
1470.52801	0.94649
1468.47420	0.93848
1466.42039	0.92937
1464.36658	0.91900
1462.31277	0.91134
1460.25896	0.90728
1458.20515	0.90402
1456.15134	0.90096
1454.09753	0.90049
1452.04372	0.90217
1449.98991	0.90625
1447.93610	0.91391
1445.88229	0.92360
1443.82848	0.93196
1441.77467	0.93768
1439.72086	0.94052
1437.66705	0.94117
1435.61324	0.94191
1433.55943	0.94502
1431.50562	0.94960
1429.45181	0.95390
1427.39800	0.95655
1425.34419	0.95788
1423.29038	0.95854
1421.23657	0.95892
1419.18276	0.95935
1417.12895	0.95991
1415.07514	0.96039
1413.02133	0.96082
1410.96752	0.96125
1408.91371	0.96153
1406.85990	0.96170
1404.80609	0.96198
1402.75228	0.96249
1400.69847	0.96297
1398.64466	0.96318
1396.59085	0.96319
1394.53704	0.96288
1392.48323	0.96239
1390.42942	0.96178
1388.37561	0.96004
1386.32180	0.95559
1384.26799	0.94703
1382.21418	0.93173
1380.16037	0.90781
1378.10656	0.88171
1376.05275	0.86837
1373.99894	0.87765
1371.94513	0.90022
1369.89132	0.92048
1367.83751	0.93374
1365.78370	0.94030
1363.72989	0.94239
1361.67608	0.94183
1359.62227	0.94055
1357.56846	0.94101
1355.51465	0.94399
1353.46084	0.94813
1351.40703	0.95185
1349.35322	0.95474
1347.29941	0.95701
1345.24560	0.95876
1343.19179	0.96005
1341.13798	0.96091
1339.08417	0.96147
1337.03036	0.96192
1334.97655	0.96215
1332.92274	0.96198
1330.86893	0.96156
1328.81512	0.96140
1326.76130	0.96163
1324.70749	0.96201
1322.65368	0.96240
1320.59987	0.96264
1318.54606	0.96272
1316.49225	0.96294
1314.43844	0.96327
1312.38463	0.96341
1310.33082	0.96330
1308.27701	0.96280
1306.22320	0.96178
1304.16939	0.96091
1302.11558	0.96095
1300.06177	0.96151
1298.00796	0.96189
1295.95415	0.96193
1293.90034	0.96197
1291.84653	0.96230
1289.79272	0.96280
1287.73891	0.96314
1285.68510	0.96327
1283.63129	0.96350
1281.57748	0.96376
1279.52367	0.96373
1277.46986	0.96349
1275.41605	0.96322
1273.36224	0.96306
1271.30843	0.96284
1269.25462	0.96236
1267.20081	0.96180
1265.14700	0.96134
1263.09319	0.96093
1261.03938	0.96016
1258.98557	0.95907
1256.93176	0.95830
1254.87795	0.95829
1252.82414	0.95891
1250.77033	0.95974
1248.71652	0.96033
1246.66271	0.96051
1244.60890	0.96051
1242.55509	0.96058
1240.50128	0.96066
1238.44747	0.96065
1236.39366	0.96064
1234.33985	0.96070
1232.28604	0.96066
1230.23223	0.96037
1228.17842	0.95992
1226.12461	0.95954
1224.07080	0.95923
1222.01699	0.95876
1219.96318	0.95816
1217.90937	0.95784
1215.85556	0.95779
1213.80175	0.95775
1211.74794	0.95775
1209.69413	0.95777
1207.64032	0.95773
1205.58651	0.95758
1203.53270	0.95729
1201.47889	0.95691
1199.42508	0.95656
1197.37127	0.95623
1195.31746	0.95590
1193.26365	0.95551
1191.20984	0.95504
1189.15603	0.95461
1187.10222	0.95402
1185.04841	0.95312
1182.99460	0.95212
1180.94079	0.95096
1178.88698	0.94945
1176.83317	0.94740
1174.77936	0.94461
1172.72555	0.94074
1170.67174	0.93594
1168.61793	0.93174
1166.56412	0.92993
1164.51031	0.93054
1162.45650	0.93198
1160.40269	0.93309
1158.34888	0.93366
1156.29507	0.93379
1154.24126	0.93374
1152.18745	0.93361
1150.13364	0.93352
1148.07983	0.93364
1146.02602	0.93411
1143.97221	0.93489
1141.91840	0.93563
1139.86459	0.93594
1137.81078	0.93579
1135.75697	0.93538
1133.70316	0.93484
1131.64935	0.93411
1129.59554	0.93313
1127.54173	0.93204
1125.48792	0.93089
1123.43411	0.92964
1121.38030	0.92847
1119.32649	0.92748
1117.27268	0.92662
1115.21887	0.92608
1113.16506	0.92570
1111.11125	0.92504
1109.05744	0.92404
1107.00363	0.92279
1104.94982	0.92150
1102.89601	0.92042
1100.84220	0.91979
1098.78839	0.91971
1096.73458	0.91975
1094.68077	0.91980
1092.62696	0.92012
1090.57315	0.92062
1088.51934	0.92125
1086.46553	0.92184
1084.41172	0.92223
1082.35791	0.92271
1080.30410	0.92350
1078.25029	0.92427
1076.19648	0.92460
1074.14267	0.92483
1072.08886	0.92535
1070.03505	0.92587
1067.98124	0.92601
1065.92743	0.92570
1063.87362	0.92528
1061.81981	0.92500
1059.76600	0.92456
1057.71219	0.92379
1055.65838	0.92286
1053.60457	0.92173
1051.55076	0.92017
1049.49695	0.91835
1047.44314	0.91680
1045.38933	0.91575
1043.33552	0.91509
1041.28171	0.91470
1039.22790	0.91449
1037.17409	0.91450
1035.12028	0.91490
1033.06647	0.91523
1031.01265	0.91521
1028.95884	0.91535
1026.90503	0.91585
1024.85122	0.91628
1022.79741	0.91650
1020.74360	0.91681
1018.68979	0.91717
1016.63598	0.91749
1014.58217	0.91803
1012.52836	0.91891
1010.47455	0.91990
1008.42074	0.92068
1006.36693	0.92097
1004.31312	0.92025
1002.25931	0.91786
1000.20550	0.91411
998.15169	0.91170
996.09788	0.91355
994.04407	0.91911
991.99026	0.92519
989.93645	0.92957
987.88264	0.93229
985.82883	0.93421
983.77502	0.93548
981.72121	0.93553
979.66740	0.93353
977.61359	0.92899
975.55978	0.92307
973.50597	0.91930
971.45216	0.92129
969.39835	0.92835
967.34454	0.93591
965.29073	0.94095
963.23692	0.94400
961.18311	0.94624
959.12930	0.94792
957.07549	0.94903
955.02168	0.94988
952.96787	0.95083
950.91406	0.95164
948.86025	0.95205
946.80644	0.95230
944.75263	0.95235
942.69882	0.95217
940.64501	0.95208
938.59120	0.95251
936.53739	0.95349
934.48358	0.95448
932.42977	0.95497
930.37596	0.95517
928.32215	0.95539
926.26834	0.95551
924.21453	0.95546
922.16072	0.95546
920.10691	0.95580
918.05310	0.95605
915.99929	0.95583
913.94548	0.95564
911.89167	0.95585
909.83786	0.95621
907.78405	0.95633
905.73024	0.95598
903.67643	0.95473
901.62262	0.95272
899.56881	0.95140
897.51500	0.95219
895.46119	0.95471
893.40738	0.95724
891.35357	0.95891
889.29976	0.96000
887.24595	0.96080
885.19214	0.96133
883.13833	0.96159
881.08452	0.96158
879.03071	0.96153
876.97690	0.96156
874.92309	0.96143
872.86928	0.96122
870.81547	0.96118
868.76166	0.96123
866.70785	0.96126
864.65404	0.96130
862.60023	0.96127
860.54642	0.96144
858.49261	0.96200
856.43880	0.96235
854.38499	0.96251
852.33118	0.96274
850.27737	0.96218
848.22356	0.96023
846.16975	0.95674
844.11594	0.95094
842.06213	0.94530
840.00832	0.94529
837.95451	0.95062
835.90070	0.95590
833.84689	0.95874
831.79308	0.96021
829.73927	0.96132
827.68546	0.96213
825.63165	0.96282
823.57784	0.96335
821.52403	0.96314
819.47022	0.96203
817.41641	0.96045
815.36260	0.95871
813.30879	0.95643
811.25498	0.95372
809.20117	0.95187
807.14736	0.95181
805.09355	0.95338
803.03974	0.95541
800.98593	0.95655
798.93212	0.95696
796.87831	0.95724
794.82450	0.95729
792.77069	0.95770
790.71688	0.95903
788.66307	0.96031
786.60926	0.96044
784.55545	0.95980
782.50164	0.95940
780.44783	0.95968
778.39402	0.96036
776.34021	0.96060
774.28640	0.96053
772.23259	0.96110
770.17878	0.96189
768.12497	0.96221
766.07116	0.96232
764.01735	0.96238
761.96354	0.96227
759.90973	0.96197
757.85592	0.96170
755.80211	0.96191
753.74830	0.96243
751.69449	0.96273
749.64068	0.96265
747.58687	0.96249
745.53306	0.96244
743.47925	0.96233
741.42544	0.96205
739.37163	0.96178
737.31781	0.96151
735.26400	0.96122
733.21019	0.96137
731.15638	0.96161
729.10257	0.96129
727.04876	0.96070
724.99495	0.95998
722.94114	0.95945
720.88733	0.95946
718.83352	0.95963
716.77971	0.95986
714.72590	0.96040
712.67209	0.96109
710.61828	0.96121
708.56447	0.96047
706.51066	0.95954
704.45685	0.95906
702.40304	0.95926
700.34923	0.95979
698.29542	0.95968
696.24161	0.95866
694.18780	0.95778
692.13399	0.95772
690.08018	0.95784
688.02637	0.95750
685.97256	0.95677
683.91875	0.95601
681.86494	0.95585
679.81113	0.95609
677.75732	0.95601
675.70351	0.95536
673.64970	0.95430
671.59589	0.95354
669.54208	0.95309
667.48827	0.95251
665.43446	0.95247
663.38065	0.95309
661.32684	0.95409
659.27303	0.95491
657.21922	0.95504
655.16541	0.95400
653.11160	0.95302
651.05779	0.95379
649.00398	0.95489
646.95017	0.95473
644.89636	0.95393
642.84255	0.95330
640.78874	0.95296
638.73493	0.95248
636.68112	0.95227
634.62731	0.95280
632.57350	0.95289
630.51969	0.95209
628.46588	0.95127
626.41207	0.95097
624.35826	0.95101
622.30445	0.95071
620.25064	0.94977
618.19683	0.94843
616.14302	0.94761
614.08921	0.94692
612.03540	0.94568
609.98159	0.94517
607.92778	0.94538
605.87397	0.94506
603.82016	0.94404
601.76635	0.94259
599.71254	0.94137
597.65873	0.94057
595.60492	0.93962
593.55111	0.93917
591.49730	0.94015
589.44349	0.94139
587.38968	0.94176
585.33587	0.94099
583.28206	0.93936
581.22825	0.93866
579.17444	0.93973
577.12063	0.94081
575.06682	0.94069
573.01301	0.94026
570.95920	0.94028
568.90539	0.94059
566.85158	0.94133
564.79777	0.94236
562.74396	0.94212
560.69015	0.94073
558.63634	0.94002
556.58253	0.94029
554.52872	0.94111
552.47491	0.94154
550.42110	0.94071
548.36729	0.93859
546.31348	0.93625
544.25967	0.93507
542.20586	0.93509
540.15205	0.93608
538.09824	0.93684
536.04443	0.93627
533.99062	0.93537
531.93681	0.93500
529.88300	0.93506
527.82919	0.93473
525.77538	0.93430
523.72157	0.93533
521.66776	0.93740
519.61395	0.93923
517.56014	0.93976
515.50633	0.93945
513.45252	0.93971
511.39871	0.93987
509.34490	0.93909
507.29109	0.93791
505.23728	0.93712
503.18347	0.93740
501.12966	0.93831
499.07585	0.93831
497.02204	0.93708
494.96823	0.93597
492.91442	0.93649
490.86061	0.93749
488.80680	0.93656
486.75299	0.93443
484.69918	0.93300
482.64537	0.93208
480.59156	0.93087
478.53775	0.92898
476.48394	0.92569
474.43013	0.92214
472.37632	0.92003
470.32251	0.91857
468.26870	0.91801
466.21489	0.91938
464.16108	0.92024
462.10727	0.91847
460.05346	0.91649
457.99965	0.91750
455.94584	0.92060
453.89203	0.92298
451.83822	0.92470
449.78441	0.92630
447.73060	0.92789
445.67679	0.92870
443.62298	0.92836
441.56916	0.92892
439.51535	0.93061
437.46154	0.93098
435.40773	0.92896
433.35392	0.92647
431.30011	0.92527
429.24630	0.92556
427.19249	0.92715
425.13868	0.93005
423.08487	0.93358
421.03106	0.93533
418.97725	0.93679
416.92344	0.93879
414.86963	0.93790
412.81582	0.93636
410.76201	0.93769
408.70820	0.93915
406.65439	0.93809
404.60058	0.93766
402.54677	0.93570
400.49296	0.93187
398.43915	0.93241
