3996.71440	0.99420
3994.66059	0.99397
3992.60678	0.99412
3990.55297	0.99425
3988.49916	0.99420
3986.44535	0.99413
3984.39154	0.99429
3982.33773	0.99453
3980.28391	0.99454
3978.23010	0.99444
3976.17629	0.99443
3974.12248	0.99434
3972.06867	0.99397
3970.01486	0.99371
3967.96105	0.99394
3965.90724	0.99398
3963.85343	0.99346
3961.79962	0.99314
3959.74581	0.99330
3957.69200	0.99357
3955.63819	0.99394
3953.58438	0.99444
3951.53057	0.99453
3949.47676	0.99405
3947.42295	0.99383
3945.36914	0.99420
3943.31533	0.99458
3941.26152	0.99465
3939.20771	0.99451
3937.15390	0.99438
3935.10009	0.99416
3933.04628	0.99371
3930.99247	0.99346
3928.93866	0.99367
3926.88485	0.99400
3924.83104	0.99417
3922.77723	0.99416
3920.72342	0.99423
3918.66961	0.99432
3916.61580	0.99430
3914.56199	0.99419
3912.50818	0.99399
3910.45437	0.99400
3908.40056	0.99445
3906.34675	0.99493
3904.29294	0.99480
3902.23913	0.99433
3900.18532	0.99429
3898.13151	0.99461
3896.07770	0.99479
3894.02389	0.99470
3891.97008	0.99436
3889.91627	0.99418
3887.86246	0.99431
3885.80865	0.99421
3883.75484	0.99403
3881.70103	0.99407
3879.64722	0.99414
3877.59341	0.99425
3875.53960	0.99436
3873.48579	0.99453
3871.43198	0.99493
3869.37817	0.99533
3867.32436	0.99550
3865.27055	0.99535
3863.21674	0.99511
3861.16293	0.99492
3859.10912	0.99461
3857.05531	0.99441
3855.00150	0.99438
3852.94769	0.99427
3850.89388	0.99418
3848.84007	0.99424
3846.78626	0.99446
3844.73245	0.99453
3842.67864	0.99418
3840.62483	0.99403
3838.57102	0.99454
3836.51721	0.99483
3834.46340	0.99438
3832.40959	0.99401
3830.35578	0.99412
3828.30197	0.99452
3826.24816	0.99480
3824.19435	0.99482
3822.14054	0.99475
3820.08673	0.99465
3818.03292	0.99466
3815.97911	0.99469
3813.92530	0.99467
3811.87149	0.99472
3809.81768	0.99470
3807.76387	0.99461
3805.71006	0.99475
3803.65625	0.99508
3801.60244	0.99487
3799.54863	0.99406
3797.49482	0.99367
3795.44101	0.99374
3793.38720	0.99379
3791.33339	0.99376
3789.27958	0.99386
3787.22577	0.99391
3785.17196	0.99374
3783.11815	0.99373
3781.06434	0.99394
3779.01053	0.99416
3776.95672	0.99438
3774.90291	0.99456
3772.84910	0.99469
3770.79529	0.99446
3768.74148	0.99381
3766.68767	0.99342
3764.63386	0.99339
3762.58005	0.99363
3760.52624	0.99399
3758.47243	0.99411
3756.41862	0.99435
3754.36481	0.99473
3752.31100	0.99429
3750.25719	0.99345
3748.20338	0.99413
3746.14957	0.99544
3744.09576	0.99578
3742.04195	0.99523
3739.98814	0.99497
3737.93433	0.99472
3735.88052	0.99436
3733.82671	0.99428
3731.77290	0.99413
3729.71909	0.99389
3727.66528	0.99365
3725.61147	0.99347
3723.55766	0.99341
3721.50385	0.99322
3719.45004	0.99290
3717.39623	0.99289
3715.34242	0.99335
3713.28861	0.99371
3711.23480	0.99333
3709.18099	0.99230
3707.12718	0.99141
3705.07337	0.99102
3703.01956	0.99084
3700.96575	0.99045
3698.91194	0.99012
3696.85813	0.99014
3694.80432	0.99034
3692.75051	0.99068
3690.69670	0.99091
3688.64289	0.99062
3686.58907	0.99018
3684.53526	0.99009
3682.48145	0.99028
3680.42764	0.99011
3678.37383	0.98925
3676.32002	0.98835
3674.26621	0.98803
3672.21240	0.98816
3670.15859	0.98871
3668.10478	0.98946
3666.05097	0.98978
3663.99716	0.98960
3661.94335	0.98938
3659.88954	0.98934
3657.83573	0.98895
3655.78192	0.98800
3653.72811	0.98732
3651.67430	0.98738
3649.62049	0.98786
3647.56668	0.98791
3645.51287	0.98753
3643.45906	0.98720
3641.40525	0.98697
3639.35144	0.98671
3637.29763	0.98625
3635.24382	0.98574
3633.19001	0.98540
3631.13620	0.98476
3629.08239	0.98327
3627.02858	0.98239
3624.97477	0.98263
3622.92096	0.98271
3620.86715	0.98243
3618.81334	0.98202
3616.75953	0.98146
3614.70572	0.98106
3612.65191	0.98136
3610.59810	0.98208
3608.54429	0.98198
3606.49048	0.98091
3604.43667	0.98010
3602.38286	0.97979
3600.32905	0.97977
3598.27524	0.97985
3596.22143	0.97953
3594.16762	0.97887
3592.11381	0.97841
3590.06000	0.97814
3588.00619	0.97771
3585.95238	0.97747
3583.89857	0.97739
3581.84476	0.97679
3579.79095	0.97596
3577.73714	0.97548
3575.68333	0.97512
3573.62952	0.97459
3571.57571	0.97432
3569.52190	0.97414
3567.46809	0.97317
3565.41428	0.97227
3563.36047	0.97238
3561.30666	0.97251
3559.25285	0.97220
3557.19904	0.97172
3555.14523	0.97136
3553.09142	0.97100
3551.03761	0.97055
3548.98380	0.97022
3546.92999	0.96991
3544.87618	0.96954
3542.82237	0.96927
3540.76856	0.96889
3538.71475	0.96828
3536.66094	0.96783
3534.60713	0.96745
3532.55332	0.96702
3530.49951	0.96659
3528.44570	0.96585
3526.39189	0.96500
3524.33808	0.96463
3522.28427	0.96440
3520.23046	0.96386
3518.17665	0.96305
3516.12284	0.96228
3514.06903	0.96180
3512.01522	0.96160
3509.96141	0.96127
3507.90760	0.96070
3505.85379	0.96043
3503.79998	0.96031
3501.74617	0.95970
3499.69236	0.95872
3497.63855	0.95798
3495.58474	0.95754
3493.53093	0.95710
3491.47712	0.95653
3489.42331	0.95595
3487.36950	0.95542
3485.31569	0.95505
3483.26188	0.95459
3481.20807	0.95391
3479.15426	0.95344
3477.10045	0.95296
3475.04664	0.95224
3472.99283	0.95156
3470.93902	0.95116
3468.88521	0.95084
3466.83140	0.95046
3464.77759	0.95011
3462.72378	0.94952
3460.66997	0.94851
3458.61616	0.94766
3456.56235	0.94732
3454.50854	0.94717
3452.45473	0.94689
3450.40092	0.94655
3448.34711	0.94618
3446.29330	0.94562
3444.23949	0.94512
3442.18568	0.94488
3440.13187	0.94471
3438.07806	0.94437
3436.02425	0.94367
3433.97044	0.94284
3431.91663	0.94239
3429.86282	0.94248
3427.80901	0.94278
3425.75520	0.94279
3423.70139	0.94233
3421.64758	0.94142
3419.59377	0.94037
3417.53996	0.94000
3415.48615	0.94036
3413.43234	0.94054
3411.37853	0.94021
3409.32472	0.93990
3407.27091	0.93979
3405.21710	0.93962
3403.16329	0.93937
3401.10948	0.93913
3399.05567	0.93901
3397.00186	0.93904
3394.94805	0.93885
3392.89424	0.93835
3390.84042	0.93801
3388.78661	0.93779
3386.73280	0.93749
3384.67899	0.93723
3382.62518	0.93699
3380.57137	0.93661
3378.51756	0.93608
3376.46375	0.93564
3374.40994	0.93553
3372.35613	0.93550
3370.30232	0.93524
3368.24851	0.93482
3366.19470	0.93446
3364.14089	0.93410
3362.08708	0.93377
3360.03327	0.93354
3357.97946	0.93319
3355.92565	0.93270
3353.87184	0.93247
3351.81803	0.93261
3349.76422	0.93281
3347.71041	0.93262
3345.65660	0.93224
3343.60279	0.93219
3341.54898	0.93215
3339.49517	0.93178
3337.44136	0.93132
3335.38755	0.93095
3333.33374	0.93072
3331.27993	0.93055
3329.22612	0.93026
3327.17231	0.93019
3325.11850	0.93061
3323.06469	0.93073
3321.01088	0.93029
3318.95707	0.92994
3316.90326	0.92983
3314.84945	0.92975
3312.79564	0.92961
3310.74183	0.92938
3308.68802	0.92902
3306.63421	0.92872
3304.58040	0.92857
3302.52659	0.92845
3300.47278	0.92834
3298.41897	0.92806
3296.36516	0.92765
3294.31135	0.92752
3292.25754	0.92769
3290.20373	0.92790
3288.14992	0.92795
3286.09611	0.92775
3284.04230	0.92762
3281.98849	0.92774
3279.93468	0.92787
3277.88087	0.92786
3275.82706	0.92789
3273.77325	0.92801
3271.71944	0.92815
3269.66563	0.92854
3267.61182	0.92911
3265.55801	0.92955
3263.50420	0.93001
3261.45039	0.93057
3259.39658	0.93098
3257.34277	0.93122
3255.28896	0.93138
3253.23515	0.93152
3251.18134	0.93176
3249.12753	0.93224
3247.07372	0.93296
3245.01991	0.93364
3242.96610	0.93409
3240.91229	0.93442
3238.85848	0.93476
3236.80467	0.93501
3234.75086	0.93510
3232.69705	0.93515
3230.64324	0.93528
3228.58943	0.93570
3226.53562	0.93624
3224.48181	0.93661
3222.42800	0.93691
3220.37419	0.93703
3218.32038	0.93687
3216.26657	0.93674
3214.21276	0.93681
3212.15895	0.93708
3210.10514	0.93757
3208.05133	0.93800
3205.99752	0.93816
3203.94371	0.93841
3201.88990	0.93893
3199.83609	0.93932
3197.78228	0.93948
3195.72847	0.93976
3193.67466	0.94011
3191.62085	0.94050
3189.56704	0.94104
3187.51323	0.94140
3185.45942	0.94143
3183.40561	0.94155
3181.35180	0.94219
3179.29799	0.94304
3177.24418	0.94345
3175.19037	0.94368
3173.13656	0.94430
3171.08275	0.94509
3169.02894	0.94565
3166.97513	0.94606
3164.92132	0.94650
3162.86751	0.94694
3160.81370	0.94730
3158.75989	0.94766
3156.70608	0.94812
3154.65227	0.94850
3152.59846	0.94878
3150.54465	0.94913
3148.49084	0.94947
3146.43703	0.94975
3144.38322	0.95022
3142.32941	0.95078
3140.27560	0.95122
3138.22179	0.95152
3136.16798	0.95184
3134.11417	0.95222
3132.06036	0.95257
3130.00655	0.95290
3127.95274	0.95313
3125.89893	0.95318
3123.84512	0.95338
3121.79131	0.95390
3119.73750	0.95434
3117.68369	0.95460
3115.62988	0.95492
3113.57607	0.95523
3111.52226	0.95549
3109.46845	0.95579
3107.41464	0.95604
3105.36083	0.95610
3103.30702	0.95600
3101.25321	0.95588
3099.19940	0.95585
3097.14559	0.95597
3095.09177	0.95612
3093.03796	0.95616
3090.98415	0.95618
3088.93034	0.95617
3086.87653	0.95617
3084.82272	0.95648
3082.76891	0.95698
3080.71510	0.95710
3078.66129	0.95687
3076.60748	0.95660
3074.55367	0.95640
3072.49986	0.95662
3070.44605	0.95722
3068.39224	0.95756
3066.33843	0.95754
3064.28462	0.95753
3062.23081	0.95749
3060.17700	0.95726
3058.12319	0.95712
3056.06938	0.95732
3054.01557	0.95776
3051.96176	0.95820
3049.90795	0.95854
3047.85414	0.95890
3045.80033	0.95934
3043.74652	0.95956
3041.69271	0.95958
3039.63890	0.95965
3037.58509	0.95961
3035.53128	0.95965
3033.47747	0.96021
3031.42366	0.96084
3029.36985	0.96082
3027.31604	0.96046
3025.26223	0.96060
3023.20842	0.96106
3021.15461	0.96108
3019.10080	0.96084
3017.04699	0.96069
3014.99318	0.96052
3012.93937	0.96031
3010.88556	0.96011
3008.83175	0.95988
3006.77794	0.95947
3004.72413	0.95897
3002.67032	0.95851
3000.61651	0.95797
2998.56270	0.95725
2996.50889	0.95631
2994.45508	0.95525
2992.40127	0.95402
2990.34746	0.95249
2988.29365	0.95059
2986.23984	0.94820
2984.18603	0.94517
2982.13222	0.94145
2980.07841	0.93719
2978.02460	0.93216
2975.97079	0.92570
2973.91698	0.91743
2971.86317	0.90744
2969.80936	0.89552
2967.75555	0.88138
2965.70174	0.86557
2963.64793	0.84938
2961.59412	0.83489
2959.54031	0.82357
2957.48650	0.81538
2955.43269	0.80946
2953.37888	0.80502
2951.32507	0.80275
2949.27126	0.80511
2947.21745	0.81426
2945.16364	0.82914
2943.10983	0.84482
2941.05602	0.85555
2939.00221	0.85872
2936.94840	0.85513
2934.89459	0.84647
2932.84078	0.83391
2930.78697	0.81878
2928.73316	0.80281
2926.67935	0.78755
2924.62554	0.77388
2922.57173	0.76171
2920.51792	0.75140
2918.46411	0.74502
2916.41030	0.74516
2914.35649	0.75251
2912.30268	0.76460
2910.24887	0.77750
2908.19506	0.78906
2906.14125	0.79959
2904.08744	0.81014
2902.03363	0.82105
2899.97982	0.83189
2897.92601	0.84204
2895.87220	0.85089
2893.81839	0.85796
2891.76458	0.86304
2889.71077	0.86618
2887.65696	0.86765
2885.60315	0.86762
2883.54934	0.86612
2881.49553	0.86320
2879.44172	0.85964
2877.38791	0.85712
2875.33410	0.85650
2873.28029	0.85669
2871.22648	0.85621
2869.17267	0.85514
2867.11886	0.85562
2865.06505	0.86088
2863.01124	0.87134
2860.95743	0.88278
2858.90362	0.89039
2856.84981	0.89246
2854.79600	0.88998
2852.74219	0.88559
2850.68838	0.88242
2848.63457	0.88197
2846.58076	0.88228
2844.52695	0.87996
2842.47314	0.87397
2840.41933	0.86645
2838.36552	0.86169
2836.31171	0.86440
2834.25790	0.87621
2832.20409	0.89372
2830.15028	0.91120
2828.09647	0.92479
2826.04266	0.93394
2823.98885	0.93998
2821.93504	0.94430
2819.88123	0.94772
2817.82742	0.95040
2815.77361	0.95232
2813.71980	0.95373
2811.66599	0.95497
2809.61218	0.95629
2807.55837	0.95791
2805.50456	0.95972
2803.45075	0.96118
2801.39693	0.96209
2799.34312	0.96285
2797.28931	0.96364
2795.23550	0.96435
2793.18169	0.96509
2791.12788	0.96604
2789.07407	0.96706
2787.02026	0.96800
2784.96645	0.96865
2782.91264	0.96912
2780.85883	0.96970
2778.80502	0.97026
2776.75121	0.97059
2774.69740	0.97092
2772.64359	0.97134
2770.58978	0.97170
2768.53597	0.97182
2766.48216	0.97190
2764.42835	0.97224
2762.37454	0.97265
2760.32073	0.97292
2758.26692	0.97318
2756.21311	0.97344
2754.15930	0.97364
2752.10549	0.97379
2750.05168	0.97384
2747.99787	0.97386
2745.94406	0.97390
2743.89025	0.97394
2741.83644	0.97382
2739.78263	0.97356
2737.72882	0.97332
2735.67501	0.97311
2733.62120	0.97289
2731.56739	0.97276
2729.51358	0.97262
2727.45977	0.97219
2725.40596	0.97160
2723.35215	0.97132
2721.29834	0.97158
2719.24453	0.97227
2717.19072	0.97317
2715.13691	0.97394
2713.08310	0.97436
2711.02929	0.97466
2708.97548	0.97508
2706.92167	0.97550
2704.86786	0.97597
2702.81405	0.97658
2700.76024	0.97688
2698.70643	0.97684
2696.65262	0.97690
2694.59881	0.97700
2692.54500	0.97691
2690.49119	0.97672
2688.43738	0.97671
2686.38357	0.97689
2684.32976	0.97700
2682.27595	0.97693
2680.22214	0.97683
2678.16833	0.97686
2676.11452	0.97705
2674.06071	0.97730
2672.00690	0.97745
2669.95309	0.97752
2667.89928	0.97758
2665.84547	0.97773
2663.79166	0.97783
2661.73785	0.97765
2659.68404	0.97734
2657.63023	0.97716
2655.57642	0.97721
2653.52261	0.97746
2651.46880	0.97778
2649.41499	0.97793
2647.36118	0.97797
2645.30737	0.97820
2643.25356	0.97854
2641.19975	0.97871
2639.14594	0.97885
2637.09213	0.97910
2635.03832	0.97939
2632.98451	0.97968
2630.93070	0.97986
2628.87689	0.97986
2626.82308	0.97977
2624.76927	0.97964
2622.71546	0.97952
2620.66165	0.97964
2618.60784	0.97976
2616.55403	0.97942
2614.50022	0.97907
2612.44641	0.97932
2610.39260	0.97966
2608.33879	0.97974
2606.28498	0.98013
2604.23117	0.98067
2602.17736	0.98082
2600.12355	0.98080
2598.06974	0.98109
2596.01593	0.98164
2593.96212	0.98195
2591.90831	0.98168
2589.85450	0.98117
2587.80069	0.98089
2585.74688	0.98070
2583.69307	0.98068
2581.63926	0.98118
2579.58545	0.98183
2577.53164	0.98214
2575.47783	0.98225
2573.42402	0.98261
2571.37021	0.98312
2569.31640	0.98320
2567.26259	0.98306
2565.20878	0.98322
2563.15497	0.98321
2561.10116	0.98287
2559.04735	0.98287
2556.99354	0.98338
2554.93973	0.98397
2552.88592	0.98419
2550.83211	0.98407
2548.77830	0.98396
2546.72449	0.98404
2544.67068	0.98423
2542.61687	0.98450
2540.56306	0.98475
2538.50925	0.98490
2536.45544	0.98476
2534.40163	0.98446
2532.34782	0.98467
2530.29401	0.98522
2528.24020	0.98537
2526.18639	0.98517
2524.13258	0.98487
2522.07877	0.98475
2520.02496	0.98491
2517.97115	0.98510
2515.91734	0.98538
2513.86353	0.98563
2511.80972	0.98573
2509.75591	0.98609
2507.70210	0.98658
2505.64828	0.98675
2503.59447	0.98662
2501.54066	0.98620
2499.48685	0.98598
2497.43304	0.98625
2495.37923	0.98646
2493.32542	0.98637
2491.27161	0.98636
2489.21780	0.98657
2487.16399	0.98672
2485.11018	0.98664
2483.05637	0.98652
2481.00256	0.98672
2478.94875	0.98717
2476.89494	0.98749
2474.84113	0.98749
2472.78732	0.98745
2470.73351	0.98742
2468.67970	0.98719
2466.62589	0.98685
2464.57208	0.98650
2462.51827	0.98636
2460.46446	0.98684
2458.41065	0.98761
2456.35684	0.98791
2454.30303	0.98774
2452.24922	0.98755
2450.19541	0.98745
2448.14160	0.98758
2446.08779	0.98791
2444.03398	0.98794
2441.98017	0.98766
2439.92636	0.98756
2437.87255	0.98774
2435.81874	0.98791
2433.76493	0.98784
2431.71112	0.98779
2429.65731	0.98803
2427.60350	0.98831
2425.54969	0.98829
2423.49588	0.98821
2421.44207	0.98812
2419.38826	0.98802
2417.33445	0.98838
2415.28064	0.98876
2413.22683	0.98856
2411.17302	0.98847
2409.11921	0.98884
2407.06540	0.98906
2405.01159	0.98895
2402.95778	0.98899
2400.90397	0.98931
2398.85016	0.98934
2396.79635	0.98881
2394.74254	0.98844
2392.68873	0.98876
2390.63492	0.98923
2388.58111	0.98919
2386.52730	0.98887
2384.47349	0.98899
2382.41968	0.98951
2380.36587	0.98965
2378.31206	0.98942
2376.25825	0.98945
2374.20444	0.98960
2372.15063	0.98959
2370.09682	0.98980
2368.04301	0.99044
2365.98920	0.99093
2363.93539	0.99057
2361.88158	0.98998
2359.82777	0.99019
2357.77396	0.99020
2355.72015	0.98960
2353.66634	0.98961
2351.61253	0.98973
2349.55872	0.98945
2347.50491	0.98935
2345.45110	0.98962
2343.39729	0.98976
2341.34348	0.98966
2339.28967	0.98957
2337.23586	0.98945
2335.18205	0.98934
2333.12824	0.98929
2331.07443	0.98890
2329.02062	0.98839
2326.96681	0.98804
2324.91300	0.98766
2322.85919	0.98779
2320.80538	0.98841
2318.75157	0.98864
2316.69776	0.98844
2314.64395	0.98799
2312.59014	0.98754
2310.53633	0.98769
2308.48252	0.98829
2306.42871	0.98881
2304.37490	0.98915
2302.32109	0.98923
2300.26728	0.98918
2298.21347	0.98891
2296.15966	0.98847
2294.10585	0.98825
2292.05204	0.98822
2289.99823	0.98820
2287.94442	0.98802
2285.89061	0.98768
2283.83680	0.98763
2281.78299	0.98780
2279.72918	0.98792
2277.67537	0.98866
2275.62156	0.98975
2273.56775	0.99027
2271.51394	0.99054
2269.46013	0.99063
2267.40632	0.99040
2265.35251	0.99046
2263.29870	0.99051
2261.24489	0.98974
2259.19108	0.98907
2257.13727	0.98912
2255.08346	0.98911
2253.02965	0.98912
2250.97584	0.98938
2248.92203	0.98948
2246.86822	0.98983
2244.81441	0.99065
2242.76060	0.99096
2240.70679	0.99053
2238.65298	0.99035
2236.59917	0.99063
2234.54536	0.99071
2232.49155	0.99064
2230.43774	0.99064
2228.38393	0.99065
2226.33012	0.99095
2224.27631	0.99087
2222.22250	0.99036
2220.16869	0.99075
2218.11488	0.99152
2216.06107	0.99139
2214.00726	0.99073
2211.95344	0.99069
2209.89963	0.99106
2207.84582	0.99129
2205.79201	0.99160
2203.73820	0.99136
2201.68439	0.99048
2199.63058	0.99057
2197.57677	0.99181
2195.52296	0.99232
2193.46915	0.99212
2191.41534	0.99201
2189.36153	0.99145
2187.30772	0.99061
2185.25391	0.98987
2183.20010	0.98967
2181.14629	0.99083
2179.09248	0.99304
2177.03867	0.99482
2174.98486	0.99451
2172.93105	0.99241
2170.87724	0.99088
2168.82343	0.99014
2166.76962	0.98969
2164.71581	0.99000
2162.66200	0.98913
2160.60819	0.98811
2158.55438	0.99081
2156.50057	0.99369
2154.44676	0.99405
2152.39295	0.99395
2150.33914	0.99336
2148.28533	0.99261
2146.23152	0.99232
2144.17771	0.99212
2142.12390	0.99216
2140.07009	0.99247
2138.01628	0.99282
2135.96247	0.99255
2133.90866	0.99150
2131.85485	0.99065
2129.80104	0.99055
2127.74723	0.99104
2125.69342	0.99158
2123.63961	0.99159
2121.58580	0.99118
2119.53199	0.99031
2117.47818	0.98926
2115.42437	0.98925
2113.37056	0.99006
2111.31675	0.99005
2109.26294	0.98952
2107.20913	0.98955
2105.15532	0.98983
2103.10151	0.99031
2101.04770	0.99092
2098.99389	0.99100
2096.94008	0.99073
2094.88627	0.99075
2092.83246	0.99086
2090.77865	0.99065
2088.72484	0.99065
2086.67103	0.99124
2084.61722	0.99139
2082.56341	0.99051
2080.50960	0.98948
2078.45579	0.98951
2076.40198	0.99082
2074.34817	0.99229
2072.29436	0.99297
2070.24055	0.99253
2068.18674	0.99128
2066.13293	0.99035
2064.07912	0.99047
2062.02531	0.99159
2059.97150	0.99265
2057.91769	0.99252
2055.86388	0.99149
2053.81007	0.99037
2051.75626	0.98917
2049.70245	0.98806
2047.64864	0.98793
2045.59483	0.98912
2043.54102	0.99066
2041.48721	0.99109
2039.43340	0.99078
2037.37959	0.99067
2035.32578	0.99067
2033.27197	0.99041
2031.21816	0.99015
2029.16435	0.99152
2027.11054	0.99393
2025.05673	0.99443
2023.00292	0.99291
2020.94911	0.99191
2018.89530	0.99165
2016.84149	0.99144
2014.78768	0.99176
2012.73387	0.99233
2010.68006	0.99290
2008.62625	0.99317
2006.57244	0.99251
2004.51863	0.99116
2002.46482	0.99030
2000.41101	0.99042
1998.35720	0.99075
1996.30339	0.99044
1994.24958	0.99007
1992.19577	0.99015
1990.14196	0.99055
1988.08815	0.99141
1986.03434	0.99188
1983.98053	0.99149
1981.92672	0.99028
1979.87291	0.98918
1977.81910	0.98989
1975.76529	0.99138
1973.71148	0.99169
1971.65767	0.99182
1969.60386	0.99306
1967.55005	0.99427
1965.49624	0.99436
1963.44243	0.99366
1961.38862	0.99261
1959.33481	0.99275
1957.28100	0.99401
1955.22719	0.99419
1953.17338	0.99346
1951.11957	0.99297
1949.06576	0.99300
1947.01195	0.99301
1944.95814	0.99256
1942.90433	0.99241
1940.85052	0.99272
1938.79671	0.99295
1936.74290	0.99324
1934.68909	0.99346
1932.63528	0.99263
1930.58147	0.99129
1928.52766	0.99103
1926.47385	0.99165
1924.42004	0.99177
1922.36623	0.99109
1920.31242	0.99053
1918.25861	0.99047
1916.20479	0.99076
1914.15098	0.99107
1912.09717	0.99095
1910.04336	0.99086
1907.98955	0.99113
1905.93574	0.99083
1903.88193	0.99008
1901.82812	0.99031
1899.77431	0.99154
1897.72050	0.99245
1895.66669	0.99243
1893.61288	0.99199
1891.55907	0.99170
1889.50526	0.99156
1887.45145	0.99168
1885.39764	0.99181
1883.34383	0.99147
1881.29002	0.99119
1879.23621	0.99143
1877.18240	0.99156
1875.12859	0.99101
1873.07478	0.99013
1871.02097	0.98990
1868.96716	0.99047
1866.91335	0.99079
1864.85954	0.99065
1862.80573	0.99071
1860.75192	0.99108
1858.69811	0.99124
1856.64430	0.99090
1854.59049	0.99029
1852.53668	0.98997
1850.48287	0.99021
1848.42906	0.99061
1846.37525	0.99061
1844.32144	0.99033
1842.26763	0.99022
1840.21382	0.99026
1838.16001	0.99025
1836.10620	0.99013
1834.05239	0.99009
1831.99858	0.99005
1829.94477	0.98959
1827.89096	0.98908
1825.83715	0.98908
1823.78334	0.98917
1821.72953	0.98925
1819.67572	0.98948
1817.62191	0.98960
1815.56810	0.98958
1813.51429	0.98955
1811.46048	0.98944
1809.40667	0.98926
1807.35286	0.98909
1805.29905	0.98907
1803.24524	0.98903
1801.19143	0.98859
1799.13762	0.98798
1797.08381	0.98769
1795.03000	0.98761
1792.97619	0.98766
1790.92238	0.98773
1788.86857	0.98735
1786.81476	0.98681
1784.76095	0.98661
1782.70714	0.98648
1780.65333	0.98626
1778.59952	0.98622
1776.54571	0.98617
1774.49190	0.98574
1772.43809	0.98513
1770.38428	0.98469
1768.33047	0.98419
1766.27666	0.98358
1764.22285	0.98303
1762.16904	0.98227
1760.11523	0.98119
1758.06142	0.97993
1756.00761	0.97809
1753.95380	0.97590
1751.89999	0.97357
1749.84618	0.97108
1747.79237	0.96907
1745.73856	0.96763
1743.68475	0.96622
1741.63094	0.96490
1739.57713	0.96410
1737.52332	0.96390
1735.46951	0.96392
1733.41570	0.96390
1731.36189	0.96393
1729.30808	0.96378
1727.25427	0.96339
1725.20046	0.96271
1723.14665	0.96171
1721.09284	0.96084
1719.03903	0.95980
1716.98522	0.95794
1714.93141	0.95616
1712.87760	0.95514
1710.82379	0.95442
1708.76998	0.95375
1706.71617	0.95301
1704.66236	0.95227
1702.60855	0.95145
1700.55474	0.94970
1698.50093	0.94717
1696.44712	0.94427
1694.39331	0.94100
1692.33950	0.93864
1690.28569	0.93629
1688.23188	0.93356
1686.17807	0.93071
1684.12426	0.92609
1682.07045	0.92131
1680.01664	0.91819
1677.96283	0.91554
1675.90902	0.91232
1673.85521	0.90877
1671.80140	0.90594
1669.74759	0.90256
1667.69378	0.89908
1665.63997	0.89676
1663.58616	0.89400
1661.53235	0.89035
1659.47854	0.88745
1657.42473	0.88569
1655.37092	0.88427
1653.31711	0.88104
1651.26330	0.87833
1649.20949	0.87853
1647.15568	0.87890
1645.10187	0.87919
1643.04806	0.88020
1640.99425	0.88125
1638.94044	0.88198
1636.88663	0.88234
1634.83282	0.88237
1632.77901	0.88288
1630.72520	0.88376
1628.67139	0.88452
1626.61758	0.88547
1624.56377	0.88682
1622.50996	0.88829
1620.45614	0.88991
1618.40233	0.89127
1616.34852	0.89193
1614.29471	0.89276
1612.24090	0.89395
1610.18709	0.89474
1608.13328	0.89501
1606.07947	0.89507
1604.02566	0.89499
1601.97185	0.89490
1599.91804	0.89498
1597.86423	0.89502
1595.81042	0.89492
1593.75661	0.89489
1591.70280	0.89494
1589.64899	0.89506
1587.59518	0.89535
1585.54137	0.89588
1583.48756	0.89662
1581.43375	0.89751
1579.37994	0.89854
1577.32613	0.89959
1575.27232	0.90046
1573.21851	0.90152
1571.16470	0.90278
1569.11089	0.90382
1567.05708	0.90455
1565.00327	0.90509
1562.94946	0.90568
1560.89565	0.90622
1558.84184	0.90522
1556.78803	0.90348
1554.73422	0.90289
1552.68041	0.90253
1550.62660	0.90209
1548.57279	0.90172
1546.51898	0.90199
1544.46517	0.90277
1542.41136	0.90369
1540.35755	0.90464
1538.30374	0.90611
1536.24993	0.90802
1534.19612	0.90973
1532.14231	0.91117
1530.08850	0.91296
1528.03469	0.91519
1525.98088	0.91739
1523.92707	0.91904
1521.87326	0.91991
1519.81945	0.92043
1517.76564	0.92130
1515.71183	0.92287
1513.65802	0.92511
1511.60421	0.92765
1509.55040	0.93013
1507.49659	0.93247
1505.44278	0.93467
1503.38897	0.93655
1501.33516	0.93817
1499.28135	0.93932
1497.22754	0.93990
1495.17373	0.94032
1493.11992	0.94072
1491.06611	0.94068
1489.01230	0.94003
1486.95849	0.93906
1484.90468	0.93784
1482.85087	0.93601
1480.79706	0.93332
1478.74325	0.92982
1476.68944	0.92482
1474.63563	0.91669
1472.58182	0.90384
1470.52801	0.88958
1468.47420	0.87732
1466.42039	0.86396
1464.36658	0.84895
1462.31277	0.83842
1460.25896	0.83331
1458.20515	0.82900
1456.15134	0.82463
1454.09753	0.82440
1452.04372	0.82786
1449.98991	0.83514
1447.93610	0.84792
1445.88229	0.86372
1443.82848	0.87717
1441.77467	0.88645
1439.72086	0.89145
1437.66705	0.89324
1435.61324	0.89512
1433.55943	0.90022
1431.50562	0.90697
1429.45181	0.91266
1427.39800	0.91573
1425.34419	0.91672
1423.29038	0.91659
1421.23657	0.91619
1419.18276	0.91570
1417.12895	0.91537
1415.07514	0.91557
1413.02133	0.91597
1410.96752	0.91655
1408.91371	0.91740
1406.85990	0.91847
1404.80609	0.91939
1402.75228	0.92019
1400.69847	0.92099
1398.64466	0.92159
1396.59085	0.92187
1394.53704	0.92178
1392.48323	0.92126
1390.42942	0.92013
1388.37561	0.91709
1386.32180	0.90989
1384.26799	0.89650
1382.21418	0.87379
1380.16037	0.84057
1378.10656	0.80678
1376.05275	0.79184
1373.99894	0.80762
1371.94513	0.84111
1369.89132	0.87099
1367.83751	0.89044
1365.78370	0.89966
1363.72989	0.90204
1361.67608	0.90075
1359.62227	0.89939
1357.56846	0.90121
1355.51465	0.90664
1353.46084	0.91340
1351.40703	0.91911
1349.35322	0.92331
1347.29941	0.92646
1345.24560	0.92892
1343.19179	0.93090
1341.13798	0.93227
1339.08417	0.93288
1337.03036	0.93319
1334.97655	0.93351
1332.92274	0.93343
1330.86893	0.93292
1328.81512	0.93255
1326.76130	0.93272
1324.70749	0.93322
1322.65368	0.93354
1320.59987	0.93344
1318.54606	0.93319
1316.49225	0.93324
1314.43844	0.93353
1312.38463	0.93359
1310.33082	0.93303
1308.27701	0.93179
1306.22320	0.93031
1304.16939	0.92960
1302.11558	0.93013
1300.06177	0.93118
1298.00796	0.93195
1295.95415	0.93251
1293.90034	0.93326
1291.84653	0.93418
1289.79272	0.93501
1287.73891	0.93544
1285.68510	0.93548
1283.63129	0.93549
1281.57748	0.93542
1279.52367	0.93512
1277.46986	0.93477
1275.41605	0.93429
1273.36224	0.93339
1271.30843	0.93227
1269.25462	0.93102
1267.20081	0.92937
1265.14700	0.92742
1263.09319	0.92553
1261.03938	0.92374
1258.98557	0.92225
1256.93176	0.92166
1254.87795	0.92253
1252.82414	0.92447
1250.77033	0.92633
1248.71652	0.92752
1246.66271	0.92832
1244.60890	0.92896
1242.55509	0.92937
1240.50128	0.92976
1238.44747	0.93033
1236.39366	0.93103
1234.33985	0.93166
1232.28604	0.93220
1230.23223	0.93276
1228.17842	0.93327
1226.12461	0.93363
1224.07080	0.93378
1222.01699	0.93382
1219.96318	0.93406
1217.90937	0.93467
1215.85556	0.93549
1213.80175	0.93638
1211.74794	0.93722
1209.69413	0.93783
1207.64032	0.93818
1205.58651	0.93832
1203.53270	0.93853
1201.47889	0.93887
1199.42508	0.93900
1197.37127	0.93871
1195.31746	0.93825
1193.26365	0.93801
1191.20984	0.93786
1189.15603	0.93736
1187.10222	0.93652
1185.04841	0.93562
1182.99460	0.93450
1180.94079	0.93276
1178.88698	0.93040
1176.83317	0.92747
1174.77936	0.92336
1172.72555	0.91752
1170.67174	0.91087
1168.61793	0.90544
1166.56412	0.90291
1164.51031	0.90349
1162.45650	0.90578
1160.40269	0.90811
1158.34888	0.90982
1156.29507	0.91088
1154.24126	0.91154
1152.18745	0.91239
1150.13364	0.91370
1148.07983	0.91506
1146.02602	0.91599
1143.97221	0.91635
1141.91840	0.91611
1139.86459	0.91550
1137.81078	0.91459
1135.75697	0.91313
1133.70316	0.91103
1131.64935	0.90831
1129.59554	0.90519
1127.54173	0.90202
1125.48792	0.89904
1123.43411	0.89650
1121.38030	0.89448
1119.32649	0.89301
1117.27268	0.89225
1115.21887	0.89193
1113.16506	0.89155
1111.11125	0.89101
1109.05744	0.89018
1107.00363	0.88895
1104.94982	0.88777
1102.89601	0.88693
1100.84220	0.88631
1098.78839	0.88596
1096.73458	0.88595
1094.68077	0.88591
1092.62696	0.88576
1090.57315	0.88556
1088.51934	0.88514
1086.46553	0.88463
1084.41172	0.88434
1082.35791	0.88428
1080.30410	0.88435
1078.25029	0.88430
1076.19648	0.88427
1074.14267	0.88444
1072.08886	0.88440
1070.03505	0.88396
1067.98124	0.88351
1065.92743	0.88298
1063.87362	0.88173
1061.81981	0.87989
1059.76600	0.87782
1057.71219	0.87539
1055.65838	0.87244
1053.60457	0.86895
1051.55076	0.86479
1049.49695	0.86001
1047.44314	0.85531
1045.38933	0.85156
1043.33552	0.84913
1041.28171	0.84790
1039.22790	0.84732
1037.17409	0.84695
1035.12028	0.84661
1033.06647	0.84634
1031.01265	0.84643
1028.95884	0.84669
1026.90503	0.84682
1024.85122	0.84661
1022.79741	0.84579
1020.74360	0.84487
1018.68979	0.84486
1016.63598	0.84632
1014.58217	0.84912
1012.52836	0.85245
1010.47455	0.85550
1008.42074	0.85788
1006.36693	0.85942
1004.31312	0.85972
1002.25931	0.85781
1000.20550	0.85370
998.15169	0.85107
996.09788	0.85468
994.04407	0.86395
991.99026	0.87407
989.93645	0.88210
987.88264	0.88776
985.82883	0.89157
983.77502	0.89411
981.72121	0.89497
979.66740	0.89291
977.61359	0.88750
975.55978	0.88032
973.50597	0.87578
971.45216	0.87879
969.39835	0.88890
967.34454	0.90031
965.29073	0.90867
963.23692	0.91382
961.18311	0.91730
959.12930	0.92006
957.07549	0.92214
955.02168	0.92370
952.96787	0.92521
950.91406	0.92660
948.86025	0.92782
946.80644	0.92885
944.75263	0.92949
942.69882	0.92974
940.64501	0.92986
938.59120	0.93019
936.53739	0.93103
934.48358	0.93216
932.42977	0.93308
930.37596	0.93369
928.32215	0.93420
926.26834	0.93450
924.21453	0.93444
922.16072	0.93466
920.10691	0.93540
918.05310	0.93594
915.99929	0.93613
913.94548	0.93612
911.89167	0.93606
909.83786	0.93620
907.78405	0.93632
905.73024	0.93572
903.67643	0.93371
901.62262	0.93076
899.56881	0.92915
897.51500	0.93094
895.46119	0.93508
893.40738	0.93877
891.35357	0.94108
889.29976	0.94266
887.24595	0.94355
885.19214	0.94388
883.13833	0.94397
881.08452	0.94370
879.03071	0.94326
876.97690	0.94285
874.92309	0.94247
872.86928	0.94240
870.81547	0.94262
868.76166	0.94250
866.70785	0.94185
864.65404	0.94095
862.60023	0.93985
860.54642	0.93852
858.49261	0.93742
856.43880	0.93717
854.38499	0.93753
852.33118	0.93772
850.27737	0.93734
848.22356	0.93604
846.16975	0.93235
844.11594	0.92454
842.06213	0.91576
840.00832	0.91448
837.95451	0.92223
835.90070	0.93053
833.84689	0.93462
831.79308	0.93626
829.73927	0.93689
827.68546	0.93704
825.63165	0.93713
823.57784	0.93695
821.52403	0.93611
819.47022	0.93463
817.41641	0.93308
815.36260	0.93127
813.30879	0.92772
811.25498	0.92273
809.20117	0.91887
807.14736	0.91817
805.09355	0.92014
803.03974	0.92215
800.98593	0.92308
798.93212	0.92401
796.87831	0.92523
794.82450	0.92609
792.77069	0.92674
790.71688	0.92759
788.66307	0.92833
786.60926	0.92859
784.55545	0.92858
782.50164	0.92867
780.44783	0.92888
778.39402	0.92888
776.34021	0.92872
774.28640	0.92897
772.23259	0.92980
770.17878	0.93075
768.12497	0.93106
766.07116	0.93058
764.01735	0.93019
761.96354	0.93045
759.90973	0.93077
757.85592	0.93061
755.80211	0.93034
753.74830	0.93017
751.69449	0.92985
749.64068	0.92935
747.58687	0.92895
745.53306	0.92885
743.47925	0.92899
741.42544	0.92907
739.37163	0.92874
737.31781	0.92829
735.26400	0.92811
733.21019	0.92777
731.15638	0.92671
729.10257	0.92513
727.04876	0.92368
724.99495	0.92235
722.94114	0.92053
720.88733	0.91878
718.83352	0.91822
716.77971	0.91880
714.72590	0.91961
712.67209	0.91969
710.61828	0.91899
708.56447	0.91818
706.51066	0.91743
704.45685	0.91653
702.40304	0.91552
700.34923	0.91459
698.29542	0.91339
696.24161	0.91177
694.18780	0.91056
692.13399	0.91012
690.08018	0.91000
688.02637	0.90995
685.97256	0.90980
683.91875	0.90906
681.86494	0.90771
679.81113	0.90660
677.75732	0.90618
675.70351	0.90550
673.64970	0.90404
671.59589	0.90244
669.54208	0.90127
667.48827	0.90165
665.43446	0.90315
663.38065	0.90475
661.32684	0.90640
659.27303	0.90713
657.21922	0.90647
655.16541	0.90557
653.11160	0.90575
651.05779	0.90656
649.00398	0.90679
646.95017	0.90628
644.89636	0.90576
642.84255	0.90604
640.78874	0.90683
638.73493	0.90716
636.68112	0.90666
634.62731	0.90586
632.57350	0.90544
630.51969	0.90492
628.46588	0.90387
626.41207	0.90299
624.35826	0.90268
622.30445	0.90264
620.25064	0.90264
618.19683	0.90269
616.14302	0.90251
614.08921	0.90219
612.03540	0.90230
609.98159	0.90245
607.92778	0.90172
605.87397	0.90008
603.82016	0.89865
601.76635	0.89849
599.71254	0.89894
597.65873	0.89853
595.60492	0.89777
593.55111	0.89753
591.49730	0.89739
589.44349	0.89731
587.38968	0.89731
585.33587	0.89735
583.28206	0.89771
581.22825	0.89794
579.17444	0.89697
577.12063	0.89473
575.06682	0.89270
573.01301	0.89213
570.95920	0.89275
568.90539	0.89306
566.85158	0.89237
564.79777	0.89143
562.74396	0.89059
560.69015	0.89027
558.63634	0.89040
556.58253	0.88981
554.52872	0.88757
552.47491	0.88445
550.42110	0.88226
548.36729	0.88050
546.31348	0.87848
544.25967	0.87764
542.20586	0.87744
540.15205	0.87614
538.09824	0.87445
536.04443	0.87307
533.99062	0.87172
531.93681	0.87105
529.88300	0.87094
527.82919	0.87161
525.77538	0.87347
523.72157	0.87485
521.66776	0.87559
519.61395	0.87683
517.56014	0.87761
515.50633	0.87777
513.45252	0.87907
511.39871	0.88073
509.34490	0.88122
507.29109	0.88079
505.23728	0.88075
503.18347	0.88229
501.12966	0.88422
499.07585	0.88463
497.02204	0.88392
494.96823	0.88319
492.91442	0.88329
490.86061	0.88355
488.80680	0.88273
486.75299	0.88150
484.69918	0.87963
482.64537	0.87656
480.59156	0.87269
478.53775	0.86888
476.48394	0.86641
474.43013	0.86331
472.37632	0.85735
470.32251	0.85004
468.26870	0.84368
466.21489	0.84017
464.16108	0.83955
462.10727	0.83988
460.05346	0.84047
457.99965	0.84268
455.94584	0.84692
453.89203	0.85093
451.83822	0.85340
449.78441	0.85392
447.73060	0.85381
445.67679	0.85561
443.62298	0.85889
441.56916	0.86117
439.51535	0.86299
437.46154	0.86567
435.40773	0.86683
433.35392	0.86602
431.30011	0.86618
429.24630	0.86604
427.19249	0.86423
425.13868	0.86338
423.08487	0.86470
421.03106	0.86788
418.97725	0.87397
416.92344	0.88046
414.86963	0.88428
412.81582	0.88556
410.76201	0.88517
408.70820	0.88399
406.65439	0.88193
404.60058	0.88113
402.54677	0.88259
400.49296	0.88506
398.43915	0.88679
