3996.70104	0.98373
3994.64724	0.98384
3992.59344	0.98410
3990.53964	0.98459
3988.48583	0.98470
3986.43203	0.98435
3984.37823	0.98408
3982.32442	0.98410
3980.27062	0.98413
3978.21682	0.98401
3976.16301	0.98382
3974.10921	0.98395
3972.05541	0.98442
3970.00160	0.98467
3967.94780	0.98436
3965.89400	0.98378
3963.84019	0.98369
3961.78639	0.98399
3959.73259	0.98414
3957.67878	0.98413
3955.62498	0.98408
3953.57118	0.98416
3951.51737	0.98422
3949.46357	0.98428
3947.40977	0.98459
3945.35596	0.98471
3943.30216	0.98432
3941.24836	0.98378
3939.19455	0.98343
3937.14075	0.98345
3935.08695	0.98413
3933.03315	0.98521
3930.97934	0.98545
3928.92554	0.98479
3926.87174	0.98460
3924.81793	0.98456
3922.76413	0.98383
3920.71033	0.98355
3918.65652	0.98443
3916.60272	0.98506
3914.54892	0.98470
3912.49511	0.98424
3910.44131	0.98395
3908.38751	0.98381
3906.33370	0.98349
3904.27990	0.98267
3902.22610	0.98244
3900.17229	0.98317
3898.11849	0.98373
3896.06469	0.98412
3894.01088	0.98457
3891.95708	0.98482
3889.90328	0.98489
3887.84947	0.98497
3885.79567	0.98505
3883.74187	0.98467
3881.68807	0.98380
3879.63426	0.98374
3877.58046	0.98434
3875.52666	0.98412
3873.47285	0.98364
3871.41905	0.98424
3869.36525	0.98505
3867.31144	0.98460
3865.25764	0.98379
3863.20384	0.98347
3861.15003	0.98333
3859.09623	0.98324
3857.04243	0.98319
3854.98862	0.98315
3852.93482	0.98366
3850.88102	0.98466
3848.82721	0.98531
3846.77341	0.98533
3844.71961	0.98488
3842.66580	0.98463
3840.61200	0.98457
3838.55820	0.98443
3836.50439	0.98459
3834.45059	0.98471
3832.39679	0.98463
3830.34298	0.98485
3828.28918	0.98520
3826.23538	0.98525
3824.18158	0.98510
3822.12777	0.98492
3820.07397	0.98483
3818.02017	0.98500
3815.96636	0.98534
3813.91256	0.98548
3811.85876	0.98543
3809.80495	0.98538
3807.75115	0.98542
3805.69735	0.98574
3803.64354	0.98576
3801.58974	0.98505
3799.53594	0.98411
3797.48213	0.98368
3795.42833	0.98399
3793.37453	0.98449
3791.32072	0.98470
3789.26692	0.98478
3787.21312	0.98500
3785.15931	0.98581
3783.10551	0.98641
3781.05171	0.98580
3778.99790	0.98494
3776.94410	0.98465
3774.89030	0.98461
3772.83650	0.98473
3770.78269	0.98478
3768.72889	0.98463
3766.67509	0.98467
3764.62128	0.98499
3762.56748	0.98507
3760.51368	0.98492
3758.45987	0.98533
3756.40607	0.98607
3754.35227	0.98606
3752.29846	0.98569
3750.24466	0.98598
3748.19086	0.98623
3746.13705	0.98620
3744.08325	0.98636
3742.02945	0.98611
3739.97564	0.98555
3737.92184	0.98487
3735.86804	0.98370
3733.81423	0.98352
3731.76043	0.98507
3729.70663	0.98632
3727.65282	0.98657
3725.59902	0.98649
3723.54522	0.98666
3721.49141	0.98609
3719.43761	0.98425
3717.38381	0.98213
3715.33001	0.98020
3713.27620	0.97804
3711.22240	0.97569
3709.16860	0.97401
3707.11479	0.97231
3705.06099	0.96987
3703.00719	0.96714
3700.95338	0.96403
3698.89958	0.96063
3696.84578	0.95879
3694.79197	0.95911
3692.73817	0.96001
3690.68437	0.96137
3688.63056	0.96452
3686.57676	0.96722
3684.52296	0.96787
3682.46915	0.96746
3680.41535	0.96693
3678.36155	0.96668
3676.30774	0.96697
3674.25394	0.96747
3672.20014	0.96664
3670.14633	0.96548
3668.09253	0.96535
3666.03873	0.96507
3663.98492	0.96420
3661.93112	0.96332
3659.87732	0.96251
3657.82352	0.96168
3655.76971	0.96118
3653.71591	0.96046
3651.66211	0.95927
3649.60830	0.95931
3647.55450	0.96085
3645.50070	0.96092
3643.44689	0.95968
3641.39309	0.95855
3639.33929	0.95814
3637.28548	0.95751
3635.23168	0.95617
3633.17788	0.95483
3631.12407	0.95424
3629.07027	0.95465
3627.01647	0.95432
3624.96266	0.95254
3622.90886	0.95046
3620.85506	0.94864
3618.80125	0.94853
3616.74745	0.95012
3614.69365	0.95151
3612.63984	0.95246
3610.58604	0.95262
3608.53224	0.95267
3606.47844	0.95360
3604.42463	0.95430
3602.37083	0.95420
3600.31703	0.95359
3598.26322	0.95315
3596.20942	0.95354
3594.15562	0.95410
3592.10181	0.95394
3590.04801	0.95313
3587.99421	0.95254
3585.94040	0.95319
3583.88660	0.95391
3581.83280	0.95352
3579.77899	0.95216
3577.72519	0.95108
3575.67139	0.95119
3573.61758	0.95172
3571.56378	0.95158
3569.50998	0.95078
3567.45617	0.95031
3565.40237	0.95070
3563.34857	0.95082
3561.29476	0.95027
3559.24096	0.94931
3557.18716	0.94857
3555.13335	0.94852
3553.07955	0.94870
3551.02575	0.94834
3548.97195	0.94760
3546.91814	0.94721
3544.86434	0.94675
3542.81054	0.94589
3540.75673	0.94593
3538.70293	0.94689
3536.64913	0.94746
3534.59532	0.94706
3532.54152	0.94642
3530.48772	0.94620
3528.43391	0.94621
3526.38011	0.94614
3524.32631	0.94600
3522.27250	0.94584
3520.21870	0.94552
3518.16490	0.94520
3516.11109	0.94522
3514.05729	0.94531
3512.00349	0.94507
3509.94968	0.94493
3507.89588	0.94499
3505.84208	0.94459
3503.78827	0.94453
3501.73447	0.94510
3499.68067	0.94496
3497.62687	0.94455
3495.57306	0.94467
3493.51926	0.94464
3491.46546	0.94415
3489.41165	0.94367
3487.35785	0.94342
3485.30405	0.94310
3483.25024	0.94288
3481.19644	0.94309
3479.14264	0.94320
3477.08883	0.94290
3475.03503	0.94248
3472.98123	0.94204
3470.92742	0.94160
3468.87362	0.94149
3466.81982	0.94170
3464.76601	0.94165
3462.71221	0.94122
3460.65841	0.94090
3458.60460	0.94096
3456.55080	0.94107
3454.49700	0.94085
3452.44319	0.94026
3450.38939	0.93975
3448.33559	0.93940
3446.28178	0.93886
3444.22798	0.93822
3442.17418	0.93776
3440.12038	0.93790
3438.06657	0.93859
3436.01277	0.93906
3433.95897	0.93855
3431.90516	0.93733
3429.85136	0.93664
3427.79756	0.93651
3425.74375	0.93616
3423.68995	0.93611
3421.63615	0.93668
3419.58234	0.93670
3417.52854	0.93587
3415.47474	0.93501
3413.42093	0.93406
3411.36713	0.93304
3409.31333	0.93276
3407.25952	0.93290
3405.20572	0.93252
3403.15192	0.93219
3401.09811	0.93239
3399.04431	0.93201
3396.99051	0.93104
3394.93670	0.93081
3392.88290	0.93117
3390.82910	0.93142
3388.77529	0.93136
3386.72149	0.93122
3384.66769	0.93157
3382.61389	0.93210
3380.56008	0.93201
3378.50628	0.93160
3376.45248	0.93146
3374.39867	0.93149
3372.34487	0.93172
3370.29107	0.93235
3368.23726	0.93296
3366.18346	0.93302
3364.12966	0.93262
3362.07585	0.93232
3360.02205	0.93224
3357.96825	0.93221
3355.91444	0.93248
3353.86064	0.93300
3351.80684	0.93329
3349.75303	0.93349
3347.69923	0.93386
3345.64543	0.93392
3343.59162	0.93365
3341.53782	0.93348
3339.48402	0.93342
3337.43021	0.93375
3335.37641	0.93435
3333.32261	0.93467
3331.26881	0.93457
3329.21500	0.93414
3327.16120	0.93405
3325.10740	0.93458
3323.05359	0.93492
3320.99979	0.93454
3318.94599	0.93429
3316.89218	0.93466
3314.83838	0.93486
3312.78458	0.93462
3310.73077	0.93454
3308.67697	0.93503
3306.62317	0.93567
3304.56936	0.93585
3302.51556	0.93538
3300.46176	0.93485
3298.40795	0.93513
3296.35415	0.93577
3294.30035	0.93590
3292.24654	0.93596
3290.19274	0.93637
3288.13894	0.93664
3286.08513	0.93676
3284.03133	0.93710
3281.97753	0.93732
3279.92372	0.93697
3277.86992	0.93663
3275.81612	0.93674
3273.76232	0.93678
3271.70851	0.93657
3269.65471	0.93670
3267.60091	0.93734
3265.54710	0.93795
3263.49330	0.93813
3261.43950	0.93821
3259.38569	0.93881
3257.33189	0.93931
3255.27809	0.93935
3253.22428	0.93960
3251.17048	0.93990
3249.11668	0.94006
3247.06287	0.94051
3245.00907	0.94092
3242.95527	0.94062
3240.90146	0.94008
3238.84766	0.94027
3236.79386	0.94100
3234.74005	0.94128
3232.68625	0.94125
3230.63245	0.94140
3228.57864	0.94163
3226.52484	0.94219
3224.47104	0.94274
3222.41724	0.94265
3220.36343	0.94247
3218.30963	0.94299
3216.25583	0.94396
3214.20202	0.94461
3212.14822	0.94483
3210.09442	0.94474
3208.04061	0.94440
3205.98681	0.94418
3203.93301	0.94437
3201.87920	0.94486
3199.82540	0.94539
3197.77160	0.94590
3195.71779	0.94623
3193.66399	0.94616
3191.61019	0.94589
3189.55638	0.94596
3187.50258	0.94662
3185.44878	0.94739
3183.39497	0.94787
3181.34117	0.94832
3179.28737	0.94895
3177.23356	0.94956
3175.17976	0.94978
3173.12596	0.94981
3171.07215	0.95019
3169.01835	0.95071
3166.96455	0.95091
3164.91075	0.95082
3162.85694	0.95095
3160.80314	0.95166
3158.74934	0.95265
3156.69553	0.95328
3154.64173	0.95355
3152.58793	0.95383
3150.53412	0.95417
3148.48032	0.95441
3146.42652	0.95436
3144.37271	0.95443
3142.31891	0.95493
3140.26511	0.95528
3138.21130	0.95530
3136.15750	0.95542
3134.10370	0.95558
3132.04989	0.95565
3129.99609	0.95559
3127.94229	0.95555
3125.88848	0.95599
3123.83468	0.95680
3121.78088	0.95750
3119.72707	0.95797
3117.67327	0.95808
3115.61947	0.95782
3113.56566	0.95769
3111.51186	0.95807
3109.45806	0.95842
3107.40426	0.95836
3105.35045	0.95850
3103.29665	0.95889
3101.24285	0.95917
3099.18904	0.95965
3097.13524	0.96029
3095.08144	0.96070
3093.02763	0.96098
3090.97383	0.96112
3088.92003	0.96105
3086.86622	0.96122
3084.81242	0.96155
3082.75862	0.96141
3080.70481	0.96132
3078.65101	0.96193
3076.59721	0.96249
3074.54340	0.96262
3072.48960	0.96252
3070.43580	0.96223
3068.38199	0.96228
3066.32819	0.96275
3064.27439	0.96326
3062.22058	0.96362
3060.16678	0.96374
3058.11298	0.96366
3056.05918	0.96358
3054.00537	0.96380
3051.95157	0.96433
3049.89777	0.96495
3047.84396	0.96520
3045.79016	0.96506
3043.73636	0.96500
3041.68255	0.96530
3039.62875	0.96587
3037.57495	0.96618
3035.52114	0.96601
3033.46734	0.96586
3031.41354	0.96596
3029.35973	0.96626
3027.30593	0.96678
3025.25213	0.96719
3023.19832	0.96720
3021.14452	0.96723
3019.09072	0.96752
3017.03691	0.96772
3014.98311	0.96779
3012.92931	0.96766
3010.87550	0.96738
3008.82170	0.96763
3006.76790	0.96859
3004.71409	0.96928
3002.66029	0.96893
3000.60649	0.96821
2998.55269	0.96775
2996.49888	0.96743
2994.44508	0.96718
2992.39128	0.96733
2990.33747	0.96798
2988.28367	0.96822
2986.22987	0.96772
2984.17606	0.96717
2982.12226	0.96652
2980.06846	0.96544
2978.01465	0.96433
2975.96085	0.96333
2973.90705	0.96202
2971.85324	0.96013
2969.79944	0.95765
2967.74564	0.95492
2965.69183	0.95203
2963.63803	0.94851
2961.58423	0.94503
2959.53042	0.94282
2957.47662	0.94157
2955.42282	0.94021
2953.36901	0.93882
2951.31521	0.93828
2949.26141	0.93881
2947.20761	0.93999
2945.15380	0.94150
2943.10000	0.94313
2941.04620	0.94428
2938.99239	0.94421
2936.93859	0.94258
2934.88479	0.93966
2932.83098	0.93609
2930.77718	0.93189
2928.72338	0.92692
2926.66957	0.92150
2924.61577	0.91562
2922.56197	0.90940
2920.50816	0.90358
2918.45436	0.89903
2916.40056	0.89711
2914.34675	0.89976
2912.29295	0.90656
2910.23915	0.91440
2908.18534	0.92107
2906.13154	0.92624
2904.07774	0.93035
2902.02393	0.93386
2899.97013	0.93679
2897.91633	0.93931
2895.86252	0.94174
2893.80872	0.94382
2891.75492	0.94521
2889.70112	0.94626
2887.64731	0.94756
2885.59351	0.94879
2883.53971	0.94931
2881.48590	0.94943
2879.43210	0.94941
2877.37830	0.94907
2875.32449	0.94885
2873.27069	0.94893
2871.21689	0.94878
2869.16308	0.94836
2867.10928	0.94815
2865.05548	0.94831
2863.00167	0.94870
2860.94787	0.94910
2858.89407	0.94888
2856.84026	0.94712
2854.78646	0.94324
2852.73266	0.93754
2850.67885	0.93219
2848.62505	0.93093
2846.57125	0.93495
2844.51744	0.94108
2842.46364	0.94589
2840.40984	0.94867
2838.35603	0.95041
2836.30223	0.95233
2834.24843	0.95503
2832.19463	0.95838
2830.14082	0.96196
2828.08702	0.96513
2826.03322	0.96736
2823.97941	0.96871
2821.92561	0.96964
2819.87181	0.97010
2817.81800	0.97001
2815.76420	0.96996
2813.71040	0.97062
2811.65659	0.97163
2809.60279	0.97224
2807.54899	0.97251
2805.49518	0.97267
2803.44138	0.97290
2801.38758	0.97325
2799.33377	0.97357
2797.27997	0.97371
2795.22617	0.97369
2793.17236	0.97387
2791.11856	0.97447
2789.06476	0.97498
2787.01095	0.97489
2784.95715	0.97455
2782.90335	0.97460
2780.84955	0.97516
2778.79574	0.97580
2776.74194	0.97600
2774.68814	0.97596
2772.63433	0.97626
2770.58053	0.97663
2768.52673	0.97650
2766.47292	0.97643
2764.41912	0.97671
2762.36532	0.97685
2760.31151	0.97676
2758.25771	0.97687
2756.20391	0.97727
2754.15010	0.97755
2752.09630	0.97759
2750.04250	0.97755
2747.98869	0.97760
2745.93489	0.97758
2743.88109	0.97741
2741.82728	0.97749
2739.77348	0.97768
2737.71968	0.97773
2735.66587	0.97770
2733.61207	0.97747
2731.55827	0.97721
2729.50446	0.97714
2727.45066	0.97710
2725.39686	0.97716
2723.34306	0.97743
2721.28925	0.97770
2719.23545	0.97801
2717.18165	0.97834
2715.12784	0.97844
2713.07404	0.97828
2711.02024	0.97813
2708.96643	0.97814
2706.91263	0.97827
2704.85883	0.97843
2702.80502	0.97858
2700.75122	0.97874
2698.69742	0.97891
2696.64361	0.97894
2694.58981	0.97892
2692.53601	0.97912
2690.48220	0.97936
2688.42840	0.97930
2686.37460	0.97923
2684.32079	0.97957
2682.26699	0.97978
2680.21319	0.97956
2678.15938	0.97963
2676.10558	0.97980
2674.05178	0.97940
2671.99797	0.97902
2669.94417	0.97919
2667.89037	0.97943
2665.83657	0.97942
2663.78276	0.97930
2661.72896	0.97924
2659.67516	0.97937
2657.62135	0.97971
2655.56755	0.97988
2653.51375	0.97973
2651.45994	0.97958
2649.40614	0.97962
2647.35234	0.97982
2645.29853	0.98005
2643.24473	0.98005
2641.19093	0.97988
2639.13712	0.97971
2637.08332	0.97971
2635.02952	0.98018
2632.97571	0.98077
2630.92191	0.98091
2628.86811	0.98054
2626.81430	0.98001
2624.76050	0.97992
2622.70670	0.98035
2620.65289	0.98070
2618.59909	0.98083
2616.54529	0.98083
2614.49149	0.98088
2612.43768	0.98091
2610.38388	0.98072
2608.33008	0.98046
2606.27627	0.98023
2604.22247	0.98035
2602.16867	0.98090
2600.11486	0.98105
2598.06106	0.98086
2596.00726	0.98100
2593.95345	0.98124
2591.89965	0.98148
2589.84585	0.98164
2587.79204	0.98147
2585.73824	0.98166
2583.68444	0.98227
2581.63063	0.98246
2579.57683	0.98238
2577.52303	0.98230
2575.46922	0.98189
2573.41542	0.98142
2571.36162	0.98142
2569.30781	0.98157
2567.25401	0.98150
2565.20021	0.98142
2563.14640	0.98155
2561.09260	0.98198
2559.03880	0.98249
2556.98500	0.98252
2554.93119	0.98242
2552.87739	0.98278
2550.82359	0.98294
2548.76978	0.98268
2546.71598	0.98272
2544.66218	0.98284
2542.60837	0.98276
2540.55457	0.98288
2538.50077	0.98320
2536.44696	0.98296
2534.39316	0.98242
2532.33936	0.98273
2530.28555	0.98343
2528.23175	0.98354
2526.17795	0.98332
2524.12414	0.98321
2522.07034	0.98323
2520.01654	0.98291
2517.96273	0.98214
2515.90893	0.98187
2513.85513	0.98258
2511.80132	0.98348
2509.74752	0.98359
2507.69372	0.98316
2505.63992	0.98308
2503.58611	0.98337
2501.53231	0.98358
2499.47851	0.98351
2497.42470	0.98325
2495.37090	0.98317
2493.31710	0.98340
2491.26329	0.98357
2489.20949	0.98337
2487.15569	0.98317
2485.10188	0.98327
2483.04808	0.98343
2480.99428	0.98345
2478.94047	0.98363
2476.88667	0.98413
2474.83287	0.98459
2472.77906	0.98459
2470.72526	0.98424
2468.67146	0.98410
2466.61765	0.98413
2464.56385	0.98405
2462.51005	0.98452
2460.45624	0.98514
2458.40244	0.98463
2456.34864	0.98365
2454.29483	0.98333
2452.24103	0.98368
2450.18723	0.98389
2448.13343	0.98373
2446.07962	0.98380
2444.02582	0.98385
2441.97202	0.98369
2439.91821	0.98373
2437.86441	0.98373
2435.81061	0.98338
2433.75680	0.98310
2431.70300	0.98353
2429.64920	0.98449
2427.59539	0.98491
2425.54159	0.98484
2423.48779	0.98506
2421.43398	0.98507
2419.38018	0.98448
2417.32638	0.98392
2415.27257	0.98349
2413.21877	0.98326
2411.16497	0.98350
2409.11116	0.98395
2407.05736	0.98380
2405.00356	0.98302
2402.94975	0.98321
2400.89595	0.98440
2398.84215	0.98511
2396.78834	0.98496
2394.73454	0.98401
2392.68074	0.98303
2390.62694	0.98305
2388.57313	0.98370
2386.51933	0.98411
2384.46553	0.98417
2382.41172	0.98400
2380.35792	0.98366
2378.30412	0.98348
2376.25031	0.98358
2374.19651	0.98383
2372.14271	0.98395
2370.08890	0.98363
2368.03510	0.98313
2365.98130	0.98307
2363.92749	0.98369
2361.87369	0.98415
2359.81989	0.98262
2357.76608	0.98094
2355.71228	0.98168
2353.65848	0.98236
2351.60467	0.98205
2349.55087	0.98189
2347.49707	0.98206
2345.44326	0.98228
2343.38946	0.98224
2341.33566	0.98243
2339.28186	0.98252
2337.22805	0.98199
2335.17425	0.98180
2333.12045	0.98208
2331.06664	0.98218
2329.01284	0.98232
2326.95904	0.98212
2324.90523	0.98155
2322.85143	0.98158
2320.79763	0.98212
2318.74382	0.98276
2316.69002	0.98339
2314.63622	0.98311
2312.58241	0.98220
2310.52861	0.98204
2308.47481	0.98261
2306.42100	0.98316
2304.36720	0.98346
2302.31340	0.98342
2300.25959	0.98331
2298.20579	0.98343
2296.15199	0.98343
2294.09818	0.98342
2292.04438	0.98361
2289.99058	0.98338
2287.93677	0.98295
2285.88297	0.98316
2283.82917	0.98357
2281.77537	0.98401
2279.72156	0.98498
2277.66776	0.98610
2275.61396	0.98663
2273.56015	0.98627
2271.50635	0.98554
2269.45255	0.98525
2267.39874	0.98514
2265.34494	0.98458
2263.29114	0.98385
2261.23733	0.98385
2259.18353	0.98445
2257.12973	0.98441
2255.07592	0.98405
2253.02212	0.98513
2250.96832	0.98719
2248.91451	0.98781
2246.86071	0.98650
2244.80691	0.98525
2242.75310	0.98520
2240.69930	0.98545
2238.64550	0.98585
2236.59169	0.98712
2234.53789	0.98795
2232.48409	0.98708
2230.43029	0.98627
2228.37648	0.98664
2226.32268	0.98702
2224.26888	0.98583
2222.21507	0.98339
2220.16127	0.98220
2218.10747	0.98261
2216.05366	0.98263
2213.99986	0.98177
2211.94606	0.98141
2209.89225	0.98195
2207.83845	0.98264
2205.78465	0.98379
2203.73084	0.98415
2201.67704	0.98344
2199.62324	0.98339
2197.56943	0.98355
2195.51563	0.98475
2193.46183	0.98728
2191.40802	0.98831
2189.35422	0.98664
2187.30042	0.98446
2185.24661	0.98485
2183.19281	0.98649
2181.13901	0.98771
2179.08520	0.98930
2177.03140	0.98933
2174.97760	0.98801
2172.92380	0.98782
2170.86999	0.98764
2168.81619	0.98729
2166.76239	0.98794
2164.70858	0.98805
2162.65478	0.98837
2160.60098	0.99004
2158.54717	0.99015
2156.49337	0.98930
2154.43957	0.98856
2152.38576	0.98676
2150.33196	0.98610
2148.27816	0.98783
2146.22435	0.98891
2144.17055	0.98840
2142.11675	0.98866
2140.06294	0.98890
2138.00914	0.98724
2135.95534	0.98574
2133.90153	0.98635
2131.84773	0.98715
2129.79393	0.98675
2127.74012	0.98612
2125.68632	0.98590
2123.63252	0.98595
2121.57871	0.98626
2119.52491	0.98630
2117.47111	0.98591
2115.41731	0.98545
2113.36350	0.98468
2111.30970	0.98393
2109.25590	0.98345
2107.20209	0.98331
2105.14829	0.98434
2103.09449	0.98602
2101.04068	0.98635
2098.98688	0.98587
2096.93308	0.98682
2094.87927	0.98821
2092.82547	0.98782
2090.77167	0.98721
2088.71786	0.98768
2086.66406	0.98712
2084.61026	0.98543
2082.55645	0.98422
2080.50265	0.98408
2078.44885	0.98523
2076.39504	0.98660
2074.34124	0.98683
2072.28744	0.98643
2070.23363	0.98689
2068.17983	0.98812
2066.12603	0.98817
2064.07223	0.98758
2062.01842	0.98857
2059.96462	0.98984
2057.91082	0.98868
2055.85701	0.98618
2053.80321	0.98573
2051.74941	0.98688
2049.69560	0.98719
2047.64180	0.98718
2045.58800	0.98778
2043.53419	0.98814
2041.48039	0.98789
2039.42659	0.98762
2037.37278	0.98685
2035.31898	0.98667
2033.26518	0.98927
2031.21137	0.99228
2029.15757	0.99185
2027.10377	0.98959
2025.04996	0.98900
2022.99616	0.98831
2020.94236	0.98564
2018.88855	0.98347
2016.83475	0.98498
2014.78095	0.98877
2012.72714	0.99003
2010.67334	0.98814
2008.61954	0.98715
2006.56574	0.98913
2004.51193	0.99068
2002.45813	0.99064
2000.40433	0.99079
1998.35052	0.98995
1996.29672	0.98813
1994.24292	0.98720
1992.18911	0.98647
1990.13531	0.98523
1988.08151	0.98523
1986.02770	0.98760
1983.97390	0.99034
1981.92010	0.99070
1979.86629	0.98894
1977.81249	0.98707
1975.75869	0.98623
1973.70488	0.98632
1971.65108	0.98730
1969.59728	0.98713
1967.54347	0.98511
1965.48967	0.98527
1963.43587	0.98717
1961.38206	0.98748
1959.32826	0.98666
1957.27446	0.98643
1955.22066	0.98669
1953.16685	0.98678
1951.11305	0.98663
1949.05925	0.98582
1947.00544	0.98557
1944.95164	0.98663
1942.89784	0.98698
1940.84403	0.98628
1938.79023	0.98610
1936.73643	0.98624
1934.68262	0.98622
1932.62882	0.98654
1930.57502	0.98740
1928.52121	0.98751
1926.46741	0.98652
1924.41361	0.98646
1922.35980	0.98699
1920.30600	0.98640
1918.25220	0.98578
1916.19839	0.98622
1914.14459	0.98694
1912.09079	0.98722
1910.03698	0.98698
1907.98318	0.98629
1905.92938	0.98572
1903.87557	0.98550
1901.82177	0.98575
1899.76797	0.98610
1897.71417	0.98568
1895.66036	0.98510
1893.60656	0.98530
1891.55276	0.98567
1889.49895	0.98553
1887.44515	0.98506
1885.39135	0.98495
1883.33754	0.98585
1881.28374	0.98715
1879.22994	0.98716
1877.17613	0.98601
1875.12233	0.98537
1873.06853	0.98514
1871.01472	0.98460
1868.96092	0.98469
1866.90712	0.98543
1864.85331	0.98589
1862.79951	0.98646
1860.74571	0.98702
1858.69190	0.98703
1856.63810	0.98650
1854.58430	0.98613
1852.53049	0.98630
1850.47669	0.98650
1848.42289	0.98683
1846.36908	0.98723
1844.31528	0.98698
1842.26148	0.98660
1840.20768	0.98649
1838.15387	0.98636
1836.10007	0.98637
1834.04627	0.98634
1831.99246	0.98623
1829.93866	0.98655
1827.88486	0.98701
1825.83105	0.98699
1823.77725	0.98671
1821.72345	0.98641
1819.66964	0.98621
1817.61584	0.98639
1815.56204	0.98665
1813.50823	0.98662
1811.45443	0.98666
1809.40063	0.98678
1807.34682	0.98649
1805.29302	0.98583
1803.23922	0.98529
1801.18541	0.98531
1799.13161	0.98550
1797.07781	0.98529
1795.02400	0.98510
1792.97020	0.98538
1790.91640	0.98532
1788.86260	0.98470
1786.80879	0.98427
1784.75499	0.98444
1782.70119	0.98515
1780.64738	0.98550
1778.59358	0.98480
1776.53978	0.98389
1774.48597	0.98374
1772.43217	0.98407
1770.37837	0.98386
1768.32456	0.98327
1766.27076	0.98302
1764.21696	0.98329
1762.16315	0.98371
1760.10935	0.98345
1758.05555	0.98268
1756.00174	0.98208
1753.94794	0.98163
1751.89414	0.98124
1749.84033	0.98096
1747.78653	0.98039
1745.73273	0.97916
1743.67892	0.97765
1741.62512	0.97660
1739.57132	0.97601
1737.51751	0.97541
1735.46371	0.97481
1733.40991	0.97443
1731.35611	0.97441
1729.30230	0.97433
1727.24850	0.97402
1725.19470	0.97373
1723.14089	0.97337
1721.08709	0.97288
1719.03329	0.97274
1716.97948	0.97307
1714.92568	0.97273
1712.87188	0.97185
1710.81807	0.97100
1708.76427	0.96989
1706.71047	0.96851
1704.65666	0.96749
1702.60286	0.96663
1700.54906	0.96531
1698.49525	0.96397
1696.44145	0.96323
1694.38765	0.96243
1692.33384	0.96100
1690.28004	0.95887
1688.22624	0.95674
1686.17243	0.95564
1684.11863	0.95488
1682.06483	0.95313
1680.01103	0.95133
1677.95722	0.94994
1675.90342	0.94885
1673.84962	0.94786
1671.79581	0.94659
1669.74201	0.94508
1667.68821	0.94361
1665.63440	0.94196
1663.58060	0.94048
1661.52680	0.93970
1659.47299	0.93880
1657.41919	0.93740
1655.36539	0.93593
1653.31158	0.93489
1651.25778	0.93444
1649.20398	0.93367
1647.15017	0.93312
1645.09637	0.93316
1643.04257	0.93303
1640.98876	0.93242
1638.93496	0.93130
1636.88116	0.93050
1634.82735	0.93095
1632.77355	0.93124
1630.71975	0.93109
1628.66594	0.93116
1626.61214	0.93130
1624.55834	0.93139
1622.50454	0.93172
1620.45073	0.93208
1618.39693	0.93280
1616.34313	0.93485
1614.28932	0.93708
1612.23552	0.93881
1610.18172	0.94076
1608.12791	0.94266
1606.07411	0.94411
1604.02031	0.94541
1601.96650	0.94674
1599.91270	0.94786
1597.85890	0.94862
1595.80509	0.94888
1593.75129	0.94862
1591.69749	0.94840
1589.64368	0.94818
1587.58988	0.94714
1585.53608	0.94514
1583.48227	0.94240
1581.42847	0.93883
1579.37467	0.93511
1577.32086	0.93245
1575.26706	0.93199
1573.21326	0.93278
1571.15945	0.93446
1569.10565	0.93803
1567.05185	0.94116
1564.99805	0.94267
1562.94424	0.94334
1560.89044	0.94347
1558.83664	0.94453
1556.78283	0.94584
1554.72903	0.94518
1552.67523	0.94377
1550.62142	0.94203
1548.56762	0.93965
1546.51382	0.93648
1544.46001	0.93235
1542.40621	0.92812
1540.35241	0.92621
1538.29860	0.92824
1536.24480	0.93120
1534.19100	0.93557
1532.13719	0.94122
1530.08339	0.94499
1528.02959	0.94765
1525.97578	0.95044
1523.92198	0.95266
1521.86818	0.95449
1519.81437	0.95618
1517.76057	0.95769
1515.70677	0.95956
1513.65297	0.96105
1511.59916	0.96175
1509.54536	0.96192
1507.49156	0.96297
1505.43775	0.96532
1503.38395	0.96629
1501.33015	0.96681
1499.27634	0.96741
1497.22254	0.96810
1495.16874	0.96847
1493.11493	0.96827
1491.06113	0.96791
1489.00733	0.96755
1486.95352	0.96668
1484.89972	0.96507
1482.84592	0.96287
1480.79211	0.95984
1478.73831	0.95615
1476.68451	0.95231
1474.63070	0.94848
1472.57690	0.94452
1470.52310	0.94129
1468.46929	0.93879
1466.41549	0.93622
1464.36169	0.93419
1462.30788	0.93334
1460.25408	0.93295
1458.20028	0.93294
1456.14648	0.93403
1454.09267	0.93523
1452.03887	0.93642
1449.98507	0.93827
1447.93126	0.94107
1445.87746	0.94413
1443.82366	0.94641
1441.76985	0.94776
1439.71605	0.94813
1437.66225	0.94779
1435.60844	0.94731
1433.55464	0.94775
1431.50084	0.94950
1429.44703	0.95150
1427.39323	0.95224
1425.33943	0.95199
1423.28562	0.95154
1421.23182	0.95128
1419.17802	0.95140
1417.12421	0.95161
1415.07041	0.95181
1413.01661	0.95248
1410.96280	0.95366
1408.90900	0.95476
1406.85520	0.95563
1404.80139	0.95674
1402.74759	0.95772
1400.69379	0.95831
1398.63999	0.95898
1396.58618	0.95970
1394.53238	0.96035
1392.47858	0.96070
1390.42477	0.96072
1388.37097	0.96047
1386.31717	0.95937
1384.26336	0.95681
1382.20956	0.95232
1380.15576	0.94523
1378.10195	0.93695
1376.04815	0.93207
1373.99435	0.93476
1371.94054	0.94246
1369.88674	0.94945
1367.83294	0.95399
1365.77913	0.95609
1363.72533	0.95677
1361.67153	0.95703
1359.61772	0.95732
1357.56392	0.95793
1355.51012	0.95900
1353.45631	0.96022
1351.40251	0.96125
1349.34871	0.96216
1347.29491	0.96298
1345.24110	0.96348
1343.18730	0.96379
1341.13350	0.96398
1339.07969	0.96402
1337.02589	0.96406
1334.97209	0.96420
1332.91828	0.96425
1330.86448	0.96402
1328.81068	0.96382
1326.75687	0.96372
1324.70307	0.96367
1322.64927	0.96371
1320.59546	0.96363
1318.54166	0.96366
1316.48786	0.96402
1314.43405	0.96421
1312.38025	0.96419
1310.32645	0.96417
1308.27264	0.96410
1306.21884	0.96390
1304.16504	0.96335
1302.11123	0.96283
1300.05743	0.96276
1298.00363	0.96277
1295.94982	0.96278
1293.89602	0.96294
1291.84222	0.96303
1289.78842	0.96275
1287.73461	0.96242
1285.68081	0.96234
1283.62701	0.96232
1281.57320	0.96209
1279.51940	0.96155
1277.46560	0.96090
1275.41179	0.96028
1273.35799	0.95972
1271.30419	0.95950
1269.25038	0.95937
1267.19658	0.95873
1265.14278	0.95788
1263.08897	0.95719
1261.03517	0.95619
1258.98137	0.95470
1256.92756	0.95312
1254.87376	0.95194
1252.81996	0.95120
1250.76615	0.95046
1248.71235	0.94953
1246.65855	0.94836
1244.60474	0.94699
1242.55094	0.94550
1240.49714	0.94412
1238.44334	0.94312
1236.38953	0.94227
1234.33573	0.94141
1232.28193	0.94078
1230.22812	0.94041
1228.17432	0.93998
1226.12052	0.93917
1224.06671	0.93815
1222.01291	0.93736
1219.95911	0.93682
1217.90530	0.93626
1215.85150	0.93555
1213.79770	0.93472
1211.74389	0.93386
1209.69009	0.93296
1207.63629	0.93204
1205.58248	0.93118
1203.52868	0.93029
1201.47488	0.92915
1199.42107	0.92770
1197.36727	0.92597
1195.31347	0.92444
1193.25966	0.92336
1191.20586	0.92215
1189.15206	0.92040
1187.09825	0.91833
1185.04445	0.91623
1182.99065	0.91411
1180.93685	0.91189
1178.88304	0.90971
1176.82924	0.90767
1174.77544	0.90537
1172.72163	0.90257
1170.66783	0.89952
1168.61403	0.89646
1166.56022	0.89365
1164.50642	0.89136
1162.45262	0.88923
1160.39881	0.88707
1158.34501	0.88528
1156.29121	0.88374
1154.23740	0.88189
1152.18360	0.87952
1150.12980	0.87722
1148.07599	0.87544
1146.02219	0.87353
1143.96839	0.87134
1141.91458	0.86937
1139.86078	0.86734
1137.80698	0.86508
1135.75317	0.86263
1133.69937	0.85959
1131.64557	0.85607
1129.59176	0.85255
1127.53796	0.84922
1125.48416	0.84554
1123.43036	0.84106
1121.37655	0.83595
1119.32275	0.83047
1117.26895	0.82531
1115.21514	0.82126
1113.16134	0.81774
1111.10754	0.81366
1109.05373	0.80918
1106.99993	0.80500
1104.94613	0.80115
1102.89232	0.79745
1100.83852	0.79389
1098.78472	0.79064
1096.73091	0.78790
1094.67711	0.78539
1092.62331	0.78283
1090.56950	0.78057
1088.51570	0.77880
1086.46190	0.77704
1084.40809	0.77521
1082.35429	0.77357
1080.30049	0.77193
1078.24668	0.77015
1076.19288	0.76810
1074.13908	0.76564
1072.08528	0.76314
1070.03147	0.76087
1067.97767	0.75837
1065.92387	0.75531
1063.87006	0.75175
1061.81626	0.74773
1059.76246	0.74337
1057.70865	0.73874
1055.65485	0.73347
1053.60105	0.72768
1051.54724	0.72205
1049.49344	0.71654
1047.43964	0.71040
1045.38583	0.70365
1043.33203	0.69707
1041.27823	0.69070
1039.22442	0.68437
1037.17062	0.67856
1035.11682	0.67351
1033.06301	0.66884
1031.00921	0.66475
1028.95541	0.66194
1026.90160	0.66017
1024.84780	0.65890
1022.79400	0.65805
1020.74019	0.65749
1018.68639	0.65703
1016.63259	0.65643
1014.57879	0.65525
1012.52498	0.65336
1010.47118	0.65131
1008.41738	0.64936
1006.36357	0.64747
1004.30977	0.64620
1002.25597	0.64586
1000.20216	0.64627
998.14836	0.64766
996.09456	0.65046
994.04075	0.65473
991.98695	0.65978
989.93315	0.66499
987.87934	0.67070
985.82554	0.67704
983.77174	0.68339
981.71793	0.68953
979.66413	0.69575
977.61033	0.70164
975.55652	0.70660
973.50272	0.71153
971.44892	0.71782
969.39511	0.72555
967.34131	0.73365
965.28751	0.74117
963.23371	0.74775
961.17990	0.75375
959.12610	0.75933
957.07230	0.76433
955.01849	0.76912
952.96469	0.77358
950.91089	0.77725
948.85708	0.78041
946.80328	0.78316
944.74948	0.78538
942.69567	0.78744
940.64187	0.78940
938.58807	0.79095
936.53426	0.79246
934.48046	0.79419
932.42666	0.79593
930.37285	0.79748
928.31905	0.79854
926.26525	0.79907
924.21144	0.79912
922.15764	0.79811
920.10384	0.79600
918.05003	0.79354
915.99623	0.79096
913.94243	0.78866
911.88862	0.78805
909.83482	0.79020
907.78102	0.79444
905.72722	0.79994
903.67341	0.80658
901.61961	0.81349
899.56581	0.81970
897.51200	0.82526
895.45820	0.83080
893.40440	0.83659
891.35059	0.84187
889.29679	0.84572
887.24299	0.84872
885.18918	0.85175
883.13538	0.85439
881.08158	0.85649
879.02777	0.85829
876.97397	0.85997
874.92017	0.86228
872.86636	0.86508
870.81256	0.86780
868.75876	0.87062
866.70495	0.87356
864.65115	0.87616
862.59735	0.87883
860.54354	0.88171
858.48974	0.88405
856.43594	0.88630
854.38213	0.88874
852.32833	0.89056
850.27453	0.89175
848.22073	0.89237
846.16692	0.89195
844.11312	0.89030
842.05932	0.88814
840.00551	0.88720
837.95171	0.88801
835.89791	0.88887
833.84410	0.88900
831.79030	0.88916
829.73650	0.88946
827.68269	0.88907
825.62889	0.88789
823.57509	0.88694
821.52128	0.88691
819.46748	0.88739
817.41368	0.88751
815.35987	0.88692
813.30607	0.88566
811.25227	0.88404
809.19846	0.88174
807.14466	0.87888
805.09086	0.87660
803.03705	0.87462
800.98325	0.87241
798.92945	0.87064
796.87565	0.86969
794.82184	0.86947
792.76804	0.86993
790.71424	0.87007
788.66043	0.86923
786.60663	0.86851
784.55283	0.86847
782.49902	0.86875
780.44522	0.86904
778.39142	0.86968
776.33761	0.87110
774.28381	0.87241
772.23001	0.87296
770.17620	0.87346
768.12240	0.87385
766.06860	0.87321
764.01479	0.87161
761.96099	0.86964
759.90719	0.86766
757.85338	0.86599
755.79958	0.86455
753.74578	0.86377
751.69197	0.86382
749.63817	0.86381
747.58437	0.86366
745.53056	0.86427
743.47676	0.86559
741.42296	0.86667
739.36916	0.86751
737.31535	0.86845
735.26155	0.86886
733.20775	0.86868
731.15394	0.86856
729.10014	0.86862
727.04634	0.86814
724.99253	0.86659
722.93873	0.86497
720.88493	0.86444
718.83112	0.86503
716.77732	0.86633
714.72352	0.86730
712.66971	0.86681
710.61591	0.86497
708.56211	0.86165
706.50830	0.85731
704.45450	0.85350
702.40070	0.85022
700.34689	0.84656
698.29309	0.84242
696.23929	0.83820
694.18548	0.83451
692.13168	0.83204
690.07788	0.83083
688.02408	0.83018
685.97027	0.82942
683.91647	0.82878
681.86267	0.82835
679.80886	0.82725
677.75506	0.82541
675.70126	0.82439
673.64745	0.82442
671.59365	0.82373
669.53985	0.82159
667.48604	0.82037
665.43224	0.82225
663.37844	0.82449
661.32463	0.82614
659.27083	0.82805
657.21703	0.82997
655.16322	0.83035
653.10942	0.82981
651.05562	0.82960
649.00181	0.82932
646.94801	0.82903
644.89421	0.82943
642.84040	0.83030
640.78660	0.83058
638.73280	0.82964
636.67899	0.82816
634.62519	0.82711
632.57139	0.82693
630.51759	0.82730
628.46378	0.82714
626.40998	0.82578
624.35618	0.82346
622.30237	0.82146
620.24857	0.82060
618.19477	0.81982
616.14096	0.81793
614.08716	0.81504
612.03336	0.81236
609.97955	0.81010
607.92575	0.80707
605.87195	0.80341
603.81814	0.80000
601.76434	0.79652
599.71054	0.79351
597.65673	0.79164
595.60293	0.78938
593.54913	0.78646
591.49532	0.78392
589.44152	0.78178
587.38772	0.77994
585.33391	0.77779
583.28011	0.77433
581.22631	0.77106
579.17250	0.76977
577.11870	0.76904
575.06490	0.76706
573.01110	0.76374
570.95729	0.76074
568.90349	0.75861
566.84969	0.75471
564.79588	0.74832
562.74208	0.74266
560.68828	0.73978
558.63447	0.73810
556.58067	0.73546
554.52687	0.73144
552.47306	0.72774
550.41926	0.72506
548.36546	0.72072
546.31165	0.71460
544.25785	0.70912
542.20405	0.70427
540.15024	0.69978
538.09644	0.69518
536.04264	0.68982
533.98883	0.68472
531.93503	0.68135
529.88123	0.67995
527.82742	0.67932
525.77362	0.67874
523.71982	0.67853
521.66602	0.67999
519.61221	0.68449
517.55841	0.68935
515.50461	0.69099
513.45080	0.69187
511.39700	0.69541
509.34320	0.69984
507.28939	0.70235
505.23559	0.70386
503.18179	0.70491
501.12798	0.70584
499.07418	0.70848
497.02038	0.71106
494.96657	0.71084
492.91277	0.70892
490.85897	0.70581
488.80516	0.70041
486.75136	0.69385
484.69756	0.68752
482.64375	0.68173
480.58995	0.67467
478.53615	0.66470
476.48234	0.65385
474.42854	0.64473
472.37474	0.63393
470.32093	0.62047
468.26713	0.61095
466.21333	0.60659
464.15953	0.60390
462.10572	0.60152
460.05192	0.60225
457.99812	0.60708
455.94431	0.61090
453.89051	0.61283
451.83671	0.61526
449.78290	0.61672
447.72910	0.61691
445.67530	0.61530
443.62149	0.61241
441.56769	0.61360
439.51389	0.61642
437.46008	0.61250
435.40628	0.60417
433.35248	0.59996
431.29867	0.59796
429.24487	0.59592
427.19107	0.59555
425.13726	0.59471
423.08346	0.59539
421.02966	0.59922
418.97585	0.60590
416.92205	0.61439
414.86825	0.62190
412.81445	0.62992
410.76064	0.63616
408.70684	0.64079
406.65304	0.65010
404.59923	0.66111
402.54543	0.66512
400.49163	0.66197
398.43782	0.65483
