3996.70104	0.96244
3994.64724	0.96260
3992.59344	0.96238
3990.53964	0.96215
3988.48583	0.96252
3986.43203	0.96298
3984.37823	0.96294
3982.32442	0.96267
3980.27062	0.96245
3978.21682	0.96281
3976.16301	0.96345
3974.10921	0.96332
3972.05541	0.96281
3970.00160	0.96249
3967.94780	0.96216
3965.89400	0.96197
3963.84019	0.96216
3961.78639	0.96224
3959.73259	0.96209
3957.67878	0.96242
3955.62498	0.96282
3953.57118	0.96259
3951.51737	0.96209
3949.46357	0.96171
3947.40977	0.96160
3945.35596	0.96198
3943.30216	0.96265
3941.24836	0.96294
3939.19455	0.96287
3937.14075	0.96281
3935.08695	0.96277
3933.03315	0.96272
3930.97934	0.96251
3928.92554	0.96235
3926.87174	0.96264
3924.81793	0.96300
3922.76413	0.96288
3920.71033	0.96262
3918.65652	0.96257
3916.60272	0.96269
3914.54892	0.96273
3912.49511	0.96273
3910.44131	0.96327
3908.38751	0.96439
3906.33370	0.96511
3904.27990	0.96411
3902.22610	0.96217
3900.17229	0.96148
3898.11849	0.96180
3896.06469	0.96217
3894.01088	0.96251
3891.95708	0.96237
3889.90328	0.96231
3887.84947	0.96336
3885.79567	0.96402
3883.74187	0.96334
3881.68807	0.96263
3879.63426	0.96228
3877.58046	0.96221
3875.52666	0.96227
3873.47285	0.96280
3871.41905	0.96349
3869.36525	0.96268
3867.31144	0.96139
3865.25764	0.96153
3863.20384	0.96264
3861.15003	0.96321
3859.09623	0.96332
3857.04243	0.96382
3854.98862	0.96422
3852.93482	0.96375
3850.88102	0.96356
3848.82721	0.96393
3846.77341	0.96419
3844.71961	0.96419
3842.66580	0.96402
3840.61200	0.96407
3838.55820	0.96423
3836.50439	0.96410
3834.45059	0.96371
3832.39679	0.96289
3830.34298	0.96232
3828.28918	0.96272
3826.23538	0.96319
3824.18158	0.96304
3822.12777	0.96267
3820.07397	0.96285
3818.02017	0.96349
3815.96636	0.96352
3813.91256	0.96321
3811.85876	0.96339
3809.80495	0.96388
3807.75115	0.96429
3805.69735	0.96447
3803.64354	0.96461
3801.58974	0.96396
3799.53594	0.96282
3797.48213	0.96279
3795.42833	0.96304
3793.37453	0.96277
3791.32072	0.96254
3789.26692	0.96313
3787.21312	0.96393
3785.15931	0.96397
3783.10551	0.96408
3781.05171	0.96473
3778.99790	0.96468
3776.94410	0.96389
3774.89030	0.96339
3772.83650	0.96311
3770.78269	0.96309
3768.72889	0.96362
3766.67509	0.96400
3764.62128	0.96391
3762.56748	0.96412
3760.51368	0.96439
3758.45987	0.96395
3756.40607	0.96306
3754.35227	0.96235
3752.29846	0.96234
3750.24466	0.96349
3748.19086	0.96496
3746.13705	0.96511
3744.08325	0.96351
3742.02945	0.96257
3739.97564	0.96334
3737.92184	0.96491
3735.86804	0.96620
3733.81423	0.96547
3731.76043	0.96426
3729.70663	0.96461
3727.65282	0.96485
3725.59902	0.96372
3723.54522	0.96269
3721.49141	0.96284
3719.43761	0.96320
3717.38381	0.96323
3715.33001	0.96336
3713.27620	0.96329
3711.22240	0.96205
3709.16860	0.96053
3707.11479	0.96006
3705.06099	0.96008
3703.00719	0.95953
3700.95338	0.95776
3698.89958	0.95635
3696.84578	0.95664
3694.79197	0.95765
3692.73817	0.95852
3690.68437	0.95907
3688.63056	0.95831
3686.57676	0.95746
3684.52296	0.95799
3682.46915	0.95921
3680.41535	0.96004
3678.36155	0.95990
3676.30774	0.95913
3674.25394	0.95871
3672.20014	0.95873
3670.14633	0.95777
3668.09253	0.95650
3666.03873	0.95660
3663.98492	0.95711
3661.93112	0.95705
3659.87732	0.95661
3657.82352	0.95626
3655.76971	0.95585
3653.71591	0.95590
3651.66211	0.95614
3649.60830	0.95483
3647.55450	0.95378
3645.50070	0.95459
3643.44689	0.95508
3641.39309	0.95506
3639.33929	0.95492
3637.28548	0.95461
3635.23168	0.95423
3633.17788	0.95415
3631.12407	0.95415
3629.07027	0.95293
3627.01647	0.95092
3624.96266	0.95035
3622.90886	0.95098
3620.85506	0.95158
3618.80125	0.95104
3616.74745	0.95042
3614.69365	0.95073
3612.63984	0.95123
3610.58604	0.95139
3608.53224	0.95123
3606.47844	0.95111
3604.42463	0.95150
3602.37083	0.95227
3600.31703	0.95280
3598.26322	0.95273
3596.20942	0.95243
3594.15562	0.95208
3592.10181	0.95172
3590.04801	0.95191
3587.99421	0.95222
3585.94040	0.95212
3583.88660	0.95206
3581.83280	0.95187
3579.77899	0.95162
3577.72519	0.95173
3575.67139	0.95221
3573.61758	0.95251
3571.56378	0.95246
3569.50998	0.95235
3567.45617	0.95178
3565.40237	0.95079
3563.34857	0.95027
3561.29476	0.95054
3559.24096	0.95121
3557.18716	0.95126
3555.13335	0.95088
3553.07955	0.95059
3551.02575	0.95022
3548.97195	0.94999
3546.91814	0.95001
3544.86434	0.94983
3542.81054	0.94941
3540.75673	0.94944
3538.70293	0.94976
3536.64913	0.94977
3534.59532	0.94966
3532.54152	0.94927
3530.48772	0.94852
3528.43391	0.94830
3526.38011	0.94870
3524.32631	0.94862
3522.27250	0.94831
3520.21870	0.94855
3518.16490	0.94884
3516.11109	0.94895
3514.05729	0.94924
3512.00349	0.94955
3509.94968	0.94948
3507.89588	0.94942
3505.84208	0.94956
3503.78827	0.94939
3501.73447	0.94941
3499.68067	0.94997
3497.62687	0.95013
3495.57306	0.94978
3493.51926	0.94940
3491.46546	0.94899
3489.41165	0.94878
3487.35785	0.94886
3485.30405	0.94885
3483.25024	0.94920
3481.19644	0.94976
3479.14264	0.94959
3477.08883	0.94938
3475.03503	0.94944
3472.98123	0.94900
3470.92742	0.94824
3468.87362	0.94777
3466.81982	0.94814
3464.76601	0.94890
3462.71221	0.94890
3460.65841	0.94854
3458.60460	0.94847
3456.55080	0.94841
3454.49700	0.94839
3452.44319	0.94873
3450.38939	0.94934
3448.33559	0.94947
3446.28178	0.94874
3444.22798	0.94792
3442.17418	0.94746
3440.12038	0.94718
3438.06657	0.94695
3436.01277	0.94681
3433.95897	0.94706
3431.90516	0.94769
3429.85136	0.94814
3427.79756	0.94820
3425.74375	0.94816
3423.68995	0.94803
3421.63615	0.94783
3419.58234	0.94797
3417.52854	0.94814
3415.47474	0.94780
3413.42093	0.94725
3411.36713	0.94675
3409.31333	0.94652
3407.25952	0.94665
3405.20572	0.94666
3403.15192	0.94669
3401.09811	0.94700
3399.04431	0.94725
3396.99051	0.94733
3394.93670	0.94734
3392.88290	0.94735
3390.82910	0.94733
3388.77529	0.94763
3386.72149	0.94820
3384.66769	0.94822
3382.61389	0.94743
3380.56008	0.94683
3378.50628	0.94713
3376.45248	0.94769
3374.39867	0.94780
3372.34487	0.94766
3370.29107	0.94772
3368.23726	0.94777
3366.18346	0.94765
3364.12966	0.94755
3362.07585	0.94740
3360.02205	0.94739
3357.96825	0.94776
3355.91444	0.94819
3353.86064	0.94826
3351.80684	0.94813
3349.75303	0.94802
3347.69923	0.94791
3345.64543	0.94790
3343.59162	0.94795
3341.53782	0.94799
3339.48402	0.94815
3337.43021	0.94869
3335.37641	0.94925
3333.32261	0.94954
3331.26881	0.94978
3329.21500	0.94981
3327.16120	0.94961
3325.10740	0.94932
3323.05359	0.94896
3320.99979	0.94869
3318.94599	0.94839
3316.89218	0.94836
3314.83838	0.94877
3312.78458	0.94920
3310.73077	0.94954
3308.67697	0.94944
3306.62317	0.94877
3304.56936	0.94854
3302.51556	0.94920
3300.46176	0.95002
3298.40795	0.95036
3296.35415	0.95009
3294.30035	0.94955
3292.24654	0.94930
3290.19274	0.94952
3288.13894	0.94974
3286.08513	0.94974
3284.03133	0.95003
3281.97753	0.95068
3279.92372	0.95116
3277.86992	0.95114
3275.81612	0.95069
3273.76232	0.95028
3271.70851	0.95038
3269.65471	0.95083
3267.60091	0.95101
3265.54710	0.95058
3263.49330	0.94996
3261.43950	0.94983
3259.38569	0.95023
3257.33189	0.95086
3255.27809	0.95112
3253.22428	0.95078
3251.17048	0.95028
3249.11668	0.94984
3247.06287	0.94967
3245.00907	0.94999
3242.95527	0.95036
3240.90146	0.95065
3238.84766	0.95134
3236.79386	0.95220
3234.74005	0.95246
3232.68625	0.95219
3230.63245	0.95183
3228.57864	0.95161
3226.52484	0.95173
3224.47104	0.95182
3222.41724	0.95166
3220.36343	0.95181
3218.30963	0.95241
3216.25583	0.95277
3214.20202	0.95229
3212.14822	0.95160
3210.09442	0.95150
3208.04061	0.95161
3205.98681	0.95165
3203.93301	0.95195
3201.87920	0.95255
3199.82540	0.95324
3197.77160	0.95373
3195.71779	0.95366
3193.66399	0.95319
3191.61019	0.95308
3189.55638	0.95323
3187.50258	0.95305
3185.44878	0.95310
3183.39497	0.95374
3181.34117	0.95400
3179.28737	0.95371
3177.23356	0.95347
3175.17976	0.95337
3173.12596	0.95340
3171.07215	0.95367
3169.01835	0.95393
3166.96455	0.95374
3164.91075	0.95328
3162.85694	0.95325
3160.80314	0.95382
3158.74934	0.95448
3156.69553	0.95479
3154.64173	0.95500
3152.58793	0.95528
3150.53412	0.95537
3148.48032	0.95548
3146.42652	0.95547
3144.37271	0.95533
3142.31891	0.95559
3140.26511	0.95580
3138.21130	0.95544
3136.15750	0.95518
3134.10370	0.95554
3132.04989	0.95564
3129.99609	0.95530
3127.94229	0.95543
3125.88848	0.95620
3123.83468	0.95696
3121.78088	0.95726
3119.72707	0.95712
3117.67327	0.95635
3115.61947	0.95535
3113.56566	0.95501
3111.51186	0.95502
3109.45806	0.95479
3107.40426	0.95430
3105.35045	0.95374
3103.29665	0.95368
3101.24285	0.95413
3099.18904	0.95444
3097.13524	0.95443
3095.08144	0.95433
3093.02763	0.95417
3090.97383	0.95363
3088.92003	0.95257
3086.86622	0.95110
3084.81242	0.94944
3082.75862	0.94823
3080.70481	0.94803
3078.65101	0.94883
3076.59721	0.94998
3074.54340	0.95062
3072.48960	0.95057
3070.43580	0.95025
3068.38199	0.94939
3066.32819	0.94764
3064.27439	0.94554
3062.22058	0.94383
3060.16678	0.94291
3058.11298	0.94333
3056.05918	0.94530
3054.00537	0.94774
3051.95157	0.94967
3049.89777	0.95104
3047.84396	0.95180
3045.79016	0.95194
3043.73636	0.95184
3041.68255	0.95167
3039.62875	0.95087
3037.57495	0.94918
3035.52114	0.94680
3033.46734	0.94332
3031.41354	0.93840
3029.35973	0.93300
3027.30593	0.92870
3025.25213	0.92693
3023.19832	0.92856
3021.14452	0.93307
3019.09072	0.93880
3017.03691	0.94416
3014.98311	0.94821
3012.92931	0.95074
3010.87550	0.95213
3008.82170	0.95294
3006.76790	0.95331
3004.71409	0.95326
3002.66029	0.95310
3000.60649	0.95341
2998.55269	0.95431
2996.49888	0.95539
2994.44508	0.95666
2992.39128	0.95799
2990.33747	0.95905
2988.28367	0.95993
2986.22987	0.96072
2984.17606	0.96168
2982.12226	0.96321
2980.06846	0.96500
2978.01465	0.96676
2975.96085	0.96846
2973.90705	0.96977
2971.85324	0.97076
2969.79944	0.97141
2967.74564	0.97121
2965.69183	0.97037
2963.63803	0.96952
2961.58423	0.96860
2959.53042	0.96772
2957.47662	0.96715
2955.42282	0.96651
2953.36901	0.96547
2951.31521	0.96415
2949.26141	0.96275
2947.20761	0.96147
2945.15380	0.96038
2943.10000	0.95956
2941.04620	0.95881
2938.99239	0.95793
2936.93859	0.95728
2934.88479	0.95664
2932.83098	0.95522
2930.77718	0.95357
2928.72338	0.95265
2926.66957	0.95197
2924.61577	0.95024
2922.56197	0.94737
2920.50816	0.94480
2918.45436	0.94315
2916.40056	0.94192
2914.34675	0.94127
2912.29295	0.94148
2910.23915	0.94208
2908.18534	0.94279
2906.13154	0.94376
2904.07774	0.94492
2902.02393	0.94641
2899.97013	0.94822
2897.91633	0.94975
2895.86252	0.95072
2893.80872	0.95166
2891.75492	0.95290
2889.70112	0.95397
2887.64731	0.95451
2885.59351	0.95486
2883.53971	0.95518
2881.48590	0.95541
2879.43210	0.95582
2877.37830	0.95673
2875.32449	0.95791
2873.27069	0.95883
2871.21689	0.95934
2869.16308	0.95981
2867.10928	0.96045
2865.05548	0.96063
2863.00167	0.96026
2860.94787	0.96044
2858.89407	0.96141
2856.84026	0.96181
2854.78646	0.96088
2852.73266	0.95936
2850.67885	0.95754
2848.62505	0.95543
2846.57125	0.95366
2844.51744	0.95278
2842.46364	0.95286
2840.40984	0.95373
2838.35603	0.95515
2836.30223	0.95659
2834.24843	0.95746
2832.19463	0.95792
2830.14082	0.95845
2828.08702	0.95885
2826.03322	0.95900
2823.97941	0.95915
2821.92561	0.95923
2819.87181	0.95919
2817.81800	0.95931
2815.76420	0.95956
2813.71040	0.95963
2811.65659	0.95964
2809.60279	0.95970
2807.54899	0.95959
2805.49518	0.95923
2803.44138	0.95893
2801.38758	0.95897
2799.33377	0.95929
2797.27997	0.95973
2795.22617	0.96008
2793.17236	0.96000
2791.11856	0.95983
2789.06476	0.96006
2787.01095	0.96030
2784.95715	0.96039
2782.90335	0.96058
2780.84955	0.96073
2778.79574	0.96066
2776.74194	0.96063
2774.68814	0.96084
2772.63433	0.96107
2770.58053	0.96101
2768.52673	0.96078
2766.47292	0.96076
2764.41912	0.96081
2762.36532	0.96072
2760.31151	0.96071
2758.25771	0.96084
2756.20391	0.96102
2754.15010	0.96100
2752.09630	0.96071
2750.04250	0.96054
2747.98869	0.96074
2745.93489	0.96096
2743.88109	0.96104
2741.82728	0.96118
2739.77348	0.96135
2737.71968	0.96127
2735.66587	0.96106
2733.61207	0.96108
2731.55827	0.96123
2729.50446	0.96121
2727.45066	0.96112
2725.39686	0.96133
2723.34306	0.96165
2721.28925	0.96181
2719.23545	0.96188
2717.18165	0.96174
2715.12784	0.96140
2713.07404	0.96123
2711.02024	0.96141
2708.96643	0.96156
2706.91263	0.96150
2704.85883	0.96154
2702.80502	0.96157
2700.75122	0.96169
2698.69742	0.96203
2696.64361	0.96197
2694.58981	0.96148
2692.53601	0.96129
2690.48220	0.96150
2688.42840	0.96163
2686.37460	0.96157
2684.32079	0.96148
2682.26699	0.96145
2680.21319	0.96158
2678.15938	0.96171
2676.10558	0.96160
2674.05178	0.96138
2671.99797	0.96121
2669.94417	0.96121
2667.89037	0.96152
2665.83657	0.96203
2663.78276	0.96251
2661.72896	0.96265
2659.67516	0.96237
2657.62135	0.96196
2655.56755	0.96162
2653.51375	0.96143
2651.45994	0.96153
2649.40614	0.96184
2647.35234	0.96209
2645.29853	0.96203
2643.24473	0.96171
2641.19093	0.96146
2639.13712	0.96138
2637.08332	0.96132
2635.02952	0.96145
2632.97571	0.96190
2630.92191	0.96223
2628.86811	0.96218
2626.81430	0.96194
2624.76050	0.96167
2622.70670	0.96179
2620.65289	0.96221
2618.59909	0.96220
2616.54529	0.96203
2614.49149	0.96222
2612.43768	0.96239
2610.38388	0.96223
2608.33008	0.96201
2606.27627	0.96197
2604.22247	0.96205
2602.16867	0.96234
2600.11486	0.96282
2598.06106	0.96300
2596.00726	0.96252
2593.95345	0.96183
2591.89965	0.96175
2589.84585	0.96238
2587.79204	0.96294
2585.73824	0.96283
2583.68444	0.96226
2581.63063	0.96190
2579.57683	0.96231
2577.52303	0.96316
2575.46922	0.96354
2573.41542	0.96330
2571.36162	0.96294
2569.30781	0.96287
2567.25401	0.96292
2565.20021	0.96277
2563.14640	0.96284
2561.09260	0.96333
2559.03880	0.96365
2556.98500	0.96346
2554.93119	0.96314
2552.87739	0.96301
2550.82359	0.96330
2548.76978	0.96395
2546.71598	0.96405
2544.66218	0.96334
2542.60837	0.96286
2540.55457	0.96314
2538.50077	0.96354
2536.44696	0.96342
2534.39316	0.96324
2532.33936	0.96360
2530.28555	0.96411
2528.23175	0.96403
2526.17795	0.96371
2524.12414	0.96374
2522.07034	0.96379
2520.01654	0.96376
2517.96273	0.96375
2515.90893	0.96357
2513.85513	0.96320
2511.80132	0.96312
2509.74752	0.96345
2507.69372	0.96357
2505.63992	0.96366
2503.58611	0.96388
2501.53231	0.96366
2499.47851	0.96309
2497.42470	0.96279
2495.37090	0.96296
2493.31710	0.96348
2491.26329	0.96439
2489.20949	0.96536
2487.15569	0.96540
2485.10188	0.96467
2483.04808	0.96412
2480.99428	0.96372
2478.94047	0.96369
2476.88667	0.96440
2474.83287	0.96493
2472.77906	0.96453
2470.72526	0.96369
2468.67146	0.96319
2466.61765	0.96325
2464.56385	0.96384
2462.51005	0.96442
2460.45624	0.96460
2458.40244	0.96457
2456.34864	0.96441
2454.29483	0.96439
2452.24103	0.96476
2450.18723	0.96495
2448.13343	0.96470
2446.07962	0.96464
2444.02582	0.96457
2441.97202	0.96417
2439.91821	0.96399
2437.86441	0.96414
2435.81061	0.96413
2433.75680	0.96382
2431.70300	0.96365
2429.64920	0.96388
2427.59539	0.96419
2425.54159	0.96450
2423.48779	0.96495
2421.43398	0.96508
2419.38018	0.96488
2417.32638	0.96493
2415.27257	0.96502
2413.21877	0.96487
2411.16497	0.96498
2409.11116	0.96533
2407.05736	0.96549
2405.00356	0.96564
2402.94975	0.96549
2400.89595	0.96485
2398.84215	0.96412
2396.78834	0.96385
2394.73454	0.96437
2392.68074	0.96487
2390.62694	0.96491
2388.57313	0.96481
2386.51933	0.96460
2384.46553	0.96476
2382.41172	0.96550
2380.35792	0.96608
2378.30412	0.96625
2376.25031	0.96597
2374.19651	0.96544
2372.14271	0.96525
2370.08890	0.96460
2368.03510	0.96390
2365.98130	0.96468
2363.92749	0.96575
2361.87369	0.96644
2359.81989	0.96660
2357.76608	0.96565
2355.71228	0.96475
2353.65848	0.96399
2351.60467	0.96313
2349.55087	0.96310
2347.49707	0.96371
2345.44326	0.96409
2343.38946	0.96356
2341.33566	0.96281
2339.28186	0.96295
2337.22805	0.96279
2335.17425	0.96218
2333.12045	0.96301
2331.06664	0.96438
2329.01284	0.96440
2326.95904	0.96323
2324.90523	0.96175
2322.85143	0.96129
2320.79763	0.96170
2318.74382	0.96204
2316.69002	0.96292
2314.63622	0.96409
2312.58241	0.96482
2310.52861	0.96494
2308.47481	0.96443
2306.42100	0.96385
2304.36720	0.96386
2302.31340	0.96435
2300.25959	0.96483
2298.20579	0.96505
2296.15199	0.96491
2294.09818	0.96459
2292.04438	0.96424
2289.99058	0.96359
2287.93677	0.96317
2285.88297	0.96372
2283.82917	0.96435
2281.77537	0.96436
2279.72156	0.96437
2277.66776	0.96429
2275.61396	0.96407
2273.56015	0.96380
2271.50635	0.96307
2269.45255	0.96272
2267.39874	0.96371
2265.34494	0.96472
2263.29114	0.96455
2261.23733	0.96420
2259.18353	0.96430
2257.12973	0.96470
2255.07592	0.96543
2253.02212	0.96574
2250.96832	0.96541
2248.91451	0.96520
2246.86071	0.96455
2244.80691	0.96337
2242.75310	0.96335
2240.69930	0.96404
2238.64550	0.96402
2236.59169	0.96464
2234.53789	0.96596
2232.48409	0.96635
2230.43029	0.96607
2228.37648	0.96571
2226.32268	0.96535
2224.26888	0.96490
2222.21507	0.96410
2220.16127	0.96382
2218.10747	0.96454
2216.05366	0.96458
2213.99986	0.96478
2211.94606	0.96697
2209.89225	0.96858
2207.83845	0.96790
2205.78465	0.96638
2203.73084	0.96546
2201.67704	0.96535
2199.62324	0.96547
2197.56943	0.96528
2195.51563	0.96515
2193.46183	0.96505
2191.40802	0.96450
2189.35422	0.96510
2187.30042	0.96535
2185.24661	0.96300
2183.19281	0.96129
2181.13901	0.96301
2179.08520	0.96600
2177.03140	0.96635
2174.97760	0.96465
2172.92380	0.96407
2170.86999	0.96442
2168.81619	0.96454
2166.76239	0.96458
2164.70858	0.96476
2162.65478	0.96482
2160.60098	0.96570
2158.54717	0.96966
2156.49337	0.97384
2154.43957	0.97444
2152.38576	0.97230
2150.33196	0.97079
2148.27816	0.97215
2146.22435	0.97301
2144.17055	0.97105
2142.11675	0.96864
2140.06294	0.96777
2138.00914	0.96881
2135.95534	0.97024
2133.90153	0.97032
2131.84773	0.96987
2129.79393	0.96942
2127.74012	0.96869
2125.68632	0.96850
2123.63252	0.96794
2121.57871	0.96680
2119.52491	0.96663
2117.47111	0.96689
2115.41731	0.96678
2113.36350	0.96669
2111.30970	0.96726
2109.25590	0.96800
2107.20209	0.96787
2105.14829	0.96697
2103.09449	0.96602
2101.04068	0.96575
2098.98688	0.96632
2096.93308	0.96749
2094.87927	0.96845
2092.82547	0.96812
2090.77167	0.96734
2088.71786	0.96692
2086.66406	0.96685
2084.61026	0.96740
2082.55645	0.96844
2080.50265	0.96948
2078.44885	0.96936
2076.39504	0.96817
2074.34124	0.96748
2072.28744	0.96720
2070.23363	0.96699
2068.17983	0.96708
2066.12603	0.96717
2064.07223	0.96687
2062.01842	0.96662
2059.96462	0.96684
2057.91082	0.96695
2055.85701	0.96757
2053.80321	0.96804
2051.74941	0.96704
2049.69560	0.96660
2047.64180	0.96863
2045.58800	0.97146
2043.53419	0.97195
2041.48039	0.96972
2039.42659	0.96878
2037.37278	0.97034
2035.31898	0.96982
2033.26518	0.96679
2031.21137	0.96416
2029.15757	0.96290
2027.10377	0.96356
2025.04996	0.96532
2022.99616	0.96740
2020.94236	0.96822
2018.88855	0.96740
2016.83475	0.96656
2014.78095	0.96725
2012.72714	0.97058
2010.67334	0.97271
2008.61954	0.97090
2006.56574	0.97012
2004.51193	0.97164
2002.45813	0.97157
2000.40433	0.96986
1998.35052	0.96944
1996.29672	0.97170
1994.24292	0.97324
1992.18911	0.97064
1990.13531	0.96674
1988.08151	0.96539
1986.02770	0.96544
1983.97390	0.96569
1981.92010	0.96738
1979.86629	0.96928
1977.81249	0.96913
1975.75869	0.96812
1973.70488	0.96816
1971.65108	0.96852
1969.59728	0.96885
1967.54347	0.97005
1965.48967	0.97169
1963.43587	0.97231
1961.38206	0.97147
1959.32826	0.96956
1957.27446	0.96747
1955.22066	0.96613
1953.16685	0.96472
1951.11305	0.96382
1949.05925	0.96443
1947.00544	0.96429
1944.95164	0.96261
1942.89784	0.96185
1940.84403	0.96339
1938.79023	0.96546
1936.73643	0.96566
1934.68262	0.96455
1932.62882	0.96510
1930.57502	0.96695
1928.52121	0.96767
1926.46741	0.96743
1924.41361	0.96729
1922.35980	0.96710
1920.30600	0.96635
1918.25220	0.96601
1916.19839	0.96689
1914.14459	0.96732
1912.09079	0.96683
1910.03698	0.96705
1907.98318	0.96799
1905.92938	0.96817
1903.87557	0.96784
1901.82177	0.96785
1899.76797	0.96782
1897.71417	0.96730
1895.66036	0.96713
1893.60656	0.96743
1891.55276	0.96723
1889.49895	0.96706
1887.44515	0.96702
1885.39135	0.96630
1883.33754	0.96585
1881.28374	0.96639
1879.22994	0.96682
1877.17613	0.96656
1875.12233	0.96627
1873.06853	0.96600
1871.01472	0.96533
1868.96092	0.96469
1866.90712	0.96505
1864.85331	0.96567
1862.79951	0.96534
1860.74571	0.96497
1858.69190	0.96568
1856.63810	0.96669
1854.58430	0.96713
1852.53049	0.96730
1850.47669	0.96747
1848.42289	0.96760
1846.36908	0.96786
1844.31528	0.96812
1842.26148	0.96799
1840.20768	0.96776
1838.15387	0.96772
1836.10007	0.96778
1834.04627	0.96804
1831.99246	0.96830
1829.93866	0.96816
1827.88486	0.96776
1825.83105	0.96734
1823.77725	0.96702
1821.72345	0.96674
1819.66964	0.96634
1817.61584	0.96633
1815.56204	0.96685
1813.50823	0.96704
1811.45443	0.96673
1809.40063	0.96614
1807.34682	0.96535
1805.29302	0.96472
1803.23922	0.96424
1801.18541	0.96408
1799.13161	0.96473
1797.07781	0.96560
1795.02400	0.96616
1792.97020	0.96630
1790.91640	0.96613
1788.86260	0.96651
1786.80879	0.96740
1784.75499	0.96799
1782.70119	0.96813
1780.64738	0.96826
1778.59358	0.96821
1776.53978	0.96804
1774.48597	0.96804
1772.43217	0.96811
1770.37837	0.96841
1768.32456	0.96884
1766.27076	0.96887
1764.21696	0.96872
1762.16315	0.96865
1760.10935	0.96871
1758.05555	0.96874
1756.00174	0.96882
1753.94794	0.96907
1751.89414	0.96909
1749.84033	0.96884
1747.78653	0.96882
1745.73273	0.96894
1743.67892	0.96894
1741.62512	0.96899
1739.57132	0.96963
1737.51751	0.97032
1735.46371	0.97037
1733.40991	0.97010
1731.35611	0.96995
1729.30230	0.96993
1727.24850	0.97009
1725.19470	0.97037
1723.14089	0.97065
1721.08709	0.97105
1719.03329	0.97167
1716.97948	0.97225
1714.92568	0.97241
1712.87188	0.97232
1710.81807	0.97210
1708.76427	0.97182
1706.71047	0.97137
1704.65666	0.97060
1702.60286	0.96971
1700.54906	0.96846
1698.49525	0.96707
1696.44145	0.96604
1694.38765	0.96547
1692.33384	0.96543
1690.28004	0.96519
1688.22624	0.96439
1686.17243	0.96318
1684.11863	0.96158
1682.06483	0.96079
1680.01103	0.96077
1677.95722	0.96068
1675.90342	0.96030
1673.84962	0.95962
1671.79581	0.95899
1669.74201	0.95827
1667.68821	0.95767
1665.63440	0.95741
1663.58060	0.95712
1661.52680	0.95683
1659.47299	0.95677
1657.41919	0.95699
1655.36539	0.95730
1653.31158	0.95678
1651.25778	0.95589
1649.20398	0.95591
1647.15017	0.95573
1645.09637	0.95506
1643.04257	0.95472
1640.98876	0.95469
1638.93496	0.95490
1636.88116	0.95518
1634.82735	0.95524
1632.77355	0.95528
1630.71975	0.95531
1628.66594	0.95531
1626.61214	0.95543
1624.55834	0.95557
1622.50454	0.95568
1620.45073	0.95585
1618.39693	0.95575
1616.34313	0.95540
1614.28932	0.95546
1612.23552	0.95523
1610.18172	0.95373
1608.12791	0.95041
1606.07411	0.94515
1604.02031	0.93899
1601.96650	0.93444
1599.91270	0.93444
1597.85890	0.93879
1595.80509	0.94431
1593.75129	0.94847
1591.69749	0.95107
1589.64368	0.95259
1587.58988	0.95287
1585.53608	0.95190
1583.48227	0.95100
1581.42847	0.95188
1579.37467	0.95406
1577.32086	0.95614
1575.26706	0.95772
1573.21326	0.95883
1571.15945	0.95945
1569.10565	0.95967
1567.05185	0.96005
1564.99805	0.96076
1562.94424	0.96150
1560.89044	0.96194
1558.83664	0.96189
1556.78283	0.96175
1554.72903	0.96174
1552.67523	0.96146
1550.62142	0.96099
1548.56762	0.96065
1546.51382	0.96049
1544.46001	0.96042
1542.40621	0.96017
1540.35241	0.95921
1538.29860	0.95906
1536.24480	0.95986
1534.19100	0.96050
1532.13719	0.96097
1530.08339	0.96127
1528.02959	0.96129
1525.97578	0.96120
1523.92198	0.96121
1521.86818	0.96095
1519.81437	0.96089
1517.76057	0.96137
1515.70677	0.96173
1513.65297	0.96166
1511.59916	0.96124
1509.54536	0.96059
1507.49156	0.95953
1505.43775	0.95826
1503.38395	0.95736
1501.33015	0.95550
1499.27634	0.94979
1497.22254	0.93320
1495.16874	0.90841
1493.11493	0.89399
1491.06113	0.89753
1489.00733	0.91528
1486.95352	0.93123
1484.89972	0.93997
1482.84592	0.94506
1480.79211	0.94824
1478.73831	0.95018
1476.68451	0.95132
1474.63070	0.95237
1472.57690	0.95392
1470.52310	0.95560
1468.46929	0.95692
1466.41549	0.95759
1464.36169	0.95716
1462.30788	0.95615
1460.25408	0.95437
1458.20028	0.94615
1456.14648	0.92323
1454.09267	0.90224
1452.03887	0.89345
1449.98507	0.89605
1447.93126	0.90558
1445.87746	0.91482
1443.82366	0.92198
1441.76985	0.92818
1439.71605	0.93304
1437.66225	0.93706
1435.60844	0.94116
1433.55464	0.94461
1431.50084	0.94710
1429.44703	0.94897
1427.39323	0.95042
1425.33943	0.95157
1423.28562	0.95256
1421.23182	0.95350
1419.17802	0.95433
1417.12421	0.95493
1415.07041	0.95547
1413.01661	0.95592
1410.96280	0.95634
1408.90900	0.95686
1406.85520	0.95742
1404.80139	0.95805
1402.74759	0.95872
1400.69379	0.95927
1398.63999	0.95938
1396.58618	0.95907
1394.53238	0.95871
1392.47858	0.95838
1390.42477	0.95812
1388.37097	0.95812
1386.31717	0.95847
1384.26336	0.95873
1382.20956	0.95850
1380.15576	0.95795
1378.10195	0.95720
1376.04815	0.95612
1373.99435	0.95499
1371.94054	0.95462
1369.88674	0.95500
1367.83294	0.95536
1365.77913	0.95538
1363.72533	0.95530
1361.67153	0.95520
1359.61772	0.95536
1357.56392	0.95593
1355.51012	0.95654
1353.45631	0.95689
1351.40251	0.95702
1349.34871	0.95726
1347.29491	0.95778
1345.24110	0.95833
1343.18730	0.95897
1341.13350	0.95973
1339.07969	0.95999
1337.02589	0.95974
1334.97209	0.95959
1332.91828	0.95940
1330.86448	0.95903
1328.81068	0.95882
1326.75687	0.95889
1324.70307	0.95930
1322.64927	0.95978
1320.59546	0.95981
1318.54166	0.95965
1316.48786	0.95990
1314.43405	0.96030
1312.38025	0.96057
1310.32645	0.96095
1308.27264	0.96147
1306.21884	0.96191
1304.16504	0.96230
1302.11123	0.96281
1300.05743	0.96345
1298.00363	0.96400
1295.94982	0.96419
1293.89602	0.96406
1291.84222	0.96399
1289.78842	0.96397
1287.73461	0.96398
1285.68081	0.96420
1283.62701	0.96412
1281.57320	0.96369
1279.51940	0.96373
1277.46560	0.96416
1275.41179	0.96430
1273.35799	0.96428
1271.30419	0.96437
1269.25038	0.96444
1267.19658	0.96445
1265.14278	0.96448
1263.08897	0.96457
1261.03517	0.96458
1258.98137	0.96444
1256.92756	0.96428
1254.87376	0.96410
1252.81996	0.96381
1250.76615	0.96369
1248.71235	0.96373
1246.65855	0.96356
1244.60474	0.96318
1242.55094	0.96275
1240.49714	0.96241
1238.44334	0.96233
1236.38953	0.96243
1234.33573	0.96242
1232.28193	0.96207
1230.22812	0.96137
1228.17432	0.96060
1226.12052	0.96001
1224.06671	0.95963
1222.01291	0.95925
1219.95911	0.95863
1217.90530	0.95775
1215.85150	0.95660
1213.79770	0.95542
1211.74389	0.95440
1209.69009	0.95324
1207.63629	0.95180
1205.58248	0.95022
1203.52868	0.94858
1201.47488	0.94690
1199.42107	0.94516
1197.36727	0.94318
1195.31347	0.94111
1193.25966	0.93927
1191.20586	0.93755
1189.15206	0.93567
1187.09825	0.93316
1185.04445	0.92989
1182.99065	0.92659
1180.93685	0.92405
1178.88304	0.92269
1176.82924	0.92224
1174.77544	0.92199
1172.72163	0.92161
1170.66783	0.92106
1168.61403	0.92026
1166.56022	0.91929
1164.50642	0.91829
1162.45262	0.91715
1160.39881	0.91558
1158.34501	0.91333
1156.29121	0.91070
1154.23740	0.90869
1152.18360	0.90785
1150.12980	0.90779
1148.07599	0.90769
1146.02219	0.90728
1143.96839	0.90700
1141.91458	0.90675
1139.86078	0.90624
1137.80698	0.90580
1135.75317	0.90543
1133.69937	0.90498
1131.64557	0.90453
1129.59176	0.90363
1127.53796	0.90199
1125.48416	0.89987
1123.43036	0.89728
1121.37655	0.89438
1119.32275	0.89140
1117.26895	0.88832
1115.21514	0.88533
1113.16134	0.88254
1111.10754	0.87976
1109.05373	0.87721
1106.99993	0.87540
1104.94613	0.87408
1102.89232	0.87243
1100.83852	0.87066
1098.78472	0.86934
1096.73091	0.86809
1094.67711	0.86696
1092.62331	0.86612
1090.56950	0.86499
1088.51570	0.86345
1086.46190	0.86211
1084.40809	0.86089
1082.35429	0.85935
1080.30049	0.85794
1078.24668	0.85685
1076.19288	0.85580
1074.13908	0.85453
1072.08528	0.85283
1070.03147	0.85079
1067.97767	0.84875
1065.92387	0.84713
1063.87006	0.84594
1061.81626	0.84485
1059.76246	0.84374
1057.70865	0.84234
1055.65485	0.84053
1053.60105	0.83856
1051.54724	0.83635
1049.49344	0.83360
1047.43964	0.83041
1045.38583	0.82720
1043.33203	0.82395
1041.27823	0.81984
1039.22442	0.81470
1037.17062	0.80917
1035.11682	0.80339
1033.06301	0.79684
1031.00921	0.79006
1028.95541	0.78506
1026.90160	0.78301
1024.84780	0.78345
1022.79400	0.78497
1020.74019	0.78611
1018.68639	0.78651
1016.63259	0.78664
1014.57879	0.78694
1012.52498	0.78704
1010.47118	0.78640
1008.41738	0.78561
1006.36357	0.78550
1004.30977	0.78598
1002.25597	0.78724
1000.20216	0.78950
998.14836	0.79226
996.09456	0.79542
994.04075	0.79899
991.98695	0.80265
989.93315	0.80614
987.87934	0.80970
985.82554	0.81371
983.77174	0.81803
981.71793	0.82290
979.66413	0.82862
977.61033	0.83459
975.55652	0.84035
973.50272	0.84613
971.44892	0.85177
969.39511	0.85681
967.34131	0.86128
965.28751	0.86543
963.23371	0.86955
961.17990	0.87408
959.12610	0.87924
957.07230	0.88457
955.01849	0.88944
952.96469	0.89331
950.91089	0.89573
948.85708	0.89695
946.80328	0.89743
944.74948	0.89771
942.69567	0.89827
940.64187	0.89895
938.58807	0.89971
936.53426	0.90085
934.48046	0.90211
932.42666	0.90321
930.37285	0.90429
928.31905	0.90535
926.26525	0.90648
924.21144	0.90738
922.15764	0.90742
920.10384	0.90683
918.05003	0.90597
915.99623	0.90455
913.94243	0.90242
911.88862	0.90007
909.83482	0.89822
907.78102	0.89772
905.72722	0.89915
903.67341	0.90233
901.61961	0.90657
899.56581	0.91144
897.51200	0.91658
895.45820	0.92084
893.40440	0.92380
891.35059	0.92645
889.29679	0.92881
887.24299	0.92999
885.18918	0.93037
883.13538	0.93122
881.08158	0.93220
879.02777	0.93162
876.97397	0.93021
874.92017	0.93004
872.86636	0.93095
870.81256	0.93244
868.75876	0.93444
866.70495	0.93593
864.65115	0.93648
862.59735	0.93705
860.54354	0.93812
858.48974	0.93946
856.43594	0.94102
854.38213	0.94217
852.32833	0.94241
850.27453	0.94215
848.22073	0.94152
846.16692	0.94032
844.11312	0.93881
842.05932	0.93797
840.00551	0.93839
837.95171	0.93930
835.89791	0.93995
833.84410	0.94079
831.79030	0.94197
829.73650	0.94267
827.68269	0.94294
825.62889	0.94354
823.57509	0.94416
821.52128	0.94439
819.46748	0.94535
817.41368	0.94660
815.35987	0.94622
813.30607	0.94468
811.25227	0.94287
809.19846	0.94100
807.14466	0.93924
805.09086	0.93684
803.03705	0.93405
800.98325	0.93194
798.92945	0.93098
796.87565	0.93119
794.82184	0.93207
792.76804	0.93247
790.71424	0.93148
788.66043	0.92915
786.60663	0.92651
784.55283	0.92506
782.49902	0.92418
780.44522	0.92187
778.39142	0.91813
776.33761	0.91392
774.28381	0.90928
772.23001	0.90320
770.17620	0.89523
768.12240	0.88642
766.06860	0.87755
764.01479	0.86878
761.96099	0.86023
759.90719	0.85196
757.85338	0.84477
755.79958	0.84012
753.74578	0.83881
751.69197	0.83992
749.63817	0.84166
747.58437	0.84414
745.53056	0.84951
743.47676	0.85915
741.42296	0.87170
739.36916	0.88422
737.31535	0.89479
735.26155	0.90355
733.20775	0.91114
731.15394	0.91738
729.10014	0.92183
727.04634	0.92505
724.99253	0.92809
722.93873	0.93032
720.88493	0.93096
718.83112	0.93079
716.77732	0.92996
714.72352	0.92788
712.66971	0.92375
710.61591	0.91490
708.56211	0.89780
706.50830	0.87004
704.45450	0.83001
702.40070	0.77871
700.34689	0.72206
698.29309	0.67058
696.23929	0.64485
694.18548	0.66581
692.13168	0.72306
690.07788	0.78196
688.02408	0.82216
685.97027	0.84525
683.91647	0.85886
681.86267	0.86813
679.80886	0.87468
677.75506	0.87874
675.70126	0.88192
673.64745	0.88499
671.59365	0.88706
669.53985	0.88805
667.48604	0.88900
665.43224	0.89035
663.37844	0.89140
661.32463	0.89190
659.27083	0.89207
657.21703	0.89246
655.16322	0.89279
653.10942	0.89264
651.05562	0.89256
649.00181	0.89288
646.94801	0.89387
644.89421	0.89527
642.84040	0.89614
640.78660	0.89676
638.73280	0.89784
636.67899	0.89836
634.62519	0.89756
632.57139	0.89686
630.51759	0.89720
628.46378	0.89747
626.40998	0.89673
624.35618	0.89551
622.30237	0.89479
620.24857	0.89397
618.19477	0.89284
616.14096	0.89240
614.08716	0.89254
612.03336	0.89218
609.97955	0.89040
607.92575	0.88795
605.87195	0.88579
603.81814	0.88367
601.76434	0.88161
599.71054	0.87979
597.65673	0.87862
595.60293	0.87823
593.54913	0.87767
591.49532	0.87697
589.44152	0.87688
587.38772	0.87669
585.33391	0.87677
583.28011	0.87772
581.22631	0.87758
579.17250	0.87575
577.11870	0.87325
575.06490	0.86982
573.01110	0.86680
570.95729	0.86531
568.90349	0.86368
566.84969	0.86120
564.79588	0.85824
562.74208	0.85388
560.68828	0.84829
558.63447	0.84444
556.58067	0.84175
554.52687	0.83733
552.47306	0.83308
550.41926	0.82951
548.36546	0.82352
546.31165	0.81497
544.25785	0.80583
542.20405	0.79736
540.15024	0.79035
538.09644	0.78490
536.04264	0.78181
533.98883	0.78283
531.93503	0.78743
529.88123	0.79292
527.82742	0.79853
525.77362	0.80504
523.71982	0.81021
521.66602	0.81301
519.61221	0.81575
517.55841	0.81880
515.50461	0.82234
513.45080	0.82708
511.39700	0.83094
509.34320	0.83347
507.28939	0.83609
505.23559	0.83734
503.18179	0.83741
501.12798	0.83937
499.07418	0.84253
497.02038	0.84310
494.96657	0.84151
492.91277	0.84088
490.85897	0.83784
488.80516	0.82974
486.75136	0.82127
484.69756	0.81489
482.64375	0.80766
480.58995	0.79856
478.53615	0.79114
476.48234	0.78594
474.42854	0.77962
472.37474	0.77187
470.32093	0.76794
468.26713	0.76783
466.21333	0.76712
464.15953	0.76728
462.10572	0.77047
460.05192	0.77675
457.99812	0.78619
455.94431	0.79264
453.89051	0.79422
451.83671	0.79741
449.78290	0.80273
447.72910	0.80737
445.67530	0.81017
443.62149	0.81090
441.56769	0.81027
439.51389	0.80873
437.46008	0.80682
435.40628	0.80607
433.35248	0.80831
431.29867	0.81004
429.24487	0.80724
427.19107	0.80471
425.13726	0.80598
423.08346	0.80373
421.02966	0.79820
418.97585	0.80491
416.92205	0.82097
414.86825	0.82757
412.81445	0.82785
410.76064	0.82800
408.70684	0.82906
406.65304	0.83135
404.59923	0.83270
402.54543	0.82881
400.49163	0.82048
398.43782	0.81210
