3996.71440	0.99271
3994.66059	0.99253
3992.60678	0.99262
3990.55297	0.99282
3988.49916	0.99279
3986.44535	0.99262
3984.39154	0.99256
3982.33773	0.99252
3980.28391	0.99225
3978.23010	0.99200
3976.17629	0.99198
3974.12248	0.99205
3972.06867	0.99233
3970.01486	0.99256
3967.96105	0.99235
3965.90724	0.99207
3963.85343	0.99205
3961.79962	0.99227
3959.74581	0.99265
3957.69200	0.99286
3955.63819	0.99274
3953.58438	0.99244
3951.53057	0.99219
3949.47676	0.99211
3947.42295	0.99205
3945.36914	0.99193
3943.31533	0.99183
3941.26152	0.99185
3939.20771	0.99189
3937.15390	0.99179
3935.10009	0.99175
3933.04628	0.99187
3930.99247	0.99188
3928.93866	0.99190
3926.88485	0.99219
3924.83104	0.99242
3922.77723	0.99227
3920.72342	0.99197
3918.66961	0.99203
3916.61580	0.99235
3914.56199	0.99246
3912.50818	0.99257
3910.45437	0.99259
3908.40056	0.99235
3906.34675	0.99224
3904.29294	0.99232
3902.23913	0.99205
3900.18532	0.99159
3898.13151	0.99186
3896.07770	0.99241
3894.02389	0.99256
3891.97008	0.99244
3889.91627	0.99228
3887.86246	0.99209
3885.80865	0.99173
3883.75484	0.99135
3881.70103	0.99144
3879.64722	0.99191
3877.59341	0.99220
3875.53960	0.99214
3873.48579	0.99178
3871.43198	0.99163
3869.37817	0.99203
3867.32436	0.99249
3865.27055	0.99250
3863.21674	0.99212
3861.16293	0.99196
3859.10912	0.99216
3857.05531	0.99229
3855.00150	0.99222
3852.94769	0.99229
3850.89388	0.99265
3848.84007	0.99292
3846.78626	0.99297
3844.73245	0.99279
3842.67864	0.99236
3840.62483	0.99197
3838.57102	0.99189
3836.51721	0.99192
3834.46340	0.99194
3832.40959	0.99213
3830.35578	0.99232
3828.30197	0.99214
3826.24816	0.99181
3824.19435	0.99175
3822.14054	0.99185
3820.08673	0.99195
3818.03292	0.99189
3815.97911	0.99185
3813.92530	0.99207
3811.87149	0.99238
3809.81768	0.99256
3807.76387	0.99257
3805.71006	0.99243
3803.65625	0.99229
3801.60244	0.99231
3799.54863	0.99229
3797.49482	0.99223
3795.44101	0.99223
3793.38720	0.99220
3791.33339	0.99218
3789.27958	0.99230
3787.22577	0.99269
3785.17196	0.99299
3783.11815	0.99277
3781.06434	0.99237
3779.01053	0.99219
3776.95672	0.99217
3774.90291	0.99207
3772.84910	0.99186
3770.79529	0.99175
3768.74148	0.99196
3766.68767	0.99228
3764.63386	0.99248
3762.58005	0.99245
3760.52624	0.99245
3758.47243	0.99274
3756.41862	0.99285
3754.36481	0.99277
3752.31100	0.99308
3750.25719	0.99347
3748.20338	0.99322
3746.14957	0.99296
3744.09576	0.99302
3742.04195	0.99308
3739.98814	0.99294
3737.93433	0.99268
3735.88052	0.99275
3733.82671	0.99305
3731.77290	0.99315
3729.71909	0.99314
3727.66528	0.99293
3725.61147	0.99265
3723.55766	0.99273
3721.50385	0.99297
3719.45004	0.99272
3717.39623	0.99229
3715.34242	0.99217
3713.28861	0.99225
3711.23480	0.99241
3709.18099	0.99257
3707.12718	0.99274
3705.07337	0.99282
3703.01956	0.99247
3700.96575	0.99215
3698.91194	0.99225
3696.85813	0.99228
3694.80432	0.99237
3692.75051	0.99266
3690.69670	0.99295
3688.64289	0.99309
3686.58907	0.99283
3684.53526	0.99239
3682.48145	0.99219
3680.42764	0.99227
3678.37383	0.99224
3676.32002	0.99178
3674.26621	0.99125
3672.21240	0.99125
3670.15859	0.99169
3668.10478	0.99250
3666.05097	0.99305
3663.99716	0.99299
3661.94335	0.99262
3659.88954	0.99238
3657.83573	0.99248
3655.78192	0.99258
3653.72811	0.99263
3651.67430	0.99287
3649.62049	0.99290
3647.56668	0.99247
3645.51287	0.99213
3643.45906	0.99191
3641.40525	0.99173
3639.35144	0.99175
3637.29763	0.99179
3635.24382	0.99170
3633.19001	0.99180
3631.13620	0.99228
3629.08239	0.99281
3627.02858	0.99268
3624.97477	0.99204
3622.92096	0.99164
3620.86715	0.99162
3618.81334	0.99155
3616.75953	0.99163
3614.70572	0.99211
3612.65191	0.99258
3610.59810	0.99276
3608.54429	0.99259
3606.49048	0.99216
3604.43667	0.99172
3602.38286	0.99140
3600.32905	0.99140
3598.27524	0.99169
3596.22143	0.99191
3594.16762	0.99189
3592.11381	0.99176
3590.06000	0.99161
3588.00619	0.99143
3585.95238	0.99145
3583.89857	0.99161
3581.84476	0.99180
3579.79095	0.99193
3577.73714	0.99193
3575.68333	0.99188
3573.62952	0.99164
3571.57571	0.99131
3569.52190	0.99122
3567.46809	0.99142
3565.41428	0.99193
3563.36047	0.99233
3561.30666	0.99216
3559.25285	0.99169
3557.19904	0.99152
3555.14523	0.99159
3553.09142	0.99148
3551.03761	0.99131
3548.98380	0.99146
3546.92999	0.99176
3544.87618	0.99183
3542.82237	0.99173
3540.76856	0.99158
3538.71475	0.99139
3536.66094	0.99136
3534.60713	0.99144
3532.55332	0.99151
3530.49951	0.99167
3528.44570	0.99180
3526.39189	0.99162
3524.33808	0.99111
3522.28427	0.99084
3520.23046	0.99112
3518.17665	0.99138
3516.12284	0.99117
3514.06903	0.99097
3512.01522	0.99111
3509.96141	0.99133
3507.90760	0.99138
3505.85379	0.99132
3503.79998	0.99118
3501.74617	0.99099
3499.69236	0.99108
3497.63855	0.99141
3495.58474	0.99132
3493.53093	0.99086
3491.47712	0.99060
3489.42331	0.99070
3487.36950	0.99090
3485.31569	0.99092
3483.26188	0.99083
3481.20807	0.99079
3479.15426	0.99062
3477.10045	0.99035
3475.04664	0.99043
3472.99283	0.99081
3470.93902	0.99096
3468.88521	0.99086
3466.83140	0.99078
3464.77759	0.99076
3462.72378	0.99090
3460.66997	0.99110
3458.61616	0.99093
3456.56235	0.99063
3454.50854	0.99057
3452.45473	0.99051
3450.40092	0.99040
3448.34711	0.99038
3446.29330	0.99051
3444.23949	0.99053
3442.18568	0.99039
3440.13187	0.99036
3438.07806	0.99046
3436.02425	0.99042
3433.97044	0.99028
3431.91663	0.99025
3429.86282	0.99024
3427.80901	0.99006
3425.75520	0.99011
3423.70139	0.99040
3421.64758	0.99042
3419.59377	0.99034
3417.53996	0.99039
3415.48615	0.99054
3413.43234	0.99077
3411.37853	0.99075
3409.32472	0.99054
3407.27091	0.99044
3405.21710	0.99035
3403.16329	0.99020
3401.10948	0.99012
3399.05567	0.99022
3397.00186	0.99046
3394.94805	0.99064
3392.89424	0.99061
3390.84042	0.99035
3388.78661	0.98995
3386.73280	0.98967
3384.67899	0.98970
3382.62518	0.98993
3380.57137	0.99019
3378.51756	0.99041
3376.46375	0.99054
3374.40994	0.99045
3372.35613	0.99019
3370.30232	0.99008
3368.24851	0.99012
3366.19470	0.99000
3364.14089	0.98994
3362.08708	0.99015
3360.03327	0.99021
3357.97946	0.98990
3355.92565	0.98969
3353.87184	0.98971
3351.81803	0.98972
3349.76422	0.98961
3347.71041	0.98961
3345.65660	0.99008
3343.60279	0.99070
3341.54898	0.99073
3339.49517	0.99043
3337.44136	0.99043
3335.38755	0.99037
3333.33374	0.99012
3331.27993	0.99007
3329.22612	0.99021
3327.17231	0.99037
3325.11850	0.99054
3323.06469	0.99050
3321.01088	0.99023
3318.95707	0.99020
3316.90326	0.99051
3314.84945	0.99058
3312.79564	0.99039
3310.74183	0.99033
3308.68802	0.99021
3306.63421	0.98989
3304.58040	0.98974
3302.52659	0.98989
3300.47278	0.98980
3298.41897	0.98929
3296.36516	0.98903
3294.31135	0.98941
3292.25754	0.98992
3290.20373	0.99002
3288.14992	0.98991
3286.09611	0.98987
3284.04230	0.98989
3281.98849	0.98992
3279.93468	0.98986
3277.88087	0.98990
3275.82706	0.98993
3273.77325	0.98985
3271.71944	0.98997
3269.66563	0.99019
3267.61182	0.99018
3265.55801	0.99009
3263.50420	0.99003
3261.45039	0.99014
3259.39658	0.99030
3257.34277	0.99034
3255.28896	0.99041
3253.23515	0.99051
3251.18134	0.99058
3249.12753	0.99062
3247.07372	0.99055
3245.01991	0.99056
3242.96610	0.99076
3240.91229	0.99097
3238.85848	0.99103
3236.80467	0.99094
3234.75086	0.99069
3232.69705	0.99047
3230.64324	0.99042
3228.58943	0.99037
3226.53562	0.99042
3224.48181	0.99060
3222.42800	0.99060
3220.37419	0.99047
3218.32038	0.99053
3216.26657	0.99068
3214.21276	0.99062
3212.15895	0.99055
3210.10514	0.99064
3208.05133	0.99065
3205.99752	0.99047
3203.94371	0.99028
3201.88990	0.99022
3199.83609	0.99015
3197.78228	0.99008
3195.72847	0.99012
3193.67466	0.99024
3191.62085	0.99054
3189.56704	0.99090
3187.51323	0.99100
3185.45942	0.99102
3183.40561	0.99100
3181.35180	0.99087
3179.29799	0.99080
3177.24418	0.99078
3175.19037	0.99091
3173.13656	0.99119
3171.08275	0.99139
3169.02894	0.99137
3166.97513	0.99116
3164.92132	0.99103
3162.86751	0.99106
3160.81370	0.99107
3158.75989	0.99113
3156.70608	0.99134
3154.65227	0.99153
3152.59846	0.99152
3150.54465	0.99133
3148.49084	0.99123
3146.43703	0.99125
3144.38322	0.99131
3142.32941	0.99143
3140.27560	0.99162
3138.22179	0.99161
3136.16798	0.99132
3134.11417	0.99119
3132.06036	0.99120
3130.00655	0.99121
3127.95274	0.99140
3125.89893	0.99164
3123.84512	0.99171
3121.79131	0.99163
3119.73750	0.99152
3117.68369	0.99152
3115.62988	0.99148
3113.57607	0.99131
3111.52226	0.99135
3109.46845	0.99159
3107.41464	0.99151
3105.36083	0.99127
3103.30702	0.99130
3101.25321	0.99125
3099.19940	0.99101
3097.14559	0.99092
3095.09177	0.99090
3093.03796	0.99082
3090.98415	0.99076
3088.93034	0.99081
3086.87653	0.99087
3084.82272	0.99083
3082.76891	0.99080
3080.71510	0.99070
3078.66129	0.99039
3076.60748	0.99019
3074.55367	0.99031
3072.49986	0.99037
3070.44605	0.99034
3068.39224	0.99036
3066.33843	0.99039
3064.28462	0.99051
3062.23081	0.99067
3060.17700	0.99071
3058.12319	0.99058
3056.06938	0.99037
3054.01557	0.99020
3051.96176	0.99004
3049.90795	0.98994
3047.85414	0.98987
3045.80033	0.98965
3043.74652	0.98948
3041.69271	0.98966
3039.63890	0.98991
3037.58509	0.98981
3035.53128	0.98957
3033.47747	0.98948
3031.42366	0.98944
3029.36985	0.98938
3027.31604	0.98921
3025.26223	0.98896
3023.20842	0.98872
3021.15461	0.98867
3019.10080	0.98883
3017.04699	0.98881
3014.99318	0.98851
3012.93937	0.98821
3010.88556	0.98803
3008.83175	0.98786
3006.77794	0.98764
3004.72413	0.98752
3002.67032	0.98734
3000.61651	0.98689
2998.56270	0.98630
2996.50889	0.98575
2994.45508	0.98519
2992.40127	0.98458
2990.34746	0.98391
2988.29365	0.98289
2986.23984	0.98156
2984.18603	0.98020
2982.13222	0.97857
2980.07841	0.97632
2978.02460	0.97334
2975.97079	0.96960
2973.91698	0.96485
2971.86317	0.95862
2969.80936	0.95087
2967.75555	0.94158
2965.70174	0.93060
2963.64793	0.91877
2961.59412	0.90813
2959.54031	0.90068
2957.48650	0.89711
2955.43269	0.89625
2953.37888	0.89627
2951.32507	0.89707
2949.27126	0.90018
2947.21745	0.90614
2945.16364	0.91281
2943.10983	0.91695
2941.05602	0.91676
2939.00221	0.91200
2936.94840	0.90295
2934.89459	0.88997
2932.84078	0.87357
2930.78697	0.85444
2928.73316	0.83293
2926.67935	0.80869
2924.62554	0.78145
2922.57173	0.75197
2920.51792	0.72221
2918.46411	0.69599
2916.41030	0.67893
2914.35649	0.67542
2912.30268	0.68470
2910.24887	0.70124
2908.19506	0.71967
2906.14125	0.73761
2904.08744	0.75452
2902.03363	0.77025
2899.97982	0.78482
2897.92601	0.79816
2895.87220	0.81027
2893.81839	0.82124
2891.76458	0.83128
2889.71077	0.84057
2887.65696	0.84900
2885.60315	0.85634
2883.54934	0.86250
2881.49553	0.86761
2879.44172	0.87215
2877.38791	0.87704
2875.33410	0.88269
2873.28029	0.88826
2871.22648	0.89230
2869.17267	0.89423
2867.11886	0.89522
2865.06505	0.89648
2863.01124	0.89699
2860.95743	0.89320
2858.90362	0.88074
2856.84981	0.85670
2854.79600	0.82044
2852.74219	0.77607
2850.68838	0.73703
2848.63457	0.72166
2846.58076	0.73663
2844.52695	0.76929
2842.47314	0.80146
2840.41933	0.82489
2838.36552	0.84146
2836.31171	0.85649
2834.25790	0.87350
2832.20409	0.89186
2830.15028	0.90876
2828.09647	0.92230
2826.04266	0.93223
2823.98885	0.93955
2821.93504	0.94526
2819.88123	0.94960
2817.82742	0.95289
2815.77361	0.95581
2813.71980	0.95842
2811.66599	0.96039
2809.61218	0.96194
2807.55837	0.96353
2805.50456	0.96529
2803.45075	0.96698
2801.39693	0.96851
2799.34312	0.96982
2797.28931	0.97085
2795.23550	0.97173
2793.18169	0.97264
2791.12788	0.97360
2789.07407	0.97462
2787.02026	0.97564
2784.96645	0.97645
2782.91264	0.97712
2780.85883	0.97791
2778.80502	0.97880
2776.75121	0.97939
2774.69740	0.97956
2772.64359	0.97982
2770.58978	0.98032
2768.53597	0.98064
2766.48216	0.98082
2764.42835	0.98121
2762.37454	0.98155
2760.32073	0.98169
2758.26692	0.98190
2756.21311	0.98212
2754.15930	0.98222
2752.10549	0.98229
2750.05168	0.98235
2747.99787	0.98242
2745.94406	0.98240
2743.89025	0.98218
2741.83644	0.98200
2739.78263	0.98209
2737.72882	0.98232
2735.67501	0.98237
2733.62120	0.98219
2731.56739	0.98200
2729.51358	0.98187
2727.45977	0.98169
2725.40596	0.98150
2723.35215	0.98149
2721.29834	0.98176
2719.24453	0.98221
2717.19072	0.98255
2715.13691	0.98276
2713.08310	0.98308
2711.02929	0.98348
2708.97548	0.98378
2706.92167	0.98411
2704.86786	0.98442
2702.81405	0.98468
2700.76024	0.98503
2698.70643	0.98519
2696.65262	0.98502
2694.59881	0.98485
2692.54500	0.98479
2690.49119	0.98483
2688.43738	0.98498
2686.38357	0.98511
2684.32976	0.98521
2682.27595	0.98528
2680.22214	0.98516
2678.16833	0.98489
2676.11452	0.98478
2674.06071	0.98477
2672.00690	0.98466
2669.95309	0.98450
2667.89928	0.98429
2665.84547	0.98405
2663.79166	0.98390
2661.73785	0.98392
2659.68404	0.98397
2657.63023	0.98394
2655.57642	0.98384
2653.52261	0.98381
2651.46880	0.98400
2649.41499	0.98428
2647.36118	0.98432
2645.30737	0.98425
2643.25356	0.98414
2641.19975	0.98390
2639.14594	0.98379
2637.09213	0.98394
2635.03832	0.98411
2632.98451	0.98419
2630.93070	0.98432
2628.87689	0.98457
2626.82308	0.98485
2624.76927	0.98509
2622.71546	0.98527
2620.66165	0.98533
2618.60784	0.98531
2616.55403	0.98554
2614.50022	0.98599
2612.44641	0.98624
2610.39260	0.98619
2608.33879	0.98627
2606.28498	0.98662
2604.23117	0.98686
2602.17736	0.98705
2600.12355	0.98725
2598.06974	0.98720
2596.01593	0.98709
2593.96212	0.98727
2591.90831	0.98750
2589.85450	0.98747
2587.80069	0.98735
2585.74688	0.98735
2583.69307	0.98740
2581.63926	0.98763
2579.58545	0.98805
2577.53164	0.98844
2575.47783	0.98856
2573.42402	0.98846
2571.37021	0.98844
2569.31640	0.98864
2567.26259	0.98888
2565.20878	0.98862
2563.15497	0.98808
2561.10116	0.98818
2559.04735	0.98880
2556.99354	0.98915
2554.93973	0.98915
2552.88592	0.98914
2550.83211	0.98926
2548.77830	0.98961
2546.72449	0.98980
2544.67068	0.98974
2542.61687	0.98991
2540.56306	0.99016
2538.50925	0.99015
2536.45544	0.99012
2534.40163	0.99035
2532.34782	0.99054
2530.29401	0.99031
2528.24020	0.98998
2526.18639	0.98994
2524.13258	0.99015
2522.07877	0.99039
2520.02496	0.99032
2517.97115	0.99023
2515.91734	0.99045
2513.86353	0.99058
2511.80972	0.99047
2509.75591	0.99050
2507.70210	0.99108
2505.64828	0.99159
2503.59447	0.99136
2501.54066	0.99091
2499.48685	0.99080
2497.43304	0.99093
2495.37923	0.99114
2493.32542	0.99128
2491.27161	0.99109
2489.21780	0.99071
2487.16399	0.99046
2485.11018	0.99027
2483.05637	0.99031
2481.00256	0.99066
2478.94875	0.99079
2476.89494	0.99057
2474.84113	0.99053
2472.78732	0.99081
2470.73351	0.99097
2468.67970	0.99114
2466.62589	0.99131
2464.57208	0.99116
2462.51827	0.99093
2460.46446	0.99078
2458.41065	0.99079
2456.35684	0.99097
2454.30303	0.99105
2452.24922	0.99087
2450.19541	0.99059
2448.14160	0.99056
2446.08779	0.99070
2444.03398	0.99082
2441.98017	0.99095
2439.92636	0.99097
2437.87255	0.99095
2435.81874	0.99097
2433.76493	0.99096
2431.71112	0.99095
2429.65731	0.99107
2427.60350	0.99148
2425.54969	0.99156
2423.49588	0.99115
2421.44207	0.99082
2419.38826	0.99063
2417.33445	0.99054
2415.28064	0.99081
2413.22683	0.99137
2411.17302	0.99159
2409.11921	0.99139
2407.06540	0.99123
2405.01159	0.99111
2402.95778	0.99097
2400.90397	0.99097
2398.85016	0.99108
2396.79635	0.99115
2394.74254	0.99126
2392.68873	0.99125
2390.63492	0.99104
2388.58111	0.99097
2386.52730	0.99095
2384.47349	0.99090
2382.41968	0.99114
2380.36587	0.99133
2378.31206	0.99102
2376.25825	0.99092
2374.20444	0.99143
2372.15063	0.99172
2370.09682	0.99170
2368.04301	0.99210
2365.98920	0.99239
2363.93539	0.99170
2361.88158	0.99106
2359.82777	0.99132
2357.77396	0.99108
2355.72015	0.98995
2353.66634	0.98955
2351.61253	0.99008
2349.55872	0.99055
2347.50491	0.99074
2345.45110	0.99079
2343.39729	0.99076
2341.34348	0.99088
2339.28967	0.99105
2337.23586	0.99087
2335.18205	0.99070
2333.12824	0.99060
2331.07443	0.98996
2329.02062	0.98926
2326.96681	0.98877
2324.91300	0.98812
2322.85919	0.98789
2320.80538	0.98838
2318.75157	0.98903
2316.69776	0.98949
2314.64395	0.98981
2312.59014	0.99005
2310.53633	0.99011
2308.48252	0.99005
2306.42871	0.99001
2304.37490	0.98998
2302.32109	0.99011
2300.26728	0.99041
2298.21347	0.99060
2296.15966	0.99038
2294.10585	0.98981
2292.05204	0.98934
2289.99823	0.98937
2287.94442	0.98967
2285.89061	0.98974
2283.83680	0.98943
2281.78299	0.98889
2279.72918	0.98870
2277.67537	0.98909
2275.62156	0.98926
2273.56775	0.98948
2271.51394	0.99025
2269.46013	0.99033
2267.40632	0.98976
2265.35251	0.99027
2263.29870	0.99131
2261.24489	0.99158
2259.19108	0.99171
2257.13727	0.99187
2255.08346	0.99126
2253.02965	0.99053
2250.97584	0.99062
2248.92203	0.99095
2246.86822	0.99085
2244.81441	0.99074
2242.76060	0.99105
2240.70679	0.99139
2238.65298	0.99153
2236.59917	0.99148
2234.54536	0.99170
2232.49155	0.99241
2230.43774	0.99260
2228.38393	0.99192
2226.33012	0.99143
2224.27631	0.99182
2222.22250	0.99222
2220.16869	0.99234
2218.11488	0.99248
2216.06107	0.99198
2214.00726	0.99179
2211.95344	0.99246
2209.89963	0.99242
2207.84582	0.99227
2205.79201	0.99293
2203.73820	0.99329
2201.68439	0.99280
2199.63058	0.99192
2197.57677	0.99129
2195.52296	0.99144
2193.46915	0.99194
2191.41534	0.99221
2189.36153	0.99276
2187.30772	0.99346
2185.25391	0.99339
2183.20010	0.99319
2181.14629	0.99335
2179.09248	0.99295
2177.03867	0.99233
2174.98486	0.99232
2172.93105	0.99203
2170.87724	0.99159
2168.82343	0.99139
2166.76962	0.99063
2164.71581	0.99081
2162.66200	0.99138
2160.60819	0.99139
2158.55438	0.99299
2156.50057	0.99394
2154.44676	0.99364
2152.39295	0.99459
2150.33914	0.99586
2148.28533	0.99594
2146.23152	0.99494
2144.17771	0.99349
2142.12390	0.99232
2140.07009	0.99251
2138.01628	0.99423
2135.96247	0.99603
2133.90866	0.99655
2131.85485	0.99573
2129.80104	0.99496
2127.74723	0.99496
2125.69342	0.99454
2123.63961	0.99330
2121.58580	0.99248
2119.53199	0.99246
2117.47818	0.99238
2115.42437	0.99194
2113.37056	0.99178
2111.31675	0.99184
2109.26294	0.99163
2107.20913	0.99182
2105.15532	0.99256
2103.10151	0.99252
2101.04770	0.99177
2098.99389	0.99140
2096.94008	0.99147
2094.88627	0.99166
2092.83246	0.99154
2090.77865	0.99127
2088.72484	0.99135
2086.67103	0.99128
2084.61722	0.99104
2082.56341	0.99150
2080.50960	0.99200
2078.45579	0.99178
2076.40198	0.99136
2074.34817	0.99102
2072.29436	0.99120
2070.24055	0.99202
2068.18674	0.99245
2066.13293	0.99252
2064.07912	0.99279
2062.02531	0.99294
2059.97150	0.99298
2057.91769	0.99300
2055.86388	0.99334
2053.81007	0.99382
2051.75626	0.99339
2049.70245	0.99275
2047.64864	0.99283
2045.59483	0.99242
2043.54102	0.99096
2041.48721	0.98967
2039.43340	0.98975
2037.37959	0.99134
2035.32578	0.99259
2033.27197	0.99270
2031.21816	0.99277
2029.16435	0.99227
2027.11054	0.99218
2025.05673	0.99343
2023.00292	0.99341
2020.94911	0.99170
2018.89530	0.99053
2016.84149	0.99056
2014.78768	0.99106
2012.73387	0.99136
2010.68006	0.99174
2008.62625	0.99262
2006.57244	0.99374
2004.51863	0.99425
2002.46482	0.99420
2000.41101	0.99464
1998.35720	0.99451
1996.30339	0.99251
1994.24958	0.99056
1992.19577	0.99065
1990.14196	0.99168
1988.08815	0.99151
1986.03434	0.99015
1983.98053	0.98927
1981.92672	0.98951
1979.87291	0.99004
1977.81910	0.99025
1975.76529	0.99002
1973.71148	0.99007
1971.65767	0.99149
1969.60386	0.99283
1967.55005	0.99291
1965.49624	0.99291
1963.44243	0.99297
1961.38862	0.99313
1959.33481	0.99320
1957.28100	0.99303
1955.22719	0.99288
1953.17338	0.99205
1951.11957	0.99142
1949.06576	0.99195
1947.01195	0.99292
1944.95814	0.99385
1942.90433	0.99395
1940.85052	0.99285
1938.79671	0.99214
1936.74290	0.99246
1934.68909	0.99304
1932.63528	0.99363
1930.58147	0.99371
1928.52766	0.99319
1926.47385	0.99276
1924.42004	0.99253
1922.36623	0.99226
1920.31242	0.99219
1918.25861	0.99247
1916.20479	0.99260
1914.15098	0.99234
1912.09717	0.99205
1910.04336	0.99228
1907.98955	0.99256
1905.93574	0.99222
1903.88193	0.99198
1901.82812	0.99210
1899.77431	0.99209
1897.72050	0.99189
1895.66669	0.99169
1893.61288	0.99148
1891.55907	0.99137
1889.50526	0.99174
1887.45145	0.99233
1885.39764	0.99232
1883.34383	0.99194
1881.29002	0.99202
1879.23621	0.99250
1877.18240	0.99271
1875.12859	0.99239
1873.07478	0.99201
1871.02097	0.99194
1868.96716	0.99178
1866.91335	0.99145
1864.85954	0.99142
1862.80573	0.99167
1860.75192	0.99192
1858.69811	0.99198
1856.64430	0.99185
1854.59049	0.99179
1852.53668	0.99197
1850.48287	0.99215
1848.42906	0.99225
1846.37525	0.99223
1844.32144	0.99214
1842.26763	0.99220
1840.21382	0.99215
1838.16001	0.99157
1836.10620	0.99103
1834.05239	0.99120
1831.99858	0.99145
1829.94477	0.99133
1827.89096	0.99129
1825.83715	0.99130
1823.78334	0.99129
1821.72953	0.99153
1819.67572	0.99185
1817.62191	0.99186
1815.56810	0.99164
1813.51429	0.99153
1811.46048	0.99148
1809.40667	0.99133
1807.35286	0.99134
1805.29905	0.99143
1803.24524	0.99154
1801.19143	0.99165
1799.13762	0.99152
1797.08381	0.99121
1795.03000	0.99089
1792.97619	0.99070
1790.92238	0.99083
1788.86857	0.99104
1786.81476	0.99109
1784.76095	0.99098
1782.70714	0.99087
1780.65333	0.99082
1778.59952	0.99077
1776.54571	0.99071
1774.49190	0.99058
1772.43809	0.99062
1770.38428	0.99091
1768.33047	0.99095
1766.27666	0.99069
1764.22285	0.99042
1762.16904	0.99023
1760.11523	0.99013
1758.06142	0.99008
1756.00761	0.98973
1753.95380	0.98919
1751.89999	0.98881
1749.84618	0.98840
1747.79237	0.98788
1745.73856	0.98747
1743.68475	0.98721
1741.63094	0.98717
1739.57713	0.98743
1737.52332	0.98784
1735.46951	0.98812
1733.41570	0.98806
1731.36189	0.98769
1729.30808	0.98746
1727.25427	0.98761
1725.20046	0.98801
1723.14665	0.98832
1721.09284	0.98842
1719.03903	0.98831
1716.98522	0.98802
1714.93141	0.98789
1712.87760	0.98798
1710.82379	0.98822
1708.76998	0.98851
1706.71617	0.98868
1704.66236	0.98859
1702.60855	0.98834
1700.55474	0.98809
1698.50093	0.98807
1696.44712	0.98809
1694.39331	0.98780
1692.33950	0.98750
1690.28569	0.98749
1688.23188	0.98751
1686.17807	0.98721
1684.12426	0.98660
1682.07045	0.98638
1680.01664	0.98651
1677.96283	0.98652
1675.90902	0.98641
1673.85521	0.98603
1671.80140	0.98559
1669.74759	0.98547
1667.69378	0.98550
1665.63997	0.98549
1663.58616	0.98551
1661.53235	0.98538
1659.47854	0.98518
1657.42473	0.98517
1655.37092	0.98519
1653.31711	0.98524
1651.26330	0.98520
1649.20949	0.98484
1647.15568	0.98436
1645.10187	0.98418
1643.04806	0.98428
1640.99425	0.98436
1638.94044	0.98450
1636.88663	0.98472
1634.83282	0.98506
1632.77901	0.98535
1630.72520	0.98531
1628.67139	0.98528
1626.61758	0.98544
1624.56377	0.98557
1622.50996	0.98572
1620.45614	0.98594
1618.40233	0.98611
1616.34852	0.98625
1614.29471	0.98623
1612.24090	0.98617
1610.18709	0.98629
1608.13328	0.98652
1606.07947	0.98667
1604.02566	0.98672
1601.97185	0.98670
1599.91804	0.98668
1597.86423	0.98670
1595.81042	0.98675
1593.75661	0.98678
1591.70280	0.98675
1589.64899	0.98670
1587.59518	0.98678
1585.54137	0.98697
1583.48756	0.98712
1581.43375	0.98711
1579.37994	0.98700
1577.32613	0.98692
1575.27232	0.98686
1573.21851	0.98699
1571.16470	0.98725
1569.11089	0.98741
1567.05708	0.98729
1565.00327	0.98697
1562.94946	0.98671
1560.89565	0.98659
1558.84184	0.98640
1556.78803	0.98615
1554.73422	0.98597
1552.68041	0.98579
1550.62660	0.98565
1548.57279	0.98560
1546.51898	0.98561
1544.46517	0.98551
1542.41136	0.98533
1540.35755	0.98538
1538.30374	0.98559
1536.24993	0.98562
1534.19612	0.98544
1532.14231	0.98531
1530.08850	0.98534
1528.03469	0.98538
1525.98088	0.98546
1523.92707	0.98557
1521.87326	0.98527
1519.81945	0.98474
1517.76564	0.98463
1515.71183	0.98469
1513.65802	0.98459
1511.60421	0.98440
1509.55040	0.98425
1507.49659	0.98399
1505.44278	0.98383
1503.38897	0.98397
1501.33516	0.98401
1499.28135	0.98381
1497.22754	0.98337
1495.17373	0.98279
1493.11992	0.98229
1491.06611	0.98171
1489.01230	0.98097
1486.95849	0.98004
1484.90468	0.97881
1482.85087	0.97662
1480.79706	0.97233
1478.74325	0.96336
1476.68944	0.94202
1474.63563	0.90407
1472.58182	0.86970
1470.52801	0.86586
1468.47420	0.87573
1466.42039	0.88017
1464.36658	0.87693
1462.31277	0.87590
1460.25896	0.88283
1458.20515	0.89398
1456.15134	0.90335
1454.09753	0.90869
1452.04372	0.91353
1449.98991	0.92012
1447.93610	0.92965
1445.88229	0.94018
1443.82848	0.94834
1441.77467	0.95376
1439.72086	0.95685
1437.66705	0.95852
1435.61324	0.96042
1433.55943	0.96375
1431.50562	0.96827
1429.45181	0.97263
1427.39800	0.97544
1425.34419	0.97713
1423.29038	0.97833
1421.23657	0.97916
1419.18276	0.97983
1417.12895	0.98024
1415.07514	0.98040
1413.02133	0.98065
1410.96752	0.98107
1408.91371	0.98144
1406.85990	0.98167
1404.80609	0.98174
1402.75228	0.98158
1400.69847	0.98133
1398.64466	0.98118
1396.59085	0.98115
1394.53704	0.98088
1392.48323	0.98027
1390.42942	0.97936
1388.37561	0.97739
1386.32180	0.97293
1384.26799	0.96430
1382.21418	0.94881
1380.16037	0.92556
1378.10656	0.90293
1376.05275	0.89607
1373.99894	0.91126
1371.94513	0.93461
1369.89132	0.95162
1367.83751	0.96142
1365.78370	0.96584
1363.72989	0.96673
1361.67608	0.96575
1359.62227	0.96477
1357.56846	0.96544
1355.51465	0.96798
1353.46084	0.97129
1351.40703	0.97413
1349.35322	0.97612
1347.29941	0.97757
1345.24560	0.97877
1343.19179	0.97963
1341.13798	0.98015
1339.08417	0.98046
1337.03036	0.98066
1334.97655	0.98062
1332.92274	0.98033
1330.86893	0.98005
1328.81512	0.98005
1326.76130	0.98034
1324.70749	0.98080
1322.65368	0.98128
1320.59987	0.98163
1318.54606	0.98171
1316.49225	0.98166
1314.43844	0.98166
1312.38463	0.98156
1310.33082	0.98109
1308.27701	0.97998
1306.22320	0.97847
1304.16939	0.97756
1302.11558	0.97777
1300.06177	0.97841
1298.00796	0.97886
1295.95415	0.97916
1293.90034	0.97948
1291.84653	0.97995
1289.79272	0.98062
1287.73891	0.98133
1285.68510	0.98185
1283.63129	0.98209
1281.57748	0.98204
1279.52367	0.98199
1277.46986	0.98210
1275.41605	0.98205
1273.36224	0.98175
1271.30843	0.98155
1269.25462	0.98167
1267.20081	0.98185
1265.14700	0.98168
1263.09319	0.98112
1261.03938	0.98042
1258.98557	0.97963
1256.93176	0.97883
1254.87795	0.97862
1252.82414	0.97922
1250.77033	0.97990
1248.71652	0.98041
1246.66271	0.98099
1244.60890	0.98147
1242.55509	0.98157
1240.50128	0.98144
1238.44747	0.98146
1236.39366	0.98165
1234.33985	0.98165
1232.28604	0.98151
1230.23223	0.98155
1228.17842	0.98163
1226.12461	0.98143
1224.07080	0.98097
1222.01699	0.98048
1219.96318	0.98009
1217.90937	0.97994
1215.85556	0.98010
1213.80175	0.98057
1211.74794	0.98110
1209.69413	0.98123
1207.64032	0.98109
1205.58651	0.98109
1203.53270	0.98121
1201.47889	0.98131
1199.42508	0.98128
1197.37127	0.98104
1195.31746	0.98081
1193.26365	0.98081
1191.20984	0.98090
1189.15603	0.98098
1187.10222	0.98091
1185.04841	0.98057
1182.99460	0.98008
1180.94079	0.97944
1178.88698	0.97853
1176.83317	0.97740
1174.77936	0.97580
1172.72555	0.97331
1170.67174	0.96997
1168.61793	0.96662
1166.56412	0.96469
1164.51031	0.96499
1162.45650	0.96679
1160.40269	0.96881
1158.34888	0.97033
1156.29507	0.97139
1154.24126	0.97223
1152.18745	0.97290
1150.13364	0.97374
1148.07983	0.97487
1146.02602	0.97595
1143.97221	0.97689
1141.91840	0.97778
1139.86459	0.97843
1137.81078	0.97876
1135.75697	0.97899
1133.70316	0.97922
1131.64935	0.97942
1129.59554	0.97956
1127.54173	0.97956
1125.48792	0.97950
1123.43411	0.97943
1121.38030	0.97943
1119.32649	0.97946
1117.27268	0.97935
1115.21887	0.97906
1113.16506	0.97877
1111.11125	0.97856
1109.05744	0.97830
1107.00363	0.97767
1104.94982	0.97677
1102.89601	0.97612
1100.84220	0.97597
1098.78839	0.97633
1096.73458	0.97703
1094.68077	0.97764
1092.62696	0.97790
1090.57315	0.97789
1088.51934	0.97786
1086.46553	0.97787
1084.41172	0.97807
1082.35791	0.97833
1080.30410	0.97830
1078.25029	0.97822
1076.19648	0.97844
1074.14267	0.97881
1072.08886	0.97924
1070.03505	0.97957
1067.98124	0.97968
1065.92743	0.97972
1063.87362	0.97955
1061.81981	0.97934
1059.76600	0.97963
1057.71219	0.98001
1055.65838	0.97986
1053.60457	0.97938
1051.55076	0.97881
1049.49695	0.97817
1047.44314	0.97748
1045.38933	0.97703
1043.33552	0.97713
1041.28171	0.97763
1039.22790	0.97823
1037.17409	0.97874
1035.12028	0.97910
1033.06647	0.97938
1031.01265	0.97953
1028.95884	0.97949
1026.90503	0.97936
1024.85122	0.97935
1022.79741	0.97944
1020.74360	0.97932
1018.68979	0.97921
1016.63598	0.97939
1014.58217	0.97938
1012.52836	0.97891
1010.47455	0.97837
1008.42074	0.97795
1006.36693	0.97746
1004.31312	0.97607
1002.25931	0.97285
1000.20550	0.96789
998.15169	0.96384
996.09788	0.96417
994.04407	0.96838
991.99026	0.97307
989.93645	0.97634
987.88264	0.97819
985.82883	0.97908
983.77502	0.97917
981.72121	0.97820
979.66740	0.97574
977.61359	0.97160
975.55978	0.96644
973.50597	0.96244
971.45216	0.96252
969.39835	0.96707
967.34454	0.97274
965.29073	0.97667
963.23692	0.97896
961.18311	0.98047
959.12930	0.98160
957.07549	0.98242
955.02168	0.98278
952.96787	0.98270
950.91406	0.98241
948.86025	0.98241
946.80644	0.98288
944.75263	0.98321
942.69882	0.98303
940.64501	0.98286
938.59120	0.98314
936.53739	0.98365
934.48358	0.98389
932.42977	0.98383
930.37596	0.98391
928.32215	0.98419
926.26834	0.98435
924.21453	0.98444
922.16072	0.98456
920.10691	0.98437
918.05310	0.98385
915.99929	0.98346
913.94548	0.98302
911.89167	0.98219
909.83786	0.98128
907.78405	0.98069
905.73024	0.98027
903.67643	0.97927
901.62262	0.97748
899.56881	0.97650
897.51500	0.97765
895.46119	0.97984
893.40738	0.98142
891.35357	0.98213
889.29976	0.98251
887.24595	0.98290
885.19214	0.98325
883.13833	0.98359
881.08452	0.98370
879.03071	0.98349
876.97690	0.98330
874.92309	0.98326
872.86928	0.98320
870.81547	0.98313
868.76166	0.98327
866.70785	0.98355
864.65404	0.98377
862.60023	0.98376
860.54642	0.98321
858.49261	0.98256
856.43880	0.98245
854.38499	0.98259
852.33118	0.98233
850.27737	0.98160
848.22356	0.98026
846.16975	0.97764
844.11594	0.97296
842.06213	0.96731
840.00832	0.96523
837.95451	0.96905
835.90070	0.97468
833.84689	0.97814
831.79308	0.97949
829.73927	0.98006
827.68546	0.98075
825.63165	0.98142
823.57784	0.98153
821.52403	0.98126
819.47022	0.98122
817.41641	0.98145
815.36260	0.98103
813.30879	0.97923
811.25498	0.97682
809.20117	0.97552
807.14736	0.97599
805.09355	0.97771
803.03974	0.97980
800.98593	0.98145
798.93212	0.98243
796.87831	0.98273
794.82450	0.98232
792.77069	0.98203
790.71688	0.98246
788.66307	0.98287
786.60926	0.98261
784.55545	0.98252
782.50164	0.98310
780.44783	0.98348
778.39402	0.98330
776.34021	0.98288
774.28640	0.98292
772.23259	0.98352
770.17878	0.98371
768.12497	0.98343
766.07116	0.98332
764.01735	0.98339
761.96354	0.98335
759.90973	0.98292
757.85592	0.98205
755.80211	0.98123
753.74830	0.98084
751.69449	0.98076
749.64068	0.98079
747.58687	0.98067
745.53306	0.98046
743.47925	0.98034
741.42544	0.97987
739.37163	0.97842
737.31781	0.97555
735.26400	0.96900
733.21019	0.95535
731.15638	0.94041
729.10257	0.93634
727.04876	0.93979
724.99495	0.93674
722.94114	0.92123
720.88733	0.89458
718.83352	0.86652
716.77971	0.85496
714.72590	0.87094
712.67209	0.90495
710.61828	0.93565
708.56447	0.95373
706.51066	0.96289
704.45685	0.96770
702.40304	0.97038
700.34923	0.97206
698.29542	0.97353
696.24161	0.97478
694.18780	0.97553
692.13399	0.97597
690.08018	0.97636
688.02637	0.97699
685.97256	0.97803
683.91875	0.97914
681.86494	0.97927
679.81113	0.97853
677.75732	0.97841
675.70351	0.97892
673.64970	0.97938
671.59589	0.97994
669.54208	0.98067
667.48827	0.98060
665.43446	0.97965
663.38065	0.97915
661.32684	0.97954
659.27303	0.98069
657.21922	0.98171
655.16541	0.98189
653.11160	0.98166
651.05779	0.98168
649.00398	0.98154
646.95017	0.98103
644.89636	0.98071
642.84255	0.98048
640.78874	0.98022
638.73493	0.98042
636.68112	0.98089
634.62731	0.98096
632.57350	0.98047
630.51969	0.97963
628.46588	0.97920
626.41207	0.97950
624.35826	0.97990
622.30445	0.98005
620.25064	0.97987
618.19683	0.97939
616.14302	0.97987
614.08921	0.98091
612.03540	0.98073
609.98159	0.97993
607.92778	0.97985
605.87397	0.98020
603.82016	0.97987
601.76635	0.97941
599.71254	0.97953
597.65873	0.97977
595.60492	0.98029
593.55111	0.98131
591.49730	0.98225
589.44349	0.98240
587.38968	0.98189
585.33587	0.98131
583.28206	0.98028
581.22825	0.97944
579.17444	0.97967
577.12063	0.97972
575.06682	0.98003
573.01301	0.98127
570.95920	0.98187
568.90539	0.98158
566.85158	0.98069
564.79777	0.97971
562.74396	0.97954
560.69015	0.97957
558.63634	0.97964
556.58253	0.97980
554.52872	0.97930
552.47491	0.97846
550.42110	0.97813
548.36729	0.97809
546.31348	0.97839
544.25967	0.97947
542.20586	0.97999
540.15205	0.97933
538.09824	0.97866
536.04443	0.97888
533.99062	0.97974
531.93681	0.98036
529.88300	0.98069
527.82919	0.98035
525.77538	0.97918
523.72157	0.97843
521.66776	0.97878
519.61395	0.97988
517.56014	0.98090
515.50633	0.98118
513.45252	0.98092
511.39871	0.98057
509.34490	0.98039
507.29109	0.98020
505.23728	0.98028
503.18347	0.98046
501.12966	0.97940
499.07585	0.97838
497.02204	0.97880
494.96823	0.97918
492.91442	0.97913
490.86061	0.97845
488.80680	0.97728
486.75299	0.97777
484.69918	0.97921
482.64537	0.98004
480.59156	0.98093
478.53775	0.98062
476.48394	0.97831
474.43013	0.97705
472.37632	0.97870
470.32251	0.97989
468.26870	0.97817
466.21489	0.97523
464.16108	0.97202
462.10727	0.96884
460.05346	0.96880
457.99965	0.97266
455.94584	0.97545
453.89203	0.97581
451.83822	0.97698
449.78441	0.97922
447.73060	0.98009
445.67679	0.97908
443.62298	0.97863
441.56916	0.98039
439.51535	0.98233
437.46154	0.98195
435.40773	0.97868
433.35392	0.97516
431.30011	0.97550
429.24630	0.97802
427.19249	0.97961
425.13868	0.98190
423.08487	0.98456
421.03106	0.98526
418.97725	0.98325
416.92344	0.98062
414.86963	0.97999
412.81582	0.98068
410.76201	0.98237
408.70820	0.98296
406.65439	0.98148
404.60058	0.98123
402.54677	0.98154
400.49296	0.98113
398.43915	0.98103
