3996.70104	0.99707
3994.64724	0.99708
3992.59344	0.99698
3990.53964	0.99661
3988.48583	0.99651
3986.43203	0.99642
3984.37823	0.99606
3982.32442	0.99585
3980.27062	0.99579
3978.21682	0.99582
3976.16301	0.99585
3974.10921	0.99604
3972.05541	0.99613
3970.00160	0.99553
3967.94780	0.99499
3965.89400	0.99543
3963.84019	0.99611
3961.78639	0.99608
3959.73259	0.99609
3957.67878	0.99642
3955.62498	0.99635
3953.57118	0.99581
3951.51737	0.99528
3949.46357	0.99542
3947.40977	0.99600
3945.35596	0.99620
3943.30216	0.99585
3941.24836	0.99527
3939.19455	0.99512
3937.14075	0.99540
3935.08695	0.99563
3933.03315	0.99565
3930.97934	0.99571
3928.92554	0.99604
3926.87174	0.99621
3924.81793	0.99599
3922.76413	0.99602
3920.71033	0.99639
3918.65652	0.99668
3916.60272	0.99676
3914.54892	0.99659
3912.49511	0.99618
3910.44131	0.99572
3908.38751	0.99547
3906.33370	0.99550
3904.27990	0.99569
3902.22610	0.99605
3900.17229	0.99640
3898.11849	0.99653
3896.06469	0.99652
3894.01088	0.99653
3891.95708	0.99680
3889.90328	0.99677
3887.84947	0.99581
3885.79567	0.99508
3883.74187	0.99555
3881.68807	0.99619
3879.63426	0.99640
3877.58046	0.99647
3875.52666	0.99665
3873.47285	0.99685
3871.41905	0.99680
3869.36525	0.99620
3867.31144	0.99574
3865.25764	0.99618
3863.20384	0.99639
3861.15003	0.99587
3859.09623	0.99573
3857.04243	0.99588
3854.98862	0.99591
3852.93482	0.99561
3850.88102	0.99530
3848.82721	0.99558
3846.77341	0.99590
3844.71961	0.99594
3842.66580	0.99580
3840.61200	0.99516
3838.55820	0.99450
3836.50439	0.99485
3834.45059	0.99546
3832.39679	0.99582
3830.34298	0.99606
3828.28918	0.99588
3826.23538	0.99557
3824.18158	0.99526
3822.12777	0.99490
3820.07397	0.99522
3818.02017	0.99575
3815.96636	0.99564
3813.91256	0.99532
3811.85876	0.99546
3809.80495	0.99620
3807.75115	0.99708
3805.69735	0.99695
3803.64354	0.99576
3801.58974	0.99506
3799.53594	0.99574
3797.48213	0.99650
3795.42833	0.99685
3793.37453	0.99721
3791.32072	0.99758
3789.26692	0.99771
3787.21312	0.99772
3785.15931	0.99777
3783.10551	0.99736
3781.05171	0.99635
3778.99790	0.99554
3776.94410	0.99548
3774.89030	0.99555
3772.83650	0.99581
3770.78269	0.99660
3768.72889	0.99689
3766.67509	0.99646
3764.62128	0.99635
3762.56748	0.99638
3760.51368	0.99618
3758.45987	0.99576
3756.40607	0.99536
3754.35227	0.99524
3752.29846	0.99537
3750.24466	0.99642
3748.19086	0.99781
3746.13705	0.99809
3744.08325	0.99734
3742.02945	0.99668
3739.97564	0.99618
3737.92184	0.99569
3735.86804	0.99576
3733.81423	0.99620
3731.76043	0.99629
3729.70663	0.99624
3727.65282	0.99623
3725.59902	0.99623
3723.54522	0.99612
3721.49141	0.99614
3719.43761	0.99641
3717.38381	0.99683
3715.33001	0.99732
3713.27620	0.99749
3711.22240	0.99709
3709.16860	0.99641
3707.11479	0.99595
3705.06099	0.99567
3703.00719	0.99531
3700.95338	0.99485
3698.89958	0.99456
3696.84578	0.99453
3694.79197	0.99469
3692.73817	0.99515
3690.68437	0.99613
3688.63056	0.99697
3686.57676	0.99651
3684.52296	0.99542
3682.46915	0.99472
3680.41535	0.99472
3678.36155	0.99501
3676.30774	0.99558
3674.25394	0.99661
3672.20014	0.99689
3670.14633	0.99621
3668.09253	0.99559
3666.03873	0.99544
3663.98492	0.99513
3661.93112	0.99459
3659.87732	0.99433
3657.82352	0.99468
3655.76971	0.99500
3653.71591	0.99479
3651.66211	0.99416
3649.60830	0.99327
3647.55450	0.99301
3645.50070	0.99324
3643.44689	0.99339
3641.39309	0.99344
3639.33929	0.99357
3637.28548	0.99391
3635.23168	0.99443
3633.17788	0.99454
3631.12407	0.99374
3629.07027	0.99254
3627.01647	0.99231
3624.96266	0.99285
3622.90886	0.99309
3620.85506	0.99314
3618.80125	0.99333
3616.74745	0.99309
3614.69365	0.99234
3612.63984	0.99200
3610.58604	0.99228
3608.53224	0.99241
3606.47844	0.99237
3604.42463	0.99240
3602.37083	0.99216
3600.31703	0.99168
3598.26322	0.99153
3596.20942	0.99186
3594.15562	0.99248
3592.10181	0.99316
3590.04801	0.99314
3587.99421	0.99232
3585.94040	0.99176
3583.88660	0.99188
3581.83280	0.99172
3579.77899	0.99091
3577.72519	0.99063
3575.67139	0.99137
3573.61758	0.99223
3571.56378	0.99254
3569.50998	0.99236
3567.45617	0.99240
3565.40237	0.99272
3563.34857	0.99252
3561.29476	0.99224
3559.24096	0.99245
3557.18716	0.99273
3555.13335	0.99263
3553.07955	0.99211
3551.02575	0.99150
3548.97195	0.99159
3546.91814	0.99197
3544.86434	0.99154
3542.81054	0.99084
3540.75673	0.99061
3538.70293	0.99066
3536.64913	0.99084
3534.59532	0.99088
3532.54152	0.99074
3530.48772	0.99075
3528.43391	0.99097
3526.38011	0.99135
3524.32631	0.99154
3522.27250	0.99144
3520.21870	0.99144
3518.16490	0.99153
3516.11109	0.99159
3514.05729	0.99173
3512.00349	0.99183
3509.94968	0.99179
3507.89588	0.99147
3505.84208	0.99095
3503.78827	0.99067
3501.73447	0.99074
3499.68067	0.99083
3497.62687	0.99067
3495.57306	0.99055
3493.51926	0.99084
3491.46546	0.99125
3489.41165	0.99145
3487.35785	0.99144
3485.30405	0.99145
3483.25024	0.99150
3481.19644	0.99140
3479.14264	0.99142
3477.08883	0.99165
3475.03503	0.99148
3472.98123	0.99102
3470.92742	0.99066
3468.87362	0.99026
3466.81982	0.99017
3464.76601	0.99049
3462.71221	0.99071
3460.65841	0.99088
3458.60460	0.99101
3456.55080	0.99064
3454.49700	0.99019
3452.44319	0.99030
3450.38939	0.99055
3448.33559	0.99074
3446.28178	0.99106
3444.22798	0.99110
3442.17418	0.99055
3440.12038	0.99002
3438.06657	0.99008
3436.01277	0.99038
3433.95897	0.99069
3431.90516	0.99058
3429.85136	0.99023
3427.79756	0.99050
3425.74375	0.99047
3423.68995	0.98983
3421.63615	0.98994
3419.58234	0.99072
3417.52854	0.99075
3415.47474	0.98999
3413.42093	0.98966
3411.36713	0.98986
3409.31333	0.98977
3407.25952	0.98923
3405.20572	0.98892
3403.15192	0.98931
3401.09811	0.98975
3399.04431	0.98964
3396.99051	0.98911
3394.93670	0.98871
3392.88290	0.98902
3390.82910	0.98974
3388.77529	0.98988
3386.72149	0.98938
3384.66769	0.98917
3382.61389	0.98943
3380.56008	0.98976
3378.50628	0.99010
3376.45248	0.99032
3374.39867	0.99028
3372.34487	0.99005
3370.29107	0.98978
3368.23726	0.98959
3366.18346	0.98965
3364.12966	0.98992
3362.07585	0.98984
3360.02205	0.98958
3357.96825	0.98980
3355.91444	0.99001
3353.86064	0.98984
3351.80684	0.98977
3349.75303	0.98981
3347.69923	0.98963
3345.64543	0.98940
3343.59162	0.98958
3341.53782	0.99001
3339.48402	0.99047
3337.43021	0.99059
3335.37641	0.99023
3333.32261	0.99003
3331.26881	0.98996
3329.21500	0.98961
3327.16120	0.98939
3325.10740	0.98964
3323.05359	0.98968
3320.99979	0.98941
3318.94599	0.98975
3316.89218	0.99048
3314.83838	0.99079
3312.78458	0.99070
3310.73077	0.99034
3308.67697	0.99029
3306.62317	0.99074
3304.56936	0.99089
3302.51556	0.99074
3300.46176	0.99069
3298.40795	0.99047
3296.35415	0.99037
3294.30035	0.99063
3292.24654	0.99051
3290.19274	0.98996
3288.13894	0.98972
3286.08513	0.98997
3284.03133	0.99024
3281.97753	0.98985
3279.92372	0.98916
3277.86992	0.98911
3275.81612	0.98980
3273.76232	0.99045
3271.70851	0.99063
3269.65471	0.99059
3267.60091	0.99056
3265.54710	0.99054
3263.49330	0.99049
3261.43950	0.99062
3259.38569	0.99097
3257.33189	0.99121
3255.27809	0.99123
3253.22428	0.99112
3251.17048	0.99114
3249.11668	0.99125
3247.06287	0.99107
3245.00907	0.99090
3242.95527	0.99095
3240.90146	0.99084
3238.84766	0.99058
3236.79386	0.99039
3234.74005	0.99048
3232.68625	0.99080
3230.63245	0.99087
3228.57864	0.99063
3226.52484	0.99045
3224.47104	0.99046
3222.41724	0.99036
3220.36343	0.99011
3218.30963	0.99014
3216.25583	0.99054
3214.20202	0.99097
3212.14822	0.99125
3210.09442	0.99132
3208.04061	0.99124
3205.98681	0.99140
3203.93301	0.99176
3201.87920	0.99188
3199.82540	0.99183
3197.77160	0.99178
3195.71779	0.99166
3193.66399	0.99138
3191.61019	0.99114
3189.55638	0.99105
3187.50258	0.99102
3185.44878	0.99145
3183.39497	0.99199
3181.34117	0.99185
3179.28737	0.99152
3177.23356	0.99157
3175.17976	0.99170
3173.12596	0.99174
3171.07215	0.99192
3169.01835	0.99227
3166.96455	0.99224
3164.91075	0.99181
3162.85694	0.99147
3160.80314	0.99130
3158.74934	0.99145
3156.69553	0.99178
3154.64173	0.99186
3152.58793	0.99168
3150.53412	0.99147
3148.48032	0.99151
3146.42652	0.99177
3144.37271	0.99195
3142.31891	0.99194
3140.26511	0.99187
3138.21130	0.99176
3136.15750	0.99167
3134.10370	0.99204
3132.04989	0.99273
3129.99609	0.99303
3127.94229	0.99306
3125.88848	0.99307
3123.83468	0.99286
3121.78088	0.99246
3119.72707	0.99216
3117.67327	0.99219
3115.61947	0.99251
3113.56566	0.99281
3111.51186	0.99270
3109.45806	0.99241
3107.40426	0.99240
3105.35045	0.99249
3103.29665	0.99244
3101.24285	0.99233
3099.18904	0.99227
3097.13524	0.99253
3095.08144	0.99311
3093.02763	0.99328
3090.97383	0.99288
3088.92003	0.99264
3086.86622	0.99256
3084.81242	0.99241
3082.75862	0.99255
3080.70481	0.99309
3078.65101	0.99348
3076.59721	0.99360
3074.54340	0.99390
3072.48960	0.99413
3070.43580	0.99362
3068.38199	0.99286
3066.32819	0.99280
3064.27439	0.99305
3062.22058	0.99307
3060.16678	0.99287
3058.11298	0.99260
3056.05918	0.99285
3054.00537	0.99349
3051.95157	0.99374
3049.89777	0.99356
3047.84396	0.99362
3045.79016	0.99407
3043.73636	0.99426
3041.68255	0.99400
3039.62875	0.99385
3037.57495	0.99391
3035.52114	0.99388
3033.46734	0.99384
3031.41354	0.99396
3029.35973	0.99409
3027.30593	0.99408
3025.25213	0.99399
3023.19832	0.99390
3021.14452	0.99390
3019.09072	0.99398
3017.03691	0.99408
3014.98311	0.99424
3012.92931	0.99422
3010.87550	0.99390
3008.82170	0.99379
3006.76790	0.99401
3004.71409	0.99396
3002.66029	0.99364
3000.60649	0.99330
2998.55269	0.99305
2996.49888	0.99326
2994.44508	0.99376
2992.39128	0.99401
2990.33747	0.99406
2988.28367	0.99411
2986.22987	0.99404
2984.17606	0.99386
2982.12226	0.99405
2980.06846	0.99472
2978.01465	0.99527
2975.96085	0.99526
2973.90705	0.99478
2971.85324	0.99435
2969.79944	0.99419
2967.74564	0.99422
2965.69183	0.99449
2963.63803	0.99471
2961.58423	0.99444
2959.53042	0.99426
2957.47662	0.99469
2955.42282	0.99505
2953.36901	0.99478
2951.31521	0.99443
2949.26141	0.99469
2947.20761	0.99504
2945.15380	0.99502
2943.10000	0.99517
2941.04620	0.99557
2938.99239	0.99571
2936.93859	0.99553
2934.88479	0.99533
2932.83098	0.99544
2930.77718	0.99570
2928.72338	0.99576
2926.66957	0.99585
2924.61577	0.99613
2922.56197	0.99640
2920.50816	0.99640
2918.45436	0.99608
2916.40056	0.99568
2914.34675	0.99503
2912.29295	0.99443
2910.23915	0.99468
2908.18534	0.99524
2906.13154	0.99529
2904.07774	0.99522
2902.02393	0.99545
2899.97013	0.99552
2897.91633	0.99506
2895.86252	0.99445
2893.80872	0.99427
2891.75492	0.99443
2889.70112	0.99466
2887.64731	0.99487
2885.59351	0.99465
2883.53971	0.99419
2881.48590	0.99417
2879.43210	0.99452
2877.37830	0.99484
2875.32449	0.99510
2873.27069	0.99514
2871.21689	0.99500
2869.16308	0.99506
2867.10928	0.99524
2865.05548	0.99536
2863.00167	0.99566
2860.94787	0.99613
2858.89407	0.99637
2856.84026	0.99616
2854.78646	0.99585
2852.73266	0.99586
2850.67885	0.99588
2848.62505	0.99563
2846.57125	0.99544
2844.51744	0.99540
2842.46364	0.99524
2840.40984	0.99512
2838.35603	0.99531
2836.30223	0.99562
2834.24843	0.99584
2832.19463	0.99585
2830.14082	0.99540
2828.08702	0.99472
2826.03322	0.99450
2823.97941	0.99489
2821.92561	0.99532
2819.87181	0.99543
2817.81800	0.99504
2815.76420	0.99435
2813.71040	0.99401
2811.65659	0.99434
2809.60279	0.99480
2807.54899	0.99495
2805.49518	0.99502
2803.44138	0.99525
2801.38758	0.99547
2799.33377	0.99549
2797.27997	0.99555
2795.22617	0.99574
2793.17236	0.99584
2791.11856	0.99571
2789.06476	0.99557
2787.01095	0.99567
2784.95715	0.99582
2782.90335	0.99568
2780.84955	0.99547
2778.79574	0.99564
2776.74194	0.99623
2774.68814	0.99651
2772.63433	0.99610
2770.58053	0.99561
2768.52673	0.99531
2766.47292	0.99505
2764.41912	0.99489
2762.36532	0.99491
2760.31151	0.99514
2758.25771	0.99543
2756.20391	0.99556
2754.15010	0.99549
2752.09630	0.99533
2750.04250	0.99528
2747.98869	0.99549
2745.93489	0.99569
2743.88109	0.99566
2741.82728	0.99553
2739.77348	0.99549
2737.71968	0.99558
2735.66587	0.99573
2733.61207	0.99570
2731.55827	0.99552
2729.50446	0.99556
2727.45066	0.99568
2725.39686	0.99558
2723.34306	0.99561
2721.28925	0.99590
2719.23545	0.99610
2717.18165	0.99622
2715.12784	0.99629
2713.07404	0.99625
2711.02024	0.99625
2708.96643	0.99615
2706.91263	0.99603
2704.85883	0.99597
2702.80502	0.99589
2700.75122	0.99596
2698.69742	0.99603
2696.64361	0.99590
2694.58981	0.99566
2692.53601	0.99563
2690.48220	0.99591
2688.42840	0.99603
2686.37460	0.99606
2684.32079	0.99630
2682.26699	0.99653
2680.21319	0.99648
2678.15938	0.99608
2676.10558	0.99585
2674.05178	0.99618
2671.99797	0.99652
2669.94417	0.99656
2667.89037	0.99650
2665.83657	0.99619
2663.78276	0.99569
2661.72896	0.99545
2659.67516	0.99545
2657.62135	0.99562
2655.56755	0.99583
2653.51375	0.99564
2651.45994	0.99528
2649.40614	0.99532
2647.35234	0.99558
2645.29853	0.99563
2643.24473	0.99531
2641.19093	0.99495
2639.13712	0.99483
2637.08332	0.99484
2635.02952	0.99501
2632.97571	0.99533
2630.92191	0.99538
2628.86811	0.99513
2626.81430	0.99494
2624.76050	0.99495
2622.70670	0.99525
2620.65289	0.99559
2618.59909	0.99561
2616.54529	0.99558
2614.49149	0.99574
2612.43768	0.99591
2610.38388	0.99579
2608.33008	0.99529
2606.27627	0.99487
2604.22247	0.99497
2602.16867	0.99535
2600.11486	0.99556
2598.06106	0.99556
2596.00726	0.99565
2593.95345	0.99609
2591.89965	0.99634
2589.84585	0.99605
2587.79204	0.99608
2585.73824	0.99674
2583.68444	0.99692
2581.63063	0.99660
2579.57683	0.99652
2577.52303	0.99630
2575.46922	0.99536
2573.41542	0.99450
2571.36162	0.99495
2569.30781	0.99598
2567.25401	0.99657
2565.20021	0.99694
2563.14640	0.99690
2561.09260	0.99629
2559.03880	0.99579
2556.98500	0.99578
2554.93119	0.99565
2552.87739	0.99495
2550.82359	0.99438
2548.76978	0.99456
2546.71598	0.99512
2544.66218	0.99545
2542.60837	0.99545
2540.55457	0.99555
2538.50077	0.99559
2536.44696	0.99492
2534.39316	0.99424
2532.33936	0.99432
2530.28555	0.99461
2528.23175	0.99444
2526.17795	0.99404
2524.12414	0.99430
2522.07034	0.99486
2520.01654	0.99470
2517.96273	0.99451
2515.90893	0.99482
2513.85513	0.99477
2511.80132	0.99460
2509.74752	0.99478
2507.69372	0.99488
2505.63992	0.99502
2503.58611	0.99530
2501.53231	0.99511
2499.47851	0.99491
2497.42470	0.99526
2495.37090	0.99552
2493.31710	0.99549
2491.26329	0.99550
2489.20949	0.99585
2487.15569	0.99632
2485.10188	0.99611
2483.04808	0.99562
2480.99428	0.99572
2478.94047	0.99606
2476.88667	0.99606
2474.83287	0.99610
2472.77906	0.99647
2470.72526	0.99684
2468.67146	0.99713
2466.61765	0.99740
2464.56385	0.99742
2462.51005	0.99676
2460.45624	0.99587
2458.40244	0.99597
2456.34864	0.99672
2454.29483	0.99691
2452.24103	0.99721
2450.18723	0.99797
2448.13343	0.99778
2446.07962	0.99693
2444.02582	0.99668
2441.97202	0.99650
2439.91821	0.99605
2437.86441	0.99600
2435.81061	0.99690
2433.75680	0.99824
2431.70300	0.99839
2429.64920	0.99724
2427.59539	0.99643
2425.54159	0.99660
2423.48779	0.99699
2421.43398	0.99700
2419.38018	0.99675
2417.32638	0.99660
2415.27257	0.99669
2413.21877	0.99694
2411.16497	0.99728
2409.11116	0.99739
2407.05736	0.99741
2405.00356	0.99787
2402.94975	0.99851
2400.89595	0.99853
2398.84215	0.99779
2396.78834	0.99718
2394.73454	0.99737
2392.68074	0.99789
2390.62694	0.99784
2388.57313	0.99750
2386.51933	0.99741
2384.46553	0.99753
2382.41172	0.99796
2380.35792	0.99865
2378.30412	0.99910
2376.25031	0.99920
2374.19651	0.99955
2372.14271	1.00000
2370.08890	0.99915
2368.03510	0.99665
2365.98130	0.99500
2363.92749	0.99532
2361.87369	0.99564
2359.81989	0.99544
2357.76608	0.99555
2355.71228	0.99648
2353.65848	0.99718
2351.60467	0.99731
2349.55087	0.99768
2347.49707	0.99785
2345.44326	0.99735
2343.38946	0.99687
2341.33566	0.99702
2339.28186	0.99741
2337.22805	0.99786
2335.17425	0.99806
2333.12045	0.99753
2331.06664	0.99691
2329.01284	0.99667
2326.95904	0.99603
2324.90523	0.99505
2322.85143	0.99443
2320.79763	0.99435
2318.74382	0.99503
2316.69002	0.99658
2314.63622	0.99760
2312.58241	0.99698
2310.52861	0.99625
2308.47481	0.99634
2306.42100	0.99664
2304.36720	0.99687
2302.31340	0.99640
2300.25959	0.99556
2298.20579	0.99536
2296.15199	0.99551
2294.09818	0.99540
2292.04438	0.99513
2289.99058	0.99559
2287.93677	0.99638
2285.88297	0.99649
2283.82917	0.99625
2281.77537	0.99596
2279.72156	0.99577
2277.66776	0.99587
2275.61396	0.99637
2273.56015	0.99680
2271.50635	0.99658
2269.45255	0.99616
2267.39874	0.99619
2265.34494	0.99699
2263.29114	0.99788
2261.23733	0.99804
2259.18353	0.99788
2257.12973	0.99808
2255.07592	0.99860
2253.02212	0.99877
2250.96832	0.99820
2248.91451	0.99785
2246.86071	0.99801
2244.80691	0.99782
2242.75310	0.99771
2240.69930	0.99801
2238.64550	0.99815
2236.59169	0.99800
2234.53789	0.99726
2232.48409	0.99635
2230.43029	0.99644
2228.37648	0.99714
2226.32268	0.99802
2224.26888	0.99930
2222.21507	1.00026
2220.16127	1.00037
2218.10747	0.99939
2216.05366	0.99822
2213.99986	0.99835
2211.94606	0.99929
2209.89225	0.99983
2207.83845	1.00029
2205.78465	1.00029
2203.73084	0.99913
2201.67704	0.99784
2199.62324	0.99701
2197.56943	0.99696
2195.51563	0.99740
2193.46183	0.99734
2191.40802	0.99690
2189.35422	0.99743
2187.30042	0.99882
2185.24661	0.99989
2183.19281	1.00049
2181.13901	1.00085
2179.08520	1.00210
2177.03140	1.00277
2174.97760	1.00132
2172.92380	0.99925
2170.86999	0.99728
2168.81619	0.99623
2166.76239	0.99641
2164.70858	0.99564
2162.65478	0.99343
2160.60098	0.99495
2158.54717	0.99996
2156.49337	1.00201
2154.43957	1.00197
2152.38576	1.00128
2150.33196	0.99980
2148.27816	0.99895
2146.22435	0.99919
2144.17055	0.99906
2142.11675	0.99842
2140.06294	0.99806
2138.00914	0.99763
2135.95534	0.99762
2133.90153	0.99898
2131.84773	1.00063
2129.79393	1.00062
2127.74012	0.99989
2125.68632	0.99997
2123.63252	1.00005
2121.57871	0.99999
2119.52491	0.99996
2117.47111	0.99921
2115.41731	0.99876
2113.36350	0.99967
2111.30970	1.00003
2109.25590	0.99860
2107.20209	0.99713
2105.14829	0.99692
2103.09449	0.99721
2101.04068	0.99738
2098.98688	0.99755
2096.93308	0.99802
2094.87927	0.99922
2092.82547	1.00014
2090.77167	0.99955
2088.71786	0.99875
2086.66406	0.99930
2084.61026	1.00015
2082.55645	1.00008
2080.50265	0.99949
2078.44885	0.99882
2076.39504	0.99798
2074.34124	0.99692
2072.28744	0.99662
2070.23363	0.99749
2068.17983	0.99808
2066.12603	0.99849
2064.07223	0.99948
2062.01842	0.99966
2059.96462	0.99876
2057.91082	0.99804
2055.85701	0.99731
2053.80321	0.99634
2051.74941	0.99577
2049.69560	0.99610
2047.64180	0.99709
2045.58800	0.99811
2043.53419	1.00003
2041.48039	1.00328
2039.42659	1.00441
2037.37278	1.00193
2035.31898	1.00084
2033.26518	1.00245
2031.21137	1.00262
2029.15757	1.00147
2027.10377	1.00173
2025.04996	1.00182
2022.99616	0.99905
2020.94236	0.99654
2018.88855	0.99724
2016.83475	0.99881
2014.78095	0.99972
2012.72714	1.00070
2010.67334	1.00077
2008.61954	0.99821
2006.56574	0.99579
2004.51193	0.99704
2002.45813	0.99869
2000.40433	0.99909
1998.35052	0.99968
1996.29672	0.99981
1994.24292	1.00095
1992.18911	1.00258
1990.13531	1.00179
1988.08151	1.00027
1986.02770	0.99992
1983.97390	1.00118
1981.92010	1.00236
1979.86629	1.00094
1977.81249	0.99999
1975.75869	1.00119
1973.70488	1.00088
1971.65108	0.99928
1969.59728	0.99883
1967.54347	0.99947
1965.48967	1.00009
1963.43587	1.00040
1961.38206	1.00044
1959.32826	1.00060
1957.27446	1.00108
1955.22066	1.00087
1953.16685	1.00025
1951.11305	1.00006
1949.05925	0.99965
1947.00544	0.99919
1944.95164	0.99899
1942.89784	0.99823
1940.84403	0.99715
1938.79023	0.99711
1936.73643	0.99894
1934.68262	1.00023
1932.62882	0.99882
1930.57502	0.99745
1928.52121	0.99788
1926.46741	0.99834
1924.41361	0.99777
1922.35980	0.99768
1920.30600	0.99915
1918.25220	1.00026
1916.19839	0.99934
1914.14459	0.99783
1912.09079	0.99745
1910.03698	0.99830
1907.98318	0.99984
1905.92938	1.00105
1903.87557	1.00100
1901.82177	1.00025
1899.76797	1.00012
1897.71417	1.00020
1895.66036	1.00007
1893.60656	1.00045
1891.55276	1.00039
1889.49895	0.99953
1887.44515	0.99949
1885.39135	0.99975
1883.33754	0.99880
1881.28374	0.99740
1879.22994	0.99692
1877.17613	0.99747
1875.12233	0.99825
1873.06853	0.99873
1871.01472	0.99915
1868.96092	0.99993
1866.90712	1.00050
1864.85331	0.99977
1862.79951	0.99867
1860.74571	0.99829
1858.69190	0.99840
1856.63810	0.99863
1854.58430	0.99876
1852.53049	0.99912
1850.47669	0.99946
1848.42289	0.99891
1846.36908	0.99795
1844.31528	0.99768
1842.26148	0.99820
1840.20768	0.99892
1838.15387	0.99971
1836.10007	1.00021
1834.04627	1.00006
1831.99246	0.99969
1829.93866	0.99950
1827.88486	0.99944
1825.83105	0.99914
1823.77725	0.99835
1821.72345	0.99782
1819.66964	0.99799
1817.61584	0.99826
1815.56204	0.99823
1813.50823	0.99807
1811.45443	0.99824
1809.40063	0.99869
1807.34682	0.99864
1805.29302	0.99812
1803.23922	0.99787
1801.18541	0.99786
1799.13161	0.99726
1797.07781	0.99626
1795.02400	0.99566
1792.97020	0.99518
1790.91640	0.99424
1788.86260	0.99323
1786.80879	0.99274
1784.75499	0.99313
1782.70119	0.99389
1780.64738	0.99440
1778.59358	0.99496
1776.53978	0.99580
1774.48597	0.99654
1772.43217	0.99721
1770.37837	0.99792
1768.32456	0.99806
1766.27076	0.99767
1764.21696	0.99721
1762.16315	0.99716
1760.10935	0.99747
1758.05555	0.99748
1756.00174	0.99717
1753.94794	0.99701
1751.89414	0.99737
1749.84033	0.99808
1747.78653	0.99848
1745.73273	0.99843
1743.67892	0.99809
1741.62512	0.99782
1739.57132	0.99796
1737.51751	0.99801
1735.46371	0.99770
1733.40991	0.99729
1731.35611	0.99710
1729.30230	0.99701
1727.24850	0.99698
1725.19470	0.99725
1723.14089	0.99765
1721.08709	0.99761
1719.03329	0.99710
1716.97948	0.99690
1714.92568	0.99685
1712.87188	0.99658
1710.81807	0.99663
1708.76427	0.99679
1706.71047	0.99647
1704.65666	0.99589
1702.60286	0.99578
1700.54906	0.99608
1698.49525	0.99630
1696.44145	0.99646
1694.38765	0.99647
1692.33384	0.99601
1690.28004	0.99531
1688.22624	0.99480
1686.17243	0.99493
1684.11863	0.99552
1682.06483	0.99522
1680.01103	0.99433
1677.95722	0.99362
1675.90342	0.99326
1673.84962	0.99320
1671.79581	0.99329
1669.74201	0.99373
1667.68821	0.99382
1665.63440	0.99322
1663.58060	0.99261
1661.52680	0.99215
1659.47299	0.99188
1657.41919	0.99184
1655.36539	0.99197
1653.31158	0.99236
1651.25778	0.99251
1649.20398	0.99239
1647.15017	0.99228
1645.09637	0.99203
1643.04257	0.99192
1640.98876	0.99196
1638.93496	0.99193
1636.88116	0.99187
1634.82735	0.99204
1632.77355	0.99204
1630.71975	0.99163
1628.66594	0.99108
1626.61214	0.99080
1624.55834	0.99073
1622.50454	0.99078
1620.45073	0.99093
1618.39693	0.99110
1616.34313	0.99121
1614.28932	0.99124
1612.23552	0.99123
1610.18172	0.99103
1608.12791	0.99058
1606.07411	0.99018
1604.02031	0.99030
1601.96650	0.99080
1599.91270	0.99101
1597.85890	0.99068
1595.80509	0.99031
1593.75129	0.99016
1591.69749	0.99008
1589.64368	0.98991
1587.58988	0.98944
1585.53608	0.98846
1583.48227	0.98705
1581.42847	0.98585
1579.37467	0.98478
1577.32086	0.98282
1575.26706	0.97974
1573.21326	0.97745
1571.15945	0.97579
1569.10565	0.97376
1567.05185	0.97190
1564.99805	0.97058
1562.94424	0.96947
1560.89044	0.96846
1558.83664	0.96679
1556.78283	0.96493
1554.72903	0.96366
1552.67523	0.96214
1550.62142	0.96049
1548.56762	0.95892
1546.51382	0.95757
1544.46001	0.95638
1542.40621	0.95572
1540.35241	0.95460
1538.29860	0.95250
1536.24480	0.95146
1534.19100	0.95081
1532.13719	0.94976
1530.08339	0.94870
1528.02959	0.94772
1525.97578	0.94659
1523.92198	0.94542
1521.86818	0.94424
1519.81437	0.94329
1517.76057	0.94245
1515.70677	0.94160
1513.65297	0.94101
1511.59916	0.94034
1509.54536	0.93901
1507.49156	0.93708
1505.43775	0.93656
1503.38395	0.93678
1501.33015	0.93638
1499.27634	0.93564
1497.22254	0.93486
1495.16874	0.93408
1493.11493	0.93344
1491.06113	0.93277
1489.00733	0.93210
1486.95352	0.93144
1484.89972	0.93049
1482.84592	0.92928
1480.79211	0.92827
1478.73831	0.92765
1476.68451	0.92709
1474.63070	0.92647
1472.57690	0.92583
1470.52310	0.92528
1468.46929	0.92501
1466.41549	0.92484
1464.36169	0.92415
1462.30788	0.92292
1460.25408	0.92167
1458.20028	0.92027
1456.14648	0.91937
1454.09267	0.91943
1452.03887	0.91971
1449.98507	0.92011
1447.93126	0.92046
1445.87746	0.92056
1443.82366	0.92083
1441.76985	0.92117
1439.71605	0.92100
1437.66225	0.92028
1435.60844	0.91953
1433.55464	0.91934
1431.50084	0.91979
1429.44703	0.92040
1427.39323	0.92046
1425.33943	0.92035
1423.28562	0.92051
1421.23182	0.92067
1419.17802	0.92073
1417.12421	0.92096
1415.07041	0.92120
1413.01661	0.92141
1410.96280	0.92166
1408.90900	0.92191
1406.85520	0.92196
1404.80139	0.92171
1402.74759	0.92164
1400.69379	0.92204
1398.63999	0.92247
1396.58618	0.92252
1394.53238	0.92238
1392.47858	0.92213
1390.42477	0.92178
1388.37097	0.92185
1386.31717	0.92228
1384.26336	0.92220
1382.20956	0.92175
1380.15576	0.92155
1378.10195	0.92160
1376.04815	0.92157
1373.99435	0.92134
1371.94054	0.92115
1369.88674	0.92108
1367.83294	0.92111
1365.77913	0.92123
1363.72533	0.92118
1361.67153	0.92089
1359.61772	0.92073
1357.56392	0.92083
1355.51012	0.92095
1353.45631	0.92102
1351.40251	0.92115
1349.34871	0.92133
1347.29491	0.92141
1345.24110	0.92146
1343.18730	0.92151
1341.13350	0.92134
1339.07969	0.92114
1337.02589	0.92126
1334.97209	0.92156
1332.91828	0.92202
1330.86448	0.92255
1328.81068	0.92276
1326.75687	0.92259
1324.70307	0.92245
1322.64927	0.92258
1320.59546	0.92291
1318.54166	0.92319
1316.48786	0.92329
1314.43405	0.92346
1312.38025	0.92391
1310.32645	0.92447
1308.27264	0.92485
1306.21884	0.92490
1304.16504	0.92486
1302.11123	0.92496
1300.05743	0.92522
1298.00363	0.92563
1295.94982	0.92611
1293.89602	0.92653
1291.84222	0.92688
1289.78842	0.92729
1287.73461	0.92751
1285.68081	0.92746
1283.62701	0.92759
1281.57320	0.92781
1279.51940	0.92787
1277.46560	0.92792
1275.41179	0.92817
1273.35799	0.92857
1271.30419	0.92887
1269.25038	0.92909
1267.19658	0.92941
1265.14278	0.92978
1263.08897	0.92999
1261.03517	0.93007
1258.98137	0.93024
1256.92756	0.93040
1254.87376	0.93033
1252.81996	0.93033
1250.76615	0.93069
1248.71235	0.93112
1246.65855	0.93134
1244.60474	0.93133
1242.55094	0.93129
1240.49714	0.93155
1238.44334	0.93176
1236.38953	0.93159
1234.33573	0.93161
1232.28193	0.93193
1230.22812	0.93196
1228.17432	0.93187
1226.12052	0.93212
1224.06671	0.93242
1222.01291	0.93262
1219.95911	0.93276
1217.90530	0.93261
1215.85150	0.93209
1213.79770	0.93155
1211.74389	0.93131
1209.69009	0.93125
1207.63629	0.93097
1205.58248	0.93040
1203.52868	0.92982
1201.47488	0.92932
1199.42107	0.92891
1197.36727	0.92860
1195.31347	0.92830
1193.25966	0.92792
1191.20586	0.92726
1189.15206	0.92632
1187.09825	0.92533
1185.04445	0.92455
1182.99065	0.92418
1180.93685	0.92378
1178.88304	0.92292
1176.82924	0.92192
1174.77544	0.92117
1172.72163	0.92055
1170.66783	0.91995
1168.61403	0.91962
1166.56022	0.91927
1164.50642	0.91860
1162.45262	0.91827
1160.39881	0.91855
1158.34501	0.91895
1156.29121	0.91927
1154.23740	0.91926
1152.18360	0.91872
1150.12980	0.91798
1148.07599	0.91742
1146.02219	0.91700
1143.96839	0.91664
1141.91458	0.91633
1139.86078	0.91612
1137.80698	0.91604
1135.75317	0.91607
1133.69937	0.91614
1131.64557	0.91600
1129.59176	0.91558
1127.53796	0.91510
1125.48416	0.91456
1123.43036	0.91410
1121.37655	0.91365
1119.32275	0.91310
1117.26895	0.91267
1115.21514	0.91218
1113.16134	0.91149
1111.10754	0.91070
1109.05373	0.90990
1106.99993	0.90917
1104.94613	0.90863
1102.89232	0.90833
1100.83852	0.90833
1098.78472	0.90837
1096.73091	0.90830
1094.67711	0.90836
1092.62331	0.90854
1090.56950	0.90862
1088.51570	0.90848
1086.46190	0.90638
1084.40809	0.90041
1082.35429	0.89451
1080.30049	0.89405
1078.24668	0.89695
1076.19288	0.89907
1074.13908	0.89989
1072.08528	0.90021
1070.03147	0.90048
1067.97767	0.90051
1065.92387	0.90025
1063.87006	0.89993
1061.81626	0.89941
1059.76246	0.89861
1057.70865	0.89794
1055.65485	0.89761
1053.60105	0.89721
1051.54724	0.89649
1049.49344	0.89558
1047.43964	0.89447
1045.38583	0.89321
1043.33203	0.89215
1041.27823	0.89141
1039.22442	0.89078
1037.17062	0.88995
1035.11682	0.88904
1033.06301	0.88844
1031.00921	0.88822
1028.95541	0.88824
1026.90160	0.88848
1024.84780	0.88858
1022.79400	0.88835
1020.74019	0.88810
1018.68639	0.88806
1016.63259	0.88818
1014.57879	0.88841
1012.52498	0.88842
1010.47118	0.88827
1008.41738	0.88844
1006.36357	0.88894
1004.30977	0.88949
1002.25597	0.89004
1000.20216	0.89063
998.14836	0.89139
996.09456	0.89242
994.04075	0.89344
991.98695	0.89438
989.93315	0.89571
987.87934	0.89739
985.82554	0.89900
983.77174	0.90062
981.71793	0.90272
979.66413	0.90528
977.61033	0.90761
975.55652	0.90955
973.50272	0.91143
971.44892	0.91354
969.39511	0.91567
967.34131	0.91768
965.28751	0.91978
963.23371	0.92166
961.17990	0.92308
959.12610	0.92457
957.07230	0.92628
955.01849	0.92749
952.96469	0.92805
950.91089	0.92898
948.85708	0.93043
946.80328	0.93163
944.74948	0.93256
942.69567	0.93356
940.64187	0.93441
938.58807	0.93474
936.53426	0.93500
934.48046	0.93575
932.42666	0.93663
930.37285	0.93726
928.31905	0.93786
926.26525	0.93875
924.21144	0.93973
922.15764	0.94049
920.10384	0.94107
918.05003	0.94141
915.99623	0.94153
913.94243	0.94179
911.88862	0.94222
909.83482	0.94217
907.78102	0.94188
905.72722	0.94253
903.67341	0.94426
901.61961	0.94621
899.56581	0.94749
897.51200	0.94790
895.45820	0.94795
893.40440	0.94844
891.35059	0.94948
889.29679	0.94988
887.24299	0.94953
885.18918	0.94960
883.13538	0.95012
881.08158	0.95006
879.02777	0.94844
876.97397	0.94482
874.92017	0.93915
872.86636	0.93109
870.81256	0.92093
868.75876	0.91019
866.70495	0.90031
864.65115	0.89187
862.59735	0.88510
860.54354	0.88026
858.48974	0.87721
856.43594	0.87578
854.38213	0.87565
852.32833	0.87647
850.27453	0.87812
848.22073	0.88024
846.16692	0.88227
844.11312	0.88328
842.05932	0.88379
840.00551	0.88484
837.95171	0.88575
835.89791	0.88604
833.84410	0.88660
831.79030	0.88851
829.73650	0.89120
827.68269	0.89330
825.62889	0.89500
823.57509	0.89716
821.52128	0.90049
819.46748	0.90431
817.41368	0.90748
815.35987	0.91027
813.30607	0.91310
811.25227	0.91592
809.19846	0.91838
807.14466	0.92001
805.09086	0.92117
803.03705	0.92273
800.98325	0.92498
798.92945	0.92759
796.87565	0.93020
794.82184	0.93286
792.76804	0.93501
790.71424	0.93553
788.66043	0.93517
786.60663	0.93577
784.55283	0.93768
782.49902	0.93999
780.44522	0.94198
778.39142	0.94345
776.33761	0.94450
774.28381	0.94543
772.23001	0.94626
770.17620	0.94719
768.12240	0.94815
766.06860	0.94923
764.01479	0.95071
761.96099	0.95157
759.90719	0.95170
757.85338	0.95262
755.79958	0.95391
753.74578	0.95453
751.69197	0.95474
749.63817	0.95523
747.58437	0.95638
745.53056	0.95731
743.47676	0.95763
741.42296	0.95821
739.36916	0.95934
737.31535	0.96043
735.26155	0.96129
733.20775	0.96232
731.15394	0.96343
729.10014	0.96366
727.04634	0.96325
724.99253	0.96347
722.93873	0.96400
720.88493	0.96388
718.83112	0.96108
716.77732	0.95046
714.72352	0.92848
712.66971	0.90553
710.61591	0.90010
708.56211	0.91234
706.50830	0.92667
704.45450	0.93286
702.40070	0.92726
700.34689	0.91511
698.29309	0.91099
696.23929	0.91846
694.18548	0.92793
692.13168	0.93412
690.07788	0.93781
688.02408	0.94045
685.97027	0.94254
683.91647	0.94418
681.86267	0.94505
679.80886	0.94545
677.75506	0.94675
675.70126	0.94862
673.64745	0.94955
671.59365	0.94976
669.53985	0.95084
667.48604	0.95286
665.43224	0.95389
663.37844	0.95398
661.32463	0.95371
659.27083	0.95355
657.21703	0.95359
655.16322	0.95403
653.10942	0.95474
651.05562	0.95489
649.00181	0.95482
646.94801	0.95486
644.89421	0.95453
642.84040	0.95481
640.78660	0.95648
638.73280	0.95820
636.67899	0.95846
634.62519	0.95756
632.57139	0.95728
630.51759	0.95851
628.46378	0.95961
626.40998	0.95894
624.35618	0.95798
622.30237	0.95807
620.24857	0.95804
618.19477	0.95760
616.14096	0.95770
614.08716	0.95768
612.03336	0.95697
609.97955	0.95695
607.92575	0.95804
605.87195	0.95825
603.81814	0.95672
601.76434	0.95514
599.71054	0.95422
597.65673	0.95372
595.60293	0.95374
593.54913	0.95406
591.49532	0.95458
589.44152	0.95498
587.38772	0.95530
585.33391	0.95674
583.28011	0.95888
581.22631	0.95947
579.17250	0.95886
577.11870	0.95790
575.06490	0.95636
573.01110	0.95593
570.95729	0.95605
568.90349	0.95549
566.84969	0.95603
564.79588	0.95688
562.74208	0.95629
560.68828	0.95519
558.63447	0.95410
556.58067	0.95364
554.52687	0.95497
552.47306	0.95592
550.41926	0.95372
548.36546	0.95036
546.31165	0.94886
544.25785	0.94895
542.20405	0.94866
540.15024	0.94780
538.09644	0.94705
536.04264	0.94601
533.98883	0.94563
531.93503	0.94663
529.88123	0.94758
527.82742	0.94798
525.77362	0.94834
523.71982	0.94810
521.66602	0.94780
519.61221	0.94986
517.55841	0.95283
515.50461	0.95276
513.45080	0.95139
511.39700	0.95200
509.34320	0.95445
507.28939	0.95567
505.23559	0.95474
503.18179	0.95425
501.12798	0.95347
499.07418	0.95169
497.02038	0.95118
494.96657	0.95167
492.91277	0.95181
490.85897	0.95210
488.80516	0.95222
486.75136	0.95026
484.69756	0.94559
482.64375	0.94052
480.58995	0.93767
478.53615	0.93663
476.48234	0.93563
474.42854	0.93365
472.37474	0.93269
470.32093	0.93504
468.26713	0.93860
466.21333	0.94025
464.15953	0.93966
462.10572	0.93914
460.05192	0.93929
457.99812	0.93913
455.94431	0.93952
453.89051	0.94262
451.83671	0.94501
449.78290	0.94247
447.72910	0.94080
445.67530	0.94423
443.62149	0.94773
441.56769	0.94562
439.51389	0.93939
437.46008	0.93589
435.40628	0.93728
433.35248	0.93958
431.29867	0.94168
429.24487	0.94615
427.19107	0.95122
425.13726	0.95382
423.08346	0.95336
421.02966	0.95121
418.97585	0.94866
416.92205	0.94552
414.86825	0.94261
412.81445	0.94167
410.76064	0.94510
408.70684	0.95048
406.65304	0.95333
404.59923	0.95439
402.54543	0.95474
400.49163	0.95343
398.43782	0.94923
