3996.71440	0.00785
3994.66059	0.00797
3992.60678	0.00807
3990.55297	0.00809
3988.49916	0.00802
3986.44535	0.00791
3984.39154	0.00779
3982.33773	0.00771
3980.28391	0.00772
3978.23010	0.00778
3976.17629	0.00782
3974.12248	0.00782
3972.06867	0.00782
3970.01486	0.00780
3967.96105	0.00781
3965.90724	0.00780
3963.85343	0.00775
3961.79962	0.00778
3959.74581	0.00784
3957.69200	0.00779
3955.63819	0.00769
3953.58438	0.00766
3951.53057	0.00766
3949.47676	0.00763
3947.42295	0.00764
3945.36914	0.00764
3943.31533	0.00761
3941.26152	0.00763
3939.20771	0.00772
3937.15390	0.00784
3935.10009	0.00796
3933.04628	0.00796
3930.99247	0.00782
3928.93866	0.00773
3926.88485	0.00772
3924.83104	0.00778
3922.77723	0.00791
3920.72342	0.00790
3918.66961	0.00774
3916.61580	0.00768
3914.56199	0.00778
3912.50818	0.00784
3910.45437	0.00782
3908.40056	0.00789
3906.34675	0.00803
3904.29294	0.00799
3902.23913	0.00781
3900.18532	0.00783
3898.13151	0.00801
3896.07770	0.00811
3894.02389	0.00808
3891.97008	0.00797
3889.91627	0.00777
3887.86246	0.00755
3885.80865	0.00744
3883.75484	0.00749
3881.70103	0.00755
3879.64722	0.00752
3877.59341	0.00754
3875.53960	0.00762
3873.48579	0.00767
3871.43198	0.00771
3869.37817	0.00774
3867.32436	0.00770
3865.27055	0.00761
3863.21674	0.00759
3861.16293	0.00771
3859.10912	0.00788
3857.05531	0.00798
3855.00150	0.00803
3852.94769	0.00790
3850.89388	0.00765
3848.84007	0.00769
3846.78626	0.00784
3844.73245	0.00789
3842.67864	0.00797
3840.62483	0.00806
3838.57102	0.00788
3836.51721	0.00769
3834.46340	0.00774
3832.40959	0.00777
3830.35578	0.00776
3828.30197	0.00778
3826.24816	0.00778
3824.19435	0.00773
3822.14054	0.00760
3820.08673	0.00746
3818.03292	0.00749
3815.97911	0.00755
3813.92530	0.00757
3811.87149	0.00763
3809.81768	0.00771
3807.76387	0.00777
3805.71006	0.00781
3803.65625	0.00780
3801.60244	0.00764
3799.54863	0.00749
3797.49482	0.00753
3795.44101	0.00754
3793.38720	0.00749
3791.33339	0.00758
3789.27958	0.00774
3787.22577	0.00779
3785.17196	0.00774
3783.11815	0.00782
3781.06434	0.00799
3779.01053	0.00789
3776.95672	0.00758
3774.90291	0.00757
3772.84910	0.00783
3770.79529	0.00802
3768.74148	0.00799
3766.68767	0.00790
3764.63386	0.00788
3762.58005	0.00784
3760.52624	0.00778
3758.47243	0.00774
3756.41862	0.00782
3754.36481	0.00802
3752.31100	0.00814
3750.25719	0.00799
3748.20338	0.00779
3746.14957	0.00778
3744.09576	0.00766
3742.04195	0.00742
3739.98814	0.00738
3737.93433	0.00758
3735.88052	0.00772
3733.82671	0.00751
3731.77290	0.00733
3729.71909	0.00742
3727.66528	0.00750
3725.61147	0.00746
3723.55766	0.00752
3721.50385	0.00760
3719.45004	0.00759
3717.39623	0.00771
3715.34242	0.00787
3713.28861	0.00780
3711.23480	0.00744
3709.18099	0.00722
3707.12718	0.00737
3705.07337	0.00752
3703.01956	0.00750
3700.96575	0.00750
3698.91194	0.00769
3696.85813	0.00781
3694.80432	0.00781
3692.75051	0.00781
3690.69670	0.00785
3688.64289	0.00794
3686.58907	0.00803
3684.53526	0.00806
3682.48145	0.00812
3680.42764	0.00822
3678.37383	0.00832
3676.32002	0.00831
3674.26621	0.00824
3672.21240	0.00832
3670.15859	0.00847
3668.10478	0.00843
3666.05097	0.00836
3663.99716	0.00843
3661.94335	0.00848
3659.88954	0.00851
3657.83573	0.00863
3655.78192	0.00868
3653.72811	0.00852
3651.67430	0.00841
3649.62049	0.00866
3647.56668	0.00906
3645.51287	0.00920
3643.45906	0.00918
3641.40525	0.00910
3639.35144	0.00904
3637.29763	0.00908
3635.24382	0.00920
3633.19001	0.00936
3631.13620	0.00951
3629.08239	0.00958
3627.02858	0.00953
3624.97477	0.00960
3622.92096	0.00985
3620.86715	0.01001
3618.81334	0.00999
3616.75953	0.01007
3614.70572	0.01020
3612.65191	0.01035
3610.59810	0.01059
3608.54429	0.01075
3606.49048	0.01071
3604.43667	0.01067
3602.38286	0.01081
3600.32905	0.01100
3598.27524	0.01106
3596.22143	0.01108
3594.16762	0.01105
3592.11381	0.01090
3590.06000	0.01091
3588.00619	0.01114
3585.95238	0.01125
3583.89857	0.01127
3581.84476	0.01136
3579.79095	0.01138
3577.73714	0.01135
3575.68333	0.01147
3573.62952	0.01170
3571.57571	0.01187
3569.52190	0.01195
3567.46809	0.01211
3565.41428	0.01240
3563.36047	0.01253
3561.30666	0.01249
3559.25285	0.01241
3557.19904	0.01240
3555.14523	0.01249
3553.09142	0.01263
3551.03761	0.01276
3548.98380	0.01291
3546.92999	0.01311
3544.87618	0.01322
3542.82237	0.01322
3540.76856	0.01328
3538.71475	0.01342
3536.66094	0.01356
3534.60713	0.01368
3532.55332	0.01371
3530.49951	0.01367
3528.44570	0.01363
3526.39189	0.01372
3524.33808	0.01400
3522.28427	0.01426
3520.23046	0.01423
3518.17665	0.01400
3516.12284	0.01395
3514.06903	0.01418
3512.01522	0.01444
3509.96141	0.01446
3507.90760	0.01430
3505.85379	0.01433
3503.79998	0.01451
3501.74617	0.01460
3499.69236	0.01460
3497.63855	0.01466
3495.58474	0.01474
3493.53093	0.01480
3491.47712	0.01487
3489.42331	0.01506
3487.36950	0.01530
3485.31569	0.01541
3483.26188	0.01551
3481.20807	0.01558
3479.15426	0.01550
3477.10045	0.01543
3475.04664	0.01546
3472.99283	0.01546
3470.93902	0.01552
3468.88521	0.01573
3466.83140	0.01592
3464.77759	0.01601
3462.72378	0.01603
3460.66997	0.01612
3458.61616	0.01631
3456.56235	0.01636
3454.50854	0.01627
3452.45473	0.01623
3450.40092	0.01622
3448.34711	0.01625
3446.29330	0.01628
3444.23949	0.01624
3442.18568	0.01617
3440.13187	0.01623
3438.07806	0.01636
3436.02425	0.01644
3433.97044	0.01648
3431.91663	0.01651
3429.86282	0.01651
3427.80901	0.01655
3425.75520	0.01666
3423.70139	0.01672
3421.64758	0.01662
3419.59377	0.01646
3417.53996	0.01648
3415.48615	0.01677
3413.43234	0.01700
3411.37853	0.01686
3409.32472	0.01671
3407.27091	0.01684
3405.21710	0.01698
3403.16329	0.01693
3401.10948	0.01684
3399.05567	0.01684
3397.00186	0.01683
3394.94805	0.01671
3392.89424	0.01663
3390.84042	0.01673
3388.78661	0.01690
3386.73280	0.01694
3384.67899	0.01691
3382.62518	0.01698
3380.57137	0.01700
3378.51756	0.01689
3376.46375	0.01680
3374.40994	0.01681
3372.35613	0.01686
3370.30232	0.01680
3368.24851	0.01670
3366.19470	0.01688
3364.14089	0.01723
3362.08708	0.01736
3360.03327	0.01728
3357.97946	0.01714
3355.92565	0.01699
3353.87184	0.01691
3351.81803	0.01698
3349.76422	0.01712
3347.71041	0.01713
3345.65660	0.01701
3343.60279	0.01692
3341.54898	0.01694
3339.49517	0.01696
3337.44136	0.01686
3335.38755	0.01675
3333.33374	0.01681
3331.27993	0.01694
3329.22612	0.01696
3327.17231	0.01694
3325.11850	0.01700
3323.06469	0.01697
3321.01088	0.01680
3318.95707	0.01670
3316.90326	0.01671
3314.84945	0.01667
3312.79564	0.01660
3310.74183	0.01658
3308.68802	0.01670
3306.63421	0.01685
3304.58040	0.01688
3302.52659	0.01686
3300.47278	0.01687
3298.41897	0.01687
3296.36516	0.01684
3294.31135	0.01683
3292.25754	0.01686
3290.20373	0.01688
3288.14992	0.01682
3286.09611	0.01678
3284.04230	0.01687
3281.98849	0.01693
3279.93468	0.01683
3277.88087	0.01670
3275.82706	0.01672
3273.77325	0.01684
3271.71944	0.01689
3269.66563	0.01682
3267.61182	0.01672
3265.55801	0.01675
3263.50420	0.01685
3261.45039	0.01687
3259.39658	0.01683
3257.34277	0.01677
3255.28896	0.01669
3253.23515	0.01664
3251.18134	0.01671
3249.12753	0.01681
3247.07372	0.01683
3245.01991	0.01675
3242.96610	0.01662
3240.91229	0.01660
3238.85848	0.01672
3236.80467	0.01685
3234.75086	0.01694
3232.69705	0.01698
3230.64324	0.01695
3228.58943	0.01682
3226.53562	0.01669
3224.48181	0.01675
3222.42800	0.01687
3220.37419	0.01683
3218.32038	0.01683
3216.26657	0.01701
3214.21276	0.01717
3212.15895	0.01724
3210.10514	0.01728
3208.05133	0.01727
3205.99752	0.01717
3203.94371	0.01707
3201.88990	0.01702
3199.83609	0.01702
3197.78228	0.01712
3195.72847	0.01721
3193.67466	0.01715
3191.62085	0.01695
3189.56704	0.01685
3187.51323	0.01692
3185.45942	0.01698
3183.40561	0.01698
3181.35180	0.01701
3179.29799	0.01701
3177.24418	0.01700
3175.19037	0.01703
3173.13656	0.01702
3171.08275	0.01700
3169.02894	0.01694
3166.97513	0.01682
3164.92132	0.01678
3162.86751	0.01684
3160.81370	0.01696
3158.75989	0.01711
3156.70608	0.01710
3154.65227	0.01695
3152.59846	0.01679
3150.54465	0.01666
3148.49084	0.01659
3146.43703	0.01655
3144.38322	0.01652
3142.32941	0.01657
3140.27560	0.01667
3138.22179	0.01670
3136.16798	0.01664
3134.11417	0.01662
3132.06036	0.01662
3130.00655	0.01660
3127.95274	0.01663
3125.89893	0.01671
3123.84512	0.01673
3121.79131	0.01668
3119.73750	0.01657
3117.68369	0.01643
3115.62988	0.01638
3113.57607	0.01644
3111.52226	0.01652
3109.46845	0.01651
3107.41464	0.01634
3105.36083	0.01619
3103.30702	0.01629
3101.25321	0.01641
3099.19940	0.01640
3097.14559	0.01642
3095.09177	0.01645
3093.03796	0.01643
3090.98415	0.01640
3088.93034	0.01637
3086.87653	0.01632
3084.82272	0.01624
3082.76891	0.01624
3080.71510	0.01632
3078.66129	0.01634
3076.60748	0.01622
3074.55367	0.01607
3072.49986	0.01599
3070.44605	0.01599
3068.39224	0.01600
3066.33843	0.01598
3064.28462	0.01597
3062.23081	0.01601
3060.17700	0.01611
3058.12319	0.01620
3056.06938	0.01622
3054.01557	0.01619
3051.96176	0.01612
3049.90795	0.01601
3047.85414	0.01596
3045.80033	0.01610
3043.74652	0.01627
3041.69271	0.01626
3039.63890	0.01614
3037.58509	0.01605
3035.53128	0.01599
3033.47747	0.01596
3031.42366	0.01595
3029.36985	0.01607
3027.31604	0.01626
3025.26223	0.01633
3023.20842	0.01631
3021.15461	0.01635
3019.10080	0.01642
3017.04699	0.01646
3014.99318	0.01658
3012.93937	0.01681
3010.88556	0.01703
3008.83175	0.01717
3006.77794	0.01736
3004.72413	0.01767
3002.67032	0.01793
3000.61651	0.01810
2998.56270	0.01836
2996.50889	0.01886
2994.45508	0.01963
2992.40127	0.02057
2990.34746	0.02159
2988.29365	0.02266
2986.23984	0.02389
2984.18603	0.02549
2982.13222	0.02765
2980.07841	0.03045
2978.02460	0.03411
2975.97079	0.03907
2973.91698	0.04577
2971.86317	0.05453
2969.80936	0.06562
2967.75555	0.07901
2965.70174	0.09368
2963.64793	0.10765
2961.59412	0.11836
2959.54031	0.12480
2957.48650	0.12917
2955.43269	0.13526
2953.37888	0.14511
2951.32507	0.15625
2949.27126	0.16115
2947.21745	0.15324
2945.16364	0.13475
2943.10983	0.11463
2941.05602	0.09996
2939.00221	0.09266
2936.94840	0.09199
2934.89459	0.09693
2932.84078	0.10668
2930.78697	0.12048
2928.73316	0.13704
2926.67935	0.15440
2924.62554	0.17091
2922.57173	0.18617
2920.51792	0.19954
2918.46411	0.20759
2916.41030	0.20574
2914.35649	0.19371
2912.30268	0.17702
2910.24887	0.16190
2908.19506	0.15049
2906.14125	0.14140
2904.08744	0.13260
2902.03363	0.12341
2899.97982	0.11437
2897.92601	0.10614
2895.87220	0.09916
2893.81839	0.09400
2891.76458	0.09096
2889.71077	0.08977
2887.65696	0.08993
2885.60315	0.09109
2883.54934	0.09315
2881.49553	0.09596
2879.44172	0.09875
2877.38791	0.10002
2875.33410	0.09926
2873.28029	0.09827
2871.22648	0.09924
2869.17267	0.10227
2867.11886	0.10459
2865.06505	0.10185
2863.01124	0.09235
2860.95743	0.07972
2858.90362	0.06919
2856.84981	0.06322
2854.79600	0.06141
2852.74219	0.06242
2850.68838	0.06498
2848.63457	0.06836
2846.58076	0.07327
2844.52695	0.08115
2842.47314	0.09168
2840.41933	0.10172
2838.36552	0.10664
2836.31171	0.10293
2834.25790	0.09118
2832.20409	0.07617
2830.15028	0.06282
2828.09647	0.05321
2826.04266	0.04686
2823.98885	0.04255
2821.93504	0.03942
2819.88123	0.03710
2817.82742	0.03532
2815.77361	0.03383
2813.71980	0.03265
2811.66599	0.03185
2809.61218	0.03112
2807.55837	0.03015
2805.50456	0.02906
2803.45075	0.02807
2801.39693	0.02721
2799.34312	0.02650
2797.28931	0.02602
2795.23550	0.02565
2793.18169	0.02523
2791.12788	0.02471
2789.07407	0.02407
2787.02026	0.02336
2784.96645	0.02270
2782.91264	0.02221
2780.85883	0.02183
2778.80502	0.02151
2776.75121	0.02121
2774.69740	0.02090
2772.64359	0.02068
2770.58978	0.02062
2768.53597	0.02053
2766.48216	0.02032
2764.42835	0.02007
2762.37454	0.01985
2760.32073	0.01971
2758.26692	0.01964
2756.21311	0.01956
2754.15930	0.01953
2752.10549	0.01948
2750.05168	0.01938
2747.99787	0.01928
2745.94406	0.01929
2743.89025	0.01939
2741.83644	0.01955
2739.78263	0.01976
2737.72882	0.02004
2735.67501	0.02024
2733.62120	0.02035
2731.56739	0.02053
2729.51358	0.02085
2727.45977	0.02121
2725.40596	0.02154
2723.35215	0.02171
2721.29834	0.02158
2719.24453	0.02122
2717.19072	0.02081
2715.13691	0.02033
2713.08310	0.01981
2711.02929	0.01945
2708.97548	0.01930
2706.92167	0.01915
2704.86786	0.01894
2702.81405	0.01874
2700.76024	0.01863
2698.70643	0.01858
2696.65262	0.01850
2694.59881	0.01845
2692.54500	0.01846
2690.49119	0.01838
2688.43738	0.01828
2686.38357	0.01823
2684.32976	0.01823
2682.27595	0.01824
2680.22214	0.01832
2678.16833	0.01838
2676.11452	0.01833
2674.06071	0.01826
2672.00690	0.01822
2669.95309	0.01818
2667.89928	0.01815
2665.84547	0.01818
2663.79166	0.01827
2661.73785	0.01831
2659.68404	0.01833
2657.63023	0.01835
2655.57642	0.01830
2653.52261	0.01814
2651.46880	0.01798
2649.41499	0.01788
2647.36118	0.01779
2645.30737	0.01775
2643.25356	0.01772
2641.19975	0.01752
2639.14594	0.01729
2637.09213	0.01729
2635.03832	0.01738
2632.98451	0.01738
2630.93070	0.01737
2628.87689	0.01742
2626.82308	0.01748
2624.76927	0.01752
2622.71546	0.01763
2620.66165	0.01775
2618.60784	0.01774
2616.55403	0.01769
2614.50022	0.01765
2612.44641	0.01754
2610.39260	0.01734
2608.33879	0.01709
2606.28498	0.01687
2604.23117	0.01677
2602.17736	0.01672
2600.12355	0.01665
2598.06974	0.01658
2596.01593	0.01643
2593.96212	0.01635
2591.90831	0.01645
2589.85450	0.01654
2587.80069	0.01670
2585.74688	0.01694
2583.69307	0.01713
2581.63926	0.01715
2579.58545	0.01704
2577.53164	0.01690
2575.47783	0.01675
2573.42402	0.01658
2571.37021	0.01643
2569.31640	0.01630
2567.26259	0.01615
2565.20878	0.01605
2563.15497	0.01602
2561.10116	0.01599
2559.04735	0.01595
2556.99354	0.01590
2554.93973	0.01586
2552.88592	0.01587
2550.83211	0.01581
2548.77830	0.01554
2546.72449	0.01531
2544.67068	0.01531
2542.61687	0.01544
2540.56306	0.01563
2538.50925	0.01569
2536.45544	0.01550
2534.40163	0.01526
2532.34782	0.01522
2530.29401	0.01535
2528.24020	0.01537
2526.18639	0.01518
2524.13258	0.01498
2522.07877	0.01488
2520.02496	0.01488
2517.97115	0.01489
2515.91734	0.01488
2513.86353	0.01496
2511.80972	0.01495
2509.75591	0.01477
2507.70210	0.01465
2505.64828	0.01476
2503.59447	0.01483
2501.54066	0.01470
2499.48685	0.01453
2497.43304	0.01460
2495.37923	0.01478
2493.32542	0.01485
2491.27161	0.01474
2489.21780	0.01461
2487.16399	0.01461
2485.11018	0.01466
2483.05637	0.01459
2481.00256	0.01446
2478.94875	0.01434
2476.89494	0.01424
2474.84113	0.01415
2472.78732	0.01422
2470.73351	0.01440
2468.67970	0.01444
2466.62589	0.01435
2464.57208	0.01427
2462.51827	0.01418
2460.46446	0.01417
2458.41065	0.01438
2456.35684	0.01453
2454.30303	0.01443
2452.24922	0.01426
2450.19541	0.01426
2448.14160	0.01450
2446.08779	0.01478
2444.03398	0.01474
2441.98017	0.01438
2439.92636	0.01411
2437.87255	0.01414
2435.81874	0.01421
2433.76493	0.01414
2431.71112	0.01403
2429.65731	0.01401
2427.60350	0.01416
2425.54969	0.01435
2423.49588	0.01449
2421.44207	0.01459
2419.38826	0.01456
2417.33445	0.01441
2415.28064	0.01434
2413.22683	0.01432
2411.17302	0.01424
2409.11921	0.01411
2407.06540	0.01407
2405.01159	0.01417
2402.95778	0.01429
2400.90397	0.01433
2398.85016	0.01421
2396.79635	0.01404
2394.74254	0.01404
2392.68873	0.01407
2390.63492	0.01406
2388.58111	0.01412
2386.52730	0.01421
2384.47349	0.01435
2382.41968	0.01447
2380.36587	0.01440
2378.31206	0.01428
2376.25825	0.01426
2374.20444	0.01425
2372.15063	0.01424
2370.09682	0.01421
2368.04301	0.01411
2365.98920	0.01403
2363.93539	0.01398
2361.88158	0.01387
2359.82777	0.01382
2357.77396	0.01377
2355.72015	0.01369
2353.66634	0.01371
2351.61253	0.01373
2349.55872	0.01376
2347.50491	0.01379
2345.45110	0.01371
2343.39729	0.01349
2341.34348	0.01333
2339.28967	0.01335
2337.23586	0.01351
2335.18205	0.01370
2333.12824	0.01394
2331.07443	0.01419
2329.02062	0.01432
2326.96681	0.01449
2324.91300	0.01486
2322.85919	0.01496
2320.80538	0.01463
2318.75157	0.01440
2316.69776	0.01433
2314.64395	0.01409
2312.59014	0.01392
2310.53633	0.01392
2308.48252	0.01388
2306.42871	0.01387
2304.37490	0.01395
2302.32109	0.01403
2300.26728	0.01411
2298.21347	0.01424
2296.15966	0.01418
2294.10585	0.01401
2292.05204	0.01402
2289.99823	0.01406
2287.94442	0.01397
2285.89061	0.01385
2283.83680	0.01367
2281.78299	0.01345
2279.72918	0.01350
2277.67537	0.01386
2275.62156	0.01425
2273.56775	0.01440
2271.51394	0.01416
2269.46013	0.01384
2267.40632	0.01363
2265.35251	0.01333
2263.29870	0.01309
2261.24489	0.01311
2259.19108	0.01324
2257.13727	0.01349
2255.08346	0.01377
2253.02965	0.01393
2250.97584	0.01384
2248.92203	0.01356
2246.86822	0.01348
2244.81441	0.01357
2242.76060	0.01340
2240.70679	0.01309
2238.65298	0.01294
2236.59917	0.01290
2234.54536	0.01303
2232.49155	0.01332
2230.43774	0.01342
2228.38393	0.01346
2226.33012	0.01371
2224.27631	0.01370
2222.22250	0.01306
2220.16869	0.01232
2218.11488	0.01241
2216.06107	0.01309
2214.00726	0.01341
2211.95344	0.01333
2209.89963	0.01330
2207.84582	0.01348
2205.79201	0.01399
2203.73820	0.01444
2201.68439	0.01428
2199.63058	0.01370
2197.57677	0.01330
2195.52296	0.01331
2193.46915	0.01316
2191.41534	0.01295
2189.36153	0.01341
2187.30772	0.01408
2185.25391	0.01408
2183.20010	0.01343
2181.14629	0.01297
2179.09248	0.01287
2177.03867	0.01248
2174.98486	0.01189
2172.93105	0.01172
2170.87724	0.01207
2168.82343	0.01269
2166.76962	0.01320
2164.71581	0.01332
2162.66200	0.01343
2160.60819	0.01330
2158.55438	0.01228
2156.50057	0.01170
2154.44676	0.01223
2152.39295	0.01297
2150.33914	0.01343
2148.28533	0.01313
2146.23152	0.01224
2144.17771	0.01164
2142.12390	0.01159
2140.07009	0.01167
2138.01628	0.01161
2135.96247	0.01160
2133.90866	0.01186
2131.85485	0.01232
2129.80104	0.01245
2127.74723	0.01209
2125.69342	0.01184
2123.63961	0.01194
2121.58580	0.01220
2119.53199	0.01258
2117.47818	0.01303
2115.42437	0.01353
2113.37056	0.01380
2111.31675	0.01360
2109.26294	0.01334
2107.20913	0.01299
2105.15532	0.01237
2103.10151	0.01217
2101.04770	0.01262
2098.99389	0.01305
2096.94008	0.01299
2094.88627	0.01259
2092.83246	0.01235
2090.77865	0.01263
2088.72484	0.01309
2086.67103	0.01322
2084.61722	0.01307
2082.56341	0.01298
2080.50960	0.01297
2078.45579	0.01286
2076.40198	0.01263
2074.34817	0.01262
2072.29436	0.01298
2070.24055	0.01302
2068.18674	0.01252
2066.13293	0.01211
2064.07912	0.01227
2062.02531	0.01264
2059.97150	0.01254
2057.91769	0.01231
2055.86388	0.01250
2053.81007	0.01247
2051.75626	0.01214
2049.70245	0.01231
2047.64864	0.01294
2045.59483	0.01314
2043.54102	0.01287
2041.48721	0.01286
2039.43340	0.01301
2037.37959	0.01329
2035.32578	0.01361
2033.27197	0.01335
2031.21816	0.01271
2029.16435	0.01195
2027.11054	0.01156
2025.05673	0.01209
2023.00292	0.01293
2020.94911	0.01341
2018.89530	0.01341
2016.84149	0.01324
2014.78768	0.01326
2012.73387	0.01352
2010.68006	0.01392
2008.62625	0.01376
2006.57244	0.01313
2004.51863	0.01299
2002.46482	0.01319
2000.41101	0.01293
1998.35720	0.01224
1996.30339	0.01228
1994.24958	0.01327
1992.19577	0.01378
1990.14196	0.01318
1988.08815	0.01266
1986.03434	0.01280
1983.98053	0.01311
1981.92672	0.01339
1979.87291	0.01376
1977.81910	0.01356
1975.76529	0.01262
1973.71148	0.01199
1971.65767	0.01197
1969.60386	0.01248
1967.55005	0.01280
1965.49624	0.01249
1963.44243	0.01238
1961.38862	0.01266
1959.33481	0.01287
1957.28100	0.01261
1955.22719	0.01234
1953.17338	0.01224
1951.11957	0.01186
1949.06576	0.01182
1947.01195	0.01238
1944.95814	0.01270
1942.90433	0.01254
1940.85052	0.01251
1938.79671	0.01268
1936.74290	0.01275
1934.68909	0.01280
1932.63528	0.01296
1930.58147	0.01301
1928.52766	0.01281
1926.47385	0.01277
1924.42004	0.01310
1922.36623	0.01327
1920.31242	0.01336
1918.25861	0.01382
1916.20479	0.01414
1914.15098	0.01399
1912.09717	0.01373
1910.04336	0.01350
1907.98955	0.01345
1905.93574	0.01378
1903.88193	0.01418
1901.82812	0.01419
1899.77431	0.01405
1897.72050	0.01420
1895.66669	0.01438
1893.61288	0.01440
1891.55907	0.01433
1889.50526	0.01420
1887.45145	0.01418
1885.39764	0.01426
1883.34383	0.01426
1881.29002	0.01426
1879.23621	0.01436
1877.18240	0.01440
1875.12859	0.01437
1873.07478	0.01439
1871.02097	0.01450
1868.96716	0.01461
1866.91335	0.01464
1864.85954	0.01468
1862.80573	0.01480
1860.75192	0.01493
1858.69811	0.01501
1856.64430	0.01494
1854.59049	0.01469
1852.53668	0.01447
1850.48287	0.01453
1848.42906	0.01477
1846.37525	0.01503
1844.32144	0.01533
1842.26763	0.01566
1840.21382	0.01584
1838.16001	0.01587
1836.10620	0.01582
1834.05239	0.01580
1831.99858	0.01589
1829.94477	0.01602
1827.89096	0.01605
1825.83715	0.01602
1823.78334	0.01607
1821.72953	0.01620
1819.67572	0.01631
1817.62191	0.01641
1815.56810	0.01656
1813.51429	0.01664
1811.46048	0.01673
1809.40667	0.01705
1807.35286	0.01735
1805.29905	0.01748
1803.24524	0.01767
1801.19143	0.01797
1799.13762	0.01834
1797.08381	0.01878
1795.03000	0.01927
1792.97619	0.01980
1790.92238	0.02028
1788.86857	0.02066
1786.81476	0.02118
1784.76095	0.02197
1782.70714	0.02275
1780.65333	0.02332
1778.59952	0.02372
1776.54571	0.02404
1774.49190	0.02436
1772.43809	0.02472
1770.38428	0.02511
1768.33047	0.02538
1766.27666	0.02552
1764.22285	0.02558
1762.16904	0.02568
1760.11523	0.02588
1758.06142	0.02614
1756.00761	0.02646
1753.95380	0.02678
1751.89999	0.02721
1749.84618	0.02784
1747.79237	0.02842
1745.73856	0.02889
1743.68475	0.02936
1741.63094	0.02985
1739.57713	0.03025
1737.52332	0.03039
1735.46951	0.03048
1733.41570	0.03078
1731.36189	0.03111
1729.30808	0.03142
1727.25427	0.03183
1725.20046	0.03238
1723.14665	0.03307
1721.09284	0.03376
1719.03903	0.03450
1716.98522	0.03546
1714.93141	0.03627
1712.87760	0.03682
1710.82379	0.03711
1708.76998	0.03700
1706.71617	0.03653
1704.66236	0.03576
1702.60855	0.03487
1700.55474	0.03394
1698.50093	0.03307
1696.44712	0.03212
1694.39331	0.03109
1692.33950	0.03023
1690.28569	0.02948
1688.23188	0.02885
1686.17807	0.02837
1684.12426	0.02782
1682.07045	0.02732
1680.01664	0.02709
1677.96283	0.02694
1675.90902	0.02662
1673.85521	0.02624
1671.80140	0.02604
1669.74759	0.02592
1667.69378	0.02574
1665.63997	0.02561
1663.58616	0.02560
1661.53235	0.02555
1659.47854	0.02535
1657.42473	0.02520
1655.37092	0.02525
1653.31711	0.02544
1651.26330	0.02542
1649.20949	0.02524
1647.15568	0.02506
1645.10187	0.02486
1643.04806	0.02465
1640.99425	0.02446
1638.94044	0.02428
1636.88663	0.02406
1634.83282	0.02384
1632.77901	0.02363
1630.72520	0.02338
1628.67139	0.02308
1626.61758	0.02283
1624.56377	0.02270
1622.50996	0.02263
1620.45614	0.02248
1618.40233	0.02221
1616.34852	0.02192
1614.29471	0.02168
1612.24090	0.02139
1610.18709	0.02108
1608.13328	0.02077
1606.07947	0.02046
1604.02566	0.02020
1601.97185	0.01994
1599.91804	0.01966
1597.86423	0.01946
1595.81042	0.01936
1593.75661	0.01923
1591.70280	0.01902
1589.64899	0.01884
1587.59518	0.01870
1585.54137	0.01857
1583.48756	0.01847
1581.43375	0.01841
1579.37994	0.01834
1577.32613	0.01825
1575.27232	0.01815
1573.21851	0.01809
1571.16470	0.01810
1569.11089	0.01812
1567.05708	0.01813
1565.00327	0.01810
1562.94946	0.01804
1560.89565	0.01806
1558.84184	0.01813
1556.78803	0.01812
1554.73422	0.01815
1552.68041	0.01820
1550.62660	0.01816
1548.57279	0.01807
1546.51898	0.01806
1544.46517	0.01826
1542.41136	0.01856
1540.35755	0.01855
1538.30374	0.01823
1536.24993	0.01801
1534.19612	0.01793
1532.14231	0.01791
1530.08850	0.01781
1528.03469	0.01770
1525.98088	0.01766
1523.92707	0.01765
1521.87326	0.01772
1519.81945	0.01785
1517.76564	0.01795
1515.71183	0.01801
1513.65802	0.01800
1511.60421	0.01801
1509.55040	0.01812
1507.49659	0.01826
1505.44278	0.01833
1503.38897	0.01837
1501.33516	0.01845
1499.28135	0.01858
1497.22754	0.01876
1495.17373	0.01893
1493.11992	0.01909
1491.06611	0.01938
1489.01230	0.01983
1486.95849	0.02042
1484.90468	0.02121
1482.85087	0.02219
1480.79706	0.02347
1478.74325	0.02527
1476.68944	0.02804
1474.63563	0.03258
1472.58182	0.04014
1470.52801	0.04955
1468.47420	0.05889
1466.42039	0.06989
1464.36658	0.08229
1462.31277	0.09092
1460.25896	0.09500
1458.20515	0.09783
1456.15134	0.10068
1454.09753	0.10193
1452.04372	0.10121
1449.98991	0.09716
1447.93610	0.08760
1445.88229	0.07460
1443.82848	0.06315
1441.77467	0.05513
1439.72086	0.05090
1437.66705	0.04943
1435.61324	0.04793
1433.55943	0.04391
1431.50562	0.03855
1429.45181	0.03396
1427.39800	0.03139
1425.34419	0.03014
1423.29038	0.02937
1421.23657	0.02885
1419.18276	0.02854
1417.12895	0.02835
1415.07514	0.02808
1413.02133	0.02780
1410.96752	0.02758
1408.91371	0.02744
1406.85990	0.02737
1404.80609	0.02732
1402.75228	0.02725
1400.69847	0.02732
1398.64466	0.02758
1396.59085	0.02796
1394.53704	0.02848
1392.48323	0.02926
1390.42942	0.03067
1388.37561	0.03353
1386.32180	0.03907
1384.26799	0.04837
1382.21418	0.06435
1380.16037	0.09156
1378.10656	0.12629
1376.05275	0.14741
1373.99894	0.13463
1371.94513	0.10219
1369.89132	0.07512
1367.83751	0.05895
1365.78370	0.05181
1363.72989	0.05053
1361.67608	0.05271
1359.62227	0.05497
1357.56846	0.05409
1355.51465	0.04987
1353.46084	0.04467
1351.40703	0.04047
1349.35322	0.03755
1347.29941	0.03559
1345.24560	0.03425
1343.19179	0.03329
1341.13798	0.03265
1339.08417	0.03233
1337.03036	0.03233
1334.97655	0.03263
1332.92274	0.03321
1330.86893	0.03390
1328.81512	0.03427
1326.76130	0.03406
1324.70749	0.03339
1322.65368	0.03271
1320.59987	0.03231
1318.54606	0.03225
1316.49225	0.03237
1314.43844	0.03249
1312.38463	0.03275
1310.33082	0.03356
1308.27701	0.03525
1306.22320	0.03735
1304.16939	0.03846
1302.11558	0.03805
1300.06177	0.03731
1298.00796	0.03716
1295.95415	0.03725
1293.90034	0.03702
1291.84653	0.03651
1289.79272	0.03596
1287.73891	0.03551
1285.68510	0.03526
1283.63129	0.03513
1281.57748	0.03514
1279.52367	0.03522
1277.46986	0.03534
1275.41605	0.03551
1273.36224	0.03575
1271.30843	0.03607
1269.25462	0.03648
1267.20081	0.03700
1265.14700	0.03765
1263.09319	0.03851
1261.03938	0.03985
1258.98557	0.04178
1256.93176	0.04361
1254.87795	0.04423
1252.82414	0.04350
1250.77033	0.04251
1248.71652	0.04214
1246.66271	0.04233
1244.60890	0.04267
1242.55509	0.04299
1240.50128	0.04341
1238.44747	0.04393
1236.39366	0.04445
1234.33985	0.04497
1232.28604	0.04546
1230.23223	0.04595
1228.17842	0.04657
1226.12461	0.04729
1224.07080	0.04811
1222.01699	0.04890
1219.96318	0.04950
1217.90937	0.04980
1215.85556	0.04981
1213.80175	0.04973
1211.74794	0.04972
1209.69413	0.04979
1207.64032	0.04989
1205.58651	0.04995
1203.53270	0.05005
1201.47889	0.05023
1199.42508	0.05040
1197.37127	0.05056
1195.31746	0.05085
1193.26365	0.05119
1191.20984	0.05146
1189.15603	0.05170
1187.10222	0.05203
1185.04841	0.05242
1182.99460	0.05289
1180.94079	0.05356
1178.88698	0.05457
1176.83317	0.05628
1174.77936	0.05933
1172.72555	0.06437
1170.67174	0.07092
1168.61793	0.07629
1166.56412	0.07750
1164.51031	0.07463
1162.45650	0.07033
1160.40269	0.06670
1158.34888	0.06423
1156.29507	0.06272
1154.24126	0.06173
1152.18745	0.06065
1150.13364	0.05907
1148.07983	0.05712
1146.02602	0.05524
1143.97221	0.05366
1141.91840	0.05234
1139.86459	0.05124
1137.81078	0.05026
1135.75697	0.04945
1133.70316	0.04882
1131.64935	0.04817
1129.59554	0.04747
1127.54173	0.04695
1125.48792	0.04651
1123.43411	0.04596
1121.38030	0.04549
1119.32649	0.04517
1117.27268	0.04482
1115.21887	0.04452
1113.16506	0.04429
1111.11125	0.04414
1109.05744	0.04435
1107.00363	0.04495
1104.94982	0.04551
1102.89601	0.04569
1100.84220	0.04541
1098.78839	0.04463
1096.73458	0.04367
1094.68077	0.04297
1092.62696	0.04260
1090.57315	0.04229
1088.51934	0.04199
1086.46553	0.04177
1084.41172	0.04171
1082.35791	0.04183
1080.30410	0.04197
1078.25029	0.04195
1076.19648	0.04187
1074.14267	0.04195
1072.08886	0.04226
1070.03505	0.04267
1067.98124	0.04315
1065.92743	0.04386
1063.87362	0.04477
1061.81981	0.04558
1059.76600	0.04622
1057.71219	0.04695
1055.65838	0.04780
1053.60457	0.04857
1051.55076	0.04927
1049.49695	0.05005
1047.44314	0.05093
1045.38933	0.05164
1043.33552	0.05171
1041.28171	0.05107
1039.22790	0.05022
1037.17409	0.04943
1035.12028	0.04867
1033.06647	0.04784
1031.01265	0.04700
1028.95884	0.04620
1026.90503	0.04544
1024.85122	0.04470
1022.79741	0.04402
1020.74360	0.04352
1018.68979	0.04320
1016.63598	0.04283
1014.58217	0.04229
1012.52836	0.04183
1010.47455	0.04169
1008.42074	0.04195
1006.36693	0.04302
1004.31312	0.04578
1002.25931	0.05141
1000.20550	0.05942
998.15169	0.06512
996.09788	0.06355
994.04407	0.05649
991.99026	0.04948
989.93645	0.04490
987.88264	0.04231
985.82883	0.04117
983.77502	0.04123
981.72121	0.04255
979.66740	0.04602
977.61359	0.05248
975.55978	0.06081
973.50597	0.06636
971.45216	0.06423
969.39835	0.05612
967.34454	0.04811
965.29073	0.04305
963.23692	0.04028
961.18311	0.03873
959.12930	0.03774
957.07549	0.03700
955.02168	0.03653
952.96787	0.03635
950.91406	0.03624
948.86025	0.03620
946.80644	0.03636
944.75263	0.03672
942.69882	0.03718
940.64501	0.03752
938.59120	0.03731
936.53739	0.03650
934.48358	0.03558
932.42977	0.03504
930.37596	0.03488
928.32215	0.03487
926.26834	0.03485
924.21453	0.03476
922.16072	0.03459
920.10691	0.03453
918.05310	0.03482
915.99929	0.03531
913.94548	0.03574
911.89167	0.03616
909.83786	0.03658
907.78405	0.03727
905.73024	0.03881
903.67643	0.04155
901.62262	0.04487
899.56881	0.04678
897.51500	0.04593
895.46119	0.04363
893.40738	0.04164
891.35357	0.04027
889.29976	0.03945
887.24595	0.03893
885.19214	0.03849
883.13833	0.03839
881.08452	0.03854
879.03071	0.03847
876.97690	0.03819
874.92309	0.03790
872.86928	0.03758
870.81547	0.03726
868.76166	0.03697
866.70785	0.03671
864.65404	0.03635
862.60023	0.03584
860.54642	0.03545
858.49261	0.03516
856.43880	0.03479
854.38499	0.03452
852.33118	0.03475
850.27737	0.03556
848.22356	0.03724
846.16975	0.04156
844.11594	0.05041
842.06213	0.05965
840.00832	0.05980
837.95451	0.05086
835.90070	0.04216
833.84689	0.03767
831.79308	0.03561
829.73927	0.03433
827.68546	0.03354
825.63165	0.03310
823.57784	0.03277
821.52403	0.03249
819.47022	0.03240
817.41641	0.03287
815.36260	0.03433
813.30879	0.03704
811.25498	0.04026
809.20117	0.04216
807.14736	0.04133
805.09355	0.03846
803.03974	0.03545
800.98593	0.03344
798.93212	0.03245
796.87831	0.03191
794.82450	0.03139
792.77069	0.03082
790.71688	0.03033
788.66307	0.02981
786.60926	0.02915
784.55545	0.02865
782.50164	0.02859
780.44783	0.02863
778.39402	0.02857
776.34021	0.02861
774.28640	0.02858
772.23259	0.02837
770.17878	0.02821
768.12497	0.02813
766.07116	0.02796
764.01735	0.02791
761.96354	0.02804
759.90973	0.02801
757.85592	0.02788
755.80211	0.02803
753.74830	0.02821
751.69449	0.02805
749.64068	0.02771
747.58687	0.02741
745.53306	0.02735
743.47925	0.02753
741.42544	0.02762
739.37163	0.02759
737.31781	0.02772
735.26400	0.02800
733.21019	0.02830
731.15638	0.02867
729.10257	0.02913
727.04876	0.02962
724.99495	0.03019
722.94114	0.03073
720.88733	0.03101
718.83352	0.03091
716.77971	0.03028
714.72590	0.02945
712.67209	0.02893
710.61828	0.02865
708.56447	0.02843
706.51066	0.02833
704.45685	0.02851
702.40304	0.02884
700.34923	0.02894
698.29542	0.02871
696.24161	0.02838
694.18780	0.02819
692.13399	0.02833
690.08018	0.02860
688.02637	0.02870
685.97256	0.02881
683.91875	0.02901
681.86494	0.02911
679.81113	0.02925
677.75732	0.02931
675.70351	0.02919
673.64970	0.02936
671.59589	0.02985
669.54208	0.03036
667.48827	0.03085
665.43446	0.03088
663.38065	0.03066
661.32684	0.03065
659.27303	0.03085
657.21922	0.03089
655.16541	0.03095
653.11160	0.03122
651.05779	0.03149
649.00398	0.03175
646.95017	0.03202
644.89636	0.03231
642.84255	0.03266
640.78874	0.03295
638.73493	0.03328
636.68112	0.03389
634.62731	0.03468
632.57350	0.03514
630.51969	0.03509
628.46588	0.03511
626.41207	0.03571
624.35826	0.03650
622.30445	0.03696
620.25064	0.03734
618.19683	0.03804
616.14302	0.03865
614.08921	0.03886
612.03540	0.03939
609.98159	0.04030
607.92778	0.04094
605.87397	0.04137
603.82016	0.04205
601.76635	0.04292
599.71254	0.04362
597.65873	0.04418
595.60492	0.04529
593.55111	0.04650
591.49730	0.04664
589.44349	0.04663
587.38968	0.04722
585.33587	0.04757
583.28206	0.04762
581.22825	0.04798
579.17444	0.04836
577.12063	0.04803
575.06682	0.04697
573.01301	0.04595
570.95920	0.04537
568.90539	0.04447
566.85158	0.04320
564.79777	0.04253
562.74396	0.04205
560.69015	0.04093
558.63634	0.03957
556.58253	0.03884
554.52872	0.03898
552.47491	0.03930
550.42110	0.03928
548.36729	0.03917
546.31348	0.03888
544.25967	0.03840
542.20586	0.03820
540.15205	0.03827
538.09824	0.03852
536.04443	0.03919
533.99062	0.03977
531.93681	0.03966
529.88300	0.03933
527.82919	0.03904
525.77538	0.03831
523.72157	0.03769
521.66776	0.03789
519.61395	0.03821
517.56014	0.03782
515.50633	0.03687
513.45252	0.03591
511.39871	0.03556
509.34490	0.03620
507.29109	0.03736
505.23728	0.03802
503.18347	0.03785
501.12966	0.03749
499.07585	0.03759
497.02204	0.03798
494.96823	0.03789
492.91442	0.03716
490.86061	0.03668
488.80680	0.03663
486.75299	0.03708
484.69918	0.03826
482.64537	0.03892
480.59156	0.03817
478.53775	0.03697
476.48394	0.03645
474.43013	0.03707
472.37632	0.03833
470.32251	0.03918
468.26870	0.03968
466.21489	0.04090
464.16108	0.04322
462.10727	0.04541
460.05346	0.04673
457.99965	0.04719
455.94584	0.04586
453.89203	0.04369
451.83822	0.04274
449.78441	0.04283
447.73060	0.04209
445.67679	0.04019
443.62298	0.03957
441.56916	0.04104
439.51535	0.04138
437.46154	0.03944
435.40773	0.03841
433.35392	0.03977
431.30011	0.04103
429.24630	0.04066
427.19249	0.03934
425.13868	0.03850
423.08487	0.03887
421.03106	0.04023
418.97725	0.04219
416.92344	0.04220
414.86963	0.04004
412.81582	0.03756
410.76201	0.03609
408.70820	0.03658
406.65439	0.03813
404.60058	0.03840
402.54677	0.03758
400.49296	0.03716
398.43915	0.03540
