3996.71440	0.00368
3994.66059	0.00378
3992.60678	0.00382
3990.55297	0.00381
3988.49916	0.00379
3986.44535	0.00364
3984.39154	0.00350
3982.33773	0.00355
3980.28391	0.00360
3978.23010	0.00360
3976.17629	0.00354
3974.12248	0.00338
3972.06867	0.00335
3970.01486	0.00350
3967.96105	0.00357
3965.90724	0.00350
3963.85343	0.00339
3961.79962	0.00343
3959.74581	0.00362
3957.69200	0.00367
3955.63819	0.00349
3953.58438	0.00337
3951.53057	0.00346
3949.47676	0.00358
3947.42295	0.00356
3945.36914	0.00349
3943.31533	0.00350
3941.26152	0.00361
3939.20771	0.00373
3937.15390	0.00379
3935.10009	0.00366
3933.04628	0.00349
3930.99247	0.00343
3928.93866	0.00345
3926.88485	0.00360
3924.83104	0.00387
3922.77723	0.00398
3920.72342	0.00383
3918.66961	0.00362
3916.61580	0.00353
3914.56199	0.00356
3912.50818	0.00360
3910.45437	0.00358
3908.40056	0.00353
3906.34675	0.00356
3904.29294	0.00364
3902.23913	0.00363
3900.18532	0.00360
3898.13151	0.00357
3896.07770	0.00358
3894.02389	0.00373
3891.97008	0.00399
3889.91627	0.00404
3887.86246	0.00383
3885.80865	0.00366
3883.75484	0.00370
3881.70103	0.00393
3879.64722	0.00418
3877.59341	0.00412
3875.53960	0.00389
3873.48579	0.00375
3871.43198	0.00371
3869.37817	0.00371
3867.32436	0.00364
3865.27055	0.00350
3863.21674	0.00348
3861.16293	0.00357
3859.10912	0.00368
3857.05531	0.00382
3855.00150	0.00393
3852.94769	0.00390
3850.89388	0.00387
3848.84007	0.00395
3846.78626	0.00395
3844.73245	0.00378
3842.67864	0.00358
3840.62483	0.00343
3838.57102	0.00340
3836.51721	0.00367
3834.46340	0.00397
3832.40959	0.00401
3830.35578	0.00396
3828.30197	0.00406
3826.24816	0.00417
3824.19435	0.00415
3822.14054	0.00402
3820.08673	0.00378
3818.03292	0.00357
3815.97911	0.00364
3813.92530	0.00396
3811.87149	0.00422
3809.81768	0.00426
3807.76387	0.00418
3805.71006	0.00417
3803.65625	0.00421
3801.60244	0.00426
3799.54863	0.00428
3797.49482	0.00425
3795.44101	0.00424
3793.38720	0.00423
3791.33339	0.00418
3789.27958	0.00416
3787.22577	0.00416
3785.17196	0.00419
3783.11815	0.00422
3781.06434	0.00422
3779.01053	0.00427
3776.95672	0.00442
3774.90291	0.00455
3772.84910	0.00456
3770.79529	0.00446
3768.74148	0.00437
3766.68767	0.00439
3764.63386	0.00441
3762.58005	0.00431
3760.52624	0.00417
3758.47243	0.00419
3756.41862	0.00432
3754.36481	0.00446
3752.31100	0.00467
3750.25719	0.00481
3748.20338	0.00468
3746.14957	0.00442
3744.09576	0.00434
3742.04195	0.00453
3739.98814	0.00474
3737.93433	0.00489
3735.88052	0.00500
3733.82671	0.00511
3731.77290	0.00518
3729.71909	0.00517
3727.66528	0.00515
3725.61147	0.00514
3723.55766	0.00524
3721.50385	0.00543
3719.45004	0.00560
3717.39623	0.00577
3715.34242	0.00596
3713.28861	0.00622
3711.23480	0.00657
3709.18099	0.00679
3707.12718	0.00689
3705.07337	0.00699
3703.01956	0.00723
3700.96575	0.00763
3698.91194	0.00797
3696.85813	0.00817
3694.80432	0.00828
3692.75051	0.00843
3690.69670	0.00876
3688.64289	0.00922
3686.58907	0.00955
3684.53526	0.00987
3682.48145	0.01021
3680.42764	0.01043
3678.37383	0.01067
3676.32002	0.01122
3674.26621	0.01197
3672.21240	0.01249
3670.15859	0.01287
3668.10478	0.01347
3666.05097	0.01426
3663.99716	0.01497
3661.94335	0.01554
3659.88954	0.01602
3657.83573	0.01649
3655.78192	0.01718
3653.72811	0.01794
3651.67430	0.01859
3649.62049	0.01925
3647.56668	0.02003
3645.51287	0.02080
3643.45906	0.02152
3641.40525	0.02238
3639.35144	0.02318
3637.29763	0.02380
3635.24382	0.02458
3633.19001	0.02556
3631.13620	0.02649
3629.08239	0.02738
3627.02858	0.02811
3624.97477	0.02865
3622.92096	0.02919
3620.86715	0.02971
3618.81334	0.03042
3616.75953	0.03123
3614.70572	0.03198
3612.65191	0.03273
3610.59810	0.03333
3608.54429	0.03381
3606.49048	0.03442
3604.43667	0.03507
3602.38286	0.03568
3600.32905	0.03635
3598.27524	0.03705
3596.22143	0.03762
3594.16762	0.03813
3592.11381	0.03871
3590.06000	0.03924
3588.00619	0.03977
3585.95238	0.04050
3583.89857	0.04125
3581.84476	0.04200
3579.79095	0.04277
3577.73714	0.04339
3575.68333	0.04390
3573.62952	0.04445
3571.57571	0.04500
3569.52190	0.04552
3567.46809	0.04631
3565.41428	0.04729
3563.36047	0.04799
3561.30666	0.04849
3559.25285	0.04904
3557.19904	0.04976
3555.14523	0.05043
3553.09142	0.05088
3551.03761	0.05128
3548.98380	0.05187
3546.92999	0.05258
3544.87618	0.05321
3542.82237	0.05374
3540.76856	0.05428
3538.71475	0.05482
3536.66094	0.05529
3534.60713	0.05588
3532.55332	0.05664
3530.49951	0.05733
3528.44570	0.05786
3526.39189	0.05837
3524.33808	0.05894
3522.28427	0.05952
3520.23046	0.06002
3518.17665	0.06052
3516.12284	0.06110
3514.06903	0.06165
3512.01522	0.06209
3509.96141	0.06254
3507.90760	0.06313
3505.85379	0.06368
3503.79998	0.06422
3501.74617	0.06487
3499.69236	0.06540
3497.63855	0.06570
3495.58474	0.06608
3493.53093	0.06666
3491.47712	0.06728
3489.42331	0.06790
3487.36950	0.06846
3485.31569	0.06893
3483.26188	0.06932
3481.20807	0.06969
3479.15426	0.07006
3477.10045	0.07052
3475.04664	0.07115
3472.99283	0.07169
3470.93902	0.07208
3468.88521	0.07255
3466.83140	0.07308
3464.77759	0.07353
3462.72378	0.07403
3460.66997	0.07460
3458.61616	0.07508
3456.56235	0.07546
3454.50854	0.07579
3452.45473	0.07607
3450.40092	0.07637
3448.34711	0.07675
3446.29330	0.07713
3444.23949	0.07742
3442.18568	0.07779
3440.13187	0.07818
3438.07806	0.07846
3436.02425	0.07884
3433.97044	0.07933
3431.91663	0.07965
3429.86282	0.07983
3427.80901	0.08001
3425.75520	0.08020
3423.70139	0.08039
3421.64758	0.08077
3419.59377	0.08120
3417.53996	0.08154
3415.48615	0.08190
3413.43234	0.08221
3411.37853	0.08235
3409.32472	0.08253
3407.27091	0.08275
3405.21710	0.08297
3403.16329	0.08314
3401.10948	0.08318
3399.05567	0.08326
3397.00186	0.08350
3394.94805	0.08369
3392.89424	0.08378
3390.84042	0.08393
3388.78661	0.08407
3386.73280	0.08412
3384.67899	0.08417
3382.62518	0.08422
3380.57137	0.08432
3378.51756	0.08454
3376.46375	0.08464
3374.40994	0.08453
3372.35613	0.08446
3370.30232	0.08448
3368.24851	0.08447
3366.19470	0.08443
3364.14089	0.08437
3362.08708	0.08433
3360.03327	0.08433
3357.97946	0.08427
3355.92565	0.08413
3353.87184	0.08400
3351.81803	0.08392
3349.76422	0.08389
3347.71041	0.08384
3345.65660	0.08369
3343.60279	0.08358
3341.54898	0.08361
3339.49517	0.08369
3337.44136	0.08365
3335.38755	0.08355
3333.33374	0.08340
3331.27993	0.08313
3329.22612	0.08295
3327.17231	0.08293
3325.11850	0.08281
3323.06469	0.08253
3321.01088	0.08230
3318.95707	0.08226
3316.90326	0.08224
3314.84945	0.08206
3312.79564	0.08179
3310.74183	0.08157
3308.68802	0.08148
3306.63421	0.08155
3304.58040	0.08161
3302.52659	0.08156
3300.47278	0.08147
3298.41897	0.08141
3296.36516	0.08125
3294.31135	0.08089
3292.25754	0.08049
3290.20373	0.08035
3288.14992	0.08042
3286.09611	0.08047
3284.04230	0.08050
3281.98849	0.08049
3279.93468	0.08027
3277.88087	0.07998
3275.82706	0.07981
3273.77325	0.07971
3271.71944	0.07963
3269.66563	0.07957
3267.61182	0.07949
3265.55801	0.07932
3263.50420	0.07913
3261.45039	0.07906
3259.39658	0.07900
3257.34277	0.07883
3255.28896	0.07859
3253.23515	0.07840
3251.18134	0.07832
3249.12753	0.07825
3247.07372	0.07818
3245.01991	0.07814
3242.96610	0.07803
3240.91229	0.07783
3238.85848	0.07757
3236.80467	0.07726
3234.75086	0.07709
3232.69705	0.07700
3230.64324	0.07676
3228.58943	0.07649
3226.53562	0.07638
3224.48181	0.07631
3222.42800	0.07603
3220.37419	0.07566
3218.32038	0.07540
3216.26657	0.07526
3214.21276	0.07518
3212.15895	0.07494
3210.10514	0.07454
3208.05133	0.07422
3205.99752	0.07397
3203.94371	0.07367
3201.88990	0.07335
3199.83609	0.07304
3197.78228	0.07272
3195.72847	0.07239
3193.67466	0.07218
3191.62085	0.07201
3189.56704	0.07177
3187.51323	0.07150
3185.45942	0.07120
3183.40561	0.07091
3181.35180	0.07073
3179.29799	0.07054
3177.24418	0.07016
3175.19037	0.06963
3173.13656	0.06913
3171.08275	0.06873
3169.02894	0.06842
3166.97513	0.06812
3164.92132	0.06776
3162.86751	0.06740
3160.81370	0.06708
3158.75989	0.06677
3156.70608	0.06645
3154.65227	0.06610
3152.59846	0.06580
3150.54465	0.06549
3148.49084	0.06518
3146.43703	0.06492
3144.38322	0.06463
3142.32941	0.06427
3140.27560	0.06385
3138.22179	0.06345
3136.16798	0.06325
3134.11417	0.06308
3132.06036	0.06276
3130.00655	0.06244
3127.95274	0.06210
3125.89893	0.06169
3123.84512	0.06135
3121.79131	0.06102
3119.73750	0.06068
3117.68369	0.06039
3115.62988	0.06002
3113.57607	0.05964
3111.52226	0.05934
3109.46845	0.05905
3107.41464	0.05870
3105.36083	0.05842
3103.30702	0.05833
3101.25321	0.05821
3099.19940	0.05788
3097.14559	0.05749
3095.09177	0.05713
3093.03796	0.05683
3090.98415	0.05661
3088.93034	0.05642
3086.87653	0.05615
3084.82272	0.05579
3082.76891	0.05545
3080.71510	0.05522
3078.66129	0.05506
3076.60748	0.05483
3074.55367	0.05442
3072.49986	0.05391
3070.44605	0.05355
3068.39224	0.05339
3066.33843	0.05327
3064.28462	0.05306
3062.23081	0.05282
3060.17700	0.05263
3058.12319	0.05243
3056.06938	0.05216
3054.01557	0.05193
3051.96176	0.05176
3049.90795	0.05159
3047.85414	0.05139
3045.80033	0.05113
3043.74652	0.05089
3041.69271	0.05066
3039.63890	0.05034
3037.58509	0.04996
3035.53128	0.04966
3033.47747	0.04952
3031.42366	0.04943
3029.36985	0.04930
3027.31604	0.04915
3025.26223	0.04893
3023.20842	0.04867
3021.15461	0.04843
3019.10080	0.04824
3017.04699	0.04808
3014.99318	0.04791
3012.93937	0.04774
3010.88556	0.04763
3008.83175	0.04761
3006.77794	0.04766
3004.72413	0.04772
3002.67032	0.04765
3000.61651	0.04750
2998.56270	0.04742
2996.50889	0.04738
2994.45508	0.04744
2992.40127	0.04760
2990.34746	0.04776
2988.29365	0.04796
2986.23984	0.04833
2984.18603	0.04887
2982.13222	0.04957
2980.07841	0.05035
2978.02460	0.05129
2975.97079	0.05269
2973.91698	0.05474
2971.86317	0.05738
2969.80936	0.06067
2967.75555	0.06469
2965.70174	0.06933
2963.64793	0.07410
2961.59412	0.07799
2959.54031	0.08025
2957.48650	0.08135
2955.43269	0.08258
2953.37888	0.08463
2951.32507	0.08671
2949.27126	0.08708
2947.21745	0.08453
2945.16364	0.07954
2943.10983	0.07407
2941.05602	0.06990
2939.00221	0.06773
2936.94840	0.06758
2934.89459	0.06917
2932.84078	0.07206
2930.78697	0.07585
2928.73316	0.08020
2926.67935	0.08461
2924.62554	0.08869
2922.57173	0.09232
2920.51792	0.09537
2918.46411	0.09713
2916.41030	0.09660
2914.35649	0.09364
2912.30268	0.08948
2910.24887	0.08555
2908.19506	0.08243
2906.14125	0.07978
2904.08744	0.07709
2902.03363	0.07428
2899.97982	0.07156
2897.92601	0.06911
2895.87220	0.06702
2893.81839	0.06533
2891.76458	0.06420
2889.71077	0.06375
2887.65696	0.06375
2885.60315	0.06398
2883.54934	0.06449
2881.49553	0.06534
2879.44172	0.06631
2877.38791	0.06696
2875.33410	0.06702
2873.28029	0.06683
2871.22648	0.06688
2869.17267	0.06723
2867.11886	0.06721
2865.06505	0.06584
2863.01124	0.06273
2860.95743	0.05884
2858.90362	0.05556
2856.84981	0.05341
2854.79600	0.05222
2852.74219	0.05184
2850.68838	0.05216
2848.63457	0.05303
2846.58076	0.05459
2844.52695	0.05695
2842.47314	0.05989
2840.41933	0.06274
2838.36552	0.06434
2836.31171	0.06367
2834.25790	0.06066
2832.20409	0.05650
2830.15028	0.05271
2828.09647	0.04985
2826.04266	0.04779
2823.98885	0.04630
2821.93504	0.04518
2819.88123	0.04434
2817.82742	0.04369
2815.77361	0.04313
2813.71980	0.04262
2811.66599	0.04228
2809.61218	0.04204
2807.55837	0.04165
2805.50456	0.04116
2803.45075	0.04075
2801.39693	0.04045
2799.34312	0.04025
2797.28931	0.04010
2795.23550	0.03989
2793.18169	0.03955
2791.12788	0.03915
2789.07407	0.03887
2787.02026	0.03868
2784.96645	0.03849
2782.91264	0.03826
2780.85883	0.03800
2778.80502	0.03776
2776.75121	0.03759
2774.69740	0.03741
2772.64359	0.03718
2770.58978	0.03695
2768.53597	0.03676
2766.48216	0.03664
2764.42835	0.03662
2762.37454	0.03663
2760.32073	0.03660
2758.26692	0.03650
2756.21311	0.03634
2754.15930	0.03619
2752.10549	0.03610
2750.05168	0.03599
2747.99787	0.03585
2745.94406	0.03573
2743.89025	0.03563
2741.83644	0.03552
2739.78263	0.03543
2737.72882	0.03543
2735.67501	0.03548
2733.62120	0.03551
2731.56739	0.03553
2729.51358	0.03557
2727.45977	0.03564
2725.40596	0.03570
2723.35215	0.03573
2721.29834	0.03570
2719.24453	0.03550
2717.19072	0.03522
2715.13691	0.03503
2713.08310	0.03492
2711.02929	0.03480
2708.97548	0.03464
2706.92167	0.03443
2704.86786	0.03424
2702.81405	0.03417
2700.76024	0.03419
2698.70643	0.03413
2696.65262	0.03399
2694.59881	0.03387
2692.54500	0.03378
2690.49119	0.03374
2688.43738	0.03370
2686.38357	0.03361
2684.32976	0.03355
2682.27595	0.03355
2680.22214	0.03348
2678.16833	0.03339
2676.11452	0.03339
2674.06071	0.03338
2672.00690	0.03330
2669.95309	0.03322
2667.89928	0.03316
2665.84547	0.03314
2663.79166	0.03323
2661.73785	0.03339
2659.68404	0.03341
2657.63023	0.03325
2655.57642	0.03312
2653.52261	0.03310
2651.46880	0.03310
2649.41499	0.03305
2647.36118	0.03295
2645.30737	0.03277
2643.25356	0.03260
2641.19975	0.03249
2639.14594	0.03246
2637.09213	0.03239
2635.03832	0.03227
2632.98451	0.03216
2630.93070	0.03203
2628.87689	0.03194
2626.82308	0.03201
2624.76927	0.03209
2622.71546	0.03204
2620.66165	0.03200
2618.60784	0.03200
2616.55403	0.03200
2614.50022	0.03200
2612.44641	0.03196
2610.39260	0.03179
2608.33879	0.03157
2606.28498	0.03143
2604.23117	0.03144
2602.17736	0.03144
2600.12355	0.03138
2598.06974	0.03131
2596.01593	0.03120
2593.96212	0.03112
2591.90831	0.03112
2589.85450	0.03109
2587.80069	0.03106
2585.74688	0.03117
2583.69307	0.03129
2581.63926	0.03128
2579.58545	0.03119
2577.53164	0.03115
2575.47783	0.03120
2573.42402	0.03119
2571.37021	0.03103
2569.31640	0.03097
2567.26259	0.03105
2565.20878	0.03111
2563.15497	0.03114
2561.10116	0.03100
2559.04735	0.03080
2556.99354	0.03083
2554.93973	0.03085
2552.88592	0.03068
2550.83211	0.03060
2548.77830	0.03065
2546.72449	0.03064
2544.67068	0.03048
2542.61687	0.03030
2540.56306	0.03032
2538.50925	0.03048
2536.45544	0.03061
2534.40163	0.03061
2532.34782	0.03050
2530.29401	0.03050
2528.24020	0.03061
2526.18639	0.03066
2524.13258	0.03062
2522.07877	0.03058
2520.02496	0.03056
2517.97115	0.03067
2515.91734	0.03082
2513.86353	0.03072
2511.80972	0.03053
2509.75591	0.03049
2507.70210	0.03045
2505.64828	0.03032
2503.59447	0.03034
2501.54066	0.03048
2499.48685	0.03056
2497.43304	0.03061
2495.37923	0.03058
2493.32542	0.03046
2491.27161	0.03044
2489.21780	0.03052
2487.16399	0.03043
2485.11018	0.03019
2483.05637	0.03008
2481.00256	0.03018
2478.94875	0.03035
2476.89494	0.03047
2474.84113	0.03053
2472.78732	0.03050
2470.73351	0.03041
2468.67970	0.03035
2466.62589	0.03030
2464.57208	0.03026
2462.51827	0.03027
2460.46446	0.03032
2458.41065	0.03034
2456.35684	0.03038
2454.30303	0.03048
2452.24922	0.03050
2450.19541	0.03050
2448.14160	0.03055
2446.08779	0.03061
2444.03398	0.03059
2441.98017	0.03043
2439.92636	0.03026
2437.87255	0.03014
2435.81874	0.03007
2433.76493	0.03012
2431.71112	0.03028
2429.65731	0.03050
2427.60350	0.03051
2425.54969	0.03030
2423.49588	0.03019
2421.44207	0.03019
2419.38826	0.03019
2417.33445	0.03031
2415.28064	0.03044
2413.22683	0.03034
2411.17302	0.03015
2409.11921	0.03017
2407.06540	0.03030
2405.01159	0.03031
2402.95778	0.03028
2400.90397	0.03030
2398.85016	0.03033
2396.79635	0.03037
2394.74254	0.03041
2392.68873	0.03043
2390.63492	0.03040
2388.58111	0.03035
2386.52730	0.03024
2384.47349	0.03019
2382.41968	0.03033
2380.36587	0.03052
2378.31206	0.03069
2376.25825	0.03069
2374.20444	0.03048
2372.15063	0.03029
2370.09682	0.03010
2368.04301	0.03013
2365.98920	0.03055
2363.93539	0.03079
2361.88158	0.03076
2359.82777	0.03080
2357.77396	0.03070
2355.72015	0.03055
2353.66634	0.03070
2351.61253	0.03094
2349.55872	0.03099
2347.50491	0.03095
2345.45110	0.03090
2343.39729	0.03082
2341.34348	0.03064
2339.28967	0.03050
2337.23586	0.03057
2335.18205	0.03068
2333.12824	0.03053
2331.07443	0.03045
2329.02062	0.03072
2326.96681	0.03114
2324.91300	0.03143
2322.85919	0.03139
2320.80538	0.03121
2318.75157	0.03116
2316.69776	0.03125
2314.64395	0.03132
2312.59014	0.03133
2310.53633	0.03133
2308.48252	0.03129
2306.42871	0.03126
2304.37490	0.03115
2302.32109	0.03093
2300.26728	0.03081
2298.21347	0.03096
2296.15966	0.03122
2294.10585	0.03124
2292.05204	0.03109
2289.99823	0.03107
2287.94442	0.03125
2285.89061	0.03144
2283.83680	0.03142
2281.78299	0.03123
2279.72918	0.03110
2277.67537	0.03115
2275.62156	0.03118
2273.56775	0.03106
2271.51394	0.03095
2269.46013	0.03088
2267.40632	0.03078
2265.35251	0.03062
2263.29870	0.03041
2261.24489	0.03039
2259.19108	0.03064
2257.13727	0.03094
2255.08346	0.03103
2253.02965	0.03090
2250.97584	0.03068
2248.92203	0.03059
2246.86822	0.03069
2244.81441	0.03075
2242.76060	0.03084
2240.70679	0.03098
2238.65298	0.03083
2236.59917	0.03072
2234.54536	0.03099
2232.49155	0.03115
2230.43774	0.03099
2228.38393	0.03081
2226.33012	0.03072
2224.27631	0.03078
2222.22250	0.03078
2220.16869	0.03058
2218.11488	0.03067
2216.06107	0.03110
2214.00726	0.03119
2211.95344	0.03066
2209.89963	0.03016
2207.84582	0.03015
2205.79201	0.03016
2203.73820	0.03025
2201.68439	0.03059
2199.63058	0.03103
2197.57677	0.03122
2195.52296	0.03090
2193.46915	0.03060
2191.41534	0.03063
2189.36153	0.03092
2187.30772	0.03135
2185.25391	0.03155
2183.20010	0.03120
2181.14629	0.03074
2179.09248	0.03116
2177.03867	0.03206
2174.98486	0.03237
2172.93105	0.03219
2170.87724	0.03176
2168.82343	0.03145
2166.76962	0.03172
2164.71581	0.03201
2162.66200	0.03206
2160.60819	0.03119
2158.55438	0.02916
2156.50057	0.02824
2154.44676	0.02926
2152.39295	0.03068
2150.33914	0.03158
2148.28533	0.03167
2146.23152	0.03086
2144.17771	0.03020
2142.12390	0.03037
2140.07009	0.03076
2138.01628	0.03089
2135.96247	0.03082
2133.90866	0.03062
2131.85485	0.03036
2129.80104	0.03021
2127.74723	0.03033
2125.69342	0.03073
2123.63961	0.03131
2121.58580	0.03170
2119.53199	0.03179
2117.47818	0.03208
2115.42437	0.03248
2113.37056	0.03249
2111.31675	0.03214
2109.26294	0.03203
2107.20913	0.03240
2105.15532	0.03273
2103.10151	0.03276
2101.04770	0.03261
2098.99389	0.03252
2096.94008	0.03241
2094.88627	0.03227
2092.83246	0.03222
2090.77865	0.03202
2088.72484	0.03178
2086.67103	0.03190
2084.61722	0.03228
2082.56341	0.03261
2080.50960	0.03275
2078.45579	0.03273
2076.40198	0.03258
2074.34817	0.03241
2072.29436	0.03221
2070.24055	0.03192
2068.18674	0.03187
2066.13293	0.03216
2064.07912	0.03240
2062.02531	0.03226
2059.97150	0.03193
2057.91769	0.03187
2055.86388	0.03197
2053.81007	0.03215
2051.75626	0.03251
2049.70245	0.03277
2047.64864	0.03253
2045.59483	0.03197
2043.54102	0.03197
2041.48721	0.03261
2039.43340	0.03278
2037.37959	0.03229
2035.32578	0.03182
2033.27197	0.03139
2031.21816	0.03149
2029.16435	0.03205
2027.11054	0.03221
2025.05673	0.03244
2023.00292	0.03286
2020.94911	0.03295
2018.89530	0.03292
2016.84149	0.03283
2014.78768	0.03267
2012.73387	0.03234
2010.68006	0.03192
2008.62625	0.03181
2006.57244	0.03188
2004.51863	0.03173
2002.46482	0.03145
2000.41101	0.03169
1998.35720	0.03243
1996.30339	0.03275
1994.24958	0.03225
1992.19577	0.03185
1990.14196	0.03211
1988.08815	0.03255
1986.03434	0.03263
1983.98053	0.03198
1981.92672	0.03156
1979.87291	0.03227
1977.81910	0.03298
1975.76529	0.03307
1973.71148	0.03309
1971.65767	0.03311
1969.60386	0.03283
1967.55005	0.03255
1965.49624	0.03278
1963.44243	0.03312
1961.38862	0.03311
1959.33481	0.03287
1957.28100	0.03261
1955.22719	0.03276
1953.17338	0.03299
1951.11957	0.03299
1949.06576	0.03335
1947.01195	0.03398
1944.95814	0.03446
1942.90433	0.03466
1940.85052	0.03454
1938.79671	0.03452
1936.74290	0.03495
1934.68909	0.03540
1932.63528	0.03539
1930.58147	0.03512
1928.52766	0.03510
1926.47385	0.03537
1924.42004	0.03562
1922.36623	0.03587
1920.31242	0.03592
1918.25861	0.03576
1916.20479	0.03590
1914.15098	0.03632
1912.09717	0.03673
1910.04336	0.03706
1907.98955	0.03725
1905.93574	0.03734
1903.88193	0.03738
1901.82812	0.03739
1899.77431	0.03753
1897.72050	0.03778
1895.66669	0.03792
1893.61288	0.03806
1891.55907	0.03837
1889.50526	0.03863
1887.45145	0.03871
1885.39764	0.03888
1883.34383	0.03928
1881.29002	0.03966
1879.23621	0.03985
1877.18240	0.03985
1875.12859	0.03985
1873.07478	0.03998
1871.02097	0.04001
1868.96716	0.04005
1866.91335	0.04034
1864.85954	0.04061
1862.80573	0.04076
1860.75192	0.04092
1858.69811	0.04119
1856.64430	0.04155
1854.59049	0.04180
1852.53668	0.04197
1850.48287	0.04221
1848.42906	0.04234
1846.37525	0.04227
1844.32144	0.04243
1842.26763	0.04307
1840.21382	0.04360
1838.16001	0.04384
1836.10620	0.04401
1834.05239	0.04412
1831.99858	0.04419
1829.94477	0.04434
1827.89096	0.04445
1825.83715	0.04464
1823.78334	0.04505
1821.72953	0.04542
1819.67572	0.04560
1817.62191	0.04578
1815.56810	0.04607
1813.51429	0.04640
1811.46048	0.04677
1809.40667	0.04719
1807.35286	0.04752
1805.29905	0.04767
1803.24524	0.04772
1801.19143	0.04786
1799.13762	0.04819
1797.08381	0.04851
1795.03000	0.04871
1792.97619	0.04906
1790.92238	0.04973
1788.86857	0.05022
1786.81476	0.05050
1784.76095	0.05077
1782.70714	0.05110
1780.65333	0.05153
1778.59952	0.05202
1776.54571	0.05251
1774.49190	0.05293
1772.43809	0.05345
1770.38428	0.05410
1768.33047	0.05468
1766.27666	0.05514
1764.22285	0.05546
1762.16904	0.05579
1760.11523	0.05611
1758.06142	0.05638
1756.00761	0.05680
1753.95380	0.05724
1751.89999	0.05760
1749.84618	0.05802
1747.79237	0.05849
1745.73856	0.05899
1743.68475	0.05945
1741.63094	0.05983
1739.57713	0.06028
1737.52332	0.06070
1735.46951	0.06108
1733.41570	0.06174
1731.36189	0.06235
1729.30808	0.06269
1727.25427	0.06308
1725.20046	0.06363
1723.14665	0.06421
1721.09284	0.06461
1719.03903	0.06505
1716.98522	0.06589
1714.93141	0.06678
1712.87760	0.06744
1710.82379	0.06796
1708.76998	0.06827
1706.71617	0.06844
1704.66236	0.06852
1702.60855	0.06836
1700.55474	0.06821
1698.50093	0.06843
1696.44712	0.06877
1694.39331	0.06901
1692.33950	0.06897
1690.28569	0.06884
1688.23188	0.06892
1686.17807	0.06911
1684.12426	0.06945
1682.07045	0.06976
1680.01664	0.06994
1677.96283	0.07018
1675.90902	0.07065
1673.85521	0.07121
1671.80140	0.07156
1669.74759	0.07200
1667.69378	0.07262
1665.63997	0.07307
1663.58616	0.07357
1661.53235	0.07434
1659.47854	0.07500
1657.42473	0.07535
1655.37092	0.07554
1653.31711	0.07628
1651.26330	0.07744
1649.20949	0.07803
1647.15568	0.07870
1645.10187	0.07941
1643.04806	0.07981
1640.99425	0.08007
1638.94044	0.08013
1636.88663	0.08009
1634.83282	0.08020
1632.77901	0.08021
1630.72520	0.07995
1628.67139	0.07945
1626.61758	0.07885
1624.56377	0.07820
1622.50996	0.07724
1620.45614	0.07607
1618.40233	0.07489
1616.34852	0.07363
1614.29471	0.07244
1612.24090	0.07131
1610.18709	0.07001
1608.13328	0.06861
1606.07947	0.06731
1604.02566	0.06610
1601.97185	0.06492
1599.91804	0.06381
1597.86423	0.06271
1595.81042	0.06158
1593.75661	0.06051
1591.70280	0.05956
1589.64899	0.05868
1587.59518	0.05782
1585.54137	0.05697
1583.48756	0.05621
1581.43375	0.05558
1579.37994	0.05495
1577.32613	0.05422
1575.27232	0.05347
1573.21851	0.05292
1571.16470	0.05245
1569.11089	0.05196
1567.05708	0.05157
1565.00327	0.05120
1562.94946	0.05073
1560.89565	0.05026
1558.84184	0.04990
1556.78803	0.04971
1554.73422	0.04941
1552.68041	0.04899
1550.62660	0.04859
1548.57279	0.04828
1546.51898	0.04807
1544.46517	0.04788
1542.41136	0.04756
1540.35755	0.04721
1538.30374	0.04720
1536.24993	0.04722
1534.19612	0.04716
1532.14231	0.04707
1530.08850	0.04692
1528.03469	0.04670
1525.98088	0.04656
1523.92707	0.04654
1521.87326	0.04647
1519.81945	0.04631
1517.76564	0.04614
1515.71183	0.04598
1513.65802	0.04596
1511.60421	0.04602
1509.55040	0.04592
1507.49659	0.04563
1505.44278	0.04565
1503.38897	0.04587
1501.33516	0.04597
1499.28135	0.04599
1497.22754	0.04601
1495.17373	0.04607
1493.11992	0.04609
1491.06611	0.04611
1489.01230	0.04630
1486.95849	0.04664
1484.90468	0.04691
1482.85087	0.04719
1480.79706	0.04763
1478.74325	0.04818
1476.68944	0.04897
1474.63563	0.05033
1472.58182	0.05276
1470.52801	0.05591
1468.47420	0.05896
1466.42039	0.06252
1464.36658	0.06680
1462.31277	0.06998
1460.25896	0.07145
1458.20515	0.07239
1456.15134	0.07350
1454.09753	0.07403
1452.04372	0.07376
1449.98991	0.07248
1447.93610	0.06963
1445.88229	0.06586
1443.82848	0.06260
1441.77467	0.06033
1439.72086	0.05908
1437.66705	0.05865
1435.61324	0.05843
1433.55943	0.05743
1431.50562	0.05585
1429.45181	0.05441
1427.39800	0.05358
1425.34419	0.05320
1423.29038	0.05300
1421.23657	0.05283
1419.18276	0.05272
1417.12895	0.05270
1415.07514	0.05263
1413.02133	0.05259
1410.96752	0.05266
1408.91371	0.05278
1406.85990	0.05283
1404.80609	0.05286
1402.75228	0.05290
1400.69847	0.05291
1398.64466	0.05302
1396.59085	0.05330
1394.53704	0.05371
1392.48323	0.05424
1390.42942	0.05491
1388.37561	0.05601
1386.32180	0.05813
1384.26799	0.06150
1382.21418	0.06686
1380.16037	0.07527
1378.10656	0.08521
1376.05275	0.09107
1373.99894	0.08815
1371.94513	0.07982
1369.89132	0.07244
1367.83751	0.06778
1365.78370	0.06567
1363.72989	0.06531
1361.67608	0.06601
1359.62227	0.06674
1357.56846	0.06663
1355.51465	0.06561
1353.46084	0.06432
1351.40703	0.06329
1349.35322	0.06254
1347.29941	0.06197
1345.24560	0.06152
1343.19179	0.06125
1341.13798	0.06128
1339.08417	0.06149
1337.03036	0.06167
1334.97655	0.06176
1332.92274	0.06182
1330.86893	0.06193
1328.81512	0.06201
1326.76130	0.06191
1324.70749	0.06177
1322.65368	0.06172
1320.59987	0.06171
1318.54606	0.06180
1316.49225	0.06194
1314.43844	0.06208
1312.38463	0.06220
1310.33082	0.06233
1308.27701	0.06264
1306.22320	0.06318
1304.16939	0.06364
1302.11558	0.06374
1300.06177	0.06364
1298.00796	0.06367
1295.95415	0.06385
1293.90034	0.06399
1291.84653	0.06401
1289.79272	0.06401
1287.73891	0.06403
1285.68510	0.06405
1283.63129	0.06421
1281.57748	0.06452
1279.52367	0.06483
1277.46986	0.06512
1275.41605	0.06552
1273.36224	0.06606
1271.30843	0.06661
1269.25462	0.06719
1267.20081	0.06791
1265.14700	0.06870
1263.09319	0.06953
1261.03938	0.07058
1258.98557	0.07193
1256.93176	0.07343
1254.87795	0.07479
1252.82414	0.07591
1250.77033	0.07700
1248.71652	0.07832
1246.66271	0.07995
1244.60890	0.08169
1242.55509	0.08341
1240.50128	0.08527
1238.44747	0.08733
1236.39366	0.08943
1234.33985	0.09154
1232.28604	0.09373
1230.23223	0.09596
1228.17842	0.09813
1226.12461	0.10030
1224.07080	0.10254
1222.01699	0.10476
1219.96318	0.10685
1217.90937	0.10880
1215.85556	0.11070
1213.80175	0.11254
1211.74794	0.11429
1209.69413	0.11588
1207.64032	0.11729
1205.58651	0.11871
1203.53270	0.12029
1201.47889	0.12187
1199.42508	0.12327
1197.37127	0.12453
1195.31746	0.12575
1193.26365	0.12692
1191.20984	0.12806
1189.15603	0.12915
1187.10222	0.13019
1185.04841	0.13129
1182.99460	0.13245
1180.94079	0.13354
1178.88698	0.13450
1176.83317	0.13542
1174.77936	0.13656
1172.72555	0.13813
1170.67174	0.14009
1168.61793	0.14202
1166.56412	0.14314
1164.51031	0.14314
1162.45650	0.14241
1160.40269	0.14138
1158.34888	0.14039
1156.29507	0.13969
1154.24126	0.13912
1152.18745	0.13846
1150.13364	0.13765
1148.07983	0.13675
1146.02602	0.13592
1143.97221	0.13511
1141.91840	0.13414
1139.86459	0.13310
1137.81078	0.13238
1135.75697	0.13211
1133.70316	0.13198
1131.64935	0.13172
1129.59554	0.13139
1127.54173	0.13113
1125.48792	0.13098
1123.43411	0.13089
1121.38030	0.13079
1119.32649	0.13069
1117.27268	0.13057
1115.21887	0.13054
1113.16506	0.13075
1111.11125	0.13102
1109.05744	0.13123
1107.00363	0.13149
1104.94982	0.13172
1102.89601	0.13188
1100.84220	0.13192
1098.78839	0.13175
1096.73458	0.13154
1094.68077	0.13142
1092.62696	0.13120
1090.57315	0.13074
1088.51934	0.13019
1086.46553	0.12974
1084.41172	0.12923
1082.35791	0.12861
1080.30410	0.12804
1078.25029	0.12769
1076.19648	0.12757
1074.14267	0.12749
1072.08886	0.12749
1070.03505	0.12777
1067.98124	0.12852
1065.92743	0.12993
1063.87362	0.13206
1061.81981	0.13466
1059.76600	0.13749
1057.71219	0.14063
1055.65838	0.14411
1053.60457	0.14753
1051.55076	0.15049
1049.49695	0.15286
1047.44314	0.15457
1045.38933	0.15568
1043.33552	0.15636
1041.28171	0.15658
1039.22790	0.15622
1037.17409	0.15529
1035.12028	0.15385
1033.06647	0.15212
1031.01265	0.15022
1028.95884	0.14799
1026.90503	0.14551
1024.85122	0.14297
1022.79741	0.14056
1020.74360	0.13844
1018.68979	0.13642
1016.63598	0.13446
1014.58217	0.13272
1012.52836	0.13095
1010.47455	0.12917
1008.42074	0.12757
1006.36693	0.12621
1004.31312	0.12529
1002.25931	0.12509
1000.20550	0.12576
998.15169	0.12634
996.09788	0.12509
994.04407	0.12193
991.99026	0.11832
989.93645	0.11535
987.88264	0.11325
985.82883	0.11183
983.77502	0.11078
981.72121	0.10991
979.66740	0.10953
977.61359	0.11013
975.55978	0.11167
973.50597	0.11315
971.45216	0.11287
969.39835	0.11029
967.34454	0.10689
965.29073	0.10418
963.23692	0.10238
961.18311	0.10118
959.12930	0.10024
957.07549	0.09922
955.02168	0.09811
952.96787	0.09725
950.91406	0.09673
948.86025	0.09638
946.80644	0.09597
944.75263	0.09536
942.69882	0.09482
940.64501	0.09460
938.59120	0.09452
936.53739	0.09433
934.48358	0.09388
932.42977	0.09328
930.37596	0.09299
928.32215	0.09322
926.26834	0.09366
924.21453	0.09398
922.16072	0.09425
920.10691	0.09467
918.05310	0.09523
915.99929	0.09589
913.94548	0.09650
911.89167	0.09704
909.83786	0.09768
907.78405	0.09848
905.73024	0.09956
903.67643	0.10120
901.62262	0.10306
899.56881	0.10453
897.51500	0.10535
895.46119	0.10563
893.40738	0.10563
891.35357	0.10559
889.29976	0.10563
887.24595	0.10569
885.19214	0.10562
883.13833	0.10551
881.08452	0.10560
879.03071	0.10580
876.97690	0.10561
874.92309	0.10492
872.86928	0.10423
870.81547	0.10372
868.76166	0.10318
866.70785	0.10253
864.65404	0.10171
862.60023	0.10059
860.54642	0.09949
858.49261	0.09889
856.43880	0.09860
854.38499	0.09810
852.33118	0.09735
850.27737	0.09676
848.22356	0.09677
846.16975	0.09765
844.11594	0.09980
842.06213	0.10223
840.00832	0.10239
837.95451	0.10028
835.90070	0.09831
833.84689	0.09725
831.79308	0.09647
829.73927	0.09570
827.68546	0.09509
825.63165	0.09497
823.57784	0.09533
821.52403	0.09553
819.47022	0.09539
817.41641	0.09556
815.36260	0.09639
813.30879	0.09779
811.25498	0.09928
809.20117	0.10027
807.14736	0.10068
805.09355	0.10081
803.03974	0.10095
800.98593	0.10128
798.93212	0.10154
796.87831	0.10147
794.82450	0.10116
792.77069	0.10095
790.71688	0.10103
788.66307	0.10122
786.60926	0.10127
784.55545	0.10110
782.50164	0.10089
780.44783	0.10115
778.39402	0.10201
776.34021	0.10275
774.28640	0.10273
772.23259	0.10241
770.17878	0.10232
768.12497	0.10243
766.07116	0.10275
764.01735	0.10320
761.96354	0.10356
759.90973	0.10384
757.85592	0.10405
755.80211	0.10408
753.74830	0.10413
751.69449	0.10440
749.64068	0.10469
747.58687	0.10492
745.53306	0.10534
743.47925	0.10615
741.42544	0.10713
739.37163	0.10776
737.31781	0.10782
735.26400	0.10782
733.21019	0.10828
731.15638	0.10899
729.10257	0.10966
727.04876	0.11011
724.99495	0.11029
722.94114	0.11046
720.88733	0.11082
718.83352	0.11122
716.77971	0.11142
714.72590	0.11136
712.67209	0.11137
710.61828	0.11173
708.56447	0.11254
706.51066	0.11359
704.45685	0.11420
702.40304	0.11409
700.34923	0.11398
698.29542	0.11460
696.24161	0.11542
694.18780	0.11565
692.13399	0.11544
690.08018	0.11538
688.02637	0.11599
685.97256	0.11709
683.91875	0.11781
681.86494	0.11792
679.81113	0.11777
677.75732	0.11784
675.70351	0.11846
673.64970	0.11937
671.59589	0.12000
669.54208	0.12005
667.48827	0.12014
665.43446	0.12080
663.38065	0.12160
661.32684	0.12238
659.27303	0.12282
657.21922	0.12272
655.16541	0.12258
653.11160	0.12302
651.05779	0.12404
649.00398	0.12485
646.95017	0.12486
644.89636	0.12473
642.84255	0.12549
640.78874	0.12722
638.73493	0.12904
636.68112	0.12993
634.62731	0.12964
632.57350	0.12914
630.51969	0.12949
628.46588	0.13066
626.41207	0.13217
624.35826	0.13349
622.30445	0.13444
620.25064	0.13539
618.19683	0.13654
616.14302	0.13772
614.08921	0.13883
612.03540	0.13987
609.98159	0.14111
607.92778	0.14307
605.87397	0.14567
603.82016	0.14792
601.76635	0.14928
599.71254	0.15059
597.65873	0.15257
595.60492	0.15504
593.55111	0.15732
591.49730	0.15914
589.44349	0.16076
587.38968	0.16227
585.33587	0.16341
583.28206	0.16391
581.22825	0.16380
579.17444	0.16334
577.12063	0.16236
575.06682	0.16066
573.01301	0.15963
570.95920	0.15996
568.90539	0.16003
566.85158	0.15863
564.79777	0.15664
562.74396	0.15533
560.69015	0.15504
558.63634	0.15507
556.58253	0.15465
554.52872	0.15420
552.47491	0.15403
550.42110	0.15420
548.36729	0.15527
546.31348	0.15644
544.25967	0.15636
542.20586	0.15530
540.15205	0.15421
538.09824	0.15458
536.04443	0.15657
533.99062	0.15765
531.93681	0.15677
529.88300	0.15562
527.82919	0.15535
525.77538	0.15601
523.72157	0.15690
521.66776	0.15696
519.61395	0.15614
517.56014	0.15557
515.50633	0.15583
513.45252	0.15610
511.39871	0.15584
509.34490	0.15520
507.29109	0.15464
505.23728	0.15496
503.18347	0.15589
501.12966	0.15635
499.07585	0.15600
497.02204	0.15478
494.96823	0.15384
492.91442	0.15488
490.86061	0.15697
488.80680	0.15820
486.75299	0.15863
484.69918	0.15869
482.64537	0.15898
480.59156	0.16058
478.53775	0.16261
476.48394	0.16358
474.43013	0.16367
472.37632	0.16324
470.32251	0.16261
468.26870	0.16295
466.21489	0.16401
464.16108	0.16458
462.10727	0.16480
460.05346	0.16538
457.99965	0.16644
455.94584	0.16754
453.89203	0.16799
451.83822	0.16704
449.78441	0.16560
447.73060	0.16566
445.67679	0.16770
443.62298	0.17032
441.56916	0.17003
439.51535	0.16634
437.46154	0.16278
435.40773	0.16190
433.35392	0.16407
431.30011	0.16671
429.24630	0.16663
427.19249	0.16390
425.13868	0.16092
423.08487	0.15890
421.03106	0.15784
418.97725	0.15748
416.92344	0.15749
414.86963	0.15807
412.81582	0.15983
410.76201	0.16207
408.70820	0.16200
406.65439	0.15875
404.60058	0.15500
402.54677	0.15325
400.49296	0.15431
398.43915	0.15959
