3996.70104	0.98420
3994.64724	0.98427
3992.59344	0.98396
3990.53964	0.98381
3988.48583	0.98395
3986.43203	0.98400
3984.37823	0.98400
3982.32442	0.98422
3980.27062	0.98433
3978.21682	0.98425
3976.16301	0.98410
3974.10921	0.98380
3972.05541	0.98366
3970.00160	0.98370
3967.94780	0.98387
3965.89400	0.98400
3963.84019	0.98375
3961.78639	0.98357
3959.73259	0.98399
3957.67878	0.98446
3955.62498	0.98412
3953.57118	0.98346
3951.51737	0.98329
3949.46357	0.98362
3947.40977	0.98380
3945.35596	0.98358
3943.30216	0.98364
3941.24836	0.98402
3939.19455	0.98417
3937.14075	0.98420
3935.08695	0.98441
3933.03315	0.98443
3930.97934	0.98367
3928.92554	0.98298
3926.87174	0.98335
3924.81793	0.98432
3922.76413	0.98486
3920.71033	0.98465
3918.65652	0.98395
3916.60272	0.98336
3914.54892	0.98345
3912.49511	0.98387
3910.44131	0.98397
3908.38751	0.98400
3906.33370	0.98419
3904.27990	0.98401
3902.22610	0.98342
3900.17229	0.98301
3898.11849	0.98309
3896.06469	0.98337
3894.01088	0.98362
3891.95708	0.98430
3889.90328	0.98495
3887.84947	0.98459
3885.79567	0.98391
3883.74187	0.98367
3881.68807	0.98373
3879.63426	0.98375
3877.58046	0.98336
3875.52666	0.98307
3873.47285	0.98338
3871.41905	0.98373
3869.36525	0.98394
3867.31144	0.98396
3865.25764	0.98358
3863.20384	0.98327
3861.15003	0.98370
3859.09623	0.98445
3857.04243	0.98456
3854.98862	0.98396
3852.93482	0.98370
3850.88102	0.98379
3848.82721	0.98369
3846.77341	0.98319
3844.71961	0.98208
3842.66580	0.98164
3840.61200	0.98290
3838.55820	0.98417
3836.50439	0.98423
3834.45059	0.98430
3832.39679	0.98444
3830.34298	0.98425
3828.28918	0.98392
3826.23538	0.98388
3824.18158	0.98375
3822.12777	0.98360
3820.07397	0.98454
3818.02017	0.98528
3815.96636	0.98513
3813.91256	0.98491
3811.85876	0.98479
3809.80495	0.98470
3807.75115	0.98467
3805.69735	0.98445
3803.64354	0.98368
3801.58974	0.98299
3799.53594	0.98340
3797.48213	0.98451
3795.42833	0.98511
3793.37453	0.98470
3791.32072	0.98414
3789.26692	0.98393
3787.21312	0.98390
3785.15931	0.98379
3783.10551	0.98312
3781.05171	0.98231
3778.99790	0.98278
3776.94410	0.98435
3774.89030	0.98522
3772.83650	0.98483
3770.78269	0.98402
3768.72889	0.98350
3766.67509	0.98348
3764.62128	0.98360
3762.56748	0.98337
3760.51368	0.98334
3758.45987	0.98381
3756.40607	0.98433
3754.35227	0.98523
3752.29846	0.98654
3750.24466	0.98704
3748.19086	0.98617
3746.13705	0.98514
3744.08325	0.98477
3742.02945	0.98474
3739.97564	0.98448
3737.92184	0.98434
3735.86804	0.98487
3733.81423	0.98556
3731.76043	0.98513
3729.70663	0.98455
3727.65282	0.98440
3725.59902	0.98415
3723.54522	0.98446
3721.49141	0.98554
3719.43761	0.98607
3717.38381	0.98593
3715.33001	0.98584
3713.27620	0.98584
3711.22240	0.98567
3709.16860	0.98533
3707.11479	0.98497
3705.06099	0.98446
3703.00719	0.98429
3700.95338	0.98478
3698.89958	0.98485
3696.84578	0.98418
3694.79197	0.98348
3692.73817	0.98335
3690.68437	0.98421
3688.63056	0.98552
3686.57676	0.98571
3684.52296	0.98478
3682.46915	0.98344
3680.41535	0.98242
3678.36155	0.98229
3676.30774	0.98212
3674.25394	0.98177
3672.20014	0.98271
3670.14633	0.98416
3668.09253	0.98473
3666.03873	0.98440
3663.98492	0.98399
3661.93112	0.98376
3659.87732	0.98365
3657.82352	0.98401
3655.76971	0.98435
3653.71591	0.98369
3651.66211	0.98270
3649.60830	0.98229
3647.55450	0.98272
3645.50070	0.98347
3643.44689	0.98398
3641.39309	0.98421
3639.33929	0.98428
3637.28548	0.98410
3635.23168	0.98370
3633.17788	0.98333
3631.12407	0.98281
3629.07027	0.98178
3627.01647	0.98123
3624.96266	0.98146
3622.90886	0.98145
3620.85506	0.98077
3618.80125	0.98026
3616.74745	0.98095
3614.69365	0.98176
3612.63984	0.98185
3610.58604	0.98158
3608.53224	0.98132
3606.47844	0.98162
3604.42463	0.98230
3602.37083	0.98227
3600.31703	0.98143
3598.26322	0.98091
3596.20942	0.98127
3594.15562	0.98223
3592.10181	0.98318
3590.04801	0.98379
3587.99421	0.98424
3585.94040	0.98438
3583.88660	0.98381
3581.83280	0.98254
3579.77899	0.98148
3577.72519	0.98176
3575.67139	0.98301
3573.61758	0.98372
3571.56378	0.98338
3569.50998	0.98303
3567.45617	0.98286
3565.40237	0.98193
3563.34857	0.98121
3561.29476	0.98167
3559.24096	0.98239
3557.18716	0.98266
3555.13335	0.98259
3553.07955	0.98215
3551.02575	0.98195
3548.97195	0.98234
3546.91814	0.98253
3544.86434	0.98204
3542.81054	0.98118
3540.75673	0.98087
3538.70293	0.98126
3536.64913	0.98118
3534.59532	0.98070
3532.54152	0.98049
3530.48772	0.98005
3528.43391	0.97969
3526.38011	0.97989
3524.32631	0.98011
3522.27250	0.98025
3520.21870	0.98026
3518.16490	0.98005
3516.11109	0.98005
3514.05729	0.98048
3512.00349	0.98086
3509.94968	0.98061
3507.89588	0.98009
3505.84208	0.97991
3503.78827	0.98019
3501.73447	0.98045
3499.68067	0.98028
3497.62687	0.98026
3495.57306	0.98046
3493.51926	0.98069
3491.46546	0.98117
3489.41165	0.98142
3487.35785	0.98099
3485.30405	0.98027
3483.25024	0.98007
3481.19644	0.98048
3479.14264	0.98086
3477.08883	0.98126
3475.03503	0.98157
3472.98123	0.98117
3470.92742	0.98053
3468.87362	0.98028
3466.81982	0.98030
3464.76601	0.98058
3462.71221	0.98078
3460.65841	0.98041
3458.60460	0.98009
3456.55080	0.98013
3454.49700	0.98001
3452.44319	0.98010
3450.38939	0.98046
3448.33559	0.98035
3446.28178	0.97998
3444.22798	0.97990
3442.17418	0.98000
3440.12038	0.98033
3438.06657	0.98035
3436.01277	0.97984
3433.95897	0.97970
3431.90516	0.97971
3429.85136	0.97941
3427.79756	0.97914
3425.74375	0.97904
3423.68995	0.97931
3421.63615	0.97983
3419.58234	0.97987
3417.52854	0.97962
3415.47474	0.97945
3413.42093	0.97902
3411.36713	0.97857
3409.31333	0.97841
3407.25952	0.97835
3405.20572	0.97854
3403.15192	0.97898
3401.09811	0.97928
3399.04431	0.97906
3396.99051	0.97884
3394.93670	0.97925
3392.88290	0.97975
3390.82910	0.98008
3388.77529	0.98031
3386.72149	0.98020
3384.66769	0.97980
3382.61389	0.97938
3380.56008	0.97950
3378.50628	0.98012
3376.45248	0.98034
3374.39867	0.98009
3372.34487	0.98003
3370.29107	0.98032
3368.23726	0.98062
3366.18346	0.98047
3364.12966	0.98011
3362.07585	0.98011
3360.02205	0.98007
3357.96825	0.97971
3355.91444	0.97935
3353.86064	0.97887
3351.80684	0.97850
3349.75303	0.97892
3347.69923	0.97994
3345.64543	0.98043
3343.59162	0.97980
3341.53782	0.97901
3339.48402	0.97887
3337.43021	0.97898
3335.37641	0.97925
3333.32261	0.97961
3331.26881	0.97962
3329.21500	0.97943
3327.16120	0.97963
3325.10740	0.97992
3323.05359	0.97986
3320.99979	0.98002
3318.94599	0.98046
3316.89218	0.98039
3314.83838	0.97961
3312.78458	0.97913
3310.73077	0.97953
3308.67697	0.98021
3306.62317	0.98068
3304.56936	0.98062
3302.51556	0.98018
3300.46176	0.98002
3298.40795	0.98027
3296.35415	0.98053
3294.30035	0.98070
3292.24654	0.98072
3290.19274	0.98044
3288.13894	0.98010
3286.08513	0.98030
3284.03133	0.98104
3281.97753	0.98133
3279.92372	0.98086
3277.86992	0.98032
3275.81612	0.97992
3273.76232	0.97967
3271.70851	0.97975
3269.65471	0.97983
3267.60091	0.97973
3265.54710	0.97971
3263.49330	0.98002
3261.43950	0.98072
3259.38569	0.98094
3257.33189	0.98044
3255.27809	0.98022
3253.22428	0.98052
3251.17048	0.98053
3249.11668	0.98021
3247.06287	0.98013
3245.00907	0.98036
3242.95527	0.98065
3240.90146	0.98042
3238.84766	0.98008
3236.79386	0.98032
3234.74005	0.98069
3232.68625	0.98089
3230.63245	0.98089
3228.57864	0.98046
3226.52484	0.97996
3224.47104	0.98012
3222.41724	0.98069
3220.36343	0.98080
3218.30963	0.98062
3216.25583	0.98062
3214.20202	0.98062
3212.14822	0.98070
3210.09442	0.98087
3208.04061	0.98085
3205.98681	0.98089
3203.93301	0.98111
3201.87920	0.98109
3199.82540	0.98092
3197.77160	0.98112
3195.71779	0.98139
3193.66399	0.98108
3191.61019	0.98028
3189.55638	0.98004
3187.50258	0.98058
3185.44878	0.98090
3183.39497	0.98070
3181.34117	0.98042
3179.28737	0.98051
3177.23356	0.98107
3175.17976	0.98139
3173.12596	0.98095
3171.07215	0.98066
3169.01835	0.98090
3166.96455	0.98119
3164.91075	0.98152
3162.85694	0.98140
3160.80314	0.98079
3158.74934	0.98035
3156.69553	0.98007
3154.64173	0.98017
3152.58793	0.98096
3150.53412	0.98200
3148.48032	0.98235
3146.42652	0.98176
3144.37271	0.98122
3142.31891	0.98096
3140.26511	0.98081
3138.21130	0.98121
3136.15750	0.98170
3134.10370	0.98162
3132.04989	0.98139
3129.99609	0.98141
3127.94229	0.98167
3125.88848	0.98205
3123.83468	0.98210
3121.78088	0.98171
3119.72707	0.98122
3117.67327	0.98090
3115.61947	0.98068
3113.56566	0.98065
3111.51186	0.98088
3109.45806	0.98109
3107.40426	0.98129
3105.35045	0.98122
3103.29665	0.98078
3101.24285	0.98057
3099.18904	0.98048
3097.13524	0.97989
3095.08144	0.97924
3093.02763	0.97912
3090.97383	0.97942
3088.92003	0.97960
3086.86622	0.97927
3084.81242	0.97898
3082.75862	0.97925
3080.70481	0.97954
3078.65101	0.97943
3076.59721	0.97920
3074.54340	0.97920
3072.48960	0.97936
3070.43580	0.97955
3068.38199	0.97968
3066.32819	0.97968
3064.27439	0.97948
3062.22058	0.97897
3060.16678	0.97835
3058.11298	0.97813
3056.05918	0.97842
3054.00537	0.97874
3051.95157	0.97896
3049.89777	0.97916
3047.84396	0.97938
3045.79016	0.97949
3043.73636	0.97900
3041.68255	0.97838
3039.62875	0.97828
3037.57495	0.97827
3035.52114	0.97823
3033.46734	0.97838
3031.41354	0.97850
3029.35973	0.97843
3027.30593	0.97837
3025.25213	0.97853
3023.19832	0.97888
3021.14452	0.97906
3019.09072	0.97886
3017.03691	0.97836
3014.98311	0.97791
3012.92931	0.97784
3010.87550	0.97791
3008.82170	0.97790
3006.76790	0.97809
3004.71409	0.97854
3002.66029	0.97887
3000.60649	0.97888
2998.55269	0.97854
2996.49888	0.97790
2994.44508	0.97753
2992.39128	0.97766
2990.33747	0.97758
2988.28367	0.97716
2986.22987	0.97686
2984.17606	0.97651
2982.12226	0.97618
2980.06846	0.97598
2978.01465	0.97559
2975.96085	0.97505
2973.90705	0.97469
2971.85324	0.97451
2969.79944	0.97416
2967.74564	0.97341
2965.69183	0.97254
2963.63803	0.97172
2961.58423	0.97114
2959.53042	0.97070
2957.47662	0.96946
2955.42282	0.96725
2953.36901	0.96468
2951.31521	0.96186
2949.26141	0.95864
2947.20761	0.95478
2945.15380	0.94991
2943.10000	0.94352
2941.04620	0.93531
2938.99239	0.92522
2936.93859	0.91322
2934.88479	0.89909
2932.83098	0.88248
2930.77718	0.86292
2928.72338	0.83932
2926.66957	0.81025
2924.61577	0.77437
2922.56197	0.73176
2920.50816	0.68539
2918.45436	0.64038
2916.40056	0.60377
2914.34675	0.58360
2912.29295	0.58378
2910.23915	0.60062
2908.18534	0.62600
2906.13154	0.65282
2904.07774	0.67718
2902.02393	0.69772
2899.97013	0.71494
2897.91633	0.72975
2895.86252	0.74296
2893.80872	0.75553
2891.75492	0.76825
2889.70112	0.78134
2887.64731	0.79471
2885.59351	0.80823
2883.53971	0.82190
2881.48590	0.83612
2879.43210	0.85135
2877.37830	0.86686
2875.32449	0.88112
2873.27069	0.89304
2871.21689	0.90174
2869.16308	0.90676
2867.10928	0.90829
2865.05548	0.90631
2863.00167	0.90003
2860.94787	0.88810
2858.89407	0.86841
2856.84026	0.83698
2854.78646	0.78897
2852.73266	0.72410
2850.67885	0.65381
2848.62505	0.60234
2846.57125	0.59139
2844.51744	0.62062
2842.46364	0.67103
2840.40984	0.72350
2838.35603	0.76824
2836.30223	0.80322
2834.24843	0.83011
2832.19463	0.85078
2830.14082	0.86670
2828.08702	0.87925
2826.03322	0.88924
2823.97941	0.89761
2821.92561	0.90491
2819.87181	0.91080
2817.81800	0.91556
2815.76420	0.91981
2813.71040	0.92353
2811.65659	0.92681
2809.60279	0.92986
2807.54899	0.93258
2805.49518	0.93497
2803.44138	0.93714
2801.38758	0.93924
2799.33377	0.94113
2797.27997	0.94267
2795.22617	0.94425
2793.17236	0.94591
2791.11856	0.94720
2789.06476	0.94841
2787.01095	0.95008
2784.95715	0.95180
2782.90335	0.95290
2780.84955	0.95370
2778.79574	0.95496
2776.74194	0.95626
2774.68814	0.95714
2772.63433	0.95792
2770.58053	0.95858
2768.52673	0.95928
2766.47292	0.96018
2764.41912	0.96100
2762.36532	0.96154
2760.31151	0.96199
2758.25771	0.96271
2756.20391	0.96351
2754.15010	0.96383
2752.09630	0.96380
2750.04250	0.96400
2747.98869	0.96438
2745.93489	0.96437
2743.88109	0.96403
2741.82728	0.96388
2739.77348	0.96401
2737.71968	0.96433
2735.66587	0.96467
2733.61207	0.96489
2731.55827	0.96519
2729.50446	0.96567
2727.45066	0.96613
2725.39686	0.96652
2723.34306	0.96698
2721.28925	0.96726
2719.23545	0.96730
2717.18165	0.96745
2715.12784	0.96779
2713.07404	0.96818
2711.02024	0.96828
2708.96643	0.96803
2706.91263	0.96778
2704.85883	0.96787
2702.80502	0.96831
2700.75122	0.96880
2698.69742	0.96911
2696.64361	0.96941
2694.58981	0.96970
2692.53601	0.97000
2690.48220	0.97033
2688.42840	0.97026
2686.37460	0.96993
2684.32079	0.96985
2682.26699	0.97004
2680.21319	0.97038
2678.15938	0.97055
2676.10558	0.97028
2674.05178	0.96976
2671.99797	0.96926
2669.94417	0.96911
2667.89037	0.96918
2665.83657	0.96884
2663.78276	0.96816
2661.72896	0.96777
2659.67516	0.96781
2657.62135	0.96792
2655.56755	0.96798
2653.51375	0.96806
2651.45994	0.96803
2649.40614	0.96800
2647.35234	0.96818
2645.29853	0.96839
2643.24473	0.96838
2641.19093	0.96808
2639.13712	0.96764
2637.08332	0.96736
2635.02952	0.96742
2632.97571	0.96778
2630.92191	0.96831
2628.86811	0.96891
2626.81430	0.96948
2624.76050	0.96987
2622.70670	0.97003
2620.65289	0.97019
2618.59909	0.97029
2616.54529	0.97029
2614.49149	0.97036
2612.43768	0.97047
2610.38388	0.97084
2608.33008	0.97143
2606.27627	0.97163
2604.22247	0.97160
2602.16867	0.97209
2600.11486	0.97306
2598.06106	0.97388
2596.00726	0.97416
2593.95345	0.97401
2591.89965	0.97390
2589.84585	0.97412
2587.79204	0.97408
2585.73824	0.97354
2583.68444	0.97349
2581.63063	0.97385
2579.57683	0.97380
2577.52303	0.97380
2575.46922	0.97405
2573.41542	0.97435
2571.36162	0.97485
2569.30781	0.97515
2567.25401	0.97521
2565.20021	0.97572
2563.14640	0.97644
2561.09260	0.97682
2559.03880	0.97680
2556.98500	0.97621
2554.93119	0.97559
2552.87739	0.97576
2550.82359	0.97613
2548.76978	0.97574
2546.71598	0.97539
2544.66218	0.97570
2542.60837	0.97585
2540.55457	0.97606
2538.50077	0.97675
2536.44696	0.97703
2534.39316	0.97678
2532.33936	0.97647
2530.28555	0.97611
2528.23175	0.97562
2526.17795	0.97540
2524.12414	0.97593
2522.07034	0.97655
2520.01654	0.97676
2517.96273	0.97730
2515.90893	0.97781
2513.85513	0.97739
2511.80132	0.97701
2509.74752	0.97758
2507.69372	0.97821
2505.63992	0.97819
2503.58611	0.97773
2501.53231	0.97707
2499.47851	0.97697
2497.42470	0.97745
2495.37090	0.97779
2493.31710	0.97821
2491.26329	0.97825
2489.20949	0.97751
2487.15569	0.97677
2485.10188	0.97636
2483.04808	0.97632
2480.99428	0.97695
2478.94047	0.97767
2476.88667	0.97777
2474.83287	0.97764
2472.77906	0.97769
2470.72526	0.97786
2468.67146	0.97793
2466.61765	0.97779
2464.56385	0.97746
2462.51005	0.97754
2460.45624	0.97834
2458.40244	0.97873
2456.34864	0.97857
2454.29483	0.97870
2452.24103	0.97891
2450.18723	0.97899
2448.13343	0.97895
2446.07962	0.97855
2444.02582	0.97784
2441.97202	0.97742
2439.91821	0.97756
2437.86441	0.97792
2435.81061	0.97817
2433.75680	0.97849
2431.70300	0.97901
2429.64920	0.97939
2427.59539	0.97944
2425.54159	0.97913
2423.48779	0.97846
2421.43398	0.97793
2419.38018	0.97812
2417.32638	0.97854
2415.27257	0.97831
2413.21877	0.97790
2411.16497	0.97785
2409.11116	0.97766
2407.05736	0.97752
2405.00356	0.97776
2402.94975	0.97808
2400.89595	0.97834
2398.84215	0.97858
2396.78834	0.97884
2394.73454	0.97915
2392.68074	0.97917
2390.62694	0.97900
2388.57313	0.97892
2386.51933	0.97884
2384.46553	0.97876
2382.41172	0.97849
2380.35792	0.97786
2378.30412	0.97749
2376.25031	0.97790
2374.19651	0.97829
2372.14271	0.97826
2370.08890	0.97862
2368.03510	0.97871
2365.98130	0.97823
2363.92749	0.97808
2361.87369	0.97804
2359.81989	0.97785
2357.76608	0.97726
2355.71228	0.97628
2353.65848	0.97604
2351.60467	0.97658
2349.55087	0.97668
2347.49707	0.97596
2345.44326	0.97493
2343.38946	0.97438
2341.33566	0.97473
2339.28186	0.97513
2337.22805	0.97510
2335.17425	0.97542
2333.12045	0.97554
2331.06664	0.97481
2329.01284	0.97450
2326.95904	0.97515
2324.90523	0.97553
2322.85143	0.97505
2320.79763	0.97468
2318.74382	0.97485
2316.69002	0.97521
2314.63622	0.97565
2312.58241	0.97619
2310.52861	0.97657
2308.47481	0.97690
2306.42100	0.97704
2304.36720	0.97660
2302.31340	0.97639
2300.25959	0.97666
2298.20579	0.97687
2296.15199	0.97713
2294.09818	0.97734
2292.04438	0.97710
2289.99058	0.97687
2287.93677	0.97697
2285.88297	0.97680
2283.82917	0.97645
2281.77537	0.97643
2279.72156	0.97671
2277.66776	0.97701
2275.61396	0.97696
2273.56015	0.97611
2271.50635	0.97575
2269.45255	0.97700
2267.39874	0.97807
2265.34494	0.97781
2263.29114	0.97722
2261.23733	0.97738
2259.18353	0.97814
2257.12973	0.97896
2255.07592	0.97992
2253.02212	0.98009
2250.96832	0.97919
2248.91451	0.97925
2246.86071	0.98030
2244.80691	0.98033
2242.75310	0.97935
2240.69930	0.97822
2238.64550	0.97708
2236.59169	0.97706
2234.53789	0.97839
2232.48409	0.97868
2230.43029	0.97764
2228.37648	0.97742
2226.32268	0.97772
2224.26888	0.97713
2222.21507	0.97663
2220.16127	0.97785
2218.10747	0.97984
2216.05366	0.98058
2213.99986	0.98054
2211.94606	0.98109
2209.89225	0.98093
2207.83845	0.97952
2205.78465	0.97933
2203.73084	0.98123
2201.67704	0.98311
2199.62324	0.98335
2197.56943	0.98267
2195.51563	0.98184
2193.46183	0.98097
2191.40802	0.98079
2189.35422	0.98152
2187.30042	0.98166
2185.24661	0.98090
2183.19281	0.98145
2181.13901	0.98310
2179.08520	0.98350
2177.03140	0.98344
2174.97760	0.98413
2172.92380	0.98439
2170.86999	0.98307
2168.81619	0.98097
2166.76239	0.97993
2164.70858	0.98018
2162.65478	0.98066
2160.60098	0.98063
2158.54717	0.98028
2156.49337	0.98112
2154.43957	0.98254
2152.38576	0.98330
2150.33196	0.98433
2148.27816	0.98429
2146.22435	0.98275
2144.17055	0.98290
2142.11675	0.98387
2140.06294	0.98349
2138.00914	0.98312
2135.95534	0.98357
2133.90153	0.98362
2131.84773	0.98254
2129.79393	0.98171
2127.74012	0.98172
2125.68632	0.98184
2123.63252	0.98158
2121.57871	0.98042
2119.52491	0.97874
2117.47111	0.97776
2115.41731	0.97801
2113.36350	0.97887
2111.30970	0.97990
2109.25590	0.98044
2107.20209	0.97916
2105.14829	0.97808
2103.09449	0.97897
2101.04068	0.97945
2098.98688	0.97896
2096.93308	0.97876
2094.87927	0.97865
2092.82547	0.97829
2090.77167	0.97841
2088.71786	0.97915
2086.66406	0.97921
2084.61026	0.97841
2082.55645	0.97818
2080.50265	0.97831
2078.44885	0.97819
2076.39504	0.97932
2074.34124	0.98113
2072.28744	0.98127
2070.23363	0.97964
2068.17983	0.97773
2066.12603	0.97735
2064.07223	0.97834
2062.01842	0.97916
2059.96462	0.97913
2057.91082	0.97841
2055.85701	0.97784
2053.80321	0.97791
2051.74941	0.97797
2049.69560	0.97815
2047.64180	0.97934
2045.58800	0.98080
2043.53419	0.98179
2041.48039	0.98205
2039.42659	0.98103
2037.37278	0.98082
2035.31898	0.98256
2033.26518	0.98321
2031.21137	0.98226
2029.15757	0.98135
2027.10377	0.97916
2025.04996	0.97645
2022.99616	0.97666
2020.94236	0.97851
2018.88855	0.97914
2016.83475	0.97894
2014.78095	0.97704
2012.72714	0.97544
2010.67334	0.97909
2008.61954	0.98435
2006.56574	0.98493
2004.51193	0.98206
2002.45813	0.97912
2000.40433	0.97756
1998.35052	0.97717
1996.29672	0.97707
1994.24292	0.97803
1992.18911	0.98042
1990.13531	0.98178
1988.08151	0.98125
1986.02770	0.98012
1983.97390	0.97883
1981.92010	0.97736
1979.86629	0.97658
1977.81249	0.97755
1975.75869	0.97839
1973.70488	0.97764
1971.65108	0.97794
1969.59728	0.97975
1967.54347	0.98103
1965.48967	0.98102
1963.43587	0.97961
1961.38206	0.97854
1959.32826	0.97967
1957.27446	0.98129
1955.22066	0.98172
1953.16685	0.98146
1951.11305	0.98096
1949.05925	0.98016
1947.00544	0.97913
1944.95164	0.97910
1942.89784	0.97983
1940.84403	0.97890
1938.79023	0.97765
1936.73643	0.97787
1934.68262	0.97843
1932.62882	0.97882
1930.57502	0.97944
1928.52121	0.98015
1926.46741	0.98024
1924.41361	0.97972
1922.35980	0.97907
1920.30600	0.97861
1918.25220	0.97819
1916.19839	0.97818
1914.14459	0.97912
1912.09079	0.98046
1910.03698	0.98094
1907.98318	0.97979
1905.92938	0.97796
1903.87557	0.97689
1901.82177	0.97706
1899.76797	0.97762
1897.71417	0.97758
1895.66036	0.97724
1893.60656	0.97760
1891.55276	0.97820
1889.49895	0.97792
1887.44515	0.97731
1885.39135	0.97735
1883.33754	0.97794
1881.28374	0.97887
1879.22994	0.97972
1877.17613	0.97952
1875.12233	0.97857
1873.06853	0.97802
1871.01472	0.97718
1868.96092	0.97619
1866.90712	0.97714
1864.85331	0.97850
1862.79951	0.97855
1860.74571	0.97819
1858.69190	0.97813
1856.63810	0.97826
1854.58430	0.97825
1852.53049	0.97855
1850.47669	0.97966
1848.42289	0.98053
1846.36908	0.98062
1844.31528	0.97996
1842.26148	0.97839
1840.20768	0.97731
1838.15387	0.97731
1836.10007	0.97762
1834.04627	0.97776
1831.99246	0.97794
1829.93866	0.97835
1827.88486	0.97859
1825.83105	0.97838
1823.77725	0.97803
1821.72345	0.97819
1819.66964	0.97852
1817.61584	0.97817
1815.56204	0.97743
1813.50823	0.97689
1811.45443	0.97668
1809.40063	0.97667
1807.34682	0.97648
1805.29302	0.97625
1803.23922	0.97610
1801.18541	0.97593
1799.13161	0.97560
1797.07781	0.97524
1795.02400	0.97519
1792.97020	0.97523
1790.91640	0.97513
1788.86260	0.97489
1786.80879	0.97449
1784.75499	0.97423
1782.70119	0.97403
1780.64738	0.97353
1778.59358	0.97297
1776.53978	0.97282
1774.48597	0.97302
1772.43217	0.97296
1770.37837	0.97273
1768.32456	0.97265
1766.27076	0.97243
1764.21696	0.97236
1762.16315	0.97244
1760.10935	0.97202
1758.05555	0.97158
1756.00174	0.97163
1753.94794	0.97174
1751.89414	0.97131
1749.84033	0.97025
1747.78653	0.96924
1745.73273	0.96846
1743.67892	0.96763
1741.62512	0.96692
1739.57132	0.96663
1737.51751	0.96675
1735.46371	0.96705
1733.40991	0.96681
1731.35611	0.96574
1729.30230	0.96470
1727.24850	0.96373
1725.19470	0.96264
1723.14089	0.96142
1721.08709	0.96010
1719.03329	0.95866
1716.97948	0.95713
1714.92568	0.95610
1712.87188	0.95595
1710.81807	0.95651
1708.76427	0.95735
1706.71047	0.95836
1704.65666	0.95969
1702.60286	0.96103
1700.54906	0.96231
1698.49525	0.96332
1696.44145	0.96445
1694.38765	0.96582
1692.33384	0.96652
1690.28004	0.96687
1688.22624	0.96751
1686.17243	0.96871
1684.11863	0.96975
1682.06483	0.96940
1680.01103	0.96934
1677.95722	0.97000
1675.90342	0.97046
1673.84962	0.97033
1671.79581	0.97000
1669.74201	0.96963
1667.68821	0.96948
1665.63440	0.96971
1663.58060	0.97007
1661.52680	0.97011
1659.47299	0.96984
1657.41919	0.96948
1655.36539	0.96908
1653.31158	0.96919
1651.25778	0.96944
1649.20398	0.96903
1647.15017	0.96844
1645.09637	0.96822
1643.04257	0.96829
1640.98876	0.96832
1638.93496	0.96824
1636.88116	0.96814
1634.82735	0.96799
1632.77355	0.96771
1630.71975	0.96740
1628.66594	0.96707
1626.61214	0.96695
1624.55834	0.96696
1622.50454	0.96689
1620.45073	0.96678
1618.39693	0.96669
1616.34313	0.96684
1614.28932	0.96709
1612.23552	0.96716
1610.18172	0.96727
1608.12791	0.96734
1606.07411	0.96721
1604.02031	0.96714
1601.96650	0.96719
1599.91270	0.96716
1597.85890	0.96694
1595.80509	0.96661
1593.75129	0.96635
1591.69749	0.96659
1589.64368	0.96726
1587.58988	0.96774
1585.53608	0.96783
1583.48227	0.96799
1581.42847	0.96849
1579.37467	0.96891
1577.32086	0.96918
1575.26706	0.96938
1573.21326	0.96947
1571.15945	0.96967
1569.10565	0.96994
1567.05185	0.96994
1564.99805	0.96990
1562.94424	0.97030
1560.89044	0.97150
1558.83664	0.97291
1556.78283	0.97230
1554.72903	0.97143
1552.67523	0.97098
1550.62142	0.97061
1548.56762	0.97045
1546.51382	0.97083
1544.46001	0.97155
1542.40621	0.97207
1540.35241	0.97223
1538.29860	0.97180
1536.24480	0.97121
1534.19100	0.97088
1532.13719	0.97088
1530.08339	0.97094
1528.02959	0.97095
1525.97578	0.97088
1523.92198	0.97091
1521.86818	0.97112
1519.81437	0.97143
1517.76057	0.97167
1515.70677	0.97171
1513.65297	0.97141
1511.59916	0.97093
1509.54536	0.97056
1507.49156	0.97049
1505.43775	0.97073
1503.38395	0.97062
1501.33015	0.97026
1499.27634	0.96979
1497.22254	0.96930
1495.16874	0.96860
1493.11493	0.96785
1491.06113	0.96714
1489.00733	0.96650
1486.95352	0.96576
1484.89972	0.96445
1482.84592	0.96188
1480.79211	0.95615
1478.73831	0.94229
1476.68451	0.90656
1474.63070	0.83861
1472.57690	0.77523
1470.52310	0.77975
1468.46929	0.81963
1466.41549	0.84551
1464.36169	0.84030
1462.30788	0.83166
1460.25408	0.84966
1458.20028	0.88928
1456.14648	0.92422
1454.09267	0.93728
1452.03887	0.94296
1449.98507	0.94681
1447.93126	0.94930
1445.87746	0.95104
1443.82366	0.95211
1441.76985	0.95272
1439.71605	0.95336
1437.66225	0.95420
1435.60844	0.95515
1433.55464	0.95588
1431.50084	0.95672
1429.44703	0.95772
1427.39323	0.95860
1425.33943	0.95924
1423.28562	0.95973
1421.23182	0.95998
1419.17802	0.96012
1417.12421	0.96040
1415.07041	0.96052
1413.01661	0.96021
1410.96280	0.95980
1408.90900	0.95982
1406.85520	0.96038
1404.80139	0.96145
1402.74759	0.96242
1400.69379	0.96281
1398.63999	0.96299
1396.58618	0.96332
1394.53238	0.96348
1392.47858	0.96340
1390.42477	0.96333
1388.37097	0.96334
1386.31717	0.96342
1384.26336	0.96341
1382.20956	0.96308
1380.15576	0.96242
1378.10195	0.96176
1376.04815	0.96124
1373.99435	0.96082
1371.94054	0.96024
1369.88674	0.95961
1367.83294	0.95950
1365.77913	0.95991
1363.72533	0.96055
1361.67153	0.96143
1359.61772	0.96203
1357.56392	0.96207
1355.51012	0.96199
1353.45631	0.96202
1351.40251	0.96205
1349.34871	0.96198
1347.29491	0.96205
1345.24110	0.96237
1343.18730	0.96275
1341.13350	0.96317
1339.07969	0.96356
1337.02589	0.96350
1334.97209	0.96314
1332.91828	0.96313
1330.86448	0.96340
1328.81068	0.96351
1326.75687	0.96334
1324.70307	0.96313
1322.64927	0.96299
1320.59546	0.96286
1318.54166	0.96272
1316.48786	0.96251
1314.43405	0.96222
1312.38025	0.96197
1310.32645	0.96183
1308.27264	0.96164
1306.21884	0.96126
1304.16504	0.96083
1302.11123	0.96054
1300.05743	0.96046
1298.00363	0.96043
1295.94982	0.96021
1293.89602	0.96002
1291.84222	0.96004
1289.78842	0.96016
1287.73461	0.96008
1285.68081	0.95986
1283.62701	0.95986
1281.57320	0.96004
1279.51940	0.96012
1277.46560	0.96004
1275.41179	0.95995
1273.35799	0.95989
1271.30419	0.95979
1269.25038	0.95955
1267.19658	0.95944
1265.14278	0.95964
1263.08897	0.95998
1261.03517	0.96019
1258.98137	0.96006
1256.92756	0.95968
1254.87376	0.95932
1252.81996	0.95921
1250.76615	0.95916
1248.71235	0.95903
1246.65855	0.95902
1244.60474	0.95907
1242.55094	0.95917
1240.49714	0.95909
1238.44334	0.95857
1236.38953	0.95808
1234.33573	0.95797
1232.28193	0.95790
1230.22812	0.95775
1228.17432	0.95750
1226.12052	0.95729
1224.06671	0.95719
1222.01291	0.95696
1219.95911	0.95649
1217.90530	0.95590
1215.85150	0.95563
1213.79770	0.95563
1211.74389	0.95543
1209.69009	0.95497
1207.63629	0.95436
1205.58248	0.95379
1203.52868	0.95340
1201.47488	0.95290
1199.42107	0.95216
1197.36727	0.95141
1195.31347	0.95084
1193.25966	0.95028
1191.20586	0.94966
1189.15206	0.94915
1187.09825	0.94841
1185.04445	0.94723
1182.99065	0.94599
1180.93685	0.94500
1178.88304	0.94412
1176.82924	0.94306
1174.77544	0.94226
1172.72163	0.94208
1170.66783	0.94190
1168.61403	0.94124
1166.56022	0.94030
1164.50642	0.93951
1162.45262	0.93925
1160.39881	0.93948
1158.34501	0.93984
1156.29121	0.94004
1154.23740	0.94003
1152.18360	0.94001
1150.12980	0.94015
1148.07599	0.94022
1146.02219	0.93986
1143.96839	0.93906
1141.91458	0.93817
1139.86078	0.93750
1137.80698	0.93731
1135.75317	0.93755
1133.69937	0.93754
1131.64557	0.93682
1129.59176	0.93587
1127.53796	0.93527
1125.48416	0.93487
1123.43036	0.93430
1121.37655	0.93356
1119.32275	0.93312
1117.26895	0.93320
1115.21514	0.93334
1113.16134	0.93332
1111.10754	0.93315
1109.05373	0.93272
1106.99993	0.93209
1104.94613	0.93135
1102.89232	0.93092
1100.83852	0.93095
1098.78472	0.93094
1096.73091	0.93052
1094.67711	0.92992
1092.62331	0.92956
1090.56950	0.92933
1088.51570	0.92911
1086.46190	0.92908
1084.40809	0.92936
1082.35429	0.93017
1080.30049	0.93119
1078.24668	0.93169
1076.19288	0.93192
1074.13908	0.93237
1072.08528	0.93270
1070.03147	0.93263
1067.97767	0.93233
1065.92387	0.93204
1063.87006	0.93192
1061.81626	0.93184
1059.76246	0.93142
1057.70865	0.93089
1055.65485	0.93056
1053.60105	0.93031
1051.54724	0.93023
1049.49344	0.93019
1047.43964	0.93001
1045.38583	0.92991
1043.33203	0.92984
1041.27823	0.92979
1039.22442	0.92974
1037.17062	0.92959
1035.11682	0.92945
1033.06301	0.92952
1031.00921	0.92970
1028.95541	0.92984
1026.90160	0.93004
1024.84780	0.93051
1022.79400	0.93126
1020.74019	0.93170
1018.68639	0.93159
1016.63259	0.93156
1014.57879	0.93187
1012.52498	0.93203
1010.47118	0.93188
1008.41738	0.93179
1006.36357	0.93184
1004.30977	0.93185
1002.25597	0.93188
1000.20216	0.93208
998.14836	0.93245
996.09456	0.93285
994.04075	0.93305
991.98695	0.93310
989.93315	0.93348
987.87934	0.93443
985.82554	0.93565
983.77174	0.93684
981.71793	0.93780
979.66413	0.93864
977.61033	0.93948
975.55652	0.94001
973.50272	0.93997
971.44892	0.94003
969.39511	0.94094
967.34131	0.94225
965.28751	0.94307
963.23371	0.94355
961.17990	0.94418
959.12610	0.94484
957.07230	0.94546
955.01849	0.94619
952.96469	0.94681
950.91089	0.94729
948.85708	0.94801
946.80328	0.94848
944.74948	0.94832
942.69567	0.94830
940.64187	0.94884
938.58807	0.94927
936.53426	0.94925
934.48046	0.94950
932.42666	0.95003
930.37285	0.95020
928.31905	0.95038
926.26525	0.95102
924.21144	0.95171
922.15764	0.95222
920.10384	0.95238
918.05003	0.95205
915.99623	0.95177
913.94243	0.95135
911.88862	0.95005
909.83482	0.94839
907.78102	0.94795
905.72722	0.94961
903.67341	0.95200
901.61961	0.95332
899.56581	0.95387
897.51200	0.95475
895.45820	0.95585
893.40440	0.95622
891.35059	0.95575
889.29679	0.95571
887.24299	0.95647
885.18918	0.95700
883.13538	0.95695
881.08158	0.95702
879.02777	0.95733
876.97397	0.95716
874.92017	0.95699
872.86636	0.95745
870.81256	0.95783
868.75876	0.95770
866.70495	0.95771
864.65115	0.95804
862.59735	0.95819
860.54354	0.95828
858.48974	0.95881
856.43594	0.95942
854.38213	0.95899
852.32833	0.95816
850.27453	0.95860
848.22073	0.95993
846.16692	0.96106
844.11312	0.96160
842.05932	0.96103
840.00551	0.95978
837.95171	0.95946
835.89791	0.96003
833.84410	0.96028
831.79030	0.95970
829.73650	0.95878
827.68269	0.95869
825.62889	0.95920
823.57509	0.95940
821.52128	0.95949
819.46748	0.95992
817.41368	0.96038
815.35987	0.96061
813.30607	0.96064
811.25227	0.96007
809.19846	0.95888
807.14466	0.95738
805.09086	0.95581
803.03705	0.95455
800.98325	0.95339
798.92945	0.95253
796.87565	0.95189
794.82184	0.95128
792.76804	0.95175
790.71424	0.95297
788.66043	0.95355
786.60663	0.95383
784.55283	0.95403
782.49902	0.95357
780.44522	0.95276
778.39142	0.95217
776.33761	0.95229
774.28381	0.95316
772.23001	0.95420
770.17620	0.95493
768.12240	0.95510
766.06860	0.95460
764.01479	0.95426
761.96099	0.95473
759.90719	0.95521
757.85338	0.95518
755.79958	0.95499
753.74578	0.95488
751.69197	0.95486
749.63817	0.95513
747.58437	0.95558
745.53056	0.95575
743.47676	0.95512
741.42296	0.95319
739.36916	0.95027
737.31535	0.94468
735.26155	0.92739
733.20775	0.89057
731.15394	0.85489
729.10014	0.85350
727.04634	0.87675
724.99253	0.88768
722.93873	0.86645
720.88493	0.81441
718.83112	0.76111
716.77732	0.74653
714.72352	0.77975
712.66971	0.83481
710.61591	0.87958
708.56211	0.90514
706.50830	0.91928
704.45450	0.92762
702.40070	0.93201
700.34689	0.93442
698.29309	0.93631
696.23929	0.93785
694.18548	0.93925
692.13168	0.94053
690.07788	0.94131
688.02408	0.94208
685.97027	0.94340
683.91647	0.94478
681.86267	0.94586
679.80886	0.94692
677.75506	0.94802
675.70126	0.94851
673.64745	0.94788
671.59365	0.94683
669.53985	0.94686
667.48604	0.94820
665.43224	0.94843
663.37844	0.94808
661.32463	0.94816
659.27083	0.94847
657.21703	0.94871
655.16322	0.94864
653.10942	0.94794
651.05562	0.94646
649.00181	0.94502
646.94801	0.94433
644.89421	0.94416
642.84040	0.94452
640.78660	0.94556
638.73280	0.94747
636.67899	0.94908
634.62519	0.94858
632.57139	0.94719
630.51759	0.94644
628.46378	0.94619
626.40998	0.94642
624.35618	0.94686
622.30237	0.94685
620.24857	0.94622
618.19477	0.94549
616.14096	0.94506
614.08716	0.94447
612.03336	0.94422
609.97955	0.94549
607.92575	0.94663
605.87195	0.94559
603.81814	0.94341
601.76434	0.94181
599.71054	0.94101
597.65673	0.94036
595.60293	0.93969
593.54913	0.93977
591.49532	0.94149
589.44152	0.94323
587.38772	0.94283
585.33391	0.94126
583.28011	0.94035
581.22631	0.94023
579.17250	0.94002
577.11870	0.93996
575.06490	0.94066
573.01110	0.94211
570.95729	0.94433
568.90349	0.94576
566.84969	0.94512
564.79588	0.94446
562.74208	0.94402
560.68828	0.94232
558.63447	0.94093
556.58067	0.94064
554.52687	0.94082
552.47306	0.94228
550.41926	0.94381
548.36546	0.94283
546.31165	0.94076
544.25785	0.93953
542.20405	0.93791
540.15024	0.93629
538.09644	0.93580
536.04264	0.93549
533.98883	0.93565
531.93503	0.93677
529.88123	0.93763
527.82742	0.93799
525.77362	0.93845
523.71982	0.93931
521.66602	0.94008
519.61221	0.94020
517.55841	0.93998
515.50461	0.93969
513.45080	0.93834
511.39700	0.93608
509.34320	0.93639
507.28939	0.93986
505.23559	0.94178
503.18179	0.94118
501.12798	0.94063
499.07418	0.94044
497.02038	0.93995
494.96657	0.93900
492.91277	0.93752
490.85897	0.93636
488.80516	0.93613
486.75136	0.93531
484.69756	0.93381
482.64375	0.93333
480.58995	0.93309
478.53615	0.93120
476.48234	0.92822
474.42854	0.92636
472.37474	0.92567
470.32093	0.92514
468.26713	0.92500
466.21333	0.92387
464.15953	0.92066
462.10572	0.91875
460.05192	0.92059
457.99812	0.92306
455.94431	0.92300
453.89051	0.92242
451.83671	0.92368
449.78290	0.92700
447.72910	0.93154
445.67530	0.93463
443.62149	0.93386
441.56769	0.93206
439.51389	0.93263
437.46008	0.93287
435.40628	0.92951
433.35248	0.92647
431.29867	0.92825
429.24487	0.93200
427.19107	0.93402
425.13726	0.93302
423.08346	0.92903
421.02966	0.92575
418.97585	0.92486
416.92205	0.92818
414.86825	0.93315
412.81445	0.93372
410.76064	0.93475
408.70684	0.94080
406.65304	0.94155
404.59923	0.93517
402.54543	0.93051
400.49163	0.92702
398.43782	0.92322
