3996.70104	0.99618
3994.64724	0.99623
3992.59344	0.99603
3990.53964	0.99570
3988.48583	0.99555
3986.43203	0.99541
3984.37823	0.99575
3982.32442	0.99659
3980.27062	0.99674
3978.21682	0.99613
3976.16301	0.99546
3974.10921	0.99511
3972.05541	0.99492
3970.00160	0.99468
3967.94780	0.99471
3965.89400	0.99543
3963.84019	0.99650
3961.78639	0.99693
3959.73259	0.99641
3957.67878	0.99573
3955.62498	0.99538
3953.57118	0.99542
3951.51737	0.99585
3949.46357	0.99628
3947.40977	0.99617
3945.35596	0.99547
3943.30216	0.99486
3941.24836	0.99477
3939.19455	0.99480
3937.14075	0.99497
3935.08695	0.99540
3933.03315	0.99570
3930.97934	0.99533
3928.92554	0.99477
3926.87174	0.99505
3924.81793	0.99587
3922.76413	0.99609
3920.71033	0.99552
3918.65652	0.99500
3916.60272	0.99514
3914.54892	0.99569
3912.49511	0.99620
3910.44131	0.99649
3908.38751	0.99653
3906.33370	0.99652
3904.27990	0.99636
3902.22610	0.99561
3900.17229	0.99503
3898.11849	0.99546
3896.06469	0.99607
3894.01088	0.99623
3891.95708	0.99618
3889.90328	0.99608
3887.84947	0.99606
3885.79567	0.99604
3883.74187	0.99579
3881.68807	0.99571
3879.63426	0.99579
3877.58046	0.99586
3875.52666	0.99628
3873.47285	0.99688
3871.41905	0.99740
3869.36525	0.99761
3867.31144	0.99696
3865.25764	0.99599
3863.20384	0.99567
3861.15003	0.99594
3859.09623	0.99608
3857.04243	0.99600
3854.98862	0.99567
3852.93482	0.99615
3850.88102	0.99729
3848.82721	0.99713
3846.77341	0.99650
3844.71961	0.99655
3842.66580	0.99686
3840.61200	0.99699
3838.55820	0.99734
3836.50439	0.99719
3834.45059	0.99661
3832.39679	0.99636
3830.34298	0.99623
3828.28918	0.99628
3826.23538	0.99655
3824.18158	0.99664
3822.12777	0.99670
3820.07397	0.99699
3818.02017	0.99702
3815.96636	0.99688
3813.91256	0.99684
3811.85876	0.99680
3809.80495	0.99662
3807.75115	0.99657
3805.69735	0.99693
3803.64354	0.99722
3801.58974	0.99745
3799.53594	0.99771
3797.48213	0.99765
3795.42833	0.99691
3793.37453	0.99605
3791.32072	0.99595
3789.26692	0.99633
3787.21312	0.99639
3785.15931	0.99593
3783.10551	0.99585
3781.05171	0.99647
3778.99790	0.99681
3776.94410	0.99667
3774.89030	0.99658
3772.83650	0.99642
3770.78269	0.99641
3768.72889	0.99663
3766.67509	0.99686
3764.62128	0.99685
3762.56748	0.99634
3760.51368	0.99619
3758.45987	0.99679
3756.40607	0.99706
3754.35227	0.99709
3752.29846	0.99772
3750.24466	0.99881
3748.19086	0.99897
3746.13705	0.99802
3744.08325	0.99681
3742.02945	0.99698
3739.97564	0.99780
3737.92184	0.99789
3735.86804	0.99731
3733.81423	0.99730
3731.76043	0.99760
3729.70663	0.99748
3727.65282	0.99723
3725.59902	0.99713
3723.54522	0.99735
3721.49141	0.99785
3719.43761	0.99803
3717.38381	0.99794
3715.33001	0.99768
3713.27620	0.99704
3711.22240	0.99664
3709.16860	0.99684
3707.11479	0.99678
3705.06099	0.99643
3703.00719	0.99623
3700.95338	0.99596
3698.89958	0.99520
3696.84578	0.99491
3694.79197	0.99561
3692.73817	0.99637
3690.68437	0.99667
3688.63056	0.99623
3686.57676	0.99540
3684.52296	0.99519
3682.46915	0.99564
3680.41535	0.99622
3678.36155	0.99636
3676.30774	0.99635
3674.25394	0.99724
3672.20014	0.99788
3670.14633	0.99682
3668.09253	0.99514
3666.03873	0.99508
3663.98492	0.99577
3661.93112	0.99561
3659.87732	0.99466
3657.82352	0.99424
3655.76971	0.99436
3653.71591	0.99416
3651.66211	0.99406
3649.60830	0.99434
3647.55450	0.99424
3645.50070	0.99417
3643.44689	0.99453
3641.39309	0.99465
3639.33929	0.99416
3637.28548	0.99415
3635.23168	0.99514
3633.17788	0.99570
3631.12407	0.99502
3629.07027	0.99394
3627.01647	0.99382
3624.96266	0.99402
3622.90886	0.99408
3620.85506	0.99436
3618.80125	0.99422
3616.74745	0.99354
3614.69365	0.99350
3612.63984	0.99401
3610.58604	0.99424
3608.53224	0.99403
3606.47844	0.99348
3604.42463	0.99287
3602.37083	0.99260
3600.31703	0.99293
3598.26322	0.99385
3596.20942	0.99465
3594.15562	0.99424
3592.10181	0.99291
3590.04801	0.99195
3587.99421	0.99211
3585.94040	0.99302
3583.88660	0.99318
3581.83280	0.99264
3579.77899	0.99206
3577.72519	0.99159
3575.67139	0.99130
3573.61758	0.99119
3571.56378	0.99077
3569.50998	0.99016
3567.45617	0.99015
3565.40237	0.99073
3563.34857	0.99115
3561.29476	0.99094
3559.24096	0.99008
3557.18716	0.98928
3555.13335	0.98894
3553.07955	0.98908
3551.02575	0.98918
3548.97195	0.98886
3546.91814	0.98911
3544.86434	0.98988
3542.81054	0.98978
3540.75673	0.98935
3538.70293	0.98914
3536.64913	0.98875
3534.59532	0.98830
3532.54152	0.98818
3530.48772	0.98843
3528.43391	0.98884
3526.38011	0.98909
3524.32631	0.98898
3522.27250	0.98856
3520.21870	0.98794
3518.16490	0.98742
3516.11109	0.98729
3514.05729	0.98705
3512.00349	0.98634
3509.94968	0.98591
3507.89588	0.98620
3505.84208	0.98654
3503.78827	0.98677
3501.73447	0.98703
3499.68067	0.98686
3497.62687	0.98629
3495.57306	0.98586
3493.51926	0.98557
3491.46546	0.98529
3489.41165	0.98507
3487.35785	0.98465
3485.30405	0.98421
3483.25024	0.98435
3481.19644	0.98445
3479.14264	0.98411
3477.08883	0.98393
3475.03503	0.98394
3472.98123	0.98395
3470.92742	0.98378
3468.87362	0.98338
3466.81982	0.98337
3464.76601	0.98383
3462.71221	0.98417
3460.65841	0.98407
3458.60460	0.98328
3456.55080	0.98216
3454.49700	0.98187
3452.44319	0.98241
3450.38939	0.98285
3448.33559	0.98271
3446.28178	0.98218
3444.22798	0.98206
3442.17418	0.98252
3440.12038	0.98280
3438.06657	0.98258
3436.01277	0.98255
3433.95897	0.98307
3431.90516	0.98306
3429.85136	0.98219
3427.79756	0.98181
3425.74375	0.98223
3423.68995	0.98240
3421.63615	0.98229
3419.58234	0.98210
3417.52854	0.98153
3415.47474	0.98097
3413.42093	0.98114
3411.36713	0.98162
3409.31333	0.98134
3407.25952	0.98057
3405.20572	0.98040
3403.15192	0.98071
3401.09811	0.98085
3399.04431	0.98097
3396.99051	0.98106
3394.93670	0.98092
3392.88290	0.98063
3390.82910	0.98027
3388.77529	0.98024
3386.72149	0.98063
3384.66769	0.98080
3382.61389	0.98047
3380.56008	0.97999
3378.50628	0.97960
3376.45248	0.97952
3374.39867	0.97994
3372.34487	0.98049
3370.29107	0.98042
3368.23726	0.97970
3366.18346	0.97929
3364.12966	0.97980
3362.07585	0.98061
3360.02205	0.98092
3357.96825	0.98074
3355.91444	0.98062
3353.86064	0.98060
3351.80684	0.98038
3349.75303	0.98004
3347.69923	0.97969
3345.64543	0.97948
3343.59162	0.97948
3341.53782	0.97929
3339.48402	0.97876
3337.43021	0.97834
3335.37641	0.97836
3333.32261	0.97866
3331.26881	0.97897
3329.21500	0.97879
3327.16120	0.97830
3325.10740	0.97832
3323.05359	0.97866
3320.99979	0.97879
3318.94599	0.97866
3316.89218	0.97831
3314.83838	0.97793
3312.78458	0.97770
3310.73077	0.97758
3308.67697	0.97722
3306.62317	0.97662
3304.56936	0.97628
3302.51556	0.97600
3300.46176	0.97566
3298.40795	0.97564
3296.35415	0.97597
3294.30035	0.97633
3292.24654	0.97623
3290.19274	0.97594
3288.13894	0.97576
3286.08513	0.97535
3284.03133	0.97512
3281.97753	0.97517
3279.92372	0.97489
3277.86992	0.97472
3275.81612	0.97480
3273.76232	0.97437
3271.70851	0.97366
3269.65471	0.97359
3267.60091	0.97390
3265.54710	0.97399
3263.49330	0.97412
3261.43950	0.97430
3259.38569	0.97429
3257.33189	0.97435
3255.27809	0.97461
3253.22428	0.97449
3251.17048	0.97420
3249.11668	0.97438
3247.06287	0.97450
3245.00907	0.97463
3242.95527	0.97520
3240.90146	0.97557
3238.84766	0.97542
3236.79386	0.97508
3234.74005	0.97473
3232.68625	0.97474
3230.63245	0.97528
3228.57864	0.97582
3226.52484	0.97655
3224.47104	0.97754
3222.41724	0.97778
3220.36343	0.97717
3218.30963	0.97675
3216.25583	0.97722
3214.20202	0.97802
3212.14822	0.97798
3210.09442	0.97736
3208.04061	0.97719
3205.98681	0.97737
3203.93301	0.97768
3201.87920	0.97843
3199.82540	0.97907
3197.77160	0.97864
3195.71779	0.97774
3193.66399	0.97773
3191.61019	0.97871
3189.55638	0.97955
3187.50258	0.97964
3185.44878	0.97947
3183.39497	0.97944
3181.34117	0.97954
3179.28737	0.97984
3177.23356	0.98032
3175.17976	0.98086
3173.12596	0.98142
3171.07215	0.98177
3169.01835	0.98163
3166.96455	0.98130
3164.91075	0.98125
3162.85694	0.98163
3160.80314	0.98224
3158.74934	0.98285
3156.69553	0.98317
3154.64173	0.98282
3152.58793	0.98205
3150.53412	0.98169
3148.48032	0.98218
3146.42652	0.98272
3144.37271	0.98288
3142.31891	0.98328
3140.26511	0.98369
3138.21130	0.98352
3136.15750	0.98329
3134.10370	0.98335
3132.04989	0.98342
3129.99609	0.98355
3127.94229	0.98394
3125.88848	0.98430
3123.83468	0.98414
3121.78088	0.98357
3119.72707	0.98343
3117.67327	0.98387
3115.61947	0.98403
3113.56566	0.98349
3111.51186	0.98293
3109.45806	0.98274
3107.40426	0.98260
3105.35045	0.98251
3103.29665	0.98247
3101.24285	0.98227
3099.18904	0.98236
3097.13524	0.98274
3095.08144	0.98276
3093.02763	0.98267
3090.97383	0.98268
3088.92003	0.98266
3086.86622	0.98273
3084.81242	0.98285
3082.75862	0.98286
3080.70481	0.98258
3078.65101	0.98230
3076.59721	0.98255
3074.54340	0.98307
3072.48960	0.98325
3070.43580	0.98311
3068.38199	0.98300
3066.32819	0.98301
3064.27439	0.98305
3062.22058	0.98319
3060.16678	0.98357
3058.11298	0.98407
3056.05918	0.98449
3054.00537	0.98473
3051.95157	0.98457
3049.89777	0.98408
3047.84396	0.98388
3045.79016	0.98422
3043.73636	0.98475
3041.68255	0.98481
3039.62875	0.98443
3037.57495	0.98423
3035.52114	0.98422
3033.46734	0.98420
3031.41354	0.98456
3029.35973	0.98534
3027.30593	0.98588
3025.25213	0.98594
3023.19832	0.98570
3021.14452	0.98534
3019.09072	0.98505
3017.03691	0.98506
3014.98311	0.98524
3012.92931	0.98538
3010.87550	0.98555
3008.82170	0.98568
3006.76790	0.98600
3004.71409	0.98656
3002.66029	0.98667
3000.60649	0.98645
2998.55269	0.98661
2996.49888	0.98681
2994.44508	0.98656
2992.39128	0.98624
2990.33747	0.98609
2988.28367	0.98587
2986.22987	0.98562
2984.17606	0.98537
2982.12226	0.98508
2980.06846	0.98481
2978.01465	0.98482
2975.96085	0.98501
2973.90705	0.98508
2971.85324	0.98490
2969.79944	0.98434
2967.74564	0.98370
2965.69183	0.98329
2963.63803	0.98314
2961.58423	0.98321
2959.53042	0.98319
2957.47662	0.98310
2955.42282	0.98339
2953.36901	0.98388
2951.31521	0.98389
2949.26141	0.98354
2947.20761	0.98346
2945.15380	0.98374
2943.10000	0.98393
2941.04620	0.98366
2938.99239	0.98308
2936.93859	0.98229
2934.88479	0.98137
2932.83098	0.98077
2930.77718	0.98044
2928.72338	0.98010
2926.66957	0.97976
2924.61577	0.97911
2922.56197	0.97804
2920.50816	0.97709
2918.45436	0.97644
2916.40056	0.97607
2914.34675	0.97653
2912.29295	0.97785
2910.23915	0.97931
2908.18534	0.98065
2906.13154	0.98176
2904.07774	0.98243
2902.02393	0.98261
2899.97013	0.98247
2897.91633	0.98242
2895.86252	0.98256
2893.80872	0.98286
2891.75492	0.98333
2889.70112	0.98360
2887.64731	0.98363
2885.59351	0.98381
2883.53971	0.98393
2881.48590	0.98383
2879.43210	0.98371
2877.37830	0.98353
2875.32449	0.98367
2873.27069	0.98426
2871.21689	0.98449
2869.16308	0.98416
2867.10928	0.98390
2865.05548	0.98398
2863.00167	0.98441
2860.94787	0.98482
2858.89407	0.98476
2856.84026	0.98441
2854.78646	0.98359
2852.73266	0.98209
2850.67885	0.98093
2848.62505	0.98101
2846.57125	0.98215
2844.51744	0.98372
2842.46364	0.98504
2840.40984	0.98583
2838.35603	0.98634
2836.30223	0.98690
2834.24843	0.98758
2832.19463	0.98807
2830.14082	0.98807
2828.08702	0.98785
2826.03322	0.98770
2823.97941	0.98781
2821.92561	0.98824
2819.87181	0.98852
2817.81800	0.98843
2815.76420	0.98837
2813.71040	0.98836
2811.65659	0.98829
2809.60279	0.98820
2807.54899	0.98825
2805.49518	0.98853
2803.44138	0.98882
2801.38758	0.98911
2799.33377	0.98958
2797.27997	0.99002
2795.22617	0.99015
2793.17236	0.99020
2791.11856	0.99059
2789.06476	0.99101
2787.01095	0.99084
2784.95715	0.99044
2782.90335	0.99045
2780.84955	0.99036
2778.79574	0.98994
2776.74194	0.98985
2774.68814	0.99008
2772.63433	0.99019
2770.58053	0.99039
2768.52673	0.99063
2766.47292	0.99058
2764.41912	0.99047
2762.36532	0.99043
2760.31151	0.99028
2758.25771	0.98999
2756.20391	0.98988
2754.15010	0.99037
2752.09630	0.99102
2750.04250	0.99109
2747.98869	0.99095
2745.93489	0.99115
2743.88109	0.99134
2741.82728	0.99137
2739.77348	0.99150
2737.71968	0.99145
2735.66587	0.99123
2733.61207	0.99108
2731.55827	0.99093
2729.50446	0.99089
2727.45066	0.99094
2725.39686	0.99087
2723.34306	0.99092
2721.28925	0.99111
2719.23545	0.99129
2717.18165	0.99140
2715.12784	0.99147
2713.07404	0.99175
2711.02024	0.99203
2708.96643	0.99185
2706.91263	0.99142
2704.85883	0.99107
2702.80502	0.99099
2700.75122	0.99137
2698.69742	0.99182
2696.64361	0.99187
2694.58981	0.99181
2692.53601	0.99197
2690.48220	0.99206
2688.42840	0.99202
2686.37460	0.99225
2684.32079	0.99252
2682.26699	0.99235
2680.21319	0.99199
2678.15938	0.99171
2676.10558	0.99149
2674.05178	0.99147
2671.99797	0.99169
2669.94417	0.99201
2667.89037	0.99224
2665.83657	0.99240
2663.78276	0.99237
2661.72896	0.99199
2659.67516	0.99167
2657.62135	0.99158
2655.56755	0.99144
2653.51375	0.99108
2651.45994	0.99087
2649.40614	0.99105
2647.35234	0.99137
2645.29853	0.99161
2643.24473	0.99168
2641.19093	0.99148
2639.13712	0.99117
2637.08332	0.99126
2635.02952	0.99155
2632.97571	0.99164
2630.92191	0.99156
2628.86811	0.99167
2626.81430	0.99200
2624.76050	0.99233
2622.70670	0.99264
2620.65289	0.99269
2618.59909	0.99226
2616.54529	0.99175
2614.49149	0.99173
2612.43768	0.99197
2610.38388	0.99198
2608.33008	0.99191
2606.27627	0.99197
2604.22247	0.99182
2602.16867	0.99143
2600.11486	0.99150
2598.06106	0.99194
2596.00726	0.99239
2593.95345	0.99280
2591.89965	0.99289
2589.84585	0.99283
2587.79204	0.99281
2585.73824	0.99252
2583.68444	0.99217
2581.63063	0.99236
2579.57683	0.99292
2577.52303	0.99317
2575.46922	0.99300
2573.41542	0.99266
2571.36162	0.99248
2569.30781	0.99259
2567.25401	0.99295
2565.20021	0.99327
2563.14640	0.99320
2561.09260	0.99319
2559.03880	0.99342
2556.98500	0.99323
2554.93119	0.99298
2552.87739	0.99289
2550.82359	0.99268
2548.76978	0.99279
2546.71598	0.99331
2544.66218	0.99380
2542.60837	0.99385
2540.55457	0.99352
2538.50077	0.99331
2536.44696	0.99334
2534.39316	0.99344
2532.33936	0.99347
2530.28555	0.99377
2528.23175	0.99476
2526.17795	0.99560
2524.12414	0.99558
2522.07034	0.99516
2520.01654	0.99485
2517.96273	0.99462
2515.90893	0.99417
2513.85513	0.99349
2511.80132	0.99303
2509.74752	0.99346
2507.69372	0.99417
2505.63992	0.99420
2503.58611	0.99361
2501.53231	0.99276
2499.47851	0.99265
2497.42470	0.99333
2495.37090	0.99386
2493.31710	0.99413
2491.26329	0.99397
2489.20949	0.99343
2487.15569	0.99352
2485.10188	0.99405
2483.04808	0.99400
2480.99428	0.99358
2478.94047	0.99336
2476.88667	0.99349
2474.83287	0.99400
2472.77906	0.99425
2470.72526	0.99409
2468.67146	0.99405
2466.61765	0.99429
2464.56385	0.99506
2462.51005	0.99579
2460.45624	0.99547
2458.40244	0.99471
2456.34864	0.99432
2454.29483	0.99424
2452.24103	0.99426
2450.18723	0.99422
2448.13343	0.99395
2446.07962	0.99351
2444.02582	0.99352
2441.97202	0.99399
2439.91821	0.99419
2437.86441	0.99387
2435.81061	0.99376
2433.75680	0.99403
2431.70300	0.99407
2429.64920	0.99408
2427.59539	0.99414
2425.54159	0.99442
2423.48779	0.99512
2421.43398	0.99549
2419.38018	0.99523
2417.32638	0.99488
2415.27257	0.99484
2413.21877	0.99467
2411.16497	0.99432
2409.11116	0.99445
2407.05736	0.99492
2405.00356	0.99502
2402.94975	0.99461
2400.89595	0.99431
2398.84215	0.99453
2396.78834	0.99501
2394.73454	0.99515
2392.68074	0.99471
2390.62694	0.99418
2388.57313	0.99436
2386.51933	0.99482
2384.46553	0.99443
2382.41172	0.99368
2380.35792	0.99353
2378.30412	0.99368
2376.25031	0.99354
2374.19651	0.99314
2372.14271	0.99252
2370.08890	0.99181
2368.03510	0.99109
2365.98130	0.99112
2363.92749	0.99256
2361.87369	0.99315
2359.81989	0.99221
2357.76608	0.99181
2355.71228	0.99199
2353.65848	0.99241
2351.60467	0.99319
2349.55087	0.99320
2347.49707	0.99215
2345.44326	0.99141
2343.38946	0.99199
2341.33566	0.99243
2339.28186	0.99216
2337.22805	0.99202
2335.17425	0.99215
2333.12045	0.99220
2331.06664	0.99162
2329.01284	0.99077
2326.95904	0.99030
2324.90523	0.99024
2322.85143	0.99062
2320.79763	0.99152
2318.74382	0.99243
2316.69002	0.99315
2314.63622	0.99408
2312.58241	0.99433
2310.52861	0.99376
2308.47481	0.99333
2306.42100	0.99285
2304.36720	0.99260
2302.31340	0.99305
2300.25959	0.99343
2298.20579	0.99326
2296.15199	0.99317
2294.09818	0.99336
2292.04438	0.99342
2289.99058	0.99315
2287.93677	0.99249
2285.88297	0.99230
2283.82917	0.99333
2281.77537	0.99412
2279.72156	0.99353
2277.66776	0.99277
2275.61396	0.99296
2273.56015	0.99404
2271.50635	0.99525
2269.45255	0.99528
2267.39874	0.99421
2265.34494	0.99372
2263.29114	0.99375
2261.23733	0.99304
2259.18353	0.99210
2257.12973	0.99281
2255.07592	0.99518
2253.02212	0.99638
2250.96832	0.99522
2248.91451	0.99369
2246.86071	0.99326
2244.80691	0.99332
2242.75310	0.99315
2240.69930	0.99312
2238.64550	0.99350
2236.59169	0.99422
2234.53789	0.99515
2232.48409	0.99541
2230.43029	0.99528
2228.37648	0.99543
2226.32268	0.99541
2224.26888	0.99601
2222.21507	0.99673
2220.16127	0.99560
2218.10747	0.99437
2216.05366	0.99488
2213.99986	0.99544
2211.94606	0.99579
2209.89225	0.99743
2207.83845	0.99937
2205.78465	0.99939
2203.73084	0.99669
2201.67704	0.99334
2199.62324	0.99282
2197.56943	0.99475
2195.51563	0.99613
2193.46183	0.99608
2191.40802	0.99451
2189.35422	0.99241
2187.30042	0.99210
2185.24661	0.99448
2183.19281	0.99713
2181.13901	0.99646
2179.08520	0.99396
2177.03140	0.99333
2174.97760	0.99425
2172.92380	0.99434
2170.86999	0.99185
2168.81619	0.98791
2166.76239	0.98735
2164.70858	0.99027
2162.65478	0.99184
2160.60098	0.99351
2158.54717	0.99777
2156.49337	0.99989
2154.43957	0.99702
2152.38576	0.99293
2150.33196	0.99186
2148.27816	0.99329
2146.22435	0.99492
2144.17055	0.99546
2142.11675	0.99434
2140.06294	0.99336
2138.00914	0.99432
2135.95534	0.99595
2133.90153	0.99680
2131.84773	0.99685
2129.79393	0.99606
2127.74012	0.99508
2125.68632	0.99496
2123.63252	0.99524
2121.57871	0.99474
2119.52491	0.99401
2117.47111	0.99447
2115.41731	0.99549
2113.36350	0.99620
2111.30970	0.99691
2109.25590	0.99728
2107.20209	0.99691
2105.14829	0.99617
2103.09449	0.99532
2101.04068	0.99423
2098.98688	0.99356
2096.93308	0.99414
2094.87927	0.99483
2092.82547	0.99406
2090.77167	0.99313
2088.71786	0.99325
2086.66406	0.99365
2084.61026	0.99457
2082.55645	0.99536
2080.50265	0.99507
2078.44885	0.99500
2076.39504	0.99544
2074.34124	0.99512
2072.28744	0.99415
2070.23363	0.99347
2068.17983	0.99371
2066.12603	0.99458
2064.07223	0.99482
2062.01842	0.99439
2059.96462	0.99419
2057.91082	0.99452
2055.85701	0.99543
2053.80321	0.99562
2051.74941	0.99315
2049.69560	0.98990
2047.64180	0.98940
2045.58800	0.99104
2043.53419	0.99180
2041.48039	0.99119
2039.42659	0.99192
2037.37278	0.99449
2035.31898	0.99697
2033.26518	0.99858
2031.21137	0.99977
2029.15757	1.00088
2027.10377	1.00071
2025.04996	0.99829
2022.99616	0.99570
2020.94236	0.99565
2018.88855	0.99630
2016.83475	0.99585
2014.78095	0.99602
2012.72714	0.99613
2010.67334	0.99415
2008.61954	0.99251
2006.56574	0.99336
2004.51193	0.99498
2002.45813	0.99676
2000.40433	0.99741
1998.35052	0.99674
1996.29672	0.99705
1994.24292	0.99844
1992.18911	0.99860
1990.13531	0.99643
1988.08151	0.99402
1986.02770	0.99308
1983.97390	0.99315
1981.92010	0.99331
1979.86629	0.99379
1977.81249	0.99456
1975.75869	0.99479
1973.70488	0.99503
1971.65108	0.99504
1969.59728	0.99398
1967.54347	0.99294
1965.48967	0.99271
1963.43587	0.99285
1961.38206	0.99373
1959.32826	0.99583
1957.27446	0.99767
1955.22066	0.99768
1953.16685	0.99666
1951.11305	0.99564
1949.05925	0.99563
1947.00544	0.99705
1944.95164	0.99818
1942.89784	0.99853
1940.84403	0.99884
1938.79023	0.99830
1936.73643	0.99701
1934.68262	0.99607
1932.62882	0.99620
1930.57502	0.99760
1928.52121	0.99861
1926.46741	0.99780
1924.41361	0.99664
1922.35980	0.99633
1920.30600	0.99630
1918.25220	0.99623
1916.19839	0.99578
1914.14459	0.99544
1912.09079	0.99592
1910.03698	0.99644
1907.98318	0.99656
1905.92938	0.99621
1903.87557	0.99584
1901.82177	0.99647
1899.76797	0.99724
1897.71417	0.99700
1895.66036	0.99633
1893.60656	0.99603
1891.55276	0.99580
1889.49895	0.99514
1887.44515	0.99486
1885.39135	0.99551
1883.33754	0.99596
1881.28374	0.99567
1879.22994	0.99530
1877.17613	0.99509
1875.12233	0.99556
1873.06853	0.99644
1871.01472	0.99651
1868.96092	0.99608
1866.90712	0.99601
1864.85331	0.99627
1862.79951	0.99633
1860.74571	0.99603
1858.69190	0.99625
1856.63810	0.99703
1854.58430	0.99725
1852.53049	0.99706
1850.47669	0.99711
1848.42289	0.99722
1846.36908	0.99717
1844.31528	0.99708
1842.26148	0.99683
1840.20768	0.99619
1838.15387	0.99590
1836.10007	0.99635
1834.04627	0.99663
1831.99246	0.99592
1829.93866	0.99478
1827.88486	0.99501
1825.83105	0.99632
1823.77725	0.99673
1821.72345	0.99619
1819.66964	0.99617
1817.61584	0.99677
1815.56204	0.99714
1813.50823	0.99703
1811.45443	0.99706
1809.40063	0.99728
1807.34682	0.99707
1805.29302	0.99681
1803.23922	0.99681
1801.18541	0.99652
1799.13161	0.99603
1797.07781	0.99597
1795.02400	0.99626
1792.97020	0.99663
1790.91640	0.99660
1788.86260	0.99612
1786.80879	0.99576
1784.75499	0.99560
1782.70119	0.99570
1780.64738	0.99608
1778.59358	0.99624
1776.53978	0.99594
1774.48597	0.99542
1772.43217	0.99499
1770.37837	0.99518
1768.32456	0.99569
1766.27076	0.99562
1764.21696	0.99530
1762.16315	0.99547
1760.10935	0.99560
1758.05555	0.99540
1756.00174	0.99542
1753.94794	0.99556
1751.89414	0.99580
1749.84033	0.99606
1747.78653	0.99614
1745.73273	0.99615
1743.67892	0.99592
1741.62512	0.99551
1739.57132	0.99515
1737.51751	0.99491
1735.46371	0.99482
1733.40991	0.99504
1731.35611	0.99536
1729.30230	0.99490
1727.24850	0.99408
1725.19470	0.99393
1723.14089	0.99396
1721.08709	0.99358
1719.03329	0.99324
1716.97948	0.99296
1714.92568	0.99238
1712.87188	0.99217
1710.81807	0.99209
1708.76427	0.99144
1706.71047	0.99024
1704.65666	0.98894
1702.60286	0.98746
1700.54906	0.98570
1698.49525	0.98497
1696.44145	0.98441
1694.38765	0.98243
1692.33384	0.98031
1690.28004	0.97850
1688.22624	0.97709
1686.17243	0.97641
1684.11863	0.97547
1682.06483	0.97319
1680.01103	0.97067
1677.95722	0.96863
1675.90342	0.96702
1673.84962	0.96516
1671.79581	0.96306
1669.74201	0.96105
1667.68821	0.95935
1665.63440	0.95781
1663.58060	0.95600
1661.52680	0.95395
1659.47299	0.95226
1657.41919	0.95097
1655.36539	0.94994
1653.31158	0.94939
1651.25778	0.94928
1649.20398	0.94892
1647.15017	0.94859
1645.09637	0.94807
1643.04257	0.94727
1640.98876	0.94657
1638.93496	0.94605
1636.88116	0.94582
1634.82735	0.94564
1632.77355	0.94499
1630.71975	0.94419
1628.66594	0.94359
1626.61214	0.94323
1624.55834	0.94324
1622.50454	0.94372
1620.45073	0.94402
1618.39693	0.94464
1616.34313	0.94695
1614.28932	0.94964
1612.23552	0.95156
1610.18172	0.95351
1608.12791	0.95553
1606.07411	0.95735
1604.02031	0.95878
1601.96650	0.95968
1599.91270	0.96019
1597.85890	0.96039
1595.80509	0.96044
1593.75129	0.96067
1591.69749	0.96100
1589.64368	0.96113
1587.58988	0.96099
1585.53608	0.96065
1583.48227	0.96007
1581.42847	0.95917
1579.37467	0.95831
1577.32086	0.95786
1575.26706	0.95699
1573.21326	0.95543
1571.15945	0.95399
1569.10565	0.95273
1567.05185	0.95158
1564.99805	0.95069
1562.94424	0.94990
1560.89044	0.94888
1558.83664	0.94762
1556.78283	0.94655
1554.72903	0.94525
1552.67523	0.94372
1550.62142	0.94243
1548.56762	0.94168
1546.51382	0.94137
1544.46001	0.94120
1542.40621	0.94135
1540.35241	0.94188
1538.29860	0.94147
1536.24480	0.94055
1534.19100	0.94050
1532.13719	0.94137
1530.08339	0.94203
1528.02959	0.94271
1525.97578	0.94355
1523.92198	0.94390
1521.86818	0.94411
1519.81437	0.94409
1517.76057	0.94338
1515.70677	0.94228
1513.65297	0.94141
1511.59916	0.94085
1509.54536	0.94019
1507.49156	0.93973
1505.43775	0.94031
1503.38395	0.94114
1501.33015	0.94230
1499.27634	0.94414
1497.22254	0.94678
1495.16874	0.94958
1493.11493	0.95167
1491.06113	0.95381
1489.00733	0.95612
1486.95352	0.95736
1484.89972	0.95820
1482.84592	0.95928
1480.79211	0.96014
1478.73831	0.96038
1476.68451	0.96046
1474.63070	0.96049
1472.57690	0.95990
1470.52310	0.95905
1468.46929	0.95865
1466.41549	0.95873
1464.36169	0.95893
1462.30788	0.95882
1460.25408	0.95848
1458.20028	0.95801
1456.14648	0.95762
1454.09267	0.95721
1452.03887	0.95656
1449.98507	0.95617
1447.93126	0.95621
1445.87746	0.95602
1443.82366	0.95545
1441.76985	0.95483
1439.71605	0.95426
1437.66225	0.95418
1435.60844	0.95482
1433.55464	0.95517
1431.50084	0.95554
1429.44703	0.95656
1427.39323	0.95740
1425.33943	0.95776
1423.28562	0.95794
1421.23182	0.95808
1419.17802	0.95871
1417.12421	0.95958
1415.07041	0.95982
1413.01661	0.95981
1410.96280	0.95994
1408.90900	0.96015
1406.85520	0.96019
1404.80139	0.96007
1402.74759	0.95971
1400.69379	0.95932
1398.63999	0.95933
1396.58618	0.95963
1394.53238	0.95984
1392.47858	0.95944
1390.42477	0.95861
1388.37097	0.95796
1386.31717	0.95721
1384.26336	0.95570
1382.20956	0.95362
1380.15576	0.95150
1378.10195	0.95000
1376.04815	0.94929
1373.99435	0.94926
1371.94054	0.94990
1369.88674	0.95114
1367.83294	0.95280
1365.77913	0.95436
1363.72533	0.95602
1361.67153	0.95819
1359.61772	0.96005
1357.56392	0.96134
1355.51012	0.96233
1353.45631	0.96288
1351.40251	0.96317
1349.34871	0.96357
1347.29491	0.96395
1345.24110	0.96416
1343.18730	0.96438
1341.13350	0.96476
1339.07969	0.96510
1337.02589	0.96499
1334.97209	0.96431
1332.91828	0.96351
1330.86448	0.96304
1328.81068	0.96261
1326.75687	0.96199
1324.70307	0.96136
1322.64927	0.96086
1320.59546	0.96038
1318.54166	0.95977
1316.48786	0.95932
1314.43405	0.95891
1312.38025	0.95804
1310.32645	0.95710
1308.27264	0.95675
1306.21884	0.95688
1304.16504	0.95709
1302.11123	0.95729
1300.05743	0.95743
1298.00363	0.95753
1295.94982	0.95786
1293.89602	0.95824
1291.84222	0.95835
1289.78842	0.95814
1287.73461	0.95765
1285.68081	0.95712
1283.62701	0.95673
1281.57320	0.95649
1279.51940	0.95624
1277.46560	0.95556
1275.41179	0.95442
1273.35799	0.95335
1271.30419	0.95242
1269.25038	0.95122
1267.19658	0.94971
1265.14278	0.94839
1263.08897	0.94769
1261.03517	0.94747
1258.98137	0.94740
1256.92756	0.94739
1254.87376	0.94772
1252.81996	0.94847
1250.76615	0.94937
1248.71235	0.95049
1246.65855	0.95168
1244.60474	0.95244
1242.55094	0.95297
1240.49714	0.95362
1238.44334	0.95413
1236.38953	0.95457
1234.33573	0.95514
1232.28193	0.95578
1230.22812	0.95667
1228.17432	0.95770
1226.12052	0.95839
1224.06671	0.95868
1222.01291	0.95881
1219.95911	0.95900
1217.90530	0.95921
1215.85150	0.95937
1213.79770	0.95957
1211.74389	0.95979
1209.69009	0.95993
1207.63629	0.95994
1205.58248	0.95988
1203.52868	0.96011
1201.47488	0.96072
1199.42107	0.96137
1197.36727	0.96191
1195.31347	0.96265
1193.25966	0.96371
1191.20586	0.96472
1189.15206	0.96525
1187.09825	0.96527
1185.04445	0.96511
1182.99065	0.96512
1180.93685	0.96528
1178.88304	0.96524
1176.82924	0.96467
1174.77544	0.96363
1172.72163	0.96253
1170.66783	0.96137
1168.61403	0.95986
1166.56022	0.95833
1164.50642	0.95698
1162.45262	0.95543
1160.39881	0.95414
1158.34501	0.95383
1156.29121	0.95430
1154.23740	0.95506
1152.18360	0.95583
1150.12980	0.95673
1148.07599	0.95802
1146.02219	0.95945
1143.96839	0.96047
1141.91458	0.96098
1139.86078	0.96118
1137.80698	0.96093
1135.75317	0.96020
1133.69937	0.95952
1131.64557	0.95887
1129.59176	0.95752
1127.53796	0.95526
1125.48416	0.95279
1123.43036	0.95082
1121.37655	0.94954
1119.32275	0.94868
1117.26895	0.94775
1115.21514	0.94679
1113.16134	0.94629
1111.10754	0.94636
1109.05373	0.94685
1106.99993	0.94757
1104.94613	0.94812
1102.89232	0.94849
1100.83852	0.94897
1098.78472	0.94932
1096.73091	0.94935
1094.67711	0.94947
1092.62331	0.94936
1090.56950	0.94843
1088.51570	0.94689
1086.46190	0.94494
1084.40809	0.94289
1082.35429	0.94063
1080.30049	0.93789
1078.24668	0.93558
1076.19288	0.93442
1074.13908	0.93393
1072.08528	0.93370
1070.03147	0.93367
1067.97767	0.93354
1065.92387	0.93317
1063.87006	0.93300
1061.81626	0.93336
1059.76246	0.93429
1057.70865	0.93558
1055.65485	0.93659
1053.60105	0.93713
1051.54724	0.93769
1049.49344	0.93842
1047.43964	0.93877
1045.38583	0.93856
1043.33203	0.93792
1041.27823	0.93660
1039.22442	0.93493
1037.17062	0.93324
1035.11682	0.93131
1033.06301	0.92974
1031.00921	0.92893
1028.95541	0.92827
1026.90160	0.92794
1024.84780	0.92833
1022.79400	0.92864
1020.74019	0.92855
1018.68639	0.92823
1016.63259	0.92773
1014.57879	0.92748
1012.52498	0.92768
1010.47118	0.92839
1008.41738	0.92992
1006.36357	0.93232
1004.30977	0.93531
1002.25597	0.93822
1000.20216	0.94024
998.14836	0.94173
996.09456	0.94350
994.04075	0.94540
991.98695	0.94716
989.93315	0.94866
987.87934	0.94980
985.82554	0.95084
983.77174	0.95199
981.71793	0.95307
979.66413	0.95387
977.61033	0.95440
975.55652	0.95489
973.50272	0.95554
971.44892	0.95636
969.39511	0.95728
967.34131	0.95816
965.28751	0.95885
963.23371	0.95925
961.17990	0.95917
959.12610	0.95833
957.07230	0.95702
955.01849	0.95588
952.96469	0.95496
950.91089	0.95468
948.85708	0.95544
946.80328	0.95652
944.74948	0.95721
942.69567	0.95785
940.64187	0.95843
938.58807	0.95896
936.53426	0.96000
934.48046	0.96109
932.42666	0.96176
930.37285	0.96273
928.31905	0.96406
926.26525	0.96495
924.21144	0.96524
922.15764	0.96523
920.10384	0.96512
918.05003	0.96530
915.99623	0.96581
913.94243	0.96583
911.88862	0.96556
909.83482	0.96588
907.78102	0.96634
905.72722	0.96608
903.67341	0.96504
901.61961	0.96413
899.56581	0.96347
897.51200	0.96254
895.45820	0.96197
893.40440	0.96204
891.35059	0.96238
889.29679	0.96274
887.24299	0.96313
885.18918	0.96369
883.13538	0.96414
881.08158	0.96422
879.02777	0.96420
876.97397	0.96424
874.92017	0.96423
872.86636	0.96434
870.81256	0.96444
868.75876	0.96428
866.70495	0.96445
864.65115	0.96475
862.59735	0.96444
860.54354	0.96424
858.48974	0.96459
856.43594	0.96452
854.38213	0.96396
852.32833	0.96374
850.27453	0.96397
848.22073	0.96408
846.16692	0.96393
844.11312	0.96412
842.05932	0.96415
840.00551	0.96342
837.95171	0.96307
835.89791	0.96315
833.84410	0.96258
831.79030	0.96167
829.73650	0.96118
827.68269	0.96106
825.62889	0.96055
823.57509	0.95945
821.52128	0.95847
819.46748	0.95746
817.41368	0.95661
815.35987	0.95671
813.30607	0.95704
811.25227	0.95712
809.19846	0.95704
807.14466	0.95628
805.09086	0.95495
803.03705	0.95413
800.98325	0.95432
798.92945	0.95474
796.87565	0.95419
794.82184	0.95288
792.76804	0.95223
790.71424	0.95252
788.66043	0.95290
786.60663	0.95264
784.55283	0.95161
782.49902	0.95046
780.44522	0.94975
778.39142	0.94923
776.33761	0.94861
774.28381	0.94840
772.23001	0.94871
770.17620	0.94873
768.12240	0.94832
766.06860	0.94822
764.01479	0.94861
761.96099	0.94854
759.90719	0.94741
757.85338	0.94617
755.79958	0.94577
753.74578	0.94577
751.69197	0.94563
749.63817	0.94514
747.58437	0.94444
745.53056	0.94392
743.47676	0.94393
741.42296	0.94441
739.36916	0.94485
737.31535	0.94500
735.26155	0.94440
733.20775	0.94300
731.15394	0.94150
729.10014	0.94057
727.04634	0.94067
724.99253	0.94117
722.93873	0.94060
720.88493	0.93907
718.83112	0.93819
716.77732	0.93826
714.72352	0.93838
712.66971	0.93799
710.61591	0.93718
708.56211	0.93681
706.50830	0.93703
704.45450	0.93694
702.40070	0.93644
700.34689	0.93583
698.29309	0.93496
696.23929	0.93399
694.18548	0.93343
692.13168	0.93332
690.07788	0.93266
688.02408	0.93152
685.97027	0.93090
683.91647	0.93032
681.86267	0.92993
679.80886	0.93059
677.75506	0.93199
675.70126	0.93271
673.64745	0.93186
671.59365	0.93058
669.53985	0.93016
667.48604	0.93093
665.43224	0.93195
663.37844	0.93167
661.32463	0.92963
659.27083	0.92778
657.21703	0.92764
655.16322	0.92807
653.10942	0.92809
651.05562	0.92799
649.00181	0.92769
646.94801	0.92723
644.89421	0.92688
642.84040	0.92603
640.78660	0.92428
638.73280	0.92194
636.67899	0.92043
634.62519	0.91990
632.57139	0.91889
630.51759	0.91803
628.46378	0.91819
626.40998	0.91910
624.35618	0.91972
622.30237	0.91855
620.24857	0.91648
618.19477	0.91539
616.14096	0.91457
614.08716	0.91290
612.03336	0.91182
609.97955	0.91263
607.92575	0.91415
605.87195	0.91413
603.81814	0.91330
601.76434	0.91324
599.71054	0.91230
597.65673	0.91046
595.60293	0.91009
593.54913	0.91077
591.49532	0.91035
589.44152	0.90884
587.38772	0.90742
585.33391	0.90729
583.28011	0.90843
581.22631	0.90847
579.17250	0.90677
577.11870	0.90478
575.06490	0.90391
573.01110	0.90491
570.95729	0.90601
568.90349	0.90588
566.84969	0.90532
564.79588	0.90490
562.74208	0.90425
560.68828	0.90294
558.63447	0.90233
556.58067	0.90354
554.52687	0.90477
552.47306	0.90448
550.41926	0.90269
548.36546	0.90121
546.31165	0.90165
544.25785	0.90242
542.20405	0.90237
540.15024	0.90199
538.09644	0.90169
536.04264	0.90173
533.98883	0.90159
531.93503	0.90047
529.88123	0.89882
527.82742	0.89835
525.77362	0.90040
523.71982	0.90353
521.66602	0.90419
519.61221	0.90261
517.55841	0.90186
515.50461	0.90258
513.45080	0.90407
511.39700	0.90520
509.34320	0.90516
507.28939	0.90503
505.23559	0.90625
503.18179	0.90791
501.12798	0.90797
499.07418	0.90640
497.02038	0.90478
494.96657	0.90517
492.91277	0.90711
490.85897	0.90732
488.80516	0.90550
486.75136	0.90458
484.69756	0.90506
482.64375	0.90509
480.58995	0.90410
478.53615	0.90402
476.48234	0.90596
474.42854	0.90698
472.37474	0.90561
470.32093	0.90332
468.26713	0.90295
466.21333	0.90500
464.15953	0.90556
462.10572	0.90388
460.05192	0.90149
457.99812	0.89999
455.94431	0.90141
453.89051	0.90315
451.83671	0.90269
449.78290	0.90142
447.72910	0.90239
445.67530	0.90657
443.62149	0.91182
441.56769	0.91510
439.51389	0.91314
437.46008	0.90580
435.40628	0.90006
433.35248	0.90079
431.29867	0.90198
429.24487	0.90226
427.19107	0.90396
425.13726	0.90444
423.08346	0.90280
421.02966	0.89762
418.97585	0.89181
416.92205	0.89522
414.86825	0.90202
412.81445	0.90611
410.76064	0.90767
408.70684	0.90817
406.65304	0.90754
404.59923	0.90729
402.54543	0.90737
400.49163	0.90639
398.43782	0.90896
