3996.71440	0.93653
3994.66059	0.93650
3992.60678	0.93669
3990.55297	0.93694
3988.49916	0.93687
3986.44535	0.93671
3984.39154	0.93677
3982.33773	0.93695
3980.28391	0.93694
3978.23010	0.93670
3976.17629	0.93671
3974.12248	0.93710
3972.06867	0.93734
3970.01486	0.93729
3967.96105	0.93718
3965.90724	0.93710
3963.85343	0.93709
3961.79962	0.93688
3959.74581	0.93663
3957.69200	0.93675
3955.63819	0.93676
3953.58438	0.93658
3951.53057	0.93660
3949.47676	0.93670
3947.42295	0.93682
3945.36914	0.93704
3943.31533	0.93713
3941.26152	0.93706
3939.20771	0.93711
3937.15390	0.93728
3935.10009	0.93728
3933.04628	0.93721
3930.99247	0.93717
3928.93866	0.93715
3926.88485	0.93734
3924.83104	0.93757
3922.77723	0.93751
3920.72342	0.93755
3918.66961	0.93772
3916.61580	0.93757
3914.56199	0.93745
3912.50818	0.93743
3910.45437	0.93712
3908.40056	0.93680
3906.34675	0.93679
3904.29294	0.93722
3902.23913	0.93764
3900.18532	0.93732
3898.13151	0.93700
3896.07770	0.93723
3894.02389	0.93750
3891.97008	0.93759
3889.91627	0.93747
3887.86246	0.93734
3885.80865	0.93752
3883.75484	0.93787
3881.70103	0.93802
3879.64722	0.93794
3877.59341	0.93779
3875.53960	0.93791
3873.48579	0.93805
3871.43198	0.93782
3869.37817	0.93738
3867.32436	0.93720
3865.27055	0.93742
3863.21674	0.93755
3861.16293	0.93737
3859.10912	0.93710
3857.05531	0.93692
3855.00150	0.93686
3852.94769	0.93693
3850.89388	0.93733
3848.84007	0.93768
3846.78626	0.93769
3844.73245	0.93761
3842.67864	0.93765
3840.62483	0.93731
3838.57102	0.93683
3836.51721	0.93696
3834.46340	0.93746
3832.40959	0.93771
3830.35578	0.93755
3828.30197	0.93751
3826.24816	0.93788
3824.19435	0.93839
3822.14054	0.93893
3820.08673	0.93915
3818.03292	0.93867
3815.97911	0.93814
3813.92530	0.93804
3811.87149	0.93816
3809.81768	0.93833
3807.76387	0.93852
3805.71006	0.93838
3803.65625	0.93790
3801.60244	0.93772
3799.54863	0.93813
3797.49482	0.93858
3795.44101	0.93867
3793.38720	0.93845
3791.33339	0.93830
3789.27958	0.93837
3787.22577	0.93835
3785.17196	0.93819
3783.11815	0.93820
3781.06434	0.93832
3779.01053	0.93859
3776.95672	0.93906
3774.90291	0.93932
3772.84910	0.93924
3770.79529	0.93895
3768.74148	0.93875
3766.68767	0.93873
3764.63386	0.93855
3762.58005	0.93852
3760.52624	0.93909
3758.47243	0.93958
3756.41862	0.93914
3754.36481	0.93838
3752.31100	0.93823
3750.25719	0.93886
3748.20338	0.93943
3746.14957	0.93977
3744.09576	0.93993
3742.04195	0.93971
3739.98814	0.93931
3737.93433	0.93890
3735.88052	0.93872
3733.82671	0.93897
3731.77290	0.93944
3729.71909	0.93990
3727.66528	0.94020
3725.61147	0.94022
3723.55766	0.93994
3721.50385	0.93961
3719.45004	0.93946
3717.39623	0.93934
3715.34242	0.93911
3713.28861	0.93891
3711.23480	0.93878
3709.18099	0.93850
3707.12718	0.93818
3705.07337	0.93792
3703.01956	0.93751
3700.96575	0.93688
3698.91194	0.93673
3696.85813	0.93694
3694.80432	0.93692
3692.75051	0.93678
3690.69670	0.93697
3688.64289	0.93746
3686.58907	0.93755
3684.53526	0.93722
3682.48145	0.93671
3680.42764	0.93607
3678.37383	0.93543
3676.32002	0.93517
3674.26621	0.93558
3672.21240	0.93590
3670.15859	0.93535
3668.10478	0.93436
3666.05097	0.93391
3663.99716	0.93378
3661.94335	0.93371
3659.88954	0.93337
3657.83573	0.93259
3655.78192	0.93181
3653.72811	0.93141
3651.67430	0.93119
3649.62049	0.93068
3647.56668	0.93017
3645.51287	0.92998
3643.45906	0.92964
3641.40525	0.92899
3639.35144	0.92829
3637.29763	0.92793
3635.24382	0.92761
3633.19001	0.92689
3631.13620	0.92596
3629.08239	0.92499
3627.02858	0.92447
3624.97477	0.92432
3622.92096	0.92392
3620.86715	0.92322
3618.81334	0.92267
3616.75953	0.92240
3614.70572	0.92183
3612.65191	0.92117
3610.59810	0.92091
3608.54429	0.92054
3606.49048	0.91973
3604.43667	0.91907
3602.38286	0.91865
3600.32905	0.91822
3598.27524	0.91783
3596.22143	0.91738
3594.16762	0.91684
3592.11381	0.91640
3590.06000	0.91621
3588.00619	0.91579
3585.95238	0.91476
3583.89857	0.91389
3581.84476	0.91340
3579.79095	0.91288
3577.73714	0.91234
3575.68333	0.91200
3573.62952	0.91178
3571.57571	0.91145
3569.52190	0.91087
3567.46809	0.90999
3565.41428	0.90925
3563.36047	0.90908
3561.30666	0.90887
3559.25285	0.90802
3557.19904	0.90686
3555.14523	0.90607
3553.09142	0.90582
3551.03761	0.90575
3548.98380	0.90553
3546.92999	0.90496
3544.87618	0.90421
3542.82237	0.90358
3540.76856	0.90300
3538.71475	0.90264
3536.66094	0.90248
3534.60713	0.90210
3532.55332	0.90160
3530.49951	0.90104
3528.44570	0.90040
3526.39189	0.89984
3524.33808	0.89924
3522.28427	0.89870
3520.23046	0.89856
3518.17665	0.89857
3516.12284	0.89827
3514.06903	0.89754
3512.01522	0.89679
3509.96141	0.89631
3507.90760	0.89595
3505.85379	0.89561
3503.79998	0.89540
3501.74617	0.89522
3499.69236	0.89490
3497.63855	0.89450
3495.58474	0.89417
3493.53093	0.89397
3491.47712	0.89374
3489.42331	0.89326
3487.36950	0.89274
3485.31569	0.89241
3483.26188	0.89219
3481.20807	0.89167
3479.15426	0.89077
3477.10045	0.89018
3475.04664	0.89007
3472.99283	0.89003
3470.93902	0.88997
3468.88521	0.88965
3466.83140	0.88922
3464.77759	0.88914
3462.72378	0.88905
3460.66997	0.88855
3458.61616	0.88804
3456.56235	0.88772
3454.50854	0.88737
3452.45473	0.88708
3450.40092	0.88706
3448.34711	0.88698
3446.29330	0.88657
3444.23949	0.88611
3442.18568	0.88587
3440.13187	0.88586
3438.07806	0.88584
3436.02425	0.88567
3433.97044	0.88554
3431.91663	0.88538
3429.86282	0.88520
3427.80901	0.88494
3425.75520	0.88446
3423.70139	0.88400
3421.64758	0.88374
3419.59377	0.88361
3417.53996	0.88359
3415.48615	0.88373
3413.43234	0.88373
3411.37853	0.88357
3409.32472	0.88353
3407.27091	0.88350
3405.21710	0.88352
3403.16329	0.88359
3401.10948	0.88353
3399.05567	0.88351
3397.00186	0.88366
3394.94805	0.88381
3392.89424	0.88376
3390.84042	0.88357
3388.78661	0.88344
3386.73280	0.88332
3384.67899	0.88336
3382.62518	0.88374
3380.57137	0.88426
3378.51756	0.88467
3376.46375	0.88492
3374.40994	0.88498
3372.35613	0.88499
3370.30232	0.88512
3368.24851	0.88523
3366.19470	0.88535
3364.14089	0.88561
3362.08708	0.88571
3360.03327	0.88563
3357.97946	0.88576
3355.92565	0.88596
3353.87184	0.88621
3351.81803	0.88665
3349.76422	0.88684
3347.71041	0.88684
3345.65660	0.88715
3343.60279	0.88750
3341.54898	0.88759
3339.49517	0.88752
3337.44136	0.88748
3335.38755	0.88758
3333.33374	0.88786
3331.27993	0.88835
3329.22612	0.88879
3327.17231	0.88894
3325.11850	0.88893
3323.06469	0.88899
3321.01088	0.88924
3318.95707	0.88950
3316.90326	0.88984
3314.84945	0.89034
3312.79564	0.89064
3310.74183	0.89058
3308.68802	0.89046
3306.63421	0.89052
3304.58040	0.89077
3302.52659	0.89103
3300.47278	0.89117
3298.41897	0.89136
3296.36516	0.89170
3294.31135	0.89188
3292.25754	0.89177
3290.20373	0.89167
3288.14992	0.89185
3286.09611	0.89241
3284.04230	0.89316
3281.98849	0.89355
3279.93468	0.89352
3277.88087	0.89354
3275.82706	0.89377
3273.77325	0.89413
3271.71944	0.89445
3269.66563	0.89460
3267.61182	0.89485
3265.55801	0.89529
3263.50420	0.89566
3261.45039	0.89597
3259.39658	0.89627
3257.34277	0.89648
3255.28896	0.89671
3253.23515	0.89718
3251.18134	0.89759
3249.12753	0.89769
3247.07372	0.89769
3245.01991	0.89769
3242.96610	0.89789
3240.91229	0.89830
3238.85848	0.89870
3236.80467	0.89908
3234.75086	0.89933
3232.69705	0.89942
3230.64324	0.89980
3228.58943	0.90064
3226.53562	0.90136
3224.48181	0.90159
3222.42800	0.90181
3220.37419	0.90212
3218.32038	0.90220
3216.26657	0.90215
3214.21276	0.90213
3212.15895	0.90261
3210.10514	0.90341
3208.05133	0.90383
3205.99752	0.90401
3203.94371	0.90430
3201.88990	0.90458
3199.83609	0.90489
3197.78228	0.90530
3195.72847	0.90566
3193.67466	0.90609
3191.62085	0.90664
3189.56704	0.90694
3187.51323	0.90705
3185.45942	0.90735
3183.40561	0.90789
3181.35180	0.90834
3179.29799	0.90863
3177.24418	0.90901
3175.19037	0.90950
3173.13656	0.90996
3171.08275	0.91030
3169.02894	0.91051
3166.97513	0.91069
3164.92132	0.91097
3162.86751	0.91129
3160.81370	0.91153
3158.75989	0.91172
3156.70608	0.91205
3154.65227	0.91254
3152.59846	0.91301
3150.54465	0.91339
3148.49084	0.91383
3146.43703	0.91430
3144.38322	0.91452
3142.32941	0.91462
3140.27560	0.91470
3138.22179	0.91480
3136.16798	0.91530
3134.11417	0.91594
3132.06036	0.91620
3130.00655	0.91631
3127.95274	0.91662
3125.89893	0.91705
3123.84512	0.91731
3121.79131	0.91745
3119.73750	0.91781
3117.68369	0.91816
3115.62988	0.91827
3113.57607	0.91833
3111.52226	0.91866
3109.46845	0.91916
3107.41464	0.91947
3105.36083	0.91950
3103.30702	0.91940
3101.25321	0.91945
3099.19940	0.91987
3097.14559	0.92045
3095.09177	0.92073
3093.03796	0.92080
3090.98415	0.92098
3088.93034	0.92113
3086.87653	0.92132
3084.82272	0.92167
3082.76891	0.92203
3080.71510	0.92222
3078.66129	0.92220
3076.60748	0.92223
3074.55367	0.92237
3072.49986	0.92252
3070.44605	0.92274
3068.39224	0.92291
3066.33843	0.92296
3064.28462	0.92321
3062.23081	0.92376
3060.17700	0.92423
3058.12319	0.92441
3056.06938	0.92449
3054.01557	0.92455
3051.96176	0.92462
3049.90795	0.92483
3047.85414	0.92498
3045.80033	0.92498
3043.74652	0.92499
3041.69271	0.92518
3039.63890	0.92553
3037.58509	0.92589
3035.53128	0.92614
3033.47747	0.92622
3031.42366	0.92623
3029.36985	0.92642
3027.31604	0.92680
3025.26223	0.92719
3023.20842	0.92743
3021.15461	0.92746
3019.10080	0.92747
3017.04699	0.92753
3014.99318	0.92747
3012.93937	0.92735
3010.88556	0.92732
3008.83175	0.92740
3006.77794	0.92746
3004.72413	0.92741
3002.67032	0.92734
3000.61651	0.92721
2998.56270	0.92690
2996.50889	0.92637
2994.45508	0.92572
2992.40127	0.92491
2990.34746	0.92383
2988.29365	0.92223
2986.23984	0.91999
2984.18603	0.91736
2982.13222	0.91444
2980.07841	0.91108
2978.02460	0.90725
2975.97079	0.90343
2973.91698	0.90007
2971.86317	0.89687
2969.80936	0.89346
2967.75555	0.89015
2965.70174	0.88740
2963.64793	0.88506
2961.59412	0.88306
2959.54031	0.88143
2957.48650	0.88035
2955.43269	0.88016
2953.37888	0.88070
2951.32507	0.88143
2949.27126	0.88200
2947.21745	0.88236
2945.16364	0.88239
2943.10983	0.88171
2941.05602	0.87996
2939.00221	0.87758
2936.94840	0.87521
2934.89459	0.87273
2932.84078	0.87000
2930.78697	0.86767
2928.73316	0.86627
2926.67935	0.86561
2924.62554	0.86537
2922.57173	0.86558
2920.51792	0.86587
2918.46411	0.86564
2916.41030	0.86503
2914.35649	0.86438
2912.30268	0.86392
2910.24887	0.86411
2908.19506	0.86547
2906.14125	0.86826
2904.08744	0.87246
2902.03363	0.87771
2899.97982	0.88321
2897.92601	0.88859
2895.87220	0.89370
2893.81839	0.89805
2891.76458	0.90147
2889.71077	0.90421
2887.65696	0.90643
2885.60315	0.90804
2883.54934	0.90891
2881.49553	0.90924
2879.44172	0.90909
2877.38791	0.90821
2875.33410	0.90697
2873.28029	0.90593
2871.22648	0.90520
2869.17267	0.90483
2867.11886	0.90471
2865.06505	0.90452
2863.01124	0.90402
2860.95743	0.90338
2858.90362	0.90298
2856.84981	0.90302
2854.79600	0.90345
2852.74219	0.90415
2850.68838	0.90512
2848.63457	0.90669
2846.58076	0.90893
2844.52695	0.91133
2842.47314	0.91352
2840.41933	0.91549
2838.36552	0.91742
2836.31171	0.91933
2834.25790	0.92097
2832.20409	0.92232
2830.15028	0.92366
2828.09647	0.92482
2826.04266	0.92545
2823.98885	0.92562
2821.93504	0.92571
2819.88123	0.92588
2817.82742	0.92601
2815.77361	0.92616
2813.71980	0.92638
2811.66599	0.92679
2809.61218	0.92758
2807.55837	0.92857
2805.50456	0.92940
2803.45075	0.92991
2801.39693	0.93016
2799.34312	0.93046
2797.28931	0.93094
2795.23550	0.93126
2793.18169	0.93126
2791.12788	0.93132
2789.07407	0.93167
2787.02026	0.93222
2784.96645	0.93275
2782.91264	0.93303
2780.85883	0.93311
2778.80502	0.93319
2776.75121	0.93335
2774.69740	0.93350
2772.64359	0.93364
2770.58978	0.93374
2768.53597	0.93364
2766.48216	0.93356
2764.42835	0.93373
2762.37454	0.93403
2760.32073	0.93422
2758.26692	0.93416
2756.21311	0.93400
2754.15930	0.93388
2752.10549	0.93386
2750.05168	0.93398
2747.99787	0.93409
2745.94406	0.93418
2743.89025	0.93434
2741.83644	0.93440
2739.78263	0.93441
2737.72882	0.93449
2735.67501	0.93456
2733.62120	0.93455
2731.56739	0.93456
2729.51358	0.93465
2727.45977	0.93469
2725.40596	0.93475
2723.35215	0.93503
2721.29834	0.93528
2719.24453	0.93524
2717.19072	0.93520
2715.13691	0.93534
2713.08310	0.93548
2711.02929	0.93565
2708.97548	0.93593
2706.92167	0.93610
2704.86786	0.93602
2702.81405	0.93591
2700.76024	0.93587
2698.70643	0.93584
2696.65262	0.93597
2694.59881	0.93630
2692.54500	0.93654
2690.49119	0.93652
2688.43738	0.93643
2686.38357	0.93648
2684.32976	0.93653
2682.27595	0.93657
2680.22214	0.93675
2678.16833	0.93685
2676.11452	0.93667
2674.06071	0.93653
2672.00690	0.93669
2669.95309	0.93691
2667.89928	0.93699
2665.84547	0.93689
2663.79166	0.93667
2661.73785	0.93663
2659.68404	0.93683
2657.63023	0.93712
2655.57642	0.93733
2653.52261	0.93738
2651.46880	0.93734
2649.41499	0.93734
2647.36118	0.93746
2645.30737	0.93764
2643.25356	0.93780
2641.19975	0.93797
2639.14594	0.93810
2637.09213	0.93802
2635.03832	0.93781
2632.98451	0.93769
2630.93070	0.93762
2628.87689	0.93759
2626.82308	0.93764
2624.76927	0.93768
2622.71546	0.93794
2620.66165	0.93849
2618.60784	0.93882
2616.55403	0.93898
2614.50022	0.93938
2612.44641	0.93972
2610.39260	0.93959
2608.33879	0.93907
2606.28498	0.93876
2604.23117	0.93884
2602.17736	0.93875
2600.12355	0.93840
2598.06974	0.93850
2596.01593	0.93928
2593.96212	0.93986
2591.90831	0.93990
2589.85450	0.93984
2587.80069	0.93967
2585.74688	0.93949
2583.69307	0.93960
2581.63926	0.93982
2579.58545	0.93993
2577.53164	0.94008
2575.47783	0.94027
2573.42402	0.94003
2571.37021	0.93943
2569.31640	0.93914
2567.26259	0.93955
2565.20878	0.94015
2563.15497	0.94026
2561.10116	0.94012
2559.04735	0.94012
2556.99354	0.94018
2554.93973	0.94027
2552.88592	0.94022
2550.83211	0.94001
2548.77830	0.93989
2546.72449	0.93989
2544.67068	0.93995
2542.61687	0.94005
2540.56306	0.94005
2538.50925	0.93986
2536.45544	0.93970
2534.40163	0.93997
2532.34782	0.94033
2530.29401	0.94019
2528.24020	0.93998
2526.18639	0.94006
2524.13258	0.94018
2522.07877	0.94005
2520.02496	0.93973
2517.97115	0.93955
2515.91734	0.93944
2513.86353	0.93929
2511.80972	0.93932
2509.75591	0.93959
2507.70210	0.93992
2505.64828	0.93992
2503.59447	0.93978
2501.54066	0.94001
2499.48685	0.94050
2497.43304	0.94105
2495.37923	0.94143
2493.32542	0.94158
2491.27161	0.94182
2489.21780	0.94203
2487.16399	0.94200
2485.11018	0.94203
2483.05637	0.94220
2481.00256	0.94216
2478.94875	0.94210
2476.89494	0.94239
2474.84113	0.94277
2472.78732	0.94287
2470.73351	0.94269
2468.67970	0.94264
2466.62589	0.94290
2464.57208	0.94315
2462.51827	0.94339
2460.46446	0.94362
2458.41065	0.94359
2456.35684	0.94316
2454.30303	0.94268
2452.24922	0.94279
2450.19541	0.94317
2448.14160	0.94301
2446.08779	0.94268
2444.03398	0.94294
2441.98017	0.94350
2439.92636	0.94347
2437.87255	0.94306
2435.81874	0.94290
2433.76493	0.94307
2431.71112	0.94354
2429.65731	0.94391
2427.60350	0.94367
2425.54969	0.94280
2423.49588	0.94215
2421.44207	0.94234
2419.38826	0.94269
2417.33445	0.94281
2415.28064	0.94300
2413.22683	0.94302
2411.17302	0.94280
2409.11921	0.94270
2407.06540	0.94290
2405.01159	0.94329
2402.95778	0.94359
2400.90397	0.94372
2398.85016	0.94384
2396.79635	0.94400
2394.74254	0.94400
2392.68873	0.94392
2390.63492	0.94381
2388.58111	0.94355
2386.52730	0.94345
2384.47349	0.94369
2382.41968	0.94392
2380.36587	0.94366
2378.31206	0.94308
2376.25825	0.94259
2374.20444	0.94262
2372.15063	0.94326
2370.09682	0.94410
2368.04301	0.94444
2365.98920	0.94401
2363.93539	0.94388
2361.88158	0.94394
2359.82777	0.94380
2357.77396	0.94413
2355.72015	0.94414
2353.66634	0.94374
2351.61253	0.94364
2349.55872	0.94354
2347.50491	0.94320
2345.45110	0.94280
2343.39729	0.94262
2341.34348	0.94284
2339.28967	0.94340
2337.23586	0.94375
2335.18205	0.94363
2333.12824	0.94367
2331.07443	0.94401
2329.02062	0.94381
2326.96681	0.94273
2324.91300	0.94165
2322.85919	0.94168
2320.80538	0.94266
2318.75157	0.94320
2316.69776	0.94277
2314.64395	0.94217
2312.59014	0.94219
2310.53633	0.94279
2308.48252	0.94335
2306.42871	0.94339
2304.37490	0.94313
2302.32109	0.94300
2300.26728	0.94299
2298.21347	0.94288
2296.15966	0.94274
2294.10585	0.94274
2292.05204	0.94287
2289.99823	0.94293
2287.94442	0.94289
2285.89061	0.94304
2283.83680	0.94327
2281.78299	0.94334
2279.72918	0.94361
2277.67537	0.94441
2275.62156	0.94497
2273.56775	0.94483
2271.51394	0.94466
2269.46013	0.94481
2267.40632	0.94505
2265.35251	0.94526
2263.29870	0.94549
2261.24489	0.94556
2259.19108	0.94519
2257.13727	0.94492
2255.08346	0.94529
2253.02965	0.94602
2250.97584	0.94689
2248.92203	0.94741
2246.86822	0.94717
2244.81441	0.94642
2242.76060	0.94556
2240.70679	0.94504
2238.65298	0.94510
2236.59917	0.94532
2234.54536	0.94497
2232.49155	0.94487
2230.43774	0.94562
2228.38393	0.94589
2226.33012	0.94549
2224.27631	0.94553
2222.22250	0.94565
2220.16869	0.94549
2218.11488	0.94600
2216.06107	0.94697
2214.00726	0.94708
2211.95344	0.94659
2209.89963	0.94690
2207.84582	0.94777
2205.79201	0.94834
2203.73820	0.94888
2201.68439	0.94909
2199.63058	0.94849
2197.57677	0.94741
2195.52296	0.94688
2193.46915	0.94746
2191.41534	0.94831
2189.36153	0.94880
2187.30772	0.94822
2185.25391	0.94688
2183.20010	0.94704
2181.14629	0.94831
2179.09248	0.94905
2177.03867	0.94931
2174.98486	0.94941
2172.93105	0.94973
2170.87724	0.94923
2168.82343	0.94796
2166.76962	0.94795
2164.71581	0.94873
2162.66200	0.94788
2160.60819	0.94550
2158.55438	0.94600
2156.50057	0.95005
2154.44676	0.95257
2152.39295	0.95283
2150.33914	0.95253
2148.28533	0.95129
2146.23152	0.94952
2144.17771	0.94851
2142.12390	0.94798
2140.07009	0.94773
2138.01628	0.94826
2135.96247	0.94915
2133.90866	0.94963
2131.85485	0.94959
2129.80104	0.94915
2127.74723	0.94827
2125.69342	0.94745
2123.63961	0.94715
2121.58580	0.94688
2119.53199	0.94665
2117.47818	0.94667
2115.42437	0.94649
2113.37056	0.94655
2111.31675	0.94728
2109.26294	0.94747
2107.20913	0.94665
2105.15532	0.94616
2103.10151	0.94665
2101.04770	0.94735
2098.99389	0.94800
2096.94008	0.94865
2094.88627	0.94866
2092.83246	0.94803
2090.77865	0.94734
2088.72484	0.94695
2086.67103	0.94699
2084.61722	0.94703
2082.56341	0.94688
2080.50960	0.94737
2078.45579	0.94821
2076.40198	0.94798
2074.34817	0.94746
2072.29436	0.94793
2070.24055	0.94841
2068.18674	0.94799
2066.13293	0.94756
2064.07912	0.94783
2062.02531	0.94816
2059.97150	0.94811
2057.91769	0.94799
2055.86388	0.94807
2053.81007	0.94805
2051.75626	0.94787
2049.70245	0.94812
2047.64864	0.94885
2045.59483	0.94945
2043.54102	0.94918
2041.48721	0.94836
2039.43340	0.94831
2037.37959	0.94878
2035.32578	0.94954
2033.27197	0.95042
2031.21816	0.95062
2029.16435	0.95046
2027.11054	0.95037
2025.05673	0.95054
2023.00292	0.95098
2020.94911	0.95171
2018.89530	0.95291
2016.84149	0.95351
2014.78768	0.95266
2012.73387	0.95130
2010.68006	0.94950
2008.62625	0.94815
2006.57244	0.94852
2004.51863	0.94863
2002.46482	0.94831
2000.41101	0.94932
1998.35720	0.95088
1996.30339	0.95152
1994.24958	0.95164
1992.19577	0.95214
1990.14196	0.95160
1988.08815	0.94939
1986.03434	0.94793
1983.98053	0.94807
1981.92672	0.94877
1979.87291	0.94952
1977.81910	0.95080
1975.76529	0.95244
1973.71148	0.95264
1971.65767	0.95153
1969.60386	0.95128
1967.55005	0.95308
1965.49624	0.95492
1963.44243	0.95433
1961.38862	0.95364
1959.33481	0.95415
1957.28100	0.95313
1955.22719	0.95134
1953.17338	0.95117
1951.11957	0.95206
1949.06576	0.95276
1947.01195	0.95292
1944.95814	0.95289
1942.90433	0.95289
1940.85052	0.95284
1938.79671	0.95247
1936.74290	0.95199
1934.68909	0.95197
1932.63528	0.95185
1930.58147	0.95124
1928.52766	0.95058
1926.47385	0.95015
1924.42004	0.95049
1922.36623	0.95132
1920.31242	0.95171
1918.25861	0.95196
1916.20479	0.95209
1914.15098	0.95182
1912.09717	0.95128
1910.04336	0.95046
1907.98955	0.94985
1905.93574	0.94995
1903.88193	0.95048
1901.82812	0.95094
1899.77431	0.95139
1897.72050	0.95169
1895.66669	0.95156
1893.61288	0.95124
1891.55907	0.95107
1889.50526	0.95121
1887.45145	0.95159
1885.39764	0.95194
1883.34383	0.95200
1881.29002	0.95167
1879.23621	0.95141
1877.18240	0.95147
1875.12859	0.95142
1873.07478	0.95091
1871.02097	0.95045
1868.96716	0.95051
1866.91335	0.95071
1864.85954	0.95070
1862.80573	0.95048
1860.75192	0.95022
1858.69811	0.95046
1856.64430	0.95109
1854.59049	0.95147
1852.53668	0.95158
1850.48287	0.95155
1848.42906	0.95117
1846.37525	0.95060
1844.32144	0.95031
1842.26763	0.95029
1840.21382	0.95021
1838.16001	0.95027
1836.10620	0.95054
1834.05239	0.95074
1831.99858	0.95086
1829.94477	0.95074
1827.89096	0.95040
1825.83715	0.95031
1823.78334	0.95047
1821.72953	0.95048
1819.67572	0.95032
1817.62191	0.95029
1815.56810	0.95013
1813.51429	0.94963
1811.46048	0.94931
1809.40667	0.94930
1807.35286	0.94896
1805.29905	0.94808
1803.24524	0.94682
1801.19143	0.94515
1799.13762	0.94352
1797.08381	0.94244
1795.03000	0.94177
1792.97619	0.94186
1790.92238	0.94330
1788.86857	0.94505
1786.81476	0.94618
1784.76095	0.94668
1782.70714	0.94687
1780.65333	0.94710
1778.59952	0.94739
1776.54571	0.94761
1774.49190	0.94771
1772.43809	0.94771
1770.38428	0.94749
1768.33047	0.94712
1766.27666	0.94681
1764.22285	0.94663
1762.16904	0.94635
1760.11523	0.94582
1758.06142	0.94536
1756.00761	0.94487
1753.95380	0.94394
1751.89999	0.94220
1749.84618	0.93953
1747.79237	0.93657
1745.73856	0.93342
1743.68475	0.92949
1741.63094	0.92459
1739.57713	0.91855
1737.52332	0.91264
1735.46951	0.90667
1733.41570	0.89871
1731.36189	0.89187
1729.30808	0.88670
1727.25427	0.88199
1725.20046	0.87836
1723.14665	0.87611
1721.09284	0.87544
1719.03903	0.87684
1716.98522	0.88146
1714.93141	0.88819
1712.87760	0.89495
1710.82379	0.90142
1708.76998	0.90739
1706.71617	0.91293
1704.66236	0.91760
1702.60855	0.92050
1700.55474	0.92270
1698.50093	0.92471
1696.44712	0.92566
1694.39331	0.92586
1692.33950	0.92587
1690.28569	0.92572
1688.23188	0.92528
1686.17807	0.92453
1684.12426	0.92343
1682.07045	0.92261
1680.01664	0.92198
1677.96283	0.92115
1675.90902	0.92032
1673.85521	0.91967
1671.80140	0.91901
1669.74759	0.91789
1667.69378	0.91668
1665.63997	0.91595
1663.58616	0.91517
1661.53235	0.91425
1659.47854	0.91364
1657.42473	0.91321
1655.37092	0.91278
1653.31711	0.91202
1651.26330	0.91145
1649.20949	0.91150
1647.15568	0.91135
1645.10187	0.91103
1643.04806	0.91105
1640.99425	0.91124
1638.94044	0.91137
1636.88663	0.91126
1634.83282	0.91120
1632.77901	0.91153
1630.72520	0.91200
1628.67139	0.91252
1626.61758	0.91298
1624.56377	0.91335
1622.50996	0.91399
1620.45614	0.91479
1618.40233	0.91553
1616.34852	0.91645
1614.29471	0.91750
1612.24090	0.91839
1610.18709	0.91899
1608.13328	0.91926
1606.07947	0.91926
1604.02566	0.91909
1601.97185	0.91887
1599.91804	0.91902
1597.86423	0.91976
1595.81042	0.92087
1593.75661	0.92185
1591.70280	0.92240
1589.64899	0.92250
1587.59518	0.92225
1585.54137	0.92186
1583.48756	0.92127
1581.43375	0.92052
1579.37994	0.92003
1577.32613	0.92021
1575.27232	0.92087
1573.21851	0.92146
1571.16470	0.92174
1569.11089	0.92160
1567.05708	0.92117
1565.00327	0.92070
1562.94946	0.92050
1560.89565	0.92030
1558.84184	0.91870
1556.78803	0.91689
1554.73422	0.91632
1552.68041	0.91577
1550.62660	0.91484
1548.57279	0.91337
1546.51898	0.91172
1544.46517	0.90993
1542.41136	0.90793
1540.35755	0.90533
1538.30374	0.90264
1536.24993	0.90095
1534.19612	0.89882
1532.14231	0.89606
1530.08850	0.89379
1528.03469	0.89152
1525.98088	0.88872
1523.92707	0.88597
1521.87326	0.88259
1519.81945	0.87886
1517.76564	0.87569
1515.71183	0.87269
1513.65802	0.87022
1511.60421	0.86789
1509.55040	0.86507
1507.49659	0.86042
1505.44278	0.85478
1503.38897	0.85157
1501.33516	0.84877
1499.28135	0.84462
1497.22754	0.83883
1495.17373	0.83278
1493.11992	0.82787
1491.06611	0.82212
1489.01230	0.81401
1486.95849	0.80605
1484.90468	0.79928
1482.85087	0.79224
1480.79706	0.78422
1478.74325	0.77620
1476.68944	0.76804
1474.63563	0.75902
1472.58182	0.74860
1470.52801	0.73903
1468.47420	0.73200
1466.42039	0.72489
1464.36658	0.71667
1462.31277	0.70990
1460.25896	0.70501
1458.20515	0.69877
1456.15134	0.69042
1454.09753	0.68488
1452.04372	0.68117
1449.98991	0.67680
1447.93610	0.67120
1445.88229	0.66510
1443.82848	0.65902
1441.77467	0.65167
1439.72086	0.64249
1437.66705	0.62943
1435.61324	0.61323
1433.55943	0.60291
1431.50562	0.59717
1429.45181	0.59015
1427.39800	0.58090
1425.34419	0.57335
1423.29038	0.57178
1421.23657	0.57606
1419.18276	0.58327
1417.12895	0.59136
1415.07514	0.59945
1413.02133	0.60894
1410.96752	0.62082
1408.91371	0.63415
1406.85990	0.64734
1404.80609	0.65938
1402.75228	0.66871
1400.69847	0.67516
1398.64466	0.68006
1396.59085	0.68493
1394.53704	0.69075
1392.48323	0.69667
1390.42942	0.70202
1388.37561	0.70737
1386.32180	0.71266
1384.26799	0.71748
1382.21418	0.72219
1380.16037	0.72746
1378.10656	0.73366
1376.05275	0.74063
1373.99894	0.74850
1371.94513	0.75632
1369.89132	0.76300
1367.83751	0.76856
1365.78370	0.77301
1363.72989	0.77685
1361.67608	0.78047
1359.62227	0.78369
1357.56846	0.78656
1355.51465	0.78959
1353.46084	0.79341
1351.40703	0.79825
1349.35322	0.80353
1347.29941	0.80816
1345.24560	0.81077
1343.19179	0.81018
1341.13798	0.80541
1339.08417	0.79664
1337.03036	0.78727
1334.97655	0.78057
1332.92274	0.77707
1330.86893	0.77593
1328.81512	0.77653
1326.76130	0.77878
1324.70749	0.78242
1322.65368	0.78709
1320.59987	0.79255
1318.54606	0.79829
1316.49225	0.80360
1314.43844	0.80803
1312.38463	0.81154
1310.33082	0.81405
1308.27701	0.81542
1306.22320	0.81548
1304.16939	0.81417
1302.11558	0.81196
1300.06177	0.80926
1298.00796	0.80610
1295.95415	0.80259
1293.90034	0.79910
1291.84653	0.79633
1289.79272	0.79500
1287.73891	0.79501
1285.68510	0.79549
1283.63129	0.79559
1281.57748	0.79491
1279.52367	0.79371
1277.46986	0.79220
1275.41605	0.79041
1273.36224	0.78806
1271.30843	0.78438
1269.25462	0.77862
1267.20081	0.77069
1265.14700	0.76105
1263.09319	0.75062
1261.03938	0.74051
1258.98557	0.73160
1256.93176	0.72498
1254.87795	0.72203
1252.82414	0.72290
1250.77033	0.72567
1248.71652	0.72860
1246.66271	0.73135
1244.60890	0.73421
1242.55509	0.73749
1240.50128	0.74151
1238.44747	0.74660
1236.39366	0.75295
1234.33985	0.76012
1232.28604	0.76753
1230.23223	0.77547
1228.17842	0.78509
1226.12461	0.79705
1224.07080	0.81011
1222.01699	0.82164
1219.96318	0.82985
1217.90937	0.83455
1215.85556	0.83654
1213.80175	0.83683
1211.74794	0.83614
1209.69413	0.83469
1207.64032	0.83269
1205.58651	0.83033
1203.53270	0.82787
1201.47889	0.82570
1199.42508	0.82396
1197.37127	0.82275
1195.31746	0.82240
1193.26365	0.82304
1191.20984	0.82455
1189.15603	0.82677
1187.10222	0.82933
1185.04841	0.83156
1182.99460	0.83314
1180.94079	0.83405
1178.88698	0.83440
1176.83317	0.83448
1174.77936	0.83434
1172.72555	0.83395
1170.67174	0.83331
1168.61793	0.83242
1166.56412	0.83175
1164.51031	0.83210
1162.45650	0.83375
1160.40269	0.83610
1158.34888	0.83840
1156.29507	0.84014
1154.24126	0.84094
1152.18745	0.84069
1150.13364	0.83958
1148.07983	0.83773
1146.02602	0.83494
1143.97221	0.83108
1141.91840	0.82658
1139.86459	0.82230
1137.81078	0.81863
1135.75697	0.81526
1133.70316	0.81187
1131.64935	0.80837
1129.59554	0.80472
1127.54173	0.80117
1125.48792	0.79828
1123.43411	0.79648
1121.38030	0.79579
1119.32649	0.79621
1117.27268	0.79787
1115.21887	0.80016
1113.16506	0.80196
1111.11125	0.80248
1109.05744	0.80111
1107.00363	0.79794
1104.94982	0.79423
1102.89601	0.79127
1100.84220	0.78946
1098.78839	0.78839
1096.73458	0.78769
1094.68077	0.78764
1092.62696	0.78841
1090.57315	0.78942
1088.51934	0.79031
1086.46553	0.79088
1084.41172	0.79034
1082.35791	0.78850
1080.30410	0.78599
1078.25029	0.78356
1076.19648	0.78214
1074.14267	0.78259
1072.08886	0.78522
1070.03505	0.78954
1067.98124	0.79468
1065.92743	0.80013
1063.87362	0.80544
1061.81981	0.80999
1059.76600	0.81367
1057.71219	0.81685
1055.65838	0.81955
1053.60457	0.82130
1051.55076	0.82207
1049.49695	0.82244
1047.44314	0.82243
1045.38933	0.82157
1043.33552	0.81967
1041.28171	0.81727
1039.22790	0.81572
1037.17409	0.81617
1035.12028	0.81842
1033.06647	0.82113
1031.01265	0.82350
1028.95884	0.82573
1026.90503	0.82777
1024.85122	0.82914
1022.79741	0.83007
1020.74360	0.83130
1018.68979	0.83261
1016.63598	0.83338
1014.58217	0.83351
1012.52836	0.83306
1010.47455	0.83260
1008.42074	0.83313
1006.36693	0.83481
1004.31312	0.83666
1002.25931	0.83801
1000.20550	0.83897
998.15169	0.83951
996.09788	0.83966
994.04407	0.83959
991.99026	0.83907
989.93645	0.83800
987.88264	0.83645
985.82883	0.83422
983.77502	0.83110
981.72121	0.82699
979.66740	0.82161
977.61359	0.81493
975.55978	0.80758
973.50597	0.80030
971.45216	0.79367
969.39835	0.78802
967.34454	0.78343
965.29073	0.78036
963.23692	0.77951
961.18311	0.78049
959.12930	0.78257
957.07549	0.78595
955.02168	0.79087
952.96787	0.79663
950.91406	0.80229
948.86025	0.80753
946.80644	0.81257
944.75263	0.81769
942.69882	0.82256
940.64501	0.82670
938.59120	0.83016
936.53739	0.83306
934.48358	0.83563
932.42977	0.83791
930.37596	0.83975
928.32215	0.84132
926.26834	0.84298
924.21453	0.84477
922.16072	0.84650
920.10691	0.84819
918.05310	0.85027
915.99929	0.85277
913.94548	0.85553
911.89167	0.85878
909.83786	0.86227
907.78405	0.86546
905.73024	0.86814
903.67643	0.87029
901.62262	0.87205
899.56881	0.87367
897.51500	0.87528
895.46119	0.87691
893.40738	0.87827
891.35357	0.87900
889.29976	0.87828
887.24595	0.87357
885.19214	0.86126
883.13833	0.83826
881.08452	0.80061
879.03071	0.74473
876.97690	0.67978
874.92309	0.63479
872.86928	0.63549
870.81547	0.67803
868.76166	0.73478
866.70785	0.78024
864.65404	0.80751
862.60023	0.82192
860.54642	0.82991
858.49261	0.83600
856.43880	0.84255
854.38499	0.84959
852.33118	0.85472
850.27737	0.85533
848.22356	0.85380
846.16975	0.85511
844.11594	0.85829
842.06213	0.86034
840.00832	0.86101
837.95451	0.86077
835.90070	0.86022
833.84689	0.85990
831.79308	0.86052
829.73927	0.86266
827.68546	0.86667
825.63165	0.87225
823.57784	0.87807
821.52403	0.88304
819.47022	0.88667
817.41641	0.88877
815.36260	0.88991
813.30879	0.89072
811.25498	0.89154
809.20117	0.89215
807.14736	0.89185
805.09355	0.89095
803.03974	0.89010
800.98593	0.88939
798.93212	0.88854
796.87831	0.88732
794.82450	0.88610
792.77069	0.88558
790.71688	0.88567
788.66307	0.88595
786.60926	0.88632
784.55545	0.88629
782.50164	0.88549
780.44783	0.88445
778.39402	0.88403
776.34021	0.88445
774.28640	0.88496
772.23259	0.88459
770.17878	0.88350
768.12497	0.88254
766.07116	0.88199
764.01735	0.88167
761.96354	0.88135
759.90973	0.88068
757.85592	0.87884
755.80211	0.87548
753.74830	0.87147
751.69449	0.86728
749.64068	0.86222
747.58687	0.85668
745.53306	0.85217
743.47925	0.85030
741.42544	0.85181
739.37163	0.85569
737.31781	0.86031
735.26400	0.86442
733.21019	0.86724
731.15638	0.86879
729.10257	0.86947
727.04876	0.86939
724.99495	0.86850
722.94114	0.86655
720.88733	0.86313
718.83352	0.85618
716.77971	0.83819
714.72590	0.80505
712.67209	0.77725
710.61828	0.77756
708.56447	0.79214
706.51066	0.79914
704.45685	0.79802
702.40304	0.79412
700.34923	0.78914
698.29542	0.78415
696.24161	0.77996
694.18780	0.77670
692.13399	0.77437
690.08018	0.77293
688.02637	0.77217
685.97256	0.77155
683.91875	0.77060
681.86494	0.76983
679.81113	0.77016
677.75732	0.77173
675.70351	0.77435
673.64970	0.77793
671.59589	0.78216
669.54208	0.78801
667.48827	0.79588
665.43446	0.80027
663.38065	0.80145
661.32684	0.80046
659.27303	0.79657
657.21922	0.78958
655.16541	0.77956
653.11160	0.76752
651.05779	0.75562
649.00398	0.74514
646.95017	0.73548
644.89636	0.72584
642.84255	0.71589
640.78874	0.70547
638.73493	0.69623
636.68112	0.69034
634.62731	0.68836
632.57350	0.68875
630.51969	0.68951
628.46588	0.68964
626.41207	0.68777
624.35826	0.68326
622.30445	0.67722
620.25064	0.66975
618.19683	0.65995
616.14302	0.64969
614.08921	0.64102
612.03540	0.63331
609.98159	0.62679
607.92778	0.62437
605.87397	0.62887
603.82016	0.64006
601.76635	0.65587
599.71254	0.67484
597.65873	0.69607
595.60492	0.71718
593.55111	0.73469
591.49730	0.74747
589.44349	0.75680
587.38968	0.76428
585.33587	0.77125
583.28206	0.77782
581.22825	0.78388
579.17444	0.78890
577.12063	0.79262
575.06682	0.79570
573.01301	0.79813
570.95920	0.79984
568.90539	0.80154
566.85158	0.80421
564.79777	0.80728
562.74396	0.80918
560.69015	0.80999
558.63634	0.81146
556.58253	0.81342
554.52872	0.81457
552.47491	0.81586
550.42110	0.81746
548.36729	0.81845
546.31348	0.81880
544.25967	0.81833
542.20586	0.81750
540.15205	0.81738
538.09824	0.81809
536.04443	0.81945
533.99062	0.82113
531.93681	0.82264
529.88300	0.82422
527.82919	0.82552
525.77538	0.82553
523.72157	0.82490
521.66776	0.82447
519.61395	0.82411
517.56014	0.82425
515.50633	0.82522
513.45252	0.82655
511.39871	0.82806
509.34490	0.83012
507.29109	0.83195
505.23728	0.83236
503.18347	0.83139
501.12966	0.82988
499.07585	0.82926
497.02204	0.82877
494.96823	0.82705
492.91442	0.82501
490.86061	0.82406
488.80680	0.82434
486.75299	0.82415
484.69918	0.82274
482.64537	0.82154
480.59156	0.82098
478.53775	0.82041
476.48394	0.81934
474.43013	0.81760
472.37632	0.81618
470.32251	0.81686
468.26870	0.82005
466.21489	0.82399
464.16108	0.82651
462.10727	0.82837
460.05346	0.82953
457.99965	0.82830
455.94584	0.82613
453.89203	0.82451
451.83822	0.82459
449.78441	0.82773
447.73060	0.83117
445.67679	0.83299
443.62298	0.83366
441.56916	0.83179
439.51535	0.82728
437.46154	0.82139
435.40773	0.81551
433.35392	0.81236
431.30011	0.81157
429.24630	0.81011
427.19249	0.80846
425.13868	0.80917
423.08487	0.81116
421.03106	0.81124
418.97725	0.80964
416.92344	0.80910
414.86963	0.80923
412.81582	0.80997
410.76201	0.81080
408.70820	0.80916
406.65439	0.80653
404.60058	0.80538
402.54677	0.80296
400.49296	0.79988
398.43915	0.80113
