3996.70104	0.98893
3994.64724	0.98892
3992.59344	0.98932
3990.53964	0.99004
3988.48583	0.99033
3986.43203	0.98973
3984.37823	0.98939
3982.32442	0.98990
3980.27062	0.99021
3978.21682	0.99009
3976.16301	0.98987
3974.10921	0.98949
3972.05541	0.98933
3970.00160	0.98961
3967.94780	0.99012
3965.89400	0.99045
3963.84019	0.99036
3961.78639	0.99010
3959.73259	0.98994
3957.67878	0.99011
3955.62498	0.99063
3953.57118	0.99114
3951.51737	0.99109
3949.46357	0.99066
3947.40977	0.99085
3945.35596	0.99129
3943.30216	0.99079
3941.24836	0.98960
3939.19455	0.98886
3937.14075	0.98905
3935.08695	0.98990
3933.03315	0.99059
3930.97934	0.99067
3928.92554	0.99029
3926.87174	0.98981
3924.81793	0.98941
3922.76413	0.98913
3920.71033	0.98896
3918.65652	0.98901
3916.60272	0.98940
3914.54892	0.98947
3912.49511	0.98915
3910.44131	0.98905
3908.38751	0.98936
3906.33370	0.98984
3904.27990	0.98980
3902.22610	0.98930
3900.17229	0.98950
3898.11849	0.98980
3896.06469	0.98958
3894.01088	0.98965
3891.95708	0.99029
3889.90328	0.99074
3887.84947	0.99070
3885.79567	0.99042
3883.74187	0.99001
3881.68807	0.98997
3879.63426	0.99039
3877.58046	0.99051
3875.52666	0.99027
3873.47285	0.99018
3871.41905	0.99035
3869.36525	0.99005
3867.31144	0.98977
3865.25764	0.99039
3863.20384	0.99082
3861.15003	0.99032
3859.09623	0.99015
3857.04243	0.99039
3854.98862	0.99028
3852.93482	0.98960
3850.88102	0.98877
3848.82721	0.98855
3846.77341	0.98901
3844.71961	0.98966
3842.66580	0.99015
3840.61200	0.99036
3838.55820	0.99047
3836.50439	0.99106
3834.45059	0.99178
3832.39679	0.99196
3830.34298	0.99157
3828.28918	0.99114
3826.23538	0.99099
3824.18158	0.99086
3822.12777	0.99049
3820.07397	0.99045
3818.02017	0.99050
3815.96636	0.99004
3813.91256	0.98984
3811.85876	0.98985
3809.80495	0.98965
3807.75115	0.98963
3805.69735	0.98994
3803.64354	0.99037
3801.58974	0.99050
3799.53594	0.99028
3797.48213	0.99032
3795.42833	0.99047
3793.37453	0.99032
3791.32072	0.99007
3789.26692	0.99021
3787.21312	0.99051
3785.15931	0.99034
3783.10551	0.98998
3781.05171	0.98969
3778.99790	0.98934
3776.94410	0.98941
3774.89030	0.98972
3772.83650	0.98947
3770.78269	0.98905
3768.72889	0.98936
3766.67509	0.98978
3764.62128	0.98965
3762.56748	0.98962
3760.51368	0.98994
3758.45987	0.99044
3756.40607	0.99112
3754.35227	0.99144
3752.29846	0.99095
3750.24466	0.98994
3748.19086	0.98936
3746.13705	0.98967
3744.08325	0.99038
3742.02945	0.99018
3739.97564	0.98955
3737.92184	0.98947
3735.86804	0.98974
3733.81423	0.98979
3731.76043	0.98964
3729.70663	0.98970
3727.65282	0.99010
3725.59902	0.99024
3723.54522	0.99001
3721.49141	0.98999
3719.43761	0.98976
3717.38381	0.98913
3715.33001	0.98869
3713.27620	0.98852
3711.22240	0.98769
3709.16860	0.98627
3707.11479	0.98581
3705.06099	0.98592
3703.00719	0.98575
3700.95338	0.98519
3698.89958	0.98457
3696.84578	0.98419
3694.79197	0.98412
3692.73817	0.98417
3690.68437	0.98404
3688.63056	0.98346
3686.57676	0.98314
3684.52296	0.98349
3682.46915	0.98377
3680.41535	0.98350
3678.36155	0.98315
3676.30774	0.98282
3674.25394	0.98217
3672.20014	0.98170
3670.14633	0.98109
3668.09253	0.98065
3666.03873	0.98076
3663.98492	0.98057
3661.93112	0.97996
3659.87732	0.97942
3657.82352	0.97899
3655.76971	0.97830
3653.71591	0.97729
3651.66211	0.97637
3649.60830	0.97577
3647.55450	0.97541
3645.50070	0.97512
3643.44689	0.97494
3641.39309	0.97472
3639.33929	0.97439
3637.28548	0.97408
3635.23168	0.97353
3633.17788	0.97249
3631.12407	0.97147
3629.07027	0.97078
3627.01647	0.97018
3624.96266	0.96975
3622.90886	0.96983
3620.85506	0.97042
3618.80125	0.97094
3616.74745	0.97130
3614.69365	0.97115
3612.63984	0.96995
3610.58604	0.96899
3608.53224	0.96955
3606.47844	0.97069
3604.42463	0.97093
3602.37083	0.97032
3600.31703	0.96963
3598.26322	0.96944
3596.20942	0.96954
3594.15562	0.96960
3592.10181	0.96967
3590.04801	0.96999
3587.99421	0.97001
3585.94040	0.96893
3583.88660	0.96799
3581.83280	0.96767
3579.77899	0.96756
3577.72519	0.96787
3575.67139	0.96846
3573.61758	0.96851
3571.56378	0.96811
3569.50998	0.96816
3567.45617	0.96827
3565.40237	0.96775
3563.34857	0.96721
3561.29476	0.96677
3559.24096	0.96646
3557.18716	0.96622
3555.13335	0.96607
3553.07955	0.96590
3551.02575	0.96537
3548.97195	0.96468
3546.91814	0.96437
3544.86434	0.96456
3542.81054	0.96462
3540.75673	0.96455
3538.70293	0.96459
3536.64913	0.96426
3534.59532	0.96371
3532.54152	0.96376
3530.48772	0.96399
3528.43391	0.96378
3526.38011	0.96367
3524.32631	0.96372
3522.27250	0.96348
3520.21870	0.96323
3518.16490	0.96352
3516.11109	0.96406
3514.05729	0.96435
3512.00349	0.96454
3509.94968	0.96462
3507.89588	0.96431
3505.84208	0.96380
3503.78827	0.96364
3501.73447	0.96392
3499.68067	0.96405
3497.62687	0.96396
3495.57306	0.96365
3493.51926	0.96295
3491.46546	0.96241
3489.41165	0.96223
3487.35785	0.96213
3485.30405	0.96230
3483.25024	0.96250
3481.19644	0.96216
3479.14264	0.96168
3477.08883	0.96151
3475.03503	0.96164
3472.98123	0.96205
3470.92742	0.96265
3468.87362	0.96307
3466.81982	0.96286
3464.76601	0.96221
3462.71221	0.96174
3460.65841	0.96160
3458.60460	0.96162
3456.55080	0.96142
3454.49700	0.96070
3452.44319	0.96003
3450.38939	0.96028
3448.33559	0.96097
3446.28178	0.96101
3444.22798	0.96089
3442.17418	0.96107
3440.12038	0.96050
3438.06657	0.95941
3436.01277	0.95931
3433.95897	0.95966
3431.90516	0.95950
3429.85136	0.95940
3427.79756	0.95934
3425.74375	0.95903
3423.68995	0.95914
3421.63615	0.95968
3419.58234	0.96001
3417.52854	0.96033
3415.47474	0.96072
3413.42093	0.96072
3411.36713	0.96048
3409.31333	0.96034
3407.25952	0.96019
3405.20572	0.96014
3403.15192	0.96042
3401.09811	0.96051
3399.04431	0.95993
3396.99051	0.95922
3394.93670	0.95936
3392.88290	0.96032
3390.82910	0.96089
3388.77529	0.96071
3386.72149	0.96069
3384.66769	0.96112
3382.61389	0.96131
3380.56008	0.96136
3378.50628	0.96191
3376.45248	0.96222
3374.39867	0.96197
3372.34487	0.96167
3370.29107	0.96126
3368.23726	0.96078
3366.18346	0.96058
3364.12966	0.96077
3362.07585	0.96114
3360.02205	0.96163
3357.96825	0.96224
3355.91444	0.96269
3353.86064	0.96260
3351.80684	0.96237
3349.75303	0.96286
3347.69923	0.96351
3345.64543	0.96345
3343.59162	0.96336
3341.53782	0.96364
3339.48402	0.96369
3337.43021	0.96366
3335.37641	0.96411
3333.32261	0.96471
3331.26881	0.96472
3329.21500	0.96423
3327.16120	0.96384
3325.10740	0.96398
3323.05359	0.96442
3320.99979	0.96419
3318.94599	0.96358
3316.89218	0.96359
3314.83838	0.96418
3312.78458	0.96498
3310.73077	0.96580
3308.67697	0.96629
3306.62317	0.96613
3304.56936	0.96581
3302.51556	0.96595
3300.46176	0.96633
3298.40795	0.96637
3296.35415	0.96616
3294.30035	0.96614
3292.24654	0.96631
3290.19274	0.96650
3288.13894	0.96658
3286.08513	0.96648
3284.03133	0.96646
3281.97753	0.96688
3279.92372	0.96743
3277.86992	0.96757
3275.81612	0.96752
3273.76232	0.96755
3271.70851	0.96761
3269.65471	0.96802
3267.60091	0.96847
3265.54710	0.96839
3263.49330	0.96808
3261.43950	0.96784
3259.38569	0.96778
3257.33189	0.96787
3255.27809	0.96794
3253.22428	0.96799
3251.17048	0.96812
3249.11668	0.96854
3247.06287	0.96925
3245.00907	0.96958
3242.95527	0.96940
3240.90146	0.96962
3238.84766	0.97004
3236.79386	0.96973
3234.74005	0.96887
3232.68625	0.96836
3230.63245	0.96856
3228.57864	0.96891
3226.52484	0.96918
3224.47104	0.96963
3222.41724	0.97009
3220.36343	0.97058
3218.30963	0.97120
3216.25583	0.97157
3214.20202	0.97141
3212.14822	0.97078
3210.09442	0.97017
3208.04061	0.97029
3205.98681	0.97091
3203.93301	0.97125
3201.87920	0.97157
3199.82540	0.97204
3197.77160	0.97222
3195.71779	0.97230
3193.66399	0.97243
3191.61019	0.97250
3189.55638	0.97247
3187.50258	0.97255
3185.44878	0.97280
3183.39497	0.97284
3181.34117	0.97271
3179.28737	0.97294
3177.23356	0.97338
3175.17976	0.97374
3173.12596	0.97401
3171.07215	0.97403
3169.01835	0.97415
3166.96455	0.97430
3164.91075	0.97394
3162.85694	0.97344
3160.80314	0.97351
3158.74934	0.97423
3156.69553	0.97501
3154.64173	0.97525
3152.58793	0.97515
3150.53412	0.97505
3148.48032	0.97519
3146.42652	0.97580
3144.37271	0.97634
3142.31891	0.97616
3140.26511	0.97599
3138.21130	0.97642
3136.15750	0.97679
3134.10370	0.97666
3132.04989	0.97631
3129.99609	0.97609
3127.94229	0.97603
3125.88848	0.97621
3123.83468	0.97650
3121.78088	0.97658
3119.72707	0.97656
3117.67327	0.97667
3115.61947	0.97693
3113.56566	0.97718
3111.51186	0.97706
3109.45806	0.97685
3107.40426	0.97717
3105.35045	0.97742
3103.29665	0.97726
3101.24285	0.97747
3099.18904	0.97792
3097.13524	0.97801
3095.08144	0.97787
3093.02763	0.97779
3090.97383	0.97775
3088.92003	0.97786
3086.86622	0.97797
3084.81242	0.97763
3082.75862	0.97740
3080.70481	0.97771
3078.65101	0.97812
3076.59721	0.97836
3074.54340	0.97851
3072.48960	0.97874
3070.43580	0.97893
3068.38199	0.97914
3066.32819	0.97934
3064.27439	0.97923
3062.22058	0.97908
3060.16678	0.97912
3058.11298	0.97919
3056.05918	0.97912
3054.00537	0.97892
3051.95157	0.97893
3049.89777	0.97951
3047.84396	0.98024
3045.79016	0.98032
3043.73636	0.98019
3041.68255	0.98024
3039.62875	0.98013
3037.57495	0.98043
3035.52114	0.98102
3033.46734	0.98094
3031.41354	0.98064
3029.35973	0.98072
3027.30593	0.98090
3025.25213	0.98112
3023.19832	0.98136
3021.14452	0.98148
3019.09072	0.98168
3017.03691	0.98193
3014.98311	0.98160
3012.92931	0.98093
3010.87550	0.98084
3008.82170	0.98119
3006.76790	0.98119
3004.71409	0.98077
3002.66029	0.98043
3000.60649	0.98027
2998.55269	0.97980
2996.49888	0.97899
2994.44508	0.97802
2992.39128	0.97711
2990.33747	0.97634
2988.28367	0.97546
2986.22987	0.97427
2984.17606	0.97289
2982.12226	0.97143
2980.06846	0.96988
2978.01465	0.96843
2975.96085	0.96711
2973.90705	0.96598
2971.85324	0.96515
2969.79944	0.96435
2967.74564	0.96381
2965.69183	0.96374
2963.63803	0.96377
2961.58423	0.96403
2959.53042	0.96470
2957.47662	0.96557
2955.42282	0.96628
2953.36901	0.96663
2951.31521	0.96704
2949.26141	0.96759
2947.20761	0.96802
2945.15380	0.96841
2943.10000	0.96884
2941.04620	0.96911
2938.99239	0.96904
2936.93859	0.96878
2934.88479	0.96877
2932.83098	0.96909
2930.77718	0.96951
2928.72338	0.97008
2926.66957	0.97061
2924.61577	0.97107
2922.56197	0.97170
2920.50816	0.97238
2918.45436	0.97287
2916.40056	0.97321
2914.34675	0.97369
2912.29295	0.97448
2910.23915	0.97501
2908.18534	0.97491
2906.13154	0.97482
2904.07774	0.97486
2902.02393	0.97463
2899.97013	0.97451
2897.91633	0.97460
2895.86252	0.97450
2893.80872	0.97428
2891.75492	0.97422
2889.70112	0.97438
2887.64731	0.97466
2885.59351	0.97484
2883.53971	0.97495
2881.48590	0.97508
2879.43210	0.97503
2877.37830	0.97509
2875.32449	0.97554
2873.27069	0.97608
2871.21689	0.97658
2869.16308	0.97694
2867.10928	0.97731
2865.05548	0.97806
2863.00167	0.97903
2860.94787	0.97959
2858.89407	0.97972
2856.84026	0.97970
2854.78646	0.97971
2852.73266	0.98005
2850.67885	0.98072
2848.62505	0.98137
2846.57125	0.98175
2844.51744	0.98204
2842.46364	0.98239
2840.40984	0.98244
2838.35603	0.98237
2836.30223	0.98270
2834.24843	0.98319
2832.19463	0.98345
2830.14082	0.98353
2828.08702	0.98346
2826.03322	0.98332
2823.97941	0.98348
2821.92561	0.98395
2819.87181	0.98451
2817.81800	0.98495
2815.76420	0.98487
2813.71040	0.98455
2811.65659	0.98466
2809.60279	0.98497
2807.54899	0.98491
2805.49518	0.98471
2803.44138	0.98488
2801.38758	0.98529
2799.33377	0.98537
2797.27997	0.98510
2795.22617	0.98499
2793.17236	0.98514
2791.11856	0.98537
2789.06476	0.98548
2787.01095	0.98552
2784.95715	0.98564
2782.90335	0.98554
2780.84955	0.98544
2778.79574	0.98560
2776.74194	0.98569
2774.68814	0.98568
2772.63433	0.98570
2770.58053	0.98572
2768.52673	0.98579
2766.47292	0.98596
2764.41912	0.98609
2762.36532	0.98603
2760.31151	0.98584
2758.25771	0.98578
2756.20391	0.98582
2754.15010	0.98580
2752.09630	0.98595
2750.04250	0.98632
2747.98869	0.98648
2745.93489	0.98632
2743.88109	0.98621
2741.82728	0.98631
2739.77348	0.98654
2737.71968	0.98694
2735.66587	0.98720
2733.61207	0.98689
2731.55827	0.98630
2729.50446	0.98605
2727.45066	0.98628
2725.39686	0.98671
2723.34306	0.98695
2721.28925	0.98681
2719.23545	0.98663
2717.18165	0.98657
2715.12784	0.98654
2713.07404	0.98659
2711.02024	0.98654
2708.96643	0.98642
2706.91263	0.98669
2704.85883	0.98722
2702.80502	0.98757
2700.75122	0.98771
2698.69742	0.98771
2696.64361	0.98742
2694.58981	0.98703
2692.53601	0.98711
2690.48220	0.98760
2688.42840	0.98783
2686.37460	0.98761
2684.32079	0.98727
2682.26699	0.98728
2680.21319	0.98738
2678.15938	0.98715
2676.10558	0.98697
2674.05178	0.98725
2671.99797	0.98783
2669.94417	0.98822
2667.89037	0.98807
2665.83657	0.98746
2663.78276	0.98696
2661.72896	0.98694
2659.67516	0.98705
2657.62135	0.98709
2655.56755	0.98697
2653.51375	0.98670
2651.45994	0.98687
2649.40614	0.98744
2647.35234	0.98750
2645.29853	0.98702
2643.24473	0.98673
2641.19093	0.98700
2639.13712	0.98750
2637.08332	0.98782
2635.02952	0.98782
2632.97571	0.98756
2630.92191	0.98752
2628.86811	0.98763
2626.81430	0.98743
2624.76050	0.98719
2622.70670	0.98724
2620.65289	0.98760
2618.59909	0.98802
2616.54529	0.98803
2614.49149	0.98770
2612.43768	0.98739
2610.38388	0.98722
2608.33008	0.98729
2606.27627	0.98768
2604.22247	0.98845
2602.16867	0.98900
2600.11486	0.98890
2598.06106	0.98863
2596.00726	0.98848
2593.95345	0.98829
2591.89965	0.98809
2589.84585	0.98807
2587.79204	0.98813
2585.73824	0.98839
2583.68444	0.98884
2581.63063	0.98874
2579.57683	0.98818
2577.52303	0.98789
2575.46922	0.98789
2573.41542	0.98805
2571.36162	0.98834
2569.30781	0.98823
2567.25401	0.98773
2565.20021	0.98785
2563.14640	0.98862
2561.09260	0.98917
2559.03880	0.98932
2556.98500	0.98927
2554.93119	0.98925
2552.87739	0.98920
2550.82359	0.98915
2548.76978	0.98920
2546.71598	0.98896
2544.66218	0.98850
2542.60837	0.98833
2540.55457	0.98839
2538.50077	0.98830
2536.44696	0.98807
2534.39316	0.98790
2532.33936	0.98813
2530.28555	0.98850
2528.23175	0.98859
2526.17795	0.98878
2524.12414	0.98892
2522.07034	0.98880
2520.01654	0.98908
2517.96273	0.98972
2515.90893	0.98959
2513.85513	0.98881
2511.80132	0.98856
2509.74752	0.98899
2507.69372	0.98945
2505.63992	0.98977
2503.58611	0.99038
2501.53231	0.99101
2499.47851	0.99078
2497.42470	0.99005
2495.37090	0.98963
2493.31710	0.98952
2491.26329	0.98951
2489.20949	0.98951
2487.15569	0.98959
2485.10188	0.98953
2483.04808	0.98935
2480.99428	0.98935
2478.94047	0.98925
2476.88667	0.98897
2474.83287	0.98900
2472.77906	0.98916
2470.72526	0.98906
2468.67146	0.98929
2466.61765	0.99003
2464.56385	0.99040
2462.51005	0.99007
2460.45624	0.98991
2458.40244	0.99011
2456.34864	0.98955
2454.29483	0.98855
2452.24103	0.98817
2450.18723	0.98825
2448.13343	0.98873
2446.07962	0.98945
2444.02582	0.98957
2441.97202	0.98895
2439.91821	0.98830
2437.86441	0.98830
2435.81061	0.98894
2433.75680	0.98921
2431.70300	0.98897
2429.64920	0.98937
2427.59539	0.99014
2425.54159	0.98966
2423.48779	0.98863
2421.43398	0.98862
2419.38018	0.98917
2417.32638	0.98944
2415.27257	0.98933
2413.21877	0.98918
2411.16497	0.98948
2409.11116	0.98978
2407.05736	0.98964
2405.00356	0.98959
2402.94975	0.98972
2400.89595	0.98979
2398.84215	0.98990
2396.78834	0.98988
2394.73454	0.98977
2392.68074	0.98974
2390.62694	0.98960
2388.57313	0.98951
2386.51933	0.98984
2384.46553	0.99019
2382.41172	0.98990
2380.35792	0.98917
2378.30412	0.98884
2376.25031	0.98897
2374.19651	0.98925
2372.14271	0.98989
2370.08890	0.99049
2368.03510	0.99063
2365.98130	0.99012
2363.92749	0.98891
2361.87369	0.98723
2359.81989	0.98561
2357.76608	0.98557
2355.71228	0.98689
2353.65848	0.98824
2351.60467	0.98914
2349.55087	0.98957
2347.49707	0.99013
2345.44326	0.99069
2343.38946	0.98985
2341.33566	0.98795
2339.28186	0.98740
2337.22805	0.98851
2335.17425	0.98943
2333.12045	0.98921
2331.06664	0.98868
2329.01284	0.98895
2326.95904	0.98911
2324.90523	0.98815
2322.85143	0.98733
2320.79763	0.98761
2318.74382	0.98811
2316.69002	0.98786
2314.63622	0.98742
2312.58241	0.98782
2310.52861	0.98856
2308.47481	0.98853
2306.42100	0.98794
2304.36720	0.98774
2302.31340	0.98823
2300.25959	0.98850
2298.20579	0.98792
2296.15199	0.98765
2294.09818	0.98854
2292.04438	0.98943
2289.99058	0.98938
2287.93677	0.98856
2285.88297	0.98770
2283.82917	0.98712
2281.77537	0.98662
2279.72156	0.98679
2277.66776	0.98791
2275.61396	0.98912
2273.56015	0.98999
2271.50635	0.99012
2269.45255	0.98944
2267.39874	0.98955
2265.34494	0.99014
2263.29114	0.98895
2261.23733	0.98729
2259.18353	0.98749
2257.12973	0.98928
2255.07592	0.99109
2253.02212	0.99127
2250.96832	0.99029
2248.91451	0.98978
2246.86071	0.98956
2244.80691	0.98874
2242.75310	0.98819
2240.69930	0.98817
2238.64550	0.98800
2236.59169	0.98876
2234.53789	0.99045
2232.48409	0.99134
2230.43029	0.99168
2228.37648	0.99186
2226.32268	0.99170
2224.26888	0.99164
2222.21507	0.99073
2220.16127	0.98934
2218.10747	0.98909
2216.05366	0.98929
2213.99986	0.98890
2211.94606	0.98857
2209.89225	0.98993
2207.83845	0.99181
2205.78465	0.99152
2203.73084	0.98997
2201.67704	0.98897
2199.62324	0.98727
2197.56943	0.98538
2195.51563	0.98637
2193.46183	0.98935
2191.40802	0.99170
2189.35422	0.99299
2187.30042	0.99293
2185.24661	0.99175
2183.19281	0.99161
2181.13901	0.99269
2179.08520	0.99161
2177.03140	0.98842
2174.97760	0.98676
2172.92380	0.98692
2170.86999	0.98680
2168.81619	0.98705
2166.76239	0.98835
2164.70858	0.98858
2162.65478	0.98790
2160.60098	0.98932
2158.54717	0.99407
2156.49337	0.99679
2154.43957	0.99418
2152.38576	0.99178
2150.33196	0.99117
2148.27816	0.99060
2146.22435	0.99138
2144.17055	0.99375
2142.11675	0.99504
2140.06294	0.99337
2138.00914	0.99123
2135.95534	0.99117
2133.90153	0.99285
2131.84773	0.99479
2129.79393	0.99474
2127.74012	0.99309
2125.68632	0.99210
2123.63252	0.99160
2121.57871	0.99093
2119.52491	0.99052
2117.47111	0.99042
2115.41731	0.99046
2113.36350	0.99051
2111.30970	0.99020
2109.25590	0.98929
2107.20209	0.98868
2105.14829	0.98904
2103.09449	0.98930
2101.04068	0.98880
2098.98688	0.98881
2096.93308	0.99004
2094.87927	0.99083
2092.82547	0.99003
2090.77167	0.98925
2088.71786	0.98936
2086.66406	0.98958
2084.61026	0.98972
2082.55645	0.98974
2080.50265	0.98971
2078.44885	0.98942
2076.39504	0.98945
2074.34124	0.99105
2072.28744	0.99288
2070.23363	0.99262
2068.17983	0.99101
2066.12603	0.98982
2064.07223	0.98865
2062.01842	0.98778
2059.96462	0.98844
2057.91082	0.98951
2055.85701	0.98957
2053.80321	0.98937
2051.74941	0.98899
2049.69560	0.98819
2047.64180	0.98799
2045.58800	0.98846
2043.53419	0.98981
2041.48039	0.99196
2039.42659	0.99259
2037.37278	0.99066
2035.31898	0.98830
2033.26518	0.98758
2031.21137	0.98859
2029.15757	0.99125
2027.10377	0.99445
2025.04996	0.99585
2022.99616	0.99502
2020.94236	0.99408
2018.88855	0.99312
2016.83475	0.99097
2014.78095	0.98949
2012.72714	0.98966
2010.67334	0.99024
2008.61954	0.99157
2006.56574	0.99475
2004.51193	0.99738
2002.45813	0.99691
2000.40433	0.99414
1998.35052	0.99059
1996.29672	0.98873
1994.24292	0.98944
1992.18911	0.99045
1990.13531	0.99048
1988.08151	0.99008
1986.02770	0.99099
1983.97390	0.99327
1981.92010	0.99256
1979.86629	0.98955
1977.81249	0.99082
1975.75869	0.99369
1973.70488	0.99308
1971.65108	0.99234
1969.59728	0.99319
1967.54347	0.99362
1965.48967	0.99178
1963.43587	0.98936
1961.38206	0.98915
1959.32826	0.99029
1957.27446	0.99133
1955.22066	0.99126
1953.16685	0.98985
1951.11305	0.98907
1949.05925	0.99000
1947.00544	0.99107
1944.95164	0.99135
1942.89784	0.99202
1940.84403	0.99292
1938.79023	0.99271
1936.73643	0.99121
1934.68262	0.98984
1932.62882	0.99018
1930.57502	0.99111
1928.52121	0.99129
1926.46741	0.99139
1924.41361	0.99142
1922.35980	0.99026
1920.30600	0.98861
1918.25220	0.98810
1916.19839	0.98806
1914.14459	0.98808
1912.09079	0.98882
1910.03698	0.98938
1907.98318	0.98969
1905.92938	0.99040
1903.87557	0.99082
1901.82177	0.99087
1899.76797	0.99077
1897.71417	0.99062
1895.66036	0.99091
1893.60656	0.99127
1891.55276	0.99099
1889.49895	0.99034
1887.44515	0.99028
1885.39135	0.99075
1883.33754	0.99079
1881.28374	0.99020
1879.22994	0.98948
1877.17613	0.98907
1875.12233	0.98924
1873.06853	0.98979
1871.01472	0.98993
1868.96092	0.98960
1866.90712	0.98951
1864.85331	0.98967
1862.79951	0.98992
1860.74571	0.99017
1858.69190	0.99016
1856.63810	0.99009
1854.58430	0.99063
1852.53049	0.99113
1850.47669	0.99047
1848.42289	0.98942
1846.36908	0.98931
1844.31528	0.98986
1842.26148	0.98985
1840.20768	0.98948
1838.15387	0.98938
1836.10007	0.98918
1834.04627	0.98875
1831.99246	0.98863
1829.93866	0.98847
1827.88486	0.98759
1825.83105	0.98713
1823.77725	0.98786
1821.72345	0.98838
1819.66964	0.98841
1817.61584	0.98907
1815.56204	0.98995
1813.50823	0.99000
1811.45443	0.98934
1809.40063	0.98875
1807.34682	0.98868
1805.29302	0.98880
1803.23922	0.98857
1801.18541	0.98796
1799.13161	0.98771
1797.07781	0.98796
1795.02400	0.98815
1792.97020	0.98798
1790.91640	0.98755
1788.86260	0.98730
1786.80879	0.98728
1784.75499	0.98720
1782.70119	0.98696
1780.64738	0.98659
1778.59358	0.98650
1776.53978	0.98706
1774.48597	0.98773
1772.43217	0.98760
1770.37837	0.98668
1768.32456	0.98607
1766.27076	0.98598
1764.21696	0.98585
1762.16315	0.98535
1760.10935	0.98461
1758.05555	0.98355
1756.00174	0.98234
1753.94794	0.98149
1751.89414	0.98058
1749.84033	0.97850
1747.78653	0.97496
1745.73273	0.97033
1743.67892	0.96458
1741.62512	0.95713
1739.57132	0.94698
1737.51751	0.93708
1735.46371	0.92741
1733.40991	0.91317
1731.35611	0.89980
1729.30230	0.88934
1727.24850	0.87971
1725.19470	0.87115
1723.14089	0.86320
1721.08709	0.85688
1719.03329	0.85156
1716.97948	0.84629
1714.92568	0.84532
1712.87188	0.84906
1710.81807	0.85532
1708.76427	0.86320
1706.71047	0.87212
1704.65666	0.88059
1702.60286	0.88657
1700.54906	0.89102
1698.49525	0.89438
1696.44145	0.89723
1694.38765	0.90025
1692.33384	0.90302
1690.28004	0.90604
1688.22624	0.90960
1686.17243	0.91332
1684.11863	0.91765
1682.06483	0.92161
1680.01103	0.92476
1677.95722	0.92800
1675.90342	0.93168
1673.84962	0.93524
1671.79581	0.93779
1669.74201	0.94074
1667.68821	0.94423
1665.63440	0.94684
1663.58060	0.94893
1661.52680	0.95075
1659.47299	0.95225
1657.41919	0.95346
1655.36539	0.95445
1653.31158	0.95570
1651.25778	0.95756
1649.20398	0.95881
1647.15017	0.95939
1645.09637	0.95977
1643.04257	0.96024
1640.98876	0.96062
1638.93496	0.96096
1636.88116	0.96121
1634.82735	0.96144
1632.77355	0.96199
1630.71975	0.96246
1628.66594	0.96275
1626.61214	0.96305
1624.55834	0.96307
1622.50454	0.96272
1620.45073	0.96273
1618.39693	0.96287
1616.34313	0.96244
1614.28932	0.96182
1612.23552	0.96144
1610.18172	0.96146
1608.12791	0.96224
1606.07411	0.96312
1604.02031	0.96361
1601.96650	0.96441
1599.91270	0.96568
1597.85890	0.96685
1595.80509	0.96763
1593.75129	0.96803
1591.69749	0.96820
1589.64368	0.96803
1587.58988	0.96762
1585.53608	0.96737
1583.48227	0.96699
1581.42847	0.96600
1579.37467	0.96500
1577.32086	0.96516
1575.26706	0.96688
1573.21326	0.96848
1571.15945	0.96950
1569.10565	0.97028
1567.05185	0.97116
1564.99805	0.97219
1562.94424	0.97276
1560.89044	0.97300
1558.83664	0.97361
1556.78283	0.97392
1554.72903	0.97378
1552.67523	0.97399
1550.62142	0.97438
1548.56762	0.97448
1546.51382	0.97437
1544.46001	0.97432
1542.40621	0.97465
1540.35241	0.97479
1538.29860	0.97410
1536.24480	0.97361
1534.19100	0.97314
1532.13719	0.97240
1530.08339	0.97160
1528.02959	0.97075
1525.97578	0.96984
1523.92198	0.96889
1521.86818	0.96764
1519.81437	0.96666
1517.76057	0.96633
1515.70677	0.96565
1513.65297	0.96456
1511.59916	0.96359
1509.54536	0.96233
1507.49156	0.95853
1505.43775	0.95394
1503.38395	0.95382
1501.33015	0.95533
1499.27634	0.95651
1497.22254	0.95667
1495.16874	0.95617
1493.11493	0.95565
1491.06113	0.95477
1489.00733	0.95271
1486.95352	0.94954
1484.89972	0.94617
1482.84592	0.94222
1480.79211	0.93665
1478.73831	0.93042
1476.68451	0.92466
1474.63070	0.91962
1472.57690	0.91616
1470.52310	0.91527
1468.46929	0.91582
1466.41549	0.91608
1464.36169	0.91560
1462.30788	0.91551
1460.25408	0.91626
1458.20028	0.91727
1456.14648	0.91853
1454.09267	0.92081
1452.03887	0.92397
1449.98507	0.92749
1447.93126	0.93109
1445.87746	0.93470
1443.82366	0.93782
1441.76985	0.94011
1439.71605	0.94170
1437.66225	0.94328
1435.60844	0.94499
1433.55464	0.94647
1431.50084	0.94813
1429.44703	0.94992
1427.39323	0.95113
1425.33943	0.95167
1423.28562	0.95210
1421.23182	0.95292
1419.17802	0.95327
1417.12421	0.95201
1415.07041	0.94939
1413.01661	0.94454
1410.96280	0.93712
1408.90900	0.93060
1406.85520	0.92866
1404.80139	0.93119
1402.74759	0.93556
1400.69379	0.94027
1398.63999	0.94589
1396.58618	0.95165
1394.53238	0.95594
1392.47858	0.95793
1390.42477	0.95800
1388.37097	0.95665
1386.31717	0.95370
1384.26336	0.94932
1382.20956	0.94412
1380.15576	0.93851
1378.10195	0.93302
1376.04815	0.92847
1373.99435	0.92563
1371.94054	0.92562
1369.88674	0.92904
1367.83294	0.93539
1365.77913	0.94311
1363.72533	0.95139
1361.67153	0.95928
1359.61772	0.96467
1357.56392	0.96756
1355.51012	0.96908
1353.45631	0.97026
1351.40251	0.97149
1349.34871	0.97248
1347.29491	0.97293
1345.24110	0.97319
1343.18730	0.97372
1341.13350	0.97411
1339.07969	0.97386
1337.02589	0.97326
1334.97209	0.97267
1332.91828	0.97219
1330.86448	0.97154
1328.81068	0.97032
1326.75687	0.96853
1324.70307	0.96639
1322.64927	0.96396
1320.59546	0.96130
1318.54166	0.95850
1316.48786	0.95606
1314.43405	0.95398
1312.38025	0.95156
1310.32645	0.94883
1308.27264	0.94613
1306.21884	0.94377
1304.16504	0.94225
1302.11123	0.94118
1300.05743	0.93971
1298.00363	0.93786
1295.94982	0.93539
1293.89602	0.93163
1291.84222	0.92695
1289.78842	0.92206
1287.73461	0.91695
1285.68081	0.91130
1283.62701	0.90535
1281.57320	0.89950
1279.51940	0.89339
1277.46560	0.88661
1275.41179	0.87945
1273.35799	0.87210
1271.30419	0.86484
1269.25038	0.85822
1267.19658	0.85244
1265.14278	0.84789
1263.08897	0.84557
1261.03517	0.84574
1258.98137	0.84781
1256.92756	0.85044
1254.87376	0.85185
1252.81996	0.85129
1250.76615	0.84913
1248.71235	0.84614
1246.65855	0.84354
1244.60474	0.84224
1242.55094	0.84212
1240.49714	0.84298
1238.44334	0.84502
1236.38953	0.84791
1234.33573	0.85092
1232.28193	0.85364
1230.22812	0.85621
1228.17432	0.85929
1226.12052	0.86320
1224.06671	0.86798
1222.01291	0.87370
1219.95911	0.87996
1217.90530	0.88570
1215.85150	0.89052
1213.79770	0.89476
1211.74389	0.89838
1209.69009	0.90123
1207.63629	0.90340
1205.58248	0.90487
1203.52868	0.90561
1201.47488	0.90588
1199.42107	0.90572
1197.36727	0.90498
1195.31347	0.90379
1193.25966	0.90212
1191.20586	0.90019
1189.15206	0.89822
1187.09825	0.89616
1185.04445	0.89396
1182.99065	0.89156
1180.93685	0.88889
1178.88304	0.88617
1176.82924	0.88354
1174.77544	0.88086
1172.72163	0.87824
1170.66783	0.87607
1168.61403	0.87477
1166.56022	0.87418
1164.50642	0.87400
1162.45262	0.87451
1160.39881	0.87585
1158.34501	0.87743
1156.29121	0.87880
1154.23740	0.87964
1152.18360	0.87962
1150.12980	0.87927
1148.07599	0.87895
1146.02219	0.87827
1143.96839	0.87710
1141.91458	0.87568
1139.86078	0.87404
1137.80698	0.87228
1135.75317	0.87049
1133.69937	0.86803
1131.64557	0.86423
1129.59176	0.85911
1127.53796	0.85281
1125.48416	0.84568
1123.43036	0.83831
1121.37655	0.83101
1119.32275	0.82450
1117.26895	0.81941
1115.21514	0.81560
1113.16134	0.81309
1111.10754	0.81174
1109.05373	0.81045
1106.99993	0.80759
1104.94613	0.80240
1102.89232	0.79564
1100.83852	0.78873
1098.78472	0.78310
1096.73091	0.77928
1094.67711	0.77677
1092.62331	0.77503
1090.56950	0.77428
1088.51570	0.77464
1086.46190	0.77526
1084.40809	0.77557
1082.35429	0.77564
1080.30049	0.77531
1078.24668	0.77470
1076.19288	0.77444
1074.13908	0.77467
1072.08528	0.77477
1070.03147	0.77467
1067.97767	0.77492
1065.92387	0.77550
1063.87006	0.77599
1061.81626	0.77659
1059.76246	0.77721
1057.70865	0.77709
1055.65485	0.77628
1053.60105	0.77546
1051.54724	0.77473
1049.49344	0.77391
1047.43964	0.77283
1045.38583	0.77144
1043.33203	0.76987
1041.27823	0.76815
1039.22442	0.76649
1037.17062	0.76537
1035.11682	0.76470
1033.06301	0.76414
1031.00921	0.76373
1028.95541	0.76341
1026.90160	0.76297
1024.84780	0.76167
1022.79400	0.75807
1020.74019	0.75154
1018.68639	0.74334
1016.63259	0.73643
1014.57879	0.73359
1012.52498	0.73474
1010.47118	0.73752
1008.41738	0.74012
1006.36357	0.74234
1004.30977	0.74450
1002.25597	0.74655
1000.20216	0.74813
998.14836	0.74921
996.09456	0.75006
994.04075	0.75079
991.98695	0.75148
989.93315	0.75225
987.87934	0.75289
985.82554	0.75263
983.77174	0.75134
981.71793	0.75029
979.66413	0.75066
977.61033	0.75238
975.55652	0.75489
973.50272	0.75764
971.44892	0.76035
969.39511	0.76332
967.34131	0.76703
965.28751	0.77165
963.23371	0.77731
961.17990	0.78355
959.12610	0.78953
957.07230	0.79507
955.01849	0.80019
952.96469	0.80495
950.91089	0.80952
948.85708	0.81355
946.80328	0.81680
944.74948	0.81952
942.69567	0.82169
940.64187	0.82374
938.58807	0.82593
936.53426	0.82791
934.48046	0.83015
932.42666	0.83278
930.37285	0.83528
928.31905	0.83806
926.26525	0.84157
924.21144	0.84518
922.15764	0.84817
920.10384	0.85039
918.05003	0.85221
915.99623	0.85389
913.94243	0.85555
911.88862	0.85745
909.83482	0.85978
907.78102	0.86285
905.72722	0.86621
903.67341	0.86948
901.61961	0.87300
899.56581	0.87667
897.51200	0.88025
895.45820	0.88379
893.40440	0.88713
891.35059	0.89007
889.29679	0.89247
887.24299	0.89402
885.18918	0.89400
883.13538	0.89157
881.08158	0.88636
879.02777	0.87887
876.97397	0.87089
874.92017	0.86482
872.86636	0.86285
870.81256	0.86644
868.75876	0.87395
866.70495	0.88115
864.65115	0.88564
862.59735	0.88813
860.54354	0.89018
858.48974	0.89293
856.43594	0.89643
854.38213	0.89975
852.32833	0.90196
850.27453	0.90280
848.22073	0.90302
846.16692	0.90316
844.11312	0.90352
842.05932	0.90454
840.00551	0.90583
837.95171	0.90639
835.89791	0.90607
833.84410	0.90591
831.79030	0.90628
829.73650	0.90638
827.68269	0.90641
825.62889	0.90666
823.57509	0.90655
821.52128	0.90671
819.46748	0.90781
817.41368	0.90869
815.35987	0.90831
813.30607	0.90754
811.25227	0.90687
809.19846	0.90534
807.14466	0.90295
805.09086	0.90017
803.03705	0.89692
800.98325	0.89422
798.92945	0.89243
796.87565	0.89050
794.82184	0.88911
792.76804	0.88977
790.71424	0.89243
788.66043	0.89551
786.60663	0.89715
784.55283	0.89681
782.49902	0.89496
780.44522	0.89304
778.39142	0.89257
776.33761	0.89303
774.28381	0.89340
772.23001	0.89322
770.17620	0.89179
768.12240	0.88968
766.06860	0.88836
764.01479	0.88812
761.96099	0.88842
759.90719	0.88873
757.85338	0.88933
755.79958	0.89041
753.74578	0.89198
751.69197	0.89357
749.63817	0.89440
747.58437	0.89466
745.53056	0.89436
743.47676	0.89303
741.42296	0.89005
739.36916	0.88376
737.31535	0.87299
735.26155	0.85862
733.20775	0.84182
731.15394	0.82280
729.10014	0.80243
727.04634	0.78428
724.99253	0.77462
722.93873	0.77744
720.88493	0.78988
718.83112	0.80484
716.77732	0.81714
714.72352	0.82529
712.66971	0.82951
710.61591	0.83199
708.56211	0.83436
706.50830	0.83597
704.45450	0.83631
702.40070	0.83572
700.34689	0.83514
698.29309	0.83536
696.23929	0.83607
694.18548	0.83685
692.13168	0.83855
690.07788	0.84062
688.02408	0.84061
685.97027	0.83942
683.91647	0.83941
681.86267	0.83970
679.80886	0.83924
677.75506	0.83884
675.70126	0.83879
673.64745	0.83855
671.59365	0.83870
669.53985	0.83930
667.48604	0.83924
665.43224	0.83947
663.37844	0.83967
661.32463	0.83890
659.27083	0.83830
657.21703	0.83787
655.16322	0.83615
653.10942	0.83377
651.05562	0.83204
649.00181	0.83063
646.94801	0.82951
644.89421	0.82947
642.84040	0.82962
640.78660	0.82835
638.73280	0.82585
636.67899	0.82336
634.62519	0.82074
632.57139	0.81807
630.51759	0.81764
628.46378	0.81948
626.40998	0.82127
624.35618	0.82319
622.30237	0.82496
620.24857	0.82501
618.19477	0.82331
616.14096	0.81902
614.08716	0.81300
612.03336	0.80810
609.97955	0.80424
607.92575	0.80040
605.87195	0.79715
603.81814	0.79560
601.76434	0.79551
599.71054	0.79561
597.65673	0.79554
595.60293	0.79618
593.54913	0.79837
591.49532	0.80092
589.44152	0.80142
587.38772	0.80005
585.33391	0.79965
583.28011	0.80107
581.22631	0.80250
579.17250	0.80306
577.11870	0.80320
575.06490	0.80393
573.01110	0.80604
570.95729	0.80836
568.90349	0.80855
566.84969	0.80607
564.79588	0.80347
562.74208	0.80187
560.68828	0.79964
558.63447	0.79736
556.58067	0.79617
554.52687	0.79452
552.47306	0.79162
550.41926	0.78953
548.36546	0.78946
546.31165	0.78883
544.25785	0.78474
542.20405	0.77947
540.15024	0.77820
538.09644	0.77972
536.04264	0.77881
533.98883	0.77559
531.93503	0.77290
529.88123	0.77141
527.82742	0.77080
525.77362	0.77078
523.71982	0.77057
521.66602	0.77058
519.61221	0.77069
517.55841	0.77022
515.50461	0.77024
513.45080	0.76986
511.39700	0.76803
509.34320	0.76741
507.28939	0.76973
505.23559	0.77191
503.18179	0.77131
501.12798	0.76880
499.07418	0.76623
497.02038	0.76547
494.96657	0.76623
492.91277	0.76672
490.85897	0.76786
488.80516	0.76975
486.75136	0.76924
484.69756	0.76537
482.64375	0.76081
480.58995	0.75670
478.53615	0.75216
476.48234	0.74758
474.42854	0.74415
472.37474	0.74335
470.32093	0.74460
468.26713	0.74451
466.21333	0.74280
464.15953	0.74259
462.10572	0.74441
460.05192	0.74744
457.99812	0.75227
455.94431	0.75596
453.89051	0.75688
451.83671	0.75692
449.78290	0.75667
447.72910	0.75786
445.67530	0.76044
443.62149	0.76262
441.56769	0.76596
439.51389	0.76961
437.46008	0.76859
435.40628	0.76314
433.35248	0.75915
431.29867	0.75900
429.24487	0.76068
427.19107	0.76089
425.13726	0.75866
423.08346	0.75459
421.02966	0.74943
418.97585	0.74857
416.92205	0.75429
414.86825	0.75684
412.81445	0.75477
410.76064	0.75376
408.70684	0.75383
406.65304	0.75070
404.59923	0.74774
402.54543	0.74631
400.49163	0.74276
398.43782	0.74284
