3996.70104	0.98571
3994.64724	0.98549
3992.59344	0.98530
3990.53964	0.98568
3988.48583	0.98568
3986.43203	0.98479
3984.37823	0.98387
3982.32442	0.98356
3980.27062	0.98377
3978.21682	0.98410
3976.16301	0.98441
3974.10921	0.98443
3972.05541	0.98413
3970.00160	0.98410
3967.94780	0.98444
3965.89400	0.98462
3963.84019	0.98455
3961.78639	0.98432
3959.73259	0.98415
3957.67878	0.98454
3955.62498	0.98535
3953.57118	0.98570
3951.51737	0.98552
3949.46357	0.98548
3947.40977	0.98558
3945.35596	0.98536
3943.30216	0.98486
3941.24836	0.98439
3939.19455	0.98407
3937.14075	0.98400
3935.08695	0.98416
3933.03315	0.98446
3930.97934	0.98493
3928.92554	0.98509
3926.87174	0.98478
3924.81793	0.98447
3922.76413	0.98432
3920.71033	0.98446
3918.65652	0.98481
3916.60272	0.98489
3914.54892	0.98474
3912.49511	0.98470
3910.44131	0.98466
3908.38751	0.98442
3906.33370	0.98434
3904.27990	0.98482
3902.22610	0.98551
3900.17229	0.98603
3898.11849	0.98591
3896.06469	0.98531
3894.01088	0.98491
3891.95708	0.98482
3889.90328	0.98480
3887.84947	0.98480
3885.79567	0.98489
3883.74187	0.98491
3881.68807	0.98492
3879.63426	0.98486
3877.58046	0.98417
3875.52666	0.98323
3873.47285	0.98332
3871.41905	0.98458
3869.36525	0.98534
3867.31144	0.98488
3865.25764	0.98450
3863.20384	0.98503
3861.15003	0.98551
3859.09623	0.98554
3857.04243	0.98543
3854.98862	0.98539
3852.93482	0.98534
3850.88102	0.98501
3848.82721	0.98519
3846.77341	0.98567
3844.71961	0.98594
3842.66580	0.98580
3840.61200	0.98523
3838.55820	0.98446
3836.50439	0.98440
3834.45059	0.98520
3832.39679	0.98543
3830.34298	0.98493
3828.28918	0.98499
3826.23538	0.98535
3824.18158	0.98517
3822.12777	0.98506
3820.07397	0.98555
3818.02017	0.98561
3815.96636	0.98517
3813.91256	0.98503
3811.85876	0.98506
3809.80495	0.98490
3807.75115	0.98504
3805.69735	0.98587
3803.64354	0.98632
3801.58974	0.98623
3799.53594	0.98571
3797.48213	0.98508
3795.42833	0.98520
3793.37453	0.98537
3791.32072	0.98489
3789.26692	0.98479
3787.21312	0.98543
3785.15931	0.98578
3783.10551	0.98550
3781.05171	0.98492
3778.99790	0.98415
3776.94410	0.98428
3774.89030	0.98520
3772.83650	0.98542
3770.78269	0.98500
3768.72889	0.98512
3766.67509	0.98540
3764.62128	0.98519
3762.56748	0.98506
3760.51368	0.98534
3758.45987	0.98580
3756.40607	0.98602
3754.35227	0.98628
3752.29846	0.98651
3750.24466	0.98566
3748.19086	0.98520
3746.13705	0.98607
3744.08325	0.98646
3742.02945	0.98572
3739.97564	0.98562
3737.92184	0.98630
3735.86804	0.98669
3733.81423	0.98615
3731.76043	0.98539
3729.70663	0.98516
3727.65282	0.98494
3725.59902	0.98398
3723.54522	0.98271
3721.49141	0.98181
3719.43761	0.98136
3717.38381	0.98069
3715.33001	0.97927
3713.27620	0.97733
3711.22240	0.97429
3709.16860	0.97028
3707.11479	0.96670
3705.06099	0.96372
3703.00719	0.96104
3700.95338	0.95802
3698.89958	0.95521
3696.84578	0.95385
3694.79197	0.95404
3692.73817	0.95527
3690.68437	0.95744
3688.63056	0.96046
3686.57676	0.96248
3684.52296	0.96349
3682.46915	0.96459
3680.41535	0.96545
3678.36155	0.96533
3676.30774	0.96388
3674.25394	0.96270
3672.20014	0.96354
3670.14633	0.96434
3668.09253	0.96357
3666.03873	0.96216
3663.98492	0.96079
3661.93112	0.95952
3659.87732	0.95882
3657.82352	0.95886
3655.76971	0.95840
3653.71591	0.95754
3651.66211	0.95750
3649.60830	0.95820
3647.55450	0.95807
3645.50070	0.95676
3643.44689	0.95564
3641.39309	0.95472
3639.33929	0.95392
3637.28548	0.95357
3635.23168	0.95338
3633.17788	0.95298
3631.12407	0.95240
3629.07027	0.95105
3627.01647	0.94883
3624.96266	0.94718
3622.90886	0.94627
3620.85506	0.94593
3618.80125	0.94635
3616.74745	0.94744
3614.69365	0.94826
3612.63984	0.94872
3610.58604	0.94931
3608.53224	0.94989
3606.47844	0.95013
3604.42463	0.95018
3602.37083	0.94999
3600.31703	0.94977
3598.26322	0.95010
3596.20942	0.95038
3594.15562	0.95012
3592.10181	0.95007
3590.04801	0.95053
3587.99421	0.95095
3585.94040	0.95080
3583.88660	0.95054
3581.83280	0.95035
3579.77899	0.94973
3577.72519	0.94870
3575.67139	0.94792
3573.61758	0.94764
3571.56378	0.94761
3569.50998	0.94738
3567.45617	0.94698
3565.40237	0.94666
3563.34857	0.94621
3561.29476	0.94564
3559.24096	0.94519
3557.18716	0.94481
3555.13335	0.94406
3553.07955	0.94313
3551.02575	0.94290
3548.97195	0.94332
3546.91814	0.94333
3544.86434	0.94219
3542.81054	0.94110
3540.75673	0.94112
3538.70293	0.94127
3536.64913	0.94092
3534.59532	0.94061
3532.54152	0.94048
3530.48772	0.94011
3528.43391	0.93980
3526.38011	0.93990
3524.32631	0.93991
3522.27250	0.93955
3520.21870	0.93892
3518.16490	0.93848
3516.11109	0.93893
3514.05729	0.93981
3512.00349	0.94008
3509.94968	0.93954
3507.89588	0.93884
3505.84208	0.93841
3503.78827	0.93804
3501.73447	0.93794
3499.68067	0.93811
3497.62687	0.93767
3495.57306	0.93644
3493.51926	0.93552
3491.46546	0.93535
3489.41165	0.93554
3487.35785	0.93603
3485.30405	0.93640
3483.25024	0.93598
3481.19644	0.93524
3479.14264	0.93501
3477.08883	0.93473
3475.03503	0.93380
3472.98123	0.93303
3470.92742	0.93318
3468.87362	0.93361
3466.81982	0.93343
3464.76601	0.93274
3462.71221	0.93194
3460.65841	0.93122
3458.60460	0.93071
3456.55080	0.93044
3454.49700	0.93005
3452.44319	0.92948
3450.38939	0.92923
3448.33559	0.92938
3446.28178	0.92979
3444.22798	0.93028
3442.17418	0.92996
3440.12038	0.92881
3438.06657	0.92779
3436.01277	0.92729
3433.95897	0.92725
3431.90516	0.92732
3429.85136	0.92674
3427.79756	0.92546
3425.74375	0.92451
3423.68995	0.92417
3421.63615	0.92368
3419.58234	0.92303
3417.52854	0.92267
3415.47474	0.92242
3413.42093	0.92230
3411.36713	0.92271
3409.31333	0.92311
3407.25952	0.92285
3405.20572	0.92230
3403.15192	0.92158
3401.09811	0.92075
3399.04431	0.92040
3396.99051	0.92031
3394.93670	0.92010
3392.88290	0.92016
3390.82910	0.92083
3388.77529	0.92175
3386.72149	0.92210
3384.66769	0.92162
3382.61389	0.92095
3380.56008	0.92070
3378.50628	0.92105
3376.45248	0.92182
3374.39867	0.92245
3372.34487	0.92223
3370.29107	0.92167
3368.23726	0.92161
3366.18346	0.92151
3364.12966	0.92088
3362.07585	0.92033
3360.02205	0.92041
3357.96825	0.92096
3355.91444	0.92138
3353.86064	0.92153
3351.80684	0.92167
3349.75303	0.92202
3347.69923	0.92241
3345.64543	0.92256
3343.59162	0.92279
3341.53782	0.92321
3339.48402	0.92350
3337.43021	0.92347
3335.37641	0.92312
3333.32261	0.92293
3331.26881	0.92314
3329.21500	0.92332
3327.16120	0.92330
3325.10740	0.92345
3323.05359	0.92382
3320.99979	0.92408
3318.94599	0.92452
3316.89218	0.92524
3314.83838	0.92539
3312.78458	0.92474
3310.73077	0.92414
3308.67697	0.92416
3306.62317	0.92478
3304.56936	0.92553
3302.51556	0.92573
3300.46176	0.92520
3298.40795	0.92480
3296.35415	0.92522
3294.30035	0.92560
3292.24654	0.92564
3290.19274	0.92610
3288.13894	0.92660
3286.08513	0.92667
3284.03133	0.92675
3281.97753	0.92668
3279.92372	0.92624
3277.86992	0.92621
3275.81612	0.92690
3273.76232	0.92763
3271.70851	0.92803
3269.65471	0.92821
3267.60091	0.92793
3265.54710	0.92756
3263.49330	0.92782
3261.43950	0.92853
3259.38569	0.92922
3257.33189	0.92942
3255.27809	0.92919
3253.22428	0.92926
3251.17048	0.92961
3249.11668	0.92974
3247.06287	0.92992
3245.00907	0.93036
3242.95527	0.93054
3240.90146	0.93046
3238.84766	0.93096
3236.79386	0.93201
3234.74005	0.93262
3232.68625	0.93283
3230.63245	0.93295
3228.57864	0.93307
3226.52484	0.93375
3224.47104	0.93481
3222.41724	0.93530
3220.36343	0.93508
3218.30963	0.93494
3216.25583	0.93533
3214.20202	0.93584
3212.14822	0.93618
3210.09442	0.93665
3208.04061	0.93698
3205.98681	0.93692
3203.93301	0.93708
3201.87920	0.93772
3199.82540	0.93843
3197.77160	0.93913
3195.71779	0.93987
3193.66399	0.94032
3191.61019	0.94048
3189.55638	0.94064
3187.50258	0.94080
3185.44878	0.94109
3183.39497	0.94153
3181.34117	0.94190
3179.28737	0.94215
3177.23356	0.94228
3175.17976	0.94252
3173.12596	0.94328
3171.07215	0.94435
3169.01835	0.94502
3166.96455	0.94509
3164.91075	0.94521
3162.85694	0.94575
3160.80314	0.94626
3158.74934	0.94661
3156.69553	0.94731
3154.64173	0.94844
3152.58793	0.94922
3150.53412	0.94931
3148.48032	0.94935
3146.42652	0.94993
3144.37271	0.95066
3142.31891	0.95098
3140.26511	0.95082
3138.21130	0.95052
3136.15750	0.95072
3134.10370	0.95133
3132.04989	0.95155
3129.99609	0.95140
3127.94229	0.95193
3125.88848	0.95319
3123.83468	0.95378
3121.78088	0.95336
3119.72707	0.95346
3117.67327	0.95449
3115.61947	0.95504
3113.56566	0.95483
3111.51186	0.95460
3109.45806	0.95457
3107.40426	0.95476
3105.35045	0.95515
3103.29665	0.95578
3101.24285	0.95609
3099.18904	0.95588
3097.13524	0.95597
3095.08144	0.95646
3093.02763	0.95687
3090.97383	0.95722
3088.92003	0.95729
3086.86622	0.95708
3084.81242	0.95718
3082.75862	0.95734
3080.70481	0.95735
3078.65101	0.95764
3076.59721	0.95812
3074.54340	0.95845
3072.48960	0.95854
3070.43580	0.95857
3068.38199	0.95875
3066.32819	0.95897
3064.27439	0.95921
3062.22058	0.95958
3060.16678	0.95991
3058.11298	0.96012
3056.05918	0.96044
3054.00537	0.96074
3051.95157	0.96078
3049.89777	0.96098
3047.84396	0.96160
3045.79016	0.96206
3043.73636	0.96195
3041.68255	0.96144
3039.62875	0.96121
3037.57495	0.96148
3035.52114	0.96181
3033.46734	0.96206
3031.41354	0.96231
3029.35973	0.96261
3027.30593	0.96315
3025.25213	0.96385
3023.19832	0.96420
3021.14452	0.96389
3019.09072	0.96330
3017.03691	0.96310
3014.98311	0.96342
3012.92931	0.96395
3010.87550	0.96411
3008.82170	0.96352
3006.76790	0.96288
3004.71409	0.96310
3002.66029	0.96366
3000.60649	0.96372
2998.55269	0.96365
2996.49888	0.96372
2994.44508	0.96360
2992.39128	0.96310
2990.33747	0.96252
2988.28367	0.96215
2986.22987	0.96174
2984.17606	0.96118
2982.12226	0.96063
2980.06846	0.95985
2978.01465	0.95879
2975.96085	0.95781
2973.90705	0.95673
2971.85324	0.95510
2969.79944	0.95302
2967.74564	0.95074
2965.69183	0.94861
2963.63803	0.94677
2961.58423	0.94479
2959.53042	0.94268
2957.47662	0.94063
2955.42282	0.93846
2953.36901	0.93621
2951.31521	0.93406
2949.26141	0.93162
2947.20761	0.92804
2945.15380	0.92275
2943.10000	0.91581
2941.04620	0.90717
2938.99239	0.89650
2936.93859	0.88351
2934.88479	0.86806
2932.83098	0.85003
2930.77718	0.82922
2928.72338	0.80543
2926.66957	0.77824
2924.61577	0.74670
2922.56197	0.71107
2920.50816	0.67468
2918.45436	0.64309
2916.40056	0.62243
2914.34675	0.61711
2912.29295	0.62651
2910.23915	0.64522
2908.18534	0.66733
2906.13154	0.68923
2904.07774	0.70944
2902.02393	0.72730
2899.97013	0.74262
2897.91633	0.75609
2895.86252	0.76837
2893.80872	0.77972
2891.75492	0.79110
2889.70112	0.80324
2887.64731	0.81563
2885.59351	0.82800
2883.53971	0.84014
2881.48590	0.85165
2879.43210	0.86315
2877.37830	0.87477
2875.32449	0.88488
2873.27069	0.89244
2871.21689	0.89795
2869.16308	0.90113
2867.10928	0.90082
2865.05548	0.89682
2863.00167	0.88893
2860.94787	0.87576
2858.89407	0.85518
2856.84026	0.82438
2854.78646	0.78144
2852.73266	0.72916
2850.67885	0.67847
2848.62505	0.64709
2846.57125	0.64750
2844.51744	0.67622
2842.46364	0.71940
2840.40984	0.76429
2838.35603	0.80352
2836.30223	0.83489
2834.24843	0.85891
2832.19463	0.87712
2830.14082	0.89140
2828.08702	0.90283
2826.03322	0.91203
2823.97941	0.91956
2821.92561	0.92543
2819.87181	0.92991
2817.81800	0.93384
2815.76420	0.93734
2813.71040	0.94030
2811.65659	0.94308
2809.60279	0.94573
2807.54899	0.94807
2805.49518	0.94991
2803.44138	0.95131
2801.38758	0.95293
2799.33377	0.95477
2797.27997	0.95622
2795.22617	0.95727
2793.17236	0.95817
2791.11856	0.95922
2789.06476	0.96044
2787.01095	0.96159
2784.95715	0.96266
2782.90335	0.96371
2780.84955	0.96464
2778.79574	0.96541
2776.74194	0.96591
2774.68814	0.96629
2772.63433	0.96713
2770.58053	0.96810
2768.52673	0.96852
2766.47292	0.96853
2764.41912	0.96875
2762.36532	0.96931
2760.31151	0.96976
2758.25771	0.97000
2756.20391	0.97020
2754.15010	0.97026
2752.09630	0.97003
2750.04250	0.96995
2747.98869	0.97041
2745.93489	0.97101
2743.88109	0.97130
2741.82728	0.97129
2739.77348	0.97125
2737.71968	0.97129
2735.66587	0.97139
2733.61207	0.97183
2731.55827	0.97267
2729.50446	0.97323
2727.45066	0.97315
2725.39686	0.97306
2723.34306	0.97348
2721.28925	0.97386
2719.23545	0.97399
2717.18165	0.97427
2715.12784	0.97451
2713.07404	0.97436
2711.02024	0.97442
2708.96643	0.97494
2706.91263	0.97520
2704.85883	0.97515
2702.80502	0.97518
2700.75122	0.97527
2698.69742	0.97537
2696.64361	0.97543
2694.58981	0.97558
2692.53601	0.97589
2690.48220	0.97618
2688.42840	0.97640
2686.37460	0.97655
2684.32079	0.97652
2682.26699	0.97626
2680.21319	0.97604
2678.15938	0.97600
2676.10558	0.97606
2674.05178	0.97618
2671.99797	0.97608
2669.94417	0.97572
2667.89037	0.97548
2665.83657	0.97540
2663.78276	0.97520
2661.72896	0.97501
2659.67516	0.97525
2657.62135	0.97558
2655.56755	0.97564
2653.51375	0.97584
2651.45994	0.97630
2649.40614	0.97662
2647.35234	0.97678
2645.29853	0.97682
2643.24473	0.97655
2641.19093	0.97622
2639.13712	0.97632
2637.08332	0.97649
2635.02952	0.97642
2632.97571	0.97661
2630.92191	0.97698
2628.86811	0.97708
2626.81430	0.97718
2624.76050	0.97768
2622.70670	0.97839
2620.65289	0.97916
2618.59909	0.97989
2616.54529	0.98034
2614.49149	0.98057
2612.43768	0.98046
2610.38388	0.97999
2608.33008	0.97965
2606.27627	0.97957
2604.22247	0.97984
2602.16867	0.98067
2600.11486	0.98144
2598.06106	0.98146
2596.00726	0.98132
2593.95345	0.98148
2591.89965	0.98178
2589.84585	0.98230
2587.79204	0.98272
2585.73824	0.98264
2583.68444	0.98217
2581.63063	0.98202
2579.57683	0.98259
2577.52303	0.98291
2575.46922	0.98286
2573.41542	0.98321
2571.36162	0.98350
2569.30781	0.98321
2567.25401	0.98262
2565.20021	0.98227
2563.14640	0.98265
2561.09260	0.98365
2559.03880	0.98447
2556.98500	0.98451
2554.93119	0.98393
2552.87739	0.98320
2550.82359	0.98306
2548.76978	0.98388
2546.71598	0.98473
2544.66218	0.98471
2542.60837	0.98422
2540.55457	0.98400
2538.50077	0.98416
2536.44696	0.98443
2534.39316	0.98491
2532.33936	0.98529
2530.28555	0.98483
2528.23175	0.98445
2526.17795	0.98496
2524.12414	0.98528
2522.07034	0.98495
2520.01654	0.98473
2517.96273	0.98494
2515.90893	0.98507
2513.85513	0.98487
2511.80132	0.98487
2509.74752	0.98505
2507.69372	0.98507
2505.63992	0.98499
2503.58611	0.98486
2501.53231	0.98530
2499.47851	0.98624
2497.42470	0.98666
2495.37090	0.98623
2493.31710	0.98571
2491.26329	0.98592
2489.20949	0.98629
2487.15569	0.98644
2485.10188	0.98654
2483.04808	0.98627
2480.99428	0.98586
2478.94047	0.98583
2476.88667	0.98596
2474.83287	0.98553
2472.77906	0.98487
2470.72526	0.98520
2468.67146	0.98610
2466.61765	0.98625
2464.56385	0.98593
2462.51005	0.98583
2460.45624	0.98608
2458.40244	0.98645
2456.34864	0.98617
2454.29483	0.98544
2452.24103	0.98541
2450.18723	0.98604
2448.13343	0.98631
2446.07962	0.98617
2444.02582	0.98595
2441.97202	0.98581
2439.91821	0.98602
2437.86441	0.98641
2435.81061	0.98666
2433.75680	0.98681
2431.70300	0.98657
2429.64920	0.98604
2427.59539	0.98584
2425.54159	0.98595
2423.48779	0.98611
2421.43398	0.98641
2419.38018	0.98688
2417.32638	0.98722
2415.27257	0.98713
2413.21877	0.98668
2411.16497	0.98619
2409.11116	0.98593
2407.05736	0.98628
2405.00356	0.98714
2402.94975	0.98751
2400.89595	0.98691
2398.84215	0.98590
2396.78834	0.98528
2394.73454	0.98537
2392.68074	0.98585
2390.62694	0.98644
2388.57313	0.98677
2386.51933	0.98657
2384.46553	0.98640
2382.41172	0.98659
2380.35792	0.98674
2378.30412	0.98664
2376.25031	0.98623
2374.19651	0.98594
2372.14271	0.98619
2370.08890	0.98666
2368.03510	0.98720
2365.98130	0.98703
2363.92749	0.98658
2361.87369	0.98727
2359.81989	0.98718
2357.76608	0.98600
2355.71228	0.98534
2353.65848	0.98488
2351.60467	0.98487
2349.55087	0.98518
2347.49707	0.98474
2345.44326	0.98368
2343.38946	0.98360
2341.33566	0.98445
2339.28186	0.98464
2337.22805	0.98418
2335.17425	0.98388
2333.12045	0.98407
2331.06664	0.98397
2329.01284	0.98315
2326.95904	0.98210
2324.90523	0.98118
2322.85143	0.98102
2320.79763	0.98181
2318.74382	0.98275
2316.69002	0.98321
2314.63622	0.98364
2312.58241	0.98441
2310.52861	0.98486
2308.47481	0.98517
2306.42100	0.98573
2304.36720	0.98592
2302.31340	0.98565
2300.25959	0.98549
2298.20579	0.98584
2296.15199	0.98660
2294.09818	0.98683
2292.04438	0.98613
2289.99058	0.98572
2287.93677	0.98581
2285.88297	0.98525
2283.82917	0.98468
2281.77537	0.98491
2279.72156	0.98516
2277.66776	0.98533
2275.61396	0.98559
2273.56015	0.98568
2271.50635	0.98605
2269.45255	0.98717
2267.39874	0.98794
2265.34494	0.98737
2263.29114	0.98679
2261.23733	0.98748
2259.18353	0.98871
2257.12973	0.98945
2255.07592	0.98972
2253.02212	0.98969
2250.96832	0.98887
2248.91451	0.98738
2246.86071	0.98709
2244.80691	0.98842
2242.75310	0.98906
2240.69930	0.98870
2238.64550	0.98857
2236.59169	0.98853
2234.53789	0.98870
2232.48409	0.98882
2230.43029	0.98801
2228.37648	0.98688
2226.32268	0.98643
2224.26888	0.98654
2222.21507	0.98654
2220.16127	0.98645
2218.10747	0.98743
2216.05366	0.98989
2213.99986	0.99228
2211.94606	0.99241
2209.89225	0.99095
2207.83845	0.99010
2205.78465	0.98948
2203.73084	0.98887
2201.67704	0.98916
2199.62324	0.98920
2197.56943	0.98832
2195.51563	0.98829
2193.46183	0.98876
2191.40802	0.98855
2189.35422	0.98965
2187.30042	0.99240
2185.24661	0.99259
2183.19281	0.98912
2181.13901	0.98698
2179.08520	0.98721
2177.03140	0.98619
2174.97760	0.98421
2172.92380	0.98379
2170.86999	0.98588
2168.81619	0.98875
2166.76239	0.98987
2164.70858	0.99037
2162.65478	0.99093
2160.60098	0.99035
2158.54717	0.99121
2156.49337	0.99278
2154.43957	0.99090
2152.38576	0.98857
2150.33196	0.98927
2148.27816	0.99011
2146.22435	0.98983
2144.17055	0.99123
2142.11675	0.99303
2140.06294	0.99284
2138.00914	0.99196
2135.95534	0.99139
2133.90153	0.99122
2131.84773	0.99150
2129.79393	0.99150
2127.74012	0.99094
2125.68632	0.99074
2123.63252	0.99042
2121.57871	0.98905
2119.52491	0.98828
2117.47111	0.98898
2115.41731	0.99035
2113.36350	0.99154
2111.30970	0.99140
2109.25590	0.98986
2107.20209	0.98840
2105.14829	0.98782
2103.09449	0.98744
2101.04068	0.98727
2098.98688	0.98776
2096.93308	0.98862
2094.87927	0.98864
2092.82547	0.98735
2090.77167	0.98630
2088.71786	0.98692
2086.66406	0.98831
2084.61026	0.98845
2082.55645	0.98824
2080.50265	0.98906
2078.44885	0.98974
2076.39504	0.98870
2074.34124	0.98705
2072.28744	0.98743
2070.23363	0.98905
2068.17983	0.98998
2066.12603	0.98986
2064.07223	0.98926
2062.01842	0.98989
2059.96462	0.99157
2057.91082	0.99175
2055.85701	0.99051
2053.80321	0.99072
2051.74941	0.99191
2049.69560	0.99157
2047.64180	0.99041
2045.58800	0.99069
2043.53419	0.99173
2041.48039	0.99143
2039.42659	0.99127
2037.37278	0.99144
2035.31898	0.99089
2033.26518	0.99201
2031.21137	0.99273
2029.15757	0.99142
2027.10377	0.99103
2025.04996	0.99088
2022.99616	0.98911
2020.94236	0.98739
2018.88855	0.98820
2016.83475	0.99097
2014.78095	0.99281
2012.72714	0.99128
2010.67334	0.98785
2008.61954	0.98645
2006.56574	0.98796
2004.51193	0.99116
2002.45813	0.99340
2000.40433	0.99249
1998.35052	0.99110
1996.29672	0.99205
1994.24292	0.99269
1992.18911	0.99129
1990.13531	0.99032
1988.08151	0.99011
1986.02770	0.99029
1983.97390	0.99179
1981.92010	0.99301
1979.86629	0.99271
1977.81249	0.99316
1975.75869	0.99565
1973.70488	0.99726
1971.65108	0.99520
1969.59728	0.99181
1967.54347	0.99034
1965.48967	0.99009
1963.43587	0.99053
1961.38206	0.99109
1959.32826	0.98940
1957.27446	0.98779
1955.22066	0.98866
1953.16685	0.98977
1951.11305	0.98989
1949.05925	0.98971
1947.00544	0.99066
1944.95164	0.99216
1942.89784	0.99212
1940.84403	0.99073
1938.79023	0.98928
1936.73643	0.98877
1934.68262	0.98943
1932.62882	0.99017
1930.57502	0.99070
1928.52121	0.99131
1926.46741	0.99147
1924.41361	0.99117
1922.35980	0.99107
1920.30600	0.99106
1918.25220	0.99092
1916.19839	0.99098
1914.14459	0.99059
1912.09079	0.98952
1910.03698	0.98863
1907.98318	0.98828
1905.92938	0.98845
1903.87557	0.98889
1901.82177	0.98909
1899.76797	0.98856
1897.71417	0.98763
1895.66036	0.98712
1893.60656	0.98731
1891.55276	0.98787
1889.49895	0.98848
1887.44515	0.98892
1885.39135	0.98909
1883.33754	0.98918
1881.28374	0.98870
1879.22994	0.98749
1877.17613	0.98682
1875.12233	0.98738
1873.06853	0.98818
1871.01472	0.98857
1868.96092	0.98918
1866.90712	0.98955
1864.85331	0.98891
1862.79951	0.98846
1860.74571	0.98871
1858.69190	0.98870
1856.63810	0.98825
1854.58430	0.98803
1852.53049	0.98805
1850.47669	0.98809
1848.42289	0.98796
1846.36908	0.98773
1844.31528	0.98778
1842.26148	0.98848
1840.20768	0.98914
1838.15387	0.98898
1836.10007	0.98828
1834.04627	0.98786
1831.99246	0.98781
1829.93866	0.98768
1827.88486	0.98779
1825.83105	0.98857
1823.77725	0.98886
1821.72345	0.98813
1819.66964	0.98774
1817.61584	0.98820
1815.56204	0.98836
1813.50823	0.98764
1811.45443	0.98687
1809.40063	0.98676
1807.34682	0.98705
1805.29302	0.98735
1803.23922	0.98745
1801.18541	0.98723
1799.13161	0.98710
1797.07781	0.98757
1795.02400	0.98823
1792.97020	0.98823
1790.91640	0.98750
1788.86260	0.98705
1786.80879	0.98692
1784.75499	0.98687
1782.70119	0.98702
1780.64738	0.98687
1778.59358	0.98594
1776.53978	0.98482
1774.48597	0.98413
1772.43217	0.98433
1770.37837	0.98499
1768.32456	0.98516
1766.27076	0.98507
1764.21696	0.98487
1762.16315	0.98466
1760.10935	0.98451
1758.05555	0.98403
1756.00174	0.98320
1753.94794	0.98246
1751.89414	0.98148
1749.84033	0.98000
1747.78653	0.97879
1745.73273	0.97793
1743.67892	0.97691
1741.62512	0.97572
1739.57132	0.97451
1737.51751	0.97367
1735.46371	0.97308
1733.40991	0.97239
1731.35611	0.97217
1729.30230	0.97224
1727.24850	0.97230
1725.19470	0.97231
1723.14089	0.97235
1721.08709	0.97269
1719.03329	0.97309
1716.97948	0.97273
1714.92568	0.97157
1712.87188	0.97056
1710.81807	0.96974
1708.76427	0.96885
1706.71047	0.96783
1704.65666	0.96697
1702.60286	0.96606
1700.54906	0.96407
1698.49525	0.96144
1696.44145	0.95944
1694.38765	0.95752
1692.33384	0.95587
1690.28004	0.95413
1688.22624	0.95229
1686.17243	0.95070
1684.11863	0.94803
1682.06483	0.94509
1680.01103	0.94338
1677.95722	0.94179
1675.90342	0.93967
1673.84962	0.93755
1671.79581	0.93608
1669.74201	0.93426
1667.68821	0.93217
1665.63440	0.93061
1663.58060	0.92879
1661.52680	0.92678
1659.47299	0.92583
1657.41919	0.92566
1655.36539	0.92551
1653.31158	0.92433
1651.25778	0.92306
1649.20398	0.92315
1647.15017	0.92318
1645.09637	0.92269
1643.04257	0.92245
1640.98876	0.92226
1638.93496	0.92187
1636.88116	0.92138
1634.82735	0.92111
1632.77355	0.92126
1630.71975	0.92156
1628.66594	0.92201
1626.61214	0.92258
1624.55834	0.92319
1622.50454	0.92416
1620.45073	0.92552
1618.39693	0.92708
1616.34313	0.92894
1614.28932	0.93067
1612.23552	0.93209
1610.18172	0.93330
1608.12791	0.93429
1606.07411	0.93539
1604.02031	0.93677
1601.96650	0.93805
1599.91270	0.93909
1597.85890	0.94009
1595.80509	0.94110
1593.75129	0.94203
1591.69749	0.94288
1589.64368	0.94391
1587.58988	0.94507
1585.53608	0.94616
1583.48227	0.94709
1581.42847	0.94787
1579.37467	0.94867
1577.32086	0.94949
1575.26706	0.94990
1573.21326	0.95016
1571.15945	0.95055
1569.10565	0.95093
1567.05185	0.95129
1564.99805	0.95169
1562.94424	0.95209
1560.89044	0.95243
1558.83664	0.95262
1556.78283	0.95245
1554.72903	0.95207
1552.67523	0.95142
1550.62142	0.95060
1548.56762	0.95012
1546.51382	0.95059
1544.46001	0.95166
1542.40621	0.95246
1540.35241	0.95280
1538.29860	0.95269
1536.24480	0.95263
1534.19100	0.95343
1532.13719	0.95493
1530.08339	0.95593
1528.02959	0.95663
1525.97578	0.95738
1523.92198	0.95782
1521.86818	0.95801
1519.81437	0.95870
1517.76057	0.95990
1515.70677	0.96111
1513.65297	0.96209
1511.59916	0.96297
1509.54536	0.96375
1507.49156	0.96428
1505.43775	0.96441
1503.38395	0.96453
1501.33015	0.96501
1499.27634	0.96549
1497.22254	0.96524
1495.16874	0.96458
1493.11493	0.96445
1491.06113	0.96444
1489.00733	0.96344
1486.95352	0.96172
1484.89972	0.96001
1482.84592	0.95736
1480.79211	0.95239
1478.73831	0.94242
1476.68451	0.91806
1474.63070	0.87040
1472.57690	0.81932
1470.52310	0.80723
1468.46929	0.81912
1466.41549	0.82992
1464.36169	0.83519
1462.30788	0.84421
1460.25408	0.86302
1458.20028	0.88858
1456.14648	0.91035
1454.09267	0.91987
1452.03887	0.92512
1449.98507	0.92933
1447.93126	0.93264
1445.87746	0.93495
1443.82366	0.93635
1441.76985	0.93740
1439.71605	0.93834
1437.66225	0.93946
1435.60844	0.94103
1433.55464	0.94255
1431.50084	0.94416
1429.44703	0.94591
1427.39323	0.94748
1425.33943	0.94887
1423.28562	0.95007
1421.23182	0.95092
1419.17802	0.95159
1417.12421	0.95208
1415.07041	0.95216
1413.01661	0.95201
1410.96280	0.95212
1408.90900	0.95277
1406.85520	0.95372
1404.80139	0.95463
1402.74759	0.95520
1400.69379	0.95559
1398.63999	0.95580
1396.58618	0.95552
1394.53238	0.95521
1392.47858	0.95541
1390.42477	0.95567
1388.37097	0.95573
1386.31717	0.95570
1384.26336	0.95540
1382.20956	0.95477
1380.15576	0.95375
1378.10195	0.95267
1376.04815	0.95222
1373.99435	0.95217
1371.94054	0.95179
1369.88674	0.95120
1367.83294	0.95083
1365.77913	0.95133
1363.72533	0.95285
1361.67153	0.95478
1359.61772	0.95641
1357.56392	0.95763
1355.51012	0.95824
1353.45631	0.95825
1351.40251	0.95831
1349.34871	0.95889
1347.29491	0.95958
1345.24110	0.96016
1343.18730	0.96074
1341.13350	0.96092
1339.07969	0.96082
1337.02589	0.96105
1334.97209	0.96149
1332.91828	0.96181
1330.86448	0.96194
1328.81068	0.96179
1326.75687	0.96129
1324.70307	0.96072
1322.64927	0.96018
1320.59546	0.95970
1318.54166	0.95939
1316.48786	0.95923
1314.43405	0.95930
1312.38025	0.95959
1310.32645	0.95990
1308.27264	0.95995
1306.21884	0.95965
1304.16504	0.95937
1302.11123	0.95942
1300.05743	0.95938
1298.00363	0.95904
1295.94982	0.95901
1293.89602	0.95943
1291.84222	0.95964
1289.78842	0.95947
1287.73461	0.95918
1285.68081	0.95889
1283.62701	0.95855
1281.57320	0.95792
1279.51940	0.95706
1277.46560	0.95634
1275.41179	0.95579
1273.35799	0.95515
1271.30419	0.95418
1269.25038	0.95311
1267.19658	0.95240
1265.14278	0.95207
1263.08897	0.95192
1261.03517	0.95177
1258.98137	0.95159
1256.92756	0.95154
1254.87376	0.95145
1252.81996	0.95124
1250.76615	0.95108
1248.71235	0.95093
1246.65855	0.95054
1244.60474	0.94990
1242.55094	0.94919
1240.49714	0.94864
1238.44334	0.94823
1236.38953	0.94790
1234.33573	0.94760
1232.28193	0.94735
1230.22812	0.94726
1228.17432	0.94705
1226.12052	0.94646
1224.06671	0.94578
1222.01291	0.94544
1219.95911	0.94527
1217.90530	0.94483
1215.85150	0.94405
1213.79770	0.94312
1211.74389	0.94212
1209.69009	0.94115
1207.63629	0.94032
1205.58248	0.93934
1203.52868	0.93796
1201.47488	0.93651
1199.42107	0.93524
1197.36727	0.93391
1195.31347	0.93223
1193.25966	0.93037
1191.20586	0.92878
1189.15206	0.92744
1187.09825	0.92562
1185.04445	0.92316
1182.99065	0.92070
1180.93685	0.91826
1178.88304	0.91537
1176.82924	0.91248
1174.77544	0.90997
1172.72163	0.90736
1170.66783	0.90449
1168.61403	0.90174
1166.56022	0.89936
1164.50642	0.89721
1162.45262	0.89495
1160.39881	0.89268
1158.34501	0.89059
1156.29121	0.88851
1154.23740	0.88629
1152.18360	0.88408
1150.12980	0.88213
1148.07599	0.88006
1146.02219	0.87777
1143.96839	0.87574
1141.91458	0.87383
1139.86078	0.87160
1137.80698	0.86895
1135.75317	0.86576
1133.69937	0.86200
1131.64557	0.85819
1129.59176	0.85453
1127.53796	0.85032
1125.48416	0.84500
1123.43036	0.83928
1121.37655	0.83365
1119.32275	0.82781
1117.26895	0.82230
1115.21514	0.81764
1113.16134	0.81337
1111.10754	0.80941
1109.05373	0.80597
1106.99993	0.80258
1104.94613	0.79898
1102.89232	0.79589
1100.83852	0.79379
1098.78472	0.79212
1096.73091	0.79030
1094.67711	0.78848
1092.62331	0.78697
1090.56950	0.78584
1088.51570	0.78479
1086.46190	0.78374
1084.40809	0.78278
1082.35429	0.78193
1080.30049	0.78102
1078.24668	0.77983
1076.19288	0.77819
1074.13908	0.77617
1072.08528	0.77381
1070.03147	0.77121
1067.97767	0.76841
1065.92387	0.76495
1063.87006	0.76052
1061.81626	0.75579
1059.76246	0.75127
1057.70865	0.74623
1055.65485	0.74029
1053.60105	0.73406
1051.54724	0.72776
1049.49344	0.72112
1047.43964	0.71438
1045.38583	0.70816
1043.33203	0.70216
1041.27823	0.69578
1039.22442	0.68964
1037.17062	0.68446
1035.11682	0.68033
1033.06301	0.67756
1031.00921	0.67603
1028.95541	0.67545
1026.90160	0.67585
1024.84780	0.67714
1022.79400	0.67897
1020.74019	0.68071
1018.68639	0.68172
1016.63259	0.68165
1014.57879	0.68075
1012.52498	0.67984
1010.47118	0.67929
1008.41738	0.67922
1006.36357	0.68039
1004.30977	0.68332
1002.25597	0.68750
1000.20216	0.69265
998.14836	0.69897
996.09456	0.70636
994.04075	0.71429
991.98695	0.72244
989.93315	0.73084
987.87934	0.73932
985.82554	0.74776
983.77174	0.75643
981.71793	0.76523
979.66413	0.77359
977.61033	0.78139
975.55652	0.78904
973.50272	0.79659
971.44892	0.80368
969.39511	0.80999
967.34131	0.81604
965.28751	0.82239
963.23371	0.82843
961.17990	0.83342
959.12610	0.83751
957.07230	0.84125
955.01849	0.84469
952.96469	0.84781
950.91089	0.85076
948.85708	0.85330
946.80328	0.85538
944.74948	0.85696
942.69567	0.85808
940.64187	0.85924
938.58807	0.86030
936.53426	0.86091
934.48046	0.86140
932.42666	0.86200
930.37285	0.86279
928.31905	0.86349
926.26525	0.86373
924.21144	0.86350
922.15764	0.86263
920.10384	0.86106
918.05003	0.85870
915.99623	0.85571
913.94243	0.85340
911.88862	0.85284
909.83482	0.85421
907.78102	0.85809
905.72722	0.86476
903.67341	0.87240
901.61961	0.87883
899.56581	0.88418
897.51200	0.88924
895.45820	0.89349
893.40440	0.89658
891.35059	0.89921
889.29679	0.90181
887.24299	0.90381
885.18918	0.90492
883.13538	0.90589
881.08158	0.90712
879.02777	0.90795
876.97397	0.90850
874.92017	0.90943
872.86636	0.91060
870.81256	0.91204
868.75876	0.91408
866.70495	0.91616
864.65115	0.91798
862.59735	0.91982
860.54354	0.92136
858.48974	0.92260
856.43594	0.92406
854.38213	0.92570
852.32833	0.92721
850.27453	0.92825
848.22073	0.92889
846.16692	0.92931
844.11312	0.92942
842.05932	0.92921
840.00551	0.92889
837.95171	0.92848
835.89791	0.92796
833.84410	0.92752
831.79030	0.92684
829.73650	0.92592
827.68269	0.92548
825.62889	0.92502
823.57509	0.92354
821.52128	0.92201
819.46748	0.92180
817.41368	0.92207
815.35987	0.92190
813.30607	0.92126
811.25227	0.92014
809.19846	0.91879
807.14466	0.91749
805.09086	0.91556
803.03705	0.91240
800.98325	0.90937
798.92945	0.90790
796.87565	0.90734
794.82184	0.90646
792.76804	0.90582
790.71424	0.90600
788.66043	0.90609
786.60663	0.90590
784.55283	0.90584
782.49902	0.90595
780.44522	0.90591
778.39142	0.90556
776.33761	0.90549
774.28381	0.90593
772.23001	0.90610
770.17620	0.90528
768.12240	0.90349
766.06860	0.90168
764.01479	0.90098
761.96099	0.90086
759.90719	0.89979
757.85338	0.89750
755.79958	0.89544
753.74578	0.89467
751.69197	0.89429
749.63817	0.89314
747.58437	0.89175
745.53056	0.89157
743.47676	0.89255
741.42296	0.89365
739.36916	0.89398
737.31535	0.89156
735.26155	0.88173
733.20775	0.85957
731.15394	0.83386
729.10014	0.82386
727.04634	0.82780
724.99253	0.82552
722.93873	0.80603
720.88493	0.77137
718.83112	0.73680
716.77732	0.72440
714.72352	0.74371
712.66971	0.78179
710.61591	0.81556
708.56211	0.83580
706.50830	0.84597
704.45450	0.85010
702.40070	0.85067
700.34689	0.84941
698.29309	0.84815
696.23929	0.84838
694.18548	0.84962
692.13168	0.85013
690.07788	0.85020
688.02408	0.85099
685.97027	0.85179
683.91647	0.85214
681.86267	0.85272
679.80886	0.85365
677.75506	0.85443
675.70126	0.85491
673.64745	0.85518
671.59365	0.85507
669.53985	0.85539
667.48604	0.85768
665.43224	0.86014
663.37844	0.86152
661.32463	0.86263
659.27083	0.86401
657.21703	0.86485
655.16322	0.86464
653.10942	0.86469
651.05562	0.86536
649.00181	0.86558
646.94801	0.86521
644.89421	0.86460
642.84040	0.86434
640.78660	0.86534
638.73280	0.86680
636.67899	0.86671
634.62519	0.86483
632.57139	0.86360
630.51759	0.86363
628.46378	0.86293
626.40998	0.86205
624.35618	0.86203
622.30237	0.86180
620.24857	0.86084
618.19477	0.85942
616.14096	0.85846
614.08716	0.85770
612.03336	0.85558
609.97955	0.85216
607.92575	0.84884
605.87195	0.84654
603.81814	0.84536
601.76434	0.84469
599.71054	0.84370
597.65673	0.84221
595.60293	0.84090
593.54913	0.84134
591.49532	0.84200
589.44152	0.83972
587.38772	0.83624
585.33391	0.83424
583.28011	0.83377
581.22631	0.83321
579.17250	0.83160
577.11870	0.82970
575.06490	0.82733
573.01110	0.82415
570.95729	0.82049
568.90349	0.81730
566.84969	0.81498
564.79588	0.81199
562.74208	0.80822
560.68828	0.80527
558.63447	0.80370
556.58067	0.80248
554.52687	0.79997
552.47306	0.79588
550.41926	0.79142
548.36546	0.78645
546.31165	0.78072
544.25785	0.77646
542.20405	0.77437
540.15024	0.77254
538.09644	0.76942
536.04264	0.76488
533.98883	0.76186
531.93503	0.76168
529.88123	0.76170
527.82742	0.76198
525.77362	0.76467
523.71982	0.76906
521.66602	0.77394
519.61221	0.77902
517.55841	0.78266
515.50461	0.78557
513.45080	0.78969
511.39700	0.79366
509.34320	0.79632
507.28939	0.79780
505.23559	0.79929
503.18179	0.80099
501.12798	0.80136
499.07418	0.80172
497.02038	0.80222
494.96657	0.80050
492.91277	0.79743
490.85897	0.79564
488.80516	0.79388
486.75136	0.79017
484.69756	0.78451
482.64375	0.77717
480.58995	0.76928
478.53615	0.75914
476.48234	0.74627
474.42854	0.73445
472.37474	0.72335
470.32093	0.71221
468.26713	0.70518
466.21333	0.70570
464.15953	0.71031
462.10572	0.71393
460.05192	0.71924
457.99812	0.72834
455.94431	0.73764
453.89051	0.74407
451.83671	0.74524
449.78290	0.74395
447.72910	0.74601
445.67530	0.75072
443.62149	0.75512
441.56769	0.75748
439.51389	0.75791
437.46008	0.75789
435.40628	0.75523
433.35248	0.75069
431.29867	0.75052
429.24487	0.75352
427.19107	0.75451
425.13726	0.75417
423.08346	0.75463
421.02966	0.75522
418.97585	0.75963
416.92205	0.77013
414.86825	0.77811
412.81445	0.78394
410.76064	0.78862
408.70684	0.79265
406.65304	0.79914
404.59923	0.80656
402.54543	0.81058
400.49163	0.81071
398.43782	0.81326
