3996.70104	0.96127
3994.64724	0.96159
3992.59344	0.96214
3990.53964	0.96203
3988.48583	0.96201
3986.43203	0.96264
3984.37823	0.96311
3982.32442	0.96313
3980.27062	0.96292
3978.21682	0.96282
3976.16301	0.96310
3974.10921	0.96333
3972.05541	0.96328
3970.00160	0.96316
3967.94780	0.96328
3965.89400	0.96360
3963.84019	0.96353
3961.78639	0.96314
3959.73259	0.96298
3957.67878	0.96285
3955.62498	0.96235
3953.57118	0.96200
3951.51737	0.96241
3949.46357	0.96287
3947.40977	0.96259
3945.35596	0.96222
3943.30216	0.96264
3941.24836	0.96340
3939.19455	0.96340
3937.14075	0.96272
3935.08695	0.96217
3933.03315	0.96216
3930.97934	0.96259
3928.92554	0.96299
3926.87174	0.96286
3924.81793	0.96257
3922.76413	0.96252
3920.71033	0.96228
3918.65652	0.96203
3916.60272	0.96224
3914.54892	0.96247
3912.49511	0.96245
3910.44131	0.96213
3908.38751	0.96164
3906.33370	0.96145
3904.27990	0.96141
3902.22610	0.96130
3900.17229	0.96183
3898.11849	0.96289
3896.06469	0.96333
3894.01088	0.96326
3891.95708	0.96319
3889.90328	0.96320
3887.84947	0.96331
3885.79567	0.96322
3883.74187	0.96286
3881.68807	0.96269
3879.63426	0.96281
3877.58046	0.96310
3875.52666	0.96345
3873.47285	0.96359
3871.41905	0.96359
3869.36525	0.96376
3867.31144	0.96391
3865.25764	0.96375
3863.20384	0.96362
3861.15003	0.96407
3859.09623	0.96421
3857.04243	0.96396
3854.98862	0.96420
3852.93482	0.96434
3850.88102	0.96338
3848.82721	0.96224
3846.77341	0.96144
3844.71961	0.96125
3842.66580	0.96140
3840.61200	0.96181
3838.55820	0.96254
3836.50439	0.96314
3834.45059	0.96347
3832.39679	0.96335
3830.34298	0.96279
3828.28918	0.96205
3826.23538	0.96154
3824.18158	0.96204
3822.12777	0.96303
3820.07397	0.96327
3818.02017	0.96306
3815.96636	0.96267
3813.91256	0.96220
3811.85876	0.96233
3809.80495	0.96261
3807.75115	0.96235
3805.69735	0.96199
3803.64354	0.96237
3801.58974	0.96301
3799.53594	0.96308
3797.48213	0.96293
3795.42833	0.96261
3793.37453	0.96220
3791.32072	0.96198
3789.26692	0.96209
3787.21312	0.96288
3785.15931	0.96361
3783.10551	0.96340
3781.05171	0.96320
3778.99790	0.96372
3776.94410	0.96394
3774.89030	0.96364
3772.83650	0.96338
3770.78269	0.96319
3768.72889	0.96321
3766.67509	0.96345
3764.62128	0.96378
3762.56748	0.96423
3760.51368	0.96431
3758.45987	0.96369
3756.40607	0.96309
3754.35227	0.96294
3752.29846	0.96288
3750.24466	0.96321
3748.19086	0.96449
3746.13705	0.96530
3744.08325	0.96468
3742.02945	0.96373
3739.97564	0.96330
3737.92184	0.96285
3735.86804	0.96264
3733.81423	0.96274
3731.76043	0.96274
3729.70663	0.96334
3727.65282	0.96418
3725.59902	0.96452
3723.54522	0.96416
3721.49141	0.96340
3719.43761	0.96267
3717.38381	0.96233
3715.33001	0.96226
3713.27620	0.96165
3711.22240	0.96080
3709.16860	0.96043
3707.11479	0.95960
3705.06099	0.95870
3703.00719	0.95841
3700.95338	0.95784
3698.89958	0.95659
3696.84578	0.95596
3694.79197	0.95638
3692.73817	0.95698
3690.68437	0.95680
3688.63056	0.95620
3686.57676	0.95687
3684.52296	0.95793
3682.46915	0.95805
3680.41535	0.95741
3678.36155	0.95668
3676.30774	0.95621
3674.25394	0.95613
3672.20014	0.95561
3670.14633	0.95456
3668.09253	0.95439
3666.03873	0.95511
3663.98492	0.95565
3661.93112	0.95583
3659.87732	0.95593
3657.82352	0.95541
3655.76971	0.95410
3653.71591	0.95343
3651.66211	0.95348
3649.60830	0.95303
3647.55450	0.95187
3645.50070	0.95131
3643.44689	0.95122
3641.39309	0.95111
3639.33929	0.95112
3637.28548	0.95123
3635.23168	0.95120
3633.17788	0.95091
3631.12407	0.95055
3629.07027	0.94982
3627.01647	0.94869
3624.96266	0.94793
3622.90886	0.94747
3620.85506	0.94752
3618.80125	0.94804
3616.74745	0.94833
3614.69365	0.94857
3612.63984	0.94895
3610.58604	0.94941
3608.53224	0.94984
3606.47844	0.94992
3604.42463	0.94996
3602.37083	0.95020
3600.31703	0.95003
3598.26322	0.94938
3596.20942	0.94928
3594.15562	0.94962
3592.10181	0.94973
3590.04801	0.94953
3587.99421	0.94917
3585.94040	0.94912
3583.88660	0.94923
3581.83280	0.94953
3579.77899	0.95010
3577.72519	0.94983
3575.67139	0.94888
3573.61758	0.94911
3571.56378	0.94988
3569.50998	0.94926
3567.45617	0.94803
3565.40237	0.94800
3563.34857	0.94817
3561.29476	0.94771
3559.24096	0.94720
3557.18716	0.94716
3555.13335	0.94751
3553.07955	0.94791
3551.02575	0.94826
3548.97195	0.94862
3546.91814	0.94869
3544.86434	0.94823
3542.81054	0.94756
3540.75673	0.94696
3538.70293	0.94703
3536.64913	0.94784
3534.59532	0.94822
3532.54152	0.94788
3530.48772	0.94752
3528.43391	0.94760
3526.38011	0.94805
3524.32631	0.94841
3522.27250	0.94851
3520.21870	0.94829
3518.16490	0.94768
3516.11109	0.94733
3514.05729	0.94751
3512.00349	0.94745
3509.94968	0.94710
3507.89588	0.94678
3505.84208	0.94660
3503.78827	0.94697
3501.73447	0.94756
3499.68067	0.94772
3497.62687	0.94774
3495.57306	0.94776
3493.51926	0.94797
3491.46546	0.94849
3489.41165	0.94849
3487.35785	0.94791
3485.30405	0.94747
3483.25024	0.94718
3481.19644	0.94722
3479.14264	0.94762
3477.08883	0.94746
3475.03503	0.94687
3472.98123	0.94656
3470.92742	0.94628
3468.87362	0.94583
3466.81982	0.94572
3464.76601	0.94614
3462.71221	0.94625
3460.65841	0.94585
3458.60460	0.94566
3456.55080	0.94564
3454.49700	0.94564
3452.44319	0.94597
3450.38939	0.94656
3448.33559	0.94656
3446.28178	0.94580
3444.22798	0.94527
3442.17418	0.94511
3440.12038	0.94474
3438.06657	0.94438
3436.01277	0.94446
3433.95897	0.94496
3431.90516	0.94538
3429.85136	0.94555
3427.79756	0.94569
3425.74375	0.94567
3423.68995	0.94504
3421.63615	0.94430
3419.58234	0.94420
3417.52854	0.94426
3415.47474	0.94450
3413.42093	0.94543
3411.36713	0.94626
3409.31333	0.94624
3407.25952	0.94555
3405.20572	0.94471
3403.15192	0.94441
3401.09811	0.94462
3399.04431	0.94449
3396.99051	0.94411
3394.93670	0.94407
3392.88290	0.94436
3390.82910	0.94493
3388.77529	0.94532
3386.72149	0.94525
3384.66769	0.94528
3382.61389	0.94546
3380.56008	0.94547
3378.50628	0.94551
3376.45248	0.94557
3374.39867	0.94544
3372.34487	0.94540
3370.29107	0.94551
3368.23726	0.94539
3366.18346	0.94493
3364.12966	0.94471
3362.07585	0.94496
3360.02205	0.94546
3357.96825	0.94603
3355.91444	0.94622
3353.86064	0.94579
3351.80684	0.94538
3349.75303	0.94548
3347.69923	0.94593
3345.64543	0.94641
3343.59162	0.94668
3341.53782	0.94658
3339.48402	0.94636
3337.43021	0.94634
3335.37641	0.94641
3333.32261	0.94653
3331.26881	0.94652
3329.21500	0.94639
3327.16120	0.94653
3325.10740	0.94711
3323.05359	0.94788
3320.99979	0.94827
3318.94599	0.94817
3316.89218	0.94775
3314.83838	0.94714
3312.78458	0.94676
3310.73077	0.94704
3308.67697	0.94753
3306.62317	0.94774
3304.56936	0.94786
3302.51556	0.94793
3300.46176	0.94797
3298.40795	0.94802
3296.35415	0.94814
3294.30035	0.94845
3292.24654	0.94867
3290.19274	0.94826
3288.13894	0.94753
3286.08513	0.94728
3284.03133	0.94743
3281.97753	0.94779
3279.92372	0.94842
3277.86992	0.94901
3275.81612	0.94922
3273.76232	0.94901
3271.70851	0.94875
3269.65471	0.94876
3267.60091	0.94883
3265.54710	0.94868
3263.49330	0.94868
3261.43950	0.94903
3259.38569	0.94909
3257.33189	0.94879
3255.27809	0.94854
3253.22428	0.94845
3251.17048	0.94887
3249.11668	0.94954
3247.06287	0.94978
3245.00907	0.94983
3242.95527	0.95029
3240.90146	0.95078
3238.84766	0.95052
3236.79386	0.95007
3234.74005	0.94996
3232.68625	0.94948
3230.63245	0.94895
3228.57864	0.94896
3226.52484	0.94908
3224.47104	0.94935
3222.41724	0.94987
3220.36343	0.95033
3218.30963	0.95058
3216.25583	0.95084
3214.20202	0.95125
3212.14822	0.95129
3210.09442	0.95090
3208.04061	0.95092
3205.98681	0.95140
3203.93301	0.95170
3201.87920	0.95164
3199.82540	0.95145
3197.77160	0.95162
3195.71779	0.95212
3193.66399	0.95237
3191.61019	0.95231
3189.55638	0.95230
3187.50258	0.95234
3185.44878	0.95215
3183.39497	0.95213
3181.34117	0.95265
3179.28737	0.95335
3177.23356	0.95383
3175.17976	0.95380
3173.12596	0.95322
3171.07215	0.95271
3169.01835	0.95285
3166.96455	0.95351
3164.91075	0.95391
3162.85694	0.95368
3160.80314	0.95358
3158.74934	0.95389
3156.69553	0.95371
3154.64173	0.95320
3152.58793	0.95331
3150.53412	0.95368
3148.48032	0.95393
3146.42652	0.95417
3144.37271	0.95407
3142.31891	0.95376
3140.26511	0.95378
3138.21130	0.95401
3136.15750	0.95437
3134.10370	0.95522
3132.04989	0.95583
3129.99609	0.95556
3127.94229	0.95533
3125.88848	0.95541
3123.83468	0.95538
3121.78088	0.95562
3119.72707	0.95588
3117.67327	0.95553
3115.61947	0.95532
3113.56566	0.95542
3111.51186	0.95498
3109.45806	0.95422
3107.40426	0.95364
3105.35045	0.95318
3103.29665	0.95312
3101.24285	0.95343
3099.18904	0.95340
3097.13524	0.95312
3095.08144	0.95299
3093.02763	0.95242
3090.97383	0.95100
3088.92003	0.94932
3086.86622	0.94769
3084.81242	0.94611
3082.75862	0.94548
3080.70481	0.94622
3078.65101	0.94737
3076.59721	0.94833
3074.54340	0.94878
3072.48960	0.94851
3070.43580	0.94781
3068.38199	0.94660
3066.32819	0.94494
3064.27439	0.94328
3062.22058	0.94175
3060.16678	0.94078
3058.11298	0.94112
3056.05918	0.94254
3054.00537	0.94429
3051.95157	0.94598
3049.89777	0.94744
3047.84396	0.94857
3045.79016	0.94932
3043.73636	0.94988
3041.68255	0.94982
3039.62875	0.94853
3037.57495	0.94640
3035.52114	0.94366
3033.46734	0.93994
3031.41354	0.93517
3029.35973	0.92973
3027.30593	0.92500
3025.25213	0.92297
3023.19832	0.92472
3021.14452	0.92941
3019.09072	0.93506
3017.03691	0.94003
3014.98311	0.94386
3012.92931	0.94664
3010.87550	0.94812
3008.82170	0.94844
3006.76790	0.94829
3004.71409	0.94823
3002.66029	0.94855
3000.60649	0.94921
2998.55269	0.95016
2996.49888	0.95136
2994.44508	0.95257
2992.39128	0.95353
2990.33747	0.95421
2988.28367	0.95471
2986.22987	0.95503
2984.17606	0.95513
2982.12226	0.95497
2980.06846	0.95464
2978.01465	0.95445
2975.96085	0.95469
2973.90705	0.95507
2971.85324	0.95511
2969.79944	0.95496
2967.74564	0.95475
2965.69183	0.95429
2963.63803	0.95370
2961.58423	0.95318
2959.53042	0.95270
2957.47662	0.95207
2955.42282	0.95118
2953.36901	0.95010
2951.31521	0.94908
2949.26141	0.94796
2947.20761	0.94644
2945.15380	0.94465
2943.10000	0.94241
2941.04620	0.93988
2938.99239	0.93778
2936.93859	0.93580
2934.88479	0.93323
2932.83098	0.92996
2930.77718	0.92653
2928.72338	0.92342
2926.66957	0.92052
2924.61577	0.91810
2922.56197	0.91650
2920.50816	0.91554
2918.45436	0.91531
2916.40056	0.91582
2914.34675	0.91695
2912.29295	0.91848
2910.23915	0.92007
2908.18534	0.92209
2906.13154	0.92463
2904.07774	0.92680
2902.02393	0.92865
2899.97013	0.93070
2897.91633	0.93278
2895.86252	0.93494
2893.80872	0.93703
2891.75492	0.93820
2889.70112	0.93877
2887.64731	0.93983
2885.59351	0.94119
2883.53971	0.94210
2881.48590	0.94258
2879.43210	0.94317
2877.37830	0.94422
2875.32449	0.94520
2873.27069	0.94557
2871.21689	0.94577
2869.16308	0.94605
2867.10928	0.94606
2865.05548	0.94582
2863.00167	0.94547
2860.94787	0.94487
2858.89407	0.94411
2856.84026	0.94317
2854.78646	0.94185
2852.73266	0.94038
2850.67885	0.93912
2848.62505	0.93836
2846.57125	0.93857
2844.51744	0.93976
2842.46364	0.94141
2840.40984	0.94344
2838.35603	0.94591
2836.30223	0.94807
2834.24843	0.94944
2832.19463	0.95052
2830.14082	0.95145
2828.08702	0.95190
2826.03322	0.95217
2823.97941	0.95270
2821.92561	0.95348
2819.87181	0.95405
2817.81800	0.95419
2815.76420	0.95431
2813.71040	0.95443
2811.65659	0.95443
2809.60279	0.95468
2807.54899	0.95503
2805.49518	0.95490
2803.44138	0.95456
2801.38758	0.95473
2799.33377	0.95523
2797.27997	0.95555
2795.22617	0.95580
2793.17236	0.95599
2791.11856	0.95600
2789.06476	0.95594
2787.01095	0.95578
2784.95715	0.95582
2782.90335	0.95630
2780.84955	0.95684
2778.79574	0.95692
2776.74194	0.95678
2774.68814	0.95700
2772.63433	0.95719
2770.58053	0.95694
2768.52673	0.95676
2766.47292	0.95700
2764.41912	0.95734
2762.36532	0.95754
2760.31151	0.95758
2758.25771	0.95770
2756.20391	0.95796
2754.15010	0.95789
2752.09630	0.95748
2750.04250	0.95712
2747.98869	0.95713
2745.93489	0.95732
2743.88109	0.95738
2741.82728	0.95750
2739.77348	0.95777
2737.71968	0.95789
2735.66587	0.95787
2733.61207	0.95789
2731.55827	0.95785
2729.50446	0.95767
2727.45066	0.95763
2725.39686	0.95788
2723.34306	0.95810
2721.28925	0.95794
2719.23545	0.95765
2717.18165	0.95755
2715.12784	0.95748
2713.07404	0.95734
2711.02024	0.95741
2708.96643	0.95769
2706.91263	0.95767
2704.85883	0.95747
2702.80502	0.95767
2700.75122	0.95808
2698.69742	0.95821
2696.64361	0.95802
2694.58981	0.95770
2692.53601	0.95746
2690.48220	0.95759
2688.42840	0.95799
2686.37460	0.95828
2684.32079	0.95827
2682.26699	0.95800
2680.21319	0.95786
2678.15938	0.95801
2676.10558	0.95808
2674.05178	0.95825
2671.99797	0.95871
2669.94417	0.95889
2667.89037	0.95855
2665.83657	0.95808
2663.78276	0.95769
2661.72896	0.95754
2659.67516	0.95768
2657.62135	0.95785
2655.56755	0.95778
2653.51375	0.95769
2651.45994	0.95772
2649.40614	0.95768
2647.35234	0.95762
2645.29853	0.95767
2643.24473	0.95775
2641.19093	0.95794
2639.13712	0.95808
2637.08332	0.95783
2635.02952	0.95741
2632.97571	0.95724
2630.92191	0.95756
2628.86811	0.95808
2626.81430	0.95822
2624.76050	0.95827
2622.70670	0.95874
2620.65289	0.95923
2618.59909	0.95912
2616.54529	0.95849
2614.49149	0.95814
2612.43768	0.95828
2610.38388	0.95822
2608.33008	0.95803
2606.27627	0.95831
2604.22247	0.95859
2602.16867	0.95851
2600.11486	0.95883
2598.06106	0.95936
2596.00726	0.95953
2593.95345	0.95986
2591.89965	0.96030
2589.84585	0.96040
2587.79204	0.96033
2585.73824	0.96016
2583.68444	0.95994
2581.63063	0.95988
2579.57683	0.95975
2577.52303	0.95961
2575.46922	0.95990
2573.41542	0.96011
2571.36162	0.95990
2569.30781	0.95954
2567.25401	0.95937
2565.20021	0.95965
2563.14640	0.96004
2561.09260	0.96009
2559.03880	0.95995
2556.98500	0.95982
2554.93119	0.95968
2552.87739	0.95971
2550.82359	0.95982
2548.76978	0.96005
2546.71598	0.96061
2544.66218	0.96079
2542.60837	0.96047
2540.55457	0.96055
2538.50077	0.96072
2536.44696	0.96052
2534.39316	0.96053
2532.33936	0.96067
2530.28555	0.96041
2528.23175	0.96037
2526.17795	0.96092
2524.12414	0.96120
2522.07034	0.96088
2520.01654	0.96076
2517.96273	0.96099
2515.90893	0.96091
2513.85513	0.96049
2511.80132	0.96028
2509.74752	0.96057
2507.69372	0.96108
2505.63992	0.96097
2503.58611	0.96022
2501.53231	0.95966
2499.47851	0.95958
2497.42470	0.96003
2495.37090	0.96086
2493.31710	0.96134
2491.26329	0.96100
2489.20949	0.96032
2487.15569	0.95972
2485.10188	0.95951
2483.04808	0.96001
2480.99428	0.96086
2478.94047	0.96157
2476.88667	0.96154
2474.83287	0.96101
2472.77906	0.96082
2470.72526	0.96085
2468.67146	0.96100
2466.61765	0.96143
2464.56385	0.96172
2462.51005	0.96158
2460.45624	0.96134
2458.40244	0.96111
2456.34864	0.96078
2454.29483	0.96093
2452.24103	0.96141
2450.18723	0.96127
2448.13343	0.96079
2446.07962	0.96080
2444.02582	0.96147
2441.97202	0.96193
2439.91821	0.96175
2437.86441	0.96161
2435.81061	0.96140
2433.75680	0.96069
2431.70300	0.96016
2429.64920	0.96021
2427.59539	0.96021
2425.54159	0.96042
2423.48779	0.96136
2421.43398	0.96220
2419.38018	0.96222
2417.32638	0.96164
2415.27257	0.96128
2413.21877	0.96156
2411.16497	0.96181
2409.11116	0.96166
2407.05736	0.96172
2405.00356	0.96221
2402.94975	0.96236
2400.89595	0.96181
2398.84215	0.96132
2396.78834	0.96181
2394.73454	0.96289
2392.68074	0.96313
2390.62694	0.96229
2388.57313	0.96160
2386.51933	0.96143
2384.46553	0.96155
2382.41172	0.96162
2380.35792	0.96118
2378.30412	0.96090
2376.25031	0.96114
2374.19651	0.96114
2372.14271	0.96102
2370.08890	0.96103
2368.03510	0.96093
2365.98130	0.96070
2363.92749	0.96100
2361.87369	0.96162
2359.81989	0.96180
2357.76608	0.96253
2355.71228	0.96388
2353.65848	0.96383
2351.60467	0.96210
2349.55087	0.96067
2347.49707	0.96021
2345.44326	0.95998
2343.38946	0.95906
2341.33566	0.95792
2339.28186	0.95792
2337.22805	0.95894
2335.17425	0.96003
2333.12045	0.96034
2331.06664	0.95990
2329.01284	0.95970
2326.95904	0.95965
2324.90523	0.95913
2322.85143	0.95864
2320.79763	0.95893
2318.74382	0.95971
2316.69002	0.95996
2314.63622	0.95915
2312.58241	0.95859
2310.52861	0.95932
2308.47481	0.95984
2306.42100	0.95942
2304.36720	0.95919
2302.31340	0.95943
2300.25959	0.95974
2298.20579	0.95982
2296.15199	0.95953
2294.09818	0.95938
2292.04438	0.95969
2289.99058	0.96032
2287.93677	0.96090
2285.88297	0.96087
2283.82917	0.96071
2281.77537	0.96079
2279.72156	0.96070
2277.66776	0.96033
2275.61396	0.96013
2273.56015	0.96054
2271.50635	0.96102
2269.45255	0.96126
2267.39874	0.96216
2265.34494	0.96303
2263.29114	0.96225
2261.23733	0.96109
2259.18353	0.96101
2257.12973	0.96119
2255.07592	0.96148
2253.02212	0.96175
2250.96832	0.96108
2248.91451	0.95975
2246.86071	0.95941
2244.80691	0.95993
2242.75310	0.96024
2240.69930	0.96166
2238.64550	0.96405
2236.59169	0.96521
2234.53789	0.96508
2232.48409	0.96441
2230.43029	0.96241
2228.37648	0.95977
2226.32268	0.95964
2224.26888	0.96220
2222.21507	0.96432
2220.16127	0.96460
2218.10747	0.96412
2216.05366	0.96326
2213.99986	0.96236
2211.94606	0.96213
2209.89225	0.96221
2207.83845	0.96241
2205.78465	0.96278
2203.73084	0.96301
2201.67704	0.96268
2199.62324	0.96220
2197.56943	0.96186
2195.51563	0.96193
2193.46183	0.96322
2191.40802	0.96376
2189.35422	0.96264
2187.30042	0.96233
2185.24661	0.96293
2183.19281	0.96310
2181.13901	0.96324
2179.08520	0.96282
2177.03140	0.96145
2174.97760	0.96176
2172.92380	0.96398
2170.86999	0.96506
2168.81619	0.96365
2166.76239	0.96163
2164.70858	0.96077
2162.65478	0.96042
2160.60098	0.96065
2158.54717	0.96256
2156.49337	0.96568
2154.43957	0.96776
2152.38576	0.96787
2150.33196	0.96700
2148.27816	0.96592
2146.22435	0.96455
2144.17055	0.96334
2142.11675	0.96359
2140.06294	0.96499
2138.00914	0.96626
2135.95534	0.96687
2133.90153	0.96675
2131.84773	0.96589
2129.79393	0.96489
2127.74012	0.96455
2125.68632	0.96456
2123.63252	0.96415
2121.57871	0.96338
2119.52491	0.96315
2117.47111	0.96318
2115.41731	0.96289
2113.36350	0.96252
2111.30970	0.96204
2109.25590	0.96173
2107.20209	0.96163
2105.14829	0.96116
2103.09449	0.96060
2101.04068	0.96040
2098.98688	0.96057
2096.93308	0.96168
2094.87927	0.96321
2092.82547	0.96374
2090.77167	0.96342
2088.71786	0.96261
2086.66406	0.96145
2084.61026	0.96099
2082.55645	0.96161
2080.50265	0.96211
2078.44885	0.96146
2076.39504	0.96098
2074.34124	0.96200
2072.28744	0.96305
2070.23363	0.96300
2068.17983	0.96198
2066.12603	0.96110
2064.07223	0.96156
2062.01842	0.96233
2059.96462	0.96212
2057.91082	0.96136
2055.85701	0.96187
2053.80321	0.96320
2051.74941	0.96296
2049.69560	0.96258
2047.64180	0.96371
2045.58800	0.96412
2043.53419	0.96372
2041.48039	0.96406
2039.42659	0.96351
2037.37278	0.96211
2035.31898	0.96174
2033.26518	0.96166
2031.21137	0.96100
2029.15757	0.96068
2027.10377	0.96195
2025.04996	0.96317
2022.99616	0.96316
2020.94236	0.96386
2018.88855	0.96551
2016.83475	0.96701
2014.78095	0.96656
2012.72714	0.96413
2010.67334	0.96234
2008.61954	0.96188
2006.56574	0.96243
2004.51193	0.96352
2002.45813	0.96300
2000.40433	0.96148
1998.35052	0.96217
1996.29672	0.96417
1994.24292	0.96537
1992.18911	0.96572
1990.13531	0.96438
1988.08151	0.96216
1986.02770	0.96174
1983.97390	0.96277
1981.92010	0.96265
1979.86629	0.96092
1977.81249	0.95985
1975.75869	0.95986
1973.70488	0.95923
1971.65108	0.95944
1969.59728	0.96179
1967.54347	0.96428
1965.48967	0.96431
1963.43587	0.96308
1961.38206	0.96353
1959.32826	0.96477
1957.27446	0.96517
1955.22066	0.96526
1953.16685	0.96498
1951.11305	0.96390
1949.05925	0.96367
1947.00544	0.96442
1944.95164	0.96460
1942.89784	0.96395
1940.84403	0.96263
1938.79023	0.96206
1936.73643	0.96261
1934.68262	0.96309
1932.62882	0.96265
1930.57502	0.96169
1928.52121	0.96192
1926.46741	0.96288
1924.41361	0.96302
1922.35980	0.96273
1920.30600	0.96270
1918.25220	0.96229
1916.19839	0.96148
1914.14459	0.96158
1912.09079	0.96231
1910.03698	0.96245
1907.98318	0.96213
1905.92938	0.96238
1903.87557	0.96264
1901.82177	0.96213
1899.76797	0.96164
1897.71417	0.96150
1895.66036	0.96126
1893.60656	0.96081
1891.55276	0.96060
1889.49895	0.96053
1887.44515	0.96057
1885.39135	0.96130
1883.33754	0.96166
1881.28374	0.96087
1879.22994	0.96015
1877.17613	0.95993
1875.12233	0.96013
1873.06853	0.96057
1871.01472	0.96055
1868.96092	0.96031
1866.90712	0.96020
1864.85331	0.96018
1862.79951	0.96033
1860.74571	0.96057
1858.69190	0.96078
1856.63810	0.96081
1854.58430	0.96108
1852.53049	0.96178
1850.47669	0.96270
1848.42289	0.96346
1846.36908	0.96346
1844.31528	0.96304
1842.26148	0.96297
1840.20768	0.96306
1838.15387	0.96318
1836.10007	0.96339
1834.04627	0.96370
1831.99246	0.96412
1829.93866	0.96407
1827.88486	0.96299
1825.83105	0.96184
1823.77725	0.96148
1821.72345	0.96136
1819.66964	0.96107
1817.61584	0.96114
1815.56204	0.96134
1813.50823	0.96107
1811.45443	0.96057
1809.40063	0.96034
1807.34682	0.96009
1805.29302	0.95954
1803.23922	0.95921
1801.18541	0.95926
1799.13161	0.95923
1797.07781	0.95888
1795.02400	0.95870
1792.97020	0.95934
1790.91640	0.96061
1788.86260	0.96136
1786.80879	0.96137
1784.75499	0.96124
1782.70119	0.96131
1780.64738	0.96152
1778.59358	0.96184
1776.53978	0.96188
1774.48597	0.96116
1772.43217	0.96034
1770.37837	0.96051
1768.32456	0.96113
1766.27076	0.96161
1764.21696	0.96186
1762.16315	0.96180
1760.10935	0.96135
1758.05555	0.96061
1756.00174	0.95993
1753.94794	0.95958
1751.89414	0.95953
1749.84033	0.95952
1747.78653	0.95926
1745.73273	0.95908
1743.67892	0.95899
1741.62512	0.95884
1739.57132	0.95890
1737.51751	0.95896
1735.46371	0.95907
1733.40991	0.95964
1731.35611	0.96029
1729.30230	0.96042
1727.24850	0.96000
1725.19470	0.95968
1723.14089	0.95993
1721.08709	0.96028
1719.03329	0.96022
1716.97948	0.95997
1714.92568	0.95996
1712.87188	0.96002
1710.81807	0.96007
1708.76427	0.96012
1706.71047	0.96011
1704.65666	0.95984
1702.60286	0.95947
1700.54906	0.95920
1698.49525	0.95910
1696.44145	0.95905
1694.38765	0.95861
1692.33384	0.95808
1690.28004	0.95772
1688.22624	0.95743
1686.17243	0.95678
1684.11863	0.95561
1682.06483	0.95527
1680.01103	0.95552
1677.95722	0.95526
1675.90342	0.95440
1673.84962	0.95379
1671.79581	0.95363
1669.74201	0.95343
1667.68821	0.95357
1665.63440	0.95362
1663.58060	0.95309
1661.52680	0.95245
1659.47299	0.95215
1657.41919	0.95211
1655.36539	0.95234
1653.31158	0.95273
1651.25778	0.95271
1649.20398	0.95267
1647.15017	0.95295
1645.09637	0.95319
1643.04257	0.95320
1640.98876	0.95332
1638.93496	0.95345
1636.88116	0.95320
1634.82735	0.95267
1632.77355	0.95269
1630.71975	0.95293
1628.66594	0.95282
1626.61214	0.95278
1624.55834	0.95306
1622.50454	0.95288
1620.45073	0.95246
1618.39693	0.95265
1616.34313	0.95319
1614.28932	0.95313
1612.23552	0.95250
1610.18172	0.95083
1608.12791	0.94694
1606.07411	0.94085
1604.02031	0.93412
1601.96650	0.92937
1599.91270	0.92931
1597.85890	0.93359
1595.80509	0.93922
1593.75129	0.94370
1591.69749	0.94653
1589.64368	0.94794
1587.58988	0.94807
1585.53608	0.94728
1583.48227	0.94664
1581.42847	0.94746
1579.37467	0.94960
1577.32086	0.95194
1575.26706	0.95349
1573.21326	0.95415
1571.15945	0.95465
1569.10565	0.95525
1567.05185	0.95587
1564.99805	0.95637
1562.94424	0.95665
1560.89044	0.95644
1558.83664	0.95605
1556.78283	0.95651
1554.72903	0.95676
1552.67523	0.95667
1550.62142	0.95647
1548.56762	0.95622
1546.51382	0.95605
1544.46001	0.95574
1542.40621	0.95536
1540.35241	0.95540
1538.29860	0.95565
1536.24480	0.95593
1534.19100	0.95645
1532.13719	0.95701
1530.08339	0.95722
1528.02959	0.95739
1525.97578	0.95803
1523.92198	0.95883
1521.86818	0.95906
1519.81437	0.95877
1517.76057	0.95841
1515.70677	0.95829
1513.65297	0.95857
1511.59916	0.95893
1509.54536	0.95907
1507.49156	0.95875
1505.43775	0.95782
1503.38395	0.95627
1501.33015	0.95311
1499.27634	0.94543
1497.22254	0.92669
1495.16874	0.90030
1493.11493	0.88495
1491.06113	0.88899
1489.00733	0.90940
1486.95352	0.92745
1484.89972	0.93668
1482.84592	0.94199
1480.79211	0.94554
1478.73831	0.94780
1476.68451	0.94918
1474.63070	0.95010
1472.57690	0.95056
1470.52310	0.95081
1468.46929	0.95110
1466.41549	0.95106
1464.36169	0.95034
1462.30788	0.94921
1460.25408	0.94698
1458.20028	0.93751
1456.14648	0.91246
1454.09267	0.89002
1452.03887	0.88080
1449.98507	0.88363
1447.93126	0.89374
1445.87746	0.90397
1443.82366	0.91220
1441.76985	0.91904
1439.71605	0.92427
1437.66225	0.92908
1435.60844	0.93421
1433.55464	0.93786
1431.50084	0.94041
1429.44703	0.94273
1427.39323	0.94459
1425.33943	0.94594
1423.28562	0.94710
1421.23182	0.94806
1419.17802	0.94875
1417.12421	0.94932
1415.07041	0.94995
1413.01661	0.95060
1410.96280	0.95124
1408.90900	0.95174
1406.85520	0.95197
1404.80139	0.95218
1402.74759	0.95268
1400.69379	0.95325
1398.63999	0.95341
1396.58618	0.95330
1394.53238	0.95320
1392.47858	0.95304
1390.42477	0.95269
1388.37097	0.95188
1386.31717	0.95067
1384.26336	0.94944
1382.20956	0.94847
1380.15576	0.94786
1378.10195	0.94714
1376.04815	0.94616
1373.99435	0.94551
1371.94054	0.94545
1369.88674	0.94567
1367.83294	0.94590
1365.77913	0.94597
1363.72533	0.94599
1361.67153	0.94644
1359.61772	0.94720
1357.56392	0.94759
1355.51012	0.94780
1353.45631	0.94807
1351.40251	0.94811
1349.34871	0.94802
1347.29491	0.94823
1345.24110	0.94869
1343.18730	0.94911
1341.13350	0.94952
1339.07969	0.95001
1337.02589	0.95007
1334.97209	0.94958
1332.91828	0.94898
1330.86448	0.94855
1328.81068	0.94844
1326.75687	0.94853
1324.70307	0.94876
1322.64927	0.94909
1320.59546	0.94930
1318.54166	0.94939
1316.48786	0.94944
1314.43405	0.94950
1312.38025	0.94959
1310.32645	0.94962
1308.27264	0.94953
1306.21884	0.94946
1304.16504	0.94984
1302.11123	0.95068
1300.05743	0.95138
1298.00363	0.95162
1295.94982	0.95160
1293.89602	0.95157
1291.84222	0.95163
1289.78842	0.95156
1287.73461	0.95116
1285.68081	0.95085
1283.62701	0.95094
1281.57320	0.95124
1279.51940	0.95150
1277.46560	0.95145
1275.41179	0.95120
1273.35799	0.95128
1271.30419	0.95171
1269.25038	0.95197
1267.19658	0.95193
1265.14278	0.95176
1263.08897	0.95146
1261.03517	0.95134
1258.98137	0.95162
1256.92756	0.95179
1254.87376	0.95181
1252.81996	0.95192
1250.76615	0.95168
1248.71235	0.95107
1246.65855	0.95055
1244.60474	0.95037
1242.55094	0.95021
1240.49714	0.94973
1238.44334	0.94930
1236.38953	0.94905
1234.33573	0.94863
1232.28193	0.94812
1230.22812	0.94780
1228.17432	0.94760
1226.12052	0.94728
1224.06671	0.94658
1222.01291	0.94568
1219.95911	0.94482
1217.90530	0.94371
1215.85150	0.94229
1213.79770	0.94100
1211.74389	0.93979
1209.69009	0.93820
1207.63629	0.93626
1205.58248	0.93415
1203.52868	0.93181
1201.47488	0.92943
1199.42107	0.92704
1197.36727	0.92451
1195.31347	0.92196
1193.25966	0.91959
1191.20586	0.91717
1189.15206	0.91427
1187.09825	0.91102
1185.04445	0.90771
1182.99065	0.90445
1180.93685	0.90147
1178.88304	0.89924
1176.82924	0.89767
1174.77544	0.89618
1172.72163	0.89455
1170.66783	0.89245
1168.61403	0.88975
1166.56022	0.88704
1164.50642	0.88490
1162.45262	0.88301
1160.39881	0.88100
1158.34501	0.87872
1156.29121	0.87602
1154.23740	0.87357
1152.18360	0.87227
1150.12980	0.87206
1148.07599	0.87215
1146.02219	0.87208
1143.96839	0.87175
1141.91458	0.87088
1139.86078	0.86977
1137.80698	0.86897
1135.75317	0.86863
1133.69937	0.86818
1131.64557	0.86692
1129.59176	0.86492
1127.53796	0.86262
1125.48416	0.86033
1123.43036	0.85802
1121.37655	0.85522
1119.32275	0.85154
1117.26895	0.84729
1115.21514	0.84308
1113.16134	0.83922
1111.10754	0.83560
1109.05373	0.83207
1106.99993	0.82906
1104.94613	0.82694
1102.89232	0.82529
1100.83852	0.82367
1098.78472	0.82197
1096.73091	0.82005
1094.67711	0.81844
1092.62331	0.81747
1090.56950	0.81672
1088.51570	0.81587
1086.46190	0.81485
1084.40809	0.81385
1082.35429	0.81314
1080.30049	0.81231
1078.24668	0.81078
1076.19288	0.80877
1074.13908	0.80645
1072.08528	0.80376
1070.03147	0.80084
1067.97767	0.79790
1065.92387	0.79537
1063.87006	0.79345
1061.81626	0.79163
1059.76246	0.78942
1057.70865	0.78699
1055.65485	0.78439
1053.60105	0.78122
1051.54724	0.77733
1049.49344	0.77263
1047.43964	0.76722
1045.38583	0.76141
1043.33203	0.75523
1041.27823	0.74871
1039.22442	0.74224
1037.17062	0.73552
1035.11682	0.72784
1033.06301	0.71953
1031.00921	0.71151
1028.95541	0.70497
1026.90160	0.70120
1024.84780	0.70009
1022.79400	0.69985
1020.74019	0.69941
1018.68639	0.69898
1016.63259	0.69847
1014.57879	0.69756
1012.52498	0.69629
1010.47118	0.69481
1008.41738	0.69309
1006.36357	0.69151
1004.30977	0.69061
1002.25597	0.69092
1000.20216	0.69264
998.14836	0.69537
996.09456	0.69870
994.04075	0.70224
991.98695	0.70564
989.93315	0.70888
987.87934	0.71221
985.82554	0.71605
983.77174	0.72055
981.71793	0.72554
979.66413	0.73103
977.61033	0.73730
975.55652	0.74430
973.50272	0.75151
971.44892	0.75867
969.39511	0.76540
967.34131	0.77122
965.28751	0.77670
963.23371	0.78226
961.17990	0.78754
959.12610	0.79262
957.07230	0.79797
955.01849	0.80316
952.96469	0.80750
950.91089	0.81109
948.85708	0.81413
946.80328	0.81650
944.74948	0.81839
942.69567	0.82047
940.64187	0.82334
938.58807	0.82658
936.53426	0.82927
934.48046	0.83139
932.42666	0.83348
930.37285	0.83581
928.31905	0.83810
926.26525	0.83977
924.21144	0.84066
922.15764	0.84122
920.10384	0.84182
918.05003	0.84206
915.99623	0.84125
913.94243	0.83943
911.88862	0.83751
909.83482	0.83635
907.78102	0.83648
905.72722	0.83858
903.67341	0.84268
901.61961	0.84844
899.56581	0.85543
897.51200	0.86230
895.45820	0.86796
893.40440	0.87259
891.35059	0.87666
889.29679	0.88012
887.24299	0.88282
885.18918	0.88488
883.13538	0.88642
881.08158	0.88776
879.02777	0.88943
876.97397	0.89188
874.92017	0.89490
872.86636	0.89756
870.81256	0.89970
868.75876	0.90205
866.70495	0.90430
864.65115	0.90561
862.59735	0.90669
860.54354	0.90875
858.48974	0.91135
856.43594	0.91312
854.38213	0.91396
852.32833	0.91432
850.27453	0.91384
848.22073	0.91270
846.16692	0.91182
844.11312	0.91125
842.05932	0.91058
840.00551	0.91025
837.95171	0.91079
835.89791	0.91202
833.84410	0.91328
831.79030	0.91368
829.73650	0.91372
827.68269	0.91471
825.62889	0.91635
823.57509	0.91773
821.52128	0.91879
819.46748	0.91983
817.41368	0.92060
815.35987	0.92040
813.30607	0.91965
811.25227	0.91897
809.19846	0.91709
807.14466	0.91332
805.09086	0.90888
803.03705	0.90479
800.98325	0.90120
798.92945	0.89840
796.87565	0.89707
794.82184	0.89689
792.76804	0.89655
790.71424	0.89559
788.66043	0.89444
786.60663	0.89287
784.55283	0.89098
782.49902	0.88921
780.44522	0.88693
778.39142	0.88402
776.33761	0.88089
774.28381	0.87630
772.23001	0.86932
770.17620	0.86045
768.12240	0.85002
766.06860	0.83840
764.01479	0.82620
761.96099	0.81436
759.90719	0.80399
757.85338	0.79592
755.79958	0.79088
753.74578	0.78946
751.69197	0.79035
749.63817	0.79143
747.58437	0.79394
745.53056	0.80003
743.47676	0.81012
741.42296	0.82366
739.36916	0.83768
737.31535	0.84967
735.26155	0.86068
733.20775	0.87072
731.15394	0.87784
729.10014	0.88184
727.04634	0.88413
724.99253	0.88610
722.93873	0.88840
720.88493	0.89103
718.83112	0.89372
716.77732	0.89566
714.72352	0.89592
712.66971	0.89305
710.61591	0.88414
708.56211	0.86553
706.50830	0.83386
704.45450	0.78693
702.40070	0.72679
700.34689	0.66016
698.29309	0.59907
696.23929	0.56759
694.18548	0.58986
692.13168	0.65534
690.07788	0.72462
688.02408	0.77304
685.97027	0.80156
683.91647	0.81816
681.86267	0.82906
679.80886	0.83717
677.75506	0.84318
675.70126	0.84811
673.64745	0.85183
671.59365	0.85415
669.53985	0.85653
667.48604	0.85775
665.43224	0.85717
663.37844	0.85807
661.32463	0.85995
659.27083	0.86006
657.21703	0.85780
655.16322	0.85496
653.10942	0.85292
651.05562	0.85096
649.00181	0.84927
646.94801	0.84987
644.89421	0.85312
642.84040	0.85742
640.78660	0.86114
638.73280	0.86371
636.67899	0.86510
634.62519	0.86532
632.57139	0.86469
630.51759	0.86392
628.46378	0.86358
626.40998	0.86366
624.35618	0.86303
622.30237	0.86009
620.24857	0.85581
618.19477	0.85263
616.14096	0.85046
614.08716	0.84749
612.03336	0.84375
609.97955	0.84063
607.92575	0.83855
605.87195	0.83708
603.81814	0.83640
601.76434	0.83582
599.71054	0.83297
597.65673	0.82846
595.60293	0.82537
593.54913	0.82272
591.49532	0.81918
589.44152	0.81713
587.38772	0.81683
585.33391	0.81635
583.28011	0.81550
581.22631	0.81531
579.17250	0.81521
577.11870	0.81354
575.06490	0.81033
573.01110	0.80634
570.95729	0.80216
568.90349	0.79961
566.84969	0.79902
564.79588	0.79722
562.74208	0.79198
560.68828	0.78464
558.63447	0.77792
556.58067	0.77317
554.52687	0.76916
552.47306	0.76417
550.41926	0.75858
548.36546	0.75216
546.31165	0.74309
544.25785	0.73158
542.20405	0.72076
540.15024	0.71209
538.09644	0.70359
536.04264	0.69587
533.98883	0.69234
531.93503	0.69376
529.88123	0.69839
527.82742	0.70495
525.77362	0.71303
523.71982	0.72092
521.66602	0.72745
519.61221	0.73294
517.55841	0.73871
515.50461	0.74564
513.45080	0.75241
511.39700	0.75771
509.34320	0.76201
507.28939	0.76616
505.23559	0.77029
503.18179	0.77468
501.12798	0.77765
499.07418	0.77804
497.02038	0.77782
494.96657	0.77721
492.91277	0.77395
490.85897	0.76713
488.80516	0.75825
486.75136	0.74771
484.69756	0.73479
482.64375	0.72053
480.58995	0.70774
478.53615	0.69698
476.48234	0.68629
474.42854	0.67460
472.37474	0.66282
470.32093	0.65409
468.26713	0.64964
466.21333	0.64842
464.15953	0.64976
462.10572	0.65426
460.05192	0.66094
457.99812	0.66851
455.94431	0.67846
453.89051	0.68806
451.83671	0.69549
449.78290	0.70306
447.72910	0.70924
445.67530	0.71130
443.62149	0.71071
441.56769	0.70922
439.51389	0.70927
437.46008	0.70886
435.40628	0.70249
433.35248	0.69431
431.29867	0.69006
429.24487	0.68960
427.19107	0.69231
425.13726	0.69708
423.08346	0.70118
421.02966	0.70345
418.97585	0.70508
416.92205	0.70343
414.86825	0.70305
412.81445	0.70906
410.76064	0.71713
408.70684	0.72061
406.65304	0.71927
404.59923	0.71671
402.54543	0.71371
400.49163	0.70947
398.43782	0.70668
