3996.70104	0.97629
3994.64724	0.97650
3992.59344	0.97658
3990.53964	0.97628
3988.48583	0.97626
3986.43203	0.97673
3984.37823	0.97707
3982.32442	0.97708
3980.27062	0.97689
3978.21682	0.97657
3976.16301	0.97654
3974.10921	0.97692
3972.05541	0.97720
3970.00160	0.97700
3967.94780	0.97658
3965.89400	0.97654
3963.84019	0.97708
3961.78639	0.97750
3959.73259	0.97719
3957.67878	0.97673
3955.62498	0.97705
3953.57118	0.97754
3951.51737	0.97714
3949.46357	0.97655
3947.40977	0.97674
3945.35596	0.97732
3943.30216	0.97751
3941.24836	0.97702
3939.19455	0.97648
3937.14075	0.97636
3935.08695	0.97665
3933.03315	0.97690
3930.97934	0.97689
3928.92554	0.97663
3926.87174	0.97618
3924.81793	0.97630
3922.76413	0.97699
3920.71033	0.97708
3918.65652	0.97659
3916.60272	0.97672
3914.54892	0.97728
3912.49511	0.97723
3910.44131	0.97705
3908.38751	0.97738
3906.33370	0.97799
3904.27990	0.97830
3902.22610	0.97803
3900.17229	0.97769
3898.11849	0.97768
3896.06469	0.97796
3894.01088	0.97825
3891.95708	0.97814
3889.90328	0.97774
3887.84947	0.97728
3885.79567	0.97680
3883.74187	0.97701
3881.68807	0.97735
3879.63426	0.97712
3877.58046	0.97690
3875.52666	0.97682
3873.47285	0.97714
3871.41905	0.97807
3869.36525	0.97828
3867.31144	0.97709
3865.25764	0.97613
3863.20384	0.97618
3861.15003	0.97633
3859.09623	0.97635
3857.04243	0.97672
3854.98862	0.97709
3852.93482	0.97703
3850.88102	0.97703
3848.82721	0.97676
3846.77341	0.97643
3844.71961	0.97670
3842.66580	0.97727
3840.61200	0.97744
3838.55820	0.97754
3836.50439	0.97790
3834.45059	0.97790
3832.39679	0.97761
3830.34298	0.97740
3828.28918	0.97706
3826.23538	0.97698
3824.18158	0.97749
3822.12777	0.97787
3820.07397	0.97776
3818.02017	0.97755
3815.96636	0.97752
3813.91256	0.97797
3811.85876	0.97820
3809.80495	0.97752
3807.75115	0.97626
3805.69735	0.97591
3803.64354	0.97706
3801.58974	0.97845
3799.53594	0.97888
3797.48213	0.97881
3795.42833	0.97856
3793.37453	0.97827
3791.32072	0.97788
3789.26692	0.97760
3787.21312	0.97770
3785.15931	0.97776
3783.10551	0.97810
3781.05171	0.97879
3778.99790	0.97871
3776.94410	0.97814
3774.89030	0.97839
3772.83650	0.97874
3770.78269	0.97805
3768.72889	0.97729
3766.67509	0.97773
3764.62128	0.97843
3762.56748	0.97832
3760.51368	0.97797
3758.45987	0.97827
3756.40607	0.97880
3754.35227	0.97833
3752.29846	0.97659
3750.24466	0.97572
3748.19086	0.97689
3746.13705	0.97798
3744.08325	0.97878
3742.02945	0.97930
3739.97564	0.97993
3737.92184	0.98030
3735.86804	0.97948
3733.81423	0.97873
3731.76043	0.97860
3729.70663	0.97804
3727.65282	0.97770
3725.59902	0.97837
3723.54522	0.97904
3721.49141	0.97870
3719.43761	0.97839
3717.38381	0.97837
3715.33001	0.97766
3713.27620	0.97668
3711.22240	0.97649
3709.16860	0.97610
3707.11479	0.97478
3705.06099	0.97329
3703.00719	0.97196
3700.95338	0.97063
3698.89958	0.96947
3696.84578	0.96896
3694.79197	0.96898
3692.73817	0.96879
3690.68437	0.96848
3688.63056	0.96927
3686.57676	0.97066
3684.52296	0.97154
3682.46915	0.97186
3680.41535	0.97143
3678.36155	0.97076
3676.30774	0.97086
3674.25394	0.97148
3672.20014	0.97135
3670.14633	0.97036
3668.09253	0.96937
3666.03873	0.96894
3663.98492	0.96845
3661.93112	0.96770
3659.87732	0.96707
3657.82352	0.96677
3655.76971	0.96652
3653.71591	0.96619
3651.66211	0.96578
3649.60830	0.96504
3647.55450	0.96448
3645.50070	0.96465
3643.44689	0.96478
3641.39309	0.96424
3639.33929	0.96303
3637.28548	0.96178
3635.23168	0.96092
3633.17788	0.96030
3631.12407	0.95948
3629.07027	0.95790
3627.01647	0.95647
3624.96266	0.95630
3622.90886	0.95683
3620.85506	0.95690
3618.80125	0.95568
3616.74745	0.95528
3614.69365	0.95638
3612.63984	0.95667
3610.58604	0.95575
3608.53224	0.95522
3606.47844	0.95517
3604.42463	0.95500
3602.37083	0.95455
3600.31703	0.95388
3598.26322	0.95329
3596.20942	0.95282
3594.15562	0.95250
3592.10181	0.95249
3590.04801	0.95244
3587.99421	0.95184
3585.94040	0.95066
3583.88660	0.94974
3581.83280	0.94936
3579.77899	0.94901
3577.72519	0.94852
3575.67139	0.94809
3573.61758	0.94769
3571.56378	0.94747
3569.50998	0.94753
3567.45617	0.94728
3565.40237	0.94587
3563.34857	0.94423
3561.29476	0.94336
3559.24096	0.94321
3557.18716	0.94326
3555.13335	0.94342
3553.07955	0.94367
3551.02575	0.94340
3548.97195	0.94243
3546.91814	0.94154
3544.86434	0.94095
3542.81054	0.94019
3540.75673	0.93956
3538.70293	0.93931
3536.64913	0.93896
3534.59532	0.93835
3532.54152	0.93772
3530.48772	0.93691
3528.43391	0.93572
3526.38011	0.93468
3524.32631	0.93460
3522.27250	0.93496
3520.21870	0.93471
3518.16490	0.93360
3516.11109	0.93195
3514.05729	0.93092
3512.00349	0.93098
3509.94968	0.93100
3507.89588	0.93045
3505.84208	0.93005
3503.78827	0.92962
3501.73447	0.92888
3499.68067	0.92871
3497.62687	0.92866
3495.57306	0.92786
3493.51926	0.92721
3491.46546	0.92730
3489.41165	0.92726
3487.35785	0.92665
3485.30405	0.92595
3483.25024	0.92544
3481.19644	0.92475
3479.14264	0.92390
3477.08883	0.92339
3475.03503	0.92311
3472.98123	0.92266
3470.92742	0.92191
3468.87362	0.92109
3466.81982	0.92031
3464.76601	0.91954
3462.71221	0.91912
3460.65841	0.91872
3458.60460	0.91779
3456.55080	0.91667
3454.49700	0.91594
3452.44319	0.91550
3450.38939	0.91522
3448.33559	0.91523
3446.28178	0.91498
3444.22798	0.91441
3442.17418	0.91388
3440.12038	0.91316
3438.06657	0.91235
3436.01277	0.91176
3433.95897	0.91157
3431.90516	0.91170
3429.85136	0.91175
3427.79756	0.91139
3425.74375	0.91042
3423.68995	0.90933
3421.63615	0.90900
3419.58234	0.90894
3417.52854	0.90843
3415.47474	0.90794
3413.42093	0.90766
3411.36713	0.90730
3409.31333	0.90694
3407.25952	0.90649
3405.20572	0.90572
3403.15192	0.90506
3401.09811	0.90483
3399.04431	0.90465
3396.99051	0.90437
3394.93670	0.90424
3392.88290	0.90440
3390.82910	0.90451
3388.77529	0.90413
3386.72149	0.90327
3384.66769	0.90244
3382.61389	0.90191
3380.56008	0.90141
3378.50628	0.90100
3376.45248	0.90088
3374.39867	0.90107
3372.34487	0.90122
3370.29107	0.90107
3368.23726	0.90076
3366.18346	0.90036
3364.12966	0.89992
3362.07585	0.89992
3360.02205	0.90042
3357.96825	0.90063
3355.91444	0.90059
3353.86064	0.90070
3351.80684	0.90082
3349.75303	0.90089
3347.69923	0.90066
3345.64543	0.90014
3343.59162	0.89966
3341.53782	0.89914
3339.48402	0.89902
3337.43021	0.89958
3335.37641	0.90014
3333.32261	0.90053
3331.26881	0.90081
3329.21500	0.90061
3327.16120	0.90020
3325.10740	0.90026
3323.05359	0.90081
3320.99979	0.90136
3318.94599	0.90184
3316.89218	0.90239
3314.83838	0.90287
3312.78458	0.90313
3310.73077	0.90325
3308.67697	0.90340
3306.62317	0.90355
3304.56936	0.90345
3302.51556	0.90334
3300.46176	0.90342
3298.40795	0.90341
3296.35415	0.90362
3294.30035	0.90420
3292.24654	0.90449
3290.19274	0.90425
3288.13894	0.90399
3286.08513	0.90394
3284.03133	0.90404
3281.97753	0.90426
3279.92372	0.90454
3277.86992	0.90509
3275.81612	0.90558
3273.76232	0.90559
3271.70851	0.90572
3269.65471	0.90616
3267.60091	0.90639
3265.54710	0.90643
3263.49330	0.90665
3261.43950	0.90697
3259.38569	0.90729
3257.33189	0.90793
3255.27809	0.90866
3253.22428	0.90878
3251.17048	0.90872
3249.11668	0.90942
3247.06287	0.91039
3245.00907	0.91075
3242.95527	0.91076
3240.90146	0.91098
3238.84766	0.91147
3236.79386	0.91186
3234.74005	0.91209
3232.68625	0.91250
3230.63245	0.91308
3228.57864	0.91358
3226.52484	0.91405
3224.47104	0.91479
3222.41724	0.91550
3220.36343	0.91575
3218.30963	0.91592
3216.25583	0.91648
3214.20202	0.91697
3212.14822	0.91692
3210.09442	0.91690
3208.04061	0.91768
3205.98681	0.91871
3203.93301	0.91926
3201.87920	0.91968
3199.82540	0.92011
3197.77160	0.92036
3195.71779	0.92098
3193.66399	0.92191
3191.61019	0.92236
3189.55638	0.92258
3187.50258	0.92292
3185.44878	0.92337
3183.39497	0.92410
3181.34117	0.92464
3179.28737	0.92503
3177.23356	0.92560
3175.17976	0.92609
3173.12596	0.92655
3171.07215	0.92736
3169.01835	0.92829
3166.96455	0.92879
3164.91075	0.92910
3162.85694	0.92988
3160.80314	0.93084
3158.74934	0.93144
3156.69553	0.93193
3154.64173	0.93245
3152.58793	0.93254
3150.53412	0.93264
3148.48032	0.93332
3146.42652	0.93426
3144.37271	0.93498
3142.31891	0.93527
3140.26511	0.93550
3138.21130	0.93590
3136.15750	0.93633
3134.10370	0.93692
3132.04989	0.93751
3129.99609	0.93821
3127.94229	0.93899
3125.88848	0.93949
3123.83468	0.93998
3121.78088	0.94072
3119.72707	0.94143
3117.67327	0.94157
3115.61947	0.94154
3113.56566	0.94181
3111.51186	0.94196
3109.45806	0.94225
3107.40426	0.94277
3105.35045	0.94295
3103.29665	0.94317
3101.24285	0.94364
3099.18904	0.94400
3097.13524	0.94440
3095.08144	0.94499
3093.02763	0.94548
3090.97383	0.94576
3088.92003	0.94612
3086.86622	0.94653
3084.81242	0.94666
3082.75862	0.94637
3080.70481	0.94611
3078.65101	0.94642
3076.59721	0.94689
3074.54340	0.94699
3072.48960	0.94704
3070.43580	0.94763
3068.38199	0.94849
3066.32819	0.94904
3064.27439	0.94928
3062.22058	0.94938
3060.16678	0.94926
3058.11298	0.94915
3056.05918	0.94960
3054.00537	0.95050
3051.95157	0.95137
3049.89777	0.95204
3047.84396	0.95225
3045.79016	0.95203
3043.73636	0.95175
3041.68255	0.95160
3039.62875	0.95170
3037.57495	0.95207
3035.52114	0.95259
3033.46734	0.95318
3031.41354	0.95358
3029.35973	0.95362
3027.30593	0.95366
3025.25213	0.95369
3023.19832	0.95372
3021.14452	0.95409
3019.09072	0.95472
3017.03691	0.95506
3014.98311	0.95501
3012.92931	0.95473
3010.87550	0.95439
3008.82170	0.95432
3006.76790	0.95433
3004.71409	0.95418
3002.66029	0.95387
3000.60649	0.95360
2998.55269	0.95374
2996.49888	0.95393
2994.44508	0.95370
2992.39128	0.95336
2990.33747	0.95297
2988.28367	0.95255
2986.22987	0.95249
2984.17606	0.95256
2982.12226	0.95222
2980.06846	0.95135
2978.01465	0.95028
2975.96085	0.94949
2973.90705	0.94888
2971.85324	0.94795
2969.79944	0.94702
2967.74564	0.94665
2965.69183	0.94626
2963.63803	0.94536
2961.58423	0.94444
2959.53042	0.94365
2957.47662	0.94278
2955.42282	0.94194
2953.36901	0.94115
2951.31521	0.94007
2949.26141	0.93868
2947.20761	0.93738
2945.15380	0.93649
2943.10000	0.93586
2941.04620	0.93515
2938.99239	0.93428
2936.93859	0.93331
2934.88479	0.93218
2932.83098	0.93092
2930.77718	0.92984
2928.72338	0.92912
2926.66957	0.92867
2924.61577	0.92814
2922.56197	0.92748
2920.50816	0.92735
2918.45436	0.92797
2916.40056	0.92923
2914.34675	0.93124
2912.29295	0.93345
2910.23915	0.93513
2908.18534	0.93645
2906.13154	0.93776
2904.07774	0.93879
2902.02393	0.93957
2899.97013	0.94055
2897.91633	0.94165
2895.86252	0.94262
2893.80872	0.94332
2891.75492	0.94385
2889.70112	0.94453
2887.64731	0.94522
2885.59351	0.94558
2883.53971	0.94572
2881.48590	0.94611
2879.43210	0.94649
2877.37830	0.94633
2875.32449	0.94596
2873.27069	0.94588
2871.21689	0.94626
2869.16308	0.94700
2867.10928	0.94751
2865.05548	0.94727
2863.00167	0.94661
2860.94787	0.94596
2858.89407	0.94525
2856.84026	0.94463
2854.78646	0.94405
2852.73266	0.94331
2850.67885	0.94321
2848.62505	0.94439
2846.57125	0.94643
2844.51744	0.94861
2842.46364	0.95070
2840.40984	0.95279
2838.35603	0.95452
2836.30223	0.95566
2834.24843	0.95672
2832.19463	0.95785
2830.14082	0.95884
2828.08702	0.95959
2826.03322	0.96008
2823.97941	0.96053
2821.92561	0.96106
2819.87181	0.96149
2817.81800	0.96179
2815.76420	0.96219
2813.71040	0.96240
2811.65659	0.96234
2809.60279	0.96265
2807.54899	0.96345
2805.49518	0.96409
2803.44138	0.96424
2801.38758	0.96413
2799.33377	0.96410
2797.27997	0.96430
2795.22617	0.96449
2793.17236	0.96442
2791.11856	0.96442
2789.06476	0.96481
2787.01095	0.96528
2784.95715	0.96539
2782.90335	0.96521
2780.84955	0.96518
2778.79574	0.96544
2776.74194	0.96583
2774.68814	0.96632
2772.63433	0.96652
2770.58053	0.96623
2768.52673	0.96603
2766.47292	0.96616
2764.41912	0.96627
2762.36532	0.96636
2760.31151	0.96669
2758.25771	0.96706
2756.20391	0.96709
2754.15010	0.96703
2752.09630	0.96716
2750.04250	0.96718
2747.98869	0.96693
2745.93489	0.96695
2743.88109	0.96744
2741.82728	0.96792
2739.77348	0.96825
2737.71968	0.96850
2735.66587	0.96855
2733.61207	0.96830
2731.55827	0.96805
2729.50446	0.96804
2727.45066	0.96813
2725.39686	0.96840
2723.34306	0.96881
2721.28925	0.96887
2719.23545	0.96870
2717.18165	0.96865
2715.12784	0.96865
2713.07404	0.96877
2711.02024	0.96893
2708.96643	0.96902
2706.91263	0.96913
2704.85883	0.96919
2702.80502	0.96922
2700.75122	0.96937
2698.69742	0.96961
2696.64361	0.96974
2694.58981	0.96960
2692.53601	0.96943
2690.48220	0.96947
2688.42840	0.96955
2686.37460	0.96971
2684.32079	0.96985
2682.26699	0.96981
2680.21319	0.96980
2678.15938	0.96984
2676.10558	0.96985
2674.05178	0.96992
2671.99797	0.96997
2669.94417	0.97006
2667.89037	0.97012
2665.83657	0.96998
2663.78276	0.96973
2661.72896	0.96947
2659.67516	0.96941
2657.62135	0.96953
2655.56755	0.96954
2653.51375	0.96949
2651.45994	0.96945
2649.40614	0.96934
2647.35234	0.96916
2645.29853	0.96908
2643.24473	0.96944
2641.19093	0.97034
2639.13712	0.97108
2637.08332	0.97109
2635.02952	0.97078
2632.97571	0.97052
2630.92191	0.97035
2628.86811	0.97028
2626.81430	0.97050
2624.76050	0.97117
2622.70670	0.97194
2620.65289	0.97214
2618.59909	0.97175
2616.54529	0.97134
2614.49149	0.97146
2612.43768	0.97203
2610.38388	0.97233
2608.33008	0.97205
2606.27627	0.97166
2604.22247	0.97159
2602.16867	0.97189
2600.11486	0.97231
2598.06106	0.97260
2596.00726	0.97283
2593.95345	0.97311
2591.89965	0.97338
2589.84585	0.97348
2587.79204	0.97294
2585.73824	0.97222
2583.68444	0.97215
2581.63063	0.97249
2579.57683	0.97268
2577.52303	0.97290
2575.46922	0.97343
2573.41542	0.97388
2571.36162	0.97425
2569.30781	0.97455
2567.25401	0.97404
2565.20021	0.97299
2563.14640	0.97273
2561.09260	0.97301
2559.03880	0.97306
2556.98500	0.97313
2554.93119	0.97321
2552.87739	0.97338
2550.82359	0.97392
2548.76978	0.97456
2546.71598	0.97463
2544.66218	0.97431
2542.60837	0.97428
2540.55457	0.97452
2538.50077	0.97481
2536.44696	0.97494
2534.39316	0.97488
2532.33936	0.97498
2530.28555	0.97512
2528.23175	0.97501
2526.17795	0.97505
2524.12414	0.97543
2522.07034	0.97557
2520.01654	0.97527
2517.96273	0.97500
2515.90893	0.97498
2513.85513	0.97480
2511.80132	0.97434
2509.74752	0.97426
2507.69372	0.97463
2505.63992	0.97479
2503.58611	0.97465
2501.53231	0.97467
2499.47851	0.97499
2497.42470	0.97516
2495.37090	0.97526
2493.31710	0.97551
2491.26329	0.97555
2489.20949	0.97520
2487.15569	0.97456
2485.10188	0.97410
2483.04808	0.97436
2480.99428	0.97491
2478.94047	0.97541
2476.88667	0.97561
2474.83287	0.97505
2472.77906	0.97444
2470.72526	0.97475
2468.67146	0.97536
2466.61765	0.97571
2464.56385	0.97623
2462.51005	0.97663
2460.45624	0.97630
2458.40244	0.97598
2456.34864	0.97630
2454.29483	0.97645
2452.24103	0.97631
2450.18723	0.97673
2448.13343	0.97744
2446.07962	0.97739
2444.02582	0.97650
2441.97202	0.97573
2439.91821	0.97553
2437.86441	0.97535
2435.81061	0.97534
2433.75680	0.97618
2431.70300	0.97727
2429.64920	0.97752
2427.59539	0.97680
2425.54159	0.97636
2423.48779	0.97658
2421.43398	0.97674
2419.38018	0.97678
2417.32638	0.97661
2415.27257	0.97640
2413.21877	0.97653
2411.16497	0.97649
2409.11116	0.97642
2407.05736	0.97698
2405.00356	0.97761
2402.94975	0.97769
2400.89595	0.97734
2398.84215	0.97669
2396.78834	0.97598
2394.73454	0.97559
2392.68074	0.97597
2390.62694	0.97673
2388.57313	0.97687
2386.51933	0.97636
2384.46553	0.97643
2382.41172	0.97745
2380.35792	0.97803
2378.30412	0.97758
2376.25031	0.97642
2374.19651	0.97551
2372.14271	0.97609
2370.08890	0.97653
2368.03510	0.97612
2365.98130	0.97679
2363.92749	0.97777
2361.87369	0.97758
2359.81989	0.97621
2357.76608	0.97505
2355.71228	0.97545
2353.65848	0.97628
2351.60467	0.97657
2349.55087	0.97660
2347.49707	0.97647
2345.44326	0.97628
2343.38946	0.97643
2341.33566	0.97669
2339.28186	0.97613
2337.22805	0.97510
2335.17425	0.97524
2333.12045	0.97628
2331.06664	0.97667
2329.01284	0.97659
2326.95904	0.97633
2324.90523	0.97554
2322.85143	0.97472
2320.79763	0.97450
2318.74382	0.97510
2316.69002	0.97627
2314.63622	0.97707
2312.58241	0.97681
2310.52861	0.97611
2308.47481	0.97540
2306.42100	0.97460
2304.36720	0.97475
2302.31340	0.97579
2300.25959	0.97609
2298.20579	0.97543
2296.15199	0.97491
2294.09818	0.97523
2292.04438	0.97589
2289.99058	0.97601
2287.93677	0.97595
2285.88297	0.97626
2283.82917	0.97641
2281.77537	0.97622
2279.72156	0.97619
2277.66776	0.97633
2275.61396	0.97622
2273.56015	0.97593
2271.50635	0.97611
2269.45255	0.97659
2267.39874	0.97668
2265.34494	0.97665
2263.29114	0.97670
2261.23733	0.97639
2259.18353	0.97589
2257.12973	0.97583
2255.07592	0.97659
2253.02212	0.97764
2250.96832	0.97795
2248.91451	0.97692
2246.86071	0.97585
2244.80691	0.97633
2242.75310	0.97690
2240.69930	0.97623
2238.64550	0.97574
2236.59169	0.97623
2234.53789	0.97663
2232.48409	0.97592
2230.43029	0.97541
2228.37648	0.97739
2226.32268	0.97966
2224.26888	0.97903
2222.21507	0.97764
2220.16127	0.97797
2218.10747	0.97896
2216.05366	0.97945
2213.99986	0.97971
2211.94606	0.97909
2209.89225	0.97754
2207.83845	0.97742
2205.78465	0.97909
2203.73084	0.97967
2201.67704	0.97895
2199.62324	0.97884
2197.56943	0.97802
2195.51563	0.97645
2193.46183	0.97573
2191.40802	0.97591
2189.35422	0.97672
2187.30042	0.97684
2185.24661	0.97598
2183.19281	0.97505
2181.13901	0.97518
2179.08520	0.97670
2177.03140	0.97752
2174.97760	0.97792
2172.92380	0.98067
2170.86999	0.98235
2168.81619	0.97895
2166.76239	0.97590
2164.70858	0.97596
2162.65478	0.97515
2160.60098	0.97343
2158.54717	0.97362
2156.49337	0.97549
2154.43957	0.97764
2152.38576	0.98035
2150.33196	0.98211
2148.27816	0.98126
2146.22435	0.97954
2144.17055	0.97949
2142.11675	0.98097
2140.06294	0.98185
2138.00914	0.98035
2135.95534	0.97824
2133.90153	0.97847
2131.84773	0.97951
2129.79393	0.97965
2127.74012	0.97983
2125.68632	0.98099
2123.63252	0.98206
2121.57871	0.98118
2119.52491	0.97919
2117.47111	0.97851
2115.41731	0.97910
2113.36350	0.97919
2111.30970	0.97851
2109.25590	0.97778
2107.20209	0.97729
2105.14829	0.97720
2103.09449	0.97781
2101.04068	0.97842
2098.98688	0.97768
2096.93308	0.97660
2094.87927	0.97743
2092.82547	0.97934
2090.77167	0.97998
2088.71786	0.97956
2086.66406	0.97942
2084.61026	0.97940
2082.55645	0.97919
2080.50265	0.97971
2078.44885	0.98052
2076.39504	0.97955
2074.34124	0.97803
2072.28744	0.97804
2070.23363	0.97870
2068.17983	0.97937
2066.12603	0.97982
2064.07223	0.98043
2062.01842	0.98127
2059.96462	0.98116
2057.91082	0.98046
2055.85701	0.97910
2053.80321	0.97742
2051.74941	0.97726
2049.69560	0.97752
2047.64180	0.97692
2045.58800	0.97718
2043.53419	0.97856
2041.48039	0.97826
2039.42659	0.97672
2037.37278	0.97753
2035.31898	0.97989
2033.26518	0.98159
2031.21137	0.98294
2029.15757	0.98413
2027.10377	0.98491
2025.04996	0.98484
2022.99616	0.98476
2020.94236	0.98540
2018.88855	0.98508
2016.83475	0.98431
2014.78095	0.98437
2012.72714	0.98353
2010.67334	0.98161
2008.61954	0.98118
2006.56574	0.98256
2004.51193	0.98330
2002.45813	0.98254
2000.40433	0.98099
1998.35052	0.98045
1996.29672	0.98211
1994.24292	0.98402
1992.18911	0.98330
1990.13531	0.98073
1988.08151	0.98080
1986.02770	0.98270
1983.97390	0.98230
1981.92010	0.98040
1979.86629	0.97952
1977.81249	0.97997
1975.75869	0.98032
1973.70488	0.97994
1971.65108	0.98039
1969.59728	0.98181
1967.54347	0.98202
1965.48967	0.98121
1963.43587	0.98119
1961.38206	0.98207
1959.32826	0.98261
1957.27446	0.98102
1955.22066	0.97954
1953.16685	0.98122
1951.11305	0.98316
1949.05925	0.98178
1947.00544	0.97976
1944.95164	0.98054
1942.89784	0.98231
1940.84403	0.98207
1938.79023	0.98076
1936.73643	0.98091
1934.68262	0.98184
1932.62882	0.98153
1930.57502	0.98098
1928.52121	0.98129
1926.46741	0.98155
1924.41361	0.98167
1922.35980	0.98199
1920.30600	0.98193
1918.25220	0.98177
1916.19839	0.98182
1914.14459	0.98168
1912.09079	0.98208
1910.03698	0.98298
1907.98318	0.98286
1905.92938	0.98201
1903.87557	0.98177
1901.82177	0.98222
1899.76797	0.98249
1897.71417	0.98267
1895.66036	0.98278
1893.60656	0.98241
1891.55276	0.98229
1889.49895	0.98220
1887.44515	0.98159
1885.39135	0.98125
1883.33754	0.98174
1881.28374	0.98244
1879.22994	0.98258
1877.17613	0.98239
1875.12233	0.98231
1873.06853	0.98193
1871.01472	0.98137
1868.96092	0.98151
1866.90712	0.98169
1864.85331	0.98152
1862.79951	0.98184
1860.74571	0.98213
1858.69190	0.98201
1856.63810	0.98226
1854.58430	0.98268
1852.53049	0.98256
1850.47669	0.98239
1848.42289	0.98258
1846.36908	0.98291
1844.31528	0.98319
1842.26148	0.98312
1840.20768	0.98264
1838.15387	0.98202
1836.10007	0.98154
1834.04627	0.98134
1831.99246	0.98157
1829.93866	0.98211
1827.88486	0.98244
1825.83105	0.98277
1823.77725	0.98284
1821.72345	0.98241
1819.66964	0.98216
1817.61584	0.98221
1815.56204	0.98204
1813.50823	0.98158
1811.45443	0.98108
1809.40063	0.98066
1807.34682	0.98057
1805.29302	0.98089
1803.23922	0.98127
1801.18541	0.98121
1799.13161	0.98087
1797.07781	0.98087
1795.02400	0.98113
1792.97020	0.98106
1790.91640	0.98044
1788.86260	0.97969
1786.80879	0.97900
1784.75499	0.97855
1782.70119	0.97844
1780.64738	0.97835
1778.59358	0.97810
1776.53978	0.97809
1774.48597	0.97831
1772.43217	0.97778
1770.37837	0.97612
1768.32456	0.97484
1766.27076	0.97400
1764.21696	0.97258
1762.16315	0.97015
1760.10935	0.96756
1758.05555	0.96517
1756.00174	0.96215
1753.94794	0.95923
1751.89414	0.95632
1749.84033	0.95181
1747.78653	0.94617
1745.73273	0.94145
1743.67892	0.93776
1741.62512	0.93438
1739.57132	0.93101
1737.51751	0.92855
1735.46371	0.92688
1733.40991	0.92521
1731.35611	0.92488
1729.30230	0.92565
1727.24850	0.92658
1725.19470	0.92758
1723.14089	0.92900
1721.08709	0.93067
1719.03329	0.93231
1716.97948	0.93363
1714.92568	0.93468
1712.87188	0.93618
1710.81807	0.93805
1708.76427	0.94000
1706.71047	0.94170
1704.65666	0.94288
1702.60286	0.94346
1700.54906	0.94390
1698.49525	0.94463
1696.44145	0.94504
1694.38765	0.94466
1692.33384	0.94381
1690.28004	0.94298
1688.22624	0.94255
1686.17243	0.94216
1684.11863	0.94046
1682.06483	0.93814
1680.01103	0.93647
1677.95722	0.93504
1675.90342	0.93351
1673.84962	0.93165
1671.79581	0.92978
1669.74201	0.92754
1667.68821	0.92540
1665.63440	0.92398
1663.58060	0.92230
1661.52680	0.92027
1659.47299	0.91884
1657.41919	0.91786
1655.36539	0.91693
1653.31158	0.91563
1651.25778	0.91444
1649.20398	0.91408
1647.15017	0.91349
1645.09637	0.91216
1643.04257	0.91127
1640.98876	0.91116
1638.93496	0.91158
1636.88116	0.91200
1634.82735	0.91222
1632.77355	0.91281
1630.71975	0.91374
1628.66594	0.91477
1626.61214	0.91572
1624.55834	0.91673
1622.50454	0.91812
1620.45073	0.91945
1618.39693	0.92063
1616.34313	0.92174
1614.28932	0.92219
1612.23552	0.92246
1610.18172	0.92311
1608.12791	0.92363
1606.07411	0.92341
1604.02031	0.92312
1601.96650	0.92341
1599.91270	0.92380
1597.85890	0.92389
1595.80509	0.92391
1593.75129	0.92415
1591.69749	0.92483
1589.64368	0.92612
1587.58988	0.92792
1585.53608	0.93002
1583.48227	0.93207
1581.42847	0.93394
1579.37467	0.93572
1577.32086	0.93800
1575.26706	0.94112
1573.21326	0.94319
1571.15945	0.94428
1569.10565	0.94530
1567.05185	0.94614
1564.99805	0.94679
1562.94424	0.94735
1560.89044	0.94756
1558.83664	0.94780
1556.78283	0.94882
1554.72903	0.94951
1552.67523	0.94975
1550.62142	0.94972
1548.56762	0.94947
1546.51382	0.94938
1544.46001	0.94941
1542.40621	0.94903
1540.35241	0.94898
1538.29860	0.94992
1536.24480	0.95076
1534.19100	0.95133
1532.13719	0.95117
1530.08339	0.95057
1528.02959	0.95035
1525.97578	0.95020
1523.92198	0.94923
1521.86818	0.94656
1519.81437	0.94281
1517.76057	0.93957
1515.70677	0.93613
1513.65297	0.93313
1511.59916	0.93131
1509.54536	0.93066
1507.49156	0.93112
1505.43775	0.93291
1503.38395	0.93498
1501.33015	0.93721
1499.27634	0.93986
1497.22254	0.94263
1495.16874	0.94501
1493.11493	0.94672
1491.06113	0.94792
1489.00733	0.94875
1486.95352	0.94918
1484.89972	0.94918
1482.84592	0.94881
1480.79211	0.94814
1478.73831	0.94692
1476.68451	0.94484
1474.63070	0.94184
1472.57690	0.93718
1470.52310	0.93215
1468.46929	0.92850
1466.41549	0.92534
1464.36169	0.92266
1462.30788	0.92128
1460.25408	0.92072
1458.20028	0.92013
1456.14648	0.91931
1454.09267	0.91922
1452.03887	0.91982
1449.98507	0.92083
1447.93126	0.92214
1445.87746	0.92362
1443.82366	0.92506
1441.76985	0.92615
1439.71605	0.92666
1437.66225	0.92664
1435.60844	0.92590
1433.55464	0.92478
1431.50084	0.92358
1429.44703	0.92248
1427.39323	0.92180
1425.33943	0.92151
1423.28562	0.92148
1421.23182	0.92192
1419.17802	0.92305
1417.12421	0.92456
1415.07041	0.92598
1413.01661	0.92756
1410.96280	0.92923
1408.90900	0.93065
1406.85520	0.93197
1404.80139	0.93322
1402.74759	0.93382
1400.69379	0.93402
1398.63999	0.93404
1396.58618	0.93324
1394.53238	0.93155
1392.47858	0.93002
1390.42477	0.92907
1388.37097	0.92795
1386.31717	0.92646
1384.26336	0.92525
1382.20956	0.92431
1380.15576	0.92327
1378.10195	0.92204
1376.04815	0.92103
1373.99435	0.92047
1371.94054	0.91993
1369.88674	0.91960
1367.83294	0.91985
1365.77913	0.92061
1363.72533	0.92202
1361.67153	0.92408
1359.61772	0.92593
1357.56392	0.92741
1355.51012	0.92869
1353.45631	0.92972
1351.40251	0.93048
1349.34871	0.93087
1347.29491	0.93100
1345.24110	0.93119
1343.18730	0.93147
1341.13350	0.93144
1339.07969	0.93067
1337.02589	0.92982
1334.97209	0.92945
1332.91828	0.92896
1330.86448	0.92822
1328.81068	0.92758
1326.75687	0.92722
1324.70307	0.92696
1322.64927	0.92656
1320.59546	0.92617
1318.54166	0.92606
1316.48786	0.92637
1314.43405	0.92703
1312.38025	0.92769
1310.32645	0.92808
1308.27264	0.92833
1306.21884	0.92840
1304.16504	0.92828
1302.11123	0.92822
1300.05743	0.92818
1298.00363	0.92797
1295.94982	0.92743
1293.89602	0.92647
1291.84222	0.92523
1289.78842	0.92386
1287.73461	0.92229
1285.68081	0.92032
1283.62701	0.91796
1281.57320	0.91538
1279.51940	0.91265
1277.46560	0.90988
1275.41179	0.90707
1273.35799	0.90426
1271.30419	0.90141
1269.25038	0.89863
1267.19658	0.89638
1265.14278	0.89480
1263.08897	0.89367
1261.03517	0.89304
1258.98137	0.89281
1256.92756	0.89255
1254.87376	0.89216
1252.81996	0.89177
1250.76615	0.89141
1248.71235	0.89138
1246.65855	0.89138
1244.60474	0.89067
1242.55094	0.88967
1240.49714	0.88914
1238.44334	0.88901
1236.38953	0.88890
1234.33573	0.88866
1232.28193	0.88829
1230.22812	0.88803
1228.17432	0.88802
1226.12052	0.88810
1224.06671	0.88811
1222.01291	0.88843
1219.95911	0.88935
1217.90530	0.89076
1215.85150	0.89264
1213.79770	0.89496
1211.74389	0.89749
1209.69009	0.90007
1207.63629	0.90260
1205.58248	0.90474
1203.52868	0.90645
1201.47488	0.90842
1199.42107	0.91097
1197.36727	0.91338
1195.31347	0.91534
1193.25966	0.91692
1191.20586	0.91783
1189.15206	0.91773
1187.09825	0.91704
1185.04445	0.91656
1182.99065	0.91641
1180.93685	0.91610
1178.88304	0.91498
1176.82924	0.91306
1174.77544	0.91077
1172.72163	0.90825
1170.66783	0.90542
1168.61403	0.90224
1166.56022	0.89887
1164.50642	0.89533
1162.45262	0.89171
1160.39881	0.88872
1158.34501	0.88650
1156.29121	0.88454
1154.23740	0.88284
1152.18360	0.88131
1150.12980	0.87965
1148.07599	0.87796
1146.02219	0.87624
1143.96839	0.87464
1141.91458	0.87353
1139.86078	0.87295
1137.80698	0.87248
1135.75317	0.87164
1133.69937	0.87014
1131.64557	0.86804
1129.59176	0.86576
1127.53796	0.86362
1125.48416	0.86194
1123.43036	0.86070
1121.37655	0.85913
1119.32275	0.85706
1117.26895	0.85516
1115.21514	0.85347
1113.16134	0.85190
1111.10754	0.85049
1109.05373	0.84896
1106.99993	0.84702
1104.94613	0.84521
1102.89232	0.84406
1100.83852	0.84315
1098.78472	0.84192
1096.73091	0.84047
1094.67711	0.83933
1092.62331	0.83851
1090.56950	0.83749
1088.51570	0.83611
1086.46190	0.83481
1084.40809	0.83375
1082.35429	0.83249
1080.30049	0.83081
1078.24668	0.82860
1076.19288	0.82617
1074.13908	0.82414
1072.08528	0.82236
1070.03147	0.82024
1067.97767	0.81736
1065.92387	0.81366
1063.87006	0.80958
1061.81626	0.80554
1059.76246	0.80133
1057.70865	0.79658
1055.65485	0.79155
1053.60105	0.78675
1051.54724	0.78258
1049.49344	0.77868
1047.43964	0.77416
1045.38583	0.76933
1043.33203	0.76503
1041.27823	0.76131
1039.22442	0.75786
1037.17062	0.75455
1035.11682	0.75156
1033.06301	0.74925
1031.00921	0.74743
1028.95541	0.74628
1026.90160	0.74656
1024.84780	0.74789
1022.79400	0.74924
1020.74019	0.75053
1018.68639	0.75205
1016.63259	0.75354
1014.57879	0.75475
1012.52498	0.75595
1010.47118	0.75746
1008.41738	0.75910
1006.36357	0.76061
1004.30977	0.76215
1002.25597	0.76406
1000.20216	0.76644
998.14836	0.76895
996.09456	0.77154
994.04075	0.77456
991.98695	0.77790
989.93315	0.78122
987.87934	0.78467
985.82554	0.78862
983.77174	0.79305
981.71793	0.79757
979.66413	0.80213
977.61033	0.80687
975.55652	0.81126
973.50272	0.81482
971.44892	0.81816
969.39511	0.82200
967.34131	0.82607
965.28751	0.82983
963.23371	0.83349
961.17990	0.83737
959.12610	0.84129
957.07230	0.84507
955.01849	0.84878
952.96469	0.85240
950.91089	0.85578
948.85708	0.85852
946.80328	0.86080
944.74948	0.86306
942.69567	0.86491
940.64187	0.86629
938.58807	0.86818
936.53426	0.87054
934.48046	0.87206
932.42666	0.87252
930.37285	0.87286
928.31905	0.87351
926.26525	0.87450
924.21144	0.87543
922.15764	0.87575
920.10384	0.87552
918.05003	0.87498
915.99623	0.87437
913.94243	0.87436
911.88862	0.87522
909.83482	0.87653
907.78102	0.87790
905.72722	0.87911
903.67341	0.88017
901.61961	0.88161
899.56581	0.88339
897.51200	0.88500
895.45820	0.88664
893.40440	0.88845
891.35059	0.89003
889.29679	0.89106
887.24299	0.89154
885.18918	0.89181
883.13538	0.89242
881.08158	0.89331
879.02777	0.89407
876.97397	0.89453
874.92017	0.89463
872.86636	0.89482
870.81256	0.89587
868.75876	0.89726
866.70495	0.89776
864.65115	0.89758
862.59735	0.89768
860.54354	0.89814
858.48974	0.89892
856.43594	0.90021
854.38213	0.90156
852.32833	0.90239
850.27453	0.90275
848.22073	0.90288
846.16692	0.90310
844.11312	0.90382
842.05932	0.90425
840.00551	0.90385
837.95171	0.90355
835.89791	0.90368
833.84410	0.90389
831.79030	0.90408
829.73650	0.90438
827.68269	0.90487
825.62889	0.90521
823.57509	0.90511
821.52128	0.90448
819.46748	0.90366
817.41368	0.90318
815.35987	0.90291
813.30607	0.90269
811.25227	0.90283
809.19846	0.90305
807.14466	0.90263
805.09086	0.90144
803.03705	0.90040
800.98325	0.90008
798.92945	0.89990
796.87565	0.89969
794.82184	0.89936
792.76804	0.89871
790.71424	0.89840
788.66043	0.89848
786.60663	0.89792
784.55283	0.89687
782.49902	0.89624
780.44522	0.89562
778.39142	0.89465
776.33761	0.89379
774.28381	0.89328
772.23001	0.89289
770.17620	0.89271
768.12240	0.89291
766.06860	0.89294
764.01479	0.89254
761.96099	0.89194
759.90719	0.89152
757.85338	0.89114
755.79958	0.89033
753.74578	0.88961
751.69197	0.88918
749.63817	0.88865
747.58437	0.88803
745.53056	0.88737
743.47676	0.88664
741.42296	0.88605
739.36916	0.88595
737.31535	0.88573
735.26155	0.88467
733.20775	0.88378
731.15394	0.88376
729.10014	0.88360
727.04634	0.88291
724.99253	0.88205
722.93873	0.88133
720.88493	0.88121
718.83112	0.88139
716.77732	0.88118
714.72352	0.88029
712.66971	0.87911
710.61591	0.87820
708.56211	0.87730
706.50830	0.87621
704.45450	0.87537
702.40070	0.87456
700.34689	0.87288
698.29309	0.87076
696.23929	0.86958
694.18548	0.86938
692.13168	0.86853
690.07788	0.86671
688.02408	0.86569
685.97027	0.86564
683.91647	0.86535
681.86267	0.86460
679.80886	0.86365
677.75506	0.86267
675.70126	0.86195
673.64745	0.86109
671.59365	0.85983
669.53985	0.85947
667.48604	0.86062
665.43224	0.86082
663.37844	0.85992
661.32463	0.85870
659.27083	0.85765
657.21703	0.85799
655.16322	0.85938
653.10942	0.85974
651.05562	0.85908
649.00181	0.85811
646.94801	0.85715
644.89421	0.85697
642.84040	0.85679
640.78660	0.85513
638.73280	0.85289
636.67899	0.85185
634.62519	0.85247
632.57139	0.85380
630.51759	0.85386
628.46378	0.85260
626.40998	0.85122
624.35618	0.84956
622.30237	0.84813
620.24857	0.84798
618.19477	0.84860
616.14096	0.84886
614.08716	0.84716
612.03336	0.84390
609.97955	0.84196
607.92575	0.84184
605.87195	0.84170
603.81814	0.84040
601.76434	0.83843
599.71054	0.83687
597.65673	0.83574
595.60293	0.83500
593.54913	0.83570
591.49532	0.83717
589.44152	0.83705
587.38772	0.83642
585.33391	0.83671
583.28011	0.83568
581.22631	0.83284
579.17250	0.83106
577.11870	0.83138
575.06490	0.83167
573.01110	0.83064
570.95729	0.82924
568.90349	0.82812
566.84969	0.82722
564.79588	0.82610
562.74208	0.82433
560.68828	0.82270
558.63447	0.82242
556.58067	0.82338
554.52687	0.82327
552.47306	0.82057
550.41926	0.81683
548.36546	0.81434
546.31165	0.81305
544.25785	0.81099
542.20405	0.80801
540.15024	0.80576
538.09644	0.80458
536.04264	0.80363
533.98883	0.80267
531.93503	0.80124
529.88123	0.79856
527.82742	0.79536
525.77362	0.79368
523.71982	0.79461
521.66602	0.79674
519.61221	0.79870
517.55841	0.79996
515.50461	0.80087
513.45080	0.80163
511.39700	0.80134
509.34320	0.80070
507.28939	0.80198
505.23559	0.80450
503.18179	0.80576
501.12798	0.80580
499.07418	0.80590
497.02038	0.80601
494.96657	0.80527
492.91277	0.80391
490.85897	0.80276
488.80516	0.80197
486.75136	0.80092
484.69756	0.79962
482.64375	0.79822
480.58995	0.79614
478.53615	0.79421
476.48234	0.79236
474.42854	0.78950
472.37474	0.78479
470.32093	0.77969
468.26713	0.77550
466.21333	0.77079
464.15953	0.76820
462.10572	0.76954
460.05192	0.77050
457.99812	0.76956
455.94431	0.77287
453.89051	0.77913
451.83671	0.78017
449.78290	0.77817
447.72910	0.78061
445.67530	0.78302
443.62149	0.78011
441.56769	0.77897
439.51389	0.78113
437.46008	0.78061
435.40628	0.77830
433.35248	0.77700
431.29867	0.77667
429.24487	0.77829
427.19107	0.77915
425.13726	0.77809
423.08346	0.77897
421.02966	0.77986
418.97585	0.77865
416.92205	0.78068
414.86825	0.78442
412.81445	0.78480
410.76064	0.78195
408.70684	0.78155
406.65304	0.78523
404.59923	0.78763
402.54543	0.79008
400.49163	0.79742
398.43782	0.80101
