3996.70104	0.98680
3994.64724	0.98661
3992.59344	0.98637
3990.53964	0.98633
3988.48583	0.98598
3986.43203	0.98553
3984.37823	0.98563
3982.32442	0.98600
3980.27062	0.98599
3978.21682	0.98584
3976.16301	0.98586
3974.10921	0.98592
3972.05541	0.98612
3970.00160	0.98650
3967.94780	0.98678
3965.89400	0.98671
3963.84019	0.98629
3961.78639	0.98605
3959.73259	0.98635
3957.67878	0.98661
3955.62498	0.98676
3953.57118	0.98680
3951.51737	0.98634
3949.46357	0.98610
3947.40977	0.98676
3945.35596	0.98737
3943.30216	0.98711
3941.24836	0.98618
3939.19455	0.98555
3937.14075	0.98585
3935.08695	0.98644
3933.03315	0.98654
3930.97934	0.98670
3928.92554	0.98704
3926.87174	0.98710
3924.81793	0.98707
3922.76413	0.98679
3920.71033	0.98619
3918.65652	0.98572
3916.60272	0.98568
3914.54892	0.98587
3912.49511	0.98625
3910.44131	0.98671
3908.38751	0.98676
3906.33370	0.98677
3904.27990	0.98701
3902.22610	0.98669
3900.17229	0.98619
3898.11849	0.98613
3896.06469	0.98628
3894.01088	0.98648
3891.95708	0.98672
3889.90328	0.98681
3887.84947	0.98690
3885.79567	0.98734
3883.74187	0.98725
3881.68807	0.98666
3879.63426	0.98667
3877.58046	0.98697
3875.52666	0.98703
3873.47285	0.98664
3871.41905	0.98623
3869.36525	0.98671
3867.31144	0.98756
3865.25764	0.98808
3863.20384	0.98797
3861.15003	0.98754
3859.09623	0.98751
3857.04243	0.98750
3854.98862	0.98705
3852.93482	0.98665
3850.88102	0.98690
3848.82721	0.98697
3846.77341	0.98653
3844.71961	0.98585
3842.66580	0.98459
3840.61200	0.98317
3838.55820	0.98414
3836.50439	0.98675
3834.45059	0.98747
3832.39679	0.98696
3830.34298	0.98648
3828.28918	0.98632
3826.23538	0.98654
3824.18158	0.98686
3822.12777	0.98734
3820.07397	0.98783
3818.02017	0.98728
3815.96636	0.98632
3813.91256	0.98657
3811.85876	0.98717
3809.80495	0.98702
3807.75115	0.98687
3805.69735	0.98725
3803.64354	0.98704
3801.58974	0.98661
3799.53594	0.98709
3797.48213	0.98781
3795.42833	0.98831
3793.37453	0.98810
3791.32072	0.98738
3789.26692	0.98693
3787.21312	0.98670
3785.15931	0.98654
3783.10551	0.98670
3781.05171	0.98689
3778.99790	0.98680
3776.94410	0.98684
3774.89030	0.98696
3772.83650	0.98691
3770.78269	0.98707
3768.72889	0.98716
3766.67509	0.98719
3764.62128	0.98809
3762.56748	0.98863
3760.51368	0.98803
3758.45987	0.98770
3756.40607	0.98766
3754.35227	0.98703
3752.29846	0.98620
3750.24466	0.98577
3748.19086	0.98635
3746.13705	0.98766
3744.08325	0.98861
3742.02945	0.98805
3739.97564	0.98709
3737.92184	0.98647
3735.86804	0.98634
3733.81423	0.98653
3731.76043	0.98659
3729.70663	0.98652
3727.65282	0.98621
3725.59902	0.98576
3723.54522	0.98556
3721.49141	0.98530
3719.43761	0.98443
3717.38381	0.98298
3715.33001	0.98128
3713.27620	0.97921
3711.22240	0.97638
3709.16860	0.97375
3707.11479	0.97113
3705.06099	0.96761
3703.00719	0.96337
3700.95338	0.95952
3698.89958	0.95765
3696.84578	0.95760
3694.79197	0.95889
3692.73817	0.96123
3690.68437	0.96385
3688.63056	0.96619
3686.57676	0.96763
3684.52296	0.96815
3682.46915	0.96827
3680.41535	0.96826
3678.36155	0.96836
3676.30774	0.96854
3674.25394	0.96828
3672.20014	0.96777
3670.14633	0.96695
3668.09253	0.96605
3666.03873	0.96577
3663.98492	0.96577
3661.93112	0.96561
3659.87732	0.96487
3657.82352	0.96380
3655.76971	0.96303
3653.71591	0.96273
3651.66211	0.96225
3649.60830	0.96087
3647.55450	0.95990
3645.50070	0.95965
3643.44689	0.95917
3641.39309	0.95880
3639.33929	0.95869
3637.28548	0.95853
3635.23168	0.95843
3633.17788	0.95859
3631.12407	0.95796
3629.07027	0.95446
3627.01647	0.95024
3624.96266	0.94897
3622.90886	0.94909
3620.85506	0.94951
3618.80125	0.95047
3616.74745	0.95189
3614.69365	0.95319
3612.63984	0.95415
3610.58604	0.95424
3608.53224	0.95372
3606.47844	0.95351
3604.42463	0.95370
3602.37083	0.95380
3600.31703	0.95382
3598.26322	0.95395
3596.20942	0.95361
3594.15562	0.95317
3592.10181	0.95351
3590.04801	0.95415
3587.99421	0.95488
3585.94040	0.95497
3583.88660	0.95390
3581.83280	0.95276
3579.77899	0.95232
3577.72519	0.95231
3575.67139	0.95175
3573.61758	0.95060
3571.56378	0.94981
3569.50998	0.94929
3567.45617	0.94794
3565.40237	0.94708
3563.34857	0.94755
3561.29476	0.94717
3559.24096	0.94567
3557.18716	0.94429
3555.13335	0.94351
3553.07955	0.94290
3551.02575	0.94211
3548.97195	0.94137
3546.91814	0.94073
3544.86434	0.94012
3542.81054	0.93977
3540.75673	0.93960
3538.70293	0.93913
3536.64913	0.93843
3534.59532	0.93825
3532.54152	0.93843
3530.48772	0.93835
3528.43391	0.93829
3526.38011	0.93858
3524.32631	0.93937
3522.27250	0.94019
3520.21870	0.94033
3518.16490	0.93996
3516.11109	0.93963
3514.05729	0.93963
3512.00349	0.93969
3509.94968	0.93984
3507.89588	0.94024
3505.84208	0.94059
3503.78827	0.94076
3501.73447	0.94089
3499.68067	0.94093
3497.62687	0.94064
3495.57306	0.94023
3493.51926	0.93985
3491.46546	0.93936
3489.41165	0.93908
3487.35785	0.93931
3485.30405	0.93967
3483.25024	0.93983
3481.19644	0.93991
3479.14264	0.93973
3477.08883	0.93924
3475.03503	0.93890
3472.98123	0.93897
3470.92742	0.93909
3468.87362	0.93897
3466.81982	0.93850
3464.76601	0.93787
3462.71221	0.93748
3460.65841	0.93756
3458.60460	0.93781
3456.55080	0.93780
3454.49700	0.93769
3452.44319	0.93746
3450.38939	0.93680
3448.33559	0.93594
3446.28178	0.93556
3444.22798	0.93575
3442.17418	0.93586
3440.12038	0.93545
3438.06657	0.93476
3436.01277	0.93438
3433.95897	0.93430
3431.90516	0.93418
3429.85136	0.93366
3427.79756	0.93279
3425.74375	0.93206
3423.68995	0.93169
3421.63615	0.93136
3419.58234	0.93061
3417.52854	0.92971
3415.47474	0.92892
3413.42093	0.92804
3411.36713	0.92735
3409.31333	0.92703
3407.25952	0.92642
3405.20572	0.92552
3403.15192	0.92491
3401.09811	0.92466
3399.04431	0.92479
3396.99051	0.92530
3394.93670	0.92587
3392.88290	0.92636
3390.82910	0.92679
3388.77529	0.92709
3386.72149	0.92733
3384.66769	0.92790
3382.61389	0.92878
3380.56008	0.92924
3378.50628	0.92921
3376.45248	0.92930
3374.39867	0.92991
3372.34487	0.93056
3370.29107	0.93060
3368.23726	0.93033
3366.18346	0.93033
3364.12966	0.93044
3362.07585	0.93049
3360.02205	0.93094
3357.96825	0.93176
3355.91444	0.93218
3353.86064	0.93210
3351.80684	0.93193
3349.75303	0.93182
3347.69923	0.93174
3345.64543	0.93169
3343.59162	0.93180
3341.53782	0.93211
3339.48402	0.93253
3337.43021	0.93299
3335.37641	0.93317
3333.32261	0.93286
3331.26881	0.93276
3329.21500	0.93309
3327.16120	0.93346
3325.10740	0.93409
3323.05359	0.93517
3320.99979	0.93620
3318.94599	0.93644
3316.89218	0.93599
3314.83838	0.93585
3312.78458	0.93635
3310.73077	0.93670
3308.67697	0.93662
3306.62317	0.93654
3304.56936	0.93655
3302.51556	0.93670
3300.46176	0.93686
3298.40795	0.93675
3296.35415	0.93677
3294.30035	0.93726
3292.24654	0.93788
3290.19274	0.93817
3288.13894	0.93817
3286.08513	0.93791
3284.03133	0.93716
3281.97753	0.93678
3279.92372	0.93743
3277.86992	0.93816
3275.81612	0.93855
3273.76232	0.93859
3271.70851	0.93831
3269.65471	0.93838
3267.60091	0.93873
3265.54710	0.93921
3263.49330	0.93970
3261.43950	0.93963
3259.38569	0.93942
3257.33189	0.93952
3255.27809	0.93955
3253.22428	0.93942
3251.17048	0.93954
3249.11668	0.94006
3247.06287	0.94053
3245.00907	0.94073
3242.95527	0.94106
3240.90146	0.94158
3238.84766	0.94170
3236.79386	0.94143
3234.74005	0.94155
3232.68625	0.94197
3230.63245	0.94228
3228.57864	0.94265
3226.52484	0.94308
3224.47104	0.94319
3222.41724	0.94296
3220.36343	0.94311
3218.30963	0.94372
3216.25583	0.94428
3214.20202	0.94466
3212.14822	0.94468
3210.09442	0.94433
3208.04061	0.94425
3205.98681	0.94486
3203.93301	0.94572
3201.87920	0.94625
3199.82540	0.94649
3197.77160	0.94700
3195.71779	0.94781
3193.66399	0.94842
3191.61019	0.94859
3189.55638	0.94850
3187.50258	0.94836
3185.44878	0.94848
3183.39497	0.94927
3181.34117	0.95047
3179.28737	0.95123
3177.23356	0.95145
3175.17976	0.95162
3173.12596	0.95175
3171.07215	0.95201
3169.01835	0.95254
3166.96455	0.95268
3164.91075	0.95247
3162.85694	0.95303
3160.80314	0.95417
3158.74934	0.95490
3156.69553	0.95557
3154.64173	0.95630
3152.58793	0.95651
3150.53412	0.95651
3148.48032	0.95693
3146.42652	0.95735
3144.37271	0.95715
3142.31891	0.95682
3140.26511	0.95684
3138.21130	0.95714
3136.15750	0.95775
3134.10370	0.95844
3132.04989	0.95882
3129.99609	0.95887
3127.94229	0.95887
3125.88848	0.95899
3123.83468	0.95918
3121.78088	0.95938
3119.72707	0.95950
3117.67327	0.95951
3115.61947	0.95971
3113.56566	0.96012
3111.51186	0.96044
3109.45806	0.96061
3107.40426	0.96078
3105.35045	0.96121
3103.29665	0.96185
3101.24285	0.96224
3099.18904	0.96211
3097.13524	0.96196
3095.08144	0.96234
3093.02763	0.96271
3090.97383	0.96262
3088.92003	0.96241
3086.86622	0.96224
3084.81242	0.96204
3082.75862	0.96191
3080.70481	0.96208
3078.65101	0.96259
3076.59721	0.96282
3074.54340	0.96283
3072.48960	0.96311
3070.43580	0.96341
3068.38199	0.96354
3066.32819	0.96361
3064.27439	0.96357
3062.22058	0.96365
3060.16678	0.96364
3058.11298	0.96336
3056.05918	0.96332
3054.00537	0.96384
3051.95157	0.96433
3049.89777	0.96447
3047.84396	0.96479
3045.79016	0.96538
3043.73636	0.96592
3041.68255	0.96615
3039.62875	0.96595
3037.57495	0.96590
3035.52114	0.96628
3033.46734	0.96657
3031.41354	0.96652
3029.35973	0.96653
3027.30593	0.96657
3025.25213	0.96648
3023.19832	0.96668
3021.14452	0.96725
3019.09072	0.96767
3017.03691	0.96773
3014.98311	0.96770
3012.92931	0.96766
3010.87550	0.96767
3008.82170	0.96773
3006.76790	0.96778
3004.71409	0.96794
3002.66029	0.96821
3000.60649	0.96851
2998.55269	0.96879
2996.49888	0.96872
2994.44508	0.96822
2992.39128	0.96764
2990.33747	0.96678
2988.28367	0.96580
2986.22987	0.96533
2984.17606	0.96519
2982.12226	0.96476
2980.06846	0.96395
2978.01465	0.96310
2975.96085	0.96221
2973.90705	0.96108
2971.85324	0.96007
2969.79944	0.95927
2967.74564	0.95805
2965.69183	0.95613
2963.63803	0.95371
2961.58423	0.95140
2959.53042	0.94947
2957.47662	0.94744
2955.42282	0.94533
2953.36901	0.94332
2951.31521	0.94132
2949.26141	0.93906
2947.20761	0.93564
2945.15380	0.93046
2943.10000	0.92390
2941.04620	0.91588
2938.99239	0.90602
2936.93859	0.89460
2934.88479	0.88143
2932.83098	0.86624
2930.77718	0.84875
2928.72338	0.82812
2926.66957	0.80404
2924.61577	0.77605
2922.56197	0.74347
2920.50816	0.70794
2918.45436	0.67474
2916.40056	0.65226
2914.34675	0.64768
2912.29295	0.66108
2910.23915	0.68534
2908.18534	0.71202
2906.13154	0.73604
2904.07774	0.75595
2902.02393	0.77191
2899.97013	0.78471
2897.91633	0.79572
2895.86252	0.80596
2893.80872	0.81583
2891.75492	0.82558
2889.70112	0.83545
2887.64731	0.84539
2885.59351	0.85522
2883.53971	0.86493
2881.48590	0.87462
2879.43210	0.88437
2877.37830	0.89360
2875.32449	0.90121
2873.27069	0.90676
2871.21689	0.91027
2869.16308	0.91153
2867.10928	0.91038
2865.05548	0.90654
2863.00167	0.89928
2860.94787	0.88747
2858.89407	0.86984
2856.84026	0.84413
2854.78646	0.80703
2852.73266	0.75861
2850.67885	0.70861
2848.62505	0.67641
2846.57125	0.67698
2844.51744	0.70680
2842.46364	0.74985
2840.40984	0.79244
2838.35603	0.82805
2836.30223	0.85538
2834.24843	0.87582
2832.19463	0.89119
2830.14082	0.90303
2828.08702	0.91244
2826.03322	0.91991
2823.97941	0.92584
2821.92561	0.93086
2819.87181	0.93521
2817.81800	0.93864
2815.76420	0.94149
2813.71040	0.94427
2811.65659	0.94678
2809.60279	0.94886
2807.54899	0.95067
2805.49518	0.95244
2803.44138	0.95424
2801.38758	0.95594
2799.33377	0.95731
2797.27997	0.95816
2795.22617	0.95909
2793.17236	0.96038
2791.11856	0.96124
2789.06476	0.96163
2787.01095	0.96226
2784.95715	0.96319
2782.90335	0.96414
2780.84955	0.96498
2778.79574	0.96568
2776.74194	0.96632
2774.68814	0.96697
2772.63433	0.96735
2770.58053	0.96773
2768.52673	0.96851
2766.47292	0.96915
2764.41912	0.96924
2762.36532	0.96936
2760.31151	0.96981
2758.25771	0.97012
2756.20391	0.97025
2754.15010	0.97069
2752.09630	0.97131
2750.04250	0.97157
2747.98869	0.97150
2745.93489	0.97137
2743.88109	0.97125
2741.82728	0.97124
2739.77348	0.97139
2737.71968	0.97167
2735.66587	0.97209
2733.61207	0.97255
2731.55827	0.97302
2729.50446	0.97329
2727.45066	0.97323
2725.39686	0.97314
2723.34306	0.97324
2721.28925	0.97346
2719.23545	0.97360
2717.18165	0.97377
2715.12784	0.97424
2713.07404	0.97483
2711.02024	0.97508
2708.96643	0.97491
2706.91263	0.97464
2704.85883	0.97452
2702.80502	0.97468
2700.75122	0.97478
2698.69742	0.97461
2696.64361	0.97474
2694.58981	0.97516
2692.53601	0.97533
2690.48220	0.97536
2688.42840	0.97542
2686.37460	0.97544
2684.32079	0.97550
2682.26699	0.97569
2680.21319	0.97584
2678.15938	0.97569
2676.10558	0.97537
2674.05178	0.97544
2671.99797	0.97562
2669.94417	0.97518
2667.89037	0.97470
2665.83657	0.97484
2663.78276	0.97507
2661.72896	0.97480
2659.67516	0.97440
2657.62135	0.97430
2655.56755	0.97443
2653.51375	0.97467
2651.45994	0.97490
2649.40614	0.97514
2647.35234	0.97551
2645.29853	0.97573
2643.24473	0.97548
2641.19093	0.97492
2639.13712	0.97458
2637.08332	0.97466
2635.02952	0.97475
2632.97571	0.97485
2630.92191	0.97529
2628.86811	0.97584
2626.81430	0.97634
2624.76050	0.97689
2622.70670	0.97715
2620.65289	0.97725
2618.59909	0.97769
2616.54529	0.97827
2614.49149	0.97863
2612.43768	0.97887
2610.38388	0.97916
2608.33008	0.97921
2606.27627	0.97867
2604.22247	0.97841
2602.16867	0.97899
2600.11486	0.97962
2598.06106	0.97982
2596.00726	0.98024
2593.95345	0.98112
2591.89965	0.98171
2589.84585	0.98165
2587.79204	0.98144
2585.73824	0.98137
2583.68444	0.98127
2581.63063	0.98117
2579.57683	0.98117
2577.52303	0.98156
2575.46922	0.98233
2573.41542	0.98266
2571.36162	0.98234
2569.30781	0.98203
2567.25401	0.98189
2565.20021	0.98162
2563.14640	0.98138
2561.09260	0.98189
2559.03880	0.98297
2556.98500	0.98357
2554.93119	0.98371
2552.87739	0.98366
2550.82359	0.98301
2548.76978	0.98226
2546.71598	0.98230
2544.66218	0.98255
2542.60837	0.98249
2540.55457	0.98281
2538.50077	0.98347
2536.44696	0.98389
2534.39316	0.98402
2532.33936	0.98392
2530.28555	0.98390
2528.23175	0.98391
2526.17795	0.98345
2524.12414	0.98306
2522.07034	0.98390
2520.01654	0.98492
2517.96273	0.98463
2515.90893	0.98390
2513.85513	0.98356
2511.80132	0.98361
2509.74752	0.98382
2507.69372	0.98395
2505.63992	0.98465
2503.58611	0.98560
2501.53231	0.98573
2499.47851	0.98546
2497.42470	0.98569
2495.37090	0.98592
2493.31710	0.98544
2491.26329	0.98462
2489.20949	0.98426
2487.15569	0.98470
2485.10188	0.98542
2483.04808	0.98559
2480.99428	0.98502
2478.94047	0.98450
2476.88667	0.98472
2474.83287	0.98539
2472.77906	0.98597
2470.72526	0.98623
2468.67146	0.98612
2466.61765	0.98584
2464.56385	0.98540
2462.51005	0.98465
2460.45624	0.98392
2458.40244	0.98343
2456.34864	0.98351
2454.29483	0.98407
2452.24103	0.98447
2450.18723	0.98481
2448.13343	0.98532
2446.07962	0.98555
2444.02582	0.98557
2441.97202	0.98568
2439.91821	0.98575
2437.86441	0.98579
2435.81061	0.98595
2433.75680	0.98601
2431.70300	0.98577
2429.64920	0.98560
2427.59539	0.98583
2425.54159	0.98655
2423.48779	0.98716
2421.43398	0.98704
2419.38018	0.98665
2417.32638	0.98667
2415.27257	0.98690
2413.21877	0.98678
2411.16497	0.98619
2409.11116	0.98556
2407.05736	0.98553
2405.00356	0.98569
2402.94975	0.98549
2400.89595	0.98525
2398.84215	0.98546
2396.78834	0.98612
2394.73454	0.98669
2392.68074	0.98684
2390.62694	0.98673
2388.57313	0.98674
2386.51933	0.98678
2384.46553	0.98658
2382.41172	0.98635
2380.35792	0.98636
2378.30412	0.98651
2376.25031	0.98618
2374.19651	0.98514
2372.14271	0.98421
2370.08890	0.98354
2368.03510	0.98313
2365.98130	0.98332
2363.92749	0.98352
2361.87369	0.98350
2359.81989	0.98358
2357.76608	0.98410
2355.71228	0.98539
2353.65848	0.98631
2351.60467	0.98583
2349.55087	0.98485
2347.49707	0.98434
2345.44326	0.98460
2343.38946	0.98484
2341.33566	0.98433
2339.28186	0.98403
2337.22805	0.98402
2335.17425	0.98384
2333.12045	0.98360
2331.06664	0.98329
2329.01284	0.98300
2326.95904	0.98262
2324.90523	0.98209
2322.85143	0.98228
2320.79763	0.98329
2318.74382	0.98400
2316.69002	0.98402
2314.63622	0.98356
2312.58241	0.98319
2310.52861	0.98334
2308.47481	0.98381
2306.42100	0.98448
2304.36720	0.98509
2302.31340	0.98535
2300.25959	0.98493
2298.20579	0.98415
2296.15199	0.98416
2294.09818	0.98479
2292.04438	0.98488
2289.99058	0.98459
2287.93677	0.98481
2285.88297	0.98488
2283.82917	0.98410
2281.77537	0.98371
2279.72156	0.98446
2277.66776	0.98505
2275.61396	0.98466
2273.56015	0.98435
2271.50635	0.98478
2269.45255	0.98522
2267.39874	0.98543
2265.34494	0.98562
2263.29114	0.98577
2261.23733	0.98592
2259.18353	0.98594
2257.12973	0.98568
2255.07592	0.98598
2253.02212	0.98723
2250.96832	0.98782
2248.91451	0.98694
2246.86071	0.98611
2244.80691	0.98656
2242.75310	0.98750
2240.69930	0.98763
2238.64550	0.98707
2236.59169	0.98673
2234.53789	0.98584
2232.48409	0.98464
2230.43029	0.98547
2228.37648	0.98699
2226.32268	0.98712
2224.26888	0.98690
2222.21507	0.98617
2220.16127	0.98529
2218.10747	0.98585
2216.05366	0.98706
2213.99986	0.98727
2211.94606	0.98641
2209.89225	0.98595
2207.83845	0.98658
2205.78465	0.98721
2203.73084	0.98797
2201.67704	0.98820
2199.62324	0.98652
2197.56943	0.98473
2195.51563	0.98421
2193.46183	0.98434
2191.40802	0.98443
2189.35422	0.98390
2187.30042	0.98388
2185.24661	0.98618
2183.19281	0.98921
2181.13901	0.98940
2179.08520	0.98832
2177.03140	0.98932
2174.97760	0.98938
2172.92380	0.98669
2170.86999	0.98404
2168.81619	0.98197
2166.76239	0.98063
2164.70858	0.98008
2162.65478	0.97938
2160.60098	0.98139
2158.54717	0.98764
2156.49337	0.99207
2154.43957	0.99238
2152.38576	0.99199
2150.33196	0.99163
2148.27816	0.99139
2146.22435	0.99198
2144.17055	0.99179
2142.11675	0.98994
2140.06294	0.98808
2138.00914	0.98756
2135.95534	0.98936
2133.90153	0.99292
2131.84773	0.99432
2129.79393	0.99228
2127.74012	0.98938
2125.68632	0.98717
2123.63252	0.98604
2121.57871	0.98604
2119.52491	0.98709
2117.47111	0.98838
2115.41731	0.98887
2113.36350	0.98849
2111.30970	0.98793
2109.25590	0.98769
2107.20209	0.98766
2105.14829	0.98774
2103.09449	0.98767
2101.04068	0.98760
2098.98688	0.98770
2096.93308	0.98812
2094.87927	0.98911
2092.82547	0.98967
2090.77167	0.98878
2088.71786	0.98748
2086.66406	0.98775
2084.61026	0.98855
2082.55645	0.98807
2080.50265	0.98791
2078.44885	0.98947
2076.39504	0.99019
2074.34124	0.98854
2072.28744	0.98710
2070.23363	0.98733
2068.17983	0.98869
2066.12603	0.99034
2064.07223	0.99100
2062.01842	0.99038
2059.96462	0.98950
2057.91082	0.98920
2055.85701	0.98967
2053.80321	0.99001
2051.74941	0.98889
2049.69560	0.98683
2047.64180	0.98607
2045.58800	0.98672
2043.53419	0.98786
2041.48039	0.99053
2039.42659	0.99256
2037.37278	0.99184
2035.31898	0.99125
2033.26518	0.99146
2031.21137	0.99042
2029.15757	0.98851
2027.10377	0.98704
2025.04996	0.98746
2022.99616	0.99074
2020.94236	0.99396
2018.88855	0.99456
2016.83475	0.99306
2014.78095	0.98942
2012.72714	0.98646
2010.67334	0.98726
2008.61954	0.98894
2006.56574	0.98975
2004.51193	0.99134
2002.45813	0.99318
2000.40433	0.99398
1998.35052	0.99306
1996.29672	0.98982
1994.24292	0.98668
1992.18911	0.98719
1990.13531	0.98902
1988.08151	0.98900
1986.02770	0.98917
1983.97390	0.99061
1981.92010	0.99065
1979.86629	0.98829
1977.81249	0.98703
1975.75869	0.98831
1973.70488	0.98932
1971.65108	0.98868
1969.59728	0.98848
1967.54347	0.98996
1965.48967	0.99120
1963.43587	0.99063
1961.38206	0.98957
1959.32826	0.98967
1957.27446	0.99003
1955.22066	0.98959
1953.16685	0.98847
1951.11305	0.98683
1949.05925	0.98620
1947.00544	0.98755
1944.95164	0.98885
1942.89784	0.98851
1940.84403	0.98778
1938.79023	0.98778
1936.73643	0.98790
1934.68262	0.98818
1932.62882	0.98868
1930.57502	0.98867
1928.52121	0.98888
1926.46741	0.98939
1924.41361	0.98916
1922.35980	0.98863
1920.30600	0.98886
1918.25220	0.98914
1916.19839	0.98841
1914.14459	0.98789
1912.09079	0.98873
1910.03698	0.98941
1907.98318	0.98868
1905.92938	0.98787
1903.87557	0.98748
1901.82177	0.98710
1899.76797	0.98686
1897.71417	0.98686
1895.66036	0.98733
1893.60656	0.98811
1891.55276	0.98852
1889.49895	0.98859
1887.44515	0.98814
1885.39135	0.98723
1883.33754	0.98683
1881.28374	0.98745
1879.22994	0.98836
1877.17613	0.98852
1875.12233	0.98814
1873.06853	0.98755
1871.01472	0.98697
1868.96092	0.98711
1866.90712	0.98791
1864.85331	0.98829
1862.79951	0.98775
1860.74571	0.98671
1858.69190	0.98625
1856.63810	0.98664
1854.58430	0.98731
1852.53049	0.98798
1850.47669	0.98855
1848.42289	0.98870
1846.36908	0.98837
1844.31528	0.98802
1842.26148	0.98750
1840.20768	0.98685
1838.15387	0.98673
1836.10007	0.98715
1834.04627	0.98738
1831.99246	0.98698
1829.93866	0.98702
1827.88486	0.98785
1825.83105	0.98787
1823.77725	0.98716
1821.72345	0.98653
1819.66964	0.98637
1817.61584	0.98683
1815.56204	0.98712
1813.50823	0.98675
1811.45443	0.98625
1809.40063	0.98596
1807.34682	0.98588
1805.29302	0.98570
1803.23922	0.98528
1801.18541	0.98513
1799.13161	0.98527
1797.07781	0.98511
1795.02400	0.98476
1792.97020	0.98451
1790.91640	0.98431
1788.86260	0.98400
1786.80879	0.98360
1784.75499	0.98309
1782.70119	0.98244
1780.64738	0.98218
1778.59358	0.98248
1776.53978	0.98258
1774.48597	0.98231
1772.43217	0.98176
1770.37837	0.98107
1768.32456	0.98073
1766.27076	0.98043
1764.21696	0.97991
1762.16315	0.97944
1760.10935	0.97904
1758.05555	0.97869
1756.00174	0.97827
1753.94794	0.97746
1751.89414	0.97622
1749.84033	0.97450
1747.78653	0.97282
1745.73273	0.97166
1743.67892	0.97055
1741.62512	0.96927
1739.57132	0.96816
1737.51751	0.96726
1735.46371	0.96630
1733.40991	0.96546
1731.35611	0.96494
1729.30230	0.96368
1727.24850	0.96156
1725.19470	0.95910
1723.14089	0.95672
1721.08709	0.95490
1719.03329	0.95323
1716.97948	0.95144
1714.92568	0.95069
1712.87188	0.95088
1710.81807	0.95158
1708.76427	0.95258
1706.71047	0.95358
1704.65666	0.95444
1702.60286	0.95491
1700.54906	0.95502
1698.49525	0.95498
1696.44145	0.95517
1694.38765	0.95555
1692.33384	0.95570
1690.28004	0.95518
1688.22624	0.95389
1686.17243	0.95226
1684.11863	0.95050
1682.06483	0.94992
1680.01103	0.95011
1677.95722	0.95015
1675.90342	0.94977
1673.84962	0.94881
1671.79581	0.94785
1669.74201	0.94692
1667.68821	0.94576
1665.63440	0.94469
1663.58060	0.94341
1661.52680	0.94200
1659.47299	0.94138
1657.41919	0.94133
1655.36539	0.94085
1653.31158	0.93903
1651.25778	0.93807
1649.20398	0.93818
1647.15017	0.93760
1645.09637	0.93689
1643.04257	0.93677
1640.98876	0.93647
1638.93496	0.93590
1636.88116	0.93523
1634.82735	0.93418
1632.77355	0.93354
1630.71975	0.93333
1628.66594	0.93281
1626.61214	0.93169
1624.55834	0.93046
1622.50454	0.92962
1620.45073	0.92959
1618.39693	0.93052
1616.34313	0.93242
1614.28932	0.93430
1612.23552	0.93585
1610.18172	0.93744
1608.12791	0.93877
1606.07411	0.93970
1604.02031	0.94062
1601.96650	0.94168
1599.91270	0.94268
1597.85890	0.94351
1595.80509	0.94422
1593.75129	0.94485
1591.69749	0.94550
1589.64368	0.94616
1587.58988	0.94671
1585.53608	0.94708
1583.48227	0.94748
1581.42847	0.94813
1579.37467	0.94878
1577.32086	0.94934
1575.26706	0.94998
1573.21326	0.95064
1571.15945	0.95130
1569.10565	0.95221
1567.05185	0.95334
1564.99805	0.95432
1562.94424	0.95484
1560.89044	0.95508
1558.83664	0.95592
1556.78283	0.95693
1554.72903	0.95715
1552.67523	0.95708
1550.62142	0.95701
1548.56762	0.95706
1546.51382	0.95725
1544.46001	0.95762
1542.40621	0.95842
1540.35241	0.95993
1538.29860	0.96089
1536.24480	0.96098
1534.19100	0.96119
1532.13719	0.96202
1530.08339	0.96297
1528.02959	0.96358
1525.97578	0.96417
1523.92198	0.96500
1521.86818	0.96574
1519.81437	0.96637
1517.76057	0.96709
1515.70677	0.96760
1513.65297	0.96743
1511.59916	0.96674
1509.54536	0.96605
1507.49156	0.96603
1505.43775	0.96676
1503.38395	0.96685
1501.33015	0.96659
1499.27634	0.96647
1497.22254	0.96650
1495.16874	0.96624
1493.11493	0.96586
1491.06113	0.96514
1489.00733	0.96380
1486.95352	0.96256
1484.89972	0.96135
1482.84592	0.95928
1480.79211	0.95527
1478.73831	0.94668
1476.68451	0.92530
1474.63070	0.88511
1472.57690	0.84822
1470.52310	0.84697
1468.46929	0.85908
1466.41549	0.86164
1464.36169	0.85112
1462.30788	0.84634
1460.25408	0.85949
1458.20028	0.88475
1456.14648	0.90733
1454.09267	0.91705
1452.03887	0.92286
1449.98507	0.92767
1447.93126	0.93112
1445.87746	0.93309
1443.82366	0.93416
1441.76985	0.93507
1439.71605	0.93598
1437.66225	0.93673
1435.60844	0.93740
1433.55464	0.93836
1431.50084	0.93951
1429.44703	0.94079
1427.39323	0.94190
1425.33943	0.94233
1423.28562	0.94233
1421.23182	0.94225
1419.17802	0.94172
1417.12421	0.94087
1415.07041	0.94053
1413.01661	0.94077
1410.96280	0.94154
1408.90900	0.94269
1406.85520	0.94423
1404.80139	0.94635
1402.74759	0.94840
1400.69379	0.95000
1398.63999	0.95136
1396.58618	0.95232
1394.53238	0.95298
1392.47858	0.95357
1390.42477	0.95390
1388.37097	0.95402
1386.31717	0.95429
1384.26336	0.95412
1382.20956	0.95271
1380.15576	0.95068
1378.10195	0.94934
1376.04815	0.94897
1373.99435	0.94903
1371.94054	0.94922
1369.88674	0.94951
1367.83294	0.94954
1365.77913	0.94940
1363.72533	0.94999
1361.67153	0.95159
1359.61772	0.95304
1357.56392	0.95371
1355.51012	0.95414
1353.45631	0.95456
1351.40251	0.95484
1349.34871	0.95525
1347.29491	0.95593
1345.24110	0.95682
1343.18730	0.95774
1341.13350	0.95825
1339.07969	0.95832
1337.02589	0.95839
1334.97209	0.95854
1332.91828	0.95872
1330.86448	0.95873
1328.81068	0.95799
1326.75687	0.95667
1324.70307	0.95563
1322.64927	0.95513
1320.59546	0.95498
1318.54166	0.95518
1316.48786	0.95577
1314.43405	0.95643
1312.38025	0.95682
1310.32645	0.95688
1308.27264	0.95677
1306.21884	0.95674
1304.16504	0.95676
1302.11123	0.95682
1300.05743	0.95698
1298.00363	0.95706
1295.94982	0.95688
1293.89602	0.95650
1291.84222	0.95615
1289.78842	0.95599
1287.73461	0.95602
1285.68081	0.95591
1283.62701	0.95529
1281.57320	0.95432
1279.51940	0.95319
1277.46560	0.95178
1275.41179	0.95045
1273.35799	0.94960
1271.30419	0.94907
1269.25038	0.94888
1267.19658	0.94913
1265.14278	0.94965
1263.08897	0.95008
1261.03517	0.95020
1258.98137	0.94998
1256.92756	0.94956
1254.87376	0.94925
1252.81996	0.94904
1250.76615	0.94879
1248.71235	0.94842
1246.65855	0.94791
1244.60474	0.94737
1242.55094	0.94669
1240.49714	0.94575
1238.44334	0.94500
1236.38953	0.94471
1234.33573	0.94440
1232.28193	0.94388
1230.22812	0.94345
1228.17432	0.94299
1226.12052	0.94232
1224.06671	0.94162
1222.01291	0.94096
1219.95911	0.94035
1217.90530	0.93957
1215.85150	0.93836
1213.79770	0.93690
1211.74389	0.93549
1209.69009	0.93419
1207.63629	0.93281
1205.58248	0.93129
1203.52868	0.92974
1201.47488	0.92816
1199.42107	0.92652
1197.36727	0.92471
1195.31347	0.92249
1193.25966	0.92016
1191.20586	0.91803
1189.15206	0.91563
1187.09825	0.91264
1185.04445	0.90936
1182.99065	0.90576
1180.93685	0.90179
1178.88304	0.89787
1176.82924	0.89403
1174.77544	0.89000
1172.72163	0.88592
1170.66783	0.88205
1168.61403	0.87809
1166.56022	0.87387
1164.50642	0.86996
1162.45262	0.86686
1160.39881	0.86446
1158.34501	0.86206
1156.29121	0.85919
1154.23740	0.85633
1152.18360	0.85375
1150.12980	0.85132
1148.07599	0.84892
1146.02219	0.84662
1143.96839	0.84430
1141.91458	0.84181
1139.86078	0.83959
1137.80698	0.83781
1135.75317	0.83581
1133.69937	0.83305
1131.64557	0.82945
1129.59176	0.82525
1127.53796	0.82081
1125.48416	0.81624
1123.43036	0.81111
1121.37655	0.80478
1119.32275	0.79810
1117.26895	0.79250
1115.21514	0.78828
1113.16134	0.78504
1111.10754	0.78226
1109.05373	0.77946
1106.99993	0.77649
1104.94613	0.77364
1102.89232	0.77135
1100.83852	0.76966
1098.78472	0.76815
1096.73091	0.76661
1094.67711	0.76532
1092.62331	0.76421
1090.56950	0.76306
1088.51570	0.76255
1086.46190	0.76280
1084.40809	0.76285
1082.35429	0.76248
1080.30049	0.76209
1078.24668	0.76189
1076.19288	0.76145
1074.13908	0.76013
1072.08528	0.75791
1070.03147	0.75538
1067.97767	0.75269
1065.92387	0.74936
1063.87006	0.74538
1061.81626	0.74104
1059.76246	0.73643
1057.70865	0.73157
1055.65485	0.72612
1053.60105	0.71998
1051.54724	0.71336
1049.49344	0.70649
1047.43964	0.69998
1045.38583	0.69405
1043.33203	0.68818
1041.27823	0.68218
1039.22442	0.67647
1037.17062	0.67147
1035.11682	0.66765
1033.06301	0.66533
1031.00921	0.66426
1028.95541	0.66463
1026.90160	0.66648
1024.84780	0.66881
1022.79400	0.67095
1020.74019	0.67307
1018.68639	0.67462
1016.63259	0.67483
1014.57879	0.67442
1012.52498	0.67451
1010.47118	0.67526
1008.41738	0.67641
1006.36357	0.67813
1004.30977	0.68119
1002.25597	0.68604
1000.20216	0.69228
998.14836	0.69928
996.09456	0.70664
994.04075	0.71426
991.98695	0.72227
989.93315	0.73086
987.87934	0.73993
985.82554	0.74927
983.77174	0.75838
981.71793	0.76665
979.66413	0.77444
977.61033	0.78225
975.55652	0.78993
973.50272	0.79725
971.44892	0.80416
969.39511	0.81071
967.34131	0.81688
965.28751	0.82242
963.23371	0.82727
961.17990	0.83179
959.12610	0.83596
957.07230	0.83980
955.01849	0.84347
952.96469	0.84666
950.91089	0.84925
948.85708	0.85147
946.80328	0.85330
944.74948	0.85479
942.69567	0.85612
940.64187	0.85724
938.58807	0.85819
936.53426	0.85912
934.48046	0.86003
932.42666	0.86087
930.37285	0.86169
928.31905	0.86217
926.26525	0.86182
924.21144	0.86108
922.15764	0.86051
920.10384	0.85949
918.05003	0.85764
915.99623	0.85568
913.94243	0.85405
911.88862	0.85325
909.83482	0.85445
907.78102	0.85822
905.72722	0.86391
903.67341	0.87034
901.61961	0.87630
899.56581	0.88123
897.51200	0.88539
895.45820	0.88888
893.40440	0.89165
891.35059	0.89415
889.29679	0.89680
887.24299	0.89916
885.18918	0.90047
883.13538	0.90059
881.08158	0.90004
879.02777	0.89954
876.97397	0.89964
874.92017	0.90091
872.86636	0.90350
870.81256	0.90639
868.75876	0.90885
866.70495	0.91093
864.65115	0.91285
862.59735	0.91479
860.54354	0.91634
858.48974	0.91796
856.43594	0.92050
854.38213	0.92300
852.32833	0.92411
850.27453	0.92405
848.22073	0.92388
846.16692	0.92412
844.11312	0.92470
842.05932	0.92524
840.00551	0.92533
837.95171	0.92497
835.89791	0.92435
833.84410	0.92361
831.79030	0.92294
829.73650	0.92241
827.68269	0.92187
825.62889	0.92162
823.57509	0.92213
821.52128	0.92267
819.46748	0.92185
817.41368	0.92006
815.35987	0.91884
813.30607	0.91819
811.25227	0.91738
809.19846	0.91586
807.14466	0.91344
805.09086	0.91048
803.03705	0.90712
800.98325	0.90413
798.92945	0.90270
796.87565	0.90295
794.82184	0.90366
792.76804	0.90358
790.71424	0.90306
788.66043	0.90252
786.60663	0.90187
784.55283	0.90117
782.49902	0.90046
780.44522	0.90005
778.39142	0.89990
776.33761	0.90027
774.28381	0.90103
772.23001	0.90105
770.17620	0.90069
768.12240	0.90057
766.06860	0.89960
764.01479	0.89751
761.96099	0.89596
759.90719	0.89503
757.85338	0.89335
755.79958	0.89167
753.74578	0.89113
751.69197	0.89072
749.63817	0.88973
747.58437	0.88890
745.53056	0.88843
743.47676	0.88765
741.42296	0.88647
739.36916	0.88540
737.31535	0.88273
735.26155	0.87154
733.20775	0.84480
731.15394	0.81465
729.10014	0.80670
727.04634	0.81890
724.99253	0.82505
722.93873	0.80923
720.88493	0.77428
718.83112	0.74706
716.77732	0.75316
714.72352	0.78352
712.66971	0.81509
710.61591	0.83582
708.56211	0.84580
706.50830	0.84985
704.45450	0.85146
702.40070	0.85149
700.34689	0.85031
698.29309	0.84907
696.23929	0.84818
694.18548	0.84696
692.13168	0.84581
690.07788	0.84548
688.02408	0.84560
685.97027	0.84587
683.91647	0.84602
681.86267	0.84592
679.80886	0.84584
677.75506	0.84579
675.70126	0.84509
673.64745	0.84324
671.59365	0.84135
669.53985	0.84136
667.48604	0.84491
665.43224	0.84896
663.37844	0.85172
661.32463	0.85361
659.27083	0.85475
657.21703	0.85543
655.16322	0.85550
653.10942	0.85476
651.05562	0.85324
649.00181	0.85217
646.94801	0.85254
644.89421	0.85323
642.84040	0.85350
640.78660	0.85296
638.73280	0.85148
636.67899	0.85113
634.62519	0.85192
632.57139	0.85137
630.51759	0.85027
628.46378	0.85005
626.40998	0.84987
624.35618	0.84937
622.30237	0.84819
620.24857	0.84581
618.19477	0.84325
616.14096	0.84193
614.08716	0.84108
612.03336	0.83815
609.97955	0.83339
607.92575	0.82947
605.87195	0.82656
603.81814	0.82398
601.76434	0.82273
599.71054	0.82252
597.65673	0.82176
595.60293	0.82095
593.54913	0.82047
591.49532	0.81900
589.44152	0.81760
587.38772	0.81760
585.33391	0.81769
583.28011	0.81710
581.22631	0.81658
579.17250	0.81677
577.11870	0.81666
575.06490	0.81517
573.01110	0.81307
570.95729	0.81099
568.90349	0.80910
566.84969	0.80690
564.79588	0.80446
562.74208	0.80308
560.68828	0.80108
558.63447	0.79694
556.58067	0.79374
554.52687	0.79255
552.47306	0.79035
550.41926	0.78631
548.36546	0.78173
546.31165	0.77743
544.25785	0.77414
542.20405	0.77159
540.15024	0.76847
538.09644	0.76461
536.04264	0.76142
533.98883	0.75998
531.93503	0.75960
529.88123	0.75914
527.82742	0.75918
525.77362	0.76130
523.71982	0.76460
521.66602	0.76792
519.61221	0.77215
517.55841	0.77673
515.50461	0.77977
513.45080	0.78130
511.39700	0.78351
509.34320	0.78675
507.28939	0.78872
505.23559	0.78956
503.18179	0.78982
501.12798	0.78948
499.07418	0.79001
497.02038	0.79079
494.96657	0.79166
492.91277	0.79272
490.85897	0.79085
488.80516	0.78636
486.75136	0.78189
484.69756	0.77681
482.64375	0.77008
480.58995	0.76063
478.53615	0.74929
476.48234	0.73948
474.42854	0.73116
472.37474	0.72037
470.32093	0.70939
468.26713	0.70621
466.21333	0.70973
464.15953	0.71263
462.10572	0.71492
460.05192	0.72031
457.99812	0.72756
455.94431	0.73248
453.89051	0.73522
451.83671	0.74035
449.78290	0.74757
447.72910	0.75144
445.67530	0.75238
443.62149	0.75381
441.56769	0.75338
439.51389	0.75072
437.46008	0.74942
435.40628	0.74853
433.35248	0.74502
431.29867	0.74011
429.24487	0.73696
427.19107	0.73769
425.13726	0.74317
423.08346	0.75134
421.02966	0.75968
418.97585	0.76827
416.92205	0.77285
414.86825	0.77428
412.81445	0.77658
410.76064	0.78171
408.70684	0.78906
406.65304	0.79407
404.59923	0.79774
402.54543	0.80482
400.49163	0.81270
398.43782	0.81228
