3996.70104	0.99093
3994.64724	0.99098
3992.59344	0.99120
3990.53964	0.99150
3988.48583	0.99141
3986.43203	0.99096
3984.37823	0.99029
3982.32442	0.98973
3980.27062	0.98955
3978.21682	0.98985
3976.16301	0.99071
3974.10921	0.99141
3972.05541	0.99124
3970.00160	0.99071
3967.94780	0.99054
3965.89400	0.99070
3963.84019	0.99080
3961.78639	0.99074
3959.73259	0.99068
3957.67878	0.99067
3955.62498	0.99062
3953.57118	0.99051
3951.51737	0.99024
3949.46357	0.98995
3947.40977	0.99019
3945.35596	0.99054
3943.30216	0.99023
3941.24836	0.99004
3939.19455	0.99051
3937.14075	0.99082
3935.08695	0.99058
3933.03315	0.99009
3930.97934	0.98973
3928.92554	0.98998
3926.87174	0.99071
3924.81793	0.99114
3922.76413	0.99111
3920.71033	0.99104
3918.65652	0.99089
3916.60272	0.99062
3914.54892	0.99053
3912.49511	0.99072
3910.44131	0.99091
3908.38751	0.99087
3906.33370	0.99038
3904.27990	0.98928
3902.22610	0.98879
3900.17229	0.98970
3898.11849	0.99075
3896.06469	0.99119
3894.01088	0.99090
3891.95708	0.98990
3889.90328	0.98952
3887.84947	0.99004
3885.79567	0.99087
3883.74187	0.99168
3881.68807	0.99167
3879.63426	0.99117
3877.58046	0.99096
3875.52666	0.99076
3873.47285	0.99058
3871.41905	0.99054
3869.36525	0.99052
3867.31144	0.99053
3865.25764	0.99056
3863.20384	0.99053
3861.15003	0.99053
3859.09623	0.99055
3857.04243	0.99051
3854.98862	0.99045
3852.93482	0.99041
3850.88102	0.99040
3848.82721	0.99024
3846.77341	0.99003
3844.71961	0.98993
3842.66580	0.98994
3840.61200	0.98985
3838.55820	0.98923
3836.50439	0.98878
3834.45059	0.98903
3832.39679	0.98943
3830.34298	0.98957
3828.28918	0.98956
3826.23538	0.99005
3824.18158	0.99062
3822.12777	0.99053
3820.07397	0.99049
3818.02017	0.99083
3815.96636	0.99057
3813.91256	0.98956
3811.85876	0.98916
3809.80495	0.98964
3807.75115	0.99009
3805.69735	0.99033
3803.64354	0.99034
3801.58974	0.98949
3799.53594	0.98881
3797.48213	0.98906
3795.42833	0.98961
3793.37453	0.99024
3791.32072	0.99071
3789.26692	0.99093
3787.21312	0.99087
3785.15931	0.99056
3783.10551	0.99048
3781.05171	0.99053
3778.99790	0.99027
3776.94410	0.99017
3774.89030	0.99036
3772.83650	0.99033
3770.78269	0.99004
3768.72889	0.98974
3766.67509	0.98944
3764.62128	0.98938
3762.56748	0.98943
3760.51368	0.98937
3758.45987	0.98986
3756.40607	0.99039
3754.35227	0.98963
3752.29846	0.98849
3750.24466	0.98904
3748.19086	0.99053
3746.13705	0.99108
3744.08325	0.99043
3742.02945	0.99002
3739.97564	0.99041
3737.92184	0.99062
3735.86804	0.99075
3733.81423	0.99111
3731.76043	0.99108
3729.70663	0.99093
3727.65282	0.99080
3725.59902	0.99030
3723.54522	0.98917
3721.49141	0.98805
3719.43761	0.98799
3717.38381	0.98857
3715.33001	0.98888
3713.27620	0.98877
3711.22240	0.98835
3709.16860	0.98802
3707.11479	0.98804
3705.06099	0.98811
3703.00719	0.98778
3700.95338	0.98701
3698.89958	0.98641
3696.84578	0.98625
3694.79197	0.98600
3692.73817	0.98561
3690.68437	0.98595
3688.63056	0.98656
3686.57676	0.98643
3684.52296	0.98648
3682.46915	0.98674
3680.41535	0.98628
3678.36155	0.98513
3676.30774	0.98443
3674.25394	0.98465
3672.20014	0.98439
3670.14633	0.98339
3668.09253	0.98296
3666.03873	0.98327
3663.98492	0.98336
3661.93112	0.98296
3659.87732	0.98256
3657.82352	0.98275
3655.76971	0.98288
3653.71591	0.98237
3651.66211	0.98196
3649.60830	0.98161
3647.55450	0.98099
3645.50070	0.98077
3643.44689	0.98072
3641.39309	0.98067
3639.33929	0.98083
3637.28548	0.98088
3635.23168	0.98053
3633.17788	0.98011
3631.12407	0.97956
3629.07027	0.97820
3627.01647	0.97727
3624.96266	0.97768
3622.90886	0.97805
3620.85506	0.97787
3618.80125	0.97748
3616.74745	0.97733
3614.69365	0.97750
3612.63984	0.97762
3610.58604	0.97703
3608.53224	0.97573
3606.47844	0.97501
3604.42463	0.97542
3602.37083	0.97601
3600.31703	0.97596
3598.26322	0.97533
3596.20942	0.97487
3594.15562	0.97494
3592.10181	0.97533
3590.04801	0.97524
3587.99421	0.97476
3585.94040	0.97503
3583.88660	0.97555
3581.83280	0.97579
3579.77899	0.97568
3577.72519	0.97499
3575.67139	0.97431
3573.61758	0.97413
3571.56378	0.97418
3569.50998	0.97394
3567.45617	0.97278
3565.40237	0.97171
3563.34857	0.97213
3561.29476	0.97303
3559.24096	0.97360
3557.18716	0.97356
3555.13335	0.97286
3553.07955	0.97221
3551.02575	0.97196
3548.97195	0.97178
3546.91814	0.97177
3544.86434	0.97193
3542.81054	0.97193
3540.75673	0.97172
3538.70293	0.97125
3536.64913	0.97047
3534.59532	0.96995
3532.54152	0.97001
3530.48772	0.96998
3528.43391	0.96968
3526.38011	0.96949
3524.32631	0.96933
3522.27250	0.96916
3520.21870	0.96907
3518.16490	0.96885
3516.11109	0.96873
3514.05729	0.96884
3512.00349	0.96890
3509.94968	0.96917
3507.89588	0.96969
3505.84208	0.97003
3503.78827	0.96999
3501.73447	0.96927
3499.68067	0.96881
3497.62687	0.96898
3495.57306	0.96869
3493.51926	0.96858
3491.46546	0.96911
3489.41165	0.96899
3487.35785	0.96829
3485.30405	0.96802
3483.25024	0.96823
3481.19644	0.96845
3479.14264	0.96832
3477.08883	0.96764
3475.03503	0.96682
3472.98123	0.96672
3470.92742	0.96702
3468.87362	0.96714
3466.81982	0.96724
3464.76601	0.96738
3462.71221	0.96746
3460.65841	0.96714
3458.60460	0.96683
3456.55080	0.96693
3454.49700	0.96666
3452.44319	0.96618
3450.38939	0.96638
3448.33559	0.96680
3446.28178	0.96659
3444.22798	0.96593
3442.17418	0.96567
3440.12038	0.96599
3438.06657	0.96619
3436.01277	0.96596
3433.95897	0.96561
3431.90516	0.96547
3429.85136	0.96599
3427.79756	0.96676
3425.74375	0.96664
3423.68995	0.96589
3421.63615	0.96567
3419.58234	0.96597
3417.52854	0.96599
3415.47474	0.96563
3413.42093	0.96530
3411.36713	0.96521
3409.31333	0.96507
3407.25952	0.96482
3405.20572	0.96501
3403.15192	0.96542
3401.09811	0.96566
3399.04431	0.96595
3396.99051	0.96600
3394.93670	0.96559
3392.88290	0.96526
3390.82910	0.96527
3388.77529	0.96553
3386.72149	0.96606
3384.66769	0.96669
3382.61389	0.96707
3380.56008	0.96717
3378.50628	0.96713
3376.45248	0.96702
3374.39867	0.96667
3372.34487	0.96622
3370.29107	0.96631
3368.23726	0.96689
3366.18346	0.96722
3364.12966	0.96701
3362.07585	0.96625
3360.02205	0.96539
3357.96825	0.96530
3355.91444	0.96584
3353.86064	0.96657
3351.80684	0.96737
3349.75303	0.96782
3347.69923	0.96773
3345.64543	0.96719
3343.59162	0.96643
3341.53782	0.96613
3339.48402	0.96652
3337.43021	0.96719
3335.37641	0.96767
3333.32261	0.96752
3331.26881	0.96691
3329.21500	0.96660
3327.16120	0.96689
3325.10740	0.96726
3323.05359	0.96743
3320.99979	0.96748
3318.94599	0.96742
3316.89218	0.96772
3314.83838	0.96813
3312.78458	0.96809
3310.73077	0.96795
3308.67697	0.96791
3306.62317	0.96767
3304.56936	0.96711
3302.51556	0.96688
3300.46176	0.96744
3298.40795	0.96807
3296.35415	0.96828
3294.30035	0.96860
3292.24654	0.96904
3290.19274	0.96889
3288.13894	0.96846
3286.08513	0.96866
3284.03133	0.96911
3281.97753	0.96919
3279.92372	0.96909
3277.86992	0.96888
3275.81612	0.96852
3273.76232	0.96844
3271.70851	0.96866
3269.65471	0.96888
3267.60091	0.96904
3265.54710	0.96935
3263.49330	0.96994
3261.43950	0.97049
3259.38569	0.97090
3257.33189	0.97129
3255.27809	0.97123
3253.22428	0.97071
3251.17048	0.97018
3249.11668	0.96984
3247.06287	0.96982
3245.00907	0.97003
3242.95527	0.97034
3240.90146	0.97065
3238.84766	0.97084
3236.79386	0.97110
3234.74005	0.97127
3232.68625	0.97111
3230.63245	0.97099
3228.57864	0.97104
3226.52484	0.97097
3224.47104	0.97095
3222.41724	0.97126
3220.36343	0.97188
3218.30963	0.97230
3216.25583	0.97177
3214.20202	0.97071
3212.14822	0.97061
3210.09442	0.97156
3208.04061	0.97245
3205.98681	0.97294
3203.93301	0.97303
3201.87920	0.97284
3199.82540	0.97264
3197.77160	0.97233
3195.71779	0.97210
3193.66399	0.97241
3191.61019	0.97288
3189.55638	0.97303
3187.50258	0.97318
3185.44878	0.97350
3183.39497	0.97346
3181.34117	0.97297
3179.28737	0.97298
3177.23356	0.97351
3175.17976	0.97364
3173.12596	0.97354
3171.07215	0.97376
3169.01835	0.97411
3166.96455	0.97423
3164.91075	0.97415
3162.85694	0.97427
3160.80314	0.97487
3158.74934	0.97544
3156.69553	0.97563
3154.64173	0.97578
3152.58793	0.97572
3150.53412	0.97536
3148.48032	0.97518
3146.42652	0.97556
3144.37271	0.97612
3142.31891	0.97616
3140.26511	0.97600
3138.21130	0.97618
3136.15750	0.97650
3134.10370	0.97661
3132.04989	0.97641
3129.99609	0.97597
3127.94229	0.97549
3125.88848	0.97561
3123.83468	0.97639
3121.78088	0.97686
3119.72707	0.97666
3117.67327	0.97621
3115.61947	0.97588
3113.56566	0.97571
3111.51186	0.97583
3109.45806	0.97652
3107.40426	0.97734
3105.35045	0.97759
3103.29665	0.97708
3101.24285	0.97653
3099.18904	0.97652
3097.13524	0.97688
3095.08144	0.97733
3093.02763	0.97776
3090.97383	0.97814
3088.92003	0.97846
3086.86622	0.97856
3084.81242	0.97850
3082.75862	0.97833
3080.70481	0.97814
3078.65101	0.97823
3076.59721	0.97873
3074.54340	0.97923
3072.48960	0.97942
3070.43580	0.97937
3068.38199	0.97904
3066.32819	0.97850
3064.27439	0.97819
3062.22058	0.97819
3060.16678	0.97818
3058.11298	0.97830
3056.05918	0.97862
3054.00537	0.97878
3051.95157	0.97879
3049.89777	0.97878
3047.84396	0.97874
3045.79016	0.97900
3043.73636	0.97963
3041.68255	0.97993
3039.62875	0.97941
3037.57495	0.97887
3035.52114	0.97898
3033.46734	0.97951
3031.41354	0.98012
3029.35973	0.98038
3027.30593	0.98019
3025.25213	0.97994
3023.19832	0.97988
3021.14452	0.97980
3019.09072	0.97968
3017.03691	0.97980
3014.98311	0.98002
3012.92931	0.97997
3010.87550	0.97963
3008.82170	0.97927
3006.76790	0.97902
3004.71409	0.97873
3002.66029	0.97842
3000.60649	0.97817
2998.55269	0.97800
2996.49888	0.97797
2994.44508	0.97803
2992.39128	0.97778
2990.33747	0.97732
2988.28367	0.97733
2986.22987	0.97772
2984.17606	0.97770
2982.12226	0.97706
2980.06846	0.97629
2978.01465	0.97587
2975.96085	0.97574
2973.90705	0.97536
2971.85324	0.97481
2969.79944	0.97458
2967.74564	0.97464
2965.69183	0.97428
2963.63803	0.97332
2961.58423	0.97271
2959.53042	0.97287
2957.47662	0.97313
2955.42282	0.97297
2953.36901	0.97265
2951.31521	0.97263
2949.26141	0.97310
2947.20761	0.97358
2945.15380	0.97341
2943.10000	0.97273
2941.04620	0.97190
2938.99239	0.97121
2936.93859	0.97065
2934.88479	0.97001
2932.83098	0.96907
2930.77718	0.96786
2928.72338	0.96679
2926.66957	0.96594
2924.61577	0.96522
2922.56197	0.96500
2920.50816	0.96513
2918.45436	0.96516
2916.40056	0.96556
2914.34675	0.96689
2912.29295	0.96866
2910.23915	0.97000
2908.18534	0.97070
2906.13154	0.97090
2904.07774	0.97096
2902.02393	0.97152
2899.97013	0.97257
2897.91633	0.97323
2895.86252	0.97312
2893.80872	0.97321
2891.75492	0.97399
2889.70112	0.97472
2887.64731	0.97527
2885.59351	0.97577
2883.53971	0.97573
2881.48590	0.97510
2879.43210	0.97463
2877.37830	0.97472
2875.32449	0.97519
2873.27069	0.97588
2871.21689	0.97643
2869.16308	0.97652
2867.10928	0.97646
2865.05548	0.97653
2863.00167	0.97640
2860.94787	0.97586
2858.89407	0.97510
2856.84026	0.97427
2854.78646	0.97351
2852.73266	0.97309
2850.67885	0.97315
2848.62505	0.97370
2846.57125	0.97479
2844.51744	0.97642
2842.46364	0.97797
2840.40984	0.97885
2838.35603	0.97938
2836.30223	0.97974
2834.24843	0.97978
2832.19463	0.97986
2830.14082	0.98021
2828.08702	0.98044
2826.03322	0.98075
2823.97941	0.98152
2821.92561	0.98189
2819.87181	0.98155
2817.81800	0.98130
2815.76420	0.98151
2813.71040	0.98196
2811.65659	0.98221
2809.60279	0.98208
2807.54899	0.98178
2805.49518	0.98156
2803.44138	0.98180
2801.38758	0.98234
2799.33377	0.98258
2797.27997	0.98262
2795.22617	0.98291
2793.17236	0.98320
2791.11856	0.98303
2789.06476	0.98279
2787.01095	0.98281
2784.95715	0.98282
2782.90335	0.98286
2780.84955	0.98301
2778.79574	0.98312
2776.74194	0.98312
2774.68814	0.98297
2772.63433	0.98287
2770.58053	0.98305
2768.52673	0.98341
2766.47292	0.98334
2764.41912	0.98279
2762.36532	0.98241
2760.31151	0.98258
2758.25771	0.98302
2756.20391	0.98336
2754.15010	0.98334
2752.09630	0.98300
2750.04250	0.98279
2747.98869	0.98297
2745.93489	0.98335
2743.88109	0.98369
2741.82728	0.98383
2739.77348	0.98364
2737.71968	0.98363
2735.66587	0.98391
2733.61207	0.98375
2731.55827	0.98345
2729.50446	0.98359
2727.45066	0.98389
2725.39686	0.98400
2723.34306	0.98402
2721.28925	0.98411
2719.23545	0.98423
2717.18165	0.98426
2715.12784	0.98417
2713.07404	0.98417
2711.02024	0.98431
2708.96643	0.98425
2706.91263	0.98421
2704.85883	0.98426
2702.80502	0.98406
2700.75122	0.98379
2698.69742	0.98388
2696.64361	0.98425
2694.58981	0.98445
2692.53601	0.98439
2690.48220	0.98432
2688.42840	0.98430
2686.37460	0.98420
2684.32079	0.98407
2682.26699	0.98421
2680.21319	0.98446
2678.15938	0.98436
2676.10558	0.98415
2674.05178	0.98431
2671.99797	0.98465
2669.94417	0.98486
2667.89037	0.98471
2665.83657	0.98439
2663.78276	0.98405
2661.72896	0.98369
2659.67516	0.98353
2657.62135	0.98342
2655.56755	0.98328
2653.51375	0.98323
2651.45994	0.98342
2649.40614	0.98380
2647.35234	0.98391
2645.29853	0.98355
2643.24473	0.98307
2641.19093	0.98285
2639.13712	0.98314
2637.08332	0.98387
2635.02952	0.98438
2632.97571	0.98423
2630.92191	0.98390
2628.86811	0.98399
2626.81430	0.98416
2624.76050	0.98396
2622.70670	0.98375
2620.65289	0.98374
2618.59909	0.98387
2616.54529	0.98416
2614.49149	0.98422
2612.43768	0.98394
2610.38388	0.98366
2608.33008	0.98343
2606.27627	0.98328
2604.22247	0.98337
2602.16867	0.98362
2600.11486	0.98366
2598.06106	0.98362
2596.00726	0.98409
2593.95345	0.98456
2591.89965	0.98448
2589.84585	0.98447
2587.79204	0.98451
2585.73824	0.98435
2583.68444	0.98436
2581.63063	0.98432
2579.57683	0.98405
2577.52303	0.98418
2575.46922	0.98485
2573.41542	0.98544
2571.36162	0.98558
2569.30781	0.98538
2567.25401	0.98513
2565.20021	0.98529
2563.14640	0.98564
2561.09260	0.98570
2559.03880	0.98555
2556.98500	0.98520
2554.93119	0.98461
2552.87739	0.98427
2550.82359	0.98442
2548.76978	0.98440
2546.71598	0.98439
2544.66218	0.98522
2542.60837	0.98563
2540.55457	0.98484
2538.50077	0.98458
2536.44696	0.98540
2534.39316	0.98585
2532.33936	0.98499
2530.28555	0.98381
2528.23175	0.98393
2526.17795	0.98484
2524.12414	0.98491
2522.07034	0.98453
2520.01654	0.98457
2517.96273	0.98455
2515.90893	0.98438
2513.85513	0.98440
2511.80132	0.98463
2509.74752	0.98479
2507.69372	0.98479
2505.63992	0.98493
2503.58611	0.98492
2501.53231	0.98461
2499.47851	0.98437
2497.42470	0.98461
2495.37090	0.98515
2493.31710	0.98521
2491.26329	0.98485
2489.20949	0.98448
2487.15569	0.98450
2485.10188	0.98526
2483.04808	0.98598
2480.99428	0.98574
2478.94047	0.98499
2476.88667	0.98458
2474.83287	0.98462
2472.77906	0.98497
2470.72526	0.98514
2468.67146	0.98470
2466.61765	0.98437
2464.56385	0.98506
2462.51005	0.98609
2460.45624	0.98614
2458.40244	0.98528
2456.34864	0.98445
2454.29483	0.98408
2452.24103	0.98413
2450.18723	0.98427
2448.13343	0.98430
2446.07962	0.98470
2444.02582	0.98536
2441.97202	0.98527
2439.91821	0.98475
2437.86441	0.98485
2435.81061	0.98515
2433.75680	0.98533
2431.70300	0.98563
2429.64920	0.98572
2427.59539	0.98542
2425.54159	0.98507
2423.48779	0.98482
2421.43398	0.98444
2419.38018	0.98414
2417.32638	0.98418
2415.27257	0.98430
2413.21877	0.98492
2411.16497	0.98596
2409.11116	0.98634
2407.05736	0.98639
2405.00356	0.98645
2402.94975	0.98613
2400.89595	0.98584
2398.84215	0.98577
2396.78834	0.98584
2394.73454	0.98595
2392.68074	0.98569
2390.62694	0.98551
2388.57313	0.98591
2386.51933	0.98614
2384.46553	0.98571
2382.41172	0.98548
2380.35792	0.98603
2378.30412	0.98647
2376.25031	0.98620
2374.19651	0.98546
2372.14271	0.98466
2370.08890	0.98483
2368.03510	0.98639
2365.98130	0.98796
2363.92749	0.98808
2361.87369	0.98733
2359.81989	0.98688
2357.76608	0.98634
2355.71228	0.98564
2353.65848	0.98495
2351.60467	0.98434
2349.55087	0.98408
2347.49707	0.98378
2345.44326	0.98372
2343.38946	0.98421
2341.33566	0.98406
2339.28186	0.98331
2337.22805	0.98332
2335.17425	0.98411
2333.12045	0.98473
2331.06664	0.98494
2329.01284	0.98502
2326.95904	0.98434
2324.90523	0.98264
2322.85143	0.98168
2320.79763	0.98264
2318.74382	0.98377
2316.69002	0.98404
2314.63622	0.98403
2312.58241	0.98373
2310.52861	0.98337
2308.47481	0.98325
2306.42100	0.98349
2304.36720	0.98400
2302.31340	0.98406
2300.25959	0.98395
2298.20579	0.98453
2296.15199	0.98493
2294.09818	0.98383
2292.04438	0.98208
2289.99058	0.98132
2287.93677	0.98171
2285.88297	0.98228
2283.82917	0.98212
2281.77537	0.98212
2279.72156	0.98275
2277.66776	0.98240
2275.61396	0.98150
2273.56015	0.98223
2271.50635	0.98386
2269.45255	0.98466
2267.39874	0.98499
2265.34494	0.98568
2263.29114	0.98575
2261.23733	0.98513
2259.18353	0.98531
2257.12973	0.98577
2255.07592	0.98553
2253.02212	0.98516
2250.96832	0.98475
2248.91451	0.98443
2246.86071	0.98490
2244.80691	0.98496
2242.75310	0.98365
2240.69930	0.98296
2238.64550	0.98360
2236.59169	0.98406
2234.53789	0.98417
2232.48409	0.98441
2230.43029	0.98441
2228.37648	0.98444
2226.32268	0.98409
2224.26888	0.98284
2222.21507	0.98235
2220.16127	0.98305
2218.10747	0.98342
2216.05366	0.98295
2213.99986	0.98187
2211.94606	0.98115
2209.89225	0.98179
2207.83845	0.98353
2205.78465	0.98501
2203.73084	0.98527
2201.67704	0.98470
2199.62324	0.98324
2197.56943	0.98180
2195.51563	0.98183
2193.46183	0.98177
2191.40802	0.98116
2189.35422	0.98095
2187.30042	0.98046
2185.24661	0.98002
2183.19281	0.97991
2181.13901	0.98063
2179.08520	0.98301
2177.03140	0.98460
2174.97760	0.98483
2172.92380	0.98508
2170.86999	0.98425
2168.81619	0.98287
2166.76239	0.98253
2164.70858	0.98188
2162.65478	0.97989
2160.60098	0.98039
2158.54717	0.98506
2156.49337	0.98915
2154.43957	0.98987
2152.38576	0.98893
2150.33196	0.98852
2148.27816	0.98864
2146.22435	0.98874
2144.17055	0.98770
2142.11675	0.98522
2140.06294	0.98361
2138.00914	0.98433
2135.95534	0.98632
2133.90153	0.98745
2131.84773	0.98649
2129.79393	0.98471
2127.74012	0.98433
2125.68632	0.98530
2123.63252	0.98580
2121.57871	0.98530
2119.52491	0.98487
2117.47111	0.98421
2115.41731	0.98296
2113.36350	0.98255
2111.30970	0.98311
2109.25590	0.98368
2107.20209	0.98384
2105.14829	0.98368
2103.09449	0.98338
2101.04068	0.98297
2098.98688	0.98358
2096.93308	0.98533
2094.87927	0.98590
2092.82547	0.98427
2090.77167	0.98260
2088.71786	0.98235
2086.66406	0.98287
2084.61026	0.98400
2082.55645	0.98476
2080.50265	0.98384
2078.44885	0.98301
2076.39504	0.98324
2074.34124	0.98316
2072.28744	0.98254
2070.23363	0.98162
2068.17983	0.98114
2066.12603	0.98206
2064.07223	0.98342
2062.01842	0.98375
2059.96462	0.98363
2057.91082	0.98360
2055.85701	0.98388
2053.80321	0.98478
2051.74941	0.98438
2049.69560	0.98190
2047.64180	0.98040
2045.58800	0.98116
2043.53419	0.98294
2041.48039	0.98474
2039.42659	0.98441
2037.37278	0.98221
2035.31898	0.98188
2033.26518	0.98460
2031.21137	0.98705
2029.15757	0.98558
2027.10377	0.98183
2025.04996	0.98006
2022.99616	0.98066
2020.94236	0.98135
2018.88855	0.98097
2016.83475	0.98022
2014.78095	0.98075
2012.72714	0.98313
2010.67334	0.98446
2008.61954	0.98316
2006.56574	0.98261
2004.51193	0.98452
2002.45813	0.98571
2000.40433	0.98493
1998.35052	0.98454
1996.29672	0.98477
1994.24292	0.98469
1992.18911	0.98441
1990.13531	0.98341
1988.08151	0.98209
1986.02770	0.98190
1983.97390	0.98210
1981.92010	0.98139
1979.86629	0.98139
1977.81249	0.98289
1975.75869	0.98438
1973.70488	0.98454
1971.65108	0.98443
1969.59728	0.98521
1967.54347	0.98523
1965.48967	0.98434
1963.43587	0.98481
1961.38206	0.98682
1959.32826	0.98767
1957.27446	0.98567
1955.22066	0.98328
1953.16685	0.98316
1951.11305	0.98440
1949.05925	0.98601
1947.00544	0.98788
1944.95164	0.98785
1942.89784	0.98625
1940.84403	0.98547
1938.79023	0.98506
1936.73643	0.98471
1934.68262	0.98440
1932.62882	0.98364
1930.57502	0.98380
1928.52121	0.98524
1926.46741	0.98584
1924.41361	0.98474
1922.35980	0.98368
1920.30600	0.98472
1918.25220	0.98655
1916.19839	0.98677
1914.14459	0.98577
1912.09079	0.98483
1910.03698	0.98455
1907.98318	0.98527
1905.92938	0.98644
1903.87557	0.98656
1901.82177	0.98565
1899.76797	0.98504
1897.71417	0.98476
1895.66036	0.98429
1893.60656	0.98407
1891.55276	0.98471
1889.49895	0.98548
1887.44515	0.98553
1885.39135	0.98565
1883.33754	0.98628
1881.28374	0.98664
1879.22994	0.98654
1877.17613	0.98617
1875.12233	0.98539
1873.06853	0.98451
1871.01472	0.98410
1868.96092	0.98444
1866.90712	0.98509
1864.85331	0.98548
1862.79951	0.98579
1860.74571	0.98606
1858.69190	0.98622
1856.63810	0.98638
1854.58430	0.98618
1852.53049	0.98574
1850.47669	0.98601
1848.42289	0.98652
1846.36908	0.98634
1844.31528	0.98603
1842.26148	0.98619
1840.20768	0.98638
1838.15387	0.98628
1836.10007	0.98616
1834.04627	0.98618
1831.99246	0.98587
1829.93866	0.98518
1827.88486	0.98479
1825.83105	0.98486
1823.77725	0.98527
1821.72345	0.98558
1819.66964	0.98557
1817.61584	0.98582
1815.56204	0.98612
1813.50823	0.98576
1811.45443	0.98502
1809.40063	0.98475
1807.34682	0.98516
1805.29302	0.98546
1803.23922	0.98529
1801.18541	0.98511
1799.13161	0.98524
1797.07781	0.98550
1795.02400	0.98567
1792.97020	0.98560
1790.91640	0.98525
1788.86260	0.98501
1786.80879	0.98492
1784.75499	0.98470
1782.70119	0.98443
1780.64738	0.98446
1778.59358	0.98459
1776.53978	0.98421
1774.48597	0.98342
1772.43217	0.98307
1770.37837	0.98322
1768.32456	0.98300
1766.27076	0.98239
1764.21696	0.98173
1762.16315	0.98080
1760.10935	0.97944
1758.05555	0.97837
1756.00174	0.97787
1753.94794	0.97746
1751.89414	0.97644
1749.84033	0.97501
1747.78653	0.97415
1745.73273	0.97364
1743.67892	0.97291
1741.62512	0.97218
1739.57132	0.97158
1737.51751	0.97102
1735.46371	0.97038
1733.40991	0.96962
1731.35611	0.96978
1729.30230	0.97046
1727.24850	0.97065
1725.19470	0.97022
1723.14089	0.96977
1721.08709	0.96996
1719.03329	0.97072
1716.97948	0.97137
1714.92568	0.97160
1712.87188	0.97216
1710.81807	0.97292
1708.76427	0.97354
1706.71047	0.97410
1704.65666	0.97453
1702.60286	0.97477
1700.54906	0.97514
1698.49525	0.97506
1696.44145	0.97368
1694.38765	0.97144
1692.33384	0.96960
1690.28004	0.96781
1688.22624	0.96566
1686.17243	0.96336
1684.11863	0.95974
1682.06483	0.95596
1680.01103	0.95325
1677.95722	0.95091
1675.90342	0.94834
1673.84962	0.94526
1671.79581	0.94250
1669.74201	0.93962
1667.68821	0.93697
1665.63440	0.93522
1663.58060	0.93348
1661.52680	0.93137
1659.47299	0.92961
1657.41919	0.92880
1655.36539	0.92840
1653.31158	0.92625
1651.25778	0.92410
1649.20398	0.92430
1647.15017	0.92442
1645.09637	0.92381
1643.04257	0.92356
1640.98876	0.92375
1638.93496	0.92433
1636.88116	0.92548
1634.82735	0.92741
1632.77355	0.92975
1630.71975	0.93249
1628.66594	0.93595
1626.61214	0.93963
1624.55834	0.94314
1622.50454	0.94670
1620.45073	0.94970
1618.39693	0.95172
1616.34313	0.95340
1614.28932	0.95535
1612.23552	0.95734
1610.18172	0.95896
1608.12791	0.96003
1606.07411	0.96090
1604.02031	0.96188
1601.96650	0.96279
1599.91270	0.96347
1597.85890	0.96395
1595.80509	0.96445
1593.75129	0.96500
1591.69749	0.96537
1589.64368	0.96554
1587.58988	0.96573
1585.53608	0.96598
1583.48227	0.96612
1581.42847	0.96626
1579.37467	0.96653
1577.32086	0.96678
1575.26706	0.96686
1573.21326	0.96688
1571.15945	0.96700
1569.10565	0.96718
1567.05185	0.96706
1564.99805	0.96674
1562.94424	0.96700
1560.89044	0.96813
1558.83664	0.96868
1556.78283	0.96732
1554.72903	0.96673
1552.67523	0.96661
1550.62142	0.96645
1548.56762	0.96650
1546.51382	0.96654
1544.46001	0.96632
1542.40621	0.96601
1540.35241	0.96547
1538.29860	0.96560
1536.24480	0.96654
1534.19100	0.96729
1532.13719	0.96757
1530.08339	0.96807
1528.02959	0.96880
1525.97578	0.96895
1523.92198	0.96854
1521.86818	0.96836
1519.81437	0.96882
1517.76057	0.96899
1515.70677	0.96852
1513.65297	0.96840
1511.59916	0.96874
1509.54536	0.96903
1507.49156	0.96903
1505.43775	0.96904
1503.38395	0.96928
1501.33015	0.96945
1499.27634	0.96955
1497.22254	0.96950
1495.16874	0.96924
1493.11493	0.96915
1491.06113	0.96907
1489.00733	0.96874
1486.95352	0.96865
1484.89972	0.96880
1482.84592	0.96875
1480.79211	0.96837
1478.73831	0.96784
1476.68451	0.96709
1474.63070	0.96611
1472.57690	0.96511
1470.52310	0.96452
1468.46929	0.96429
1466.41549	0.96383
1464.36169	0.96292
1462.30788	0.96235
1460.25408	0.96257
1458.20028	0.96252
1456.14648	0.96162
1454.09267	0.96162
1452.03887	0.96219
1449.98507	0.96288
1447.93126	0.96366
1445.87746	0.96417
1443.82366	0.96435
1441.76985	0.96428
1439.71605	0.96396
1437.66225	0.96331
1435.60844	0.96260
1433.55464	0.96242
1431.50084	0.96238
1429.44703	0.96222
1427.39323	0.96216
1425.33943	0.96226
1423.28562	0.96239
1421.23182	0.96239
1419.17802	0.96215
1417.12421	0.96206
1415.07041	0.96254
1413.01661	0.96327
1410.96280	0.96384
1408.90900	0.96414
1406.85520	0.96440
1404.80139	0.96470
1402.74759	0.96485
1400.69379	0.96483
1398.63999	0.96491
1396.58618	0.96506
1394.53238	0.96516
1392.47858	0.96531
1390.42477	0.96551
1388.37097	0.96560
1386.31717	0.96545
1384.26336	0.96497
1382.20956	0.96411
1380.15576	0.96332
1378.10195	0.96298
1376.04815	0.96298
1373.99435	0.96311
1371.94054	0.96332
1369.88674	0.96371
1367.83294	0.96426
1365.77913	0.96488
1363.72533	0.96532
1361.67153	0.96554
1359.61772	0.96592
1357.56392	0.96668
1355.51012	0.96752
1353.45631	0.96793
1351.40251	0.96785
1349.34871	0.96774
1347.29491	0.96774
1345.24110	0.96767
1343.18730	0.96765
1341.13350	0.96775
1339.07969	0.96771
1337.02589	0.96760
1334.97209	0.96764
1332.91828	0.96760
1330.86448	0.96738
1328.81068	0.96717
1326.75687	0.96706
1324.70307	0.96697
1322.64927	0.96678
1320.59546	0.96655
1318.54166	0.96632
1316.48786	0.96600
1314.43405	0.96552
1312.38025	0.96493
1310.32645	0.96445
1308.27264	0.96391
1306.21884	0.96305
1304.16504	0.96180
1302.11123	0.95986
1300.05743	0.95726
1298.00363	0.95421
1295.94982	0.95043
1293.89602	0.94608
1291.84222	0.94152
1289.78842	0.93682
1287.73461	0.93224
1285.68081	0.92798
1283.62701	0.92400
1281.57320	0.92060
1279.51940	0.91845
1277.46560	0.91790
1275.41179	0.91927
1273.35799	0.92309
1271.30419	0.92903
1269.25038	0.93558
1267.19658	0.94133
1265.14278	0.94557
1263.08897	0.94853
1261.03517	0.95105
1258.98137	0.95314
1256.92756	0.95453
1254.87376	0.95537
1252.81996	0.95612
1250.76615	0.95701
1248.71235	0.95769
1246.65855	0.95829
1244.60474	0.95901
1242.55094	0.95958
1240.49714	0.95991
1238.44334	0.95995
1236.38953	0.96003
1234.33573	0.96038
1232.28193	0.96063
1230.22812	0.96051
1228.17432	0.96027
1226.12052	0.96023
1224.06671	0.96039
1222.01291	0.96066
1219.95911	0.96078
1217.90530	0.96040
1215.85150	0.95944
1213.79770	0.95848
1211.74389	0.95811
1209.69009	0.95803
1207.63629	0.95776
1205.58248	0.95729
1203.52868	0.95698
1201.47488	0.95692
1199.42107	0.95702
1197.36727	0.95703
1195.31347	0.95681
1193.25966	0.95656
1191.20586	0.95609
1189.15206	0.95535
1187.09825	0.95462
1185.04445	0.95403
1182.99065	0.95364
1180.93685	0.95342
1178.88304	0.95310
1176.82924	0.95246
1174.77544	0.95169
1172.72163	0.95106
1170.66783	0.95035
1168.61403	0.94935
1166.56022	0.94842
1164.50642	0.94748
1162.45262	0.94655
1160.39881	0.94615
1158.34501	0.94611
1156.29121	0.94594
1154.23740	0.94574
1152.18360	0.94561
1150.12980	0.94538
1148.07599	0.94503
1146.02219	0.94469
1143.96839	0.94441
1141.91458	0.94406
1139.86078	0.94338
1137.80698	0.94241
1135.75317	0.94149
1133.69937	0.94092
1131.64557	0.94064
1129.59176	0.94006
1127.53796	0.93905
1125.48416	0.93798
1123.43036	0.93700
1121.37655	0.93611
1119.32275	0.93511
1117.26895	0.93420
1115.21514	0.93357
1113.16134	0.93288
1111.10754	0.93212
1109.05373	0.93167
1106.99993	0.93149
1104.94613	0.93095
1102.89232	0.92994
1100.83852	0.92911
1098.78472	0.92855
1096.73091	0.92796
1094.67711	0.92739
1092.62331	0.92669
1090.56950	0.92547
1088.51570	0.92413
1086.46190	0.92330
1084.40809	0.92274
1082.35429	0.92182
1080.30049	0.92048
1078.24668	0.91931
1076.19288	0.91865
1074.13908	0.91805
1072.08528	0.91712
1070.03147	0.91613
1067.97767	0.91554
1065.92387	0.91558
1063.87006	0.91538
1061.81626	0.91434
1059.76246	0.91312
1057.70865	0.91231
1055.65485	0.91231
1053.60105	0.91305
1051.54724	0.91359
1049.49344	0.91340
1047.43964	0.91270
1045.38583	0.91205
1043.33203	0.91180
1041.27823	0.91120
1039.22442	0.90994
1037.17062	0.90869
1035.11682	0.90753
1033.06301	0.90639
1031.00921	0.90580
1028.95541	0.90561
1026.90160	0.90529
1024.84780	0.90516
1022.79400	0.90537
1020.74019	0.90540
1018.68639	0.90511
1016.63259	0.90484
1014.57879	0.90445
1012.52498	0.90387
1010.47118	0.90350
1008.41738	0.90348
1006.36357	0.90367
1004.30977	0.90382
1002.25597	0.90360
1000.20216	0.90327
998.14836	0.90343
996.09456	0.90403
994.04075	0.90481
991.98695	0.90570
989.93315	0.90669
987.87934	0.90782
985.82554	0.90903
983.77174	0.91057
981.71793	0.91248
979.66413	0.91412
977.61033	0.91550
975.55652	0.91685
973.50272	0.91789
971.44892	0.91886
969.39511	0.92031
967.34131	0.92207
965.28751	0.92333
963.23371	0.92405
961.17990	0.92507
959.12610	0.92649
957.07230	0.92748
955.01849	0.92796
952.96469	0.92841
950.91089	0.92892
948.85708	0.92953
946.80328	0.92981
944.74948	0.92948
942.69567	0.92945
940.64187	0.93023
938.58807	0.93146
936.53426	0.93287
934.48046	0.93383
932.42666	0.93409
930.37285	0.93428
928.31905	0.93448
926.26525	0.93448
924.21144	0.93445
922.15764	0.93460
920.10384	0.93451
918.05003	0.93386
915.99623	0.93325
913.94243	0.93312
911.88862	0.93321
909.83482	0.93324
907.78102	0.93369
905.72722	0.93465
903.67341	0.93532
901.61961	0.93549
899.56581	0.93525
897.51200	0.93486
895.45820	0.93502
893.40440	0.93538
891.35059	0.93504
889.29679	0.93410
887.24299	0.93348
885.18918	0.93374
883.13538	0.93402
881.08158	0.93341
879.02777	0.93243
876.97397	0.93119
874.92017	0.92946
872.86636	0.92814
870.81256	0.92731
868.75876	0.92608
866.70495	0.92421
864.65115	0.92225
862.59735	0.92123
860.54354	0.92106
858.48974	0.92039
856.43594	0.91885
854.38213	0.91723
852.32833	0.91617
850.27453	0.91501
848.22073	0.91322
846.16692	0.91180
844.11312	0.91153
842.05932	0.91230
840.00551	0.91311
837.95171	0.91296
835.89791	0.91217
833.84410	0.91201
831.79030	0.91240
829.73650	0.91250
827.68269	0.91295
825.62889	0.91415
823.57509	0.91592
821.52128	0.91825
819.46748	0.92064
817.41368	0.92254
815.35987	0.92348
813.30607	0.92404
811.25227	0.92517
809.19846	0.92653
807.14466	0.92788
805.09086	0.92918
803.03705	0.93016
800.98325	0.93112
798.92945	0.93173
796.87565	0.93164
794.82184	0.93154
792.76804	0.93183
790.71424	0.93213
788.66043	0.93231
786.60663	0.93232
784.55283	0.93207
782.49902	0.93176
780.44522	0.93152
778.39142	0.93142
776.33761	0.93114
774.28381	0.93066
772.23001	0.93082
770.17620	0.93145
768.12240	0.93132
766.06860	0.93027
764.01479	0.92911
761.96099	0.92825
759.90719	0.92784
757.85338	0.92748
755.79958	0.92704
753.74578	0.92647
751.69197	0.92547
749.63817	0.92473
747.58437	0.92462
745.53056	0.92464
743.47676	0.92489
741.42296	0.92586
739.36916	0.92738
737.31535	0.92849
735.26155	0.92794
733.20775	0.92620
731.15394	0.92488
729.10014	0.92416
727.04634	0.92398
724.99253	0.92464
722.93873	0.92532
720.88493	0.92486
718.83112	0.92362
716.77732	0.92310
714.72352	0.92322
712.66971	0.92276
710.61591	0.92173
708.56211	0.92127
706.50830	0.92114
704.45450	0.92044
702.40070	0.91982
700.34689	0.91917
698.29309	0.91840
696.23929	0.91833
694.18548	0.91840
692.13168	0.91791
690.07788	0.91652
688.02408	0.91463
685.97027	0.91456
683.91647	0.91660
681.86267	0.91763
679.80886	0.91677
677.75506	0.91574
675.70126	0.91491
673.64745	0.91422
671.59365	0.91387
669.53985	0.91387
667.48604	0.91460
665.43224	0.91494
663.37844	0.91453
661.32463	0.91452
659.27083	0.91546
657.21703	0.91654
655.16322	0.91637
653.10942	0.91517
651.05562	0.91414
649.00181	0.91309
646.94801	0.91249
644.89421	0.91296
642.84040	0.91408
640.78660	0.91486
638.73280	0.91477
636.67899	0.91458
634.62519	0.91404
632.57139	0.91293
630.51759	0.91264
628.46378	0.91339
626.40998	0.91391
624.35618	0.91356
622.30237	0.91303
620.24857	0.91304
618.19477	0.91277
616.14096	0.91199
614.08716	0.91184
612.03336	0.91244
609.97955	0.91304
607.92575	0.91242
605.87195	0.91019
603.81814	0.90846
601.76434	0.90816
599.71054	0.90850
597.65673	0.90944
595.60293	0.91076
593.54913	0.91230
591.49532	0.91319
589.44152	0.91227
587.38772	0.91074
585.33391	0.91002
583.28011	0.90978
581.22631	0.90966
579.17250	0.90956
577.11870	0.90953
575.06490	0.90998
573.01110	0.91032
570.95729	0.91024
568.90349	0.91035
566.84969	0.91072
564.79588	0.90989
562.74208	0.90786
560.68828	0.90655
558.63447	0.90589
556.58067	0.90464
554.52687	0.90312
552.47306	0.90256
550.41926	0.90292
548.36546	0.90319
546.31165	0.90272
544.25785	0.90171
542.20405	0.90071
540.15024	0.90068
538.09644	0.90137
536.04264	0.90151
533.98883	0.90056
531.93503	0.89994
529.88123	0.90193
527.82742	0.90418
525.77362	0.90446
523.71982	0.90385
521.66602	0.90210
519.61221	0.90118
517.55841	0.90279
515.50461	0.90310
513.45080	0.90159
511.39700	0.90149
509.34320	0.90256
507.28939	0.90338
505.23559	0.90354
503.18179	0.90307
501.12798	0.90266
499.07418	0.90305
497.02038	0.90418
494.96657	0.90552
492.91277	0.90589
490.85897	0.90546
488.80516	0.90568
486.75136	0.90561
484.69756	0.90429
482.64375	0.90260
480.58995	0.90214
478.53615	0.90169
476.48234	0.89916
474.42854	0.89739
472.37474	0.89814
470.32093	0.89782
468.26713	0.89572
466.21333	0.89424
464.15953	0.89326
462.10572	0.89334
460.05192	0.89631
457.99812	0.89909
455.94431	0.89825
453.89051	0.89804
451.83671	0.89990
449.78290	0.90074
447.72910	0.90035
445.67530	0.89949
443.62149	0.89951
441.56769	0.90098
439.51389	0.89975
437.46008	0.89437
435.40628	0.89229
433.35248	0.89676
431.29867	0.89855
429.24487	0.89425
427.19107	0.88956
425.13726	0.88765
423.08346	0.89190
421.02966	0.90220
418.97585	0.90651
416.92205	0.89932
414.86825	0.89388
412.81445	0.89131
410.76064	0.88993
408.70684	0.89377
406.65304	0.90120
404.59923	0.90247
402.54543	0.89721
400.49163	0.89432
398.43782	0.89870
