3996.70104	0.99254
3994.64724	0.99311
3992.59344	0.99320
3990.53964	0.99267
3988.48583	0.99216
3986.43203	0.99189
3984.37823	0.99212
3982.32442	0.99245
3980.27062	0.99208
3978.21682	0.99167
3976.16301	0.99187
3974.10921	0.99237
3972.05541	0.99261
3970.00160	0.99226
3967.94780	0.99181
3965.89400	0.99197
3963.84019	0.99260
3961.78639	0.99293
3959.73259	0.99266
3957.67878	0.99219
3955.62498	0.99189
3953.57118	0.99192
3951.51737	0.99199
3949.46357	0.99165
3947.40977	0.99135
3945.35596	0.99146
3943.30216	0.99181
3941.24836	0.99231
3939.19455	0.99256
3937.14075	0.99264
3935.08695	0.99271
3933.03315	0.99230
3930.97934	0.99144
3928.92554	0.99082
3926.87174	0.99072
3924.81793	0.99108
3922.76413	0.99147
3920.71033	0.99148
3918.65652	0.99140
3916.60272	0.99159
3914.54892	0.99159
3912.49511	0.99120
3910.44131	0.99112
3908.38751	0.99108
3906.33370	0.99066
3904.27990	0.99082
3902.22610	0.99175
3900.17229	0.99242
3898.11849	0.99267
3896.06469	0.99246
3894.01088	0.99207
3891.95708	0.99195
3889.90328	0.99214
3887.84947	0.99240
3885.79567	0.99287
3883.74187	0.99324
3881.68807	0.99294
3879.63426	0.99231
3877.58046	0.99198
3875.52666	0.99192
3873.47285	0.99190
3871.41905	0.99165
3869.36525	0.99143
3867.31144	0.99192
3865.25764	0.99262
3863.20384	0.99238
3861.15003	0.99139
3859.09623	0.99099
3857.04243	0.99133
3854.98862	0.99178
3852.93482	0.99168
3850.88102	0.99139
3848.82721	0.99153
3846.77341	0.99169
3844.71961	0.99150
3842.66580	0.99108
3840.61200	0.99152
3838.55820	0.99322
3836.50439	0.99333
3834.45059	0.99157
3832.39679	0.99093
3830.34298	0.99162
3828.28918	0.99219
3826.23538	0.99233
3824.18158	0.99227
3822.12777	0.99212
3820.07397	0.99196
3818.02017	0.99212
3815.96636	0.99252
3813.91256	0.99237
3811.85876	0.99183
3809.80495	0.99149
3807.75115	0.99157
3805.69735	0.99162
3803.64354	0.99103
3801.58974	0.99074
3799.53594	0.99154
3797.48213	0.99292
3795.42833	0.99373
3793.37453	0.99295
3791.32072	0.99198
3789.26692	0.99186
3787.21312	0.99190
3785.15931	0.99159
3783.10551	0.99137
3781.05171	0.99143
3778.99790	0.99165
3776.94410	0.99185
3774.89030	0.99220
3772.83650	0.99279
3770.78269	0.99314
3768.72889	0.99307
3766.67509	0.99287
3764.62128	0.99265
3762.56748	0.99240
3760.51368	0.99228
3758.45987	0.99233
3756.40607	0.99220
3754.35227	0.99187
3752.29846	0.99203
3750.24466	0.99327
3748.19086	0.99349
3746.13705	0.99288
3744.08325	0.99322
3742.02945	0.99332
3739.97564	0.99252
3737.92184	0.99213
3735.86804	0.99306
3733.81423	0.99441
3731.76043	0.99447
3729.70663	0.99343
3727.65282	0.99220
3725.59902	0.99124
3723.54522	0.99086
3721.49141	0.99127
3719.43761	0.99173
3717.38381	0.99152
3715.33001	0.99080
3713.27620	0.98989
3711.22240	0.98861
3709.16860	0.98714
3707.11479	0.98587
3705.06099	0.98483
3703.00719	0.98413
3700.95338	0.98339
3698.89958	0.98245
3696.84578	0.98165
3694.79197	0.98156
3692.73817	0.98250
3690.68437	0.98375
3688.63056	0.98421
3686.57676	0.98421
3684.52296	0.98479
3682.46915	0.98576
3680.41535	0.98635
3678.36155	0.98614
3676.30774	0.98544
3674.25394	0.98526
3672.20014	0.98540
3670.14633	0.98516
3668.09253	0.98495
3666.03873	0.98462
3663.98492	0.98405
3661.93112	0.98387
3659.87732	0.98382
3657.82352	0.98318
3655.76971	0.98241
3653.71591	0.98235
3651.66211	0.98219
3649.60830	0.98173
3647.55450	0.98216
3645.50070	0.98231
3643.44689	0.98185
3641.39309	0.98123
3639.33929	0.98049
3637.28548	0.97995
3635.23168	0.97958
3633.17788	0.97896
3631.12407	0.97827
3629.07027	0.97818
3627.01647	0.97866
3624.96266	0.97865
3622.90886	0.97849
3620.85506	0.97883
3618.80125	0.97938
3616.74745	0.97982
3614.69365	0.98027
3612.63984	0.98044
3610.58604	0.98028
3608.53224	0.98010
3606.47844	0.97983
3604.42463	0.97934
3602.37083	0.97886
3600.31703	0.97884
3598.26322	0.97910
3596.20942	0.97915
3594.15562	0.97904
3592.10181	0.97906
3590.04801	0.97912
3587.99421	0.97854
3585.94040	0.97790
3583.88660	0.97830
3581.83280	0.97870
3579.77899	0.97829
3577.72519	0.97736
3575.67139	0.97689
3573.61758	0.97690
3571.56378	0.97667
3569.50998	0.97633
3567.45617	0.97585
3565.40237	0.97553
3563.34857	0.97566
3561.29476	0.97541
3559.24096	0.97498
3557.18716	0.97491
3555.13335	0.97495
3553.07955	0.97471
3551.02575	0.97421
3548.97195	0.97335
3546.91814	0.97236
3544.86434	0.97241
3542.81054	0.97324
3540.75673	0.97368
3538.70293	0.97351
3536.64913	0.97314
3534.59532	0.97271
3532.54152	0.97197
3530.48772	0.97137
3528.43391	0.97163
3526.38011	0.97269
3524.32631	0.97358
3522.27250	0.97351
3520.21870	0.97329
3518.16490	0.97367
3516.11109	0.97391
3514.05729	0.97350
3512.00349	0.97296
3509.94968	0.97291
3507.89588	0.97342
3505.84208	0.97387
3503.78827	0.97430
3501.73447	0.97490
3499.68067	0.97502
3497.62687	0.97451
3495.57306	0.97382
3493.51926	0.97341
3491.46546	0.97355
3489.41165	0.97403
3487.35785	0.97463
3485.30405	0.97530
3483.25024	0.97542
3481.19644	0.97501
3479.14264	0.97473
3477.08883	0.97420
3475.03503	0.97357
3472.98123	0.97351
3470.92742	0.97343
3468.87362	0.97322
3466.81982	0.97338
3464.76601	0.97340
3462.71221	0.97304
3460.65841	0.97278
3458.60460	0.97272
3456.55080	0.97272
3454.49700	0.97267
3452.44319	0.97264
3450.38939	0.97287
3448.33559	0.97332
3446.28178	0.97339
3444.22798	0.97292
3442.17418	0.97238
3440.12038	0.97224
3438.06657	0.97250
3436.01277	0.97237
3433.95897	0.97186
3431.90516	0.97147
3429.85136	0.97129
3427.79756	0.97118
3425.74375	0.97079
3423.68995	0.97023
3421.63615	0.96982
3419.58234	0.96963
3417.52854	0.96957
3415.47474	0.96951
3413.42093	0.96936
3411.36713	0.96908
3409.31333	0.96884
3407.25952	0.96862
3405.20572	0.96805
3403.15192	0.96756
3401.09811	0.96777
3399.04431	0.96801
3396.99051	0.96800
3394.93670	0.96838
3392.88290	0.96903
3390.82910	0.96921
3388.77529	0.96886
3386.72149	0.96867
3384.66769	0.96892
3382.61389	0.96927
3380.56008	0.96963
3378.50628	0.97020
3376.45248	0.97048
3374.39867	0.97022
3372.34487	0.97008
3370.29107	0.97024
3368.23726	0.97031
3366.18346	0.97042
3364.12966	0.97067
3362.07585	0.97076
3360.02205	0.97089
3357.96825	0.97125
3355.91444	0.97166
3353.86064	0.97178
3351.80684	0.97142
3349.75303	0.97130
3347.69923	0.97188
3345.64543	0.97243
3343.59162	0.97248
3341.53782	0.97220
3339.48402	0.97186
3337.43021	0.97151
3335.37641	0.97113
3333.32261	0.97105
3331.26881	0.97148
3329.21500	0.97222
3327.16120	0.97303
3325.10740	0.97357
3323.05359	0.97321
3320.99979	0.97237
3318.94599	0.97220
3316.89218	0.97264
3314.83838	0.97282
3312.78458	0.97265
3310.73077	0.97275
3308.67697	0.97311
3306.62317	0.97324
3304.56936	0.97297
3302.51556	0.97268
3300.46176	0.97305
3298.40795	0.97398
3296.35415	0.97441
3294.30035	0.97391
3292.24654	0.97349
3290.19274	0.97375
3288.13894	0.97397
3286.08513	0.97365
3284.03133	0.97330
3281.97753	0.97358
3279.92372	0.97428
3277.86992	0.97468
3275.81612	0.97476
3273.76232	0.97487
3271.70851	0.97482
3269.65471	0.97446
3267.60091	0.97399
3265.54710	0.97386
3263.49330	0.97421
3261.43950	0.97447
3259.38569	0.97436
3257.33189	0.97448
3255.27809	0.97521
3253.22428	0.97566
3251.17048	0.97533
3249.11668	0.97529
3247.06287	0.97595
3245.00907	0.97656
3242.95527	0.97672
3240.90146	0.97649
3238.84766	0.97604
3236.79386	0.97580
3234.74005	0.97611
3232.68625	0.97645
3230.63245	0.97622
3228.57864	0.97572
3226.52484	0.97565
3224.47104	0.97627
3222.41724	0.97698
3220.36343	0.97715
3218.30963	0.97719
3216.25583	0.97743
3214.20202	0.97744
3212.14822	0.97741
3210.09442	0.97765
3208.04061	0.97779
3205.98681	0.97767
3203.93301	0.97781
3201.87920	0.97830
3199.82540	0.97848
3197.77160	0.97853
3195.71779	0.97895
3193.66399	0.97902
3191.61019	0.97831
3189.55638	0.97803
3187.50258	0.97845
3185.44878	0.97867
3183.39497	0.97888
3181.34117	0.97909
3179.28737	0.97891
3177.23356	0.97858
3175.17976	0.97871
3173.12596	0.97939
3171.07215	0.97994
3169.01835	0.98004
3166.96455	0.97998
3164.91075	0.97997
3162.85694	0.98007
3160.80314	0.98032
3158.74934	0.98054
3156.69553	0.98087
3154.64173	0.98145
3152.58793	0.98173
3150.53412	0.98124
3148.48032	0.98044
3146.42652	0.98017
3144.37271	0.98051
3142.31891	0.98110
3140.26511	0.98153
3138.21130	0.98150
3136.15750	0.98134
3134.10370	0.98153
3132.04989	0.98214
3129.99609	0.98240
3127.94229	0.98177
3125.88848	0.98110
3123.83468	0.98125
3121.78088	0.98172
3119.72707	0.98189
3117.67327	0.98190
3115.61947	0.98203
3113.56566	0.98242
3111.51186	0.98287
3109.45806	0.98319
3107.40426	0.98347
3105.35045	0.98359
3103.29665	0.98351
3101.24285	0.98349
3099.18904	0.98341
3097.13524	0.98307
3095.08144	0.98279
3093.02763	0.98309
3090.97383	0.98360
3088.92003	0.98384
3086.86622	0.98390
3084.81242	0.98412
3082.75862	0.98463
3080.70481	0.98493
3078.65101	0.98485
3076.59721	0.98476
3074.54340	0.98483
3072.48960	0.98492
3070.43580	0.98470
3068.38199	0.98422
3066.32819	0.98384
3064.27439	0.98403
3062.22058	0.98474
3060.16678	0.98534
3058.11298	0.98552
3056.05918	0.98547
3054.00537	0.98539
3051.95157	0.98541
3049.89777	0.98556
3047.84396	0.98551
3045.79016	0.98534
3043.73636	0.98555
3041.68255	0.98586
3039.62875	0.98607
3037.57495	0.98630
3035.52114	0.98621
3033.46734	0.98599
3031.41354	0.98622
3029.35973	0.98654
3027.30593	0.98644
3025.25213	0.98611
3023.19832	0.98586
3021.14452	0.98578
3019.09072	0.98570
3017.03691	0.98572
3014.98311	0.98603
3012.92931	0.98618
3010.87550	0.98601
3008.82170	0.98590
3006.76790	0.98584
3004.71409	0.98566
3002.66029	0.98575
3000.60649	0.98618
2998.55269	0.98632
2996.49888	0.98593
2994.44508	0.98539
2992.39128	0.98499
2990.33747	0.98451
2988.28367	0.98389
2986.22987	0.98346
2984.17606	0.98315
2982.12226	0.98268
2980.06846	0.98179
2978.01465	0.98015
2975.96085	0.97784
2973.90705	0.97525
2971.85324	0.97234
2969.79944	0.96883
2967.74564	0.96470
2965.69183	0.96002
2963.63803	0.95515
2961.58423	0.95103
2959.53042	0.94816
2957.47662	0.94594
2955.42282	0.94357
2953.36901	0.94091
2951.31521	0.93867
2949.26141	0.93831
2947.20761	0.94097
2945.15380	0.94603
2943.10000	0.95157
2941.04620	0.95568
2938.99239	0.95756
2936.93859	0.95740
2934.88479	0.95556
2932.83098	0.95236
2930.77718	0.94794
2928.72338	0.94288
2926.66957	0.93799
2924.61577	0.93334
2922.56197	0.92894
2920.50816	0.92510
2918.45436	0.92273
2916.40056	0.92281
2914.34675	0.92526
2912.29295	0.92904
2910.23915	0.93281
2908.18534	0.93602
2906.13154	0.93901
2904.07774	0.94206
2902.02393	0.94520
2899.97013	0.94844
2897.91633	0.95164
2895.86252	0.95440
2893.80872	0.95617
2891.75492	0.95706
2889.70112	0.95759
2887.64731	0.95791
2885.59351	0.95792
2883.53971	0.95725
2881.48590	0.95592
2879.43210	0.95473
2877.37830	0.95425
2875.32449	0.95433
2873.27069	0.95436
2871.21689	0.95393
2869.16308	0.95341
2867.10928	0.95343
2865.05548	0.95465
2863.00167	0.95777
2860.94787	0.96221
2858.89407	0.96611
2856.84026	0.96841
2854.78646	0.96934
2852.73266	0.96932
2850.67885	0.96861
2848.62505	0.96743
2846.57125	0.96571
2844.51744	0.96308
2842.46364	0.95977
2840.40984	0.95669
2838.35603	0.95468
2836.30223	0.95501
2834.24843	0.95852
2832.19463	0.96379
2830.14082	0.96858
2828.08702	0.97241
2826.03322	0.97551
2823.97941	0.97758
2821.92561	0.97887
2819.87181	0.97966
2817.81800	0.97992
2815.76420	0.98005
2813.71040	0.98051
2811.65659	0.98130
2809.60279	0.98206
2807.54899	0.98251
2805.49518	0.98279
2803.44138	0.98308
2801.38758	0.98344
2799.33377	0.98387
2797.27997	0.98413
2795.22617	0.98417
2793.17236	0.98424
2791.11856	0.98448
2789.06476	0.98478
2787.01095	0.98511
2784.95715	0.98556
2782.90335	0.98602
2780.84955	0.98618
2778.79574	0.98605
2776.74194	0.98590
2774.68814	0.98584
2772.63433	0.98601
2770.58053	0.98646
2768.52673	0.98690
2766.47292	0.98711
2764.41912	0.98693
2762.36532	0.98654
2760.31151	0.98638
2758.25771	0.98655
2756.20391	0.98695
2754.15010	0.98735
2752.09630	0.98753
2750.04250	0.98750
2747.98869	0.98737
2745.93489	0.98725
2743.88109	0.98717
2741.82728	0.98704
2739.77348	0.98694
2737.71968	0.98705
2735.66587	0.98719
2733.61207	0.98721
2731.55827	0.98697
2729.50446	0.98649
2727.45066	0.98618
2725.39686	0.98605
2723.34306	0.98594
2721.28925	0.98602
2719.23545	0.98629
2717.18165	0.98652
2715.12784	0.98671
2713.07404	0.98698
2711.02024	0.98711
2708.96643	0.98708
2706.91263	0.98737
2704.85883	0.98775
2702.80502	0.98768
2700.75122	0.98764
2698.69742	0.98789
2696.64361	0.98795
2694.58981	0.98783
2692.53601	0.98795
2690.48220	0.98817
2688.42840	0.98809
2686.37460	0.98784
2684.32079	0.98769
2682.26699	0.98773
2680.21319	0.98802
2678.15938	0.98837
2676.10558	0.98838
2674.05178	0.98811
2671.99797	0.98817
2669.94417	0.98863
2667.89037	0.98869
2665.83657	0.98819
2663.78276	0.98797
2661.72896	0.98817
2659.67516	0.98834
2657.62135	0.98831
2655.56755	0.98805
2653.51375	0.98784
2651.45994	0.98785
2649.40614	0.98802
2647.35234	0.98832
2645.29853	0.98835
2643.24473	0.98797
2641.19093	0.98794
2639.13712	0.98859
2637.08332	0.98894
2635.02952	0.98852
2632.97571	0.98823
2630.92191	0.98843
2628.86811	0.98874
2626.81430	0.98882
2624.76050	0.98848
2622.70670	0.98840
2620.65289	0.98890
2618.59909	0.98913
2616.54529	0.98889
2614.49149	0.98889
2612.43768	0.98911
2610.38388	0.98900
2608.33008	0.98870
2606.27627	0.98861
2604.22247	0.98861
2602.16867	0.98881
2600.11486	0.98908
2598.06106	0.98884
2596.00726	0.98847
2593.95345	0.98844
2591.89965	0.98868
2589.84585	0.98914
2587.79204	0.98932
2585.73824	0.98914
2583.68444	0.98934
2581.63063	0.98976
2579.57683	0.98982
2577.52303	0.98967
2575.46922	0.98980
2573.41542	0.99038
2571.36162	0.99108
2569.30781	0.99137
2567.25401	0.99127
2565.20021	0.99131
2563.14640	0.99133
2561.09260	0.99074
2559.03880	0.98976
2556.98500	0.98912
2554.93119	0.98902
2552.87739	0.98931
2550.82359	0.98988
2548.76978	0.99036
2546.71598	0.99044
2544.66218	0.99022
2542.60837	0.98993
2540.55457	0.98993
2538.50077	0.99016
2536.44696	0.99060
2534.39316	0.99108
2532.33936	0.99091
2530.28555	0.99069
2528.23175	0.99105
2526.17795	0.99090
2524.12414	0.99029
2522.07034	0.99053
2520.01654	0.99088
2517.96273	0.99050
2515.90893	0.99051
2513.85513	0.99113
2511.80132	0.99128
2509.74752	0.99069
2507.69372	0.99007
2505.63992	0.98976
2503.58611	0.98949
2501.53231	0.98962
2499.47851	0.98998
2497.42470	0.98974
2495.37090	0.98977
2493.31710	0.99028
2491.26329	0.99039
2489.20949	0.99072
2487.15569	0.99156
2485.10188	0.99163
2483.04808	0.99107
2480.99428	0.99103
2478.94047	0.99102
2476.88667	0.99103
2474.83287	0.99139
2472.77906	0.99139
2470.72526	0.99113
2468.67146	0.99115
2466.61765	0.99117
2464.56385	0.99081
2462.51005	0.99053
2460.45624	0.99075
2458.40244	0.99095
2456.34864	0.99079
2454.29483	0.99060
2452.24103	0.99071
2450.18723	0.99123
2448.13343	0.99156
2446.07962	0.99139
2444.02582	0.99103
2441.97202	0.99059
2439.91821	0.99040
2437.86441	0.99038
2435.81061	0.99036
2433.75680	0.99043
2431.70300	0.99025
2429.64920	0.98979
2427.59539	0.98960
2425.54159	0.99014
2423.48779	0.99083
2421.43398	0.99098
2419.38018	0.99090
2417.32638	0.99085
2415.27257	0.99078
2413.21877	0.99104
2411.16497	0.99135
2409.11116	0.99130
2407.05736	0.99134
2405.00356	0.99135
2402.94975	0.99082
2400.89595	0.99048
2398.84215	0.99087
2396.78834	0.99137
2394.73454	0.99154
2392.68074	0.99139
2390.62694	0.99111
2388.57313	0.99074
2386.51933	0.99043
2384.46553	0.99053
2382.41172	0.99101
2380.35792	0.99108
2378.30412	0.99066
2376.25031	0.99053
2374.19651	0.99041
2372.14271	0.99001
2370.08890	0.98935
2368.03510	0.98863
2365.98130	0.98884
2363.92749	0.98949
2361.87369	0.98891
2359.81989	0.98806
2357.76608	0.98814
2355.71228	0.98855
2353.65848	0.98939
2351.60467	0.99006
2349.55087	0.99019
2347.49707	0.99020
2345.44326	0.99004
2343.38946	0.99009
2341.33566	0.99027
2339.28186	0.98965
2337.22805	0.98912
2335.17425	0.98957
2333.12045	0.99012
2331.06664	0.99014
2329.01284	0.98971
2326.95904	0.98913
2324.90523	0.98886
2322.85143	0.98950
2320.79763	0.99061
2318.74382	0.99088
2316.69002	0.99034
2314.63622	0.98986
2312.58241	0.98941
2310.52861	0.98861
2308.47481	0.98822
2306.42100	0.98888
2304.36720	0.98988
2302.31340	0.99033
2300.25959	0.99018
2298.20579	0.98984
2296.15199	0.98968
2294.09818	0.98988
2292.04438	0.98971
2289.99058	0.98919
2287.93677	0.98963
2285.88297	0.99051
2283.82917	0.99027
2281.77537	0.98957
2279.72156	0.98968
2277.66776	0.98995
2275.61396	0.98978
2273.56015	0.98983
2271.50635	0.98994
2269.45255	0.98929
2267.39874	0.98852
2265.34494	0.98877
2263.29114	0.98946
2261.23733	0.98956
2259.18353	0.98974
2257.12973	0.99050
2255.07592	0.99087
2253.02212	0.99048
2250.96832	0.98980
2248.91451	0.98941
2246.86071	0.98915
2244.80691	0.98872
2242.75310	0.98919
2240.69930	0.99094
2238.64550	0.99181
2236.59169	0.99080
2234.53789	0.98969
2232.48409	0.98871
2230.43029	0.98757
2228.37648	0.98801
2226.32268	0.99006
2224.26888	0.99113
2222.21507	0.99041
2220.16127	0.98963
2218.10747	0.98972
2216.05366	0.99021
2213.99986	0.99052
2211.94606	0.99078
2209.89225	0.99075
2207.83845	0.99008
2205.78465	0.98905
2203.73084	0.98838
2201.67704	0.98798
2199.62324	0.98710
2197.56943	0.98803
2195.51563	0.99100
2193.46183	0.99232
2191.40802	0.99314
2189.35422	0.99451
2187.30042	0.99405
2185.24661	0.99220
2183.19281	0.99143
2181.13901	0.99132
2179.08520	0.98881
2177.03140	0.98548
2174.97760	0.98528
2172.92380	0.98742
2170.86999	0.99014
2168.81619	0.99266
2166.76239	0.99379
2164.70858	0.99290
2162.65478	0.99129
2160.60098	0.99181
2158.54717	0.99366
2156.49337	0.99278
2154.43957	0.99049
2152.38576	0.98965
2150.33196	0.98934
2148.27816	0.98969
2146.22435	0.99036
2144.17055	0.98960
2142.11675	0.98929
2140.06294	0.99072
2138.00914	0.99211
2135.95534	0.99311
2133.90153	0.99396
2131.84773	0.99362
2129.79393	0.99274
2127.74012	0.99237
2125.68632	0.99217
2123.63252	0.99226
2121.57871	0.99224
2119.52491	0.99206
2117.47111	0.99235
2115.41731	0.99169
2113.36350	0.98964
2111.30970	0.98860
2109.25590	0.98936
2107.20209	0.99044
2105.14829	0.99064
2103.09449	0.99041
2101.04068	0.99033
2098.98688	0.99007
2096.93308	0.99021
2094.87927	0.99072
2092.82547	0.99046
2090.77167	0.98992
2088.71786	0.99021
2086.66406	0.99085
2084.61026	0.99131
2082.55645	0.99182
2080.50265	0.99217
2078.44885	0.99211
2076.39504	0.99172
2074.34124	0.99211
2072.28744	0.99309
2070.23363	0.99308
2068.17983	0.99219
2066.12603	0.99124
2064.07223	0.99040
2062.01842	0.98984
2059.96462	0.98983
2057.91082	0.98976
2055.85701	0.98998
2053.80321	0.99121
2051.74941	0.99217
2049.69560	0.99257
2047.64180	0.99278
2045.58800	0.99190
2043.53419	0.99138
2041.48039	0.99254
2039.42659	0.99273
2037.37278	0.99182
2035.31898	0.99226
2033.26518	0.99219
2031.21137	0.98945
2029.15757	0.98699
2027.10377	0.98859
2025.04996	0.99178
2022.99616	0.99170
2020.94236	0.98939
2018.88855	0.98954
2016.83475	0.99280
2014.78095	0.99392
2012.72714	0.99124
2010.67334	0.98877
2008.61954	0.98935
2006.56574	0.99236
2004.51193	0.99411
2002.45813	0.99325
2000.40433	0.99197
1998.35052	0.99209
1996.29672	0.99299
1994.24292	0.99311
1992.18911	0.99257
1990.13531	0.99153
1988.08151	0.99031
1986.02770	0.98996
1983.97390	0.99022
1981.92010	0.98978
1979.86629	0.98969
1977.81249	0.99234
1975.75869	0.99638
1973.70488	0.99760
1971.65108	0.99625
1969.59728	0.99587
1967.54347	0.99609
1965.48967	0.99498
1963.43587	0.99336
1961.38206	0.99279
1959.32826	0.99328
1957.27446	0.99370
1955.22066	0.99344
1953.16685	0.99254
1951.11305	0.99131
1949.05925	0.99071
1947.00544	0.99133
1944.95164	0.99199
1942.89784	0.99228
1940.84403	0.99270
1938.79023	0.99260
1936.73643	0.99259
1934.68262	0.99356
1932.62882	0.99395
1930.57502	0.99321
1928.52121	0.99287
1926.46741	0.99291
1924.41361	0.99267
1922.35980	0.99210
1920.30600	0.99093
1918.25220	0.98984
1916.19839	0.99067
1914.14459	0.99228
1912.09079	0.99221
1910.03698	0.99136
1907.98318	0.99116
1905.92938	0.99080
1903.87557	0.99051
1901.82177	0.99115
1899.76797	0.99185
1897.71417	0.99202
1895.66036	0.99222
1893.60656	0.99218
1891.55276	0.99170
1889.49895	0.99160
1887.44515	0.99146
1885.39135	0.99074
1883.33754	0.99054
1881.28374	0.99131
1879.22994	0.99193
1877.17613	0.99178
1875.12233	0.99131
1873.06853	0.99097
1871.01472	0.99109
1868.96092	0.99141
1866.90712	0.99131
1864.85331	0.99111
1862.79951	0.99098
1860.74571	0.99114
1858.69190	0.99160
1856.63810	0.99177
1854.58430	0.99184
1852.53049	0.99200
1850.47669	0.99169
1848.42289	0.99103
1846.36908	0.99080
1844.31528	0.99120
1842.26148	0.99150
1840.20768	0.99151
1838.15387	0.99191
1836.10007	0.99255
1834.04627	0.99228
1831.99246	0.99118
1829.93866	0.99054
1827.88486	0.99068
1825.83105	0.99066
1823.77725	0.99033
1821.72345	0.99049
1819.66964	0.99137
1817.61584	0.99226
1815.56204	0.99223
1813.50823	0.99137
1811.45443	0.99060
1809.40063	0.99036
1807.34682	0.99046
1805.29302	0.99057
1803.23922	0.99052
1801.18541	0.99056
1799.13161	0.99054
1797.07781	0.99009
1795.02400	0.98979
1792.97020	0.99003
1790.91640	0.99037
1788.86260	0.99027
1786.80879	0.98987
1784.75499	0.98959
1782.70119	0.98966
1780.64738	0.98976
1778.59358	0.98957
1776.53978	0.98926
1774.48597	0.98898
1772.43217	0.98876
1770.37837	0.98895
1768.32456	0.98898
1766.27076	0.98868
1764.21696	0.98894
1762.16315	0.98960
1760.10935	0.98962
1758.05555	0.98887
1756.00174	0.98804
1753.94794	0.98786
1751.89414	0.98806
1749.84033	0.98776
1747.78653	0.98710
1745.73273	0.98677
1743.67892	0.98649
1741.62512	0.98593
1739.57132	0.98569
1737.51751	0.98625
1735.46371	0.98699
1733.40991	0.98676
1731.35611	0.98558
1729.30230	0.98500
1727.24850	0.98497
1725.19470	0.98486
1723.14089	0.98445
1721.08709	0.98386
1719.03329	0.98337
1716.97948	0.98306
1714.92568	0.98261
1712.87188	0.98239
1710.81807	0.98264
1708.76427	0.98288
1706.71047	0.98283
1704.65666	0.98268
1702.60286	0.98246
1700.54906	0.98184
1698.49525	0.98115
1696.44145	0.98095
1694.38765	0.98080
1692.33384	0.98054
1690.28004	0.98011
1688.22624	0.97976
1686.17243	0.97982
1684.11863	0.98013
1682.06483	0.97990
1680.01103	0.97915
1677.95722	0.97851
1675.90342	0.97825
1673.84962	0.97817
1671.79581	0.97792
1669.74201	0.97746
1667.68821	0.97714
1665.63440	0.97687
1663.58060	0.97628
1661.52680	0.97551
1659.47299	0.97487
1657.41919	0.97436
1655.36539	0.97405
1653.31158	0.97366
1651.25778	0.97319
1649.20398	0.97329
1647.15017	0.97362
1645.09637	0.97323
1643.04257	0.97255
1640.98876	0.97238
1638.93496	0.97258
1636.88116	0.97280
1634.82735	0.97283
1632.77355	0.97277
1630.71975	0.97288
1628.66594	0.97298
1626.61214	0.97267
1624.55834	0.97195
1622.50454	0.97138
1620.45073	0.97155
1618.39693	0.97220
1616.34313	0.97316
1614.28932	0.97417
1612.23552	0.97492
1610.18172	0.97532
1608.12791	0.97550
1606.07411	0.97588
1604.02031	0.97616
1601.96650	0.97615
1599.91270	0.97630
1597.85890	0.97680
1595.80509	0.97744
1593.75129	0.97785
1591.69749	0.97791
1589.64368	0.97799
1587.58988	0.97802
1585.53608	0.97787
1583.48227	0.97808
1581.42847	0.97855
1579.37467	0.97873
1577.32086	0.97869
1575.26706	0.97882
1573.21326	0.97903
1571.15945	0.97910
1569.10565	0.97928
1567.05185	0.97970
1564.99805	0.97984
1562.94424	0.97966
1560.89044	0.97945
1558.83664	0.97960
1556.78283	0.97992
1554.72903	0.97991
1552.67523	0.97985
1550.62142	0.97980
1548.56762	0.97978
1546.51382	0.97996
1544.46001	0.98036
1542.40621	0.98074
1540.35241	0.98099
1538.29860	0.98128
1536.24480	0.98159
1534.19100	0.98192
1532.13719	0.98216
1530.08339	0.98210
1528.02959	0.98201
1525.97578	0.98230
1523.92198	0.98282
1521.86818	0.98322
1519.81437	0.98323
1517.76057	0.98304
1515.70677	0.98333
1513.65297	0.98399
1511.59916	0.98454
1509.54536	0.98488
1507.49156	0.98479
1505.43775	0.98425
1503.38395	0.98407
1501.33015	0.98411
1499.27634	0.98422
1497.22254	0.98442
1495.16874	0.98463
1493.11493	0.98471
1491.06113	0.98478
1489.00733	0.98481
1486.95352	0.98422
1484.89972	0.98334
1482.84592	0.98282
1480.79211	0.98230
1478.73831	0.98146
1476.68451	0.98060
1474.63070	0.97928
1472.57690	0.97601
1470.52310	0.97158
1468.46929	0.96760
1466.41549	0.96294
1464.36169	0.95728
1462.30788	0.95316
1460.25408	0.95107
1458.20028	0.94943
1456.14648	0.94765
1454.09267	0.94708
1452.03887	0.94762
1449.98507	0.94940
1447.93126	0.95311
1445.87746	0.95788
1443.82366	0.96208
1441.76985	0.96536
1439.71605	0.96730
1437.66225	0.96794
1435.60844	0.96831
1433.55464	0.96963
1431.50084	0.97168
1429.44703	0.97369
1427.39323	0.97496
1425.33943	0.97571
1423.28562	0.97641
1421.23182	0.97696
1419.17802	0.97723
1417.12421	0.97741
1415.07041	0.97763
1413.01661	0.97786
1410.96280	0.97800
1408.90900	0.97805
1406.85520	0.97836
1404.80139	0.97873
1402.74759	0.97861
1400.69379	0.97848
1398.63999	0.97866
1396.58618	0.97860
1394.53238	0.97828
1392.47858	0.97821
1390.42477	0.97826
1388.37097	0.97759
1386.31717	0.97522
1384.26336	0.97097
1382.20956	0.96375
1380.15576	0.95196
1378.10195	0.93801
1376.04815	0.92932
1373.99435	0.93242
1371.94054	0.94371
1369.88674	0.95452
1367.83294	0.96208
1365.77913	0.96600
1363.72533	0.96731
1361.67153	0.96703
1359.61772	0.96654
1357.56392	0.96716
1355.51012	0.96898
1353.45631	0.97118
1351.40251	0.97303
1349.34871	0.97449
1347.29491	0.97563
1345.24110	0.97651
1343.18730	0.97718
1341.13350	0.97753
1339.07969	0.97758
1337.02589	0.97768
1334.97209	0.97777
1332.91828	0.97768
1330.86448	0.97752
1328.81068	0.97745
1326.75687	0.97770
1324.70307	0.97799
1322.64927	0.97789
1320.59546	0.97789
1318.54166	0.97842
1316.48786	0.97904
1314.43405	0.97916
1312.38025	0.97897
1310.32645	0.97910
1308.27264	0.97910
1306.21884	0.97828
1304.16504	0.97734
1302.11123	0.97706
1300.05743	0.97715
1298.00363	0.97731
1295.94982	0.97772
1293.89602	0.97820
1291.84222	0.97851
1289.78842	0.97878
1287.73461	0.97908
1285.68081	0.97914
1283.62701	0.97883
1281.57320	0.97865
1279.51940	0.97888
1277.46560	0.97883
1275.41179	0.97832
1273.35799	0.97789
1271.30419	0.97785
1269.25038	0.97819
1267.19658	0.97843
1265.14278	0.97819
1263.08897	0.97770
1261.03517	0.97726
1258.98137	0.97680
1256.92756	0.97612
1254.87376	0.97548
1252.81996	0.97532
1250.76615	0.97551
1248.71235	0.97580
1246.65855	0.97592
1244.60474	0.97568
1242.55094	0.97550
1240.49714	0.97555
1238.44334	0.97534
1236.38953	0.97486
1234.33573	0.97457
1232.28193	0.97447
1230.22812	0.97438
1228.17432	0.97407
1226.12052	0.97353
1224.06671	0.97305
1222.01291	0.97252
1219.95911	0.97165
1217.90530	0.97090
1215.85150	0.97074
1213.79770	0.97077
1211.74389	0.97072
1209.69009	0.97033
1207.63629	0.96954
1205.58248	0.96898
1203.52868	0.96877
1201.47488	0.96841
1199.42107	0.96777
1197.36727	0.96696
1195.31347	0.96589
1193.25966	0.96473
1191.20586	0.96379
1189.15206	0.96267
1187.09825	0.96114
1185.04445	0.95953
1182.99065	0.95795
1180.93685	0.95645
1178.88304	0.95492
1176.82924	0.95291
1174.77544	0.95018
1172.72163	0.94700
1170.66783	0.94374
1168.61403	0.94070
1166.56022	0.93841
1164.50642	0.93715
1162.45262	0.93644
1160.39881	0.93578
1158.34501	0.93502
1156.29121	0.93411
1154.23740	0.93304
1152.18360	0.93197
1150.12980	0.93105
1148.07599	0.93044
1146.02219	0.93016
1143.96839	0.92989
1141.91458	0.92938
1139.86078	0.92870
1137.80698	0.92806
1135.75317	0.92742
1133.69937	0.92642
1131.64557	0.92486
1129.59176	0.92294
1127.53796	0.92104
1125.48416	0.91915
1123.43036	0.91711
1121.37655	0.91499
1119.32275	0.91279
1117.26895	0.91058
1115.21514	0.90837
1113.16134	0.90603
1111.10754	0.90398
1109.05373	0.90253
1106.99993	0.90136
1104.94613	0.90030
1102.89232	0.89938
1100.83852	0.89855
1098.78472	0.89754
1096.73091	0.89647
1094.67711	0.89612
1092.62331	0.89622
1090.56950	0.89603
1088.51570	0.89579
1086.46190	0.89548
1084.40809	0.89497
1082.35429	0.89489
1080.30049	0.89510
1078.24668	0.89473
1076.19288	0.89360
1074.13908	0.89238
1072.08528	0.89168
1070.03147	0.89117
1067.97767	0.89035
1065.92387	0.88873
1063.87006	0.88639
1061.81626	0.88396
1059.76246	0.88178
1057.70865	0.87975
1055.65485	0.87724
1053.60105	0.87409
1051.54724	0.87070
1049.49344	0.86717
1047.43964	0.86369
1045.38583	0.86026
1043.33203	0.85680
1041.27823	0.85373
1039.22442	0.85111
1037.17062	0.84848
1035.11682	0.84612
1033.06301	0.84440
1031.00921	0.84322
1028.95541	0.84276
1026.90160	0.84281
1024.84780	0.84304
1022.79400	0.84348
1020.74019	0.84377
1018.68639	0.84361
1016.63259	0.84367
1014.57879	0.84393
1012.52498	0.84355
1010.47118	0.84275
1008.41738	0.84202
1006.36357	0.84150
1004.30977	0.84139
1002.25597	0.84162
1000.20216	0.84176
998.14836	0.84234
996.09456	0.84490
994.04075	0.84949
991.98695	0.85500
989.93315	0.86042
987.87934	0.86496
985.82554	0.86896
983.77174	0.87301
981.71793	0.87662
979.66413	0.87916
977.61033	0.88063
975.55652	0.88139
973.50272	0.88265
971.44892	0.88601
969.39511	0.89147
967.34131	0.89715
965.28751	0.90170
963.23371	0.90539
961.17990	0.90854
959.12610	0.91105
957.07230	0.91318
955.01849	0.91504
952.96469	0.91668
950.91089	0.91829
948.85708	0.91967
946.80328	0.92048
944.74948	0.92080
942.69567	0.92121
940.64187	0.92199
938.58807	0.92283
936.53426	0.92361
934.48046	0.92439
932.42666	0.92513
930.37285	0.92563
928.31905	0.92599
926.26525	0.92627
924.21144	0.92614
922.15764	0.92556
920.10384	0.92469
918.05003	0.92375
915.99623	0.92270
913.94243	0.92170
911.88862	0.92171
909.83482	0.92307
907.78102	0.92540
905.72722	0.92798
903.67341	0.92956
901.61961	0.93018
899.56581	0.93097
897.51200	0.93251
895.45820	0.93501
893.40440	0.93788
891.35059	0.94009
889.29679	0.94142
887.24299	0.94218
885.18918	0.94277
883.13538	0.94352
881.08158	0.94465
879.02777	0.94605
876.97397	0.94688
874.92017	0.94709
872.86636	0.94750
870.81256	0.94847
868.75876	0.94984
866.70495	0.95076
864.65115	0.95087
862.59735	0.95102
860.54354	0.95175
858.48974	0.95268
856.43594	0.95336
854.38213	0.95386
852.32833	0.95425
850.27453	0.95420
848.22073	0.95359
846.16692	0.95233
844.11312	0.94947
842.05932	0.94605
840.00551	0.94586
837.95171	0.94891
835.89791	0.95177
833.84410	0.95309
831.79030	0.95355
829.73650	0.95397
827.68269	0.95427
825.62889	0.95448
823.57509	0.95487
821.52128	0.95479
819.46748	0.95416
817.41368	0.95399
815.35987	0.95390
813.30607	0.95258
811.25227	0.95062
809.19846	0.94915
807.14466	0.94824
805.09086	0.94781
803.03705	0.94746
800.98325	0.94677
798.92945	0.94577
796.87565	0.94511
794.82184	0.94519
792.76804	0.94543
790.71424	0.94554
788.66043	0.94560
786.60663	0.94580
784.55283	0.94639
782.49902	0.94673
780.44522	0.94639
778.39142	0.94637
776.33761	0.94730
774.28381	0.94819
772.23001	0.94821
770.17620	0.94791
768.12240	0.94792
766.06860	0.94768
764.01479	0.94685
761.96099	0.94606
759.90719	0.94543
757.85338	0.94493
755.79958	0.94496
753.74578	0.94516
751.69197	0.94514
749.63817	0.94508
747.58437	0.94458
745.53056	0.94408
743.47676	0.94422
741.42296	0.94460
739.36916	0.94485
737.31535	0.94489
735.26155	0.94508
733.20775	0.94561
731.15394	0.94617
729.10014	0.94640
727.04634	0.94646
724.99253	0.94672
722.93873	0.94687
720.88493	0.94668
718.83112	0.94669
716.77732	0.94645
714.72352	0.94559
712.66971	0.94478
710.61591	0.94397
708.56211	0.94291
706.50830	0.94169
704.45450	0.94016
702.40070	0.93816
700.34689	0.93643
698.29309	0.93560
696.23929	0.93506
694.18548	0.93451
692.13168	0.93394
690.07788	0.93324
688.02408	0.93275
685.97027	0.93199
683.91647	0.93127
681.86267	0.93187
679.80886	0.93266
677.75506	0.93249
675.70126	0.93206
673.64745	0.93171
671.59365	0.93139
669.53985	0.93078
667.48604	0.93070
665.43224	0.93223
663.37844	0.93361
661.32463	0.93417
659.27083	0.93417
657.21703	0.93372
655.16322	0.93321
653.10942	0.93322
651.05562	0.93332
649.00181	0.93263
646.94801	0.93174
644.89421	0.93159
642.84040	0.93198
640.78660	0.93295
638.73280	0.93432
636.67899	0.93462
634.62519	0.93349
632.57139	0.93243
630.51759	0.93213
628.46378	0.93199
626.40998	0.93115
624.35618	0.93017
622.30237	0.92995
620.24857	0.92919
618.19477	0.92696
616.14096	0.92480
614.08716	0.92426
612.03336	0.92443
609.97955	0.92357
607.92575	0.92141
605.87195	0.91947
603.81814	0.91856
601.76434	0.91842
599.71054	0.91888
597.65673	0.91890
595.60293	0.91784
593.54913	0.91643
591.49532	0.91553
589.44152	0.91486
587.38772	0.91327
585.33391	0.91110
583.28011	0.91026
581.22631	0.91089
579.17250	0.91139
577.11870	0.91122
575.06490	0.91010
573.01110	0.90775
570.95729	0.90471
568.90349	0.90228
566.84969	0.90128
564.79588	0.90050
562.74208	0.90006
560.68828	0.90030
558.63447	0.89997
556.58067	0.89980
554.52687	0.89901
552.47306	0.89608
550.41926	0.89277
548.36546	0.88930
546.31165	0.88561
544.25785	0.88331
542.20405	0.88205
540.15024	0.87983
538.09644	0.87642
536.04264	0.87362
533.98883	0.87210
531.93503	0.87139
529.88123	0.87113
527.82742	0.87128
525.77362	0.87305
523.71982	0.87559
521.66602	0.87690
519.61221	0.87862
517.55841	0.88154
515.50461	0.88321
513.45080	0.88317
511.39700	0.88413
509.34320	0.88660
507.28939	0.88783
505.23559	0.88847
503.18179	0.89082
501.12798	0.89256
499.07418	0.89109
497.02038	0.88978
494.96657	0.89001
492.91277	0.88879
490.85897	0.88731
488.80516	0.88739
486.75136	0.88583
484.69756	0.88236
482.64375	0.87965
480.58995	0.87612
478.53615	0.86988
476.48234	0.86163
474.42854	0.85395
472.37474	0.84744
470.32093	0.84025
468.26713	0.83521
466.21333	0.83539
464.15953	0.83811
462.10572	0.84022
460.05192	0.84240
457.99812	0.84396
455.94431	0.84448
453.89051	0.84718
451.83671	0.85158
449.78290	0.85610
447.72910	0.86152
445.67530	0.86654
443.62149	0.86695
441.56769	0.86136
439.51389	0.85620
437.46008	0.85596
435.40628	0.85659
433.35248	0.85493
431.29867	0.85188
429.24487	0.84958
427.19107	0.85064
425.13726	0.85205
423.08346	0.85261
421.02966	0.85762
418.97585	0.86175
416.92205	0.85959
414.86825	0.86125
412.81445	0.86379
410.76064	0.86458
408.70684	0.86829
406.65304	0.87345
404.59923	0.87374
402.54543	0.87146
400.49163	0.87334
398.43782	0.87724
