3996.71440	0.63654
3994.66059	0.63640
3992.60678	0.63634
3990.55297	0.63642
3988.49916	0.63649
3986.44535	0.63648
3984.39154	0.63639
3982.33773	0.63632
3980.28391	0.63644
3978.23010	0.63666
3976.17629	0.63664
3974.12248	0.63659
3972.06867	0.63683
3970.01486	0.63712
3967.96105	0.63711
3965.90724	0.63681
3963.85343	0.63655
3961.79962	0.63659
3959.74581	0.63672
3957.69200	0.63671
3955.63819	0.63670
3953.58438	0.63668
3951.53057	0.63638
3949.47676	0.63583
3947.42295	0.63564
3945.36914	0.63594
3943.31533	0.63624
3941.26152	0.63642
3939.20771	0.63657
3937.15390	0.63652
3935.10009	0.63599
3933.04628	0.63530
3930.99247	0.63528
3928.93866	0.63569
3926.88485	0.63576
3924.83104	0.63571
3922.77723	0.63573
3920.72342	0.63553
3918.66961	0.63523
3916.61580	0.63519
3914.56199	0.63543
3912.50818	0.63569
3910.45437	0.63573
3908.40056	0.63538
3906.34675	0.63476
3904.29294	0.63437
3902.23913	0.63458
3900.18532	0.63494
3898.13151	0.63516
3896.07770	0.63536
3894.02389	0.63531
3891.97008	0.63502
3889.91627	0.63501
3887.86246	0.63516
3885.80865	0.63519
3883.75484	0.63495
3881.70103	0.63455
3879.64722	0.63476
3877.59341	0.63514
3875.53960	0.63490
3873.48579	0.63455
3871.43198	0.63442
3869.37817	0.63450
3867.32436	0.63444
3865.27055	0.63407
3863.21674	0.63409
3861.16293	0.63480
3859.10912	0.63527
3857.05531	0.63468
3855.00150	0.63321
3852.94769	0.63237
3850.89388	0.63339
3848.84007	0.63456
3846.78626	0.63497
3844.73245	0.63480
3842.67864	0.63454
3840.62483	0.63442
3838.57102	0.63450
3836.51721	0.63454
3834.46340	0.63433
3832.40959	0.63422
3830.35578	0.63445
3828.30197	0.63468
3826.24816	0.63462
3824.19435	0.63433
3822.14054	0.63403
3820.08673	0.63419
3818.03292	0.63439
3815.97911	0.63461
3813.92530	0.63513
3811.87149	0.63535
3809.81768	0.63508
3807.76387	0.63454
3805.71006	0.63436
3803.65625	0.63425
3801.60244	0.63411
3799.54863	0.63421
3797.49482	0.63419
3795.44101	0.63438
3793.38720	0.63480
3791.33339	0.63498
3789.27958	0.63485
3787.22577	0.63463
3785.17196	0.63456
3783.11815	0.63470
3781.06434	0.63468
3779.01053	0.63468
3776.95672	0.63488
3774.90291	0.63473
3772.84910	0.63415
3770.79529	0.63358
3768.74148	0.63319
3766.68767	0.63284
3764.63386	0.63275
3762.58005	0.63271
3760.52624	0.63241
3758.47243	0.63223
3756.41862	0.63224
3754.36481	0.63169
3752.31100	0.63045
3750.25719	0.62987
3748.20338	0.63008
3746.14957	0.62985
3744.09576	0.62946
3742.04195	0.62914
3739.98814	0.62833
3737.93433	0.62683
3735.88052	0.62555
3733.82671	0.62650
3731.77290	0.62807
3729.71909	0.62813
3727.66528	0.62762
3725.61147	0.62781
3723.55766	0.62854
3721.50385	0.62919
3719.45004	0.62971
3717.39623	0.63005
3715.34242	0.63017
3713.28861	0.63009
3711.23480	0.63012
3709.18099	0.63051
3707.12718	0.63075
3705.07337	0.63048
3703.01956	0.63001
3700.96575	0.62989
3698.91194	0.62978
3696.85813	0.62931
3694.80432	0.62883
3692.75051	0.62840
3690.69670	0.62819
3688.64289	0.62883
3686.58907	0.62970
3684.53526	0.62998
3682.48145	0.62991
3680.42764	0.62961
3678.37383	0.62890
3676.32002	0.62860
3674.26621	0.62962
3672.21240	0.62992
3670.15859	0.62967
3668.10478	0.63014
3666.05097	0.63057
3663.99716	0.63084
3661.94335	0.63096
3659.88954	0.63058
3657.83573	0.62998
3655.78192	0.62972
3653.72811	0.62951
3651.67430	0.62882
3649.62049	0.62823
3647.56668	0.62888
3645.51287	0.63001
3643.45906	0.63067
3641.40525	0.63088
3639.35144	0.63076
3637.29763	0.63070
3635.24382	0.63071
3633.19001	0.63031
3631.13620	0.62967
3629.08239	0.62979
3627.02858	0.63054
3624.97477	0.63061
3622.92096	0.63023
3620.86715	0.62973
3618.81334	0.62938
3616.75953	0.62940
3614.70572	0.62968
3612.65191	0.63027
3610.59810	0.63055
3608.54429	0.63060
3606.49048	0.63113
3604.43667	0.63136
3602.38286	0.63079
3600.32905	0.63034
3598.27524	0.63038
3596.22143	0.63026
3594.16762	0.63012
3592.11381	0.63027
3590.06000	0.63030
3588.00619	0.63025
3585.95238	0.63055
3583.89857	0.63085
3581.84476	0.63089
3579.79095	0.63080
3577.73714	0.63079
3575.68333	0.63094
3573.62952	0.63089
3571.57571	0.63043
3569.52190	0.62968
3567.46809	0.62906
3565.41428	0.62914
3563.36047	0.62967
3561.30666	0.63005
3559.25285	0.63016
3557.19904	0.63015
3555.14523	0.63008
3553.09142	0.62994
3551.03761	0.62986
3548.98380	0.62974
3546.92999	0.62923
3544.87618	0.62884
3542.82237	0.62910
3540.76856	0.62933
3538.71475	0.62921
3536.66094	0.62920
3534.60713	0.62940
3532.55332	0.62943
3530.49951	0.62916
3528.44570	0.62889
3526.39189	0.62893
3524.33808	0.62916
3522.28427	0.62933
3520.23046	0.62936
3518.17665	0.62945
3516.12284	0.62959
3514.06903	0.62926
3512.01522	0.62857
3509.96141	0.62831
3507.90760	0.62855
3505.85379	0.62868
3503.79998	0.62849
3501.74617	0.62833
3499.69236	0.62835
3497.63855	0.62828
3495.58474	0.62808
3493.53093	0.62783
3491.47712	0.62760
3489.42331	0.62747
3487.36950	0.62739
3485.31569	0.62727
3483.26188	0.62725
3481.20807	0.62748
3479.15426	0.62780
3477.10045	0.62785
3475.04664	0.62760
3472.99283	0.62721
3470.93902	0.62676
3468.88521	0.62646
3466.83140	0.62647
3464.77759	0.62666
3462.72378	0.62669
3460.66997	0.62655
3458.61616	0.62643
3456.56235	0.62647
3454.50854	0.62657
3452.45473	0.62638
3450.40092	0.62609
3448.34711	0.62592
3446.29330	0.62562
3444.23949	0.62540
3442.18568	0.62545
3440.13187	0.62556
3438.07806	0.62548
3436.02425	0.62540
3433.97044	0.62555
3431.91663	0.62563
3429.86282	0.62560
3427.80901	0.62567
3425.75520	0.62576
3423.70139	0.62571
3421.64758	0.62548
3419.59377	0.62530
3417.53996	0.62534
3415.48615	0.62536
3413.43234	0.62516
3411.37853	0.62481
3409.32472	0.62454
3407.27091	0.62457
3405.21710	0.62476
3403.16329	0.62483
3401.10948	0.62484
3399.05567	0.62483
3397.00186	0.62480
3394.94805	0.62490
3392.89424	0.62489
3390.84042	0.62457
3388.78661	0.62443
3386.73280	0.62478
3384.67899	0.62515
3382.62518	0.62519
3380.57137	0.62494
3378.51756	0.62462
3376.46375	0.62453
3374.40994	0.62471
3372.35613	0.62484
3370.30232	0.62466
3368.24851	0.62447
3366.19470	0.62446
3364.14089	0.62435
3362.08708	0.62411
3360.03327	0.62401
3357.97946	0.62407
3355.92565	0.62414
3353.87184	0.62425
3351.81803	0.62437
3349.76422	0.62436
3347.71041	0.62436
3345.65660	0.62439
3343.60279	0.62435
3341.54898	0.62444
3339.49517	0.62449
3337.44136	0.62446
3335.38755	0.62458
3333.33374	0.62457
3331.27993	0.62442
3329.22612	0.62444
3327.17231	0.62452
3325.11850	0.62446
3323.06469	0.62435
3321.01088	0.62427
3318.95707	0.62433
3316.90326	0.62464
3314.84945	0.62491
3312.79564	0.62486
3310.74183	0.62473
3308.68802	0.62466
3306.63421	0.62478
3304.58040	0.62511
3302.52659	0.62519
3300.47278	0.62501
3298.41897	0.62489
3296.36516	0.62480
3294.31135	0.62471
3292.25754	0.62472
3290.20373	0.62472
3288.14992	0.62461
3286.09611	0.62465
3284.04230	0.62489
3281.98849	0.62511
3279.93468	0.62522
3277.88087	0.62524
3275.82706	0.62518
3273.77325	0.62513
3271.71944	0.62512
3269.66563	0.62520
3267.61182	0.62536
3265.55801	0.62558
3263.50420	0.62586
3261.45039	0.62598
3259.39658	0.62577
3257.34277	0.62551
3255.28896	0.62557
3253.23515	0.62589
3251.18134	0.62610
3249.12753	0.62615
3247.07372	0.62618
3245.01991	0.62624
3242.96610	0.62627
3240.91229	0.62627
3238.85848	0.62631
3236.80467	0.62630
3234.75086	0.62628
3232.69705	0.62648
3230.64324	0.62672
3228.58943	0.62672
3226.53562	0.62660
3224.48181	0.62652
3222.42800	0.62655
3220.37419	0.62658
3218.32038	0.62652
3216.26657	0.62648
3214.21276	0.62643
3212.15895	0.62635
3210.10514	0.62660
3208.05133	0.62696
3205.99752	0.62702
3203.94371	0.62699
3201.88990	0.62711
3199.83609	0.62717
3197.78228	0.62709
3195.72847	0.62714
3193.67466	0.62739
3191.62085	0.62753
3189.56704	0.62751
3187.51323	0.62747
3185.45942	0.62737
3183.40561	0.62729
3181.35180	0.62742
3179.29799	0.62771
3177.24418	0.62791
3175.19037	0.62788
3173.13656	0.62770
3171.08275	0.62766
3169.02894	0.62782
3166.97513	0.62806
3164.92132	0.62834
3162.86751	0.62850
3160.81370	0.62838
3158.75989	0.62807
3156.70608	0.62793
3154.65227	0.62821
3152.59846	0.62864
3150.54465	0.62891
3148.49084	0.62900
3146.43703	0.62887
3144.38322	0.62872
3142.32941	0.62873
3140.27560	0.62879
3138.22179	0.62894
3136.16798	0.62916
3134.11417	0.62934
3132.06036	0.62948
3130.00655	0.62945
3127.95274	0.62914
3125.89893	0.62885
3123.84512	0.62897
3121.79131	0.62956
3119.73750	0.63015
3117.68369	0.63025
3115.62988	0.63004
3113.57607	0.62983
3111.52226	0.62971
3109.46845	0.62989
3107.41464	0.63033
3105.36083	0.63058
3103.30702	0.63044
3101.25321	0.63026
3099.19940	0.63031
3097.14559	0.63035
3095.09177	0.63021
3093.03796	0.63012
3090.98415	0.63027
3088.93034	0.63051
3086.87653	0.63049
3084.82272	0.63040
3082.76891	0.63049
3080.71510	0.63058
3078.66129	0.63061
3076.60748	0.63071
3074.55367	0.63086
3072.49986	0.63100
3070.44605	0.63096
3068.39224	0.63072
3066.33843	0.63048
3064.28462	0.63052
3062.23081	0.63087
3060.17700	0.63106
3058.12319	0.63096
3056.06938	0.63088
3054.01557	0.63080
3051.96176	0.63061
3049.90795	0.63047
3047.85414	0.63050
3045.80033	0.63061
3043.74652	0.63072
3041.69271	0.63083
3039.63890	0.63086
3037.58509	0.63067
3035.53128	0.63049
3033.47747	0.63050
3031.42366	0.63064
3029.36985	0.63093
3027.31604	0.63104
3025.26223	0.63087
3023.20842	0.63063
3021.15461	0.63036
3019.10080	0.63015
3017.04699	0.62989
3014.99318	0.62955
3012.93937	0.62926
3010.88556	0.62888
3008.83175	0.62843
3006.77794	0.62799
3004.72413	0.62751
3002.67032	0.62701
3000.61651	0.62651
2998.56270	0.62605
2996.50889	0.62544
2994.45508	0.62445
2992.40127	0.62332
2990.34746	0.62219
2988.29365	0.62083
2986.23984	0.61924
2984.18603	0.61739
2982.13222	0.61515
2980.07841	0.61234
2978.02460	0.60875
2975.97079	0.60428
2973.91698	0.59846
2971.86317	0.59072
2969.80936	0.58118
2967.75555	0.57004
2965.70174	0.55756
2963.64793	0.54499
2961.59412	0.53449
2959.54031	0.52704
2957.48650	0.52112
2955.43269	0.51408
2953.37888	0.50486
2951.32507	0.49590
2949.27126	0.49207
2947.21745	0.49707
2945.16364	0.51024
2943.10983	0.52631
2941.05602	0.53907
2939.00221	0.54528
2936.94840	0.54484
2934.89459	0.53893
2932.84078	0.52877
2930.78697	0.51563
2928.73316	0.50111
2926.67935	0.48692
2924.62554	0.47416
2922.57173	0.46267
2920.51792	0.45229
2918.46411	0.44463
2916.41030	0.44295
2914.35649	0.44925
2912.30268	0.46142
2910.24887	0.47477
2908.19506	0.48663
2906.14125	0.49747
2904.08744	0.50814
2902.03363	0.51872
2899.97982	0.52874
2897.92601	0.53744
2895.87220	0.54434
2893.81839	0.54925
2891.76458	0.55205
2889.71077	0.55289
2887.65696	0.55231
2885.60315	0.55052
2883.54934	0.54731
2881.49553	0.54269
2879.44172	0.53755
2877.38791	0.53375
2875.33410	0.53255
2873.28029	0.53307
2871.22648	0.53293
2869.17267	0.53099
2867.11886	0.52953
2865.06505	0.53308
2863.01124	0.54357
2860.95743	0.55755
2858.90362	0.56986
2856.84981	0.57795
2854.79600	0.58194
2852.74219	0.58315
2850.68838	0.58252
2848.63457	0.58007
2846.58076	0.57538
2844.52695	0.56768
2842.47314	0.55729
2840.41933	0.54694
2838.36552	0.54053
2836.31171	0.54172
2834.25790	0.55168
2832.20409	0.56679
2830.15028	0.58149
2828.09647	0.59268
2826.04266	0.60020
2823.98885	0.60514
2821.93504	0.60857
2819.88123	0.61128
2817.82742	0.61341
2815.77361	0.61486
2813.71980	0.61595
2811.66599	0.61695
2809.61218	0.61793
2807.55837	0.61900
2805.50456	0.62014
2803.45075	0.62124
2801.39693	0.62219
2799.34312	0.62302
2797.28931	0.62376
2795.23550	0.62431
2793.18169	0.62482
2791.12788	0.62550
2789.07407	0.62610
2787.02026	0.62645
2784.96645	0.62682
2782.91264	0.62733
2780.85883	0.62788
2778.80502	0.62847
2776.75121	0.62894
2774.69740	0.62904
2772.64359	0.62892
2770.58978	0.62891
2768.53597	0.62916
2766.48216	0.62946
2764.42835	0.62957
2762.37454	0.62973
2760.32073	0.63011
2758.26692	0.63046
2756.21311	0.63051
2754.15930	0.63034
2752.10549	0.63014
2750.05168	0.63006
2747.99787	0.63020
2745.94406	0.63044
2743.89025	0.63053
2741.83644	0.63038
2739.78263	0.63003
2737.72882	0.62966
2735.67501	0.62930
2733.62120	0.62897
2731.56739	0.62886
2729.51358	0.62879
2727.45977	0.62840
2725.40596	0.62777
2723.35215	0.62729
2721.29834	0.62719
2719.24453	0.62750
2717.19072	0.62808
2715.13691	0.62875
2713.08310	0.62941
2711.02929	0.63003
2708.97548	0.63064
2706.92167	0.63100
2704.86786	0.63105
2702.81405	0.63107
2700.76024	0.63115
2698.70643	0.63124
2696.65262	0.63141
2694.59881	0.63163
2692.54500	0.63167
2690.49119	0.63156
2688.43738	0.63149
2686.38357	0.63152
2684.32976	0.63162
2682.27595	0.63170
2680.22214	0.63162
2678.16833	0.63150
2676.11452	0.63155
2674.06071	0.63166
2672.00690	0.63173
2669.95309	0.63188
2667.89928	0.63214
2665.84547	0.63224
2663.79166	0.63217
2661.73785	0.63224
2659.68404	0.63253
2657.63023	0.63280
2655.57642	0.63291
2653.52261	0.63308
2651.46880	0.63335
2649.41499	0.63354
2647.36118	0.63371
2645.30737	0.63400
2643.25356	0.63423
2641.19975	0.63419
2639.14594	0.63416
2637.09213	0.63430
2635.03832	0.63432
2632.98451	0.63428
2630.93070	0.63432
2628.87689	0.63434
2626.82308	0.63435
2624.76927	0.63445
2622.71546	0.63448
2620.66165	0.63443
2618.60784	0.63441
2616.55403	0.63437
2614.50022	0.63431
2612.44641	0.63444
2610.39260	0.63478
2608.33879	0.63506
2606.28498	0.63519
2604.23117	0.63529
2602.17736	0.63535
2600.12355	0.63536
2598.06974	0.63538
2596.01593	0.63540
2593.96212	0.63519
2591.90831	0.63470
2589.85450	0.63454
2587.80069	0.63492
2585.74688	0.63505
2583.69307	0.63463
2581.63926	0.63425
2579.58545	0.63418
2577.53164	0.63435
2575.47783	0.63484
2573.42402	0.63531
2571.37021	0.63539
2569.31640	0.63554
2567.26259	0.63593
2565.20878	0.63627
2563.15497	0.63647
2561.10116	0.63633
2559.04735	0.63587
2556.99354	0.63574
2554.93973	0.63621
2552.88592	0.63658
2550.83211	0.63640
2548.77830	0.63628
2546.72449	0.63641
2544.67068	0.63650
2542.61687	0.63665
2540.56306	0.63688
2538.50925	0.63673
2536.45544	0.63636
2534.40163	0.63645
2532.34782	0.63677
2530.29401	0.63686
2528.24020	0.63688
2526.18639	0.63692
2524.13258	0.63689
2522.07877	0.63683
2520.02496	0.63679
2517.97115	0.63684
2515.91734	0.63708
2513.86353	0.63745
2511.80972	0.63762
2509.75591	0.63759
2507.70210	0.63767
2505.64828	0.63776
2503.59447	0.63767
2501.54066	0.63764
2499.48685	0.63797
2497.43304	0.63812
2495.37923	0.63771
2493.32542	0.63751
2491.27161	0.63784
2489.21780	0.63819
2487.16399	0.63822
2485.11018	0.63804
2483.05637	0.63802
2481.00256	0.63802
2478.94875	0.63793
2476.89494	0.63818
2474.84113	0.63861
2472.78732	0.63869
2470.73351	0.63868
2468.67970	0.63879
2466.62589	0.63868
2464.57208	0.63837
2462.51827	0.63820
2460.46446	0.63846
2458.41065	0.63885
2456.35684	0.63871
2454.30303	0.63836
2452.24922	0.63847
2450.19541	0.63897
2448.14160	0.63917
2446.08779	0.63879
2444.03398	0.63849
2441.98017	0.63857
2439.92636	0.63865
2437.87255	0.63861
2435.81874	0.63855
2433.76493	0.63851
2431.71112	0.63861
2429.65731	0.63895
2427.60350	0.63935
2425.54969	0.63955
2423.49588	0.63946
2421.44207	0.63921
2419.38826	0.63895
2417.33445	0.63860
2415.28064	0.63823
2413.22683	0.63806
2411.17302	0.63813
2409.11921	0.63836
2407.06540	0.63847
2405.01159	0.63841
2402.95778	0.63853
2400.90397	0.63879
2398.85016	0.63893
2396.79635	0.63892
2394.74254	0.63897
2392.68873	0.63905
2390.63492	0.63906
2388.58111	0.63899
2386.52730	0.63886
2384.47349	0.63879
2382.41968	0.63873
2380.36587	0.63869
2378.31206	0.63878
2376.25825	0.63887
2374.20444	0.63890
2372.15063	0.63887
2370.09682	0.63855
2368.04301	0.63815
2365.98920	0.63823
2363.93539	0.63887
2361.88158	0.63941
2359.82777	0.63944
2357.77396	0.63981
2355.72015	0.64060
2353.66634	0.64057
2351.61253	0.63980
2349.55872	0.63940
2347.50491	0.63958
2345.45110	0.64012
2343.39729	0.64065
2341.34348	0.64103
2339.28967	0.64145
2337.23586	0.64165
2335.18205	0.64134
2333.12824	0.64104
2331.07443	0.64108
2329.02062	0.64114
2326.96681	0.64114
2324.91300	0.64125
2322.85919	0.64149
2320.80538	0.64157
2318.75157	0.64140
2316.69776	0.64106
2314.64395	0.64059
2312.59014	0.64038
2310.53633	0.64063
2308.48252	0.64089
2306.42871	0.64082
2304.37490	0.64045
2302.32109	0.64026
2300.26728	0.64063
2298.21347	0.64097
2296.15966	0.64114
2294.10585	0.64162
2292.05204	0.64200
2289.99823	0.64176
2287.94442	0.64157
2285.89061	0.64213
2283.83680	0.64301
2281.78299	0.64323
2279.72918	0.64277
2277.67537	0.64243
2275.62156	0.64235
2273.56775	0.64234
2271.51394	0.64237
2269.46013	0.64217
2267.40632	0.64180
2265.35251	0.64155
2263.29870	0.64123
2261.24489	0.64093
2259.19108	0.64129
2257.13727	0.64189
2255.08346	0.64167
2253.02965	0.64108
2250.97584	0.64121
2248.92203	0.64170
2246.86822	0.64158
2244.81441	0.64120
2242.76060	0.64127
2240.70679	0.64176
2238.65298	0.64242
2236.59917	0.64293
2234.54536	0.64277
2232.49155	0.64237
2230.43774	0.64196
2228.38393	0.64156
2226.33012	0.64179
2224.27631	0.64196
2222.22250	0.64150
2220.16869	0.64146
2218.11488	0.64238
2216.06107	0.64299
2214.00726	0.64273
2211.95344	0.64295
2209.89963	0.64377
2207.84582	0.64345
2205.79201	0.64195
2203.73820	0.64127
2201.68439	0.64161
2199.63058	0.64181
2197.57677	0.64212
2195.52296	0.64270
2193.46915	0.64310
2191.41534	0.64314
2189.36153	0.64285
2187.30772	0.64318
2185.25391	0.64349
2183.20010	0.64226
2181.14629	0.64079
2179.09248	0.64090
2177.03867	0.64152
2174.98486	0.64172
2172.93105	0.64276
2170.87724	0.64436
2168.82343	0.64489
2166.76962	0.64389
2164.71581	0.64317
2162.66200	0.64346
2160.60819	0.64264
2158.55438	0.64085
2156.50057	0.64022
2154.44676	0.63944
2152.39295	0.63800
2150.33914	0.63810
2148.28533	0.63931
2146.23152	0.64050
2144.17771	0.64177
2142.12390	0.64238
2140.07009	0.64173
2138.01628	0.64007
2135.96247	0.63869
2133.90866	0.63875
2131.85485	0.63978
2129.80104	0.64034
2127.74723	0.64037
2125.69342	0.64112
2123.63961	0.64195
2121.58580	0.64162
2119.53199	0.64102
2117.47818	0.64137
2115.42437	0.64246
2113.37056	0.64296
2111.31675	0.64260
2109.26294	0.64266
2107.20913	0.64313
2105.15532	0.64325
2103.10151	0.64338
2101.04770	0.64373
2098.99389	0.64385
2096.94008	0.64362
2094.88627	0.64326
2092.83246	0.64301
2090.77865	0.64254
2088.72484	0.64202
2086.67103	0.64211
2084.61722	0.64213
2082.56341	0.64170
2080.50960	0.64165
2078.45579	0.64220
2076.40198	0.64268
2074.34817	0.64280
2072.29436	0.64276
2070.24055	0.64272
2068.18674	0.64294
2066.13293	0.64317
2064.07912	0.64296
2062.02531	0.64270
2059.97150	0.64286
2057.91769	0.64354
2055.86388	0.64430
2053.81007	0.64487
2051.75626	0.64507
2049.70245	0.64434
2047.64864	0.64375
2045.59483	0.64384
2043.54102	0.64348
2041.48721	0.64324
2039.43340	0.64351
2037.37959	0.64349
2035.32578	0.64295
2033.27197	0.64288
2031.21816	0.64347
2029.16435	0.64332
2027.11054	0.64253
2025.05673	0.64209
2023.00292	0.64141
2020.94911	0.64090
2018.89530	0.64195
2016.84149	0.64330
2014.78768	0.64369
2012.73387	0.64354
2010.68006	0.64309
2008.62625	0.64265
2006.57244	0.64250
2004.51863	0.64246
2002.46482	0.64272
2000.41101	0.64353
1998.35720	0.64439
1996.30339	0.64437
1994.24958	0.64365
1992.19577	0.64267
1990.14196	0.64231
1988.08815	0.64353
1986.03434	0.64428
1983.98053	0.64381
1981.92672	0.64413
1979.87291	0.64524
1977.81910	0.64580
1975.76529	0.64530
1973.71148	0.64353
1971.65767	0.64118
1969.60386	0.64021
1967.55005	0.64075
1965.49624	0.64150
1963.44243	0.64237
1961.38862	0.64314
1959.33481	0.64334
1957.28100	0.64310
1955.22719	0.64278
1953.17338	0.64264
1951.11957	0.64205
1949.06576	0.64065
1947.01195	0.63983
1944.95814	0.64052
1942.90433	0.64217
1940.85052	0.64347
1938.79671	0.64345
1936.74290	0.64271
1934.68909	0.64219
1932.63528	0.64191
1930.58147	0.64162
1928.52766	0.64166
1926.47385	0.64207
1924.42004	0.64212
1922.36623	0.64171
1920.31242	0.64141
1918.25861	0.64153
1916.20479	0.64229
1914.15098	0.64280
1912.09717	0.64249
1910.04336	0.64232
1907.98955	0.64263
1905.93574	0.64300
1903.88193	0.64322
1901.82812	0.64320
1899.77431	0.64293
1897.72050	0.64248
1895.66669	0.64235
1893.61288	0.64254
1891.55907	0.64224
1889.50526	0.64168
1887.45145	0.64178
1885.39764	0.64235
1883.34383	0.64274
1881.29002	0.64275
1879.23621	0.64257
1877.18240	0.64256
1875.12859	0.64275
1873.07478	0.64282
1871.02097	0.64264
1868.96716	0.64236
1866.91335	0.64231
1864.85954	0.64260
1862.80573	0.64284
1860.75192	0.64270
1858.69811	0.64258
1856.64430	0.64278
1854.59049	0.64297
1852.53668	0.64303
1850.48287	0.64290
1848.42906	0.64257
1846.37525	0.64255
1844.32144	0.64292
1842.26763	0.64316
1840.21382	0.64322
1838.16001	0.64300
1836.10620	0.64264
1834.05239	0.64255
1831.99858	0.64272
1829.94477	0.64301
1827.89096	0.64321
1825.83715	0.64298
1823.78334	0.64249
1821.72953	0.64239
1819.67572	0.64260
1817.62191	0.64251
1815.56810	0.64231
1813.51429	0.64231
1811.46048	0.64227
1809.40667	0.64226
1807.35286	0.64219
1805.29905	0.64185
1803.24524	0.64151
1801.19143	0.64125
1799.13762	0.64100
1797.08381	0.64078
1795.03000	0.64053
1792.97619	0.64011
1790.92238	0.63971
1788.86857	0.63938
1786.81476	0.63879
1784.76095	0.63801
1782.70714	0.63738
1780.65333	0.63680
1778.59952	0.63611
1776.54571	0.63561
1774.49190	0.63515
1772.43809	0.63456
1770.38428	0.63426
1768.33047	0.63418
1766.27666	0.63419
1764.22285	0.63411
1762.16904	0.63346
1760.11523	0.63246
1758.06142	0.63155
1756.00761	0.63064
1753.95380	0.62966
1751.89999	0.62813
1749.84618	0.62626
1747.79237	0.62521
1745.73856	0.62491
1743.68475	0.62469
1741.63094	0.62445
1739.57713	0.62444
1737.52332	0.62464
1735.46951	0.62449
1733.41570	0.62394
1731.36189	0.62408
1729.30808	0.62472
1727.25427	0.62506
1725.20046	0.62476
1723.14665	0.62413
1721.09284	0.62352
1719.03903	0.62257
1716.98522	0.62122
1714.93141	0.62046
1712.87760	0.62048
1710.82379	0.62086
1708.76998	0.62119
1706.71617	0.62146
1704.66236	0.62225
1702.60855	0.62344
1700.55474	0.62436
1698.50093	0.62504
1696.44712	0.62606
1694.39331	0.62727
1692.33950	0.62815
1690.28569	0.62862
1688.23188	0.62872
1686.17807	0.62825
1684.12426	0.62736
1682.07045	0.62759
1680.01664	0.62850
1677.96283	0.62904
1675.90902	0.62909
1673.85521	0.62888
1671.80140	0.62847
1669.74759	0.62797
1667.69378	0.62803
1665.63997	0.62819
1663.58616	0.62783
1661.53235	0.62758
1659.47854	0.62795
1657.42473	0.62819
1655.37092	0.62769
1653.31711	0.62654
1651.26330	0.62640
1649.20949	0.62667
1647.15568	0.62653
1645.10187	0.62701
1643.04806	0.62796
1640.99425	0.62839
1638.94044	0.62817
1636.88663	0.62758
1634.83282	0.62747
1632.77901	0.62820
1630.72520	0.62882
1628.67139	0.62883
1626.61758	0.62862
1624.56377	0.62869
1622.50996	0.62885
1620.45614	0.62903
1618.40233	0.62912
1616.34852	0.62912
1614.29471	0.62951
1612.24090	0.62998
1610.18709	0.63016
1608.13328	0.63021
1606.07947	0.63036
1604.02566	0.63050
1601.97185	0.63061
1599.91804	0.63086
1597.86423	0.63114
1595.81042	0.63123
1593.75661	0.63132
1591.70280	0.63167
1589.64899	0.63213
1587.59518	0.63252
1585.54137	0.63286
1583.48756	0.63312
1581.43375	0.63330
1579.37994	0.63327
1577.32613	0.63310
1575.27232	0.63350
1573.21851	0.63446
1571.16470	0.63494
1569.11089	0.63501
1567.05708	0.63536
1565.00327	0.63573
1562.94946	0.63573
1560.89565	0.63497
1558.84184	0.63341
1556.78803	0.63355
1554.73422	0.63472
1552.68041	0.63543
1550.62660	0.63556
1548.57279	0.63563
1546.51898	0.63575
1544.46517	0.63539
1542.41136	0.63464
1540.35755	0.63433
1538.30374	0.63526
1536.24993	0.63626
1534.19612	0.63653
1532.14231	0.63669
1530.08850	0.63723
1528.03469	0.63749
1525.98088	0.63727
1523.92707	0.63682
1521.87326	0.63630
1519.81945	0.63642
1517.76564	0.63697
1515.71183	0.63742
1513.65802	0.63773
1511.60421	0.63763
1509.55040	0.63689
1507.49659	0.63593
1505.44278	0.63658
1503.38897	0.63798
1501.33516	0.63844
1499.28135	0.63792
1497.22754	0.63707
1495.17373	0.63670
1493.11992	0.63657
1491.06611	0.63583
1489.01230	0.63467
1486.95849	0.63400
1484.90468	0.63345
1482.85087	0.63247
1480.79706	0.63088
1478.74325	0.62844
1476.68944	0.62467
1474.63563	0.61899
1472.58182	0.61001
1470.52801	0.59932
1468.47420	0.58924
1466.42039	0.57726
1464.36658	0.56312
1462.31277	0.55285
1460.25896	0.54762
1458.20515	0.54385
1456.15134	0.54140
1454.09753	0.54204
1452.04372	0.54471
1449.98991	0.55037
1447.93610	0.56129
1445.88229	0.57547
1443.82848	0.58766
1441.77467	0.59589
1439.72086	0.59952
1437.66705	0.59917
1435.61324	0.59926
1433.55943	0.60417
1431.50562	0.61130
1429.45181	0.61736
1427.39800	0.62089
1425.34419	0.62248
1423.29038	0.62319
1421.23657	0.62357
1419.18276	0.62359
1417.12895	0.62389
1415.07514	0.62479
1413.02133	0.62562
1410.96752	0.62620
1408.91371	0.62651
1406.85990	0.62653
1404.80609	0.62659
1402.75228	0.62694
1400.69847	0.62704
1398.64466	0.62673
1396.59085	0.62630
1394.53704	0.62554
1392.48323	0.62446
1390.42942	0.62289
1388.37561	0.61958
1386.32180	0.61308
1384.26799	0.60180
1382.21418	0.58192
1380.16037	0.54995
1378.10656	0.51226
1376.05275	0.48858
1373.99894	0.49695
1371.94513	0.52956
1369.89132	0.56256
1367.83751	0.58526
1365.78370	0.59633
1363.72989	0.59874
1361.67608	0.59600
1359.62227	0.59308
1357.56846	0.59431
1355.51465	0.60030
1353.46084	0.60814
1351.40703	0.61476
1349.35322	0.61944
1347.29941	0.62262
1345.24560	0.62486
1343.19179	0.62635
1341.13798	0.62693
1339.08417	0.62696
1337.03036	0.62718
1334.97655	0.62734
1332.92274	0.62692
1330.86893	0.62618
1328.81512	0.62609
1326.76130	0.62702
1324.70749	0.62836
1322.65368	0.62937
1320.59987	0.62977
1318.54606	0.62980
1316.49225	0.62983
1314.43844	0.62997
1312.38463	0.63009
1310.33082	0.62997
1308.27701	0.62930
1306.22320	0.62806
1304.16939	0.62704
1302.11558	0.62698
1300.06177	0.62718
1298.00796	0.62689
1295.95415	0.62660
1293.90034	0.62691
1291.84653	0.62765
1289.79272	0.62846
1287.73891	0.62927
1285.68510	0.62987
1283.63129	0.63008
1281.57748	0.63018
1279.52367	0.63037
1277.46986	0.63036
1275.41605	0.62992
1273.36224	0.62936
1271.30843	0.62900
1269.25462	0.62869
1267.20081	0.62804
1265.14700	0.62711
1263.09319	0.62618
1261.03938	0.62533
1258.98557	0.62449
1256.93176	0.62388
1254.87795	0.62396
1252.82414	0.62465
1250.77033	0.62540
1248.71652	0.62589
1246.66271	0.62614
1244.60890	0.62626
1242.55509	0.62628
1240.50128	0.62614
1238.44747	0.62592
1236.39366	0.62583
1234.33985	0.62599
1232.28604	0.62614
1230.23223	0.62595
1228.17842	0.62557
1226.12461	0.62522
1224.07080	0.62468
1222.01699	0.62385
1219.96318	0.62300
1217.90937	0.62263
1215.85556	0.62295
1213.80175	0.62366
1211.74794	0.62427
1209.69413	0.62467
1207.64032	0.62501
1205.58651	0.62516
1203.53270	0.62502
1201.47889	0.62480
1199.42508	0.62462
1197.37127	0.62453
1195.31746	0.62438
1193.26365	0.62400
1191.20984	0.62365
1189.15603	0.62338
1187.10222	0.62299
1185.04841	0.62251
1182.99460	0.62179
1180.94079	0.62077
1178.88698	0.61946
1176.83317	0.61773
1174.77936	0.61520
1172.72555	0.61160
1170.67174	0.60744
1168.61793	0.60427
1166.56412	0.60356
1164.51031	0.60519
1162.45650	0.60758
1160.40269	0.60943
1158.34888	0.61042
1156.29507	0.61067
1154.24126	0.61066
1152.18745	0.61083
1150.13364	0.61145
1148.07983	0.61266
1146.02602	0.61415
1143.97221	0.61542
1141.91840	0.61626
1139.86459	0.61667
1137.81078	0.61678
1135.75697	0.61678
1133.70316	0.61662
1131.64935	0.61624
1129.59554	0.61583
1127.54173	0.61547
1125.48792	0.61492
1123.43411	0.61424
1121.38030	0.61353
1119.32649	0.61280
1117.27268	0.61214
1115.21887	0.61155
1113.16506	0.61081
1111.11125	0.60968
1109.05744	0.60812
1107.00363	0.60622
1104.94982	0.60437
1102.89601	0.60310
1100.84220	0.60283
1098.78839	0.60345
1096.73458	0.60435
1094.68077	0.60527
1092.62696	0.60633
1090.57315	0.60715
1088.51934	0.60746
1086.46553	0.60763
1084.41172	0.60791
1082.35791	0.60828
1080.30410	0.60866
1078.25029	0.60895
1076.19648	0.60937
1074.14267	0.61009
1072.08886	0.61062
1070.03505	0.61061
1067.98124	0.61041
1065.92743	0.61023
1063.87362	0.61010
1061.81981	0.61007
1059.76600	0.60977
1057.71219	0.60902
1055.65838	0.60812
1053.60457	0.60720
1051.55076	0.60601
1049.49695	0.60471
1047.44314	0.60347
1045.38933	0.60220
1043.33552	0.60140
1041.28171	0.60133
1039.22790	0.60139
1037.17409	0.60150
1035.12028	0.60195
1033.06647	0.60264
1031.01265	0.60340
1028.95884	0.60404
1026.90503	0.60463
1024.85122	0.60532
1022.79741	0.60578
1020.74360	0.60586
1018.68979	0.60605
1016.63598	0.60660
1014.58217	0.60719
1012.52836	0.60779
1010.47455	0.60861
1008.42074	0.60959
1006.36693	0.61024
1004.31312	0.60955
1002.25931	0.60682
1000.20550	0.60301
998.15169	0.60115
996.09788	0.60374
994.04407	0.60955
991.99026	0.61527
989.93645	0.61919
987.88264	0.62166
985.82883	0.62315
983.77502	0.62373
981.72121	0.62335
979.66740	0.62149
977.61359	0.61779
975.55978	0.61317
973.50597	0.61032
971.45216	0.61212
969.39835	0.61787
967.34454	0.62369
965.29073	0.62739
963.23692	0.62946
961.18311	0.63087
959.12930	0.63205
957.07549	0.63295
955.02168	0.63337
952.96787	0.63347
950.91406	0.63377
948.86025	0.63416
946.80644	0.63416
944.75263	0.63369
942.69882	0.63302
940.64501	0.63252
938.59120	0.63298
936.53739	0.63450
934.48358	0.63607
932.42977	0.63719
930.37596	0.63797
928.32215	0.63850
926.26834	0.63887
924.21453	0.63928
922.16072	0.63981
920.10691	0.64026
918.05310	0.64037
915.99929	0.64012
913.94548	0.63994
911.89167	0.64008
909.83786	0.64030
907.78405	0.64024
905.73024	0.63919
903.67643	0.63659
901.62262	0.63307
899.56881	0.63098
897.51500	0.63262
895.46119	0.63705
893.40738	0.64142
891.35357	0.64427
889.29976	0.64560
887.24595	0.64639
885.19214	0.64716
883.13833	0.64763
881.08452	0.64795
879.03071	0.64842
876.97690	0.64899
874.92309	0.64948
872.86928	0.65000
870.81547	0.65051
868.76166	0.65037
866.70785	0.64991
864.65404	0.65011
862.60023	0.65086
860.54642	0.65142
858.49261	0.65154
856.43880	0.65175
854.38499	0.65242
852.33118	0.65280
850.27737	0.65236
848.22356	0.65120
846.16975	0.64876
844.11594	0.64365
842.06213	0.63814
840.00832	0.63829
837.95451	0.64410
835.90070	0.64953
833.84689	0.65220
831.79308	0.65353
829.73927	0.65432
827.68546	0.65456
825.63165	0.65464
823.57784	0.65480
821.52403	0.65457
819.47022	0.65375
817.41641	0.65276
815.36260	0.65110
813.30879	0.64725
811.25498	0.64194
809.20117	0.63868
807.14736	0.63978
805.09355	0.64399
803.03974	0.64830
800.98593	0.65095
798.93212	0.65236
796.87831	0.65332
794.82450	0.65411
792.77069	0.65476
790.71688	0.65541
788.66307	0.65634
786.60926	0.65736
784.55545	0.65799
782.50164	0.65833
780.44783	0.65878
778.39402	0.65946
776.34021	0.66009
774.28640	0.66030
772.23259	0.66010
770.17878	0.66004
768.12497	0.66057
766.07116	0.66116
764.01735	0.66104
761.96354	0.66052
759.90973	0.66050
757.85592	0.66090
755.80211	0.66142
753.74830	0.66188
751.69449	0.66167
749.64068	0.66130
747.58687	0.66157
745.53306	0.66186
743.47925	0.66192
741.42544	0.66221
739.37163	0.66226
737.31781	0.66170
735.26400	0.66116
733.21019	0.66083
731.15638	0.66032
729.10257	0.65997
727.04876	0.66007
724.99495	0.65989
722.94114	0.65912
720.88733	0.65840
718.83352	0.65846
716.77971	0.65928
714.72590	0.65992
712.67209	0.66001
710.61828	0.65996
708.56447	0.65953
706.51066	0.65890
704.45685	0.65862
702.40304	0.65831
700.34923	0.65800
698.29542	0.65808
696.24161	0.65828
694.18780	0.65846
692.13399	0.65854
690.08018	0.65848
688.02637	0.65893
685.97256	0.65977
683.91875	0.65989
681.86494	0.65919
679.81113	0.65870
677.75732	0.65911
675.70351	0.66008
673.64970	0.66095
671.59589	0.66123
669.54208	0.66089
667.48827	0.66053
665.43446	0.66091
663.38065	0.66110
661.32684	0.66049
659.27303	0.66013
657.21922	0.66097
655.16541	0.66187
653.11160	0.66176
651.05779	0.66143
649.00398	0.66158
646.95017	0.66169
644.89636	0.66175
642.84255	0.66185
640.78874	0.66153
638.73493	0.66087
636.68112	0.66076
634.62731	0.66138
632.57350	0.66178
630.51969	0.66189
628.46588	0.66207
626.41207	0.66188
624.35826	0.66186
622.30445	0.66250
620.25064	0.66283
618.19683	0.66244
616.14302	0.66221
614.08921	0.66258
612.03540	0.66278
609.98159	0.66219
607.92778	0.66189
605.87397	0.66288
603.82016	0.66361
601.76635	0.66302
599.71254	0.66273
597.65873	0.66284
595.60492	0.66223
593.55111	0.66178
591.49730	0.66224
589.44349	0.66333
587.38968	0.66421
585.33587	0.66389
583.28206	0.66335
581.22825	0.66368
579.17444	0.66401
577.12063	0.66387
575.06682	0.66401
573.01301	0.66474
570.95920	0.66531
568.90539	0.66475
566.85158	0.66345
564.79777	0.66323
562.74396	0.66401
560.69015	0.66359
558.63634	0.66273
556.58253	0.66359
554.52872	0.66399
552.47491	0.66224
550.42110	0.66055
548.36729	0.66004
546.31348	0.65940
544.25967	0.65761
542.20586	0.65601
540.15205	0.65546
538.09824	0.65440
536.04443	0.65236
533.99062	0.65111
531.93681	0.65129
529.88300	0.65164
527.82919	0.65183
525.77538	0.65245
523.72157	0.65293
521.66776	0.65264
519.61395	0.65159
517.56014	0.65109
515.50633	0.65314
513.45252	0.65595
511.39871	0.65637
509.34490	0.65519
507.29109	0.65446
505.23728	0.65390
503.18347	0.65333
501.12966	0.65335
499.07585	0.65365
497.02204	0.65451
494.96823	0.65648
492.91442	0.65807
490.86061	0.65831
488.80680	0.65857
486.75299	0.65887
484.69918	0.65823
482.64537	0.65625
480.59156	0.65316
478.53775	0.65104
476.48394	0.65084
474.43013	0.65080
472.37632	0.65009
470.32251	0.64925
468.26870	0.64786
466.21489	0.64667
464.16108	0.64628
462.10727	0.64601
460.05346	0.64639
457.99965	0.64779
455.94584	0.65016
453.89203	0.65271
451.83822	0.65542
449.78441	0.65864
447.73060	0.66019
445.67679	0.66009
443.62298	0.66064
441.56916	0.66200
439.51535	0.66416
437.46154	0.66642
435.40773	0.66730
433.35392	0.66697
431.30011	0.66667
429.24630	0.66756
427.19249	0.67029
425.13868	0.67464
423.08487	0.67753
421.03106	0.67603
418.97725	0.67395
416.92344	0.67364
414.86963	0.67205
412.81582	0.67092
410.76201	0.67184
408.70820	0.67438
406.65439	0.67701
404.60058	0.67687
402.54677	0.67324
400.49296	0.66956
398.43915	0.67156
