3996.70104	0.97931
3994.64724	0.97919
3992.59344	0.97927
3990.53964	0.97931
3988.48583	0.97967
3986.43203	0.98030
3984.37823	0.98066
3982.32442	0.98024
3980.27062	0.97953
3978.21682	0.97930
3976.16301	0.97941
3974.10921	0.97953
3972.05541	0.97933
3970.00160	0.97904
3967.94780	0.97910
3965.89400	0.97934
3963.84019	0.97948
3961.78639	0.97973
3959.73259	0.98017
3957.67878	0.98004
3955.62498	0.97924
3953.57118	0.97873
3951.51737	0.97891
3949.46357	0.97916
3947.40977	0.97899
3945.35596	0.97900
3943.30216	0.97965
3941.24836	0.98000
3939.19455	0.97979
3937.14075	0.97952
3935.08695	0.97913
3933.03315	0.97878
3930.97934	0.97902
3928.92554	0.97954
3926.87174	0.97976
3924.81793	0.97997
3922.76413	0.98016
3920.71033	0.97998
3918.65652	0.97969
3916.60272	0.97947
3914.54892	0.97916
3912.49511	0.97886
3910.44131	0.97894
3908.38751	0.97905
3906.33370	0.97856
3904.27990	0.97840
3902.22610	0.97966
3900.17229	0.98077
3898.11849	0.98021
3896.06469	0.97910
3894.01088	0.97892
3891.95708	0.97967
3889.90328	0.98037
3887.84947	0.98048
3885.79567	0.98007
3883.74187	0.97978
3881.68807	0.97989
3879.63426	0.97993
3877.58046	0.97983
3875.52666	0.97979
3873.47285	0.97978
3871.41905	0.97984
3869.36525	0.97986
3867.31144	0.97954
3865.25764	0.97930
3863.20384	0.97956
3861.15003	0.97999
3859.09623	0.98031
3857.04243	0.98029
3854.98862	0.97977
3852.93482	0.97910
3850.88102	0.97903
3848.82721	0.97932
3846.77341	0.97940
3844.71961	0.97915
3842.66580	0.97868
3840.61200	0.97831
3838.55820	0.97841
3836.50439	0.97876
3834.45059	0.97904
3832.39679	0.97926
3830.34298	0.97922
3828.28918	0.97901
3826.23538	0.97895
3824.18158	0.97884
3822.12777	0.97864
3820.07397	0.97899
3818.02017	0.97960
3815.96636	0.97998
3813.91256	0.98038
3811.85876	0.98055
3809.80495	0.98032
3807.75115	0.98017
3805.69735	0.98060
3803.64354	0.98090
3801.58974	0.98035
3799.53594	0.97971
3797.48213	0.97956
3795.42833	0.97988
3793.37453	0.98013
3791.32072	0.97957
3789.26692	0.97881
3787.21312	0.97847
3785.15931	0.97848
3783.10551	0.97888
3781.05171	0.97950
3778.99790	0.97990
3776.94410	0.97968
3774.89030	0.97928
3772.83650	0.97953
3770.78269	0.98055
3768.72889	0.98125
3766.67509	0.98061
3764.62128	0.97968
3762.56748	0.97971
3760.51368	0.98037
3758.45987	0.98109
3756.40607	0.98134
3754.35227	0.98107
3752.29846	0.98061
3750.24466	0.98052
3748.19086	0.98081
3746.13705	0.98097
3744.08325	0.98130
3742.02945	0.98107
3739.97564	0.98015
3737.92184	0.97939
3735.86804	0.97898
3733.81423	0.97938
3731.76043	0.98059
3729.70663	0.98138
3727.65282	0.98202
3725.59902	0.98288
3723.54522	0.98289
3721.49141	0.98179
3719.43761	0.98071
3717.38381	0.98026
3715.33001	0.98009
3713.27620	0.97982
3711.22240	0.97929
3709.16860	0.97868
3707.11479	0.97812
3705.06099	0.97747
3703.00719	0.97725
3700.95338	0.97763
3698.89958	0.97780
3696.84578	0.97761
3694.79197	0.97724
3692.73817	0.97676
3690.68437	0.97647
3688.63056	0.97668
3686.57676	0.97715
3684.52296	0.97734
3682.46915	0.97744
3680.41535	0.97745
3678.36155	0.97713
3676.30774	0.97690
3674.25394	0.97708
3672.20014	0.97730
3670.14633	0.97712
3668.09253	0.97633
3666.03873	0.97598
3663.98492	0.97652
3661.93112	0.97678
3659.87732	0.97587
3657.82352	0.97510
3655.76971	0.97521
3653.71591	0.97509
3651.66211	0.97467
3649.60830	0.97432
3647.55450	0.97380
3645.50070	0.97293
3643.44689	0.97237
3641.39309	0.97260
3639.33929	0.97298
3637.28548	0.97271
3635.23168	0.97242
3633.17788	0.97262
3631.12407	0.97235
3629.07027	0.97094
3627.01647	0.97019
3624.96266	0.97046
3622.90886	0.97068
3620.85506	0.97099
3618.80125	0.97080
3616.74745	0.96975
3614.69365	0.96928
3612.63984	0.96973
3610.58604	0.97011
3608.53224	0.97003
3606.47844	0.97034
3604.42463	0.97105
3602.37083	0.97125
3600.31703	0.97067
3598.26322	0.96999
3596.20942	0.96992
3594.15562	0.97031
3592.10181	0.97048
3590.04801	0.97032
3587.99421	0.97021
3585.94040	0.97014
3583.88660	0.96987
3581.83280	0.96959
3579.77899	0.96934
3577.72519	0.96923
3575.67139	0.96963
3573.61758	0.96997
3571.56378	0.96931
3569.50998	0.96839
3567.45617	0.96831
3565.40237	0.96829
3563.34857	0.96785
3561.29476	0.96769
3559.24096	0.96764
3557.18716	0.96750
3555.13335	0.96765
3553.07955	0.96793
3551.02575	0.96815
3548.97195	0.96845
3546.91814	0.96868
3544.86434	0.96845
3542.81054	0.96784
3540.75673	0.96733
3538.70293	0.96672
3536.64913	0.96595
3534.59532	0.96568
3532.54152	0.96596
3530.48772	0.96612
3528.43391	0.96590
3526.38011	0.96570
3524.32631	0.96584
3522.27250	0.96632
3520.21870	0.96666
3518.16490	0.96617
3516.11109	0.96523
3514.05729	0.96503
3512.00349	0.96526
3509.94968	0.96498
3507.89588	0.96486
3505.84208	0.96536
3503.78827	0.96551
3501.73447	0.96505
3499.68067	0.96444
3497.62687	0.96416
3495.57306	0.96460
3493.51926	0.96514
3491.46546	0.96536
3489.41165	0.96530
3487.35785	0.96471
3485.30405	0.96411
3483.25024	0.96407
3481.19644	0.96413
3479.14264	0.96389
3477.08883	0.96352
3475.03503	0.96291
3472.98123	0.96217
3470.92742	0.96216
3468.87362	0.96295
3466.81982	0.96353
3464.76601	0.96347
3462.71221	0.96328
3460.65841	0.96313
3458.60460	0.96277
3456.55080	0.96216
3454.49700	0.96163
3452.44319	0.96167
3450.38939	0.96199
3448.33559	0.96196
3446.28178	0.96192
3444.22798	0.96181
3442.17418	0.96128
3440.12038	0.96090
3438.06657	0.96088
3436.01277	0.96061
3433.95897	0.96020
3431.90516	0.96019
3429.85136	0.96024
3427.79756	0.96002
3425.74375	0.95981
3423.68995	0.95968
3421.63615	0.95969
3419.58234	0.95960
3417.52854	0.95931
3415.47474	0.95937
3413.42093	0.95941
3411.36713	0.95927
3409.31333	0.95917
3407.25952	0.95870
3405.20572	0.95807
3403.15192	0.95768
3401.09811	0.95727
3399.04431	0.95673
3396.99051	0.95616
3394.93670	0.95596
3392.88290	0.95628
3390.82910	0.95644
3388.77529	0.95610
3386.72149	0.95584
3384.66769	0.95581
3382.61389	0.95558
3380.56008	0.95527
3378.50628	0.95525
3376.45248	0.95515
3374.39867	0.95469
3372.34487	0.95428
3370.29107	0.95416
3368.23726	0.95427
3366.18346	0.95465
3364.12966	0.95495
3362.07585	0.95480
3360.02205	0.95444
3357.96825	0.95413
3355.91444	0.95379
3353.86064	0.95377
3351.80684	0.95445
3349.75303	0.95498
3347.69923	0.95457
3345.64543	0.95396
3343.59162	0.95357
3341.53782	0.95299
3339.48402	0.95242
3337.43021	0.95233
3335.37641	0.95276
3333.32261	0.95306
3331.26881	0.95277
3329.21500	0.95228
3327.16120	0.95203
3325.10740	0.95206
3323.05359	0.95210
3320.99979	0.95204
3318.94599	0.95176
3316.89218	0.95145
3314.83838	0.95149
3312.78458	0.95162
3310.73077	0.95161
3308.67697	0.95183
3306.62317	0.95241
3304.56936	0.95259
3302.51556	0.95198
3300.46176	0.95129
3298.40795	0.95129
3296.35415	0.95180
3294.30035	0.95230
3292.24654	0.95255
3290.19274	0.95250
3288.13894	0.95217
3286.08513	0.95171
3284.03133	0.95155
3281.97753	0.95190
3279.92372	0.95233
3277.86992	0.95246
3275.81612	0.95281
3273.76232	0.95348
3271.70851	0.95379
3269.65471	0.95346
3267.60091	0.95308
3265.54710	0.95327
3263.49330	0.95348
3261.43950	0.95317
3259.38569	0.95322
3257.33189	0.95394
3255.27809	0.95455
3253.22428	0.95502
3251.17048	0.95555
3249.11668	0.95558
3247.06287	0.95508
3245.00907	0.95483
3242.95527	0.95532
3240.90146	0.95604
3238.84766	0.95611
3236.79386	0.95546
3234.74005	0.95515
3232.68625	0.95542
3230.63245	0.95601
3228.57864	0.95680
3226.52484	0.95727
3224.47104	0.95746
3222.41724	0.95760
3220.36343	0.95774
3218.30963	0.95797
3216.25583	0.95827
3214.20202	0.95848
3212.14822	0.95869
3210.09442	0.95893
3208.04061	0.95903
3205.98681	0.95930
3203.93301	0.95985
3201.87920	0.96016
3199.82540	0.95992
3197.77160	0.95957
3195.71779	0.95959
3193.66399	0.95985
3191.61019	0.96016
3189.55638	0.96043
3187.50258	0.96052
3185.44878	0.96069
3183.39497	0.96094
3181.34117	0.96073
3179.28737	0.96021
3177.23356	0.96037
3175.17976	0.96114
3173.12596	0.96145
3171.07215	0.96155
3169.01835	0.96207
3166.96455	0.96262
3164.91075	0.96285
3162.85694	0.96291
3160.80314	0.96291
3158.74934	0.96300
3156.69553	0.96319
3154.64173	0.96357
3152.58793	0.96422
3150.53412	0.96463
3148.48032	0.96486
3146.42652	0.96493
3144.37271	0.96445
3142.31891	0.96372
3140.26511	0.96312
3138.21130	0.96288
3136.15750	0.96325
3134.10370	0.96389
3132.04989	0.96413
3129.99609	0.96396
3127.94229	0.96370
3125.88848	0.96374
3123.83468	0.96405
3121.78088	0.96376
3119.72707	0.96298
3117.67327	0.96271
3115.61947	0.96320
3113.56566	0.96383
3111.51186	0.96408
3109.45806	0.96389
3107.40426	0.96364
3105.35045	0.96383
3103.29665	0.96406
3101.24285	0.96393
3099.18904	0.96421
3097.13524	0.96484
3095.08144	0.96506
3093.02763	0.96508
3090.97383	0.96556
3088.92003	0.96610
3086.86622	0.96594
3084.81242	0.96563
3082.75862	0.96550
3080.70481	0.96521
3078.65101	0.96485
3076.59721	0.96456
3074.54340	0.96457
3072.48960	0.96469
3070.43580	0.96442
3068.38199	0.96427
3066.32819	0.96458
3064.27439	0.96459
3062.22058	0.96434
3060.16678	0.96432
3058.11298	0.96425
3056.05918	0.96402
3054.00537	0.96368
3051.95157	0.96357
3049.89777	0.96373
3047.84396	0.96354
3045.79016	0.96322
3043.73636	0.96340
3041.68255	0.96370
3039.62875	0.96357
3037.57495	0.96307
3035.52114	0.96276
3033.46734	0.96308
3031.41354	0.96366
3029.35973	0.96390
3027.30593	0.96397
3025.25213	0.96421
3023.19832	0.96418
3021.14452	0.96416
3019.09072	0.96476
3017.03691	0.96512
3014.98311	0.96470
3012.92931	0.96454
3010.87550	0.96502
3008.82170	0.96517
3006.76790	0.96480
3004.71409	0.96463
3002.66029	0.96448
3000.60649	0.96388
2998.55269	0.96329
2996.49888	0.96298
2994.44508	0.96296
2992.39128	0.96299
2990.33747	0.96231
2988.28367	0.96074
2986.22987	0.95946
2984.17606	0.95912
2982.12226	0.95874
2980.06846	0.95778
2978.01465	0.95674
2975.96085	0.95604
2973.90705	0.95605
2971.85324	0.95665
2969.79944	0.95717
2967.74564	0.95748
2965.69183	0.95788
2963.63803	0.95831
2961.58423	0.95874
2959.53042	0.95949
2957.47662	0.96032
2955.42282	0.96071
2953.36901	0.96066
2951.31521	0.96064
2949.26141	0.96057
2947.20761	0.95989
2945.15380	0.95912
2943.10000	0.95872
2941.04620	0.95797
2938.99239	0.95681
2936.93859	0.95620
2934.88479	0.95610
2932.83098	0.95566
2930.77718	0.95488
2928.72338	0.95446
2926.66957	0.95489
2924.61577	0.95582
2922.56197	0.95614
2920.50816	0.95554
2918.45436	0.95499
2916.40056	0.95480
2914.34675	0.95482
2912.29295	0.95528
2910.23915	0.95575
2908.18534	0.95593
2906.13154	0.95613
2904.07774	0.95614
2902.02393	0.95576
2899.97013	0.95533
2897.91633	0.95529
2895.86252	0.95556
2893.80872	0.95580
2891.75492	0.95597
2889.70112	0.95604
2887.64731	0.95611
2885.59351	0.95619
2883.53971	0.95604
2881.48590	0.95591
2879.43210	0.95589
2877.37830	0.95557
2875.32449	0.95498
2873.27069	0.95442
2871.21689	0.95429
2869.16308	0.95482
2867.10928	0.95563
2865.05548	0.95596
2863.00167	0.95584
2860.94787	0.95595
2858.89407	0.95632
2856.84026	0.95672
2854.78646	0.95710
2852.73266	0.95764
2850.67885	0.95852
2848.62505	0.95950
2846.57125	0.96038
2844.51744	0.96108
2842.46364	0.96142
2840.40984	0.96149
2838.35603	0.96173
2836.30223	0.96230
2834.24843	0.96271
2832.19463	0.96279
2830.14082	0.96307
2828.08702	0.96355
2826.03322	0.96374
2823.97941	0.96394
2821.92561	0.96437
2819.87181	0.96466
2817.81800	0.96485
2815.76420	0.96526
2813.71040	0.96561
2811.65659	0.96564
2809.60279	0.96560
2807.54899	0.96586
2805.49518	0.96634
2803.44138	0.96650
2801.38758	0.96618
2799.33377	0.96594
2797.27997	0.96611
2795.22617	0.96621
2793.17236	0.96619
2791.11856	0.96644
2789.06476	0.96684
2787.01095	0.96695
2784.95715	0.96679
2782.90335	0.96696
2780.84955	0.96738
2778.79574	0.96740
2776.74194	0.96712
2774.68814	0.96689
2772.63433	0.96668
2770.58053	0.96659
2768.52673	0.96694
2766.47292	0.96747
2764.41912	0.96762
2762.36532	0.96724
2760.31151	0.96679
2758.25771	0.96678
2756.20391	0.96720
2754.15010	0.96754
2752.09630	0.96745
2750.04250	0.96724
2747.98869	0.96723
2745.93489	0.96733
2743.88109	0.96753
2741.82728	0.96791
2739.77348	0.96844
2737.71968	0.96890
2735.66587	0.96910
2733.61207	0.96900
2731.55827	0.96862
2729.50446	0.96828
2727.45066	0.96826
2725.39686	0.96832
2723.34306	0.96838
2721.28925	0.96868
2719.23545	0.96883
2717.18165	0.96882
2715.12784	0.96894
2713.07404	0.96891
2711.02024	0.96878
2708.96643	0.96883
2706.91263	0.96893
2704.85883	0.96882
2702.80502	0.96873
2700.75122	0.96897
2698.69742	0.96935
2696.64361	0.96949
2694.58981	0.96925
2692.53601	0.96908
2690.48220	0.96930
2688.42840	0.96949
2686.37460	0.96950
2684.32079	0.96946
2682.26699	0.96935
2680.21319	0.96946
2678.15938	0.96988
2676.10558	0.97002
2674.05178	0.96980
2671.99797	0.96963
2669.94417	0.96938
2667.89037	0.96923
2665.83657	0.96950
2663.78276	0.96983
2661.72896	0.96997
2659.67516	0.97027
2657.62135	0.97052
2655.56755	0.97027
2653.51375	0.96997
2651.45994	0.96996
2649.40614	0.97009
2647.35234	0.97036
2645.29853	0.97038
2643.24473	0.97008
2641.19093	0.96990
2639.13712	0.96975
2637.08332	0.96949
2635.02952	0.96935
2632.97571	0.96942
2630.92191	0.96963
2628.86811	0.97001
2626.81430	0.97036
2624.76050	0.97012
2622.70670	0.96967
2620.65289	0.96983
2618.59909	0.97035
2616.54529	0.97073
2614.49149	0.97093
2612.43768	0.97081
2610.38388	0.97057
2608.33008	0.97064
2606.27627	0.97078
2604.22247	0.97063
2602.16867	0.97054
2600.11486	0.97057
2598.06106	0.97026
2596.00726	0.97007
2593.95345	0.97046
2591.89965	0.97070
2589.84585	0.97057
2587.79204	0.97070
2585.73824	0.97108
2583.68444	0.97160
2581.63063	0.97213
2579.57683	0.97216
2577.52303	0.97168
2575.46922	0.97102
2573.41542	0.97071
2571.36162	0.97110
2569.30781	0.97143
2567.25401	0.97132
2565.20021	0.97122
2563.14640	0.97108
2561.09260	0.97107
2559.03880	0.97109
2556.98500	0.97084
2554.93119	0.97082
2552.87739	0.97113
2550.82359	0.97132
2548.76978	0.97131
2546.71598	0.97127
2544.66218	0.97091
2542.60837	0.97024
2540.55457	0.97032
2538.50077	0.97109
2536.44696	0.97130
2534.39316	0.97085
2532.33936	0.97060
2530.28555	0.97120
2528.23175	0.97251
2526.17795	0.97317
2524.12414	0.97268
2522.07034	0.97210
2520.01654	0.97188
2517.96273	0.97164
2515.90893	0.97136
2513.85513	0.97132
2511.80132	0.97126
2509.74752	0.97107
2507.69372	0.97121
2505.63992	0.97155
2503.58611	0.97151
2501.53231	0.97100
2499.47851	0.97030
2497.42470	0.97036
2495.37090	0.97121
2493.31710	0.97153
2491.26329	0.97139
2489.20949	0.97155
2487.15569	0.97211
2485.10188	0.97306
2483.04808	0.97370
2480.99428	0.97395
2478.94047	0.97397
2476.88667	0.97305
2474.83287	0.97225
2472.77906	0.97258
2470.72526	0.97249
2468.67146	0.97172
2466.61765	0.97153
2464.56385	0.97209
2462.51005	0.97265
2460.45624	0.97265
2458.40244	0.97246
2456.34864	0.97239
2454.29483	0.97210
2452.24103	0.97164
2450.18723	0.97144
2448.13343	0.97140
2446.07962	0.97139
2444.02582	0.97127
2441.97202	0.97128
2439.91821	0.97195
2437.86441	0.97256
2435.81061	0.97203
2433.75680	0.97095
2431.70300	0.97060
2429.64920	0.97097
2427.59539	0.97138
2425.54159	0.97171
2423.48779	0.97207
2421.43398	0.97232
2419.38018	0.97215
2417.32638	0.97178
2415.27257	0.97139
2413.21877	0.97089
2411.16497	0.97089
2409.11116	0.97187
2407.05736	0.97306
2405.00356	0.97331
2402.94975	0.97261
2400.89595	0.97207
2398.84215	0.97224
2396.78834	0.97262
2394.73454	0.97276
2392.68074	0.97285
2390.62694	0.97277
2388.57313	0.97242
2386.51933	0.97235
2384.46553	0.97245
2382.41172	0.97208
2380.35792	0.97180
2378.30412	0.97224
2376.25031	0.97276
2374.19651	0.97261
2372.14271	0.97181
2370.08890	0.97067
2368.03510	0.97035
2365.98130	0.97155
2363.92749	0.97206
2361.87369	0.97033
2359.81989	0.96845
2357.76608	0.96842
2355.71228	0.96942
2353.65848	0.96978
2351.60467	0.96986
2349.55087	0.97037
2347.49707	0.97067
2345.44326	0.97023
2343.38946	0.97031
2341.33566	0.97112
2339.28186	0.97084
2337.22805	0.97052
2335.17425	0.97161
2333.12045	0.97289
2331.06664	0.97320
2329.01284	0.97283
2326.95904	0.97174
2324.90523	0.96996
2322.85143	0.96901
2320.79763	0.96943
2318.74382	0.97024
2316.69002	0.97070
2314.63622	0.97069
2312.58241	0.97099
2310.52861	0.97185
2308.47481	0.97203
2306.42100	0.97143
2304.36720	0.97121
2302.31340	0.97142
2300.25959	0.97170
2298.20579	0.97177
2296.15199	0.97136
2294.09818	0.97111
2292.04438	0.97124
2289.99058	0.97142
2287.93677	0.97171
2285.88297	0.97201
2283.82917	0.97227
2281.77537	0.97193
2279.72156	0.97098
2277.66776	0.97107
2275.61396	0.97252
2273.56015	0.97391
2271.50635	0.97406
2269.45255	0.97307
2267.39874	0.97207
2265.34494	0.97192
2263.29114	0.97233
2261.23733	0.97207
2259.18353	0.97117
2257.12973	0.97088
2255.07592	0.97141
2253.02212	0.97236
2250.96832	0.97318
2248.91451	0.97258
2246.86071	0.97120
2244.80691	0.97082
2242.75310	0.97077
2240.69930	0.97071
2238.64550	0.97150
2236.59169	0.97299
2234.53789	0.97380
2232.48409	0.97257
2230.43029	0.97062
2228.37648	0.97054
2226.32268	0.97177
2224.26888	0.97160
2222.21507	0.97078
2220.16127	0.97212
2218.10747	0.97427
2216.05366	0.97457
2213.99986	0.97422
2211.94606	0.97507
2209.89225	0.97686
2207.83845	0.97789
2205.78465	0.97666
2203.73084	0.97534
2201.67704	0.97582
2199.62324	0.97551
2197.56943	0.97291
2195.51563	0.97092
2193.46183	0.97209
2191.40802	0.97478
2189.35422	0.97606
2187.30042	0.97661
2185.24661	0.97794
2183.19281	0.97734
2181.13901	0.97373
2179.08520	0.97155
2177.03140	0.97336
2174.97760	0.97649
2172.92380	0.97746
2170.86999	0.97719
2168.81619	0.97705
2166.76239	0.97518
2164.70858	0.97258
2162.65478	0.97152
2160.60098	0.97240
2158.54717	0.97480
2156.49337	0.97703
2154.43957	0.97926
2152.38576	0.98043
2150.33196	0.97997
2148.27816	0.97971
2146.22435	0.98007
2144.17055	0.98015
2142.11675	0.97783
2140.06294	0.97400
2138.00914	0.97281
2135.95534	0.97502
2133.90153	0.97762
2131.84773	0.97749
2129.79393	0.97558
2127.74012	0.97491
2125.68632	0.97577
2123.63252	0.97617
2121.57871	0.97474
2119.52491	0.97316
2117.47111	0.97268
2115.41731	0.97222
2113.36350	0.97240
2111.30970	0.97388
2109.25590	0.97453
2107.20209	0.97338
2105.14829	0.97216
2103.09449	0.97182
2101.04068	0.97148
2098.98688	0.97140
2096.93308	0.97222
2094.87927	0.97276
2092.82547	0.97256
2090.77167	0.97252
2088.71786	0.97248
2086.66406	0.97170
2084.61026	0.97179
2082.55645	0.97306
2080.50265	0.97312
2078.44885	0.97247
2076.39504	0.97218
2074.34124	0.97237
2072.28744	0.97331
2070.23363	0.97334
2068.17983	0.97275
2066.12603	0.97359
2064.07223	0.97486
2062.01842	0.97533
2059.96462	0.97522
2057.91082	0.97529
2055.85701	0.97658
2053.80321	0.97788
2051.74941	0.97692
2049.69560	0.97489
2047.64180	0.97469
2045.58800	0.97510
2043.53419	0.97464
2041.48039	0.97459
2039.42659	0.97475
2037.37278	0.97489
2035.31898	0.97515
2033.26518	0.97454
2031.21137	0.97328
2029.15757	0.97406
2027.10377	0.97607
2025.04996	0.97649
2022.99616	0.97634
2020.94236	0.97583
2018.88855	0.97381
2016.83475	0.97131
2014.78095	0.96982
2012.72714	0.96906
2010.67334	0.96891
2008.61954	0.97017
2006.56574	0.97345
2004.51193	0.97650
2002.45813	0.97657
2000.40433	0.97534
1998.35052	0.97549
1996.29672	0.97618
1994.24292	0.97550
1992.18911	0.97402
1990.13531	0.97299
1988.08151	0.97354
1986.02770	0.97552
1983.97390	0.97724
1981.92010	0.97719
1979.86629	0.97576
1977.81249	0.97529
1975.75869	0.97464
1973.70488	0.97334
1971.65108	0.97342
1969.59728	0.97418
1967.54347	0.97497
1965.48967	0.97625
1963.43587	0.97794
1961.38206	0.97835
1959.32826	0.97707
1957.27446	0.97653
1955.22066	0.97727
1953.16685	0.97811
1951.11305	0.97807
1949.05925	0.97662
1947.00544	0.97530
1944.95164	0.97551
1942.89784	0.97667
1940.84403	0.97715
1938.79023	0.97645
1936.73643	0.97617
1934.68262	0.97692
1932.62882	0.97771
1930.57502	0.97790
1928.52121	0.97763
1926.46741	0.97714
1924.41361	0.97645
1922.35980	0.97576
1920.30600	0.97559
1918.25220	0.97548
1916.19839	0.97471
1914.14459	0.97360
1912.09079	0.97352
1910.03698	0.97516
1907.98318	0.97642
1905.92938	0.97579
1903.87557	0.97456
1901.82177	0.97390
1899.76797	0.97387
1897.71417	0.97408
1895.66036	0.97391
1893.60656	0.97313
1891.55276	0.97266
1889.49895	0.97318
1887.44515	0.97426
1885.39135	0.97497
1883.33754	0.97484
1881.28374	0.97448
1879.22994	0.97430
1877.17613	0.97407
1875.12233	0.97442
1873.06853	0.97517
1871.01472	0.97548
1868.96092	0.97564
1866.90712	0.97546
1864.85331	0.97502
1862.79951	0.97504
1860.74571	0.97515
1858.69190	0.97534
1856.63810	0.97608
1854.58430	0.97644
1852.53049	0.97591
1850.47669	0.97559
1848.42289	0.97566
1846.36908	0.97543
1844.31528	0.97512
1842.26148	0.97526
1840.20768	0.97557
1838.15387	0.97570
1836.10007	0.97581
1834.04627	0.97586
1831.99246	0.97563
1829.93866	0.97583
1827.88486	0.97627
1825.83105	0.97589
1823.77725	0.97524
1821.72345	0.97520
1819.66964	0.97550
1817.61584	0.97595
1815.56204	0.97649
1813.50823	0.97692
1811.45443	0.97714
1809.40063	0.97654
1807.34682	0.97517
1805.29302	0.97421
1803.23922	0.97434
1801.18541	0.97492
1799.13161	0.97504
1797.07781	0.97509
1795.02400	0.97538
1792.97020	0.97544
1790.91640	0.97487
1788.86260	0.97443
1786.80879	0.97457
1784.75499	0.97505
1782.70119	0.97564
1780.64738	0.97577
1778.59358	0.97554
1776.53978	0.97578
1774.48597	0.97631
1772.43217	0.97647
1770.37837	0.97578
1768.32456	0.97501
1766.27076	0.97492
1764.21696	0.97500
1762.16315	0.97445
1760.10935	0.97370
1758.05555	0.97352
1756.00174	0.97324
1753.94794	0.97208
1751.89414	0.97004
1749.84033	0.96721
1747.78653	0.96398
1745.73273	0.96043
1743.67892	0.95595
1741.62512	0.95020
1739.57132	0.94366
1737.51751	0.93811
1735.46371	0.93270
1733.40991	0.92538
1731.35611	0.91965
1729.30230	0.91550
1727.24850	0.91140
1725.19470	0.90801
1723.14089	0.90532
1721.08709	0.90307
1719.03329	0.90056
1716.97948	0.89735
1714.92568	0.89511
1712.87188	0.89392
1710.81807	0.89278
1708.76427	0.89166
1706.71047	0.89060
1704.65666	0.88944
1702.60286	0.88880
1700.54906	0.88911
1698.49525	0.88958
1696.44145	0.89036
1694.38765	0.89200
1692.33384	0.89382
1690.28004	0.89585
1688.22624	0.89822
1686.17243	0.90058
1684.11863	0.90380
1682.06483	0.90720
1680.01103	0.90951
1677.95722	0.91136
1675.90342	0.91368
1673.84962	0.91662
1671.79581	0.91893
1669.74201	0.92112
1667.68821	0.92323
1665.63440	0.92459
1663.58060	0.92598
1661.52680	0.92767
1659.47299	0.92902
1657.41919	0.92996
1655.36539	0.93093
1653.31158	0.93252
1651.25778	0.93393
1649.20398	0.93484
1647.15017	0.93600
1645.09637	0.93718
1643.04257	0.93822
1640.98876	0.93931
1638.93496	0.94019
1636.88116	0.94083
1634.82735	0.94154
1632.77355	0.94194
1630.71975	0.94186
1628.66594	0.94156
1626.61214	0.94145
1624.55834	0.94124
1622.50454	0.94004
1620.45073	0.93827
1618.39693	0.93587
1616.34313	0.93170
1614.28932	0.92751
1612.23552	0.92469
1610.18172	0.92244
1608.12791	0.92045
1606.07411	0.91838
1604.02031	0.91555
1601.96650	0.91191
1599.91270	0.90841
1597.85890	0.90587
1595.80509	0.90466
1593.75129	0.90534
1591.69749	0.90821
1589.64368	0.91310
1587.58988	0.91930
1585.53608	0.92592
1583.48227	0.93224
1581.42847	0.93789
1579.37467	0.94263
1577.32086	0.94664
1575.26706	0.94981
1573.21326	0.95150
1571.15945	0.95280
1569.10565	0.95435
1567.05185	0.95533
1564.99805	0.95541
1562.94424	0.95513
1560.89044	0.95458
1558.83664	0.95144
1556.78283	0.94578
1554.72903	0.94090
1552.67523	0.93558
1550.62142	0.92921
1548.56762	0.92195
1546.51382	0.91506
1544.46001	0.90806
1542.40621	0.90065
1540.35241	0.89195
1538.29860	0.88339
1536.24480	0.87863
1534.19100	0.87462
1532.13719	0.86971
1530.08339	0.86555
1528.02959	0.86203
1525.97578	0.85851
1523.92198	0.85521
1521.86818	0.85187
1519.81437	0.84880
1517.76057	0.84576
1515.70677	0.84241
1513.65297	0.84001
1511.59916	0.83916
1509.54536	0.84010
1507.49156	0.84481
1505.43775	0.85367
1503.38395	0.86096
1501.33015	0.86768
1499.27634	0.87520
1497.22254	0.88336
1495.16874	0.89045
1493.11493	0.89504
1491.06113	0.89889
1489.00733	0.90367
1486.95352	0.90776
1484.89972	0.91040
1482.84592	0.91226
1480.79211	0.91364
1478.73831	0.91493
1476.68451	0.91624
1474.63070	0.91724
1472.57690	0.91814
1470.52310	0.91927
1468.46929	0.92014
1466.41549	0.92071
1464.36169	0.92089
1462.30788	0.92074
1460.25408	0.92040
1458.20028	0.91970
1456.14648	0.91857
1454.09267	0.91781
1452.03887	0.91758
1449.98507	0.91794
1447.93126	0.91891
1445.87746	0.92009
1443.82366	0.92120
1441.76985	0.92224
1439.71605	0.92320
1437.66225	0.92394
1435.60844	0.92452
1433.55464	0.92522
1431.50084	0.92647
1429.44703	0.92817
1427.39323	0.92927
1425.33943	0.92955
1423.28562	0.92902
1421.23182	0.92645
1419.17802	0.91880
1417.12421	0.90656
1415.07041	0.89542
1413.01661	0.88726
1410.96280	0.88429
1408.90900	0.88738
1406.85520	0.89410
1404.80139	0.90196
1402.74759	0.90852
1400.69379	0.91304
1398.63999	0.91626
1396.58618	0.91787
1394.53238	0.91836
1392.47858	0.91860
1390.42477	0.91860
1388.37097	0.91802
1386.31717	0.91659
1384.26336	0.91466
1382.20956	0.91246
1380.15576	0.91021
1378.10195	0.90851
1376.04815	0.90778
1373.99435	0.90843
1371.94054	0.91037
1369.88674	0.91324
1367.83294	0.91696
1365.77913	0.92060
1363.72533	0.92355
1361.67153	0.92594
1359.61772	0.92781
1357.56392	0.92918
1355.51012	0.93014
1353.45631	0.93070
1351.40251	0.93097
1349.34871	0.93117
1347.29491	0.93127
1345.24110	0.93135
1343.18730	0.93142
1341.13350	0.93149
1339.07969	0.93166
1337.02589	0.93188
1334.97209	0.93180
1332.91828	0.93104
1330.86448	0.92948
1328.81068	0.92723
1326.75687	0.92412
1324.70307	0.91971
1322.64927	0.91387
1320.59546	0.90700
1318.54166	0.90000
1316.48786	0.89394
1314.43405	0.88918
1312.38025	0.88564
1310.32645	0.88344
1308.27264	0.88254
1306.21884	0.88303
1304.16504	0.88500
1302.11123	0.88828
1300.05743	0.89243
1298.00363	0.89661
1295.94982	0.90048
1293.89602	0.90443
1291.84222	0.90830
1289.78842	0.91158
1287.73461	0.91430
1285.68081	0.91638
1283.62701	0.91756
1281.57320	0.91799
1279.51940	0.91851
1277.46560	0.91952
1275.41179	0.92037
1273.35799	0.92075
1271.30419	0.92106
1269.25038	0.92130
1267.19658	0.92112
1265.14278	0.92067
1263.08897	0.91994
1261.03517	0.91850
1258.98137	0.91618
1256.92756	0.91331
1254.87376	0.91023
1252.81996	0.90685
1250.76615	0.90287
1248.71235	0.89840
1246.65855	0.89357
1244.60474	0.88782
1242.55094	0.88097
1240.49714	0.87367
1238.44334	0.86626
1236.38953	0.85895
1234.33573	0.85199
1232.28193	0.84533
1230.22812	0.83916
1228.17432	0.83391
1226.12052	0.82944
1224.06671	0.82550
1222.01291	0.82256
1219.95911	0.82125
1217.90530	0.82166
1215.85150	0.82348
1213.79770	0.82646
1211.74389	0.82993
1209.69009	0.83310
1207.63629	0.83599
1205.58248	0.83892
1203.52868	0.84228
1201.47488	0.84668
1199.42107	0.85193
1197.36727	0.85716
1195.31347	0.86205
1193.25966	0.86659
1191.20586	0.87036
1189.15206	0.87321
1187.09825	0.87542
1185.04445	0.87679
1182.99065	0.87720
1180.93685	0.87723
1178.88304	0.87730
1176.82924	0.87741
1174.77544	0.87779
1172.72163	0.87842
1170.66783	0.87849
1168.61403	0.87783
1166.56022	0.87710
1164.50642	0.87633
1162.45262	0.87515
1160.39881	0.87378
1158.34501	0.87286
1156.29121	0.87247
1154.23740	0.87198
1152.18360	0.87116
1150.12980	0.87034
1148.07599	0.86970
1146.02219	0.86918
1143.96839	0.86855
1141.91458	0.86763
1139.86078	0.86653
1137.80698	0.86513
1135.75317	0.86344
1133.69937	0.86166
1131.64557	0.85954
1129.59176	0.85696
1127.53796	0.85412
1125.48416	0.85125
1123.43036	0.84847
1121.37655	0.84549
1119.32275	0.84213
1117.26895	0.83870
1115.21514	0.83543
1113.16134	0.83229
1111.10754	0.82908
1109.05373	0.82587
1106.99993	0.82291
1104.94613	0.82031
1102.89232	0.81790
1100.83852	0.81502
1098.78472	0.81183
1096.73091	0.80918
1094.67711	0.80699
1092.62331	0.80466
1090.56950	0.80219
1088.51570	0.79996
1086.46190	0.79771
1084.40809	0.79499
1082.35429	0.79185
1080.30049	0.78884
1078.24668	0.78625
1076.19288	0.78386
1074.13908	0.78173
1072.08528	0.77987
1070.03147	0.77818
1067.97767	0.77679
1065.92387	0.77568
1063.87006	0.77479
1061.81626	0.77436
1059.76246	0.77441
1057.70865	0.77420
1055.65485	0.77334
1053.60105	0.77242
1051.54724	0.77120
1049.49344	0.76886
1047.43964	0.76559
1045.38583	0.76207
1043.33203	0.75879
1041.27823	0.75635
1039.22442	0.75518
1037.17062	0.75479
1035.11682	0.75508
1033.06301	0.75667
1031.00921	0.75905
1028.95541	0.76157
1026.90160	0.76424
1024.84780	0.76639
1022.79400	0.76620
1020.74019	0.76227
1018.68639	0.75641
1016.63259	0.75282
1014.57879	0.75351
1012.52498	0.75670
1010.47118	0.76039
1008.41738	0.76400
1006.36357	0.76703
1004.30977	0.76938
1002.25597	0.77176
1000.20216	0.77452
998.14836	0.77751
996.09456	0.78058
994.04075	0.78367
991.98695	0.78659
989.93315	0.78908
987.87934	0.79168
985.82554	0.79496
983.77174	0.79847
981.71793	0.80191
979.66413	0.80536
977.61033	0.80875
975.55652	0.81179
973.50272	0.81458
971.44892	0.81756
969.39511	0.82081
967.34131	0.82441
965.28751	0.82813
963.23371	0.83110
961.17990	0.83337
959.12610	0.83561
957.07230	0.83791
955.01849	0.83984
952.96469	0.84153
950.91089	0.84354
948.85708	0.84550
946.80328	0.84677
944.74948	0.84770
942.69567	0.84858
940.64187	0.84925
938.58807	0.84960
936.53426	0.84969
934.48046	0.84972
932.42666	0.84991
930.37285	0.85029
928.31905	0.85094
926.26525	0.85185
924.21144	0.85256
922.15764	0.85268
920.10384	0.85265
918.05003	0.85300
915.99623	0.85362
913.94243	0.85466
911.88862	0.85657
909.83482	0.85887
907.78102	0.86097
905.72722	0.86364
903.67341	0.86707
901.61961	0.86995
899.56581	0.87221
897.51200	0.87459
895.45820	0.87677
893.40440	0.87837
891.35059	0.87981
889.29679	0.88146
887.24299	0.88329
885.18918	0.88516
883.13538	0.88648
881.08158	0.88719
879.02777	0.88790
876.97397	0.88850
874.92017	0.88904
872.86636	0.89028
870.81256	0.89154
868.75876	0.89161
866.70495	0.89090
864.65115	0.89023
862.59735	0.88942
860.54354	0.88777
858.48974	0.88524
856.43594	0.88276
854.38213	0.88129
852.32833	0.88078
850.27453	0.88058
848.22073	0.88036
846.16692	0.88002
844.11312	0.87894
842.05932	0.87676
840.00551	0.87419
837.95171	0.87187
835.89791	0.86974
833.84410	0.86734
831.79030	0.86450
829.73650	0.86201
827.68269	0.85997
825.62889	0.85771
823.57509	0.85526
821.52128	0.85265
819.46748	0.84982
817.41368	0.84717
815.35987	0.84560
813.30607	0.84582
811.25227	0.84783
809.19846	0.85062
807.14466	0.85317
805.09086	0.85492
803.03705	0.85586
800.98325	0.85654
798.92945	0.85723
796.87565	0.85813
794.82184	0.85912
792.76804	0.86002
790.71424	0.86072
788.66043	0.86059
786.60663	0.85956
784.55283	0.85821
782.49902	0.85658
780.44522	0.85504
778.39142	0.85340
776.33761	0.85052
774.28381	0.84639
772.23001	0.84119
770.17620	0.83556
768.12240	0.83151
766.06860	0.82993
764.01479	0.82959
761.96099	0.83016
759.90719	0.83237
757.85338	0.83512
755.79958	0.83720
753.74578	0.83863
751.69197	0.83976
749.63817	0.84168
747.58437	0.84427
745.53056	0.84601
743.47676	0.84738
741.42296	0.84980
739.36916	0.85284
737.31535	0.85577
735.26155	0.85893
733.20775	0.86194
731.15394	0.86347
729.10014	0.86341
727.04634	0.86308
724.99253	0.86327
722.93873	0.86366
720.88493	0.86411
718.83112	0.86449
716.77732	0.86452
714.72352	0.86418
712.66971	0.86321
710.61591	0.86225
708.56211	0.86203
706.50830	0.86190
704.45450	0.86129
702.40070	0.86039
700.34689	0.85960
698.29309	0.85870
696.23929	0.85808
694.18548	0.85875
692.13168	0.86002
690.07788	0.86034
688.02408	0.85976
685.97027	0.85990
683.91647	0.86090
681.86267	0.86105
679.80886	0.86058
677.75506	0.86057
675.70126	0.86072
673.64745	0.86065
671.59365	0.86036
669.53985	0.85999
667.48604	0.85972
665.43224	0.86006
663.37844	0.86021
661.32463	0.85972
659.27083	0.85943
657.21703	0.85890
655.16322	0.85776
653.10942	0.85652
651.05562	0.85536
649.00181	0.85428
646.94801	0.85303
644.89421	0.85209
642.84040	0.85195
640.78660	0.85260
638.73280	0.85375
636.67899	0.85551
634.62519	0.85760
632.57139	0.85821
630.51759	0.85720
628.46378	0.85647
626.40998	0.85630
624.35618	0.85530
622.30237	0.85417
620.24857	0.85405
618.19477	0.85338
616.14096	0.85151
614.08716	0.84948
612.03336	0.84750
609.97955	0.84586
607.92575	0.84421
605.87195	0.84239
603.81814	0.84183
601.76434	0.84221
599.71054	0.84188
597.65673	0.84066
595.60293	0.83911
593.54913	0.83855
591.49532	0.83914
589.44152	0.83888
587.38772	0.83755
585.33391	0.83648
583.28011	0.83585
581.22631	0.83588
579.17250	0.83581
577.11870	0.83431
575.06490	0.83265
573.01110	0.83269
570.95729	0.83368
568.90349	0.83360
566.84969	0.83208
564.79588	0.83043
562.74208	0.82897
560.68828	0.82678
558.63447	0.82390
556.58067	0.82153
554.52687	0.82009
552.47306	0.81907
550.41926	0.81885
548.36546	0.81865
546.31165	0.81594
544.25785	0.81137
542.20405	0.80732
540.15024	0.80514
538.09644	0.80476
536.04264	0.80309
533.98883	0.79891
531.93503	0.79560
529.88123	0.79423
527.82742	0.79301
525.77362	0.79257
523.71982	0.79345
521.66602	0.79269
519.61221	0.78925
517.55841	0.78544
515.50461	0.78194
513.45080	0.77857
511.39700	0.77629
509.34320	0.77571
507.28939	0.77675
505.23559	0.77842
503.18179	0.77976
501.12798	0.78151
499.07418	0.78448
497.02038	0.78676
494.96657	0.78633
492.91277	0.78532
490.85897	0.78560
488.80516	0.78429
486.75136	0.78183
484.69756	0.78134
482.64375	0.77949
480.58995	0.77313
478.53615	0.76521
476.48234	0.75843
474.42854	0.75545
472.37474	0.75689
470.32093	0.75719
468.26713	0.75482
466.21333	0.75243
464.15953	0.75110
462.10572	0.75197
460.05192	0.75365
457.99812	0.75634
455.94431	0.76084
453.89051	0.76253
451.83671	0.76212
449.78290	0.76332
447.72910	0.76439
445.67530	0.76388
443.62149	0.76425
441.56769	0.76747
439.51389	0.77039
437.46008	0.76854
435.40628	0.76487
433.35248	0.76525
431.29867	0.76802
429.24487	0.76713
427.19107	0.76232
425.13726	0.76104
423.08346	0.76449
421.02966	0.76549
418.97585	0.76401
416.92205	0.76560
414.86825	0.76787
412.81445	0.76865
410.76064	0.76942
408.70684	0.77107
406.65304	0.77465
404.59923	0.78096
402.54543	0.78759
400.49163	0.79307
398.43782	0.79381
