3996.70104	0.99449
3994.64724	0.99398
3992.59344	0.99399
3990.53964	0.99483
3988.48583	0.99554
3986.43203	0.99530
3984.37823	0.99472
3982.32442	0.99464
3980.27062	0.99497
3978.21682	0.99523
3976.16301	0.99524
3974.10921	0.99491
3972.05541	0.99448
3970.00160	0.99432
3967.94780	0.99438
3965.89400	0.99466
3963.84019	0.99487
3961.78639	0.99490
3959.73259	0.99521
3957.67878	0.99534
3955.62498	0.99461
3953.57118	0.99399
3951.51737	0.99439
3949.46357	0.99519
3947.40977	0.99557
3945.35596	0.99541
3943.30216	0.99477
3941.24836	0.99392
3939.19455	0.99318
3937.14075	0.99285
3935.08695	0.99298
3933.03315	0.99339
3930.97934	0.99400
3928.92554	0.99462
3926.87174	0.99477
3924.81793	0.99434
3922.76413	0.99439
3920.71033	0.99511
3918.65652	0.99555
3916.60272	0.99571
3914.54892	0.99577
3912.49511	0.99519
3910.44131	0.99468
3908.38751	0.99502
3906.33370	0.99553
3904.27990	0.99576
3902.22610	0.99562
3900.17229	0.99510
3898.11849	0.99454
3896.06469	0.99414
3894.01088	0.99414
3891.95708	0.99472
3889.90328	0.99520
3887.84947	0.99504
3885.79567	0.99533
3883.74187	0.99615
3881.68807	0.99594
3879.63426	0.99512
3877.58046	0.99493
3875.52666	0.99525
3873.47285	0.99551
3871.41905	0.99562
3869.36525	0.99549
3867.31144	0.99497
3865.25764	0.99460
3863.20384	0.99469
3861.15003	0.99467
3859.09623	0.99461
3857.04243	0.99507
3854.98862	0.99540
3852.93482	0.99489
3850.88102	0.99524
3848.82721	0.99573
3846.77341	0.99547
3844.71961	0.99529
3842.66580	0.99548
3840.61200	0.99557
3838.55820	0.99536
3836.50439	0.99477
3834.45059	0.99407
3832.39679	0.99378
3830.34298	0.99413
3828.28918	0.99439
3826.23538	0.99396
3824.18158	0.99341
3822.12777	0.99332
3820.07397	0.99403
3818.02017	0.99504
3815.96636	0.99581
3813.91256	0.99615
3811.85876	0.99563
3809.80495	0.99479
3807.75115	0.99456
3805.69735	0.99457
3803.64354	0.99427
3801.58974	0.99402
3799.53594	0.99424
3797.48213	0.99456
3795.42833	0.99454
3793.37453	0.99454
3791.32072	0.99472
3789.26692	0.99480
3787.21312	0.99476
3785.15931	0.99433
3783.10551	0.99355
3781.05171	0.99316
3778.99790	0.99340
3776.94410	0.99388
3774.89030	0.99419
3772.83650	0.99411
3770.78269	0.99398
3768.72889	0.99445
3766.67509	0.99501
3764.62128	0.99480
3762.56748	0.99437
3760.51368	0.99428
3758.45987	0.99417
3756.40607	0.99411
3754.35227	0.99427
3752.29846	0.99373
3750.24466	0.99247
3748.19086	0.99269
3746.13705	0.99369
3744.08325	0.99398
3742.02945	0.99374
3739.97564	0.99360
3737.92184	0.99345
3735.86804	0.99317
3733.81423	0.99343
3731.76043	0.99428
3729.70663	0.99478
3727.65282	0.99473
3725.59902	0.99462
3723.54522	0.99481
3721.49141	0.99500
3719.43761	0.99516
3717.38381	0.99497
3715.33001	0.99426
3713.27620	0.99364
3711.22240	0.99361
3709.16860	0.99361
3707.11479	0.99327
3705.06099	0.99282
3703.00719	0.99234
3700.95338	0.99228
3698.89958	0.99242
3696.84578	0.99226
3694.79197	0.99222
3692.73817	0.99223
3690.68437	0.99176
3688.63056	0.99113
3686.57676	0.99111
3684.52296	0.99146
3682.46915	0.99169
3680.41535	0.99156
3678.36155	0.99097
3676.30774	0.99039
3674.25394	0.99095
3672.20014	0.99120
3670.14633	0.99004
3668.09253	0.98964
3666.03873	0.99027
3663.98492	0.99025
3661.93112	0.98969
3659.87732	0.98944
3657.82352	0.98973
3655.76971	0.99040
3653.71591	0.99119
3651.66211	0.99144
3649.60830	0.99022
3647.55450	0.98837
3645.50070	0.98767
3643.44689	0.98747
3641.39309	0.98706
3639.33929	0.98673
3637.28548	0.98652
3635.23168	0.98605
3633.17788	0.98598
3631.12407	0.98674
3629.07027	0.98681
3627.01647	0.98572
3624.96266	0.98512
3622.90886	0.98475
3620.85506	0.98454
3618.80125	0.98468
3616.74745	0.98457
3614.69365	0.98434
3612.63984	0.98424
3610.58604	0.98424
3608.53224	0.98403
3606.47844	0.98343
3604.42463	0.98310
3602.37083	0.98315
3600.31703	0.98288
3598.26322	0.98231
3596.20942	0.98195
3594.15562	0.98171
3592.10181	0.98197
3590.04801	0.98240
3587.99421	0.98207
3585.94040	0.98134
3583.88660	0.98095
3581.83280	0.98060
3579.77899	0.98027
3577.72519	0.98030
3575.67139	0.98032
3573.61758	0.97981
3571.56378	0.97934
3569.50998	0.97932
3567.45617	0.97971
3565.40237	0.98024
3563.34857	0.97987
3561.29476	0.97851
3559.24096	0.97727
3557.18716	0.97688
3555.13335	0.97687
3553.07955	0.97703
3551.02575	0.97715
3548.97195	0.97658
3546.91814	0.97586
3544.86434	0.97589
3542.81054	0.97595
3540.75673	0.97536
3538.70293	0.97488
3536.64913	0.97452
3534.59532	0.97404
3532.54152	0.97401
3530.48772	0.97385
3528.43391	0.97336
3526.38011	0.97339
3524.32631	0.97364
3522.27250	0.97348
3520.21870	0.97305
3518.16490	0.97266
3516.11109	0.97232
3514.05729	0.97224
3512.00349	0.97208
3509.94968	0.97138
3507.89588	0.97094
3505.84208	0.97129
3503.78827	0.97170
3501.73447	0.97142
3499.68067	0.97108
3497.62687	0.97143
3495.57306	0.97152
3493.51926	0.97091
3491.46546	0.97050
3489.41165	0.97020
3487.35785	0.96945
3485.30405	0.96887
3483.25024	0.96880
3481.19644	0.96872
3479.14264	0.96860
3477.08883	0.96851
3475.03503	0.96832
3472.98123	0.96791
3470.92742	0.96740
3468.87362	0.96699
3466.81982	0.96690
3464.76601	0.96722
3462.71221	0.96742
3460.65841	0.96699
3458.60460	0.96644
3456.55080	0.96621
3454.49700	0.96575
3452.44319	0.96502
3450.38939	0.96451
3448.33559	0.96442
3446.28178	0.96456
3444.22798	0.96469
3442.17418	0.96465
3440.12038	0.96427
3438.06657	0.96387
3436.01277	0.96377
3433.95897	0.96375
3431.90516	0.96349
3429.85136	0.96314
3427.79756	0.96276
3425.74375	0.96232
3423.68995	0.96207
3421.63615	0.96207
3419.58234	0.96195
3417.52854	0.96159
3415.47474	0.96151
3413.42093	0.96171
3411.36713	0.96169
3409.31333	0.96128
3407.25952	0.96064
3405.20572	0.96002
3403.15192	0.95989
3401.09811	0.96040
3399.04431	0.96079
3396.99051	0.96038
3394.93670	0.95980
3392.88290	0.95964
3390.82910	0.95958
3388.77529	0.95975
3386.72149	0.95994
3384.66769	0.95964
3382.61389	0.95919
3380.56008	0.95915
3378.50628	0.95917
3376.45248	0.95856
3374.39867	0.95768
3372.34487	0.95725
3370.29107	0.95734
3368.23726	0.95764
3366.18346	0.95798
3364.12966	0.95845
3362.07585	0.95889
3360.02205	0.95875
3357.96825	0.95808
3355.91444	0.95778
3353.86064	0.95803
3351.80684	0.95795
3349.75303	0.95743
3347.69923	0.95721
3345.64543	0.95748
3343.59162	0.95753
3341.53782	0.95706
3339.48402	0.95678
3337.43021	0.95691
3335.37641	0.95694
3333.32261	0.95675
3331.26881	0.95685
3329.21500	0.95709
3327.16120	0.95686
3325.10740	0.95663
3323.05359	0.95675
3320.99979	0.95666
3318.94599	0.95634
3316.89218	0.95620
3314.83838	0.95619
3312.78458	0.95628
3310.73077	0.95636
3308.67697	0.95609
3306.62317	0.95570
3304.56936	0.95562
3302.51556	0.95563
3300.46176	0.95536
3298.40795	0.95514
3296.35415	0.95546
3294.30035	0.95581
3292.24654	0.95558
3290.19274	0.95520
3288.13894	0.95528
3286.08513	0.95564
3284.03133	0.95587
3281.97753	0.95578
3279.92372	0.95552
3277.86992	0.95532
3275.81612	0.95496
3273.76232	0.95450
3271.70851	0.95415
3269.65471	0.95394
3267.60091	0.95419
3265.54710	0.95464
3263.49330	0.95462
3261.43950	0.95443
3259.38569	0.95460
3257.33189	0.95494
3255.27809	0.95531
3253.22428	0.95602
3251.17048	0.95660
3249.11668	0.95637
3247.06287	0.95607
3245.00907	0.95617
3242.95527	0.95623
3240.90146	0.95625
3238.84766	0.95646
3236.79386	0.95696
3234.74005	0.95744
3232.68625	0.95759
3230.63245	0.95746
3228.57864	0.95745
3226.52484	0.95785
3224.47104	0.95833
3222.41724	0.95872
3220.36343	0.95907
3218.30963	0.95907
3216.25583	0.95891
3214.20202	0.95886
3212.14822	0.95885
3210.09442	0.95915
3208.04061	0.95961
3205.98681	0.95982
3203.93301	0.95975
3201.87920	0.95951
3199.82540	0.95923
3197.77160	0.95902
3195.71779	0.95925
3193.66399	0.96011
3191.61019	0.96102
3189.55638	0.96160
3187.50258	0.96213
3185.44878	0.96266
3183.39497	0.96274
3181.34117	0.96253
3179.28737	0.96253
3177.23356	0.96263
3175.17976	0.96282
3173.12596	0.96330
3171.07215	0.96361
3169.01835	0.96341
3166.96455	0.96327
3164.91075	0.96348
3162.85694	0.96377
3160.80314	0.96405
3158.74934	0.96425
3156.69553	0.96447
3154.64173	0.96498
3152.58793	0.96557
3150.53412	0.96602
3148.48032	0.96657
3146.42652	0.96681
3144.37271	0.96607
3142.31891	0.96517
3140.26511	0.96519
3138.21130	0.96550
3136.15750	0.96534
3134.10370	0.96529
3132.04989	0.96589
3129.99609	0.96676
3127.94229	0.96716
3125.88848	0.96706
3123.83468	0.96717
3121.78088	0.96759
3119.72707	0.96780
3117.67327	0.96784
3115.61947	0.96801
3113.56566	0.96826
3111.51186	0.96851
3109.45806	0.96865
3107.40426	0.96858
3105.35045	0.96851
3103.29665	0.96846
3101.24285	0.96833
3099.18904	0.96817
3097.13524	0.96786
3095.08144	0.96765
3093.02763	0.96790
3090.97383	0.96824
3088.92003	0.96845
3086.86622	0.96870
3084.81242	0.96882
3082.75862	0.96855
3080.70481	0.96826
3078.65101	0.96830
3076.59721	0.96835
3074.54340	0.96856
3072.48960	0.96930
3070.43580	0.97004
3068.38199	0.97026
3066.32819	0.97024
3064.27439	0.97041
3062.22058	0.97073
3060.16678	0.97071
3058.11298	0.97019
3056.05918	0.96981
3054.00537	0.97002
3051.95157	0.97046
3049.89777	0.97088
3047.84396	0.97136
3045.79016	0.97160
3043.73636	0.97184
3041.68255	0.97235
3039.62875	0.97257
3037.57495	0.97232
3035.52114	0.97204
3033.46734	0.97193
3031.41354	0.97163
3029.35973	0.97141
3027.30593	0.97176
3025.25213	0.97218
3023.19832	0.97251
3021.14452	0.97277
3019.09072	0.97281
3017.03691	0.97306
3014.98311	0.97348
3012.92931	0.97380
3010.87550	0.97407
3008.82170	0.97420
3006.76790	0.97418
3004.71409	0.97425
3002.66029	0.97461
3000.60649	0.97488
2998.55269	0.97462
2996.49888	0.97389
2994.44508	0.97335
2992.39128	0.97331
2990.33747	0.97340
2988.28367	0.97354
2986.22987	0.97361
2984.17606	0.97360
2982.12226	0.97373
2980.06846	0.97386
2978.01465	0.97392
2975.96085	0.97386
2973.90705	0.97345
2971.85324	0.97275
2969.79944	0.97209
2967.74564	0.97157
2965.69183	0.97135
2963.63803	0.97162
2961.58423	0.97199
2959.53042	0.97203
2957.47662	0.97213
2955.42282	0.97273
2953.36901	0.97333
2951.31521	0.97334
2949.26141	0.97310
2947.20761	0.97293
2945.15380	0.97262
2943.10000	0.97221
2941.04620	0.97170
2938.99239	0.97121
2936.93859	0.97116
2934.88479	0.97120
2932.83098	0.97081
2930.77718	0.97042
2928.72338	0.97047
2926.66957	0.97050
2924.61577	0.97011
2922.56197	0.96974
2920.50816	0.96982
2918.45436	0.97038
2916.40056	0.97132
2914.34675	0.97240
2912.29295	0.97331
2910.23915	0.97388
2908.18534	0.97413
2906.13154	0.97451
2904.07774	0.97519
2902.02393	0.97547
2899.97013	0.97539
2897.91633	0.97528
2895.86252	0.97510
2893.80872	0.97526
2891.75492	0.97585
2889.70112	0.97617
2887.64731	0.97613
2885.59351	0.97646
2883.53971	0.97704
2881.48590	0.97697
2879.43210	0.97658
2877.37830	0.97655
2875.32449	0.97659
2873.27069	0.97658
2871.21689	0.97690
2869.16308	0.97751
2867.10928	0.97798
2865.05548	0.97810
2863.00167	0.97809
2860.94787	0.97788
2858.89407	0.97749
2856.84026	0.97714
2854.78646	0.97679
2852.73266	0.97648
2850.67885	0.97661
2848.62505	0.97724
2846.57125	0.97791
2844.51744	0.97846
2842.46364	0.97906
2840.40984	0.97955
2838.35603	0.97994
2836.30223	0.98046
2834.24843	0.98084
2832.19463	0.98073
2830.14082	0.98046
2828.08702	0.98034
2826.03322	0.98035
2823.97941	0.98051
2821.92561	0.98086
2819.87181	0.98140
2817.81800	0.98173
2815.76420	0.98173
2813.71040	0.98191
2811.65659	0.98230
2809.60279	0.98252
2807.54899	0.98245
2805.49518	0.98213
2803.44138	0.98192
2801.38758	0.98205
2799.33377	0.98236
2797.27997	0.98268
2795.22617	0.98284
2793.17236	0.98279
2791.11856	0.98272
2789.06476	0.98290
2787.01095	0.98328
2784.95715	0.98328
2782.90335	0.98296
2780.84955	0.98279
2778.79574	0.98288
2776.74194	0.98336
2774.68814	0.98378
2772.63433	0.98382
2770.58053	0.98403
2768.52673	0.98436
2766.47292	0.98423
2764.41912	0.98410
2762.36532	0.98415
2760.31151	0.98398
2758.25771	0.98391
2756.20391	0.98412
2754.15010	0.98409
2752.09630	0.98392
2750.04250	0.98404
2747.98869	0.98441
2745.93489	0.98479
2743.88109	0.98510
2741.82728	0.98516
2739.77348	0.98503
2737.71968	0.98509
2735.66587	0.98535
2733.61207	0.98536
2731.55827	0.98514
2729.50446	0.98508
2727.45066	0.98516
2725.39686	0.98535
2723.34306	0.98548
2721.28925	0.98540
2719.23545	0.98519
2717.18165	0.98508
2715.12784	0.98534
2713.07404	0.98577
2711.02024	0.98618
2708.96643	0.98655
2706.91263	0.98637
2704.85883	0.98569
2702.80502	0.98541
2700.75122	0.98566
2698.69742	0.98597
2696.64361	0.98613
2694.58981	0.98611
2692.53601	0.98609
2690.48220	0.98629
2688.42840	0.98648
2686.37460	0.98650
2684.32079	0.98633
2682.26699	0.98606
2680.21319	0.98626
2678.15938	0.98692
2676.10558	0.98719
2674.05178	0.98696
2671.99797	0.98689
2669.94417	0.98705
2667.89037	0.98692
2665.83657	0.98676
2663.78276	0.98696
2661.72896	0.98707
2659.67516	0.98691
2657.62135	0.98673
2655.56755	0.98654
2653.51375	0.98625
2651.45994	0.98606
2649.40614	0.98635
2647.35234	0.98684
2645.29853	0.98706
2643.24473	0.98711
2641.19093	0.98713
2639.13712	0.98704
2637.08332	0.98695
2635.02952	0.98682
2632.97571	0.98652
2630.92191	0.98643
2628.86811	0.98680
2626.81430	0.98706
2624.76050	0.98709
2622.70670	0.98729
2620.65289	0.98766
2618.59909	0.98807
2616.54529	0.98833
2614.49149	0.98828
2612.43768	0.98815
2610.38388	0.98811
2608.33008	0.98799
2606.27627	0.98771
2604.22247	0.98776
2602.16867	0.98807
2600.11486	0.98813
2598.06106	0.98793
2596.00726	0.98776
2593.95345	0.98792
2591.89965	0.98785
2589.84585	0.98734
2587.79204	0.98751
2585.73824	0.98844
2583.68444	0.98886
2581.63063	0.98894
2579.57683	0.98929
2577.52303	0.98916
2575.46922	0.98882
2573.41542	0.98924
2571.36162	0.98981
2569.30781	0.98981
2567.25401	0.98973
2565.20021	0.98954
2563.14640	0.98885
2561.09260	0.98832
2559.03880	0.98878
2556.98500	0.98968
2554.93119	0.99012
2552.87739	0.99016
2550.82359	0.99006
2548.76978	0.98988
2546.71598	0.98958
2544.66218	0.98916
2542.60837	0.98888
2540.55457	0.98886
2538.50077	0.98932
2536.44696	0.98980
2534.39316	0.98955
2532.33936	0.98930
2530.28555	0.98998
2528.23175	0.99079
2526.17795	0.99098
2524.12414	0.99091
2522.07034	0.99055
2520.01654	0.99022
2517.96273	0.99052
2515.90893	0.99062
2513.85513	0.98992
2511.80132	0.98973
2509.74752	0.99069
2507.69372	0.99139
2505.63992	0.99099
2503.58611	0.99013
2501.53231	0.98976
2499.47851	0.98979
2497.42470	0.98984
2495.37090	0.99035
2493.31710	0.99108
2491.26329	0.99120
2489.20949	0.99093
2487.15569	0.99091
2485.10188	0.99050
2483.04808	0.98926
2480.99428	0.98912
2478.94047	0.99055
2476.88667	0.99145
2474.83287	0.99116
2472.77906	0.99071
2470.72526	0.99085
2468.67146	0.99149
2466.61765	0.99225
2464.56385	0.99277
2462.51005	0.99280
2460.45624	0.99233
2458.40244	0.99183
2456.34864	0.99114
2454.29483	0.99036
2452.24103	0.99030
2450.18723	0.99052
2448.13343	0.99078
2446.07962	0.99127
2444.02582	0.99116
2441.97202	0.99067
2439.91821	0.99060
2437.86441	0.99055
2435.81061	0.99063
2433.75680	0.99118
2431.70300	0.99127
2429.64920	0.99102
2427.59539	0.99122
2425.54159	0.99101
2423.48779	0.99020
2421.43398	0.98989
2419.38018	0.99025
2417.32638	0.99100
2415.27257	0.99163
2413.21877	0.99159
2411.16497	0.99135
2409.11116	0.99144
2407.05736	0.99157
2405.00356	0.99175
2402.94975	0.99194
2400.89595	0.99177
2398.84215	0.99152
2396.78834	0.99134
2394.73454	0.99121
2392.68074	0.99096
2390.62694	0.99058
2388.57313	0.99096
2386.51933	0.99177
2384.46553	0.99164
2382.41172	0.99120
2380.35792	0.99138
2378.30412	0.99156
2376.25031	0.99133
2374.19651	0.99114
2372.14271	0.99098
2370.08890	0.99067
2368.03510	0.99061
2365.98130	0.99053
2363.92749	0.99006
2361.87369	0.98958
2359.81989	0.98923
2357.76608	0.98879
2355.71228	0.98882
2353.65848	0.98968
2351.60467	0.99029
2349.55087	0.99054
2347.49707	0.99074
2345.44326	0.99033
2343.38946	0.98943
2341.33566	0.98906
2339.28186	0.98942
2337.22805	0.99048
2335.17425	0.99167
2333.12045	0.99141
2331.06664	0.98969
2329.01284	0.98835
2326.95904	0.98788
2324.90523	0.98740
2322.85143	0.98743
2320.79763	0.98834
2318.74382	0.98843
2316.69002	0.98748
2314.63622	0.98748
2312.58241	0.98860
2310.52861	0.98944
2308.47481	0.98968
2306.42100	0.98956
2304.36720	0.98936
2302.31340	0.98917
2300.25959	0.98898
2298.20579	0.98929
2296.15199	0.98988
2294.09818	0.98974
2292.04438	0.98932
2289.99058	0.98972
2287.93677	0.99002
2285.88297	0.98892
2283.82917	0.98753
2281.77537	0.98752
2279.72156	0.98835
2277.66776	0.98876
2275.61396	0.98910
2273.56015	0.98993
2271.50635	0.98995
2269.45255	0.98896
2267.39874	0.98859
2265.34494	0.98875
2263.29114	0.98947
2261.23733	0.99097
2259.18353	0.99162
2257.12973	0.99120
2255.07592	0.99122
2253.02212	0.99183
2250.96832	0.99187
2248.91451	0.99101
2246.86071	0.99045
2244.80691	0.99069
2242.75310	0.99089
2240.69930	0.99034
2238.64550	0.98941
2236.59169	0.98949
2234.53789	0.99048
2232.48409	0.99085
2230.43029	0.98995
2228.37648	0.98900
2226.32268	0.99008
2224.26888	0.99206
2222.21507	0.99246
2220.16127	0.99189
2218.10747	0.99160
2216.05366	0.99116
2213.99986	0.99044
2211.94606	0.99034
2209.89225	0.99108
2207.83845	0.99071
2205.78465	0.98793
2203.73084	0.98610
2201.67704	0.98801
2199.62324	0.99097
2197.56943	0.99111
2195.51563	0.98893
2193.46183	0.98878
2191.40802	0.99079
2189.35422	0.99054
2187.30042	0.98864
2185.24661	0.98850
2183.19281	0.98902
2181.13901	0.98784
2179.08520	0.98635
2177.03140	0.98737
2174.97760	0.99016
2172.92380	0.99155
2170.86999	0.99045
2168.81619	0.98759
2166.76239	0.98549
2164.70858	0.98591
2162.65478	0.98697
2160.60098	0.98822
2158.54717	0.99302
2156.49337	0.99870
2154.43957	0.99922
2152.38576	0.99684
2150.33196	0.99561
2148.27816	0.99556
2146.22435	0.99411
2144.17055	0.99183
2142.11675	0.99162
2140.06294	0.99223
2138.00914	0.99284
2135.95534	0.99381
2133.90153	0.99371
2131.84773	0.99246
2129.79393	0.99147
2127.74012	0.99121
2125.68632	0.99119
2123.63252	0.99133
2121.57871	0.99229
2119.52491	0.99326
2117.47111	0.99212
2115.41731	0.98979
2113.36350	0.98919
2111.30970	0.99010
2109.25590	0.99158
2107.20209	0.99351
2105.14829	0.99430
2103.09449	0.99316
2101.04068	0.99164
2098.98688	0.99167
2096.93308	0.99301
2094.87927	0.99369
2092.82547	0.99325
2090.77167	0.99247
2088.71786	0.99098
2086.66406	0.98961
2084.61026	0.99023
2082.55645	0.99128
2080.50265	0.99075
2078.44885	0.98927
2076.39504	0.98845
2074.34124	0.98935
2072.28744	0.99082
2070.23363	0.99105
2068.17983	0.99051
2066.12603	0.99036
2064.07223	0.99065
2062.01842	0.99153
2059.96462	0.99207
2057.91082	0.99171
2055.85701	0.99157
2053.80321	0.99213
2051.74941	0.99250
2049.69560	0.99110
2047.64180	0.98861
2045.58800	0.98804
2043.53419	0.98898
2041.48039	0.98923
2039.42659	0.99068
2037.37278	0.99281
2035.31898	0.99264
2033.26518	0.99162
2031.21137	0.99279
2029.15757	0.99583
2027.10377	0.99611
2025.04996	0.99301
2022.99616	0.99124
2020.94236	0.99207
2018.88855	0.99367
2016.83475	0.99465
2014.78095	0.99358
2012.72714	0.99119
2010.67334	0.99022
2008.61954	0.99046
2006.56574	0.99029
2004.51193	0.99179
2002.45813	0.99540
2000.40433	0.99634
1998.35052	0.99300
1996.29672	0.99018
1994.24292	0.99022
1992.18911	0.98940
1990.13531	0.98819
1988.08151	0.99040
1986.02770	0.99212
1983.97390	0.98970
1981.92010	0.98780
1979.86629	0.98984
1977.81249	0.99291
1975.75869	0.99341
1973.70488	0.99188
1971.65108	0.99149
1969.59728	0.99188
1967.54347	0.99164
1965.48967	0.99268
1963.43587	0.99539
1961.38206	0.99586
1959.32826	0.99255
1957.27446	0.98952
1955.22066	0.98948
1953.16685	0.99120
1951.11305	0.99249
1949.05925	0.99244
1947.00544	0.99191
1944.95164	0.99155
1942.89784	0.99194
1940.84403	0.99296
1938.79023	0.99279
1936.73643	0.99211
1934.68262	0.99264
1932.62882	0.99349
1930.57502	0.99388
1928.52121	0.99410
1926.46741	0.99400
1924.41361	0.99310
1922.35980	0.99217
1920.30600	0.99211
1918.25220	0.99171
1916.19839	0.99083
1914.14459	0.99109
1912.09079	0.99226
1910.03698	0.99325
1907.98318	0.99350
1905.92938	0.99330
1903.87557	0.99314
1901.82177	0.99302
1899.76797	0.99330
1897.71417	0.99346
1895.66036	0.99301
1893.60656	0.99274
1891.55276	0.99232
1889.49895	0.99207
1887.44515	0.99298
1885.39135	0.99354
1883.33754	0.99321
1881.28374	0.99312
1879.22994	0.99307
1877.17613	0.99292
1875.12233	0.99304
1873.06853	0.99307
1871.01472	0.99270
1868.96092	0.99220
1866.90712	0.99201
1864.85331	0.99204
1862.79951	0.99232
1860.74571	0.99291
1858.69190	0.99313
1856.63810	0.99291
1854.58430	0.99272
1852.53049	0.99263
1850.47669	0.99269
1848.42289	0.99250
1846.36908	0.99223
1844.31528	0.99223
1842.26148	0.99236
1840.20768	0.99246
1838.15387	0.99237
1836.10007	0.99200
1834.04627	0.99147
1831.99246	0.99131
1829.93866	0.99152
1827.88486	0.99167
1825.83105	0.99206
1823.77725	0.99259
1821.72345	0.99275
1819.66964	0.99251
1817.61584	0.99205
1815.56204	0.99168
1813.50823	0.99155
1811.45443	0.99162
1809.40063	0.99219
1807.34682	0.99295
1805.29302	0.99300
1803.23922	0.99231
1801.18541	0.99189
1799.13161	0.99193
1797.07781	0.99188
1795.02400	0.99201
1792.97020	0.99226
1790.91640	0.99192
1788.86260	0.99120
1786.80879	0.99075
1784.75499	0.99084
1782.70119	0.99120
1780.64738	0.99151
1778.59358	0.99163
1776.53978	0.99126
1774.48597	0.99075
1772.43217	0.99082
1770.37837	0.99116
1768.32456	0.99117
1766.27076	0.99098
1764.21696	0.99064
1762.16315	0.99062
1760.10935	0.99121
1758.05555	0.99139
1756.00174	0.99084
1753.94794	0.99036
1751.89414	0.99012
1749.84033	0.98987
1747.78653	0.98944
1745.73273	0.98885
1743.67892	0.98848
1741.62512	0.98846
1739.57132	0.98828
1737.51751	0.98788
1735.46371	0.98763
1733.40991	0.98739
1731.35611	0.98728
1729.30230	0.98733
1727.24850	0.98720
1725.19470	0.98697
1723.14089	0.98689
1721.08709	0.98686
1719.03329	0.98651
1716.97948	0.98539
1714.92568	0.98436
1712.87188	0.98398
1710.81807	0.98338
1708.76427	0.98250
1706.71047	0.98153
1704.65666	0.98030
1702.60286	0.97906
1700.54906	0.97738
1698.49525	0.97565
1696.44145	0.97443
1694.38765	0.97278
1692.33384	0.97099
1690.28004	0.96902
1688.22624	0.96744
1686.17243	0.96662
1684.11863	0.96489
1682.06483	0.96267
1680.01103	0.96095
1677.95722	0.95939
1675.90342	0.95784
1673.84962	0.95584
1671.79581	0.95379
1669.74201	0.95177
1667.68821	0.95019
1665.63440	0.94936
1663.58060	0.94805
1661.52680	0.94594
1659.47299	0.94442
1657.41919	0.94374
1655.36539	0.94295
1653.31158	0.94018
1651.25778	0.93801
1649.20398	0.93818
1647.15017	0.93729
1645.09637	0.93552
1643.04257	0.93539
1640.98876	0.93625
1638.93496	0.93695
1636.88116	0.93658
1634.82735	0.93584
1632.77355	0.93645
1630.71975	0.93756
1628.66594	0.93851
1626.61214	0.93947
1624.55834	0.94076
1622.50454	0.94225
1620.45073	0.94381
1618.39693	0.94536
1616.34313	0.94676
1614.28932	0.94809
1612.23552	0.94948
1610.18172	0.95098
1608.12791	0.95240
1606.07411	0.95345
1604.02031	0.95433
1601.96650	0.95524
1599.91270	0.95612
1597.85890	0.95696
1595.80509	0.95750
1593.75129	0.95779
1591.69749	0.95817
1589.64368	0.95869
1587.58988	0.95907
1585.53608	0.95904
1583.48227	0.95876
1581.42847	0.95854
1579.37467	0.95844
1577.32086	0.95813
1575.26706	0.95754
1573.21326	0.95729
1571.15945	0.95709
1569.10565	0.95639
1567.05185	0.95569
1564.99805	0.95514
1562.94424	0.95474
1560.89044	0.95439
1558.83664	0.95240
1556.78283	0.95061
1554.72903	0.95087
1552.67523	0.95108
1550.62142	0.95073
1548.56762	0.95040
1546.51382	0.95058
1544.46001	0.95080
1542.40621	0.95058
1540.35241	0.94976
1538.29860	0.94950
1536.24480	0.95006
1534.19100	0.95021
1532.13719	0.95023
1530.08339	0.95100
1528.02959	0.95196
1525.97578	0.95271
1523.92198	0.95317
1521.86818	0.95315
1519.81437	0.95341
1517.76057	0.95439
1515.70677	0.95525
1513.65297	0.95577
1511.59916	0.95645
1509.54536	0.95742
1507.49156	0.95837
1505.43775	0.95938
1503.38395	0.96061
1501.33015	0.96181
1499.27634	0.96276
1497.22254	0.96320
1495.16874	0.96366
1493.11493	0.96469
1491.06113	0.96576
1489.00733	0.96621
1486.95352	0.96646
1484.89972	0.96701
1482.84592	0.96753
1480.79211	0.96784
1478.73831	0.96793
1476.68451	0.96765
1474.63070	0.96679
1472.57690	0.96572
1470.52310	0.96529
1468.46929	0.96527
1466.41549	0.96520
1464.36169	0.96494
1462.30788	0.96463
1460.25408	0.96440
1458.20028	0.96401
1456.14648	0.96319
1454.09267	0.96265
1452.03887	0.96269
1449.98507	0.96292
1447.93126	0.96288
1445.87746	0.96261
1443.82366	0.96247
1441.76985	0.96261
1439.71605	0.96295
1437.66225	0.96321
1435.60844	0.96300
1433.55464	0.96263
1431.50084	0.96255
1429.44703	0.96266
1427.39323	0.96281
1425.33943	0.96299
1423.28562	0.96310
1421.23182	0.96280
1419.17802	0.96206
1417.12421	0.96167
1415.07041	0.96202
1413.01661	0.96267
1410.96280	0.96301
1408.90900	0.96309
1406.85520	0.96356
1404.80139	0.96425
1402.74759	0.96465
1400.69379	0.96486
1398.63999	0.96514
1396.58618	0.96591
1394.53238	0.96671
1392.47858	0.96713
1390.42477	0.96759
1388.37097	0.96816
1386.31717	0.96862
1384.26336	0.96903
1382.20956	0.96953
1380.15576	0.96998
1378.10195	0.97032
1376.04815	0.97076
1373.99435	0.97133
1371.94054	0.97194
1369.88674	0.97247
1367.83294	0.97293
1365.77913	0.97344
1363.72533	0.97394
1361.67153	0.97426
1359.61772	0.97455
1357.56392	0.97497
1355.51012	0.97523
1353.45631	0.97514
1351.40251	0.97501
1349.34871	0.97515
1347.29491	0.97540
1345.24110	0.97552
1343.18730	0.97561
1341.13350	0.97568
1339.07969	0.97573
1337.02589	0.97597
1334.97209	0.97616
1332.91828	0.97614
1330.86448	0.97619
1328.81068	0.97648
1326.75687	0.97681
1324.70307	0.97690
1322.64927	0.97674
1320.59546	0.97655
1318.54166	0.97638
1316.48786	0.97616
1314.43405	0.97611
1312.38025	0.97651
1310.32645	0.97708
1308.27264	0.97734
1306.21884	0.97738
1304.16504	0.97740
1302.11123	0.97728
1300.05743	0.97714
1298.00363	0.97719
1295.94982	0.97722
1293.89602	0.97707
1291.84222	0.97711
1289.78842	0.97735
1287.73461	0.97732
1285.68081	0.97682
1283.62701	0.97627
1281.57320	0.97615
1279.51940	0.97623
1277.46560	0.97623
1275.41179	0.97632
1273.35799	0.97647
1271.30419	0.97646
1269.25038	0.97626
1267.19658	0.97599
1265.14278	0.97575
1263.08897	0.97541
1261.03517	0.97511
1258.98137	0.97490
1256.92756	0.97453
1254.87376	0.97428
1252.81996	0.97420
1250.76615	0.97403
1248.71235	0.97367
1246.65855	0.97324
1244.60474	0.97297
1242.55094	0.97296
1240.49714	0.97327
1238.44334	0.97374
1236.38953	0.97382
1234.33573	0.97366
1232.28193	0.97378
1230.22812	0.97392
1228.17432	0.97392
1226.12052	0.97399
1224.06671	0.97412
1222.01291	0.97431
1219.95911	0.97455
1217.90530	0.97483
1215.85150	0.97518
1213.79770	0.97533
1211.74389	0.97513
1209.69009	0.97487
1207.63629	0.97466
1205.58248	0.97444
1203.52868	0.97419
1201.47488	0.97388
1199.42107	0.97345
1197.36727	0.97303
1195.31347	0.97264
1193.25966	0.97214
1191.20586	0.97163
1189.15206	0.97131
1187.09825	0.97105
1185.04445	0.97041
1182.99065	0.96935
1180.93685	0.96820
1178.88304	0.96714
1176.82924	0.96621
1174.77544	0.96537
1172.72163	0.96434
1170.66783	0.96313
1168.61403	0.96217
1166.56022	0.96147
1164.50642	0.96062
1162.45262	0.95962
1160.39881	0.95858
1158.34501	0.95722
1156.29121	0.95577
1154.23740	0.95470
1152.18360	0.95375
1150.12980	0.95270
1148.07599	0.95164
1146.02219	0.95049
1143.96839	0.94919
1141.91458	0.94805
1139.86078	0.94685
1137.80698	0.94537
1135.75317	0.94405
1133.69937	0.94273
1131.64557	0.94115
1129.59176	0.93968
1127.53796	0.93823
1125.48416	0.93636
1123.43036	0.93424
1121.37655	0.93232
1119.32275	0.93085
1117.26895	0.92952
1115.21514	0.92805
1113.16134	0.92655
1111.10754	0.92516
1109.05373	0.92376
1106.99993	0.92214
1104.94613	0.92049
1102.89232	0.91911
1100.83852	0.91769
1098.78472	0.91584
1096.73091	0.91389
1094.67711	0.91231
1092.62331	0.91112
1090.56950	0.91011
1088.51570	0.90883
1086.46190	0.90722
1084.40809	0.90575
1082.35429	0.90442
1080.30049	0.90318
1078.24668	0.90203
1076.19288	0.90061
1074.13908	0.89916
1072.08528	0.89796
1070.03147	0.89681
1067.97767	0.89572
1065.92387	0.89464
1063.87006	0.89324
1061.81626	0.89178
1059.76246	0.89072
1057.70865	0.88953
1055.65485	0.88771
1053.60105	0.88548
1051.54724	0.88352
1049.49344	0.88229
1047.43964	0.88114
1045.38583	0.87924
1043.33203	0.87702
1041.27823	0.87513
1039.22442	0.87317
1037.17062	0.87083
1035.11682	0.86877
1033.06301	0.86706
1031.00921	0.86532
1028.95541	0.86379
1026.90160	0.86248
1024.84780	0.86130
1022.79400	0.86027
1020.74019	0.85929
1018.68639	0.85810
1016.63259	0.85675
1014.57879	0.85575
1012.52498	0.85503
1010.47118	0.85407
1008.41738	0.85292
1006.36357	0.85217
1004.30977	0.85175
1002.25597	0.85141
1000.20216	0.85105
998.14836	0.85050
996.09456	0.85000
994.04075	0.84982
991.98695	0.84977
989.93315	0.85000
987.87934	0.85083
985.82554	0.85174
983.77174	0.85222
981.71793	0.85275
979.66413	0.85386
977.61033	0.85574
975.55652	0.85807
973.50272	0.86043
971.44892	0.86275
969.39511	0.86497
967.34131	0.86733
965.28751	0.86986
963.23371	0.87200
961.17990	0.87384
959.12610	0.87558
957.07230	0.87698
955.01849	0.87819
952.96469	0.87984
950.91089	0.88181
948.85708	0.88344
946.80328	0.88481
944.74948	0.88612
942.69567	0.88750
940.64187	0.88924
938.58807	0.89123
936.53426	0.89329
934.48046	0.89552
932.42666	0.89800
930.37285	0.90032
928.31905	0.90204
926.26525	0.90358
924.21144	0.90527
922.15764	0.90645
920.10384	0.90708
918.05003	0.90787
915.99623	0.90917
913.94243	0.91057
911.88862	0.91179
909.83482	0.91306
907.78102	0.91434
905.72722	0.91533
903.67341	0.91617
901.61961	0.91720
899.56581	0.91823
897.51200	0.91936
895.45820	0.92068
893.40440	0.92136
891.35059	0.92146
889.29679	0.92168
887.24299	0.92188
885.18918	0.92212
883.13538	0.92267
881.08158	0.92294
879.02777	0.92260
876.97397	0.92237
874.92017	0.92283
872.86636	0.92370
870.81256	0.92471
868.75876	0.92556
866.70495	0.92607
864.65115	0.92658
862.59735	0.92691
860.54354	0.92694
858.48974	0.92718
856.43594	0.92807
854.38213	0.92911
852.32833	0.92974
850.27453	0.93027
848.22073	0.93073
846.16692	0.93130
844.11312	0.93214
842.05932	0.93225
840.00551	0.93127
837.95171	0.93024
835.89791	0.92989
833.84410	0.92991
831.79030	0.92984
829.73650	0.92958
827.68269	0.92921
825.62889	0.92935
823.57509	0.93044
821.52128	0.93185
819.46748	0.93260
817.41368	0.93231
815.35987	0.93166
813.30607	0.93136
811.25227	0.93088
809.19846	0.92995
807.14466	0.92939
805.09086	0.92925
803.03705	0.92843
800.98325	0.92682
798.92945	0.92578
796.87565	0.92591
794.82184	0.92638
792.76804	0.92653
790.71424	0.92659
788.66043	0.92670
786.60663	0.92675
784.55283	0.92692
782.49902	0.92706
780.44522	0.92688
778.39142	0.92651
776.33761	0.92638
774.28381	0.92662
772.23001	0.92639
770.17620	0.92557
768.12240	0.92498
766.06860	0.92531
764.01479	0.92593
761.96099	0.92560
759.90719	0.92497
757.85338	0.92493
755.79958	0.92508
753.74578	0.92497
751.69197	0.92447
749.63817	0.92361
747.58437	0.92267
745.53056	0.92237
743.47676	0.92283
741.42296	0.92311
739.36916	0.92283
737.31535	0.92255
735.26155	0.92212
733.20775	0.92132
731.15394	0.92114
729.10014	0.92186
727.04634	0.92211
724.99253	0.92121
722.93873	0.92025
720.88493	0.92012
718.83112	0.92022
716.77732	0.92014
714.72352	0.92006
712.66971	0.91988
710.61591	0.91986
708.56211	0.92027
706.50830	0.92073
704.45450	0.92063
702.40070	0.91943
700.34689	0.91778
698.29309	0.91698
696.23929	0.91677
694.18548	0.91670
692.13168	0.91717
690.07788	0.91747
688.02408	0.91636
685.97027	0.91480
683.91647	0.91484
681.86267	0.91582
679.80886	0.91610
677.75506	0.91550
675.70126	0.91508
673.64745	0.91572
671.59365	0.91666
669.53985	0.91661
667.48604	0.91540
665.43224	0.91504
663.37844	0.91521
661.32463	0.91504
659.27083	0.91435
657.21703	0.91335
655.16322	0.91261
653.10942	0.91191
651.05562	0.91144
649.00181	0.91131
646.94801	0.91096
644.89421	0.91093
642.84040	0.91126
640.78660	0.91081
638.73280	0.91020
636.67899	0.91038
634.62519	0.91025
632.57139	0.90905
630.51759	0.90799
628.46378	0.90772
626.40998	0.90683
624.35618	0.90522
622.30237	0.90401
620.24857	0.90274
618.19477	0.90142
616.14096	0.89957
614.08716	0.89573
612.03336	0.89182
609.97955	0.89063
607.92575	0.89076
605.87195	0.88940
603.81814	0.88674
601.76434	0.88432
599.71054	0.88288
597.65673	0.88239
595.60293	0.88191
593.54913	0.88084
591.49532	0.87959
589.44152	0.87855
587.38772	0.87760
585.33391	0.87665
583.28011	0.87605
581.22631	0.87605
579.17250	0.87513
577.11870	0.87218
575.06490	0.86891
573.01110	0.86697
570.95729	0.86670
568.90349	0.86607
566.84969	0.86265
564.79588	0.85849
562.74208	0.85575
560.68828	0.85437
558.63447	0.85384
556.58067	0.85233
554.52687	0.84934
552.47306	0.84613
550.41926	0.84387
548.36546	0.84283
546.31165	0.84079
544.25785	0.83756
542.20405	0.83589
540.15024	0.83597
538.09644	0.83572
536.04264	0.83434
533.98883	0.83370
531.93503	0.83439
529.88123	0.83503
527.82742	0.83526
525.77362	0.83670
523.71982	0.84027
521.66602	0.84258
519.61221	0.84177
517.55841	0.84074
515.50461	0.84115
513.45080	0.84249
511.39700	0.84470
509.34320	0.84741
507.28939	0.84904
505.23559	0.84879
503.18179	0.84745
501.12798	0.84613
499.07418	0.84690
497.02038	0.84963
494.96657	0.85224
492.91277	0.85230
490.85897	0.84952
488.80516	0.84895
486.75136	0.85263
484.69756	0.85570
482.64375	0.85429
480.58995	0.85089
478.53615	0.84921
476.48234	0.84800
474.42854	0.84423
472.37474	0.83904
470.32093	0.83645
468.26713	0.83735
466.21333	0.84027
464.15953	0.84305
462.10572	0.84319
460.05192	0.84118
457.99812	0.84035
455.94431	0.84277
453.89051	0.84604
451.83671	0.84785
449.78290	0.84991
447.72910	0.85285
445.67530	0.85484
443.62149	0.85516
441.56769	0.85178
439.51389	0.84783
437.46008	0.84958
435.40628	0.85379
433.35248	0.85646
431.29867	0.85856
429.24487	0.85821
427.19107	0.85660
425.13726	0.85537
423.08346	0.85345
421.02966	0.85290
418.97585	0.85422
416.92205	0.85336
414.86825	0.85163
412.81445	0.85224
410.76064	0.85456
408.70684	0.85821
406.65304	0.86238
404.59923	0.86458
402.54543	0.86582
400.49163	0.86901
398.43782	0.86800
