3996.70104	0.97723
3994.64724	0.97718
3992.59344	0.97718
3990.53964	0.97784
3988.48583	0.97848
3986.43203	0.97822
3984.37823	0.97749
3982.32442	0.97716
3980.27062	0.97702
3978.21682	0.97690
3976.16301	0.97711
3974.10921	0.97749
3972.05541	0.97776
3970.00160	0.97750
3967.94780	0.97706
3965.89400	0.97700
3963.84019	0.97686
3961.78639	0.97672
3959.73259	0.97709
3957.67878	0.97738
3955.62498	0.97699
3953.57118	0.97644
3951.51737	0.97661
3949.46357	0.97726
3947.40977	0.97761
3945.35596	0.97764
3943.30216	0.97746
3941.24836	0.97743
3939.19455	0.97772
3937.14075	0.97789
3935.08695	0.97782
3933.03315	0.97750
3930.97934	0.97721
3928.92554	0.97729
3926.87174	0.97727
3924.81793	0.97693
3922.76413	0.97665
3920.71033	0.97684
3918.65652	0.97793
3916.60272	0.97947
3914.54892	0.97998
3912.49511	0.97929
3910.44131	0.97852
3908.38751	0.97872
3906.33370	0.97949
3904.27990	0.97955
3902.22610	0.97883
3900.17229	0.97810
3898.11849	0.97722
3896.06469	0.97694
3894.01088	0.97760
3891.95708	0.97827
3889.90328	0.97812
3887.84947	0.97763
3885.79567	0.97743
3883.74187	0.97751
3881.68807	0.97767
3879.63426	0.97807
3877.58046	0.97820
3875.52666	0.97804
3873.47285	0.97860
3871.41905	0.97956
3869.36525	0.97933
3867.31144	0.97874
3865.25764	0.97870
3863.20384	0.97856
3861.15003	0.97833
3859.09623	0.97839
3857.04243	0.97880
3854.98862	0.97993
3852.93482	0.98114
3850.88102	0.98036
3848.82721	0.97926
3846.77341	0.97868
3844.71961	0.97844
3842.66580	0.97827
3840.61200	0.97840
3838.55820	0.97885
3836.50439	0.97930
3834.45059	0.97949
3832.39679	0.97876
3830.34298	0.97783
3828.28918	0.97780
3826.23538	0.97807
3824.18158	0.97812
3822.12777	0.97839
3820.07397	0.97913
3818.02017	0.98006
3815.96636	0.98029
3813.91256	0.97943
3811.85876	0.97878
3809.80495	0.97860
3807.75115	0.97884
3805.69735	0.97960
3803.64354	0.98021
3801.58974	0.97981
3799.53594	0.97866
3797.48213	0.97837
3795.42833	0.97855
3793.37453	0.97834
3791.32072	0.97808
3789.26692	0.97820
3787.21312	0.97828
3785.15931	0.97819
3783.10551	0.97803
3781.05171	0.97772
3778.99790	0.97769
3776.94410	0.97787
3774.89030	0.97812
3772.83650	0.97859
3770.78269	0.97915
3768.72889	0.97947
3766.67509	0.97937
3764.62128	0.97899
3762.56748	0.97805
3760.51368	0.97703
3758.45987	0.97762
3756.40607	0.97961
3754.35227	0.98064
3752.29846	0.98032
3750.24466	0.97968
3748.19086	0.97971
3746.13705	0.97970
3744.08325	0.97873
3742.02945	0.97769
3739.97564	0.97770
3737.92184	0.97840
3735.86804	0.97860
3733.81423	0.97798
3731.76043	0.97754
3729.70663	0.97747
3727.65282	0.97774
3725.59902	0.97755
3723.54522	0.97637
3721.49141	0.97511
3719.43761	0.97376
3717.38381	0.97182
3715.33001	0.96964
3713.27620	0.96712
3711.22240	0.96306
3709.16860	0.95742
3707.11479	0.95139
3705.06099	0.94528
3703.00719	0.93924
3700.95338	0.93342
3698.89958	0.92912
3696.84578	0.92726
3694.79197	0.92780
3692.73817	0.93033
3690.68437	0.93420
3688.63056	0.93828
3686.57676	0.94088
3684.52296	0.94231
3682.46915	0.94326
3680.41535	0.94393
3678.36155	0.94481
3676.30774	0.94562
3674.25394	0.94515
3672.20014	0.94403
3670.14633	0.94240
3668.09253	0.94070
3666.03873	0.93967
3663.98492	0.93846
3661.93112	0.93701
3659.87732	0.93597
3657.82352	0.93521
3655.76971	0.93420
3653.71591	0.93347
3651.66211	0.93277
3649.60830	0.93092
3647.55450	0.92876
3645.50070	0.92764
3643.44689	0.92716
3641.39309	0.92660
3639.33929	0.92544
3637.28548	0.92461
3635.23168	0.92470
3633.17788	0.92464
3631.12407	0.92336
3629.07027	0.91951
3627.01647	0.91511
3624.96266	0.91363
3622.90886	0.91314
3620.85506	0.91259
3618.80125	0.91247
3616.74745	0.91375
3614.69365	0.91631
3612.63984	0.91892
3610.58604	0.92022
3608.53224	0.92036
3606.47844	0.92006
3604.42463	0.91991
3602.37083	0.91971
3600.31703	0.91918
3598.26322	0.91937
3596.20942	0.92055
3594.15562	0.92116
3592.10181	0.92105
3590.04801	0.92129
3587.99421	0.92162
3585.94040	0.92104
3583.88660	0.92030
3581.83280	0.91976
3579.77899	0.91898
3577.72519	0.91832
3575.67139	0.91813
3573.61758	0.91806
3571.56378	0.91827
3569.50998	0.91897
3567.45617	0.91896
3565.40237	0.91718
3563.34857	0.91561
3561.29476	0.91522
3559.24096	0.91547
3557.18716	0.91531
3555.13335	0.91411
3553.07955	0.91290
3551.02575	0.91300
3548.97195	0.91393
3546.91814	0.91436
3544.86434	0.91355
3542.81054	0.91232
3540.75673	0.91176
3538.70293	0.91187
3536.64913	0.91179
3534.59532	0.91114
3532.54152	0.91060
3530.48772	0.91027
3528.43391	0.91003
3526.38011	0.91014
3524.32631	0.91026
3522.27250	0.91020
3520.21870	0.91023
3518.16490	0.91014
3516.11109	0.90987
3514.05729	0.90987
3512.00349	0.90988
3509.94968	0.90955
3507.89588	0.90958
3505.84208	0.91010
3503.78827	0.91016
3501.73447	0.90925
3499.68067	0.90822
3497.62687	0.90782
3495.57306	0.90761
3493.51926	0.90737
3491.46546	0.90744
3489.41165	0.90756
3487.35785	0.90712
3485.30405	0.90658
3483.25024	0.90653
3481.19644	0.90661
3479.14264	0.90639
3477.08883	0.90561
3475.03503	0.90441
3472.98123	0.90373
3470.92742	0.90378
3468.87362	0.90381
3466.81982	0.90339
3464.76601	0.90257
3462.71221	0.90199
3460.65841	0.90181
3458.60460	0.90151
3456.55080	0.90082
3454.49700	0.90009
3452.44319	0.89967
3450.38939	0.89933
3448.33559	0.89898
3446.28178	0.89881
3444.22798	0.89883
3442.17418	0.89868
3440.12038	0.89823
3438.06657	0.89808
3436.01277	0.89843
3433.95897	0.89850
3431.90516	0.89771
3429.85136	0.89645
3427.79756	0.89552
3425.74375	0.89525
3423.68995	0.89508
3421.63615	0.89457
3419.58234	0.89377
3417.52854	0.89295
3415.47474	0.89262
3413.42093	0.89280
3411.36713	0.89290
3409.31333	0.89250
3407.25952	0.89170
3405.20572	0.89095
3403.15192	0.89069
3401.09811	0.89104
3399.04431	0.89133
3396.99051	0.89119
3394.93670	0.89111
3392.88290	0.89104
3390.82910	0.89068
3388.77529	0.89032
3386.72149	0.89018
3384.66769	0.89034
3382.61389	0.89103
3380.56008	0.89200
3378.50628	0.89250
3376.45248	0.89240
3374.39867	0.89239
3372.34487	0.89261
3370.29107	0.89270
3368.23726	0.89285
3366.18346	0.89337
3364.12966	0.89382
3362.07585	0.89377
3360.02205	0.89352
3357.96825	0.89337
3355.91444	0.89341
3353.86064	0.89380
3351.80684	0.89450
3349.75303	0.89514
3347.69923	0.89549
3345.64543	0.89553
3343.59162	0.89546
3341.53782	0.89543
3339.48402	0.89527
3337.43021	0.89531
3335.37641	0.89584
3333.32261	0.89656
3331.26881	0.89713
3329.21500	0.89732
3327.16120	0.89750
3325.10740	0.89790
3323.05359	0.89811
3320.99979	0.89818
3318.94599	0.89847
3316.89218	0.89880
3314.83838	0.89894
3312.78458	0.89892
3310.73077	0.89915
3308.67697	0.89970
3306.62317	0.89997
3304.56936	0.90015
3302.51556	0.90067
3300.46176	0.90094
3298.40795	0.90084
3296.35415	0.90099
3294.30035	0.90119
3292.24654	0.90094
3290.19274	0.90075
3288.13894	0.90125
3286.08513	0.90222
3284.03133	0.90276
3281.97753	0.90286
3279.92372	0.90313
3277.86992	0.90339
3275.81612	0.90351
3273.76232	0.90373
3271.70851	0.90430
3269.65471	0.90484
3267.60091	0.90501
3265.54710	0.90536
3263.49330	0.90593
3261.43950	0.90617
3259.38569	0.90617
3257.33189	0.90622
3255.27809	0.90647
3253.22428	0.90696
3251.17048	0.90741
3249.11668	0.90767
3247.06287	0.90800
3245.00907	0.90866
3242.95527	0.90945
3240.90146	0.91005
3238.84766	0.91037
3236.79386	0.91067
3234.74005	0.91110
3232.68625	0.91143
3230.63245	0.91171
3228.57864	0.91236
3226.52484	0.91336
3224.47104	0.91403
3222.41724	0.91403
3220.36343	0.91397
3218.30963	0.91436
3216.25583	0.91488
3214.20202	0.91520
3212.14822	0.91526
3210.09442	0.91556
3208.04061	0.91640
3205.98681	0.91711
3203.93301	0.91785
3201.87920	0.91893
3199.82540	0.91969
3197.77160	0.92016
3195.71779	0.92087
3193.66399	0.92150
3191.61019	0.92166
3189.55638	0.92165
3187.50258	0.92183
3185.44878	0.92227
3183.39497	0.92286
3181.34117	0.92324
3179.28737	0.92328
3177.23356	0.92359
3175.17976	0.92461
3173.12596	0.92562
3171.07215	0.92615
3169.01835	0.92678
3166.96455	0.92740
3164.91075	0.92778
3162.85694	0.92850
3160.80314	0.92945
3158.74934	0.92992
3156.69553	0.93004
3154.64173	0.93040
3152.58793	0.93070
3150.53412	0.93097
3148.48032	0.93170
3146.42652	0.93259
3144.37271	0.93333
3142.31891	0.93357
3140.26511	0.93347
3138.21130	0.93387
3136.15750	0.93489
3134.10370	0.93599
3132.04989	0.93679
3129.99609	0.93713
3127.94229	0.93712
3125.88848	0.93737
3123.83468	0.93823
3121.78088	0.93881
3119.72707	0.93873
3117.67327	0.93875
3115.61947	0.93895
3113.56566	0.93907
3111.51186	0.93943
3109.45806	0.93990
3107.40426	0.93985
3105.35045	0.93987
3103.29665	0.94057
3101.24285	0.94116
3099.18904	0.94110
3097.13524	0.94089
3095.08144	0.94101
3093.02763	0.94153
3090.97383	0.94225
3088.92003	0.94275
3086.86622	0.94276
3084.81242	0.94256
3082.75862	0.94266
3080.70481	0.94317
3078.65101	0.94362
3076.59721	0.94368
3074.54340	0.94383
3072.48960	0.94451
3070.43580	0.94550
3068.38199	0.94630
3066.32819	0.94666
3064.27439	0.94658
3062.22058	0.94611
3060.16678	0.94587
3058.11298	0.94624
3056.05918	0.94695
3054.00537	0.94772
3051.95157	0.94825
3049.89777	0.94853
3047.84396	0.94866
3045.79016	0.94866
3043.73636	0.94884
3041.68255	0.94928
3039.62875	0.94962
3037.57495	0.94988
3035.52114	0.95014
3033.46734	0.95028
3031.41354	0.95060
3029.35973	0.95068
3027.30593	0.95025
3025.25213	0.95024
3023.19832	0.95079
3021.14452	0.95136
3019.09072	0.95182
3017.03691	0.95212
3014.98311	0.95226
3012.92931	0.95239
3010.87550	0.95244
3008.82170	0.95248
3006.76790	0.95274
3004.71409	0.95302
3002.66029	0.95288
3000.60649	0.95251
2998.55269	0.95237
2996.49888	0.95229
2994.44508	0.95196
2992.39128	0.95179
2990.33747	0.95181
2988.28367	0.95144
2986.22987	0.95077
2984.17606	0.95016
2982.12226	0.94958
2980.06846	0.94876
2978.01465	0.94754
2975.96085	0.94608
2973.90705	0.94460
2971.85324	0.94286
2969.79944	0.94051
2967.74564	0.93783
2965.69183	0.93532
2963.63803	0.93269
2961.58423	0.92977
2959.53042	0.92734
2957.47662	0.92576
2955.42282	0.92428
2953.36901	0.92253
2951.31521	0.92074
2949.26141	0.91872
2947.20761	0.91610
2945.15380	0.91214
2943.10000	0.90606
2941.04620	0.89796
2938.99239	0.88828
2936.93859	0.87729
2934.88479	0.86462
2932.83098	0.84957
2930.77718	0.83210
2928.72338	0.81250
2926.66957	0.79005
2924.61577	0.76323
2922.56197	0.73153
2920.50816	0.69693
2918.45436	0.66412
2916.40056	0.64068
2914.34675	0.63435
2912.29295	0.64641
2910.23915	0.66995
2908.18534	0.69627
2906.13154	0.72031
2904.07774	0.74041
2902.02393	0.75648
2899.97013	0.76949
2897.91633	0.78073
2895.86252	0.79085
2893.80872	0.80054
2891.75492	0.81048
2889.70112	0.82070
2887.64731	0.83088
2885.59351	0.84112
2883.53971	0.85153
2881.48590	0.86148
2879.43210	0.87065
2877.37830	0.87921
2875.32449	0.88637
2873.27069	0.89121
2871.21689	0.89408
2869.16308	0.89548
2867.10928	0.89506
2865.05548	0.89193
2863.00167	0.88537
2860.94787	0.87490
2858.89407	0.85913
2856.84026	0.83576
2854.78646	0.80201
2852.73266	0.75627
2850.67885	0.70519
2848.62505	0.66751
2846.57125	0.66148
2844.51744	0.68743
2842.46364	0.72967
2840.40984	0.77237
2838.35603	0.80831
2836.30223	0.83672
2834.24843	0.85892
2832.19463	0.87601
2830.14082	0.88905
2828.08702	0.89918
2826.03322	0.90718
2823.97941	0.91384
2821.92561	0.91960
2819.87181	0.92429
2817.81800	0.92799
2815.76420	0.93117
2813.71040	0.93417
2811.65659	0.93685
2809.60279	0.93895
2807.54899	0.94084
2805.49518	0.94280
2803.44138	0.94441
2801.38758	0.94568
2799.33377	0.94703
2797.27997	0.94817
2795.22617	0.94893
2793.17236	0.94981
2791.11856	0.95093
2789.06476	0.95209
2787.01095	0.95319
2784.95715	0.95418
2782.90335	0.95517
2780.84955	0.95621
2778.79574	0.95709
2776.74194	0.95755
2774.68814	0.95791
2772.63433	0.95851
2770.58053	0.95913
2768.52673	0.95965
2766.47292	0.96013
2764.41912	0.96060
2762.36532	0.96094
2760.31151	0.96108
2758.25771	0.96118
2756.20391	0.96134
2754.15010	0.96153
2752.09630	0.96154
2750.04250	0.96136
2747.98869	0.96153
2745.93489	0.96206
2743.88109	0.96227
2741.82728	0.96204
2739.77348	0.96205
2737.71968	0.96254
2735.66587	0.96303
2733.61207	0.96324
2731.55827	0.96328
2729.50446	0.96340
2727.45066	0.96354
2725.39686	0.96353
2723.34306	0.96369
2721.28925	0.96427
2719.23545	0.96497
2717.18165	0.96540
2715.12784	0.96546
2713.07404	0.96528
2711.02024	0.96521
2708.96643	0.96528
2706.91263	0.96521
2704.85883	0.96532
2702.80502	0.96576
2700.75122	0.96621
2698.69742	0.96668
2696.64361	0.96696
2694.58981	0.96686
2692.53601	0.96668
2690.48220	0.96680
2688.42840	0.96714
2686.37460	0.96728
2684.32079	0.96721
2682.26699	0.96727
2680.21319	0.96740
2678.15938	0.96718
2676.10558	0.96683
2674.05178	0.96687
2671.99797	0.96713
2669.94417	0.96729
2667.89037	0.96736
2665.83657	0.96740
2663.78276	0.96724
2661.72896	0.96688
2659.67516	0.96663
2657.62135	0.96653
2655.56755	0.96647
2653.51375	0.96663
2651.45994	0.96705
2649.40614	0.96736
2647.35234	0.96727
2645.29853	0.96693
2643.24473	0.96693
2641.19093	0.96728
2639.13712	0.96741
2637.08332	0.96748
2635.02952	0.96780
2632.97571	0.96794
2630.92191	0.96769
2628.86811	0.96767
2626.81430	0.96840
2624.76050	0.96937
2622.70670	0.96979
2620.65289	0.96979
2618.59909	0.96989
2616.54529	0.97001
2614.49149	0.97012
2612.43768	0.97052
2610.38388	0.97094
2608.33008	0.97091
2606.27627	0.97066
2604.22247	0.97046
2602.16867	0.97027
2600.11486	0.97048
2598.06106	0.97151
2596.00726	0.97265
2593.95345	0.97301
2591.89965	0.97265
2589.84585	0.97233
2587.79204	0.97265
2585.73824	0.97340
2583.68444	0.97377
2581.63063	0.97333
2579.57683	0.97274
2577.52303	0.97289
2575.46922	0.97351
2573.41542	0.97374
2571.36162	0.97354
2569.30781	0.97343
2567.25401	0.97363
2565.20021	0.97393
2563.14640	0.97400
2561.09260	0.97414
2559.03880	0.97445
2556.98500	0.97474
2554.93119	0.97489
2552.87739	0.97458
2550.82359	0.97424
2548.76978	0.97449
2546.71598	0.97525
2544.66218	0.97588
2542.60837	0.97600
2540.55457	0.97595
2538.50077	0.97556
2536.44696	0.97459
2534.39316	0.97379
2532.33936	0.97372
2530.28555	0.97430
2528.23175	0.97489
2526.17795	0.97467
2524.12414	0.97434
2522.07034	0.97501
2520.01654	0.97612
2517.96273	0.97676
2515.90893	0.97677
2513.85513	0.97666
2511.80132	0.97693
2509.74752	0.97717
2507.69372	0.97708
2505.63992	0.97734
2503.58611	0.97805
2501.53231	0.97816
2499.47851	0.97752
2497.42470	0.97673
2495.37090	0.97599
2493.31710	0.97574
2491.26329	0.97612
2489.20949	0.97639
2487.15569	0.97654
2485.10188	0.97697
2483.04808	0.97718
2480.99428	0.97709
2478.94047	0.97716
2476.88667	0.97728
2474.83287	0.97735
2472.77906	0.97748
2470.72526	0.97744
2468.67146	0.97709
2466.61765	0.97684
2464.56385	0.97723
2462.51005	0.97752
2460.45624	0.97714
2458.40244	0.97722
2456.34864	0.97792
2454.29483	0.97806
2452.24103	0.97750
2450.18723	0.97701
2448.13343	0.97691
2446.07962	0.97715
2444.02582	0.97750
2441.97202	0.97766
2439.91821	0.97737
2437.86441	0.97680
2435.81061	0.97656
2433.75680	0.97695
2431.70300	0.97750
2429.64920	0.97784
2427.59539	0.97796
2425.54159	0.97790
2423.48779	0.97782
2421.43398	0.97766
2419.38018	0.97757
2417.32638	0.97803
2415.27257	0.97845
2413.21877	0.97827
2411.16497	0.97797
2409.11116	0.97784
2407.05736	0.97785
2405.00356	0.97806
2402.94975	0.97795
2400.89595	0.97756
2398.84215	0.97786
2396.78834	0.97859
2394.73454	0.97865
2392.68074	0.97798
2390.62694	0.97746
2388.57313	0.97757
2386.51933	0.97791
2384.46553	0.97834
2382.41172	0.97857
2380.35792	0.97821
2378.30412	0.97784
2376.25031	0.97798
2374.19651	0.97792
2372.14271	0.97737
2370.08890	0.97707
2368.03510	0.97667
2365.98130	0.97606
2363.92749	0.97568
2361.87369	0.97540
2359.81989	0.97560
2357.76608	0.97599
2355.71228	0.97659
2353.65848	0.97739
2351.60467	0.97730
2349.55087	0.97670
2347.49707	0.97608
2345.44326	0.97514
2343.38946	0.97450
2341.33566	0.97485
2339.28186	0.97534
2337.22805	0.97538
2335.17425	0.97553
2333.12045	0.97573
2331.06664	0.97547
2329.01284	0.97501
2326.95904	0.97440
2324.90523	0.97366
2322.85143	0.97332
2320.79763	0.97384
2318.74382	0.97462
2316.69002	0.97483
2314.63622	0.97409
2312.58241	0.97352
2310.52861	0.97464
2308.47481	0.97626
2306.42100	0.97694
2304.36720	0.97671
2302.31340	0.97588
2300.25959	0.97513
2298.20579	0.97481
2296.15199	0.97496
2294.09818	0.97609
2292.04438	0.97714
2289.99058	0.97665
2287.93677	0.97598
2285.88297	0.97634
2283.82917	0.97690
2281.77537	0.97700
2279.72156	0.97725
2277.66776	0.97825
2275.61396	0.97891
2273.56015	0.97812
2271.50635	0.97707
2269.45255	0.97728
2267.39874	0.97802
2265.34494	0.97846
2263.29114	0.97909
2261.23733	0.97933
2259.18353	0.97895
2257.12973	0.97910
2255.07592	0.97985
2253.02212	0.98001
2250.96832	0.97898
2248.91451	0.97758
2246.86071	0.97674
2244.80691	0.97698
2242.75310	0.97816
2240.69930	0.97948
2238.64550	0.97987
2236.59169	0.97863
2234.53789	0.97703
2232.48409	0.97683
2230.43029	0.97828
2228.37648	0.98009
2226.32268	0.98071
2224.26888	0.97981
2222.21507	0.97951
2220.16127	0.98041
2218.10747	0.98110
2216.05366	0.98172
2213.99986	0.98159
2211.94606	0.98010
2209.89225	0.97909
2207.83845	0.97903
2205.78465	0.97840
2203.73084	0.97775
2201.67704	0.97800
2199.62324	0.97777
2197.56943	0.97647
2195.51563	0.97667
2193.46183	0.97945
2191.40802	0.98173
2189.35422	0.98279
2187.30042	0.98366
2185.24661	0.98397
2183.19281	0.98315
2181.13901	0.98138
2179.08520	0.98036
2177.03140	0.98112
2174.97760	0.98284
2172.92380	0.98377
2170.86999	0.98252
2168.81619	0.97912
2166.76239	0.97707
2164.70858	0.97947
2162.65478	0.98257
2160.60098	0.98303
2158.54717	0.98482
2156.49337	0.98799
2154.43957	0.98843
2152.38576	0.98645
2150.33196	0.98363
2148.27816	0.98256
2146.22435	0.98399
2144.17055	0.98466
2142.11675	0.98270
2140.06294	0.98170
2138.00914	0.98357
2135.95534	0.98468
2133.90153	0.98383
2131.84773	0.98288
2129.79393	0.98239
2127.74012	0.98216
2125.68632	0.98222
2123.63252	0.98241
2121.57871	0.98203
2119.52491	0.98088
2117.47111	0.98032
2115.41731	0.98104
2113.36350	0.98137
2111.30970	0.98033
2109.25590	0.97927
2107.20209	0.97919
2105.14829	0.97925
2103.09449	0.97964
2101.04068	0.98138
2098.98688	0.98233
2096.93308	0.98126
2094.87927	0.98059
2092.82547	0.98083
2090.77167	0.98041
2088.71786	0.97931
2086.66406	0.97905
2084.61026	0.98024
2082.55645	0.98178
2080.50265	0.98167
2078.44885	0.98008
2076.39504	0.97951
2074.34124	0.98008
2072.28744	0.98040
2070.23363	0.98019
2068.17983	0.98040
2066.12603	0.98198
2064.07223	0.98339
2062.01842	0.98314
2059.96462	0.98281
2057.91082	0.98392
2055.85701	0.98487
2053.80321	0.98447
2051.74941	0.98365
2049.69560	0.98234
2047.64180	0.98088
2045.58800	0.98069
2043.53419	0.98138
2041.48039	0.98244
2039.42659	0.98276
2037.37278	0.98031
2035.31898	0.97726
2033.26518	0.97788
2031.21137	0.98191
2029.15757	0.98631
2027.10377	0.98982
2025.04996	0.99046
2022.99616	0.98785
2020.94236	0.98664
2018.88855	0.98697
2016.83475	0.98611
2014.78095	0.98557
2012.72714	0.98501
2010.67334	0.98303
2008.61954	0.98124
2006.56574	0.98164
2004.51193	0.98358
2002.45813	0.98409
2000.40433	0.98283
1998.35052	0.98175
1996.29672	0.98121
1994.24292	0.98098
1992.18911	0.98046
1990.13531	0.97986
1988.08151	0.98052
1986.02770	0.98120
1983.97390	0.98003
1981.92010	0.97819
1979.86629	0.97809
1977.81249	0.98040
1975.75869	0.98351
1973.70488	0.98534
1971.65108	0.98578
1969.59728	0.98532
1967.54347	0.98474
1965.48967	0.98533
1963.43587	0.98527
1961.38206	0.98382
1959.32826	0.98360
1957.27446	0.98435
1955.22066	0.98426
1953.16685	0.98364
1951.11305	0.98270
1949.05925	0.98123
1947.00544	0.97990
1944.95164	0.97989
1942.89784	0.98111
1940.84403	0.98226
1938.79023	0.98270
1936.73643	0.98252
1934.68262	0.98216
1932.62882	0.98242
1930.57502	0.98316
1928.52121	0.98330
1926.46741	0.98221
1924.41361	0.98088
1922.35980	0.98145
1920.30600	0.98334
1918.25220	0.98364
1916.19839	0.98285
1914.14459	0.98303
1912.09079	0.98335
1910.03698	0.98322
1907.98318	0.98288
1905.92938	0.98155
1903.87557	0.98000
1901.82177	0.97981
1899.76797	0.98017
1897.71417	0.98002
1895.66036	0.97993
1893.60656	0.97963
1891.55276	0.97900
1889.49895	0.97932
1887.44515	0.98057
1885.39135	0.98169
1883.33754	0.98206
1881.28374	0.98186
1879.22994	0.98175
1877.17613	0.98167
1875.12233	0.98151
1873.06853	0.98137
1871.01472	0.98138
1868.96092	0.98171
1866.90712	0.98216
1864.85331	0.98250
1862.79951	0.98238
1860.74571	0.98141
1858.69190	0.98069
1856.63810	0.98108
1854.58430	0.98146
1852.53049	0.98120
1850.47669	0.98123
1848.42289	0.98189
1846.36908	0.98199
1844.31528	0.98126
1842.26148	0.98101
1840.20768	0.98106
1838.15387	0.98044
1836.10007	0.97934
1834.04627	0.97869
1831.99246	0.97901
1829.93866	0.97971
1827.88486	0.98011
1825.83105	0.98059
1823.77725	0.98068
1821.72345	0.97979
1819.66964	0.97905
1817.61584	0.97951
1815.56204	0.98054
1813.50823	0.98118
1811.45443	0.98103
1809.40063	0.98020
1807.34682	0.97966
1805.29302	0.97948
1803.23922	0.97920
1801.18541	0.97894
1799.13161	0.97900
1797.07781	0.97903
1795.02400	0.97852
1792.97020	0.97796
1790.91640	0.97756
1788.86260	0.97685
1786.80879	0.97620
1784.75499	0.97588
1782.70119	0.97564
1780.64738	0.97547
1778.59358	0.97543
1776.53978	0.97541
1774.48597	0.97524
1772.43217	0.97496
1770.37837	0.97485
1768.32456	0.97479
1766.27076	0.97444
1764.21696	0.97386
1762.16315	0.97316
1760.10935	0.97262
1758.05555	0.97229
1756.00174	0.97148
1753.94794	0.97041
1751.89414	0.96964
1749.84033	0.96865
1747.78653	0.96699
1745.73273	0.96513
1743.67892	0.96327
1741.62512	0.96159
1739.57132	0.96028
1737.51751	0.95932
1735.46371	0.95847
1733.40991	0.95720
1731.35611	0.95575
1729.30230	0.95441
1727.24850	0.95270
1725.19470	0.95006
1723.14089	0.94673
1721.08709	0.94440
1719.03329	0.94336
1716.97948	0.94215
1714.92568	0.94052
1712.87188	0.93977
1710.81807	0.93996
1708.76427	0.94046
1706.71047	0.94070
1704.65666	0.94097
1702.60286	0.94166
1700.54906	0.94245
1698.49525	0.94241
1696.44145	0.94130
1694.38765	0.93967
1692.33384	0.93843
1690.28004	0.93728
1688.22624	0.93562
1686.17243	0.93380
1684.11863	0.93137
1682.06483	0.92878
1680.01103	0.92689
1677.95722	0.92532
1675.90342	0.92361
1673.84962	0.92159
1671.79581	0.91958
1669.74201	0.91676
1667.68821	0.91396
1665.63440	0.91257
1663.58060	0.91126
1661.52680	0.90935
1659.47299	0.90761
1657.41919	0.90635
1655.36539	0.90560
1653.31158	0.90430
1651.25778	0.90242
1649.20398	0.90148
1647.15017	0.90064
1645.09637	0.90031
1643.04257	0.90037
1640.98876	0.90030
1638.93496	0.90053
1636.88116	0.90101
1634.82735	0.90072
1632.77355	0.90034
1630.71975	0.90068
1628.66594	0.90153
1626.61214	0.90256
1624.55834	0.90378
1622.50454	0.90529
1620.45073	0.90695
1618.39693	0.90912
1616.34313	0.91212
1614.28932	0.91447
1612.23552	0.91608
1610.18172	0.91783
1608.12791	0.91963
1606.07411	0.92116
1604.02031	0.92226
1601.96650	0.92316
1599.91270	0.92439
1597.85890	0.92557
1595.80509	0.92620
1593.75129	0.92672
1591.69749	0.92731
1589.64368	0.92753
1587.58988	0.92737
1585.53608	0.92709
1583.48227	0.92651
1581.42847	0.92553
1579.37467	0.92494
1577.32086	0.92516
1575.26706	0.92538
1573.21326	0.92543
1571.15945	0.92582
1569.10565	0.92648
1567.05185	0.92709
1564.99805	0.92748
1562.94424	0.92791
1560.89044	0.92867
1558.83664	0.92872
1556.78283	0.92777
1554.72903	0.92753
1552.67523	0.92745
1550.62142	0.92750
1548.56762	0.92758
1546.51382	0.92759
1544.46001	0.92774
1542.40621	0.92822
1540.35241	0.92934
1538.29860	0.93079
1536.24480	0.93189
1534.19100	0.93349
1532.13719	0.93578
1530.08339	0.93771
1528.02959	0.93927
1525.97578	0.94055
1523.92198	0.94152
1521.86818	0.94257
1519.81437	0.94364
1517.76057	0.94437
1515.70677	0.94496
1513.65297	0.94561
1511.59916	0.94654
1509.54536	0.94750
1507.49156	0.94848
1505.43775	0.94941
1503.38395	0.94969
1501.33015	0.94985
1499.27634	0.94989
1497.22254	0.94975
1495.16874	0.94951
1493.11493	0.94935
1491.06113	0.94916
1489.00733	0.94832
1486.95352	0.94655
1484.89972	0.94464
1482.84592	0.94243
1480.79211	0.93880
1478.73831	0.93135
1476.68451	0.91292
1474.63070	0.87700
1472.57690	0.84106
1470.52310	0.83546
1468.46929	0.84195
1466.41549	0.83934
1464.36169	0.82376
1462.30788	0.81516
1460.25408	0.82609
1458.20028	0.85065
1456.14648	0.87380
1454.09267	0.88358
1452.03887	0.88968
1449.98507	0.89512
1447.93126	0.89921
1445.87746	0.90174
1443.82366	0.90329
1441.76985	0.90442
1439.71605	0.90532
1437.66225	0.90669
1435.60844	0.90859
1433.55464	0.90988
1431.50084	0.91103
1429.44703	0.91243
1427.39323	0.91371
1425.33943	0.91475
1423.28562	0.91550
1421.23182	0.91581
1419.17802	0.91589
1417.12421	0.91591
1415.07041	0.91602
1413.01661	0.91642
1410.96280	0.91740
1408.90900	0.91900
1406.85520	0.92087
1404.80139	0.92304
1402.74759	0.92519
1400.69379	0.92698
1398.63999	0.92863
1396.58618	0.92995
1394.53238	0.93075
1392.47858	0.93144
1390.42477	0.93223
1388.37097	0.93283
1386.31717	0.93263
1384.26336	0.93136
1382.20956	0.92918
1380.15576	0.92643
1378.10195	0.92443
1376.04815	0.92452
1373.99435	0.92629
1371.94054	0.92803
1369.88674	0.92925
1367.83294	0.93029
1365.77913	0.93136
1363.72533	0.93278
1361.67153	0.93438
1359.61772	0.93563
1357.56392	0.93650
1355.51012	0.93696
1353.45631	0.93723
1351.40251	0.93770
1349.34871	0.93834
1347.29491	0.93926
1345.24110	0.94028
1343.18730	0.94098
1341.13350	0.94131
1339.07969	0.94144
1337.02589	0.94154
1334.97209	0.94202
1332.91828	0.94272
1330.86448	0.94299
1328.81068	0.94281
1326.75687	0.94230
1324.70307	0.94161
1322.64927	0.94134
1320.59546	0.94154
1318.54166	0.94177
1316.48786	0.94173
1314.43405	0.94136
1312.38025	0.94073
1310.32645	0.94018
1308.27264	0.93998
1306.21884	0.94003
1304.16504	0.94000
1302.11123	0.93977
1300.05743	0.93948
1298.00363	0.93919
1295.94982	0.93915
1293.89602	0.93958
1291.84222	0.94001
1289.78842	0.94006
1287.73461	0.93986
1285.68081	0.93960
1283.62701	0.93939
1281.57320	0.93916
1279.51940	0.93864
1277.46560	0.93776
1275.41179	0.93690
1273.35799	0.93635
1271.30419	0.93575
1269.25038	0.93483
1267.19658	0.93425
1265.14278	0.93426
1263.08897	0.93410
1261.03517	0.93330
1258.98137	0.93234
1256.92756	0.93151
1254.87376	0.93071
1252.81996	0.92995
1250.76615	0.92929
1248.71235	0.92875
1246.65855	0.92827
1244.60474	0.92765
1242.55094	0.92678
1240.49714	0.92592
1238.44334	0.92537
1236.38953	0.92487
1234.33573	0.92427
1232.28193	0.92387
1230.22812	0.92356
1228.17432	0.92316
1226.12052	0.92285
1224.06671	0.92244
1222.01291	0.92181
1219.95911	0.92094
1217.90530	0.91978
1215.85150	0.91872
1213.79770	0.91762
1211.74389	0.91613
1209.69009	0.91448
1207.63629	0.91298
1205.58248	0.91179
1203.52868	0.91060
1201.47488	0.90895
1199.42107	0.90693
1197.36727	0.90470
1195.31347	0.90218
1193.25966	0.89938
1191.20586	0.89676
1189.15206	0.89449
1187.09825	0.89214
1185.04445	0.88950
1182.99065	0.88636
1180.93685	0.88274
1178.88304	0.87917
1176.82924	0.87577
1174.77544	0.87206
1172.72163	0.86783
1170.66783	0.86338
1168.61403	0.85932
1166.56022	0.85590
1164.50642	0.85283
1162.45262	0.85013
1160.39881	0.84765
1158.34501	0.84494
1156.29121	0.84196
1154.23740	0.83898
1152.18360	0.83610
1150.12980	0.83321
1148.07599	0.83000
1146.02219	0.82673
1143.96839	0.82368
1141.91458	0.82042
1139.86078	0.81696
1137.80698	0.81359
1135.75317	0.80987
1133.69937	0.80526
1131.64557	0.79987
1129.59176	0.79405
1127.53796	0.78767
1125.48416	0.78024
1123.43036	0.77183
1121.37655	0.76296
1119.32275	0.75388
1117.26895	0.74471
1115.21514	0.73582
1113.16134	0.72774
1111.10754	0.72058
1109.05373	0.71412
1106.99993	0.70823
1104.94613	0.70277
1102.89232	0.69772
1100.83852	0.69345
1098.78472	0.69005
1096.73091	0.68708
1094.67711	0.68437
1092.62331	0.68198
1090.56950	0.67985
1088.51570	0.67761
1086.46190	0.67542
1084.40809	0.67369
1082.35429	0.67191
1080.30049	0.66933
1078.24668	0.66606
1076.19288	0.66283
1074.13908	0.65993
1072.08528	0.65651
1070.03147	0.65196
1067.97767	0.64664
1065.92387	0.64072
1063.87006	0.63432
1061.81626	0.62747
1059.76246	0.61991
1057.70865	0.61164
1055.65485	0.60263
1053.60105	0.59269
1051.54724	0.58208
1049.49344	0.57120
1047.43964	0.55999
1045.38583	0.54830
1043.33203	0.53654
1041.27823	0.52521
1039.22442	0.51478
1037.17062	0.50545
1035.11682	0.49700
1033.06301	0.48994
1031.00921	0.48485
1028.95541	0.48167
1026.90160	0.48037
1024.84780	0.48057
1022.79400	0.48116
1020.74019	0.48135
1018.68639	0.48102
1016.63259	0.48024
1014.57879	0.47914
1012.52498	0.47755
1010.47118	0.47549
1008.41738	0.47402
1006.36357	0.47419
1004.30977	0.47636
1002.25597	0.48071
1000.20216	0.48692
998.14836	0.49456
996.09456	0.50361
994.04075	0.51389
991.98695	0.52480
989.93315	0.53566
987.87934	0.54621
985.82554	0.55668
983.77174	0.56753
981.71793	0.57883
979.66413	0.59007
977.61033	0.60088
975.55652	0.61127
973.50272	0.62137
971.44892	0.63147
969.39511	0.64136
967.34131	0.65037
965.28751	0.65855
963.23371	0.66633
961.17990	0.67380
959.12610	0.68110
957.07230	0.68817
955.01849	0.69435
952.96469	0.69941
950.91089	0.70417
948.85708	0.70884
946.80328	0.71256
944.74948	0.71512
942.69567	0.71731
940.64187	0.71991
938.58807	0.72252
936.53426	0.72487
934.48046	0.72748
932.42666	0.73002
930.37285	0.73170
928.31905	0.73254
926.26525	0.73278
924.21144	0.73229
922.15764	0.73070
920.10384	0.72787
918.05003	0.72418
915.99623	0.72015
913.94243	0.71671
911.88862	0.71551
909.83482	0.71826
907.78102	0.72502
905.72722	0.73367
903.67341	0.74250
901.61961	0.75159
899.56581	0.76097
897.51200	0.76966
895.45820	0.77676
893.40440	0.78263
891.35059	0.78830
889.29679	0.79368
887.24299	0.79782
885.18918	0.80049
883.13538	0.80208
881.08158	0.80305
879.02777	0.80386
876.97397	0.80516
874.92017	0.80807
872.86636	0.81335
870.81256	0.81992
868.75876	0.82592
866.70495	0.83101
864.65115	0.83568
862.59735	0.84003
860.54354	0.84415
858.48974	0.84810
856.43594	0.85131
854.38213	0.85374
852.32833	0.85629
850.27453	0.85896
848.22073	0.86105
846.16692	0.86226
844.11312	0.86287
842.05932	0.86335
840.00551	0.86334
837.95171	0.86299
835.89791	0.86273
833.84410	0.86203
831.79030	0.86067
829.73650	0.85929
827.68269	0.85849
825.62889	0.85791
823.57509	0.85730
821.52128	0.85704
819.46748	0.85745
817.41368	0.85793
815.35987	0.85715
813.30607	0.85569
811.25227	0.85463
809.19846	0.85279
807.14466	0.84905
805.09086	0.84426
803.03705	0.83959
800.98325	0.83592
798.92945	0.83337
796.87565	0.83140
794.82184	0.83028
792.76804	0.83011
790.71424	0.83024
788.66043	0.83017
786.60663	0.83012
784.55283	0.83022
782.49902	0.83000
780.44522	0.82984
778.39142	0.82984
776.33761	0.82975
774.28381	0.83051
772.23001	0.83143
770.17620	0.83083
768.12240	0.82912
766.06860	0.82684
764.01479	0.82458
761.96099	0.82316
759.90719	0.82153
757.85338	0.81943
755.79958	0.81786
753.74578	0.81658
751.69197	0.81539
749.63817	0.81428
747.58437	0.81373
745.53056	0.81434
743.47676	0.81543
741.42296	0.81627
739.36916	0.81648
737.31535	0.81484
735.26155	0.80618
733.20775	0.78231
731.15394	0.75178
729.10014	0.74094
727.04634	0.75172
724.99253	0.75772
722.93873	0.74114
720.88493	0.70577
718.83112	0.68079
716.77732	0.69126
714.72352	0.72392
712.66971	0.75383
710.61591	0.77180
708.56211	0.77978
706.50830	0.78181
704.45450	0.78065
702.40070	0.77718
700.34689	0.77318
698.29309	0.77005
696.23929	0.76700
694.18548	0.76419
692.13168	0.76291
690.07788	0.76311
688.02408	0.76415
685.97027	0.76563
683.91647	0.76663
681.86267	0.76737
679.80886	0.76881
677.75506	0.76989
675.70126	0.77011
673.64745	0.77057
671.59365	0.77151
669.53985	0.77208
667.48604	0.77228
665.43224	0.77406
663.37844	0.77684
661.32463	0.77930
659.27083	0.78055
657.21703	0.78068
655.16322	0.78048
653.10942	0.78004
651.05562	0.77947
649.00181	0.77844
646.94801	0.77643
644.89421	0.77597
642.84040	0.77801
640.78660	0.77949
638.73280	0.77957
636.67899	0.77929
634.62519	0.77889
632.57139	0.77834
630.51759	0.77724
628.46378	0.77615
626.40998	0.77569
624.35618	0.77526
622.30237	0.77401
620.24857	0.77227
618.19477	0.77081
616.14096	0.76847
614.08716	0.76515
612.03336	0.76194
609.97955	0.75873
607.92575	0.75633
605.87195	0.75502
603.81814	0.75269
601.76434	0.74853
599.71054	0.74478
597.65673	0.74221
595.60293	0.73982
593.54913	0.73828
591.49532	0.73594
589.44152	0.73121
587.38772	0.72784
585.33391	0.72717
583.28011	0.72551
581.22631	0.72087
579.17250	0.71584
577.11870	0.71356
575.06490	0.71287
573.01110	0.71025
570.95729	0.70564
568.90349	0.70132
566.84969	0.69780
564.79588	0.69382
562.74208	0.68890
560.68828	0.68325
558.63447	0.67669
556.58067	0.67028
554.52687	0.66574
552.47306	0.66228
550.41926	0.65722
548.36546	0.65025
546.31165	0.64226
544.25785	0.63271
542.20405	0.62263
540.15024	0.61361
538.09644	0.60579
536.04264	0.59936
533.98883	0.59481
531.93503	0.59218
529.88123	0.59174
527.82742	0.59346
525.77362	0.59524
523.71982	0.59581
521.66602	0.59680
519.61221	0.60018
517.55841	0.60696
515.50461	0.61482
513.45080	0.62036
511.39700	0.62397
509.34320	0.62780
507.28939	0.63248
505.23559	0.63656
503.18179	0.63892
501.12798	0.63990
499.07418	0.64013
497.02038	0.64060
494.96657	0.64175
492.91277	0.64274
490.85897	0.64150
488.80516	0.63797
486.75136	0.63309
484.69756	0.62527
482.64375	0.61402
480.58995	0.60142
478.53615	0.58810
476.48234	0.57283
474.42854	0.55581
472.37474	0.53898
470.32093	0.52642
468.26713	0.51855
466.21333	0.51279
464.15953	0.51119
462.10572	0.51500
460.05192	0.52184
457.99812	0.52892
455.94431	0.53409
453.89051	0.53955
451.83671	0.54858
449.78290	0.55853
447.72910	0.56370
445.67530	0.56234
443.62149	0.56075
441.56769	0.56449
439.51389	0.56796
437.46008	0.56615
435.40628	0.56255
433.35248	0.56164
431.29867	0.56175
429.24487	0.55987
427.19107	0.55733
425.13726	0.55816
423.08346	0.56334
421.02966	0.56772
418.97585	0.57028
416.92205	0.57796
414.86825	0.58757
412.81445	0.59586
410.76064	0.60456
408.70684	0.61341
406.65304	0.61964
404.59923	0.62244
402.54543	0.62561
400.49163	0.63381
398.43782	0.63913
