3996.71440	0.98810
3994.66059	0.98797
3992.60678	0.98782
3990.55297	0.98782
3988.49916	0.98794
3986.44535	0.98793
3984.39154	0.98778
3982.33773	0.98779
3980.28391	0.98785
3978.23010	0.98768
3976.17629	0.98744
3974.12248	0.98723
3972.06867	0.98708
3970.01486	0.98736
3967.96105	0.98792
3965.90724	0.98813
3963.85343	0.98794
3961.79962	0.98772
3959.74581	0.98771
3957.69200	0.98792
3955.63819	0.98814
3953.58438	0.98838
3951.53057	0.98876
3949.47676	0.98890
3947.42295	0.98836
3945.36914	0.98757
3943.31533	0.98724
3941.26152	0.98752
3939.20771	0.98793
3937.15390	0.98811
3935.10009	0.98802
3933.04628	0.98795
3930.99247	0.98819
3928.93866	0.98836
3926.88485	0.98826
3924.83104	0.98833
3922.77723	0.98846
3920.72342	0.98816
3918.66961	0.98769
3916.61580	0.98744
3914.56199	0.98752
3912.50818	0.98781
3910.45437	0.98809
3908.40056	0.98814
3906.34675	0.98804
3904.29294	0.98808
3902.23913	0.98809
3900.18532	0.98831
3898.13151	0.98900
3896.07770	0.98939
3894.02389	0.98920
3891.97008	0.98882
3889.91627	0.98837
3887.86246	0.98808
3885.80865	0.98825
3883.75484	0.98855
3881.70103	0.98858
3879.64722	0.98854
3877.59341	0.98865
3875.53960	0.98875
3873.48579	0.98867
3871.43198	0.98850
3869.37817	0.98847
3867.32436	0.98867
3865.27055	0.98874
3863.21674	0.98867
3861.16293	0.98872
3859.10912	0.98873
3857.05531	0.98877
3855.00150	0.98907
3852.94769	0.98931
3850.89388	0.98903
3848.84007	0.98842
3846.78626	0.98795
3844.73245	0.98799
3842.67864	0.98834
3840.62483	0.98860
3838.57102	0.98869
3836.51721	0.98859
3834.46340	0.98847
3832.40959	0.98865
3830.35578	0.98897
3828.30197	0.98895
3826.24816	0.98870
3824.19435	0.98873
3822.14054	0.98897
3820.08673	0.98906
3818.03292	0.98910
3815.97911	0.98883
3813.92530	0.98830
3811.87149	0.98822
3809.81768	0.98852
3807.76387	0.98877
3805.71006	0.98881
3803.65625	0.98886
3801.60244	0.98913
3799.54863	0.98941
3797.49482	0.98913
3795.44101	0.98861
3793.38720	0.98849
3791.33339	0.98848
3789.27958	0.98834
3787.22577	0.98831
3785.17196	0.98856
3783.11815	0.98895
3781.06434	0.98897
3779.01053	0.98872
3776.95672	0.98877
3774.90291	0.98888
3772.84910	0.98871
3770.79529	0.98863
3768.74148	0.98873
3766.68767	0.98876
3764.63386	0.98873
3762.58005	0.98882
3760.52624	0.98908
3758.47243	0.98948
3756.41862	0.98994
3754.36481	0.99034
3752.31100	0.99052
3750.25719	0.99036
3748.20338	0.99033
3746.14957	0.99039
3744.09576	0.98994
3742.04195	0.98958
3739.98814	0.98978
3737.93433	0.99000
3735.88052	0.98998
3733.82671	0.98982
3731.77290	0.98943
3729.71909	0.98897
3727.66528	0.98880
3725.61147	0.98884
3723.55766	0.98895
3721.50385	0.98914
3719.45004	0.98926
3717.39623	0.98944
3715.34242	0.98981
3713.28861	0.98974
3711.23480	0.98892
3709.18099	0.98836
3707.12718	0.98825
3705.07337	0.98813
3703.01956	0.98799
3700.96575	0.98779
3698.91194	0.98764
3696.85813	0.98760
3694.80432	0.98777
3692.75051	0.98797
3690.69670	0.98811
3688.64289	0.98851
3686.58907	0.98856
3684.53526	0.98832
3682.48145	0.98853
3680.42764	0.98906
3678.37383	0.98954
3676.32002	0.98979
3674.26621	0.98928
3672.21240	0.98851
3670.15859	0.98817
3668.10478	0.98816
3666.05097	0.98825
3663.99716	0.98846
3661.94335	0.98864
3659.88954	0.98858
3657.83573	0.98850
3655.78192	0.98871
3653.72811	0.98914
3651.67430	0.98934
3649.62049	0.98856
3647.56668	0.98761
3645.51287	0.98736
3643.45906	0.98711
3641.40525	0.98696
3639.35144	0.98707
3637.29763	0.98714
3635.24382	0.98716
3633.19001	0.98733
3631.13620	0.98755
3629.08239	0.98736
3627.02858	0.98681
3624.97477	0.98686
3622.92096	0.98731
3620.86715	0.98765
3618.81334	0.98755
3616.75953	0.98691
3614.70572	0.98614
3612.65191	0.98574
3610.59810	0.98594
3608.54429	0.98623
3606.49048	0.98604
3604.43667	0.98576
3602.38286	0.98578
3600.32905	0.98601
3598.27524	0.98633
3596.22143	0.98669
3594.16762	0.98698
3592.11381	0.98709
3590.06000	0.98707
3588.00619	0.98680
3585.95238	0.98639
3583.89857	0.98640
3581.84476	0.98671
3579.79095	0.98670
3577.73714	0.98641
3575.68333	0.98623
3573.62952	0.98614
3571.57571	0.98624
3569.52190	0.98668
3567.46809	0.98682
3565.41428	0.98625
3563.36047	0.98590
3561.30666	0.98585
3559.25285	0.98568
3557.19904	0.98556
3555.14523	0.98582
3553.09142	0.98614
3551.03761	0.98587
3548.98380	0.98519
3546.92999	0.98472
3544.87618	0.98459
3542.82237	0.98484
3540.76856	0.98527
3538.71475	0.98536
3536.66094	0.98516
3534.60713	0.98483
3532.55332	0.98420
3530.49951	0.98357
3528.44570	0.98341
3526.39189	0.98360
3524.33808	0.98382
3522.28427	0.98394
3520.23046	0.98381
3518.17665	0.98339
3516.12284	0.98292
3514.06903	0.98273
3512.01522	0.98287
3509.96141	0.98313
3507.90760	0.98335
3505.85379	0.98352
3503.79998	0.98354
3501.74617	0.98330
3499.69236	0.98301
3497.63855	0.98290
3495.58474	0.98296
3493.53093	0.98286
3491.47712	0.98257
3489.42331	0.98245
3487.36950	0.98246
3485.31569	0.98254
3483.26188	0.98290
3481.20807	0.98328
3479.15426	0.98316
3477.10045	0.98280
3475.04664	0.98255
3472.99283	0.98252
3470.93902	0.98263
3468.88521	0.98253
3466.83140	0.98225
3464.77759	0.98220
3462.72378	0.98226
3460.66997	0.98213
3458.61616	0.98197
3456.56235	0.98193
3454.50854	0.98199
3452.45473	0.98214
3450.40092	0.98217
3448.34711	0.98196
3446.29330	0.98181
3444.23949	0.98204
3442.18568	0.98205
3440.13187	0.98172
3438.07806	0.98158
3436.02425	0.98159
3433.97044	0.98156
3431.91663	0.98132
3429.86282	0.98094
3427.80901	0.98085
3425.75520	0.98111
3423.70139	0.98119
3421.64758	0.98094
3419.59377	0.98091
3417.53996	0.98120
3415.48615	0.98125
3413.43234	0.98106
3411.37853	0.98115
3409.32472	0.98128
3407.27091	0.98113
3405.21710	0.98093
3403.16329	0.98071
3401.10948	0.98045
3399.05567	0.98041
3397.00186	0.98063
3394.94805	0.98081
3392.89424	0.98063
3390.84042	0.98035
3388.78661	0.98044
3386.73280	0.98072
3384.67899	0.98074
3382.62518	0.98057
3380.57137	0.98066
3378.51756	0.98106
3376.46375	0.98122
3374.40994	0.98090
3372.35613	0.98065
3370.30232	0.98060
3368.24851	0.98050
3366.19470	0.98028
3364.14089	0.98008
3362.08708	0.98011
3360.03327	0.98030
3357.97946	0.98048
3355.92565	0.98059
3353.87184	0.98064
3351.81803	0.98071
3349.76422	0.98081
3347.71041	0.98080
3345.65660	0.98064
3343.60279	0.98057
3341.54898	0.98077
3339.49517	0.98100
3337.44136	0.98096
3335.38755	0.98062
3333.33374	0.98035
3331.27993	0.98045
3329.22612	0.98067
3327.17231	0.98069
3325.11850	0.98067
3323.06469	0.98088
3321.01088	0.98109
3318.95707	0.98103
3316.90326	0.98079
3314.84945	0.98055
3312.79564	0.98029
3310.74183	0.97992
3308.68802	0.97979
3306.63421	0.98008
3304.58040	0.98037
3302.52659	0.98055
3300.47278	0.98062
3298.41897	0.98039
3296.36516	0.98014
3294.31135	0.98020
3292.25754	0.98028
3290.20373	0.98034
3288.14992	0.98057
3286.09611	0.98053
3284.04230	0.98014
3281.98849	0.98005
3279.93468	0.98025
3277.88087	0.98034
3275.82706	0.98030
3273.77325	0.98016
3271.71944	0.97993
3269.66563	0.97988
3267.61182	0.98007
3265.55801	0.98020
3263.50420	0.98019
3261.45039	0.98017
3259.39658	0.98023
3257.34277	0.98039
3255.28896	0.98054
3253.23515	0.98056
3251.18134	0.98057
3249.12753	0.98076
3247.07372	0.98095
3245.01991	0.98090
3242.96610	0.98067
3240.91229	0.98036
3238.85848	0.98008
3236.80467	0.98007
3234.75086	0.98018
3232.69705	0.98030
3230.64324	0.98070
3228.58943	0.98108
3226.53562	0.98117
3224.48181	0.98122
3222.42800	0.98107
3220.37419	0.98073
3218.32038	0.98053
3216.26657	0.98057
3214.21276	0.98052
3212.15895	0.98025
3210.10514	0.98022
3208.05133	0.98047
3205.99752	0.98050
3203.94371	0.98027
3201.88990	0.98008
3199.83609	0.98014
3197.78228	0.98051
3195.72847	0.98101
3193.67466	0.98106
3191.62085	0.98072
3189.56704	0.98055
3187.51323	0.98045
3185.45942	0.98044
3183.40561	0.98071
3181.35180	0.98084
3179.29799	0.98083
3177.24418	0.98091
3175.19037	0.98089
3173.13656	0.98070
3171.08275	0.98057
3169.02894	0.98041
3166.97513	0.98015
3164.92132	0.97999
3162.86751	0.98005
3160.81370	0.98016
3158.75989	0.98018
3156.70608	0.98016
3154.65227	0.98028
3152.59846	0.98044
3150.54465	0.98052
3148.49084	0.98076
3146.43703	0.98113
3144.38322	0.98120
3142.32941	0.98092
3140.27560	0.98063
3138.22179	0.98056
3136.16798	0.98076
3134.11417	0.98099
3132.06036	0.98094
3130.00655	0.98067
3127.95274	0.98036
3125.89893	0.98016
3123.84512	0.98024
3121.79131	0.98033
3119.73750	0.98011
3117.68369	0.97991
3115.62988	0.98006
3113.57607	0.98020
3111.52226	0.98012
3109.46845	0.98013
3107.41464	0.98027
3105.36083	0.98020
3103.30702	0.97977
3101.25321	0.97930
3099.19940	0.97893
3097.14559	0.97856
3095.09177	0.97828
3093.03796	0.97810
3090.98415	0.97801
3088.93034	0.97802
3086.87653	0.97807
3084.82272	0.97809
3082.76891	0.97814
3080.71510	0.97812
3078.66129	0.97789
3076.60748	0.97747
3074.55367	0.97707
3072.49986	0.97692
3070.44605	0.97694
3068.39224	0.97690
3066.33843	0.97692
3064.28462	0.97708
3062.23081	0.97724
3060.17700	0.97731
3058.12319	0.97720
3056.06938	0.97702
3054.01557	0.97687
3051.96176	0.97666
3049.90795	0.97632
3047.85414	0.97578
3045.80033	0.97535
3043.74652	0.97528
3041.69271	0.97520
3039.63890	0.97489
3037.58509	0.97473
3035.53128	0.97480
3033.47747	0.97485
3031.42366	0.97475
3029.36985	0.97447
3027.31604	0.97428
3025.26223	0.97431
3023.20842	0.97433
3021.15461	0.97403
3019.10080	0.97339
3017.04699	0.97284
3014.99318	0.97280
3012.93937	0.97319
3010.88556	0.97340
3008.83175	0.97320
3006.77794	0.97292
3004.72413	0.97268
3002.67032	0.97241
3000.61651	0.97210
2998.56270	0.97171
2996.50889	0.97123
2994.45508	0.97053
2992.40127	0.96975
2990.34746	0.96905
2988.29365	0.96816
2986.23984	0.96693
2984.18603	0.96547
2982.13222	0.96390
2980.07841	0.96213
2978.02460	0.95996
2975.97079	0.95751
2973.91698	0.95472
2971.86317	0.95142
2969.80936	0.94766
2967.75555	0.94340
2965.70174	0.93855
2963.64793	0.93347
2961.59412	0.92862
2959.54031	0.92396
2957.48650	0.91948
2955.43269	0.91532
2953.37888	0.91124
2951.32507	0.90686
2949.27126	0.90177
2947.21745	0.89491
2945.16364	0.88520
2943.10983	0.87236
2941.05602	0.85632
2939.00221	0.83706
2936.94840	0.81497
2934.89459	0.79008
2932.84078	0.76188
2930.78697	0.72985
2928.73316	0.69334
2926.67935	0.65097
2924.62554	0.60089
2922.57173	0.54273
2920.51792	0.48014
2918.46411	0.42205
2916.41030	0.38188
2914.35649	0.37156
2912.30268	0.39242
2910.24887	0.43370
2908.19506	0.48110
2906.14125	0.52494
2904.08744	0.56129
2902.03363	0.59017
2899.97982	0.61376
2897.92601	0.63433
2895.87220	0.65320
2893.81839	0.67134
2891.76458	0.68951
2889.71077	0.70783
2887.65696	0.72627
2885.60315	0.74506
2883.54934	0.76402
2881.49553	0.78241
2879.44172	0.79968
2877.38791	0.81533
2875.33410	0.82818
2873.28029	0.83718
2871.22648	0.84244
2869.17267	0.84425
2867.11886	0.84210
2865.06505	0.83498
2863.01124	0.82162
2860.95743	0.80032
2858.90362	0.76875
2856.84981	0.72305
2854.79600	0.65774
2852.74219	0.57098
2850.68838	0.47710
2848.63457	0.41258
2846.58076	0.41084
2844.52695	0.46864
2842.47314	0.55387
2840.41933	0.63733
2838.36552	0.70596
2836.31171	0.75828
2834.25790	0.79716
2832.20409	0.82595
2830.15028	0.84756
2828.09647	0.86427
2826.04266	0.87760
2823.98885	0.88843
2821.93504	0.89734
2819.88123	0.90491
2817.82742	0.91138
2815.77361	0.91680
2813.71980	0.92132
2811.66599	0.92520
2809.61218	0.92875
2807.55837	0.93201
2805.50456	0.93489
2803.45075	0.93754
2801.39693	0.93999
2799.34312	0.94228
2797.28931	0.94439
2795.23550	0.94629
2793.18169	0.94811
2791.12788	0.94975
2789.07407	0.95126
2787.02026	0.95294
2784.96645	0.95470
2782.91264	0.95630
2780.85883	0.95768
2778.80502	0.95890
2776.75121	0.95988
2774.69740	0.96059
2772.64359	0.96123
2770.58978	0.96184
2768.53597	0.96236
2766.48216	0.96291
2764.42835	0.96358
2762.37454	0.96416
2760.32073	0.96458
2758.26692	0.96503
2756.21311	0.96563
2754.15930	0.96614
2752.10549	0.96633
2750.05168	0.96653
2747.99787	0.96694
2745.94406	0.96723
2743.89025	0.96710
2741.83644	0.96679
2739.78263	0.96657
2737.72882	0.96652
2735.67501	0.96676
2733.62120	0.96721
2731.56739	0.96766
2729.51358	0.96805
2727.45977	0.96836
2725.40596	0.96875
2723.35215	0.96930
2721.29834	0.96972
2719.24453	0.96998
2717.19072	0.97019
2715.13691	0.97035
2713.08310	0.97052
2711.02929	0.97075
2708.97548	0.97085
2706.92167	0.97085
2704.86786	0.97100
2702.81405	0.97115
2700.76024	0.97107
2698.70643	0.97102
2696.65262	0.97132
2694.59881	0.97171
2692.54500	0.97183
2690.49119	0.97170
2688.43738	0.97150
2686.38357	0.97145
2684.32976	0.97164
2682.27595	0.97186
2680.22214	0.97169
2678.16833	0.97121
2676.11452	0.97091
2674.06071	0.97077
2672.00690	0.97054
2669.95309	0.97024
2667.89928	0.96992
2665.84547	0.96965
2663.79166	0.96957
2661.73785	0.96965
2659.68404	0.96969
2657.63023	0.96954
2655.57642	0.96941
2653.52261	0.96955
2651.46880	0.96975
2649.41499	0.96993
2647.36118	0.97015
2645.30737	0.97027
2643.25356	0.97025
2641.19975	0.97024
2639.14594	0.97019
2637.09213	0.97015
2635.03832	0.97029
2632.98451	0.97062
2630.93070	0.97101
2628.87689	0.97141
2626.82308	0.97188
2624.76927	0.97240
2622.71546	0.97273
2620.66165	0.97293
2618.60784	0.97316
2616.55403	0.97343
2614.50022	0.97398
2612.44641	0.97453
2610.39260	0.97440
2608.33879	0.97412
2606.28498	0.97442
2604.23117	0.97492
2602.17736	0.97548
2600.12355	0.97621
2598.06974	0.97687
2596.01593	0.97723
2593.96212	0.97727
2591.90831	0.97720
2589.85450	0.97727
2587.80069	0.97726
2585.74688	0.97721
2583.69307	0.97752
2581.63926	0.97820
2579.58545	0.97858
2577.53164	0.97832
2575.47783	0.97805
2573.42402	0.97808
2571.37021	0.97843
2569.31640	0.97901
2567.26259	0.97933
2565.20878	0.97930
2563.15497	0.97915
2561.10116	0.97891
2559.04735	0.97881
2556.99354	0.97904
2554.93973	0.97942
2552.88592	0.97973
2550.83211	0.98000
2548.77830	0.97994
2546.72449	0.97959
2544.67068	0.97970
2542.61687	0.98050
2540.56306	0.98137
2538.50925	0.98173
2536.45544	0.98157
2534.40163	0.98148
2532.34782	0.98157
2530.29401	0.98144
2528.24020	0.98139
2526.18639	0.98159
2524.13258	0.98191
2522.07877	0.98235
2520.02496	0.98263
2517.97115	0.98263
2515.91734	0.98268
2513.86353	0.98275
2511.80972	0.98275
2509.75591	0.98270
2507.70210	0.98265
2505.64828	0.98287
2503.59447	0.98323
2501.54066	0.98330
2499.48685	0.98330
2497.43304	0.98364
2495.37923	0.98401
2493.32542	0.98375
2491.27161	0.98327
2489.21780	0.98340
2487.16399	0.98394
2485.11018	0.98421
2483.05637	0.98422
2481.00256	0.98413
2478.94875	0.98391
2476.89494	0.98382
2474.84113	0.98397
2472.78732	0.98409
2470.73351	0.98427
2468.67970	0.98456
2466.62589	0.98442
2464.57208	0.98390
2462.51827	0.98369
2460.46446	0.98373
2458.41065	0.98383
2456.35684	0.98432
2454.30303	0.98494
2452.24922	0.98510
2450.19541	0.98489
2448.14160	0.98462
2446.08779	0.98445
2444.03398	0.98446
2441.98017	0.98461
2439.92636	0.98481
2437.87255	0.98490
2435.81874	0.98488
2433.76493	0.98494
2431.71112	0.98476
2429.65731	0.98435
2427.60350	0.98450
2425.54969	0.98505
2423.49588	0.98507
2421.44207	0.98481
2419.38826	0.98501
2417.33445	0.98555
2415.28064	0.98599
2413.22683	0.98605
2411.17302	0.98574
2409.11921	0.98551
2407.06540	0.98552
2405.01159	0.98560
2402.95778	0.98572
2400.90397	0.98582
2398.85016	0.98564
2396.79635	0.98535
2394.74254	0.98543
2392.68873	0.98560
2390.63492	0.98577
2388.58111	0.98621
2386.52730	0.98649
2384.47349	0.98628
2382.41968	0.98593
2380.36587	0.98574
2378.31206	0.98557
2376.25825	0.98533
2374.20444	0.98502
2372.15063	0.98475
2370.09682	0.98481
2368.04301	0.98498
2365.98920	0.98510
2363.93539	0.98564
2361.88158	0.98659
2359.82777	0.98700
2357.77396	0.98625
2355.72015	0.98509
2353.66634	0.98426
2351.61253	0.98393
2349.55872	0.98399
2347.50491	0.98406
2345.45110	0.98400
2343.39729	0.98368
2341.34348	0.98304
2339.28967	0.98281
2337.23586	0.98298
2335.18205	0.98296
2333.12824	0.98312
2331.07443	0.98325
2329.02062	0.98265
2326.96681	0.98193
2324.91300	0.98158
2322.85919	0.98179
2320.80538	0.98264
2318.75157	0.98327
2316.69776	0.98307
2314.64395	0.98279
2312.59014	0.98285
2310.53633	0.98265
2308.48252	0.98237
2306.42871	0.98285
2304.37490	0.98363
2302.32109	0.98377
2300.26728	0.98370
2298.21347	0.98401
2296.15966	0.98428
2294.10585	0.98440
2292.05204	0.98447
2289.99823	0.98440
2287.94442	0.98428
2285.89061	0.98437
2283.83680	0.98480
2281.78299	0.98501
2279.72918	0.98459
2277.67537	0.98413
2275.62156	0.98388
2273.56775	0.98387
2271.51394	0.98457
2269.46013	0.98570
2267.40632	0.98642
2265.35251	0.98670
2263.29870	0.98685
2261.24489	0.98687
2259.19108	0.98678
2257.13727	0.98673
2255.08346	0.98697
2253.02965	0.98684
2250.97584	0.98635
2248.92203	0.98625
2246.86822	0.98589
2244.81441	0.98542
2242.76060	0.98543
2240.70679	0.98524
2238.65298	0.98497
2236.59917	0.98518
2234.54536	0.98613
2232.49155	0.98762
2230.43774	0.98833
2228.38393	0.98789
2226.33012	0.98752
2224.27631	0.98734
2222.22250	0.98658
2220.16869	0.98588
2218.11488	0.98567
2216.06107	0.98522
2214.00726	0.98480
2211.95344	0.98535
2209.89963	0.98651
2207.84582	0.98652
2205.79201	0.98588
2203.73820	0.98653
2201.68439	0.98777
2199.63058	0.98830
2197.57677	0.98851
2195.52296	0.98923
2193.46915	0.98966
2191.41534	0.98856
2189.36153	0.98653
2187.30772	0.98517
2185.25391	0.98525
2183.20010	0.98615
2181.14629	0.98696
2179.09248	0.98781
2177.03867	0.98880
2174.98486	0.98901
2172.93105	0.98868
2170.87724	0.98859
2168.82343	0.98778
2166.76962	0.98695
2164.71581	0.98793
2162.66200	0.98908
2160.60819	0.98929
2158.55438	0.99103
2156.50057	0.99278
2154.44676	0.99177
2152.39295	0.99025
2150.33914	0.98985
2148.28533	0.98967
2146.23152	0.98913
2144.17771	0.98902
2142.12390	0.98945
2140.07009	0.98924
2138.01628	0.98874
2135.96247	0.98931
2133.90866	0.99041
2131.85485	0.99063
2129.80104	0.98991
2127.74723	0.98911
2125.69342	0.98865
2123.63961	0.98806
2121.58580	0.98727
2119.53199	0.98691
2117.47818	0.98721
2115.42437	0.98764
2113.37056	0.98783
2111.31675	0.98794
2109.26294	0.98789
2107.20913	0.98747
2105.15532	0.98728
2103.10151	0.98807
2101.04770	0.98881
2098.99389	0.98809
2096.94008	0.98702
2094.88627	0.98716
2092.83246	0.98802
2090.77865	0.98835
2088.72484	0.98774
2086.67103	0.98712
2084.61722	0.98749
2082.56341	0.98848
2080.50960	0.98898
2078.45579	0.98881
2076.40198	0.98829
2074.34817	0.98742
2072.29436	0.98713
2070.24055	0.98770
2068.18674	0.98771
2066.13293	0.98701
2064.07912	0.98694
2062.02531	0.98750
2059.97150	0.98759
2057.91769	0.98706
2055.86388	0.98718
2053.81007	0.98822
2051.75626	0.98831
2049.70245	0.98731
2047.64864	0.98681
2045.59483	0.98721
2043.54102	0.98777
2041.48721	0.98742
2039.43340	0.98622
2037.37959	0.98561
2035.32578	0.98643
2033.27197	0.98729
2031.21816	0.98761
2029.16435	0.98785
2027.11054	0.98712
2025.05673	0.98622
2023.00292	0.98686
2020.94911	0.98816
2018.89530	0.98824
2016.84149	0.98746
2014.78768	0.98641
2012.73387	0.98505
2010.68006	0.98453
2008.62625	0.98443
2006.57244	0.98404
2004.51863	0.98454
2002.46482	0.98599
2000.41101	0.98741
1998.35720	0.98792
1996.30339	0.98797
1994.24958	0.98820
1992.19577	0.98816
1990.14196	0.98788
1988.08815	0.98736
1986.03434	0.98689
1983.98053	0.98696
1981.92672	0.98662
1979.87291	0.98559
1977.81910	0.98507
1975.76529	0.98645
1973.71148	0.98847
1971.65767	0.98926
1969.60386	0.99036
1967.55005	0.99095
1965.49624	0.98897
1963.44243	0.98652
1961.38862	0.98607
1959.33481	0.98818
1957.28100	0.99026
1955.22719	0.99006
1953.17338	0.98930
1951.11957	0.98895
1949.06576	0.98889
1947.01195	0.98926
1944.95814	0.98888
1942.90433	0.98741
1940.85052	0.98647
1938.79671	0.98657
1936.74290	0.98688
1934.68909	0.98724
1932.63528	0.98779
1930.58147	0.98827
1928.52766	0.98843
1926.47385	0.98829
1924.42004	0.98823
1922.36623	0.98829
1920.31242	0.98811
1918.25861	0.98780
1916.20479	0.98735
1914.15098	0.98664
1912.09717	0.98615
1910.04336	0.98617
1907.98955	0.98646
1905.93574	0.98670
1903.88193	0.98678
1901.82812	0.98673
1899.77431	0.98670
1897.72050	0.98693
1895.66669	0.98719
1893.61288	0.98728
1891.55907	0.98748
1889.50526	0.98769
1887.45145	0.98742
1885.39764	0.98700
1883.34383	0.98684
1881.29002	0.98703
1879.23621	0.98756
1877.18240	0.98786
1875.12859	0.98748
1873.07478	0.98684
1871.02097	0.98666
1868.96716	0.98706
1866.91335	0.98753
1864.85954	0.98769
1862.80573	0.98752
1860.75192	0.98704
1858.69811	0.98671
1856.64430	0.98688
1854.59049	0.98709
1852.53668	0.98683
1850.48287	0.98653
1848.42906	0.98654
1846.37525	0.98663
1844.32144	0.98693
1842.26763	0.98711
1840.21382	0.98675
1838.16001	0.98628
1836.10620	0.98626
1834.05239	0.98655
1831.99858	0.98677
1829.94477	0.98677
1827.89096	0.98640
1825.83715	0.98584
1823.78334	0.98543
1821.72953	0.98505
1819.67572	0.98459
1817.62191	0.98441
1815.56810	0.98441
1813.51429	0.98427
1811.46048	0.98384
1809.40667	0.98335
1807.35286	0.98304
1805.29905	0.98282
1803.24524	0.98258
1801.19143	0.98216
1799.13762	0.98146
1797.08381	0.98063
1795.03000	0.97969
1792.97619	0.97857
1790.92238	0.97730
1788.86857	0.97587
1786.81476	0.97444
1784.76095	0.97308
1782.70714	0.97189
1780.65333	0.97128
1778.59952	0.97119
1776.54571	0.97102
1774.49190	0.97065
1772.43809	0.97014
1770.38428	0.96954
1768.33047	0.96912
1766.27666	0.96873
1764.22285	0.96824
1762.16904	0.96753
1760.11523	0.96661
1758.06142	0.96542
1756.00761	0.96369
1753.95380	0.96174
1751.89999	0.95949
1749.84618	0.95624
1747.79237	0.95213
1745.73856	0.94763
1743.68475	0.94282
1741.63094	0.93795
1739.57713	0.93342
1737.52332	0.93051
1735.46951	0.92957
1733.41570	0.92937
1731.36189	0.92822
1729.30808	0.92536
1727.25427	0.91982
1725.20046	0.91101
1723.14665	0.89982
1721.09284	0.88942
1719.03903	0.88012
1716.98522	0.86988
1714.93141	0.86195
1712.87760	0.85899
1710.82379	0.86077
1708.76998	0.86656
1706.71617	0.87580
1704.66236	0.88674
1702.60855	0.89576
1700.55474	0.90480
1698.50093	0.91413
1696.44712	0.92264
1694.39331	0.93177
1692.33950	0.93874
1690.28569	0.94409
1688.23188	0.94859
1686.17807	0.95243
1684.12426	0.95647
1682.07045	0.95881
1680.01664	0.95953
1677.96283	0.96019
1675.90902	0.96098
1673.85521	0.96178
1671.80140	0.96247
1669.74759	0.96339
1667.69378	0.96430
1665.63997	0.96472
1663.58616	0.96518
1661.53235	0.96576
1659.47854	0.96613
1657.42473	0.96638
1655.37092	0.96667
1653.31711	0.96695
1651.26330	0.96711
1649.20949	0.96729
1647.15568	0.96751
1645.10187	0.96740
1643.04806	0.96710
1640.99425	0.96693
1638.94044	0.96687
1636.88663	0.96693
1634.83282	0.96699
1632.77901	0.96704
1630.72520	0.96707
1628.67139	0.96722
1626.61758	0.96745
1624.56377	0.96767
1622.50996	0.96805
1620.45614	0.96859
1618.40233	0.96911
1616.34852	0.96937
1614.29471	0.96949
1612.24090	0.96967
1610.18709	0.96989
1608.13328	0.97012
1606.07947	0.97045
1604.02566	0.97069
1601.97185	0.97073
1599.91804	0.97067
1597.86423	0.97067
1595.81042	0.97067
1593.75661	0.97051
1591.70280	0.97033
1589.64899	0.97032
1587.59518	0.97032
1585.54137	0.97013
1583.48756	0.96988
1581.43375	0.96966
1579.37994	0.96945
1577.32613	0.96938
1575.27232	0.96932
1573.21851	0.96925
1571.16470	0.96945
1569.11089	0.96979
1567.05708	0.96980
1565.00327	0.96972
1562.94946	0.96979
1560.89565	0.96997
1558.84184	0.97002
1556.78803	0.96977
1554.73422	0.96960
1552.68041	0.96942
1550.62660	0.96912
1548.57279	0.96888
1546.51898	0.96905
1544.46517	0.96955
1542.41136	0.97011
1540.35755	0.97045
1538.30374	0.97057
1536.24993	0.97097
1534.19612	0.97178
1532.14231	0.97240
1530.08850	0.97261
1528.03469	0.97284
1525.98088	0.97317
1523.92707	0.97355
1521.87326	0.97368
1519.81945	0.97346
1517.76564	0.97326
1515.71183	0.97308
1513.65802	0.97294
1511.60421	0.97303
1509.55040	0.97330
1507.49659	0.97335
1505.44278	0.97268
1503.38897	0.97195
1501.33516	0.97150
1499.28135	0.97118
1497.22754	0.97066
1495.17373	0.96963
1493.11992	0.96868
1491.06611	0.96787
1489.01230	0.96653
1486.95849	0.96431
1484.90468	0.96170
1482.85087	0.95811
1480.79706	0.95148
1478.74325	0.93659
1476.68944	0.89812
1474.63563	0.82636
1472.58182	0.76349
1470.52801	0.76185
1468.47420	0.78128
1466.42039	0.77992
1464.36658	0.75571
1462.31277	0.74890
1460.25896	0.77891
1458.20515	0.82674
1456.15134	0.86453
1454.09753	0.88160
1452.04372	0.89221
1449.98991	0.90103
1447.93610	0.90749
1445.88229	0.91155
1443.82848	0.91405
1441.77467	0.91619
1439.72086	0.91819
1437.66705	0.92011
1435.61324	0.92221
1433.55943	0.92437
1431.50562	0.92663
1429.45181	0.92899
1427.39800	0.93100
1425.34419	0.93232
1423.29038	0.93284
1421.23657	0.93269
1419.18276	0.93176
1417.12895	0.92985
1415.07514	0.92796
1413.02133	0.92658
1410.96752	0.92627
1408.91371	0.92743
1406.85990	0.92973
1404.80609	0.93288
1402.75228	0.93625
1400.69847	0.93927
1398.64466	0.94193
1396.59085	0.94407
1394.53704	0.94563
1392.48323	0.94656
1390.42942	0.94706
1388.37561	0.94709
1386.32180	0.94597
1384.26799	0.94356
1382.21418	0.93989
1380.16037	0.93538
1378.10656	0.93179
1376.05275	0.93040
1373.99894	0.93061
1371.94513	0.93106
1369.89132	0.93150
1367.83751	0.93246
1365.78370	0.93403
1363.72989	0.93562
1361.67608	0.93690
1359.62227	0.93804
1357.56846	0.93905
1355.51465	0.93972
1353.46084	0.94013
1351.40703	0.94059
1349.35322	0.94146
1347.29941	0.94278
1345.24560	0.94415
1343.19179	0.94534
1341.13798	0.94641
1339.08417	0.94748
1337.03036	0.94838
1334.97655	0.94895
1332.92274	0.94927
1330.86893	0.94935
1328.81512	0.94918
1326.76130	0.94862
1324.70749	0.94779
1322.65368	0.94699
1320.59987	0.94628
1318.54606	0.94554
1316.49225	0.94455
1314.43844	0.94337
1312.38463	0.94241
1310.33082	0.94171
1308.27701	0.94102
1306.22320	0.94023
1304.16939	0.93936
1302.11558	0.93843
1300.06177	0.93761
1298.00796	0.93698
1295.95415	0.93648
1293.90034	0.93629
1291.84653	0.93635
1289.79272	0.93654
1287.73891	0.93688
1285.68510	0.93716
1283.63129	0.93729
1281.57748	0.93740
1279.52367	0.93753
1277.46986	0.93770
1275.41605	0.93778
1273.36224	0.93777
1271.30843	0.93775
1269.25462	0.93783
1267.20081	0.93809
1265.14700	0.93822
1263.09319	0.93818
1261.03938	0.93816
1258.98557	0.93786
1256.93176	0.93731
1254.87795	0.93691
1252.82414	0.93659
1250.77033	0.93619
1248.71652	0.93577
1246.66271	0.93544
1244.60890	0.93528
1242.55509	0.93508
1240.50128	0.93474
1238.44747	0.93450
1236.39366	0.93450
1234.33985	0.93471
1232.28604	0.93488
1230.23223	0.93489
1228.17842	0.93496
1226.12461	0.93520
1224.07080	0.93536
1222.01699	0.93513
1219.96318	0.93467
1217.90937	0.93437
1215.85556	0.93408
1213.80175	0.93372
1211.74794	0.93357
1209.69413	0.93355
1207.64032	0.93358
1205.58651	0.93346
1203.53270	0.93303
1201.47889	0.93262
1199.42508	0.93221
1197.37127	0.93149
1195.31746	0.93068
1193.26365	0.93015
1191.20984	0.92973
1189.15603	0.92917
1187.10222	0.92852
1185.04841	0.92783
1182.99460	0.92707
1180.94079	0.92624
1178.88698	0.92535
1176.83317	0.92453
1174.77936	0.92398
1172.72555	0.92359
1170.67174	0.92332
1168.61793	0.92331
1166.56412	0.92344
1164.51031	0.92368
1162.45650	0.92430
1160.40269	0.92536
1158.34888	0.92651
1156.29507	0.92761
1154.24126	0.92884
1152.18745	0.93021
1150.13364	0.93151
1148.07983	0.93263
1146.02602	0.93374
1143.97221	0.93475
1141.91840	0.93536
1139.86459	0.93572
1137.81078	0.93588
1135.75697	0.93569
1133.70316	0.93541
1131.64935	0.93511
1129.59554	0.93457
1127.54173	0.93404
1125.48792	0.93353
1123.43411	0.93277
1121.38030	0.93196
1119.32649	0.93118
1117.27268	0.93044
1115.21887	0.93009
1113.16506	0.93012
1111.11125	0.93022
1109.05744	0.93029
1107.00363	0.93024
1104.94982	0.93004
1102.89601	0.92970
1100.84220	0.92927
1098.78839	0.92879
1096.73458	0.92838
1094.68077	0.92817
1092.62696	0.92807
1090.57315	0.92792
1088.51934	0.92767
1086.46553	0.92734
1084.41172	0.92716
1082.35791	0.92757
1080.30410	0.92839
1078.25029	0.92885
1076.19648	0.92882
1074.14267	0.92878
1072.08886	0.92870
1070.03505	0.92838
1067.98124	0.92803
1065.92743	0.92765
1063.87362	0.92741
1061.81981	0.92749
1059.76600	0.92761
1057.71219	0.92768
1055.65838	0.92781
1053.60457	0.92778
1051.55076	0.92739
1049.49695	0.92705
1047.44314	0.92708
1045.38933	0.92730
1043.33552	0.92728
1041.28171	0.92674
1039.22790	0.92601
1037.17409	0.92555
1035.12028	0.92536
1033.06647	0.92535
1031.01265	0.92553
1028.95884	0.92574
1026.90503	0.92592
1024.85122	0.92619
1022.79741	0.92652
1020.74360	0.92672
1018.68979	0.92702
1016.63598	0.92754
1014.58217	0.92798
1012.52836	0.92823
1010.47455	0.92851
1008.42074	0.92893
1006.36693	0.92934
1004.31312	0.92969
1002.25931	0.93015
1000.20550	0.93077
998.15169	0.93146
996.09788	0.93214
994.04407	0.93275
991.99026	0.93337
989.93645	0.93385
987.88264	0.93396
985.82883	0.93397
983.77502	0.93419
981.72121	0.93456
979.66740	0.93492
977.61359	0.93491
975.55978	0.93451
973.50597	0.93441
971.45216	0.93473
969.39835	0.93491
967.34454	0.93483
965.29073	0.93481
963.23692	0.93509
961.18311	0.93552
959.12930	0.93581
957.07549	0.93595
955.02168	0.93602
952.96787	0.93594
950.91406	0.93573
948.86025	0.93556
946.80644	0.93555
944.75263	0.93570
942.69882	0.93593
940.64501	0.93620
938.59120	0.93665
936.53739	0.93720
934.48358	0.93763
932.42977	0.93804
930.37596	0.93867
928.32215	0.93963
926.26834	0.94065
924.21453	0.94140
922.16072	0.94187
920.10691	0.94221
918.05310	0.94234
915.99929	0.94218
913.94548	0.94192
911.89167	0.94171
909.83786	0.94174
907.78405	0.94218
905.73024	0.94312
903.67643	0.94432
901.62262	0.94532
899.56881	0.94595
897.51500	0.94636
895.46119	0.94697
893.40738	0.94782
891.35357	0.94823
889.29976	0.94832
887.24595	0.94876
885.19214	0.94903
883.13833	0.94871
881.08452	0.94822
879.03071	0.94758
876.97690	0.94654
874.92309	0.94594
872.86928	0.94706
870.81547	0.94942
868.76166	0.95128
866.70785	0.95237
864.65404	0.95341
862.60023	0.95415
860.54642	0.95437
858.49261	0.95448
856.43880	0.95450
854.38499	0.95441
852.33118	0.95471
850.27737	0.95526
848.22356	0.95556
846.16975	0.95592
844.11594	0.95656
842.06213	0.95693
840.00832	0.95699
837.95451	0.95720
835.90070	0.95738
833.84689	0.95740
831.79308	0.95742
829.73927	0.95734
827.68546	0.95722
825.63165	0.95696
823.57784	0.95639
821.52403	0.95594
819.47022	0.95582
817.41641	0.95593
815.36260	0.95620
813.30879	0.95634
811.25498	0.95628
809.20117	0.95591
807.14736	0.95528
805.09355	0.95475
803.03974	0.95413
800.98593	0.95322
798.93212	0.95268
796.87831	0.95280
794.82450	0.95263
792.77069	0.95205
790.71688	0.95207
788.66307	0.95266
786.60926	0.95288
784.55545	0.95265
782.50164	0.95250
780.44783	0.95234
778.39402	0.95235
776.34021	0.95268
774.28640	0.95277
772.23259	0.95254
770.17878	0.95282
768.12497	0.95368
766.07116	0.95423
764.01735	0.95391
761.96354	0.95317
759.90973	0.95229
757.85592	0.95125
755.80211	0.95063
753.74830	0.95066
751.69449	0.95060
749.64068	0.95011
747.58687	0.94947
745.53306	0.94824
743.47925	0.94609
741.42544	0.94310
739.37163	0.93845
737.31781	0.92962
735.26400	0.90750
733.21019	0.85918
731.15638	0.80174
729.10257	0.78143
727.04876	0.80095
724.99495	0.81418
722.94114	0.78969
720.88733	0.73610
718.83352	0.70402
716.77971	0.73139
714.72590	0.79431
712.67209	0.85241
710.61828	0.88935
708.56447	0.90927
706.51066	0.92055
704.45685	0.92770
702.40304	0.93259
700.34923	0.93623
698.29542	0.93885
696.24161	0.94057
694.18780	0.94201
692.13399	0.94369
690.08018	0.94509
688.02637	0.94578
685.97256	0.94587
683.91875	0.94562
681.86494	0.94543
679.81113	0.94523
677.75732	0.94483
675.70351	0.94451
673.64970	0.94454
671.59589	0.94479
669.54208	0.94509
667.48827	0.94510
665.43446	0.94509
663.38065	0.94559
661.32684	0.94656
659.27303	0.94753
657.21922	0.94812
655.16541	0.94875
653.11160	0.94962
651.05779	0.94998
649.00398	0.94892
646.95017	0.94717
644.89636	0.94624
642.84255	0.94572
640.78874	0.94511
638.73493	0.94479
636.68112	0.94449
634.62731	0.94427
632.57350	0.94435
630.51969	0.94444
628.46588	0.94457
626.41207	0.94517
624.35826	0.94648
622.30445	0.94738
620.25064	0.94703
618.19683	0.94621
616.14302	0.94498
614.08921	0.94356
612.03540	0.94319
609.98159	0.94341
607.92778	0.94278
605.87397	0.94145
603.82016	0.94065
601.76635	0.94072
599.71254	0.94085
597.65873	0.94066
595.60492	0.94073
593.55111	0.94091
591.49730	0.94065
589.44349	0.94082
587.38968	0.94097
585.33587	0.94020
583.28206	0.93962
581.22825	0.93928
579.17444	0.93935
577.12063	0.94054
575.06682	0.94190
573.01301	0.94251
570.95920	0.94167
568.90539	0.93972
566.85158	0.93904
564.79777	0.94001
562.74396	0.94116
560.69015	0.94229
558.63634	0.94306
556.58253	0.94285
554.52872	0.94201
552.47491	0.94069
550.42110	0.93874
548.36729	0.93673
546.31348	0.93485
544.25967	0.93306
542.20586	0.93286
540.15205	0.93445
538.09824	0.93538
536.04443	0.93523
533.99062	0.93485
531.93681	0.93388
529.88300	0.93348
527.82919	0.93410
525.77538	0.93396
523.72157	0.93326
521.66776	0.93357
519.61395	0.93433
517.56014	0.93414
515.50633	0.93340
513.45252	0.93349
511.39871	0.93375
509.34490	0.93405
507.29109	0.93578
505.23728	0.93783
503.18347	0.93772
501.12966	0.93681
499.07585	0.93797
497.02204	0.93948
494.96823	0.93921
492.91442	0.93793
490.86061	0.93578
488.80680	0.93279
486.75299	0.93079
484.69918	0.93007
482.64537	0.92948
480.59156	0.92953
478.53775	0.92990
476.48394	0.92939
474.43013	0.92740
472.37632	0.92571
470.32251	0.92607
468.26870	0.92654
466.21489	0.92669
464.16108	0.92776
462.10727	0.92879
460.05346	0.92788
457.99965	0.92660
455.94584	0.92604
453.89203	0.92504
451.83822	0.92460
449.78441	0.92616
447.73060	0.92919
445.67679	0.93164
443.62298	0.93353
441.56916	0.93436
439.51535	0.93303
437.46154	0.93213
435.40773	0.93260
433.35392	0.93163
431.30011	0.92867
429.24630	0.92567
427.19249	0.92382
425.13868	0.92429
423.08487	0.92652
421.03106	0.92793
418.97725	0.92726
416.92344	0.92799
414.86963	0.93003
412.81582	0.93106
410.76201	0.93562
408.70820	0.94289
406.65439	0.94379
404.60058	0.93967
402.54677	0.93697
400.49296	0.93430
398.43915	0.92878
