3996.70104	0.97010
3994.64724	0.97014
3992.59344	0.97019
3990.53964	0.97022
3988.48583	0.97026
3986.43203	0.97016
3984.37823	0.97003
3982.32442	0.96988
3980.27062	0.96972
3978.21682	0.96992
3976.16301	0.97047
3974.10921	0.97065
3972.05541	0.97021
3970.00160	0.96974
3967.94780	0.96955
3965.89400	0.96964
3963.84019	0.97008
3961.78639	0.97052
3959.73259	0.97040
3957.67878	0.96977
3955.62498	0.96941
3953.57118	0.96944
3951.51737	0.96941
3949.46357	0.96952
3947.40977	0.96989
3945.35596	0.97025
3943.30216	0.97051
3941.24836	0.97046
3939.19455	0.97013
3937.14075	0.96992
3935.08695	0.97029
3933.03315	0.97102
3930.97934	0.97122
3928.92554	0.97092
3926.87174	0.97063
3924.81793	0.97039
3922.76413	0.97063
3920.71033	0.97100
3918.65652	0.97091
3916.60272	0.97051
3914.54892	0.97007
3912.49511	0.97002
3910.44131	0.97012
3908.38751	0.96983
3906.33370	0.96970
3904.27990	0.97041
3902.22610	0.97158
3900.17229	0.97237
3898.11849	0.97211
3896.06469	0.97121
3894.01088	0.97051
3891.95708	0.97015
3889.90328	0.97014
3887.84947	0.97052
3885.79567	0.97101
3883.74187	0.97087
3881.68807	0.97028
3879.63426	0.97009
3877.58046	0.97014
3875.52666	0.97035
3873.47285	0.97082
3871.41905	0.97104
3869.36525	0.97100
3867.31144	0.97052
3865.25764	0.96984
3863.20384	0.97011
3861.15003	0.97071
3859.09623	0.97017
3857.04243	0.96894
3854.98862	0.96868
3852.93482	0.97074
3850.88102	0.97204
3848.82721	0.97178
3846.77341	0.97131
3844.71961	0.97076
3842.66580	0.97029
3840.61200	0.97090
3838.55820	0.97265
3836.50439	0.97338
3834.45059	0.97282
3832.39679	0.97248
3830.34298	0.97218
3828.28918	0.97147
3826.23538	0.97098
3824.18158	0.97077
3822.12777	0.97053
3820.07397	0.97065
3818.02017	0.97115
3815.96636	0.97169
3813.91256	0.97175
3811.85876	0.97162
3809.80495	0.97175
3807.75115	0.97216
3805.69735	0.97274
3803.64354	0.97296
3801.58974	0.97295
3799.53594	0.97297
3797.48213	0.97252
3795.42833	0.97146
3793.37453	0.97071
3791.32072	0.97057
3789.26692	0.97041
3787.21312	0.97043
3785.15931	0.97113
3783.10551	0.97174
3781.05171	0.97165
3778.99790	0.97155
3776.94410	0.97191
3774.89030	0.97247
3772.83650	0.97260
3770.78269	0.97203
3768.72889	0.97146
3766.67509	0.97157
3764.62128	0.97203
3762.56748	0.97236
3760.51368	0.97248
3758.45987	0.97249
3756.40607	0.97230
3754.35227	0.97174
3752.29846	0.97171
3750.24466	0.97262
3748.19086	0.97295
3746.13705	0.97341
3744.08325	0.97469
3742.02945	0.97480
3739.97564	0.97374
3737.92184	0.97290
3735.86804	0.97265
3733.81423	0.97268
3731.76043	0.97260
3729.70663	0.97200
3727.65282	0.97144
3725.59902	0.97110
3723.54522	0.96965
3721.49141	0.96739
3719.43761	0.96611
3717.38381	0.96590
3715.33001	0.96541
3713.27620	0.96322
3711.22240	0.95903
3709.16860	0.95509
3707.11479	0.95176
3705.06099	0.94749
3703.00719	0.94187
3700.95338	0.93611
3698.89958	0.93211
3696.84578	0.93023
3694.79197	0.93017
3692.73817	0.93191
3690.68437	0.93594
3688.63056	0.94075
3686.57676	0.94276
3684.52296	0.94329
3682.46915	0.94415
3680.41535	0.94514
3678.36155	0.94551
3676.30774	0.94512
3674.25394	0.94453
3672.20014	0.94410
3670.14633	0.94325
3668.09253	0.94196
3666.03873	0.94122
3663.98492	0.94090
3661.93112	0.94001
3659.87732	0.93838
3657.82352	0.93666
3655.76971	0.93522
3653.71591	0.93426
3651.66211	0.93345
3649.60830	0.93239
3647.55450	0.93106
3645.50070	0.92998
3643.44689	0.92902
3641.39309	0.92796
3639.33929	0.92745
3637.28548	0.92720
3635.23168	0.92595
3633.17788	0.92422
3631.12407	0.92283
3629.07027	0.92055
3627.01647	0.91758
3624.96266	0.91563
3622.90886	0.91426
3620.85506	0.91354
3618.80125	0.91386
3616.74745	0.91471
3614.69365	0.91544
3612.63984	0.91632
3610.58604	0.91717
3608.53224	0.91714
3606.47844	0.91622
3604.42463	0.91532
3602.37083	0.91475
3600.31703	0.91436
3598.26322	0.91390
3596.20942	0.91330
3594.15562	0.91270
3592.10181	0.91262
3590.04801	0.91313
3587.99421	0.91340
3585.94040	0.91224
3583.88660	0.91035
3581.83280	0.90918
3579.77899	0.90879
3577.72519	0.90800
3575.67139	0.90659
3573.61758	0.90552
3571.56378	0.90465
3569.50998	0.90338
3567.45617	0.90209
3565.40237	0.90156
3563.34857	0.90133
3561.29476	0.90063
3559.24096	0.89969
3557.18716	0.89917
3555.13335	0.89875
3553.07955	0.89733
3551.02575	0.89531
3548.97195	0.89402
3546.91814	0.89330
3544.86434	0.89266
3542.81054	0.89192
3540.75673	0.89091
3538.70293	0.88961
3536.64913	0.88842
3534.59532	0.88776
3532.54152	0.88717
3530.48772	0.88623
3528.43391	0.88535
3526.38011	0.88502
3524.32631	0.88475
3522.27250	0.88420
3520.21870	0.88387
3518.16490	0.88365
3516.11109	0.88302
3514.05729	0.88192
3512.00349	0.88077
3509.94968	0.88000
3507.89588	0.87968
3505.84208	0.87968
3503.78827	0.87948
3501.73447	0.87870
3499.68067	0.87786
3497.62687	0.87699
3495.57306	0.87572
3493.51926	0.87454
3491.46546	0.87408
3489.41165	0.87391
3487.35785	0.87333
3485.30405	0.87258
3483.25024	0.87163
3481.19644	0.87027
3479.14264	0.86919
3477.08883	0.86855
3475.03503	0.86768
3472.98123	0.86652
3470.92742	0.86534
3468.87362	0.86411
3466.81982	0.86296
3464.76601	0.86218
3462.71221	0.86157
3460.65841	0.86076
3458.60460	0.85974
3456.55080	0.85874
3454.49700	0.85785
3452.44319	0.85696
3450.38939	0.85605
3448.33559	0.85524
3446.28178	0.85452
3444.22798	0.85373
3442.17418	0.85297
3440.12038	0.85236
3438.06657	0.85158
3436.01277	0.85023
3433.95897	0.84827
3431.90516	0.84631
3429.85136	0.84500
3427.79756	0.84399
3425.74375	0.84300
3423.68995	0.84234
3421.63615	0.84152
3419.58234	0.84020
3417.52854	0.83897
3415.47474	0.83766
3413.42093	0.83648
3411.36713	0.83586
3409.31333	0.83511
3407.25952	0.83399
3405.20572	0.83287
3403.15192	0.83209
3401.09811	0.83198
3399.04431	0.83191
3396.99051	0.83121
3394.93670	0.83055
3392.88290	0.83065
3390.82910	0.83117
3388.77529	0.83157
3386.72149	0.83158
3384.66769	0.83151
3382.61389	0.83184
3380.56008	0.83220
3378.50628	0.83267
3376.45248	0.83323
3374.39867	0.83319
3372.34487	0.83307
3370.29107	0.83339
3368.23726	0.83375
3366.18346	0.83391
3364.12966	0.83395
3362.07585	0.83421
3360.02205	0.83471
3357.96825	0.83543
3355.91444	0.83629
3353.86064	0.83693
3351.80684	0.83709
3349.75303	0.83704
3347.69923	0.83714
3345.64543	0.83758
3343.59162	0.83817
3341.53782	0.83861
3339.48402	0.83896
3337.43021	0.83938
3335.37641	0.83978
3333.32261	0.84015
3331.26881	0.84084
3329.21500	0.84189
3327.16120	0.84288
3325.10740	0.84363
3323.05359	0.84414
3320.99979	0.84450
3318.94599	0.84492
3316.89218	0.84519
3314.83838	0.84543
3312.78458	0.84625
3310.73077	0.84703
3308.67697	0.84729
3306.62317	0.84784
3304.56936	0.84878
3302.51556	0.84973
3300.46176	0.85084
3298.40795	0.85169
3296.35415	0.85187
3294.30035	0.85190
3292.24654	0.85219
3290.19274	0.85278
3288.13894	0.85337
3286.08513	0.85375
3284.03133	0.85419
3281.97753	0.85476
3279.92372	0.85530
3277.86992	0.85595
3275.81612	0.85678
3273.76232	0.85713
3271.70851	0.85697
3269.65471	0.85737
3267.60091	0.85807
3265.54710	0.85835
3263.49330	0.85886
3261.43950	0.85971
3259.38569	0.86028
3257.33189	0.86078
3255.27809	0.86108
3253.22428	0.86090
3251.17048	0.86099
3249.11668	0.86156
3247.06287	0.86224
3245.00907	0.86324
3242.95527	0.86457
3240.90146	0.86545
3238.84766	0.86568
3236.79386	0.86592
3234.74005	0.86657
3232.68625	0.86715
3230.63245	0.86737
3228.57864	0.86792
3226.52484	0.86894
3224.47104	0.86996
3222.41724	0.87095
3220.36343	0.87194
3218.30963	0.87302
3216.25583	0.87415
3214.20202	0.87471
3212.14822	0.87475
3210.09442	0.87538
3208.04061	0.87674
3205.98681	0.87786
3203.93301	0.87862
3201.87920	0.87964
3199.82540	0.88080
3197.77160	0.88166
3195.71779	0.88247
3193.66399	0.88366
3191.61019	0.88496
3189.55638	0.88590
3187.50258	0.88646
3185.44878	0.88700
3183.39497	0.88763
3181.34117	0.88825
3179.28737	0.88913
3177.23356	0.89049
3175.17976	0.89176
3173.12596	0.89270
3171.07215	0.89348
3169.01835	0.89409
3166.96455	0.89462
3164.91075	0.89562
3162.85694	0.89701
3160.80314	0.89810
3158.74934	0.89898
3156.69553	0.89976
3154.64173	0.90029
3152.58793	0.90087
3150.53412	0.90177
3148.48032	0.90298
3146.42652	0.90422
3144.37271	0.90508
3142.31891	0.90557
3140.26511	0.90614
3138.21130	0.90684
3136.15750	0.90787
3134.10370	0.90914
3132.04989	0.91004
3129.99609	0.91045
3127.94229	0.91105
3125.88848	0.91235
3123.83468	0.91371
3121.78088	0.91427
3119.72707	0.91463
3117.67327	0.91548
3115.61947	0.91619
3113.56566	0.91671
3111.51186	0.91768
3109.45806	0.91899
3107.40426	0.91996
3105.35045	0.92055
3103.29665	0.92104
3101.24285	0.92121
3099.18904	0.92130
3097.13524	0.92167
3095.08144	0.92219
3093.02763	0.92278
3090.97383	0.92345
3088.92003	0.92425
3086.86622	0.92502
3084.81242	0.92552
3082.75862	0.92603
3080.70481	0.92674
3078.65101	0.92761
3076.59721	0.92854
3074.54340	0.92926
3072.48960	0.92973
3070.43580	0.92992
3068.38199	0.93001
3066.32819	0.93029
3064.27439	0.93074
3062.22058	0.93142
3060.16678	0.93212
3058.11298	0.93258
3056.05918	0.93326
3054.00537	0.93419
3051.95157	0.93469
3049.89777	0.93487
3047.84396	0.93515
3045.79016	0.93561
3043.73636	0.93634
3041.68255	0.93708
3039.62875	0.93755
3037.57495	0.93813
3035.52114	0.93910
3033.46734	0.93974
3031.41354	0.93963
3029.35973	0.93951
3027.30593	0.93956
3025.25213	0.93974
3023.19832	0.94041
3021.14452	0.94116
3019.09072	0.94133
3017.03691	0.94097
3014.98311	0.94075
3012.92931	0.94114
3010.87550	0.94153
3008.82170	0.94132
3006.76790	0.94098
3004.71409	0.94098
3002.66029	0.94115
3000.60649	0.94105
2998.55269	0.94064
2996.49888	0.93983
2994.44508	0.93868
2992.39128	0.93794
2990.33747	0.93742
2988.28367	0.93615
2986.22987	0.93411
2984.17606	0.93194
2982.12226	0.92953
2980.06846	0.92577
2978.01465	0.92047
2975.96085	0.91410
2973.90705	0.90621
2971.85324	0.89604
2969.79944	0.88302
2967.74564	0.86646
2965.69183	0.84684
2963.63803	0.82627
2961.58423	0.80798
2959.53042	0.79553
2957.47662	0.78849
2955.42282	0.78159
2953.36901	0.77109
2951.31521	0.76015
2949.26141	0.75715
2947.20761	0.76770
2945.15380	0.78880
2943.10000	0.81132
2941.04620	0.82675
2938.99239	0.83204
2936.93859	0.82871
2934.88479	0.81837
2932.83098	0.80142
2930.77718	0.77929
2928.72338	0.75462
2926.66957	0.72886
2924.61577	0.70219
2922.56197	0.67479
2920.50816	0.64796
2918.45436	0.62680
2916.40056	0.62013
2914.34675	0.63248
2912.29295	0.65772
2910.23915	0.68485
2908.18534	0.70769
2906.13154	0.72667
2904.07774	0.74408
2902.02393	0.76071
2899.97013	0.77626
2897.91633	0.79022
2895.86252	0.80233
2893.80872	0.81200
2891.75492	0.81881
2889.70112	0.82311
2887.64731	0.82533
2885.59351	0.82575
2883.53971	0.82479
2881.48590	0.82246
2879.43210	0.81918
2877.37830	0.81686
2875.32449	0.81734
2873.27069	0.81936
2871.21689	0.81980
2869.16308	0.81772
2867.10928	0.81612
2865.05548	0.82007
2863.00167	0.83117
2860.94787	0.84411
2858.89407	0.85151
2856.84026	0.84919
2854.78646	0.83599
2852.73266	0.81480
2850.67885	0.79629
2848.62505	0.79338
2846.57125	0.80525
2844.51744	0.81743
2842.46364	0.82031
2840.40984	0.81646
2838.35603	0.81394
2836.30223	0.82021
2834.24843	0.83728
2832.19463	0.85981
2830.14082	0.88039
2828.08702	0.89589
2826.03322	0.90675
2823.97941	0.91406
2821.92561	0.91924
2819.87181	0.92329
2817.81800	0.92661
2815.76420	0.92926
2813.71040	0.93100
2811.65659	0.93223
2809.60279	0.93375
2807.54899	0.93597
2805.49518	0.93823
2803.44138	0.93989
2801.38758	0.94123
2799.33377	0.94244
2797.27997	0.94328
2795.22617	0.94391
2793.17236	0.94484
2791.11856	0.94597
2789.06476	0.94688
2787.01095	0.94782
2784.95715	0.94916
2782.90335	0.95057
2780.84955	0.95161
2778.79574	0.95221
2776.74194	0.95264
2774.68814	0.95308
2772.63433	0.95328
2770.58053	0.95332
2768.52673	0.95360
2766.47292	0.95417
2764.41912	0.95485
2762.36532	0.95550
2760.31151	0.95608
2758.25771	0.95645
2756.20391	0.95639
2754.15010	0.95615
2752.09630	0.95627
2750.04250	0.95675
2747.98869	0.95704
2745.93489	0.95701
2743.88109	0.95694
2741.82728	0.95693
2739.77348	0.95703
2737.71968	0.95696
2735.66587	0.95659
2733.61207	0.95630
2731.55827	0.95615
2729.50446	0.95590
2727.45066	0.95541
2725.39686	0.95475
2723.34306	0.95438
2721.28925	0.95459
2719.23545	0.95518
2717.18165	0.95611
2715.12784	0.95709
2713.07404	0.95763
2711.02024	0.95799
2708.96643	0.95856
2706.91263	0.95903
2704.85883	0.95928
2702.80502	0.95958
2700.75122	0.95997
2698.69742	0.96025
2696.64361	0.96028
2694.58981	0.96035
2692.53601	0.96053
2690.48220	0.96055
2688.42840	0.96061
2686.37460	0.96086
2684.32079	0.96114
2682.26699	0.96155
2680.21319	0.96177
2678.15938	0.96139
2676.10558	0.96096
2674.05178	0.96102
2671.99797	0.96137
2669.94417	0.96155
2667.89037	0.96137
2665.83657	0.96109
2663.78276	0.96104
2661.72896	0.96124
2659.67516	0.96144
2657.62135	0.96163
2655.56755	0.96178
2653.51375	0.96175
2651.45994	0.96180
2649.40614	0.96214
2647.35234	0.96273
2645.29853	0.96329
2643.24473	0.96362
2641.19093	0.96370
2639.13712	0.96355
2637.08332	0.96370
2635.02952	0.96437
2632.97571	0.96460
2630.92191	0.96438
2628.86811	0.96423
2626.81430	0.96388
2624.76050	0.96368
2622.70670	0.96401
2620.65289	0.96455
2618.59909	0.96525
2616.54529	0.96560
2614.49149	0.96508
2612.43768	0.96456
2610.38388	0.96468
2608.33008	0.96485
2606.27627	0.96497
2604.22247	0.96549
2602.16867	0.96590
2600.11486	0.96572
2598.06106	0.96538
2596.00726	0.96518
2593.95345	0.96521
2591.89965	0.96555
2589.84585	0.96564
2587.79204	0.96543
2585.73824	0.96560
2583.68444	0.96593
2581.63063	0.96578
2579.57683	0.96532
2577.52303	0.96506
2575.46922	0.96537
2573.41542	0.96610
2571.36162	0.96647
2569.30781	0.96628
2567.25401	0.96621
2565.20021	0.96664
2563.14640	0.96713
2561.09260	0.96736
2559.03880	0.96753
2556.98500	0.96766
2554.93119	0.96742
2552.87739	0.96694
2550.82359	0.96684
2548.76978	0.96693
2546.71598	0.96689
2544.66218	0.96703
2542.60837	0.96730
2540.55457	0.96743
2538.50077	0.96762
2536.44696	0.96798
2534.39316	0.96833
2532.33936	0.96821
2530.28555	0.96774
2528.23175	0.96751
2526.17795	0.96724
2524.12414	0.96686
2522.07034	0.96673
2520.01654	0.96683
2517.96273	0.96704
2515.90893	0.96729
2513.85513	0.96771
2511.80132	0.96851
2509.74752	0.96918
2507.69372	0.96931
2505.63992	0.96897
2503.58611	0.96836
2501.53231	0.96804
2499.47851	0.96821
2497.42470	0.96854
2495.37090	0.96894
2493.31710	0.96965
2491.26329	0.97028
2489.20949	0.97042
2487.15569	0.97030
2485.10188	0.97011
2483.04808	0.97027
2480.99428	0.97080
2478.94047	0.97137
2476.88667	0.97143
2474.83287	0.97083
2472.77906	0.97016
2470.72526	0.96958
2468.67146	0.96919
2466.61765	0.96917
2464.56385	0.96913
2462.51005	0.96909
2460.45624	0.96958
2458.40244	0.97061
2456.34864	0.97120
2454.29483	0.97087
2452.24103	0.97051
2450.18723	0.97054
2448.13343	0.97081
2446.07962	0.97117
2444.02582	0.97124
2441.97202	0.97072
2439.91821	0.97003
2437.86441	0.96998
2435.81061	0.97044
2433.75680	0.97084
2431.70300	0.97081
2429.64920	0.97068
2427.59539	0.97110
2425.54159	0.97149
2423.48779	0.97120
2421.43398	0.97068
2419.38018	0.97061
2417.32638	0.97071
2415.27257	0.97044
2413.21877	0.97028
2411.16497	0.97027
2409.11116	0.97021
2407.05736	0.97036
2405.00356	0.97071
2402.94975	0.97112
2400.89595	0.97119
2398.84215	0.97056
2396.78834	0.97005
2394.73454	0.97041
2392.68074	0.97074
2390.62694	0.97059
2388.57313	0.97048
2386.51933	0.97032
2384.46553	0.96990
2382.41172	0.96973
2380.35792	0.97011
2378.30412	0.97048
2376.25031	0.97027
2374.19651	0.96953
2372.14271	0.96919
2370.08890	0.96956
2368.03510	0.97003
2365.98130	0.97062
2363.92749	0.97057
2361.87369	0.96953
2359.81989	0.96891
2357.76608	0.96963
2355.71228	0.97056
2353.65848	0.97038
2351.60467	0.96959
2349.55087	0.96933
2347.49707	0.96964
2345.44326	0.96969
2343.38946	0.96960
2341.33566	0.96972
2339.28186	0.96908
2337.22805	0.96867
2335.17425	0.96917
2333.12045	0.96885
2331.06664	0.96789
2329.01284	0.96827
2326.95904	0.96936
2324.90523	0.96898
2322.85143	0.96717
2320.79763	0.96633
2318.74382	0.96723
2316.69002	0.96858
2314.63622	0.96941
2312.58241	0.96948
2310.52861	0.96933
2308.47481	0.96904
2306.42100	0.96861
2304.36720	0.96840
2302.31340	0.96813
2300.25959	0.96814
2298.20579	0.96894
2296.15199	0.96978
2294.09818	0.97020
2292.04438	0.97038
2289.99058	0.97049
2287.93677	0.97085
2285.88297	0.97093
2283.82917	0.97045
2281.77537	0.97111
2279.72156	0.97271
2277.66776	0.97303
2275.61396	0.97233
2273.56015	0.97143
2271.50635	0.97071
2269.45255	0.97070
2267.39874	0.97070
2265.34494	0.97069
2263.29114	0.97107
2261.23733	0.97079
2259.18353	0.96983
2257.12973	0.96930
2255.07592	0.96962
2253.02212	0.97084
2250.96832	0.97193
2248.91451	0.97203
2246.86071	0.97218
2244.80691	0.97263
2242.75310	0.97240
2240.69930	0.97211
2238.64550	0.97255
2236.59169	0.97289
2234.53789	0.97264
2232.48409	0.97157
2230.43029	0.97056
2228.37648	0.97157
2226.32268	0.97342
2224.26888	0.97323
2222.21507	0.97218
2220.16127	0.97265
2218.10747	0.97432
2216.05366	0.97644
2213.99986	0.97776
2211.94606	0.97782
2209.89225	0.97749
2207.83845	0.97648
2205.78465	0.97504
2203.73084	0.97469
2201.67704	0.97526
2199.62324	0.97512
2197.56943	0.97522
2195.51563	0.97603
2193.46183	0.97539
2191.40802	0.97411
2189.35422	0.97431
2187.30042	0.97617
2185.24661	0.97749
2183.19281	0.97647
2181.13901	0.97599
2179.08520	0.97707
2177.03140	0.97701
2174.97760	0.97609
2172.92380	0.97622
2170.86999	0.97664
2168.81619	0.97636
2166.76239	0.97647
2164.70858	0.97677
2162.65478	0.97666
2160.60098	0.97784
2158.54717	0.98171
2156.49337	0.98496
2154.43957	0.98321
2152.38576	0.97932
2150.33196	0.97753
2148.27816	0.97638
2146.22435	0.97499
2144.17055	0.97539
2142.11675	0.97673
2140.06294	0.97694
2138.00914	0.97743
2135.95534	0.97933
2133.90153	0.97967
2131.84773	0.97753
2129.79393	0.97561
2127.74012	0.97481
2125.68632	0.97483
2123.63252	0.97528
2121.57871	0.97512
2119.52491	0.97504
2117.47111	0.97557
2115.41731	0.97597
2113.36350	0.97622
2111.30970	0.97609
2109.25590	0.97619
2107.20209	0.97700
2105.14829	0.97712
2103.09449	0.97579
2101.04068	0.97417
2098.98688	0.97394
2096.93308	0.97520
2094.87927	0.97669
2092.82547	0.97783
2090.77167	0.97819
2088.71786	0.97724
2086.66406	0.97548
2084.61026	0.97471
2082.55645	0.97575
2080.50265	0.97684
2078.44885	0.97690
2076.39504	0.97597
2074.34124	0.97425
2072.28744	0.97322
2070.23363	0.97346
2068.17983	0.97451
2066.12603	0.97625
2064.07223	0.97779
2062.01842	0.97891
2059.96462	0.98039
2057.91082	0.98068
2055.85701	0.97835
2053.80321	0.97576
2051.74941	0.97515
2049.69560	0.97624
2047.64180	0.97752
2045.58800	0.97747
2043.53419	0.97688
2041.48039	0.97668
2039.42659	0.97622
2037.37278	0.97636
2035.31898	0.97657
2033.26518	0.97601
2031.21137	0.97627
2029.15757	0.97800
2027.10377	0.98076
2025.04996	0.98106
2022.99616	0.97909
2020.94236	0.97997
2018.88855	0.98305
2016.83475	0.98350
2014.78095	0.98086
2012.72714	0.97939
2010.67334	0.98109
2008.61954	0.98391
2006.56574	0.98493
2004.51193	0.98304
2002.45813	0.97998
2000.40433	0.97882
1998.35052	0.98030
1996.29672	0.98166
1994.24292	0.98120
1992.18911	0.98073
1990.13531	0.98031
1988.08151	0.97813
1986.02770	0.97720
1983.97390	0.97964
1981.92010	0.98232
1979.86629	0.98317
1977.81249	0.98182
1975.75869	0.97877
1973.70488	0.97788
1971.65108	0.98034
1969.59728	0.98215
1967.54347	0.98148
1965.48967	0.97956
1963.43587	0.97848
1961.38206	0.97991
1959.32826	0.98135
1957.27446	0.97962
1955.22066	0.97709
1953.16685	0.97687
1951.11305	0.97857
1949.05925	0.97993
1947.00544	0.97951
1944.95164	0.97919
1942.89784	0.97997
1940.84403	0.98021
1938.79023	0.97945
1936.73643	0.97816
1934.68262	0.97766
1932.62882	0.97803
1930.57502	0.97790
1928.52121	0.97701
1926.46741	0.97606
1924.41361	0.97643
1922.35980	0.97811
1920.30600	0.97909
1918.25220	0.97910
1916.19839	0.97873
1914.14459	0.97776
1912.09079	0.97712
1910.03698	0.97708
1907.98318	0.97659
1905.92938	0.97604
1903.87557	0.97643
1901.82177	0.97766
1899.76797	0.97838
1897.71417	0.97796
1895.66036	0.97750
1893.60656	0.97777
1891.55276	0.97847
1889.49895	0.97887
1887.44515	0.97840
1885.39135	0.97775
1883.33754	0.97752
1881.28374	0.97725
1879.22994	0.97703
1877.17613	0.97731
1875.12233	0.97746
1873.06853	0.97712
1871.01472	0.97681
1868.96092	0.97654
1866.90712	0.97659
1864.85331	0.97707
1862.79951	0.97738
1860.74571	0.97719
1858.69190	0.97702
1856.63810	0.97732
1854.58430	0.97763
1852.53049	0.97772
1850.47669	0.97731
1848.42289	0.97641
1846.36908	0.97615
1844.31528	0.97716
1842.26148	0.97788
1840.20768	0.97754
1838.15387	0.97702
1836.10007	0.97669
1834.04627	0.97657
1831.99246	0.97662
1829.93866	0.97667
1827.88486	0.97628
1825.83105	0.97575
1823.77725	0.97581
1821.72345	0.97634
1819.66964	0.97687
1817.61584	0.97715
1815.56204	0.97666
1813.50823	0.97562
1811.45443	0.97497
1809.40063	0.97483
1807.34682	0.97446
1805.29302	0.97400
1803.23922	0.97389
1801.18541	0.97311
1799.13161	0.97159
1797.07781	0.97054
1795.02400	0.96999
1792.97020	0.96995
1790.91640	0.97047
1788.86260	0.97104
1786.80879	0.97161
1784.75499	0.97221
1782.70119	0.97243
1780.64738	0.97214
1778.59358	0.97177
1776.53978	0.97166
1774.48597	0.97195
1772.43217	0.97238
1770.37837	0.97214
1768.32456	0.97147
1766.27076	0.97066
1764.21696	0.96975
1762.16315	0.96891
1760.10935	0.96818
1758.05555	0.96729
1756.00174	0.96564
1753.94794	0.96351
1751.89414	0.96124
1749.84033	0.95848
1747.78653	0.95536
1745.73273	0.95207
1743.67892	0.94846
1741.62512	0.94512
1739.57132	0.94239
1737.51751	0.94018
1735.46371	0.93852
1733.40991	0.93736
1731.35611	0.93674
1729.30230	0.93633
1727.24850	0.93647
1725.19470	0.93715
1723.14089	0.93781
1721.08709	0.93842
1719.03329	0.93939
1716.97948	0.94085
1714.92568	0.94174
1712.87188	0.94188
1710.81807	0.94206
1708.76427	0.94226
1706.71047	0.94182
1704.65666	0.94114
1702.60286	0.94115
1700.54906	0.94088
1698.49525	0.93891
1696.44145	0.93606
1694.38765	0.93312
1692.33384	0.93090
1690.28004	0.92889
1688.22624	0.92655
1686.17243	0.92403
1684.11863	0.92091
1682.06483	0.91789
1680.01103	0.91558
1677.95722	0.91371
1675.90342	0.91189
1673.84962	0.90971
1671.79581	0.90752
1669.74201	0.90496
1667.68821	0.90243
1665.63440	0.90075
1663.58060	0.89894
1661.52680	0.89645
1659.47299	0.89446
1657.41919	0.89334
1655.36539	0.89250
1653.31158	0.89068
1651.25778	0.88885
1649.20398	0.88859
1647.15017	0.88790
1645.09637	0.88615
1643.04257	0.88490
1640.98876	0.88419
1638.93496	0.88423
1636.88116	0.88535
1634.82735	0.88694
1632.77355	0.88785
1630.71975	0.88844
1628.66594	0.88895
1626.61214	0.88936
1624.55834	0.88986
1622.50454	0.89090
1620.45073	0.89251
1618.39693	0.89464
1616.34313	0.89761
1614.28932	0.90048
1612.23552	0.90294
1610.18172	0.90518
1608.12791	0.90696
1606.07411	0.90847
1604.02031	0.91034
1601.96650	0.91249
1599.91270	0.91413
1597.85890	0.91523
1595.80509	0.91641
1593.75129	0.91781
1591.69749	0.91897
1589.64368	0.91989
1587.58988	0.92098
1585.53608	0.92206
1583.48227	0.92270
1581.42847	0.92335
1579.37467	0.92419
1577.32086	0.92513
1575.26706	0.92621
1573.21326	0.92690
1571.15945	0.92730
1569.10565	0.92754
1567.05185	0.92755
1564.99805	0.92769
1562.94424	0.92813
1560.89044	0.92880
1558.83664	0.92909
1556.78283	0.92841
1554.72903	0.92840
1552.67523	0.92859
1550.62142	0.92831
1548.56762	0.92768
1546.51382	0.92759
1544.46001	0.92839
1542.40621	0.92915
1540.35241	0.92827
1538.29860	0.92697
1536.24480	0.92654
1534.19100	0.92575
1532.13719	0.92439
1530.08339	0.92348
1528.02959	0.92306
1525.97578	0.92238
1523.92198	0.92129
1521.86818	0.91955
1519.81437	0.91726
1517.76057	0.91489
1515.70677	0.91217
1513.65297	0.90970
1511.59916	0.90746
1509.54536	0.90515
1507.49156	0.90161
1505.43775	0.89665
1503.38395	0.89333
1501.33015	0.89036
1499.27634	0.88623
1497.22254	0.88041
1495.16874	0.87420
1493.11493	0.86950
1491.06113	0.86468
1489.00733	0.85761
1486.95352	0.85046
1484.89972	0.84473
1482.84592	0.83902
1480.79211	0.83239
1478.73831	0.82535
1476.68451	0.81650
1474.63070	0.80323
1472.57690	0.78615
1470.52310	0.77234
1468.46929	0.76222
1466.41549	0.74866
1464.36169	0.72912
1462.30788	0.71362
1460.25408	0.70608
1458.20028	0.69943
1456.14648	0.69015
1454.09267	0.68431
1452.03887	0.68097
1449.98507	0.67905
1447.93126	0.68005
1445.87746	0.68407
1443.82366	0.68879
1441.76985	0.69201
1439.71605	0.69268
1437.66225	0.69022
1435.60844	0.68511
1433.55464	0.68266
1431.50084	0.68331
1429.44703	0.68457
1427.39323	0.68538
1425.33943	0.68600
1423.28562	0.68658
1421.23182	0.68734
1419.17802	0.68833
1417.12421	0.69016
1415.07041	0.69329
1413.01661	0.69772
1410.96280	0.70398
1408.90900	0.71190
1406.85520	0.72089
1404.80139	0.73077
1402.74759	0.73971
1400.69379	0.74683
1398.63999	0.75377
1396.58618	0.76143
1394.53238	0.77053
1392.47858	0.77989
1390.42477	0.78817
1388.37097	0.79599
1386.31717	0.80101
1384.26336	0.79798
1382.20956	0.78176
1380.15576	0.74615
1378.10195	0.69656
1376.04815	0.65903
1373.99435	0.66112
1371.94054	0.69760
1369.88674	0.73931
1367.83294	0.77258
1365.77913	0.79309
1363.72533	0.80368
1361.67153	0.80768
1359.61772	0.80844
1357.56392	0.81202
1355.51012	0.82147
1353.45631	0.83397
1351.40251	0.84532
1349.34871	0.85444
1347.29491	0.86177
1345.24110	0.86766
1343.18730	0.87231
1341.13350	0.87617
1339.07969	0.87971
1337.02589	0.88272
1334.97209	0.88476
1332.91828	0.88580
1330.86448	0.88626
1328.81068	0.88722
1326.75687	0.88914
1324.70307	0.89160
1322.64927	0.89410
1320.59546	0.89646
1318.54166	0.89869
1316.48786	0.90055
1314.43405	0.90212
1312.38025	0.90341
1310.32645	0.90395
1308.27264	0.90312
1306.21884	0.90122
1304.16504	0.90020
1302.11123	0.90139
1300.05743	0.90329
1298.00363	0.90425
1295.94982	0.90449
1293.89602	0.90503
1291.84222	0.90626
1289.78842	0.90771
1287.73461	0.90892
1285.68081	0.90976
1283.62701	0.91024
1281.57320	0.91043
1279.51940	0.91057
1277.46560	0.91051
1275.41179	0.90998
1273.35799	0.90916
1271.30419	0.90819
1269.25038	0.90670
1267.19658	0.90444
1265.14278	0.90173
1263.08897	0.89929
1261.03517	0.89766
1258.98137	0.89657
1256.92756	0.89606
1254.87376	0.89694
1252.81996	0.89898
1250.76615	0.90075
1248.71235	0.90165
1246.65855	0.90214
1244.60474	0.90246
1242.55094	0.90236
1240.49714	0.90223
1238.44334	0.90246
1236.38953	0.90270
1234.33573	0.90276
1232.28193	0.90268
1230.22812	0.90256
1228.17432	0.90226
1226.12052	0.90168
1224.06671	0.90091
1222.01291	0.89999
1219.95911	0.89906
1217.90530	0.89867
1215.85150	0.89907
1213.79770	0.89944
1211.74389	0.89918
1209.69009	0.89854
1207.63629	0.89765
1205.58248	0.89654
1203.52868	0.89539
1201.47488	0.89388
1199.42107	0.89184
1197.36727	0.88959
1195.31347	0.88735
1193.25966	0.88487
1191.20586	0.88200
1189.15206	0.87916
1187.09825	0.87611
1185.04445	0.87242
1182.99065	0.86830
1180.93685	0.86392
1178.88304	0.85928
1176.82924	0.85393
1174.77544	0.84689
1172.72163	0.83774
1170.66783	0.82713
1168.61403	0.81730
1166.56022	0.81137
1164.50642	0.81009
1162.45262	0.81112
1160.39881	0.81182
1158.34501	0.81127
1156.29121	0.80981
1154.23740	0.80804
1152.18360	0.80636
1150.12980	0.80516
1148.07599	0.80470
1146.02219	0.80472
1143.96839	0.80460
1141.91458	0.80389
1139.86078	0.80257
1137.80698	0.80090
1135.75317	0.79889
1133.69937	0.79602
1131.64557	0.79203
1129.59176	0.78713
1127.53796	0.78160
1125.48416	0.77528
1123.43036	0.76782
1121.37655	0.75953
1119.32275	0.75101
1117.26895	0.74267
1115.21514	0.73491
1113.16134	0.72785
1111.10754	0.72143
1109.05373	0.71557
1106.99993	0.71022
1104.94613	0.70524
1102.89232	0.70103
1100.83852	0.69844
1098.78472	0.69750
1096.73091	0.69750
1094.67711	0.69808
1092.62331	0.69912
1090.56950	0.70016
1088.51570	0.70049
1086.46190	0.70037
1084.40809	0.70066
1082.35429	0.70112
1080.30049	0.70110
1078.24668	0.70051
1076.19288	0.69934
1074.13908	0.69765
1072.08528	0.69561
1070.03147	0.69303
1067.97767	0.68942
1065.92387	0.68485
1063.87006	0.67980
1061.81626	0.67452
1059.76246	0.66865
1057.70865	0.66157
1055.65485	0.65294
1053.60105	0.64263
1051.54724	0.63109
1049.49344	0.61889
1047.43964	0.60677
1045.38583	0.59579
1043.33203	0.58615
1041.27823	0.57740
1039.22442	0.56950
1037.17062	0.56263
1035.11682	0.55664
1033.06301	0.55185
1031.00921	0.54892
1028.95541	0.54783
1026.90160	0.54800
1024.84780	0.54851
1022.79400	0.54839
1020.74019	0.54776
1018.68639	0.54738
1016.63259	0.54770
1014.57879	0.54934
1012.52498	0.55217
1010.47118	0.55528
1008.41738	0.55856
1006.36357	0.56252
1004.30977	0.56709
1002.25597	0.57132
1000.20216	0.57498
998.14836	0.58126
996.09456	0.59414
994.04075	0.61261
991.98695	0.63200
989.93315	0.64920
987.87934	0.66423
985.82554	0.67781
983.77174	0.68953
981.71793	0.69921
979.66413	0.70674
977.61033	0.71093
975.55652	0.71166
973.50272	0.71311
971.44892	0.72155
969.39511	0.73747
967.34131	0.75442
965.28751	0.76780
963.23371	0.77782
961.17990	0.78573
959.12610	0.79221
957.07230	0.79753
955.01849	0.80205
952.96469	0.80573
950.91089	0.80866
948.85708	0.81119
946.80328	0.81312
944.74948	0.81413
942.69567	0.81420
940.64187	0.81420
938.58807	0.81549
936.53426	0.81802
934.48046	0.82057
932.42666	0.82258
930.37285	0.82375
928.31905	0.82432
926.26525	0.82444
924.21144	0.82335
922.15764	0.82101
920.10384	0.81771
918.05003	0.81384
915.99623	0.81086
913.94243	0.80939
911.88862	0.80942
909.83482	0.81196
907.78102	0.81717
905.72722	0.82297
903.67341	0.82700
901.61961	0.82921
899.56581	0.83248
897.51200	0.83917
895.45820	0.84779
893.40440	0.85496
891.35059	0.85922
889.29679	0.85933
887.24299	0.85076
885.18918	0.83135
883.13538	0.80609
881.08158	0.77652
879.02777	0.73818
876.97397	0.69660
874.92017	0.67110
872.86636	0.67992
870.81256	0.72265
868.75876	0.77662
866.70495	0.81788
864.65115	0.84174
862.59735	0.85523
860.54354	0.86316
858.48974	0.86778
856.43594	0.87075
854.38213	0.87282
852.32833	0.87387
850.27453	0.87232
848.22073	0.86885
846.16692	0.86589
844.11312	0.85978
842.05932	0.84921
840.00551	0.84518
837.95171	0.85361
835.89791	0.86472
833.84410	0.87032
831.79030	0.87204
829.73650	0.87251
827.68269	0.87188
825.62889	0.87031
823.57509	0.86851
821.52128	0.86665
819.46748	0.86465
817.41368	0.86241
815.35987	0.85937
813.30607	0.85443
811.25227	0.84781
809.19846	0.84269
807.14466	0.84159
805.09086	0.84294
803.03705	0.84423
800.98325	0.84474
798.92945	0.84488
796.87565	0.84531
794.82184	0.84608
792.76804	0.84668
790.71424	0.84708
788.66043	0.84771
786.60663	0.84851
784.55283	0.84884
782.49902	0.84825
780.44522	0.84711
778.39142	0.84659
776.33761	0.84694
774.28381	0.84743
772.23001	0.84713
770.17620	0.84540
768.12240	0.84318
766.06860	0.84154
764.01479	0.83969
761.96099	0.83717
759.90719	0.83480
757.85338	0.83250
755.79958	0.83029
753.74578	0.82878
751.69197	0.82744
749.63817	0.82563
747.58437	0.82402
745.53056	0.82335
743.47676	0.82312
741.42296	0.82306
739.36916	0.82335
737.31535	0.82323
735.26155	0.82121
733.20775	0.81558
731.15394	0.80896
729.10014	0.80750
727.04634	0.81029
724.99253	0.81045
722.93873	0.80467
720.88493	0.79476
718.83112	0.78562
716.77732	0.77663
714.72352	0.76272
712.66971	0.75215
710.61591	0.75718
708.56211	0.77040
706.50830	0.77811
704.45450	0.77868
702.40070	0.77619
700.34689	0.77315
698.29309	0.77009
696.23929	0.76719
694.18548	0.76514
692.13168	0.76399
690.07788	0.76337
688.02408	0.76354
685.97027	0.76388
683.91647	0.76393
681.86267	0.76388
679.80886	0.76287
677.75506	0.76059
675.70126	0.75816
673.64745	0.75584
671.59365	0.75342
669.53985	0.75246
667.48604	0.75553
665.43224	0.76014
663.37844	0.76338
661.32463	0.76507
659.27083	0.76534
657.21703	0.76509
655.16322	0.76559
653.10942	0.76704
651.05562	0.76788
649.00181	0.76753
646.94801	0.76723
644.89421	0.76781
642.84040	0.76846
640.78660	0.76839
638.73280	0.76827
636.67899	0.76810
634.62519	0.76705
632.57139	0.76573
630.51759	0.76461
628.46378	0.76315
626.40998	0.76186
624.35618	0.76133
622.30237	0.76051
620.24857	0.75874
618.19477	0.75736
616.14096	0.75618
614.08716	0.75372
612.03336	0.75069
609.97955	0.74782
607.92575	0.74511
605.87195	0.74252
603.81814	0.74029
601.76434	0.73892
599.71054	0.73763
597.65673	0.73710
595.60293	0.73864
593.54913	0.74012
591.49532	0.73977
589.44152	0.73890
587.38772	0.73815
585.33391	0.73608
583.28011	0.73314
581.22631	0.73151
579.17250	0.73077
577.11870	0.72935
575.06490	0.72709
573.01110	0.72417
570.95729	0.72149
568.90349	0.72019
566.84969	0.71831
564.79588	0.71417
562.74208	0.70918
560.68828	0.70489
558.63447	0.70180
556.58067	0.69845
554.52687	0.69488
552.47306	0.69293
550.41926	0.69083
548.36546	0.68630
546.31165	0.68020
544.25785	0.67322
542.20405	0.66523
540.15024	0.65743
538.09644	0.65188
536.04264	0.64933
533.98883	0.64842
531.93503	0.64740
529.88123	0.64722
527.82742	0.64989
525.77362	0.65524
523.71982	0.66094
521.66602	0.66454
519.61221	0.66748
517.55841	0.67224
515.50461	0.67710
513.45080	0.68067
511.39700	0.68504
509.34320	0.69093
507.28939	0.69536
505.23559	0.69623
503.18179	0.69532
501.12798	0.69545
499.07418	0.69729
497.02038	0.69959
494.96657	0.70156
492.91277	0.70166
490.85897	0.69890
488.80516	0.69495
486.75136	0.68988
484.69756	0.68298
482.64375	0.67605
480.58995	0.66776
478.53615	0.65551
476.48234	0.64147
474.42854	0.62775
472.37474	0.61219
470.32093	0.59692
468.26713	0.58719
466.21333	0.58431
464.15953	0.58778
462.10572	0.59532
460.05192	0.60352
457.99812	0.61036
455.94431	0.61648
453.89051	0.62043
451.83671	0.62208
449.78290	0.62624
447.72910	0.63314
445.67530	0.63823
443.62149	0.64092
441.56769	0.64269
439.51389	0.64354
437.46008	0.64452
435.40628	0.64460
433.35248	0.64216
431.29867	0.63769
429.24487	0.63242
427.19107	0.63169
425.13726	0.63624
423.08346	0.64029
421.02966	0.64545
418.97585	0.65494
416.92205	0.65963
414.86825	0.66185
412.81445	0.66871
410.76064	0.67753
408.70684	0.68589
406.65304	0.69433
404.59923	0.69853
402.54543	0.69543
400.49163	0.69108
398.43782	0.68995
