3996.70104	0.93808
3994.64724	0.93808
3992.59344	0.93805
3990.53964	0.93832
3988.48583	0.93874
3986.43203	0.93867
3984.37823	0.93835
3982.32442	0.93845
3980.27062	0.93897
3978.21682	0.93933
3976.16301	0.93915
3974.10921	0.93873
3972.05541	0.93811
3970.00160	0.93781
3967.94780	0.93830
3965.89400	0.93860
3963.84019	0.93863
3961.78639	0.93902
3959.73259	0.93926
3957.67878	0.93912
3955.62498	0.93866
3953.57118	0.93822
3951.51737	0.93846
3949.46357	0.93897
3947.40977	0.93901
3945.35596	0.93895
3943.30216	0.93903
3941.24836	0.93888
3939.19455	0.93876
3937.14075	0.93901
3935.08695	0.93942
3933.03315	0.93942
3930.97934	0.93911
3928.92554	0.93923
3926.87174	0.93962
3924.81793	0.93967
3922.76413	0.93946
3920.71033	0.93969
3918.65652	0.94018
3916.60272	0.94006
3914.54892	0.93962
3912.49511	0.93944
3910.44131	0.93937
3908.38751	0.93947
3906.33370	0.94014
3904.27990	0.94082
3902.22610	0.94048
3900.17229	0.93998
3898.11849	0.94007
3896.06469	0.94006
3894.01088	0.93997
3891.95708	0.93993
3889.90328	0.93961
3887.84947	0.93919
3885.79567	0.93883
3883.74187	0.93846
3881.68807	0.93833
3879.63426	0.93876
3877.58046	0.93935
3875.52666	0.93955
3873.47285	0.93967
3871.41905	0.93997
3869.36525	0.93991
3867.31144	0.93962
3865.25764	0.93949
3863.20384	0.93929
3861.15003	0.93914
3859.09623	0.93908
3857.04243	0.93908
3854.98862	0.93933
3852.93482	0.93965
3850.88102	0.93975
3848.82721	0.94006
3846.77341	0.94034
3844.71961	0.94010
3842.66580	0.93972
3840.61200	0.94007
3838.55820	0.94057
3836.50439	0.94034
3834.45059	0.94006
3832.39679	0.94014
3830.34298	0.94018
3828.28918	0.94004
3826.23538	0.94010
3824.18158	0.94026
3822.12777	0.94000
3820.07397	0.93945
3818.02017	0.93916
3815.96636	0.93913
3813.91256	0.93947
3811.85876	0.94008
3809.80495	0.94080
3807.75115	0.94101
3805.69735	0.94056
3803.64354	0.94077
3801.58974	0.94187
3799.53594	0.94195
3797.48213	0.94076
3795.42833	0.94008
3793.37453	0.94004
3791.32072	0.93972
3789.26692	0.93969
3787.21312	0.94042
3785.15931	0.94104
3783.10551	0.94124
3781.05171	0.94147
3778.99790	0.94145
3776.94410	0.94085
3774.89030	0.94054
3772.83650	0.94086
3770.78269	0.94130
3768.72889	0.94158
3766.67509	0.94162
3764.62128	0.94145
3762.56748	0.94135
3760.51368	0.94152
3758.45987	0.94199
3756.40607	0.94233
3754.35227	0.94210
3752.29846	0.94142
3750.24466	0.94112
3748.19086	0.94154
3746.13705	0.94212
3744.08325	0.94303
3742.02945	0.94412
3739.97564	0.94474
3737.92184	0.94506
3735.86804	0.94511
3733.81423	0.94421
3731.76043	0.94302
3729.70663	0.94247
3727.65282	0.94218
3725.59902	0.94186
3723.54522	0.94162
3721.49141	0.94131
3719.43761	0.94097
3717.38381	0.94089
3715.33001	0.94080
3713.27620	0.93984
3711.22240	0.93794
3709.16860	0.93684
3707.11479	0.93664
3705.06099	0.93613
3703.00719	0.93460
3700.95338	0.93242
3698.89958	0.93080
3696.84578	0.93005
3694.79197	0.92994
3692.73817	0.93031
3690.68437	0.93138
3688.63056	0.93266
3686.57676	0.93306
3684.52296	0.93307
3682.46915	0.93260
3680.41535	0.93159
3678.36155	0.93131
3676.30774	0.93221
3674.25394	0.93213
3672.20014	0.93085
3670.14633	0.93005
3668.09253	0.92994
3666.03873	0.92977
3663.98492	0.92952
3661.93112	0.92938
3659.87732	0.92899
3657.82352	0.92841
3655.76971	0.92798
3653.71591	0.92742
3651.66211	0.92648
3649.60830	0.92537
3647.55450	0.92512
3645.50070	0.92554
3643.44689	0.92551
3641.39309	0.92474
3639.33929	0.92382
3637.28548	0.92338
3635.23168	0.92299
3633.17788	0.92226
3631.12407	0.92151
3629.07027	0.92115
3627.01647	0.92112
3624.96266	0.92071
3622.90886	0.91984
3620.85506	0.91928
3618.80125	0.91952
3616.74745	0.91961
3614.69365	0.91917
3612.63984	0.91901
3610.58604	0.91948
3608.53224	0.92003
3606.47844	0.92048
3604.42463	0.92126
3602.37083	0.92194
3600.31703	0.92168
3598.26322	0.92091
3596.20942	0.92072
3594.15562	0.92145
3592.10181	0.92239
3590.04801	0.92282
3587.99421	0.92281
3585.94040	0.92238
3583.88660	0.92155
3581.83280	0.92078
3579.77899	0.92061
3577.72519	0.92070
3575.67139	0.92038
3573.61758	0.91994
3571.56378	0.91964
3569.50998	0.91952
3567.45617	0.91984
3565.40237	0.92020
3563.34857	0.91998
3561.29476	0.91951
3559.24096	0.91915
3557.18716	0.91882
3555.13335	0.91871
3553.07955	0.91881
3551.02575	0.91844
3548.97195	0.91788
3546.91814	0.91798
3544.86434	0.91856
3542.81054	0.91871
3540.75673	0.91864
3538.70293	0.91871
3536.64913	0.91834
3534.59532	0.91780
3532.54152	0.91786
3530.48772	0.91817
3528.43391	0.91821
3526.38011	0.91837
3524.32631	0.91898
3522.27250	0.91942
3520.21870	0.91928
3518.16490	0.91885
3516.11109	0.91837
3514.05729	0.91803
3512.00349	0.91796
3509.94968	0.91795
3507.89588	0.91761
3505.84208	0.91749
3503.78827	0.91812
3501.73447	0.91886
3499.68067	0.91906
3497.62687	0.91876
3495.57306	0.91839
3493.51926	0.91834
3491.46546	0.91825
3489.41165	0.91783
3487.35785	0.91742
3485.30405	0.91706
3483.25024	0.91678
3481.19644	0.91710
3479.14264	0.91802
3477.08883	0.91851
3475.03503	0.91787
3472.98123	0.91701
3470.92742	0.91686
3468.87362	0.91696
3466.81982	0.91667
3464.76601	0.91590
3462.71221	0.91531
3460.65841	0.91548
3458.60460	0.91597
3456.55080	0.91614
3454.49700	0.91585
3452.44319	0.91532
3450.38939	0.91501
3448.33559	0.91514
3446.28178	0.91561
3444.22798	0.91620
3442.17418	0.91620
3440.12038	0.91552
3438.06657	0.91521
3436.01277	0.91552
3433.95897	0.91565
3431.90516	0.91515
3429.85136	0.91465
3427.79756	0.91451
3425.74375	0.91450
3423.68995	0.91442
3421.63615	0.91410
3419.58234	0.91381
3417.52854	0.91384
3415.47474	0.91379
3413.42093	0.91369
3411.36713	0.91405
3409.31333	0.91446
3407.25952	0.91425
3405.20572	0.91371
3403.15192	0.91339
3401.09811	0.91325
3399.04431	0.91333
3396.99051	0.91360
3394.93670	0.91375
3392.88290	0.91386
3390.82910	0.91379
3388.77529	0.91354
3386.72149	0.91339
3384.66769	0.91331
3382.61389	0.91345
3380.56008	0.91377
3378.50628	0.91394
3376.45248	0.91403
3374.39867	0.91412
3372.34487	0.91414
3370.29107	0.91412
3368.23726	0.91431
3366.18346	0.91469
3364.12966	0.91488
3362.07585	0.91487
3360.02205	0.91465
3357.96825	0.91435
3355.91444	0.91471
3353.86064	0.91538
3351.80684	0.91558
3349.75303	0.91586
3347.69923	0.91623
3345.64543	0.91604
3343.59162	0.91585
3341.53782	0.91606
3339.48402	0.91623
3337.43021	0.91595
3335.37641	0.91542
3333.32261	0.91521
3331.26881	0.91565
3329.21500	0.91626
3327.16120	0.91673
3325.10740	0.91707
3323.05359	0.91710
3320.99979	0.91741
3318.94599	0.91783
3316.89218	0.91751
3314.83838	0.91689
3312.78458	0.91670
3310.73077	0.91705
3308.67697	0.91755
3306.62317	0.91766
3304.56936	0.91753
3302.51556	0.91746
3300.46176	0.91749
3298.40795	0.91786
3296.35415	0.91844
3294.30035	0.91878
3292.24654	0.91857
3290.19274	0.91809
3288.13894	0.91799
3286.08513	0.91828
3284.03133	0.91862
3281.97753	0.91894
3279.92372	0.91909
3277.86992	0.91885
3275.81612	0.91870
3273.76232	0.91888
3271.70851	0.91894
3269.65471	0.91879
3267.60091	0.91883
3265.54710	0.91919
3263.49330	0.91961
3261.43950	0.91978
3259.38569	0.91964
3257.33189	0.91943
3255.27809	0.91954
3253.22428	0.92002
3251.17048	0.92041
3249.11668	0.92062
3247.06287	0.92081
3245.00907	0.92088
3242.95527	0.92110
3240.90146	0.92124
3238.84766	0.92092
3236.79386	0.92080
3234.74005	0.92116
3232.68625	0.92130
3230.63245	0.92120
3228.57864	0.92134
3226.52484	0.92182
3224.47104	0.92230
3222.41724	0.92259
3220.36343	0.92293
3218.30963	0.92315
3216.25583	0.92301
3214.20202	0.92278
3212.14822	0.92260
3210.09442	0.92248
3208.04061	0.92299
3205.98681	0.92380
3203.93301	0.92396
3201.87920	0.92368
3199.82540	0.92359
3197.77160	0.92388
3195.71779	0.92439
3193.66399	0.92465
3191.61019	0.92456
3189.55638	0.92455
3187.50258	0.92465
3185.44878	0.92452
3183.39497	0.92434
3181.34117	0.92445
3179.28737	0.92485
3177.23356	0.92512
3175.17976	0.92515
3173.12596	0.92553
3171.07215	0.92623
3169.01835	0.92671
3166.96455	0.92662
3164.91075	0.92606
3162.85694	0.92577
3160.80314	0.92591
3158.74934	0.92594
3156.69553	0.92608
3154.64173	0.92680
3152.58793	0.92788
3150.53412	0.92866
3148.48032	0.92861
3146.42652	0.92798
3144.37271	0.92751
3142.31891	0.92766
3140.26511	0.92833
3138.21130	0.92876
3136.15750	0.92865
3134.10370	0.92851
3132.04989	0.92854
3129.99609	0.92885
3127.94229	0.92932
3125.88848	0.92944
3123.83468	0.92918
3121.78088	0.92897
3119.72707	0.92902
3117.67327	0.92917
3115.61947	0.92907
3113.56566	0.92895
3111.51186	0.92903
3109.45806	0.92870
3107.40426	0.92766
3105.35045	0.92667
3103.29665	0.92653
3101.24285	0.92713
3099.18904	0.92783
3097.13524	0.92821
3095.08144	0.92831
3093.02763	0.92791
3090.97383	0.92678
3088.92003	0.92519
3086.86622	0.92313
3084.81242	0.92076
3082.75862	0.91883
3080.70481	0.91815
3078.65101	0.91892
3076.59721	0.92042
3074.54340	0.92197
3072.48960	0.92290
3070.43580	0.92237
3068.38199	0.92046
3066.32819	0.91818
3064.27439	0.91608
3062.22058	0.91404
3060.16678	0.91239
3058.11298	0.91246
3056.05918	0.91460
3054.00537	0.91733
3051.95157	0.91951
3049.89777	0.92119
3047.84396	0.92283
3045.79016	0.92436
3043.73636	0.92494
3041.68255	0.92460
3039.62875	0.92380
3037.57495	0.92211
3035.52114	0.91922
3033.46734	0.91478
3031.41354	0.90824
3029.35973	0.90028
3027.30593	0.89329
3025.25213	0.88991
3023.19832	0.89134
3021.14452	0.89690
3019.09072	0.90439
3017.03691	0.91129
3014.98311	0.91630
3012.92931	0.91961
3010.87550	0.92212
3008.82170	0.92382
3006.76790	0.92417
3004.71409	0.92360
3002.66029	0.92298
3000.60649	0.92315
2998.55269	0.92425
2996.49888	0.92563
2994.44508	0.92704
2992.39128	0.92849
2990.33747	0.92976
2988.28367	0.93069
2986.22987	0.93124
2984.17606	0.93137
2982.12226	0.93135
2980.06846	0.93146
2978.01465	0.93151
2975.96085	0.93125
2973.90705	0.93083
2971.85324	0.93072
2969.79944	0.93079
2967.74564	0.93046
2965.69183	0.92995
2963.63803	0.92964
2961.58423	0.92918
2959.53042	0.92866
2957.47662	0.92825
2955.42282	0.92756
2953.36901	0.92680
2951.31521	0.92603
2949.26141	0.92473
2947.20761	0.92287
2945.15380	0.92046
2943.10000	0.91752
2941.04620	0.91441
2938.99239	0.91110
2936.93859	0.90760
2934.88479	0.90375
2932.83098	0.89936
2930.77718	0.89477
2928.72338	0.89031
2926.66957	0.88631
2924.61577	0.88346
2922.56197	0.88183
2920.50816	0.88095
2918.45436	0.88102
2916.40056	0.88199
2914.34675	0.88337
2912.29295	0.88536
2910.23915	0.88823
2908.18534	0.89157
2906.13154	0.89487
2904.07774	0.89800
2902.02393	0.90104
2899.97013	0.90403
2897.91633	0.90662
2895.86252	0.90866
2893.80872	0.91045
2891.75492	0.91200
2889.70112	0.91321
2887.64731	0.91447
2885.59351	0.91584
2883.53971	0.91700
2881.48590	0.91806
2879.43210	0.91923
2877.37830	0.92045
2875.32449	0.92129
2873.27069	0.92157
2871.21689	0.92188
2869.16308	0.92248
2867.10928	0.92272
2865.05548	0.92251
2863.00167	0.92215
2860.94787	0.92119
2858.89407	0.91948
2856.84026	0.91730
2854.78646	0.91491
2852.73266	0.91291
2850.67885	0.91171
2848.62505	0.91156
2846.57125	0.91259
2844.51744	0.91442
2842.46364	0.91675
2840.40984	0.91941
2838.35603	0.92210
2836.30223	0.92459
2834.24843	0.92670
2832.19463	0.92824
2830.14082	0.92928
2828.08702	0.92990
2826.03322	0.93011
2823.97941	0.93018
2821.92561	0.93054
2819.87181	0.93101
2817.81800	0.93134
2815.76420	0.93184
2813.71040	0.93242
2811.65659	0.93286
2809.60279	0.93332
2807.54899	0.93342
2805.49518	0.93315
2803.44138	0.93302
2801.38758	0.93314
2799.33377	0.93343
2797.27997	0.93374
2795.22617	0.93389
2793.17236	0.93414
2791.11856	0.93451
2789.06476	0.93453
2787.01095	0.93438
2784.95715	0.93457
2782.90335	0.93482
2780.84955	0.93499
2778.79574	0.93507
2776.74194	0.93481
2774.68814	0.93461
2772.63433	0.93479
2770.58053	0.93509
2768.52673	0.93542
2766.47292	0.93577
2764.41912	0.93604
2762.36532	0.93606
2760.31151	0.93597
2758.25771	0.93610
2756.20391	0.93628
2754.15010	0.93616
2752.09630	0.93616
2750.04250	0.93657
2747.98869	0.93675
2745.93489	0.93656
2743.88109	0.93639
2741.82728	0.93644
2739.77348	0.93670
2737.71968	0.93688
2735.66587	0.93703
2733.61207	0.93721
2731.55827	0.93702
2729.50446	0.93670
2727.45066	0.93672
2725.39686	0.93687
2723.34306	0.93680
2721.28925	0.93672
2719.23545	0.93682
2717.18165	0.93715
2715.12784	0.93760
2713.07404	0.93781
2711.02024	0.93792
2708.96643	0.93805
2706.91263	0.93796
2704.85883	0.93793
2702.80502	0.93816
2700.75122	0.93822
2698.69742	0.93805
2696.64361	0.93783
2694.58981	0.93766
2692.53601	0.93778
2690.48220	0.93805
2688.42840	0.93838
2686.37460	0.93864
2684.32079	0.93868
2682.26699	0.93859
2680.21319	0.93835
2678.15938	0.93801
2676.10558	0.93780
2674.05178	0.93779
2671.99797	0.93794
2669.94417	0.93822
2667.89037	0.93854
2665.83657	0.93884
2663.78276	0.93893
2661.72896	0.93842
2659.67516	0.93771
2657.62135	0.93752
2655.56755	0.93775
2653.51375	0.93799
2651.45994	0.93812
2649.40614	0.93826
2647.35234	0.93853
2645.29853	0.93876
2643.24473	0.93884
2641.19093	0.93873
2639.13712	0.93860
2637.08332	0.93878
2635.02952	0.93902
2632.97571	0.93911
2630.92191	0.93917
2628.86811	0.93913
2626.81430	0.93894
2624.76050	0.93896
2622.70670	0.93912
2620.65289	0.93900
2618.59909	0.93898
2616.54529	0.93943
2614.49149	0.93991
2612.43768	0.94013
2610.38388	0.94019
2608.33008	0.93997
2606.27627	0.93938
2604.22247	0.93911
2602.16867	0.93942
2600.11486	0.93974
2598.06106	0.94000
2596.00726	0.94012
2593.95345	0.93986
2591.89965	0.93991
2589.84585	0.94049
2587.79204	0.94104
2585.73824	0.94141
2583.68444	0.94109
2581.63063	0.94016
2579.57683	0.94016
2577.52303	0.94109
2575.46922	0.94150
2573.41542	0.94138
2571.36162	0.94111
2569.30781	0.94071
2567.25401	0.94053
2565.20021	0.94060
2563.14640	0.94117
2561.09260	0.94211
2559.03880	0.94231
2556.98500	0.94191
2554.93119	0.94167
2552.87739	0.94123
2550.82359	0.94074
2548.76978	0.94088
2546.71598	0.94137
2544.66218	0.94187
2542.60837	0.94232
2540.55457	0.94272
2538.50077	0.94306
2536.44696	0.94277
2534.39316	0.94186
2532.33936	0.94149
2530.28555	0.94179
2528.23175	0.94211
2526.17795	0.94230
2524.12414	0.94213
2522.07034	0.94164
2520.01654	0.94148
2517.96273	0.94217
2515.90893	0.94305
2513.85513	0.94320
2511.80132	0.94278
2509.74752	0.94248
2507.69372	0.94262
2505.63992	0.94292
2503.58611	0.94295
2501.53231	0.94242
2499.47851	0.94182
2497.42470	0.94208
2495.37090	0.94246
2493.31710	0.94196
2491.26329	0.94162
2489.20949	0.94203
2487.15569	0.94245
2485.10188	0.94273
2483.04808	0.94282
2480.99428	0.94261
2478.94047	0.94250
2476.88667	0.94268
2474.83287	0.94292
2472.77906	0.94296
2470.72526	0.94298
2468.67146	0.94321
2466.61765	0.94350
2464.56385	0.94344
2462.51005	0.94291
2460.45624	0.94283
2458.40244	0.94385
2456.34864	0.94477
2454.29483	0.94480
2452.24103	0.94449
2450.18723	0.94389
2448.13343	0.94329
2446.07962	0.94358
2444.02582	0.94424
2441.97202	0.94451
2439.91821	0.94423
2437.86441	0.94357
2435.81061	0.94333
2433.75680	0.94385
2431.70300	0.94467
2429.64920	0.94500
2427.59539	0.94463
2425.54159	0.94407
2423.48779	0.94348
2421.43398	0.94321
2419.38018	0.94372
2417.32638	0.94442
2415.27257	0.94481
2413.21877	0.94502
2411.16497	0.94509
2409.11116	0.94512
2407.05736	0.94522
2405.00356	0.94553
2402.94975	0.94574
2400.89595	0.94557
2398.84215	0.94542
2396.78834	0.94548
2394.73454	0.94549
2392.68074	0.94530
2390.62694	0.94510
2388.57313	0.94498
2386.51933	0.94478
2384.46553	0.94454
2382.41172	0.94450
2380.35792	0.94492
2378.30412	0.94537
2376.25031	0.94519
2374.19651	0.94463
2372.14271	0.94462
2370.08890	0.94530
2368.03510	0.94609
2365.98130	0.94600
2363.92749	0.94443
2361.87369	0.94308
2359.81989	0.94337
2357.76608	0.94421
2355.71228	0.94483
2353.65848	0.94517
2351.60467	0.94485
2349.55087	0.94424
2347.49707	0.94384
2345.44326	0.94316
2343.38946	0.94205
2341.33566	0.94163
2339.28186	0.94177
2337.22805	0.94201
2335.17425	0.94256
2333.12045	0.94296
2331.06664	0.94311
2329.01284	0.94292
2326.95904	0.94196
2324.90523	0.94120
2322.85143	0.94180
2320.79763	0.94311
2318.74382	0.94372
2316.69002	0.94370
2314.63622	0.94385
2312.58241	0.94436
2310.52861	0.94482
2308.47481	0.94457
2306.42100	0.94402
2304.36720	0.94370
2302.31340	0.94384
2300.25959	0.94436
2298.20579	0.94473
2296.15199	0.94472
2294.09818	0.94397
2292.04438	0.94278
2289.99058	0.94228
2287.93677	0.94258
2285.88297	0.94312
2283.82917	0.94368
2281.77537	0.94394
2279.72156	0.94388
2277.66776	0.94463
2275.61396	0.94619
2273.56015	0.94714
2271.50635	0.94709
2269.45255	0.94628
2267.39874	0.94517
2265.34494	0.94446
2263.29114	0.94479
2261.23733	0.94535
2259.18353	0.94482
2257.12973	0.94474
2255.07592	0.94663
2253.02212	0.94919
2250.96832	0.94985
2248.91451	0.94809
2246.86071	0.94622
2244.80691	0.94561
2242.75310	0.94632
2240.69930	0.94761
2238.64550	0.94752
2236.59169	0.94587
2234.53789	0.94468
2232.48409	0.94556
2230.43029	0.94783
2228.37648	0.94839
2226.32268	0.94696
2224.26888	0.94593
2222.21507	0.94556
2220.16127	0.94605
2218.10747	0.94674
2216.05366	0.94643
2213.99986	0.94588
2211.94606	0.94606
2209.89225	0.94750
2207.83845	0.94890
2205.78465	0.94865
2203.73084	0.94723
2201.67704	0.94649
2199.62324	0.94790
2197.56943	0.94981
2195.51563	0.95004
2193.46183	0.94874
2191.40802	0.94729
2189.35422	0.94689
2187.30042	0.94666
2185.24661	0.94588
2183.19281	0.94592
2181.13901	0.94763
2179.08520	0.94985
2177.03140	0.95046
2174.97760	0.94905
2172.92380	0.94739
2170.86999	0.94730
2168.81619	0.94728
2166.76239	0.94596
2164.70858	0.94487
2162.65478	0.94338
2160.60098	0.94315
2158.54717	0.94792
2156.49337	0.95410
2154.43957	0.95637
2152.38576	0.95427
2150.33196	0.95168
2148.27816	0.95088
2146.22435	0.95092
2144.17055	0.95193
2142.11675	0.95267
2140.06294	0.95177
2138.00914	0.95116
2135.95534	0.95252
2133.90153	0.95417
2131.84773	0.95376
2129.79393	0.95152
2127.74012	0.94956
2125.68632	0.94880
2123.63252	0.94829
2121.57871	0.94768
2119.52491	0.94753
2117.47111	0.94806
2115.41731	0.94870
2113.36350	0.94880
2111.30970	0.94847
2109.25590	0.94780
2107.20209	0.94700
2105.14829	0.94734
2103.09449	0.94863
2101.04068	0.94899
2098.98688	0.94885
2096.93308	0.94970
2094.87927	0.95072
2092.82547	0.95025
2090.77167	0.94910
2088.71786	0.94873
2086.66406	0.94872
2084.61026	0.94893
2082.55645	0.95003
2080.50265	0.95154
2078.44885	0.95180
2076.39504	0.95079
2074.34124	0.94920
2072.28744	0.94803
2070.23363	0.94900
2068.17983	0.95045
2066.12603	0.95003
2064.07223	0.94882
2062.01842	0.94889
2059.96462	0.95045
2057.91082	0.95170
2055.85701	0.95123
2053.80321	0.95040
2051.74941	0.95124
2049.69560	0.95263
2047.64180	0.95308
2045.58800	0.95252
2043.53419	0.95063
2041.48039	0.94931
2039.42659	0.94990
2037.37278	0.94997
2035.31898	0.94977
2033.26518	0.95098
2031.21137	0.95230
2029.15757	0.95384
2027.10377	0.95591
2025.04996	0.95536
2022.99616	0.95266
2020.94236	0.95259
2018.88855	0.95431
2016.83475	0.95455
2014.78095	0.95369
2012.72714	0.95311
2010.67334	0.95371
2008.61954	0.95425
2006.56574	0.95331
2004.51193	0.95338
2002.45813	0.95506
2000.40433	0.95532
1998.35052	0.95398
1996.29672	0.95365
1994.24292	0.95432
1992.18911	0.95283
1990.13531	0.95016
1988.08151	0.94971
1986.02770	0.95016
1983.97390	0.95060
1981.92010	0.95125
1979.86629	0.95113
1977.81249	0.95091
1975.75869	0.95179
1973.70488	0.95267
1971.65108	0.95189
1969.59728	0.95117
1967.54347	0.95282
1965.48967	0.95485
1963.43587	0.95559
1961.38206	0.95558
1959.32826	0.95471
1957.27446	0.95273
1955.22066	0.95005
1953.16685	0.94805
1951.11305	0.94728
1949.05925	0.94658
1947.00544	0.94553
1944.95164	0.94538
1942.89784	0.94595
1940.84403	0.94612
1938.79023	0.94631
1936.73643	0.94684
1934.68262	0.94802
1932.62882	0.94954
1930.57502	0.94998
1928.52121	0.94963
1926.46741	0.95013
1924.41361	0.95147
1922.35980	0.95224
1920.30600	0.95190
1918.25220	0.95093
1916.19839	0.95010
1914.14459	0.94978
1912.09079	0.94987
1910.03698	0.95041
1907.98318	0.95071
1905.92938	0.95029
1903.87557	0.94967
1901.82177	0.94910
1899.76797	0.94902
1897.71417	0.94918
1895.66036	0.94893
1893.60656	0.94885
1891.55276	0.94889
1889.49895	0.94837
1887.44515	0.94789
1885.39135	0.94766
1883.33754	0.94703
1881.28374	0.94623
1879.22994	0.94590
1877.17613	0.94547
1875.12233	0.94465
1873.06853	0.94456
1871.01472	0.94558
1868.96092	0.94676
1866.90712	0.94719
1864.85331	0.94731
1862.79951	0.94755
1860.74571	0.94764
1858.69190	0.94793
1856.63810	0.94866
1854.58430	0.94920
1852.53049	0.94946
1850.47669	0.94987
1848.42289	0.95031
1846.36908	0.95037
1844.31528	0.95017
1842.26148	0.95023
1840.20768	0.95044
1838.15387	0.95045
1836.10007	0.95043
1834.04627	0.95041
1831.99246	0.95052
1829.93866	0.95096
1827.88486	0.95093
1825.83105	0.95045
1823.77725	0.95022
1821.72345	0.94988
1819.66964	0.94923
1817.61584	0.94912
1815.56204	0.94945
1813.50823	0.94921
1811.45443	0.94846
1809.40063	0.94770
1807.34682	0.94716
1805.29302	0.94675
1803.23922	0.94646
1801.18541	0.94636
1799.13161	0.94633
1797.07781	0.94641
1795.02400	0.94649
1792.97020	0.94676
1790.91640	0.94769
1788.86260	0.94840
1786.80879	0.94845
1784.75499	0.94861
1782.70119	0.94894
1780.64738	0.94898
1778.59358	0.94882
1776.53978	0.94875
1774.48597	0.94867
1772.43217	0.94832
1770.37837	0.94822
1768.32456	0.94884
1766.27076	0.94936
1764.21696	0.94929
1762.16315	0.94882
1760.10935	0.94801
1758.05555	0.94725
1756.00174	0.94702
1753.94794	0.94713
1751.89414	0.94701
1749.84033	0.94644
1747.78653	0.94559
1745.73273	0.94481
1743.67892	0.94449
1741.62512	0.94453
1739.57132	0.94458
1737.51751	0.94459
1735.46371	0.94456
1733.40991	0.94461
1731.35611	0.94485
1729.30230	0.94502
1727.24850	0.94508
1725.19470	0.94504
1723.14089	0.94489
1721.08709	0.94462
1719.03329	0.94435
1716.97948	0.94434
1714.92568	0.94452
1712.87188	0.94496
1710.81807	0.94549
1708.76427	0.94572
1706.71047	0.94556
1704.65666	0.94513
1702.60286	0.94499
1700.54906	0.94481
1698.49525	0.94375
1696.44145	0.94291
1694.38765	0.94274
1692.33384	0.94245
1690.28004	0.94167
1688.22624	0.94053
1686.17243	0.93929
1684.11863	0.93786
1682.06483	0.93699
1680.01103	0.93696
1677.95722	0.93662
1675.90342	0.93550
1673.84962	0.93448
1671.79581	0.93420
1669.74201	0.93400
1667.68821	0.93339
1665.63440	0.93286
1663.58060	0.93268
1661.52680	0.93261
1659.47299	0.93216
1657.41919	0.93166
1655.36539	0.93173
1653.31158	0.93213
1651.25778	0.93183
1649.20398	0.93150
1647.15017	0.93170
1645.09637	0.93224
1643.04257	0.93254
1640.98876	0.93266
1638.93496	0.93281
1636.88116	0.93282
1634.82735	0.93246
1632.77355	0.93212
1630.71975	0.93200
1628.66594	0.93222
1626.61214	0.93292
1624.55834	0.93359
1622.50454	0.93368
1620.45073	0.93355
1618.39693	0.93340
1616.34313	0.93326
1614.28932	0.93309
1612.23552	0.93243
1610.18172	0.93051
1608.12791	0.92610
1606.07411	0.91859
1604.02031	0.90917
1601.96650	0.90159
1599.91270	0.90053
1597.85890	0.90627
1595.80509	0.91474
1593.75129	0.92177
1591.69749	0.92607
1589.64368	0.92857
1587.58988	0.92934
1585.53608	0.92807
1583.48227	0.92664
1581.42847	0.92763
1579.37467	0.93054
1577.32086	0.93346
1575.26706	0.93602
1573.21326	0.93775
1571.15945	0.93858
1569.10565	0.93908
1567.05185	0.93979
1564.99805	0.94063
1562.94424	0.94127
1560.89044	0.94155
1558.83664	0.94141
1556.78283	0.94105
1554.72903	0.94076
1552.67523	0.94054
1550.62142	0.94032
1548.56762	0.93991
1546.51382	0.93939
1544.46001	0.93866
1542.40621	0.93769
1540.35241	0.93719
1538.29860	0.93804
1536.24480	0.93925
1534.19100	0.94022
1532.13719	0.94084
1530.08339	0.94118
1528.02959	0.94160
1525.97578	0.94191
1523.92198	0.94171
1521.86818	0.94123
1519.81437	0.94139
1517.76057	0.94195
1515.70677	0.94198
1513.65297	0.94175
1511.59916	0.94187
1509.54536	0.94226
1507.49156	0.94207
1505.43775	0.94057
1503.38395	0.93885
1501.33015	0.93577
1499.27634	0.92706
1497.22254	0.90290
1495.16874	0.86598
1493.11493	0.84251
1491.06113	0.84634
1489.00733	0.87441
1486.95352	0.89990
1484.89972	0.91276
1482.84592	0.91996
1480.79211	0.92452
1478.73831	0.92710
1476.68451	0.92876
1474.63070	0.92995
1472.57690	0.93037
1470.52310	0.93035
1468.46929	0.93030
1466.41549	0.93010
1464.36169	0.92970
1462.30788	0.92899
1460.25408	0.92676
1458.20028	0.91518
1456.14648	0.88185
1454.09267	0.85004
1452.03887	0.83626
1449.98507	0.84029
1447.93126	0.85557
1445.87746	0.87078
1443.82366	0.88236
1441.76985	0.89204
1439.71605	0.89967
1437.66225	0.90621
1435.60844	0.91286
1433.55464	0.91784
1431.50084	0.92155
1429.44703	0.92491
1427.39323	0.92755
1425.33943	0.92952
1423.28562	0.93100
1421.23182	0.93180
1419.17802	0.93237
1417.12421	0.93310
1415.07041	0.93386
1413.01661	0.93444
1410.96280	0.93481
1408.90900	0.93552
1406.85520	0.93657
1404.80139	0.93742
1402.74759	0.93786
1400.69379	0.93816
1398.63999	0.93873
1396.58618	0.93939
1394.53238	0.93913
1392.47858	0.93814
1390.42477	0.93744
1388.37097	0.93664
1386.31717	0.93523
1384.26336	0.93400
1382.20956	0.93299
1380.15576	0.93157
1378.10195	0.93014
1376.04815	0.92930
1373.99435	0.92884
1371.94054	0.92872
1369.88674	0.92892
1367.83294	0.92915
1365.77913	0.92946
1363.72533	0.92999
1361.67153	0.93078
1359.61772	0.93168
1357.56392	0.93255
1355.51012	0.93324
1353.45631	0.93353
1351.40251	0.93355
1349.34871	0.93373
1347.29491	0.93427
1345.24110	0.93500
1343.18730	0.93568
1341.13350	0.93632
1339.07969	0.93680
1337.02589	0.93670
1334.97209	0.93616
1332.91828	0.93559
1330.86448	0.93504
1328.81068	0.93459
1326.75687	0.93457
1324.70307	0.93487
1322.64927	0.93511
1320.59546	0.93512
1318.54166	0.93514
1316.48786	0.93506
1314.43405	0.93459
1312.38025	0.93429
1310.32645	0.93466
1308.27264	0.93548
1306.21884	0.93626
1304.16504	0.93670
1302.11123	0.93723
1300.05743	0.93800
1298.00363	0.93865
1295.94982	0.93914
1293.89602	0.93937
1291.84222	0.93917
1289.78842	0.93884
1287.73461	0.93877
1285.68081	0.93867
1283.62701	0.93825
1281.57320	0.93774
1279.51940	0.93743
1277.46560	0.93711
1275.41179	0.93660
1273.35799	0.93621
1271.30419	0.93629
1269.25038	0.93670
1267.19658	0.93698
1265.14278	0.93688
1263.08897	0.93675
1261.03517	0.93685
1258.98137	0.93690
1256.92756	0.93685
1254.87376	0.93701
1252.81996	0.93734
1250.76615	0.93731
1248.71235	0.93670
1246.65855	0.93611
1244.60474	0.93584
1242.55094	0.93568
1240.49714	0.93563
1238.44334	0.93585
1236.38953	0.93598
1234.33573	0.93561
1232.28193	0.93498
1230.22812	0.93437
1228.17432	0.93362
1226.12052	0.93275
1224.06671	0.93213
1222.01291	0.93157
1219.95911	0.93073
1217.90530	0.92962
1215.85150	0.92815
1213.79770	0.92623
1211.74389	0.92411
1209.69009	0.92211
1207.63629	0.92018
1205.58248	0.91793
1203.52868	0.91523
1201.47488	0.91248
1199.42107	0.90984
1197.36727	0.90699
1195.31347	0.90405
1193.25966	0.90139
1191.20586	0.89870
1189.15206	0.89561
1187.09825	0.89218
1185.04445	0.88812
1182.99065	0.88371
1180.93685	0.88020
1178.88304	0.87810
1176.82924	0.87672
1174.77544	0.87535
1172.72163	0.87373
1170.66783	0.87168
1168.61403	0.86927
1166.56022	0.86698
1164.50642	0.86501
1162.45262	0.86321
1160.39881	0.86125
1158.34501	0.85845
1156.29121	0.85472
1154.23740	0.85146
1152.18360	0.85001
1150.12980	0.85018
1148.07599	0.85070
1146.02219	0.85056
1143.96839	0.84968
1141.91458	0.84833
1139.86078	0.84679
1137.80698	0.84539
1135.75317	0.84385
1133.69937	0.84169
1131.64557	0.83904
1129.59176	0.83581
1127.53796	0.83201
1125.48416	0.82783
1123.43036	0.82289
1121.37655	0.81724
1119.32275	0.81136
1117.26895	0.80528
1115.21514	0.79895
1113.16134	0.79268
1111.10754	0.78691
1109.05373	0.78183
1106.99993	0.77756
1104.94613	0.77411
1102.89232	0.77110
1100.83852	0.76811
1098.78472	0.76529
1096.73091	0.76275
1094.67711	0.76048
1092.62331	0.75843
1090.56950	0.75658
1088.51570	0.75488
1086.46190	0.75291
1084.40809	0.75041
1082.35429	0.74786
1080.30049	0.74523
1078.24668	0.74213
1076.19288	0.73886
1074.13908	0.73541
1072.08528	0.73124
1070.03147	0.72648
1067.97767	0.72191
1065.92387	0.71817
1063.87006	0.71523
1061.81626	0.71242
1059.76246	0.70925
1057.70865	0.70558
1055.65485	0.70128
1053.60105	0.69633
1051.54724	0.69071
1049.49344	0.68430
1047.43964	0.67724
1045.38583	0.66970
1043.33203	0.66155
1041.27823	0.65283
1039.22442	0.64366
1037.17062	0.63413
1035.11682	0.62416
1033.06301	0.61332
1031.00921	0.60183
1028.95541	0.59177
1026.90160	0.58577
1024.84780	0.58427
1022.79400	0.58520
1020.74019	0.58640
1018.68639	0.58672
1016.63259	0.58607
1014.57879	0.58518
1012.52498	0.58433
1010.47118	0.58312
1008.41738	0.58175
1006.36357	0.58095
1004.30977	0.58135
1002.25597	0.58363
1000.20216	0.58785
998.14836	0.59302
996.09456	0.59859
994.04075	0.60454
991.98695	0.61070
989.93315	0.61729
987.87934	0.62462
985.82554	0.63256
983.77174	0.64093
981.71793	0.64989
979.66413	0.65985
977.61033	0.67112
975.55652	0.68341
973.50272	0.69582
971.44892	0.70719
969.39511	0.71721
967.34131	0.72646
965.28751	0.73512
963.23371	0.74319
961.17990	0.75129
959.12610	0.75962
957.07230	0.76716
955.01849	0.77330
952.96469	0.77851
950.91089	0.78307
948.85708	0.78708
946.80328	0.79065
944.74948	0.79359
942.69567	0.79621
940.64187	0.79924
938.58807	0.80257
936.53426	0.80590
934.48046	0.80942
932.42666	0.81282
930.37285	0.81585
928.31905	0.81859
926.26525	0.82047
924.21144	0.82100
922.15764	0.82084
920.10384	0.82012
918.05003	0.81809
915.99623	0.81506
913.94243	0.81182
911.88862	0.80842
909.83482	0.80544
907.78102	0.80503
905.72722	0.80883
903.67341	0.81617
901.61961	0.82559
899.56581	0.83570
897.51200	0.84513
895.45820	0.85275
893.40440	0.85850
891.35059	0.86335
889.29679	0.86779
887.24299	0.87116
885.18918	0.87277
883.13538	0.87372
881.08158	0.87543
879.02777	0.87732
876.97397	0.87899
874.92017	0.88103
872.86636	0.88354
870.81256	0.88608
868.75876	0.88816
866.70495	0.88990
864.65115	0.89178
862.59735	0.89374
860.54354	0.89589
858.48974	0.89824
856.43594	0.89984
854.38213	0.90058
852.32833	0.90095
850.27453	0.90049
848.22073	0.89917
846.16692	0.89733
844.11312	0.89548
842.05932	0.89413
840.00551	0.89314
837.95171	0.89275
835.89791	0.89363
833.84410	0.89498
831.79030	0.89541
829.73650	0.89515
827.68269	0.89524
825.62889	0.89596
823.57509	0.89693
821.52128	0.89808
819.46748	0.89948
817.41368	0.90083
815.35987	0.90140
813.30607	0.90067
811.25227	0.89837
809.19846	0.89462
807.14466	0.89022
805.09086	0.88564
803.03705	0.88168
800.98325	0.87904
798.92945	0.87758
796.87565	0.87746
794.82184	0.87819
792.76804	0.87860
790.71424	0.87809
788.66043	0.87668
786.60663	0.87457
784.55283	0.87147
782.49902	0.86690
780.44522	0.86186
778.39142	0.85734
776.33761	0.85208
774.28381	0.84409
772.23001	0.83298
770.17620	0.81974
768.12240	0.80511
766.06860	0.78986
764.01479	0.77451
761.96099	0.75892
759.90719	0.74375
757.85338	0.73164
755.79958	0.72496
753.74578	0.72310
751.69197	0.72380
749.63817	0.72610
747.58437	0.73118
745.53056	0.74126
743.47676	0.75770
741.42296	0.77848
739.36916	0.79955
737.31535	0.81847
735.26155	0.83472
733.20775	0.84817
731.15394	0.85903
729.10014	0.86700
727.04634	0.87152
724.99253	0.87411
722.93873	0.87697
720.88493	0.88030
718.83112	0.88264
716.77732	0.88251
714.72352	0.87970
712.66971	0.87347
710.61591	0.85909
708.56211	0.82964
706.50830	0.78105
704.45450	0.71291
702.40070	0.62876
700.34689	0.53634
698.29309	0.45015
696.23929	0.40023
694.18548	0.41960
692.13168	0.50130
690.07788	0.59756
688.02408	0.67077
685.97027	0.71699
683.91647	0.74650
681.86267	0.76613
679.80886	0.77896
677.75506	0.78740
675.70126	0.79318
673.64745	0.79759
671.59365	0.80113
669.53985	0.80460
667.48604	0.80824
665.43224	0.81015
663.37844	0.81212
661.32463	0.81552
659.27083	0.81897
657.21703	0.82063
655.16322	0.82007
653.10942	0.81861
651.05562	0.81762
649.00181	0.81808
646.94801	0.82044
644.89421	0.82341
642.84040	0.82574
640.78660	0.82727
638.73280	0.82849
636.67899	0.82943
634.62519	0.82917
632.57139	0.82855
630.51759	0.82902
628.46378	0.82941
626.40998	0.82809
624.35618	0.82508
622.30237	0.82221
620.24857	0.82034
618.19477	0.81813
616.14096	0.81578
614.08716	0.81455
612.03336	0.81380
609.97955	0.81240
607.92575	0.81090
605.87195	0.80968
603.81814	0.80764
601.76434	0.80487
599.71054	0.80210
597.65673	0.79851
595.60293	0.79416
593.54913	0.79180
591.49532	0.79149
589.44152	0.78984
587.38772	0.78697
585.33391	0.78462
583.28011	0.78268
581.22631	0.77989
579.17250	0.77583
577.11870	0.77192
575.06490	0.76833
573.01110	0.76340
570.95729	0.75685
568.90349	0.74936
566.84969	0.74063
564.79588	0.73166
562.74208	0.72448
560.68828	0.71840
558.63447	0.71106
556.58067	0.70220
554.52687	0.69315
552.47306	0.68481
550.41926	0.67650
548.36546	0.66566
546.31165	0.65203
544.25785	0.63712
542.20405	0.62197
540.15024	0.60882
538.09644	0.59922
536.04264	0.59416
533.98883	0.59424
531.93503	0.59845
529.88123	0.60585
527.82742	0.61548
525.77362	0.62617
523.71982	0.63620
521.66602	0.64480
519.61221	0.65283
517.55841	0.66096
515.50461	0.66913
513.45080	0.67793
511.39700	0.68698
509.34320	0.69358
507.28939	0.69744
505.23559	0.70130
503.18179	0.70505
501.12798	0.70656
499.07418	0.70575
497.02038	0.70340
494.96657	0.70008
492.91277	0.69548
490.85897	0.69008
488.80516	0.68413
486.75136	0.67386
484.69756	0.65778
482.64375	0.64017
480.58995	0.62340
478.53615	0.60663
476.48234	0.59097
474.42854	0.57854
472.37474	0.57002
470.32093	0.56413
468.26713	0.56003
466.21333	0.56014
464.15953	0.56560
462.10572	0.57316
460.05192	0.58024
457.99812	0.58989
455.94431	0.60278
453.89051	0.61479
451.83671	0.62460
449.78290	0.63172
447.72910	0.63801
445.67530	0.64281
443.62149	0.64471
441.56769	0.64464
439.51389	0.64061
437.46008	0.63359
435.40628	0.62949
433.35248	0.62921
431.29867	0.62996
429.24487	0.63168
427.19107	0.63310
425.13726	0.63469
423.08346	0.63752
421.02966	0.63995
418.97585	0.64474
416.92205	0.65404
414.86825	0.66285
412.81445	0.67058
410.76064	0.67884
408.70684	0.68823
406.65304	0.69414
404.59923	0.69341
402.54543	0.69255
400.49163	0.69535
398.43782	0.69897
