3996.70104	1.00044
3994.64724	1.00025
3992.59344	0.99933
3990.53964	0.99883
3988.48583	0.99906
3986.43203	0.99951
3984.37823	0.99982
3982.32442	0.99975
3980.27062	0.99953
3978.21682	0.99945
3976.16301	0.99959
3974.10921	0.99985
3972.05541	1.00009
3970.00160	1.00010
3967.94780	0.99987
3965.89400	0.99985
3963.84019	1.00027
3961.78639	1.00059
3959.73259	1.00032
3957.67878	1.00019
3955.62498	1.00055
3953.57118	1.00043
3951.51737	0.99991
3949.46357	1.00000
3947.40977	1.00059
3945.35596	1.00101
3943.30216	1.00099
3941.24836	1.00047
3939.19455	1.00008
3937.14075	1.00035
3935.08695	1.00081
3933.03315	1.00061
3930.97934	0.99992
3928.92554	0.99969
3926.87174	0.99977
3924.81793	0.99970
3922.76413	0.99964
3920.71033	0.99975
3918.65652	1.00003
3916.60272	1.00035
3914.54892	1.00041
3912.49511	1.00006
3910.44131	0.99982
3908.38751	1.00000
3906.33370	0.99978
3904.27990	0.99907
3902.22610	0.99907
3900.17229	0.99952
3898.11849	0.99985
3896.06469	1.00014
3894.01088	1.00026
3891.95708	1.00038
3889.90328	1.00080
3887.84947	1.00110
3885.79567	1.00118
3883.74187	1.00164
3881.68807	1.00172
3879.63426	1.00075
3877.58046	0.99996
3875.52666	0.99981
3873.47285	1.00003
3871.41905	1.00032
3869.36525	1.00022
3867.31144	0.99976
3865.25764	0.99945
3863.20384	0.99979
3861.15003	1.00005
3859.09623	0.99952
3857.04243	0.99924
3854.98862	1.00013
3852.93482	1.00137
3850.88102	1.00164
3848.82721	1.00139
3846.77341	1.00075
3844.71961	1.00014
3842.66580	0.99990
3840.61200	0.99966
3838.55820	0.99955
3836.50439	0.99974
3834.45059	0.99989
3832.39679	1.00021
3830.34298	1.00055
3828.28918	1.00033
3826.23538	0.99962
3824.18158	0.99906
3822.12777	0.99878
3820.07397	0.99884
3818.02017	0.99911
3815.96636	0.99923
3813.91256	0.99931
3811.85876	0.99928
3809.80495	0.99898
3807.75115	0.99879
3805.69735	0.99933
3803.64354	1.00020
3801.58974	1.00097
3799.53594	1.00138
3797.48213	1.00097
3795.42833	1.00015
3793.37453	1.00004
3791.32072	1.00017
3789.26692	0.99985
3787.21312	0.99968
3785.15931	0.99986
3783.10551	0.99964
3781.05171	0.99919
3778.99790	0.99933
3776.94410	0.99965
3774.89030	0.99956
3772.83650	0.99925
3770.78269	0.99895
3768.72889	0.99921
3766.67509	0.99997
3764.62128	1.00027
3762.56748	0.99974
3760.51368	0.99909
3758.45987	0.99905
3756.40607	0.99964
3754.35227	1.00053
3752.29846	1.00075
3750.24466	0.99972
3748.19086	0.99950
3746.13705	1.00000
3744.08325	1.00007
3742.02945	0.99997
3739.97564	1.00002
3737.92184	0.99977
3735.86804	0.99879
3733.81423	0.99818
3731.76043	0.99841
3729.70663	0.99876
3727.65282	0.99915
3725.59902	0.99924
3723.54522	0.99910
3721.49141	0.99933
3719.43761	0.99949
3717.38381	0.99914
3715.33001	0.99879
3713.27620	0.99918
3711.22240	1.00056
3709.16860	1.00121
3707.11479	1.00064
3705.06099	1.00010
3703.00719	1.00006
3700.95338	0.99993
3698.89958	0.99944
3696.84578	0.99944
3694.79197	0.99990
3692.73817	1.00001
3690.68437	0.99981
3688.63056	0.99985
3686.57676	0.99964
3684.52296	0.99935
3682.46915	0.99948
3680.41535	0.99982
3678.36155	0.99980
3676.30774	0.99971
3674.25394	1.00019
3672.20014	1.00001
3670.14633	0.99982
3668.09253	1.00037
3666.03873	1.00059
3663.98492	1.00029
3661.93112	0.99954
3659.87732	0.99871
3657.82352	0.99850
3655.76971	0.99888
3653.71591	0.99931
3651.66211	0.99962
3649.60830	0.99960
3647.55450	0.99978
3645.50070	1.00028
3643.44689	1.00050
3641.39309	1.00036
3639.33929	0.99979
3637.28548	0.99934
3635.23168	0.99916
3633.17788	0.99900
3631.12407	0.99911
3629.07027	0.99972
3627.01647	1.00007
3624.96266	0.99941
3622.90886	0.99849
3620.85506	0.99801
3618.80125	0.99817
3616.74745	0.99890
3614.69365	0.99961
3612.63984	0.99923
3610.58604	0.99794
3608.53224	0.99726
3606.47844	0.99765
3604.42463	0.99825
3602.37083	0.99841
3600.31703	0.99840
3598.26322	0.99878
3596.20942	0.99895
3594.15562	0.99824
3592.10181	0.99756
3590.04801	0.99754
3587.99421	0.99797
3585.94040	0.99855
3583.88660	0.99859
3581.83280	0.99831
3579.77899	0.99841
3577.72519	0.99890
3575.67139	0.99932
3573.61758	0.99937
3571.56378	0.99920
3569.50998	0.99934
3567.45617	0.99970
3565.40237	0.99944
3563.34857	0.99901
3561.29476	0.99892
3559.24096	0.99884
3557.18716	0.99840
3555.13335	0.99774
3553.07955	0.99739
3551.02575	0.99768
3548.97195	0.99813
3546.91814	0.99841
3544.86434	0.99872
3542.81054	0.99881
3540.75673	0.99851
3538.70293	0.99821
3536.64913	0.99823
3534.59532	0.99845
3532.54152	0.99870
3530.48772	0.99904
3528.43391	0.99908
3526.38011	0.99871
3524.32631	0.99857
3522.27250	0.99863
3520.21870	0.99877
3518.16490	0.99899
3516.11109	0.99884
3514.05729	0.99829
3512.00349	0.99788
3509.94968	0.99800
3507.89588	0.99833
3505.84208	0.99862
3503.78827	0.99889
3501.73447	0.99861
3499.68067	0.99815
3497.62687	0.99827
3495.57306	0.99874
3493.51926	0.99904
3491.46546	0.99881
3489.41165	0.99812
3487.35785	0.99743
3485.30405	0.99720
3483.25024	0.99742
3481.19644	0.99755
3479.14264	0.99756
3477.08883	0.99791
3475.03503	0.99877
3472.98123	0.99943
3470.92742	0.99883
3468.87362	0.99772
3466.81982	0.99767
3464.76601	0.99811
3462.71221	0.99793
3460.65841	0.99755
3458.60460	0.99763
3456.55080	0.99801
3454.49700	0.99823
3452.44319	0.99825
3450.38939	0.99820
3448.33559	0.99833
3446.28178	0.99852
3444.22798	0.99828
3442.17418	0.99810
3440.12038	0.99838
3438.06657	0.99835
3436.01277	0.99806
3433.95897	0.99825
3431.90516	0.99849
3429.85136	0.99816
3427.79756	0.99795
3425.74375	0.99851
3423.68995	0.99891
3421.63615	0.99865
3419.58234	0.99830
3417.52854	0.99819
3415.47474	0.99836
3413.42093	0.99844
3411.36713	0.99814
3409.31333	0.99787
3407.25952	0.99760
3405.20572	0.99712
3403.15192	0.99688
3401.09811	0.99720
3399.04431	0.99791
3396.99051	0.99850
3394.93670	0.99875
3392.88290	0.99882
3390.82910	0.99865
3388.77529	0.99851
3386.72149	0.99844
3384.66769	0.99808
3382.61389	0.99765
3380.56008	0.99737
3378.50628	0.99725
3376.45248	0.99729
3374.39867	0.99708
3372.34487	0.99695
3370.29107	0.99735
3368.23726	0.99782
3366.18346	0.99810
3364.12966	0.99819
3362.07585	0.99804
3360.02205	0.99788
3357.96825	0.99792
3355.91444	0.99780
3353.86064	0.99725
3351.80684	0.99691
3349.75303	0.99744
3347.69923	0.99815
3345.64543	0.99810
3343.59162	0.99772
3341.53782	0.99780
3339.48402	0.99814
3337.43021	0.99816
3335.37641	0.99804
3333.32261	0.99800
3331.26881	0.99788
3329.21500	0.99791
3327.16120	0.99832
3325.10740	0.99879
3323.05359	0.99868
3320.99979	0.99794
3318.94599	0.99726
3316.89218	0.99721
3314.83838	0.99765
3312.78458	0.99783
3310.73077	0.99757
3308.67697	0.99739
3306.62317	0.99750
3304.56936	0.99772
3302.51556	0.99774
3300.46176	0.99777
3298.40795	0.99807
3296.35415	0.99842
3294.30035	0.99863
3292.24654	0.99866
3290.19274	0.99837
3288.13894	0.99793
3286.08513	0.99783
3284.03133	0.99810
3281.97753	0.99827
3279.92372	0.99826
3277.86992	0.99838
3275.81612	0.99845
3273.76232	0.99831
3271.70851	0.99798
3269.65471	0.99756
3267.60091	0.99727
3265.54710	0.99696
3263.49330	0.99683
3261.43950	0.99712
3259.38569	0.99773
3257.33189	0.99865
3255.27809	0.99938
3253.22428	0.99949
3251.17048	0.99915
3249.11668	0.99870
3247.06287	0.99868
3245.00907	0.99900
3242.95527	0.99898
3240.90146	0.99854
3238.84766	0.99812
3236.79386	0.99796
3234.74005	0.99784
3232.68625	0.99775
3230.63245	0.99809
3228.57864	0.99869
3226.52484	0.99888
3224.47104	0.99867
3222.41724	0.99860
3220.36343	0.99877
3218.30963	0.99919
3216.25583	0.99971
3214.20202	0.99983
3212.14822	0.99953
3210.09442	0.99924
3208.04061	0.99888
3205.98681	0.99830
3203.93301	0.99771
3201.87920	0.99733
3199.82540	0.99724
3197.77160	0.99755
3195.71779	0.99808
3193.66399	0.99818
3191.61019	0.99800
3189.55638	0.99825
3187.50258	0.99867
3185.44878	0.99886
3183.39497	0.99885
3181.34117	0.99872
3179.28737	0.99844
3177.23356	0.99829
3175.17976	0.99864
3173.12596	0.99897
3171.07215	0.99862
3169.01835	0.99817
3166.96455	0.99835
3164.91075	0.99865
3162.85694	0.99867
3160.80314	0.99873
3158.74934	0.99874
3156.69553	0.99868
3154.64173	0.99883
3152.58793	0.99901
3150.53412	0.99897
3148.48032	0.99861
3146.42652	0.99789
3144.37271	0.99725
3142.31891	0.99752
3140.26511	0.99833
3138.21130	0.99860
3136.15750	0.99832
3134.10370	0.99803
3132.04989	0.99773
3129.99609	0.99746
3127.94229	0.99766
3125.88848	0.99802
3123.83468	0.99806
3121.78088	0.99801
3119.72707	0.99814
3117.67327	0.99849
3115.61947	0.99897
3113.56566	0.99909
3111.51186	0.99878
3109.45806	0.99867
3107.40426	0.99861
3105.35045	0.99837
3103.29665	0.99822
3101.24285	0.99814
3099.18904	0.99809
3097.13524	0.99806
3095.08144	0.99789
3093.02763	0.99782
3090.97383	0.99814
3088.92003	0.99857
3086.86622	0.99876
3084.81242	0.99889
3082.75862	0.99912
3080.70481	0.99901
3078.65101	0.99881
3076.59721	0.99884
3074.54340	0.99848
3072.48960	0.99784
3070.43580	0.99764
3068.38199	0.99805
3066.32819	0.99893
3064.27439	0.99956
3062.22058	0.99928
3060.16678	0.99867
3058.11298	0.99843
3056.05918	0.99865
3054.00537	0.99905
3051.95157	0.99919
3049.89777	0.99895
3047.84396	0.99884
3045.79016	0.99892
3043.73636	0.99859
3041.68255	0.99819
3039.62875	0.99833
3037.57495	0.99856
3035.52114	0.99865
3033.46734	0.99883
3031.41354	0.99918
3029.35973	0.99953
3027.30593	0.99938
3025.25213	0.99851
3023.19832	0.99775
3021.14452	0.99774
3019.09072	0.99811
3017.03691	0.99848
3014.98311	0.99868
3012.92931	0.99843
3010.87550	0.99815
3008.82170	0.99837
3006.76790	0.99865
3004.71409	0.99871
3002.66029	0.99859
3000.60649	0.99827
2998.55269	0.99819
2996.49888	0.99848
2994.44508	0.99874
2992.39128	0.99889
2990.33747	0.99886
2988.28367	0.99855
2986.22987	0.99817
2984.17606	0.99787
2982.12226	0.99736
2980.06846	0.99682
2978.01465	0.99647
2975.96085	0.99571
2973.90705	0.99462
2971.85324	0.99374
2969.79944	0.99287
2967.74564	0.99154
2965.69183	0.98966
2963.63803	0.98786
2961.58423	0.98665
2959.53042	0.98566
2957.47662	0.98451
2955.42282	0.98360
2953.36901	0.98302
2951.31521	0.98244
2949.26141	0.98232
2947.20761	0.98305
2945.15380	0.98419
2943.10000	0.98571
2941.04620	0.98746
2938.99239	0.98837
2936.93859	0.98805
2934.88479	0.98711
2932.83098	0.98583
2930.77718	0.98414
2928.72338	0.98239
2926.66957	0.98071
2924.61577	0.97924
2922.56197	0.97854
2920.50816	0.97816
2918.45436	0.97737
2916.40056	0.97666
2914.34675	0.97683
2912.29295	0.97798
2910.23915	0.97954
2908.18534	0.98086
2906.13154	0.98171
2904.07774	0.98251
2902.02393	0.98361
2899.97013	0.98459
2897.91633	0.98524
2895.86252	0.98601
2893.80872	0.98694
2891.75492	0.98786
2889.70112	0.98867
2887.64731	0.98898
2885.59351	0.98870
2883.53971	0.98801
2881.48590	0.98735
2879.43210	0.98721
2877.37830	0.98718
2875.32449	0.98707
2873.27069	0.98700
2871.21689	0.98690
2869.16308	0.98675
2867.10928	0.98672
2865.05548	0.98730
2863.00167	0.98857
2860.94787	0.98990
2858.89407	0.99074
2856.84026	0.99103
2854.78646	0.99104
2852.73266	0.99083
2850.67885	0.99058
2848.62505	0.99059
2846.57125	0.99044
2844.51744	0.98969
2842.46364	0.98844
2840.40984	0.98719
2838.35603	0.98670
2836.30223	0.98719
2834.24843	0.98833
2832.19463	0.98981
2830.14082	0.99136
2828.08702	0.99269
2826.03322	0.99374
2823.97941	0.99453
2821.92561	0.99519
2819.87181	0.99575
2817.81800	0.99595
2815.76420	0.99600
2813.71040	0.99637
2811.65659	0.99675
2809.60279	0.99664
2807.54899	0.99643
2805.49518	0.99654
2803.44138	0.99680
2801.38758	0.99710
2799.33377	0.99753
2797.27997	0.99794
2795.22617	0.99795
2793.17236	0.99764
2791.11856	0.99746
2789.06476	0.99750
2787.01095	0.99754
2784.95715	0.99756
2782.90335	0.99778
2780.84955	0.99805
2778.79574	0.99793
2776.74194	0.99782
2774.68814	0.99812
2772.63433	0.99820
2770.58053	0.99792
2768.52673	0.99784
2766.47292	0.99797
2764.41912	0.99811
2762.36532	0.99835
2760.31151	0.99850
2758.25771	0.99852
2756.20391	0.99877
2754.15010	0.99889
2752.09630	0.99853
2750.04250	0.99826
2747.98869	0.99827
2745.93489	0.99826
2743.88109	0.99841
2741.82728	0.99866
2739.77348	0.99861
2737.71968	0.99838
2735.66587	0.99829
2733.61207	0.99815
2731.55827	0.99788
2729.50446	0.99772
2727.45066	0.99767
2725.39686	0.99764
2723.34306	0.99779
2721.28925	0.99821
2719.23545	0.99848
2717.18165	0.99824
2715.12784	0.99792
2713.07404	0.99795
2711.02024	0.99805
2708.96643	0.99794
2706.91263	0.99779
2704.85883	0.99779
2702.80502	0.99803
2700.75122	0.99842
2698.69742	0.99872
2696.64361	0.99872
2694.58981	0.99856
2692.53601	0.99858
2690.48220	0.99873
2688.42840	0.99880
2686.37460	0.99872
2684.32079	0.99862
2682.26699	0.99859
2680.21319	0.99858
2678.15938	0.99868
2676.10558	0.99891
2674.05178	0.99912
2671.99797	0.99921
2669.94417	0.99912
2667.89037	0.99876
2665.83657	0.99820
2663.78276	0.99786
2661.72896	0.99800
2659.67516	0.99832
2657.62135	0.99828
2655.56755	0.99810
2653.51375	0.99826
2651.45994	0.99850
2649.40614	0.99858
2647.35234	0.99873
2645.29853	0.99903
2643.24473	0.99910
2641.19093	0.99868
2639.13712	0.99807
2637.08332	0.99769
2635.02952	0.99775
2632.97571	0.99814
2630.92191	0.99842
2628.86811	0.99837
2626.81430	0.99826
2624.76050	0.99845
2622.70670	0.99883
2620.65289	0.99880
2618.59909	0.99831
2616.54529	0.99809
2614.49149	0.99826
2612.43768	0.99836
2610.38388	0.99862
2608.33008	0.99899
2606.27627	0.99876
2604.22247	0.99847
2602.16867	0.99887
2600.11486	0.99922
2598.06106	0.99888
2596.00726	0.99849
2593.95345	0.99830
2591.89965	0.99825
2589.84585	0.99860
2587.79204	0.99894
2585.73824	0.99883
2583.68444	0.99877
2581.63063	0.99888
2579.57683	0.99890
2577.52303	0.99901
2575.46922	0.99890
2573.41542	0.99841
2571.36162	0.99825
2569.30781	0.99829
2567.25401	0.99830
2565.20021	0.99887
2563.14640	0.99956
2561.09260	0.99943
2559.03880	0.99889
2556.98500	0.99877
2554.93119	0.99911
2552.87739	0.99947
2550.82359	0.99975
2548.76978	0.99996
2546.71598	1.00007
2544.66218	0.99996
2542.60837	0.99973
2540.55457	0.99945
2538.50077	0.99863
2536.44696	0.99765
2534.39316	0.99752
2532.33936	0.99796
2530.28555	0.99816
2528.23175	0.99837
2526.17795	0.99887
2524.12414	0.99917
2522.07034	0.99921
2520.01654	0.99920
2517.96273	0.99959
2515.90893	1.00012
2513.85513	1.00014
2511.80132	1.00007
2509.74752	1.00018
2507.69372	0.99992
2505.63992	0.99928
2503.58611	0.99913
2501.53231	0.99960
2499.47851	0.99959
2497.42470	0.99912
2495.37090	0.99909
2493.31710	0.99928
2491.26329	0.99914
2489.20949	0.99864
2487.15569	0.99802
2485.10188	0.99788
2483.04808	0.99844
2480.99428	0.99904
2478.94047	0.99935
2476.88667	0.99922
2474.83287	0.99869
2472.77906	0.99842
2470.72526	0.99828
2468.67146	0.99814
2466.61765	0.99831
2464.56385	0.99864
2462.51005	0.99896
2460.45624	0.99918
2458.40244	0.99952
2456.34864	0.99989
2454.29483	0.99982
2452.24103	0.99979
2450.18723	0.99994
2448.13343	0.99984
2446.07962	0.99964
2444.02582	0.99924
2441.97202	0.99877
2439.91821	0.99885
2437.86441	0.99950
2435.81061	1.00010
2433.75680	1.00016
2431.70300	0.99981
2429.64920	0.99956
2427.59539	0.99956
2425.54159	0.99978
2423.48779	1.00032
2421.43398	1.00045
2419.38018	0.99993
2417.32638	0.99976
2415.27257	0.99991
2413.21877	0.99988
2411.16497	0.99985
2409.11116	0.99978
2407.05736	0.99946
2405.00356	0.99912
2402.94975	0.99895
2400.89595	0.99890
2398.84215	0.99887
2396.78834	0.99886
2394.73454	0.99912
2392.68074	0.99960
2390.62694	0.99992
2388.57313	1.00018
2386.51933	1.00043
2384.46553	1.00002
2382.41172	0.99916
2380.35792	0.99898
2378.30412	0.99951
2376.25031	0.99965
2374.19651	0.99888
2372.14271	0.99814
2370.08890	0.99818
2368.03510	0.99869
2365.98130	0.99953
2363.92749	0.99997
2361.87369	0.99962
2359.81989	0.99885
2357.76608	0.99813
2355.71228	0.99812
2353.65848	0.99833
2351.60467	0.99842
2349.55087	0.99799
2347.49707	0.99723
2345.44326	0.99751
2343.38946	0.99886
2341.33566	0.99926
2339.28186	0.99876
2337.22805	0.99877
2335.17425	0.99949
2333.12045	1.00013
2331.06664	1.00019
2329.01284	0.99981
2326.95904	0.99962
2324.90523	0.99985
2322.85143	0.99965
2320.79763	0.99867
2318.74382	0.99816
2316.69002	0.99840
2314.63622	0.99855
2312.58241	0.99870
2310.52861	0.99902
2308.47481	0.99900
2306.42100	0.99866
2304.36720	0.99853
2302.31340	0.99887
2300.25959	0.99950
2298.20579	0.99984
2296.15199	0.99986
2294.09818	0.99941
2292.04438	0.99838
2289.99058	0.99776
2287.93677	0.99773
2285.88297	0.99778
2283.82917	0.99813
2281.77537	0.99858
2279.72156	0.99899
2277.66776	0.99930
2275.61396	0.99862
2273.56015	0.99731
2271.50635	0.99712
2269.45255	0.99780
2267.39874	0.99838
2265.34494	0.99828
2263.29114	0.99731
2261.23733	0.99728
2259.18353	0.99871
2257.12973	1.00008
2255.07592	1.00102
2253.02212	1.00146
2250.96832	1.00057
2248.91451	0.99889
2246.86071	0.99847
2244.80691	0.99940
2242.75310	1.00039
2240.69930	1.00063
2238.64550	1.00007
2236.59169	0.99967
2234.53789	0.99983
2232.48409	0.99979
2230.43029	0.99875
2228.37648	0.99715
2226.32268	0.99670
2224.26888	0.99774
2222.21507	0.99850
2220.16127	0.99810
2218.10747	0.99734
2216.05366	0.99677
2213.99986	0.99652
2211.94606	0.99705
2209.89225	0.99797
2207.83845	0.99795
2205.78465	0.99836
2203.73084	1.00113
2201.67704	1.00314
2199.62324	1.00171
2197.56943	0.99916
2195.51563	0.99833
2193.46183	0.99888
2191.40802	0.99931
2189.35422	1.00013
2187.30042	1.00047
2185.24661	0.99993
2183.19281	1.00010
2181.13901	1.00090
2179.08520	1.00020
2177.03140	0.99686
2174.97760	0.99463
2172.92380	0.99666
2170.86999	1.00107
2168.81619	1.00358
2166.76239	1.00291
2164.70858	1.00210
2162.65478	1.00122
2160.60098	1.00042
2158.54717	1.00118
2156.49337	1.00046
2154.43957	0.99903
2152.38576	0.99984
2150.33196	1.00100
2148.27816	1.00085
2146.22435	1.00040
2144.17055	0.99963
2142.11675	0.99860
2140.06294	0.99908
2138.00914	1.00050
2135.95534	1.00087
2133.90153	0.99996
2131.84773	0.99881
2129.79393	0.99862
2127.74012	0.99975
2125.68632	1.00166
2123.63252	1.00252
2121.57871	1.00107
2119.52491	0.99880
2117.47111	0.99819
2115.41731	0.99952
2113.36350	1.00133
2111.30970	1.00187
2109.25590	1.00065
2107.20209	0.99969
2105.14829	0.99962
2103.09449	0.99913
2101.04068	0.99787
2098.98688	0.99680
2096.93308	0.99745
2094.87927	0.99887
2092.82547	0.99864
2090.77167	0.99722
2088.71786	0.99734
2086.66406	0.99946
2084.61026	1.00111
2082.55645	1.00106
2080.50265	1.00025
2078.44885	0.99958
2076.39504	0.99953
2074.34124	0.99980
2072.28744	1.00019
2070.23363	1.00069
2068.17983	1.00042
2066.12603	0.99992
2064.07223	0.99957
2062.01842	0.99835
2059.96462	0.99772
2057.91082	0.99819
2055.85701	0.99767
2053.80321	0.99759
2051.74941	0.99970
2049.69560	1.00148
2047.64180	1.00142
2045.58800	1.00093
2043.53419	1.00024
2041.48039	0.99961
2039.42659	1.00002
2037.37278	1.00002
2035.31898	0.99983
2033.26518	1.00089
2031.21137	1.00127
2029.15757	1.00111
2027.10377	1.00281
2025.04996	1.00397
2022.99616	1.00232
2020.94236	1.00025
2018.88855	0.99871
2016.83475	0.99769
2014.78095	0.99704
2012.72714	0.99721
2010.67334	0.99945
2008.61954	1.00165
2006.56574	1.00141
2004.51193	0.99937
2002.45813	0.99810
2000.40433	0.99890
1998.35052	0.99954
1996.29672	0.99872
1994.24292	0.99771
1992.18911	0.99736
1990.13531	0.99820
1988.08151	0.99893
1986.02770	0.99745
1983.97390	0.99603
1981.92010	0.99844
1979.86629	1.00291
1977.81249	1.00368
1975.75869	1.00066
1973.70488	0.99920
1971.65108	0.99934
1969.59728	0.99863
1967.54347	0.99839
1965.48967	0.99920
1963.43587	0.99930
1961.38206	1.00010
1959.32826	1.00257
1957.27446	1.00277
1955.22066	0.99993
1953.16685	0.99743
1951.11305	0.99635
1949.05925	0.99687
1947.00544	0.99809
1944.95164	0.99839
1942.89784	0.99766
1940.84403	0.99719
1938.79023	0.99817
1936.73643	0.99964
1934.68262	1.00029
1932.62882	1.00017
1930.57502	0.99939
1928.52121	0.99807
1926.46741	0.99719
1924.41361	0.99691
1922.35980	0.99697
1920.30600	0.99723
1918.25220	0.99748
1916.19839	0.99830
1914.14459	0.99896
1912.09079	0.99926
1910.03698	1.00015
1907.98318	1.00080
1905.92938	1.00036
1903.87557	0.99949
1901.82177	0.99901
1899.76797	0.99910
1897.71417	0.99942
1895.66036	0.99948
1893.60656	0.99961
1891.55276	1.00017
1889.49895	0.99998
1887.44515	0.99862
1885.39135	0.99790
1883.33754	0.99835
1881.28374	0.99856
1879.22994	0.99828
1877.17613	0.99805
1875.12233	0.99806
1873.06853	0.99840
1871.01472	0.99837
1868.96092	0.99822
1866.90712	0.99873
1864.85331	0.99860
1862.79951	0.99780
1860.74571	0.99756
1858.69190	0.99786
1856.63810	0.99806
1854.58430	0.99826
1852.53049	0.99856
1850.47669	0.99869
1848.42289	0.99852
1846.36908	0.99841
1844.31528	0.99864
1842.26148	0.99862
1840.20768	0.99847
1838.15387	0.99848
1836.10007	0.99863
1834.04627	0.99890
1831.99246	0.99881
1829.93866	0.99821
1827.88486	0.99780
1825.83105	0.99767
1823.77725	0.99743
1821.72345	0.99742
1819.66964	0.99793
1817.61584	0.99820
1815.56204	0.99780
1813.50823	0.99758
1811.45443	0.99785
1809.40063	0.99823
1807.34682	0.99880
1805.29302	0.99919
1803.23922	0.99887
1801.18541	0.99833
1799.13161	0.99800
1797.07781	0.99785
1795.02400	0.99793
1792.97020	0.99783
1790.91640	0.99757
1788.86260	0.99765
1786.80879	0.99775
1784.75499	0.99761
1782.70119	0.99764
1780.64738	0.99792
1778.59358	0.99798
1776.53978	0.99781
1774.48597	0.99777
1772.43217	0.99820
1770.37837	0.99831
1768.32456	0.99773
1766.27076	0.99753
1764.21696	0.99758
1762.16315	0.99735
1760.10935	0.99705
1758.05555	0.99696
1756.00174	0.99702
1753.94794	0.99688
1751.89414	0.99633
1749.84033	0.99562
1747.78653	0.99516
1745.73273	0.99475
1743.67892	0.99457
1741.62512	0.99474
1739.57132	0.99487
1737.51751	0.99516
1735.46371	0.99616
1733.40991	0.99725
1731.35611	0.99703
1729.30230	0.99685
1727.24850	0.99710
1725.19470	0.99707
1723.14089	0.99694
1721.08709	0.99707
1719.03329	0.99727
1716.97948	0.99751
1714.92568	0.99799
1712.87188	0.99846
1710.81807	0.99847
1708.76427	0.99800
1706.71047	0.99753
1704.65666	0.99757
1702.60286	0.99789
1700.54906	0.99808
1698.49525	0.99808
1696.44145	0.99805
1694.38765	0.99777
1692.33384	0.99756
1690.28004	0.99763
1688.22624	0.99776
1686.17243	0.99815
1684.11863	0.99840
1682.06483	0.99759
1680.01103	0.99711
1677.95722	0.99715
1675.90342	0.99712
1673.84962	0.99673
1671.79581	0.99639
1669.74201	0.99640
1667.68821	0.99665
1665.63440	0.99701
1663.58060	0.99724
1661.52680	0.99702
1659.47299	0.99668
1657.41919	0.99648
1655.36539	0.99640
1653.31158	0.99637
1651.25778	0.99613
1649.20398	0.99607
1647.15017	0.99654
1645.09637	0.99694
1643.04257	0.99678
1640.98876	0.99649
1638.93496	0.99621
1636.88116	0.99595
1634.82735	0.99607
1632.77355	0.99644
1630.71975	0.99674
1628.66594	0.99706
1626.61214	0.99729
1624.55834	0.99736
1622.50454	0.99732
1620.45073	0.99711
1618.39693	0.99694
1616.34313	0.99696
1614.28932	0.99705
1612.23552	0.99726
1610.18172	0.99750
1608.12791	0.99741
1606.07411	0.99722
1604.02031	0.99718
1601.96650	0.99693
1599.91270	0.99653
1597.85890	0.99644
1595.80509	0.99662
1593.75129	0.99685
1591.69749	0.99707
1589.64368	0.99723
1587.58988	0.99719
1585.53608	0.99699
1583.48227	0.99676
1581.42847	0.99651
1579.37467	0.99637
1577.32086	0.99648
1575.26706	0.99675
1573.21326	0.99687
1571.15945	0.99683
1569.10565	0.99684
1567.05185	0.99657
1564.99805	0.99606
1562.94424	0.99590
1560.89044	0.99604
1558.83664	0.99593
1556.78283	0.99559
1554.72903	0.99555
1552.67523	0.99579
1550.62142	0.99612
1548.56762	0.99628
1546.51382	0.99639
1544.46001	0.99672
1542.40621	0.99710
1540.35241	0.99681
1538.29860	0.99650
1536.24480	0.99672
1534.19100	0.99689
1532.13719	0.99695
1530.08339	0.99718
1528.02959	0.99754
1525.97578	0.99768
1523.92198	0.99760
1521.86818	0.99738
1519.81437	0.99696
1517.76057	0.99677
1515.70677	0.99674
1513.65297	0.99648
1511.59916	0.99623
1509.54536	0.99653
1507.49156	0.99735
1505.43775	0.99742
1503.38395	0.99702
1501.33015	0.99679
1499.27634	0.99694
1497.22254	0.99748
1495.16874	0.99746
1493.11493	0.99695
1491.06113	0.99653
1489.00733	0.99621
1486.95352	0.99589
1484.89972	0.99559
1482.84592	0.99543
1480.79211	0.99536
1478.73831	0.99534
1476.68451	0.99527
1474.63070	0.99493
1472.57690	0.99403
1470.52310	0.99239
1468.46929	0.99077
1466.41549	0.98930
1464.36169	0.98772
1462.30788	0.98635
1460.25408	0.98562
1458.20028	0.98556
1456.14648	0.98519
1454.09267	0.98451
1452.03887	0.98457
1449.98507	0.98533
1447.93126	0.98654
1445.87746	0.98788
1443.82366	0.98910
1441.76985	0.99010
1439.71605	0.99070
1437.66225	0.99103
1435.60844	0.99123
1433.55464	0.99169
1431.50084	0.99261
1429.44703	0.99347
1427.39323	0.99373
1425.33943	0.99385
1423.28562	0.99416
1421.23182	0.99432
1419.17802	0.99423
1417.12421	0.99426
1415.07041	0.99446
1413.01661	0.99460
1410.96280	0.99468
1408.90900	0.99485
1406.85520	0.99508
1404.80139	0.99518
1402.74759	0.99521
1400.69379	0.99536
1398.63999	0.99548
1396.58618	0.99537
1394.53238	0.99516
1392.47858	0.99500
1390.42477	0.99493
1388.37097	0.99487
1386.31717	0.99438
1384.26336	0.99304
1382.20956	0.99061
1380.15576	0.98675
1378.10195	0.98248
1376.04815	0.98011
1373.99435	0.98137
1371.94054	0.98516
1369.88674	0.98886
1367.83294	0.99127
1365.77913	0.99213
1363.72533	0.99231
1361.67153	0.99240
1359.61772	0.99226
1357.56392	0.99208
1355.51012	0.99213
1353.45631	0.99268
1351.40251	0.99345
1349.34871	0.99392
1347.29491	0.99416
1345.24110	0.99449
1343.18730	0.99481
1341.13350	0.99494
1339.07969	0.99502
1337.02589	0.99512
1334.97209	0.99509
1332.91828	0.99487
1330.86448	0.99473
1328.81068	0.99491
1326.75687	0.99534
1324.70307	0.99572
1322.64927	0.99566
1320.59546	0.99547
1318.54166	0.99573
1316.48786	0.99622
1314.43405	0.99638
1312.38025	0.99589
1310.32645	0.99526
1308.27264	0.99500
1306.21884	0.99498
1304.16504	0.99506
1302.11123	0.99520
1300.05743	0.99548
1298.00363	0.99574
1295.94982	0.99558
1293.89602	0.99537
1291.84222	0.99550
1289.78842	0.99556
1287.73461	0.99547
1285.68081	0.99551
1283.62701	0.99556
1281.57320	0.99553
1279.51940	0.99544
1277.46560	0.99527
1275.41179	0.99514
1273.35799	0.99528
1271.30419	0.99561
1269.25038	0.99559
1267.19658	0.99510
1265.14278	0.99473
1263.08897	0.99484
1261.03517	0.99517
1258.98137	0.99524
1256.92756	0.99487
1254.87376	0.99470
1252.81996	0.99502
1250.76615	0.99519
1248.71235	0.99508
1246.65855	0.99509
1244.60474	0.99513
1242.55094	0.99491
1240.49714	0.99487
1238.44334	0.99526
1236.38953	0.99550
1234.33573	0.99531
1232.28193	0.99493
1230.22812	0.99468
1228.17432	0.99479
1226.12052	0.99495
1224.06671	0.99484
1222.01291	0.99461
1219.95911	0.99426
1217.90530	0.99392
1215.85150	0.99390
1213.79770	0.99419
1211.74389	0.99441
1209.69009	0.99428
1207.63629	0.99400
1205.58248	0.99390
1203.52868	0.99380
1201.47488	0.99354
1199.42107	0.99324
1197.36727	0.99305
1195.31347	0.99285
1193.25966	0.99259
1191.20586	0.99258
1189.15206	0.99282
1187.09825	0.99294
1185.04445	0.99274
1182.99065	0.99218
1180.93685	0.99177
1178.88304	0.99154
1176.82924	0.99110
1174.77544	0.99074
1172.72163	0.99035
1170.66783	0.98946
1168.61403	0.98853
1166.56022	0.98831
1164.50642	0.98863
1162.45262	0.98886
1160.39881	0.98882
1158.34501	0.98862
1156.29121	0.98833
1154.23740	0.98805
1152.18360	0.98805
1150.12980	0.98845
1148.07599	0.98877
1146.02219	0.98871
1143.96839	0.98875
1141.91458	0.98891
1139.86078	0.98886
1137.80698	0.98884
1135.75317	0.98918
1133.69937	0.98961
1131.64557	0.98990
1129.59176	0.99003
1127.53796	0.99000
1125.48416	0.98996
1123.43036	0.98982
1121.37655	0.98956
1119.32275	0.98935
1117.26895	0.98895
1115.21514	0.98815
1113.16134	0.98741
1111.10754	0.98729
1109.05373	0.98727
1106.99993	0.98687
1104.94613	0.98641
1102.89232	0.98615
1100.83852	0.98609
1098.78472	0.98623
1096.73091	0.98657
1094.67711	0.98704
1092.62331	0.98726
1090.56950	0.98695
1088.51570	0.98642
1086.46190	0.98602
1084.40809	0.98573
1082.35429	0.98556
1080.30049	0.98542
1078.24668	0.98533
1076.19288	0.98541
1074.13908	0.98563
1072.08528	0.98601
1070.03147	0.98619
1067.97767	0.98587
1065.92387	0.98543
1063.87006	0.98504
1061.81626	0.98475
1059.76246	0.98464
1057.70865	0.98463
1055.65485	0.98460
1053.60105	0.98436
1051.54724	0.98358
1049.49344	0.98269
1047.43964	0.98233
1045.38583	0.98237
1043.33203	0.98265
1041.27823	0.98288
1039.22442	0.98255
1037.17062	0.98171
1035.11682	0.98085
1033.06301	0.98014
1031.00921	0.97954
1028.95541	0.97952
1026.90160	0.97997
1024.84780	0.97980
1022.79400	0.97924
1020.74019	0.97925
1018.68639	0.97953
1016.63259	0.97964
1014.57879	0.97955
1012.52498	0.97937
1010.47118	0.97952
1008.41738	0.97997
1006.36357	0.98014
1004.30977	0.97988
1002.25597	0.97934
1000.20216	0.97847
998.14836	0.97770
996.09456	0.97788
994.04075	0.97879
991.98695	0.97960
989.93315	0.98011
987.87934	0.98049
985.82554	0.98097
983.77174	0.98166
981.71793	0.98210
979.66413	0.98186
977.61033	0.98113
975.55652	0.98087
973.50272	0.98126
971.44892	0.98165
969.39511	0.98230
967.34131	0.98339
965.28751	0.98447
963.23371	0.98520
961.17990	0.98558
959.12610	0.98600
957.07230	0.98657
955.01849	0.98709
952.96469	0.98737
950.91089	0.98757
948.85708	0.98801
946.80328	0.98843
944.74948	0.98862
942.69567	0.98877
940.64187	0.98903
938.58807	0.98952
936.53426	0.98979
934.48046	0.98941
932.42666	0.98891
930.37285	0.98901
928.31905	0.98964
926.26525	0.98993
924.21144	0.98978
922.15764	0.98995
920.10384	0.99003
918.05003	0.98970
915.99623	0.98947
913.94243	0.98967
911.88862	0.99002
909.83482	0.98974
907.78102	0.98926
905.72722	0.98950
903.67341	0.98994
901.61961	0.98994
899.56581	0.98963
897.51200	0.98935
895.45820	0.98959
893.40440	0.99006
891.35059	0.99012
889.29679	0.99022
887.24299	0.99078
885.18918	0.99133
883.13538	0.99142
881.08158	0.99124
879.02777	0.99126
876.97397	0.99152
874.92017	0.99161
872.86636	0.99171
870.81256	0.99212
868.75876	0.99238
866.70495	0.99221
864.65115	0.99175
862.59735	0.99131
860.54354	0.99106
858.48974	0.99130
856.43594	0.99200
854.38213	0.99299
852.32833	0.99409
850.27453	0.99448
848.22073	0.99377
846.16692	0.99194
844.11312	0.98949
842.05932	0.98826
840.00551	0.98915
837.95171	0.99110
835.89791	0.99253
833.84410	0.99280
831.79030	0.99246
829.73650	0.99212
827.68269	0.99187
825.62889	0.99215
823.57509	0.99324
821.52128	0.99336
819.46748	0.99191
817.41368	0.99113
815.35987	0.99148
813.30607	0.99143
811.25227	0.99096
809.19846	0.99091
807.14466	0.99061
805.09086	0.98983
803.03705	0.98986
800.98325	0.99028
798.92945	0.98990
796.87565	0.98915
794.82184	0.98902
792.76804	0.98959
790.71424	0.98992
788.66043	0.99001
786.60663	0.99084
784.55283	0.99197
782.49902	0.99214
780.44522	0.99153
778.39142	0.99084
776.33761	0.99027
774.28381	0.99027
772.23001	0.99080
770.17620	0.99115
768.12240	0.99098
766.06860	0.99050
764.01479	0.98987
761.96099	0.98934
759.90719	0.98948
757.85338	0.99025
755.79958	0.99080
753.74578	0.99109
751.69197	0.99130
749.63817	0.99102
747.58437	0.99041
745.53056	0.98987
743.47676	0.98946
741.42296	0.98983
739.36916	0.99108
737.31535	0.99161
735.26155	0.99114
733.20775	0.99068
731.15394	0.99040
729.10014	0.99054
727.04634	0.99074
724.99253	0.99013
722.93873	0.98950
720.88493	0.98977
718.83112	0.99070
716.77732	0.99172
714.72352	0.99192
712.66971	0.99126
710.61591	0.99055
708.56211	0.99030
706.50830	0.99066
704.45450	0.99115
702.40070	0.99083
700.34689	0.98999
698.29309	0.98975
696.23929	0.99026
694.18548	0.99105
692.13168	0.99182
690.07788	0.99225
688.02408	0.99179
685.97027	0.99034
683.91647	0.98879
681.86267	0.98831
679.80886	0.98908
677.75506	0.98957
675.70126	0.98904
673.64745	0.98872
671.59365	0.98946
669.53985	0.99033
667.48604	0.99010
665.43224	0.98943
663.37844	0.98972
661.32463	0.99087
659.27083	0.99132
657.21703	0.99068
655.16322	0.99003
653.10942	0.98906
651.05562	0.98817
649.00181	0.98899
646.94801	0.99000
644.89421	0.98940
642.84040	0.98863
640.78660	0.98884
638.73280	0.98982
636.67899	0.99031
634.62519	0.98922
632.57139	0.98771
630.51759	0.98757
628.46378	0.98861
626.40998	0.98955
624.35618	0.98953
622.30237	0.98877
620.24857	0.98839
618.19477	0.98821
616.14096	0.98856
614.08716	0.98981
612.03336	0.98963
609.97955	0.98816
607.92575	0.98817
605.87195	0.98951
603.81814	0.99033
601.76434	0.98987
599.71054	0.98862
597.65673	0.98760
595.60293	0.98710
593.54913	0.98707
591.49532	0.98792
589.44152	0.98837
587.38772	0.98714
585.33391	0.98563
583.28011	0.98500
581.22631	0.98532
579.17250	0.98561
577.11870	0.98522
575.06490	0.98558
573.01110	0.98641
570.95729	0.98536
568.90349	0.98332
566.84969	0.98339
564.79588	0.98533
562.74208	0.98666
560.68828	0.98673
558.63447	0.98627
556.58067	0.98585
554.52687	0.98626
552.47306	0.98705
550.41926	0.98640
548.36546	0.98464
546.31165	0.98418
544.25785	0.98511
542.20405	0.98480
540.15024	0.98336
538.09644	0.98327
536.04264	0.98366
533.98883	0.98384
531.93503	0.98494
529.88123	0.98560
527.82742	0.98540
525.77362	0.98486
523.71982	0.98394
521.66602	0.98351
519.61221	0.98280
517.55841	0.98107
515.50461	0.98067
513.45080	0.98183
511.39700	0.98218
509.34320	0.98238
507.28939	0.98470
505.23559	0.98723
503.18179	0.98681
501.12798	0.98633
499.07418	0.98844
497.02038	0.98946
494.96657	0.98754
492.91277	0.98475
490.85897	0.98260
488.80516	0.98230
486.75136	0.98385
484.69756	0.98429
482.64375	0.98349
480.58995	0.98323
478.53615	0.98192
476.48234	0.98070
474.42854	0.98236
472.37474	0.98355
470.32093	0.98048
468.26713	0.97651
466.21333	0.97420
464.15953	0.97374
462.10572	0.97582
460.05192	0.97914
457.99812	0.97978
455.94431	0.97726
453.89051	0.97525
451.83671	0.97592
449.78290	0.97940
447.72910	0.98149
445.67530	0.98053
443.62149	0.98077
441.56769	0.98163
439.51389	0.97911
437.46008	0.97579
435.40628	0.97772
433.35248	0.98387
431.29867	0.98825
429.24487	0.98996
427.19107	0.98650
425.13726	0.97903
423.08346	0.97785
421.02966	0.98176
418.97585	0.97883
416.92205	0.97353
414.86825	0.97493
412.81445	0.97709
410.76064	0.97674
408.70684	0.97652
406.65304	0.97846
404.59923	0.98163
402.54543	0.98374
400.49163	0.98490
398.43782	0.98496
