3996.71440	0.01237
3994.66059	0.01238
3992.60678	0.01238
3990.55297	0.01230
3988.49916	0.01228
3986.44535	0.01241
3984.39154	0.01246
3982.33773	0.01235
3980.28391	0.01224
3978.23010	0.01221
3976.17629	0.01219
3974.12248	0.01224
3972.06867	0.01232
3970.01486	0.01233
3967.96105	0.01232
3965.90724	0.01236
3963.85343	0.01242
3961.79962	0.01246
3959.74581	0.01246
3957.69200	0.01243
3955.63819	0.01240
3953.58438	0.01238
3951.53057	0.01236
3949.47676	0.01235
3947.42295	0.01235
3945.36914	0.01236
3943.31533	0.01238
3941.26152	0.01239
3939.20771	0.01243
3937.15390	0.01251
3935.10009	0.01249
3933.04628	0.01240
3930.99247	0.01243
3928.93866	0.01244
3926.88485	0.01229
3924.83104	0.01224
3922.77723	0.01243
3920.72342	0.01261
3918.66961	0.01263
3916.61580	0.01255
3914.56199	0.01242
3912.50818	0.01234
3910.45437	0.01232
3908.40056	0.01223
3906.34675	0.01213
3904.29294	0.01224
3902.23913	0.01254
3900.18532	0.01265
3898.13151	0.01247
3896.07770	0.01225
3894.02389	0.01219
3891.97008	0.01229
3889.91627	0.01236
3887.86246	0.01233
3885.80865	0.01222
3883.75484	0.01207
3881.70103	0.01203
3879.64722	0.01216
3877.59341	0.01217
3875.53960	0.01200
3873.48579	0.01203
3871.43198	0.01226
3869.37817	0.01233
3867.32436	0.01223
3865.27055	0.01221
3863.21674	0.01228
3861.16293	0.01231
3859.10912	0.01212
3857.05531	0.01167
3855.00150	0.01137
3852.94769	0.01163
3850.89388	0.01185
3848.84007	0.01189
3846.78626	0.01205
3844.73245	0.01223
3842.67864	0.01231
3840.62483	0.01230
3838.57102	0.01226
3836.51721	0.01220
3834.46340	0.01215
3832.40959	0.01213
3830.35578	0.01218
3828.30197	0.01226
3826.24816	0.01228
3824.19435	0.01220
3822.14054	0.01204
3820.08673	0.01197
3818.03292	0.01211
3815.97911	0.01228
3813.92530	0.01223
3811.87149	0.01199
3809.81768	0.01182
3807.76387	0.01191
3805.71006	0.01217
3803.65625	0.01234
3801.60244	0.01247
3799.54863	0.01240
3797.49482	0.01209
3795.44101	0.01195
3793.38720	0.01201
3791.33339	0.01210
3789.27958	0.01218
3787.22577	0.01222
3785.17196	0.01231
3783.11815	0.01237
3781.06434	0.01226
3779.01053	0.01215
3776.95672	0.01215
3774.90291	0.01210
3772.84910	0.01203
3770.79529	0.01210
3768.74148	0.01216
3766.68767	0.01207
3764.63386	0.01192
3762.58005	0.01177
3760.52624	0.01183
3758.47243	0.01214
3756.41862	0.01231
3754.36481	0.01228
3752.31100	0.01219
3750.25719	0.01208
3748.20338	0.01199
3746.14957	0.01205
3744.09576	0.01235
3742.04195	0.01241
3739.98814	0.01217
3737.93433	0.01197
3735.88052	0.01187
3733.82671	0.01191
3731.77290	0.01209
3729.71909	0.01219
3727.66528	0.01206
3725.61147	0.01185
3723.55766	0.01187
3721.50385	0.01201
3719.45004	0.01200
3717.39623	0.01189
3715.34242	0.01185
3713.28861	0.01195
3711.23480	0.01221
3709.18099	0.01249
3707.12718	0.01263
3705.07337	0.01270
3703.01956	0.01281
3700.96575	0.01288
3698.91194	0.01288
3696.85813	0.01288
3694.80432	0.01275
3692.75051	0.01249
3690.69670	0.01239
3688.64289	0.01254
3686.58907	0.01269
3684.53526	0.01271
3682.48145	0.01274
3680.42764	0.01288
3678.37383	0.01287
3676.32002	0.01272
3674.26621	0.01270
3672.21240	0.01271
3670.15859	0.01272
3668.10478	0.01278
3666.05097	0.01287
3663.99716	0.01294
3661.94335	0.01294
3659.88954	0.01287
3657.83573	0.01292
3655.78192	0.01313
3653.72811	0.01318
3651.67430	0.01303
3649.62049	0.01314
3647.56668	0.01342
3645.51287	0.01340
3643.45906	0.01330
3641.40525	0.01330
3639.35144	0.01341
3637.29763	0.01353
3635.24382	0.01357
3633.19001	0.01370
3631.13620	0.01396
3629.08239	0.01416
3627.02858	0.01426
3624.97477	0.01435
3622.92096	0.01439
3620.86715	0.01429
3618.81334	0.01405
3616.75953	0.01386
3614.70572	0.01385
3612.65191	0.01388
3610.59810	0.01391
3608.54429	0.01405
3606.49048	0.01411
3604.43667	0.01404
3602.38286	0.01401
3600.32905	0.01391
3598.27524	0.01386
3596.22143	0.01409
3594.16762	0.01436
3592.11381	0.01439
3590.06000	0.01429
3588.00619	0.01425
3585.95238	0.01446
3583.89857	0.01474
3581.84476	0.01476
3579.79095	0.01456
3577.73714	0.01440
3575.68333	0.01445
3573.62952	0.01464
3571.57571	0.01475
3569.52190	0.01481
3567.46809	0.01496
3565.41428	0.01504
3563.36047	0.01502
3561.30666	0.01508
3559.25285	0.01520
3557.19904	0.01533
3555.14523	0.01552
3553.09142	0.01573
3551.03761	0.01584
3548.98380	0.01585
3546.92999	0.01580
3544.87618	0.01579
3542.82237	0.01588
3540.76856	0.01592
3538.71475	0.01588
3536.66094	0.01596
3534.60713	0.01618
3532.55332	0.01624
3530.49951	0.01615
3528.44570	0.01620
3526.39189	0.01640
3524.33808	0.01651
3522.28427	0.01653
3520.23046	0.01649
3518.17665	0.01642
3516.12284	0.01644
3514.06903	0.01661
3512.01522	0.01677
3509.96141	0.01689
3507.90760	0.01705
3505.85379	0.01720
3503.79998	0.01728
3501.74617	0.01723
3499.69236	0.01716
3497.63855	0.01723
3495.58474	0.01734
3493.53093	0.01736
3491.47712	0.01735
3489.42331	0.01747
3487.36950	0.01767
3485.31569	0.01785
3483.26188	0.01800
3481.20807	0.01803
3479.15426	0.01792
3477.10045	0.01791
3475.04664	0.01807
3472.99283	0.01814
3470.93902	0.01806
3468.88521	0.01810
3466.83140	0.01829
3464.77759	0.01837
3462.72378	0.01837
3460.66997	0.01842
3458.61616	0.01848
3456.56235	0.01854
3454.50854	0.01860
3452.45473	0.01866
3450.40092	0.01873
3448.34711	0.01881
3446.29330	0.01888
3444.23949	0.01896
3442.18568	0.01912
3440.13187	0.01927
3438.07806	0.01930
3436.02425	0.01923
3433.97044	0.01914
3431.91663	0.01907
3429.86282	0.01909
3427.80901	0.01925
3425.75520	0.01937
3423.70139	0.01928
3421.64758	0.01908
3419.59377	0.01897
3417.53996	0.01906
3415.48615	0.01924
3413.43234	0.01930
3411.37853	0.01928
3409.32472	0.01940
3407.27091	0.01960
3405.21710	0.01965
3403.16329	0.01966
3401.10948	0.01970
3399.05567	0.01962
3397.00186	0.01948
3394.94805	0.01941
3392.89424	0.01941
3390.84042	0.01950
3388.78661	0.01953
3386.73280	0.01943
3384.67899	0.01941
3382.62518	0.01948
3380.57137	0.01950
3378.51756	0.01949
3376.46375	0.01951
3374.40994	0.01944
3372.35613	0.01934
3370.30232	0.01942
3368.24851	0.01953
3366.19470	0.01952
3364.14089	0.01944
3362.08708	0.01939
3360.03327	0.01934
3357.97946	0.01929
3355.92565	0.01931
3353.87184	0.01936
3351.81803	0.01937
3349.76422	0.01950
3347.71041	0.01968
3345.65660	0.01970
3343.60279	0.01954
3341.54898	0.01934
3339.49517	0.01919
3337.44136	0.01921
3335.38755	0.01936
3333.33374	0.01942
3331.27993	0.01943
3329.22612	0.01945
3327.17231	0.01930
3325.11850	0.01913
3323.06469	0.01919
3321.01088	0.01927
3318.95707	0.01919
3316.90326	0.01919
3314.84945	0.01927
3312.79564	0.01922
3310.74183	0.01912
3308.68802	0.01917
3306.63421	0.01933
3304.58040	0.01937
3302.52659	0.01919
3300.47278	0.01898
3298.41897	0.01898
3296.36516	0.01907
3294.31135	0.01906
3292.25754	0.01899
3290.20373	0.01889
3288.14992	0.01877
3286.09611	0.01871
3284.04230	0.01871
3281.98849	0.01881
3279.93468	0.01895
3277.88087	0.01904
3275.82706	0.01907
3273.77325	0.01898
3271.71944	0.01889
3269.66563	0.01889
3267.61182	0.01875
3265.55801	0.01855
3263.50420	0.01846
3261.45039	0.01842
3259.39658	0.01848
3257.34277	0.01861
3255.28896	0.01863
3253.23515	0.01856
3251.18134	0.01847
3249.12753	0.01832
3247.07372	0.01821
3245.01991	0.01820
3242.96610	0.01827
3240.91229	0.01837
3238.85848	0.01842
3236.80467	0.01833
3234.75086	0.01823
3232.69705	0.01816
3230.64324	0.01805
3228.58943	0.01793
3226.53562	0.01795
3224.48181	0.01803
3222.42800	0.01802
3220.37419	0.01801
3218.32038	0.01804
3216.26657	0.01808
3214.21276	0.01811
3212.15895	0.01811
3210.10514	0.01811
3208.05133	0.01810
3205.99752	0.01797
3203.94371	0.01789
3201.88990	0.01789
3199.83609	0.01784
3197.78228	0.01780
3195.72847	0.01785
3193.67466	0.01791
3191.62085	0.01791
3189.56704	0.01790
3187.51323	0.01789
3185.45942	0.01781
3183.40561	0.01761
3181.35180	0.01742
3179.29799	0.01737
3177.24418	0.01737
3175.19037	0.01738
3173.13656	0.01730
3171.08275	0.01713
3169.02894	0.01707
3166.97513	0.01713
3164.92132	0.01712
3162.86751	0.01708
3160.81370	0.01711
3158.75989	0.01716
3156.70608	0.01715
3154.65227	0.01711
3152.59846	0.01705
3150.54465	0.01697
3148.49084	0.01696
3146.43703	0.01698
3144.38322	0.01699
3142.32941	0.01696
3140.27560	0.01679
3138.22179	0.01660
3136.16798	0.01657
3134.11417	0.01663
3132.06036	0.01668
3130.00655	0.01669
3127.95274	0.01660
3125.89893	0.01640
3123.84512	0.01626
3121.79131	0.01632
3119.73750	0.01646
3117.68369	0.01646
3115.62988	0.01634
3113.57607	0.01621
3111.52226	0.01615
3109.46845	0.01616
3107.41464	0.01615
3105.36083	0.01606
3103.30702	0.01597
3101.25321	0.01593
3099.19940	0.01588
3097.14559	0.01574
3095.09177	0.01561
3093.03796	0.01559
3090.98415	0.01565
3088.93034	0.01575
3086.87653	0.01578
3084.82272	0.01573
3082.76891	0.01578
3080.71510	0.01588
3078.66129	0.01580
3076.60748	0.01568
3074.55367	0.01566
3072.49986	0.01556
3070.44605	0.01539
3068.39224	0.01532
3066.33843	0.01532
3064.28462	0.01541
3062.23081	0.01544
3060.17700	0.01532
3058.12319	0.01519
3056.06938	0.01514
3054.01557	0.01514
3051.96176	0.01516
3049.90795	0.01516
3047.85414	0.01513
3045.80033	0.01514
3043.74652	0.01516
3041.69271	0.01506
3039.63890	0.01494
3037.58509	0.01495
3035.53128	0.01497
3033.47747	0.01487
3031.42366	0.01481
3029.36985	0.01481
3027.31604	0.01472
3025.26223	0.01463
3023.20842	0.01467
3021.15461	0.01471
3019.10080	0.01476
3017.04699	0.01492
3014.99318	0.01505
3012.93937	0.01502
3010.88556	0.01507
3008.83175	0.01528
3006.77794	0.01539
3004.72413	0.01533
3002.67032	0.01529
3000.61651	0.01531
2998.56270	0.01547
2996.50889	0.01579
2994.45508	0.01610
2992.40127	0.01649
2990.34746	0.01709
2988.29365	0.01783
2986.23984	0.01860
2984.18603	0.01947
2982.13222	0.02053
2980.07841	0.02182
2978.02460	0.02351
2975.97079	0.02588
2973.91698	0.02914
2971.86317	0.03347
2969.80936	0.03910
2967.75555	0.04621
2965.70174	0.05477
2963.64793	0.06401
2961.59412	0.07194
2959.54031	0.07658
2957.48650	0.07847
2955.43269	0.08065
2953.37888	0.08531
2951.32507	0.09085
2949.27126	0.09286
2947.21745	0.08844
2945.16364	0.07901
2943.10983	0.06859
2941.05602	0.06062
2939.00221	0.05645
2936.94840	0.05581
2934.89459	0.05819
2932.84078	0.06327
2930.78697	0.07061
2928.73316	0.07945
2926.67935	0.08872
2924.62554	0.09740
2922.57173	0.10545
2920.51792	0.11294
2918.46411	0.11810
2916.41030	0.11804
2914.35649	0.11232
2912.30268	0.10405
2910.24887	0.09658
2908.19506	0.09078
2906.14125	0.08574
2904.08744	0.08054
2902.03363	0.07502
2899.97982	0.06959
2897.92601	0.06478
2895.87220	0.06098
2893.81839	0.05834
2891.76458	0.05686
2889.71077	0.05639
2887.65696	0.05668
2885.60315	0.05740
2883.54934	0.05857
2881.49553	0.06033
2879.44172	0.06227
2877.38791	0.06344
2875.33410	0.06343
2873.28029	0.06298
2871.22648	0.06325
2869.17267	0.06457
2867.11886	0.06584
2865.06505	0.06485
2863.01124	0.06020
2860.95743	0.05334
2858.90362	0.04704
2856.84981	0.04283
2854.79600	0.04075
2852.74219	0.04020
2850.68838	0.04065
2848.63457	0.04218
2846.58076	0.04524
2844.52695	0.05010
2842.47314	0.05645
2840.41933	0.06268
2838.36552	0.06626
2836.31171	0.06514
2834.25790	0.05940
2832.20409	0.05170
2830.15028	0.04483
2828.09647	0.03978
2826.04266	0.03623
2823.98885	0.03372
2821.93504	0.03191
2819.88123	0.03052
2817.82742	0.02936
2815.77361	0.02840
2813.71980	0.02764
2811.66599	0.02705
2809.61218	0.02659
2807.55837	0.02612
2805.50456	0.02552
2803.45075	0.02482
2801.39693	0.02424
2799.34312	0.02383
2797.28931	0.02358
2795.23550	0.02335
2793.18169	0.02299
2791.12788	0.02256
2789.07407	0.02222
2787.02026	0.02192
2784.96645	0.02164
2782.91264	0.02135
2780.85883	0.02103
2778.80502	0.02073
2776.75121	0.02055
2774.69740	0.02044
2772.64359	0.02030
2770.58978	0.02016
2768.53597	0.02005
2766.48216	0.01994
2764.42835	0.01982
2762.37454	0.01967
2760.32073	0.01951
2758.26692	0.01939
2756.21311	0.01934
2754.15930	0.01925
2752.10549	0.01912
2750.05168	0.01908
2747.99787	0.01905
2745.94406	0.01896
2743.89025	0.01898
2741.83644	0.01915
2739.78263	0.01931
2737.72882	0.01944
2735.67501	0.01951
2733.62120	0.01946
2731.56739	0.01938
2729.51358	0.01947
2727.45977	0.01978
2725.40596	0.02015
2723.35215	0.02030
2721.29834	0.02022
2719.24453	0.02000
2717.19072	0.01979
2715.13691	0.01960
2713.08310	0.01937
2711.02929	0.01915
2708.97548	0.01895
2706.92167	0.01876
2704.86786	0.01861
2702.81405	0.01849
2700.76024	0.01843
2698.70643	0.01840
2696.65262	0.01833
2694.59881	0.01827
2692.54500	0.01826
2690.49119	0.01822
2688.43738	0.01820
2686.38357	0.01829
2684.32976	0.01832
2682.27595	0.01820
2680.22214	0.01807
2678.16833	0.01805
2676.11452	0.01810
2674.06071	0.01813
2672.00690	0.01813
2669.95309	0.01813
2667.89928	0.01816
2665.84547	0.01819
2663.79166	0.01820
2661.73785	0.01816
2659.68404	0.01815
2657.63023	0.01820
2655.57642	0.01820
2653.52261	0.01810
2651.46880	0.01794
2649.41499	0.01783
2647.36118	0.01780
2645.30737	0.01776
2643.25356	0.01772
2641.19975	0.01774
2639.14594	0.01771
2637.09213	0.01757
2635.03832	0.01746
2632.98451	0.01742
2630.93070	0.01732
2628.87689	0.01718
2626.82308	0.01711
2624.76927	0.01717
2622.71546	0.01729
2620.66165	0.01741
2618.60784	0.01750
2616.55403	0.01751
2614.50022	0.01746
2612.44641	0.01740
2610.39260	0.01719
2608.33879	0.01692
2606.28498	0.01683
2604.23117	0.01686
2602.17736	0.01678
2600.12355	0.01654
2598.06974	0.01633
2596.01593	0.01643
2593.96212	0.01660
2591.90831	0.01659
2589.85450	0.01656
2587.80069	0.01667
2585.74688	0.01680
2583.69307	0.01685
2581.63926	0.01686
2579.58545	0.01688
2577.53164	0.01689
2575.47783	0.01684
2573.42402	0.01671
2571.37021	0.01661
2569.31640	0.01649
2567.26259	0.01617
2565.20878	0.01597
2563.15497	0.01611
2561.10116	0.01637
2559.04735	0.01644
2556.99354	0.01639
2554.93973	0.01622
2552.88592	0.01590
2550.83211	0.01574
2548.77830	0.01584
2546.72449	0.01589
2544.67068	0.01585
2542.61687	0.01584
2540.56306	0.01584
2538.50925	0.01577
2536.45544	0.01570
2534.40163	0.01578
2532.34782	0.01586
2530.29401	0.01572
2528.24020	0.01555
2526.18639	0.01549
2524.13258	0.01545
2522.07877	0.01541
2520.02496	0.01538
2517.97115	0.01535
2515.91734	0.01533
2513.86353	0.01519
2511.80972	0.01498
2509.75591	0.01498
2507.70210	0.01501
2505.64828	0.01485
2503.59447	0.01479
2501.54066	0.01494
2499.48685	0.01515
2497.43304	0.01532
2495.37923	0.01534
2493.32542	0.01525
2491.27161	0.01522
2489.21780	0.01523
2487.16399	0.01515
2485.11018	0.01500
2483.05637	0.01488
2481.00256	0.01492
2478.94875	0.01500
2476.89494	0.01491
2474.84113	0.01474
2472.78732	0.01469
2470.73351	0.01468
2468.67970	0.01472
2466.62589	0.01488
2464.57208	0.01496
2462.51827	0.01492
2460.46446	0.01496
2458.41065	0.01502
2456.35684	0.01498
2454.30303	0.01497
2452.24922	0.01499
2450.19541	0.01497
2448.14160	0.01489
2446.08779	0.01480
2444.03398	0.01480
2441.98017	0.01494
2439.92636	0.01514
2437.87255	0.01524
2435.81874	0.01516
2433.76493	0.01501
2431.71112	0.01486
2429.65731	0.01474
2427.60350	0.01468
2425.54969	0.01472
2423.49588	0.01482
2421.44207	0.01485
2419.38826	0.01468
2417.33445	0.01448
2415.28064	0.01450
2413.22683	0.01460
2411.17302	0.01461
2409.11921	0.01461
2407.06540	0.01457
2405.01159	0.01457
2402.95778	0.01473
2400.90397	0.01487
2398.85016	0.01487
2396.79635	0.01477
2394.74254	0.01468
2392.68873	0.01471
2390.63492	0.01476
2388.58111	0.01477
2386.52730	0.01469
2384.47349	0.01446
2382.41968	0.01424
2380.36587	0.01431
2378.31206	0.01459
2376.25825	0.01484
2374.20444	0.01500
2372.15063	0.01506
2370.09682	0.01506
2368.04301	0.01504
2365.98920	0.01495
2363.93539	0.01463
2361.88158	0.01438
2359.82777	0.01468
2357.77396	0.01511
2355.72015	0.01513
2353.66634	0.01487
2351.61253	0.01488
2349.55872	0.01506
2347.50491	0.01507
2345.45110	0.01495
2343.39729	0.01491
2341.34348	0.01507
2339.28967	0.01504
2337.23586	0.01467
2335.18205	0.01453
2333.12824	0.01476
2331.07443	0.01491
2329.02062	0.01496
2326.96681	0.01523
2324.91300	0.01565
2322.85919	0.01576
2320.80538	0.01535
2318.75157	0.01489
2316.69776	0.01467
2314.64395	0.01465
2312.59014	0.01481
2310.53633	0.01495
2308.48252	0.01496
2306.42871	0.01493
2304.37490	0.01485
2302.32109	0.01467
2300.26728	0.01453
2298.21347	0.01463
2296.15966	0.01487
2294.10585	0.01503
2292.05204	0.01504
2289.99823	0.01496
2287.94442	0.01496
2285.89061	0.01508
2283.83680	0.01501
2281.78299	0.01479
2279.72918	0.01478
2277.67537	0.01484
2275.62156	0.01465
2273.56775	0.01444
2271.51394	0.01430
2269.46013	0.01417
2267.40632	0.01417
2265.35251	0.01424
2263.29870	0.01433
2261.24489	0.01434
2259.19108	0.01415
2257.13727	0.01400
2255.08346	0.01417
2253.02965	0.01446
2250.97584	0.01445
2248.92203	0.01422
2246.86822	0.01412
2244.81441	0.01404
2242.76060	0.01394
2240.70679	0.01391
2238.65298	0.01368
2236.59917	0.01332
2234.54536	0.01351
2232.49155	0.01396
2230.43774	0.01374
2228.38393	0.01338
2226.33012	0.01344
2224.27631	0.01371
2222.22250	0.01407
2220.16869	0.01418
2218.11488	0.01393
2216.06107	0.01352
2214.00726	0.01315
2211.95344	0.01309
2209.89963	0.01331
2207.84582	0.01338
2205.79201	0.01318
2203.73820	0.01300
2201.68439	0.01293
2199.63058	0.01282
2197.57677	0.01295
2195.52296	0.01352
2193.46915	0.01381
2191.41534	0.01362
2189.36153	0.01341
2187.30772	0.01320
2185.25391	0.01322
2183.20010	0.01350
2181.14629	0.01358
2179.09248	0.01316
2177.03867	0.01240
2174.98486	0.01218
2172.93105	0.01283
2170.87724	0.01362
2168.82343	0.01392
2166.76962	0.01387
2164.71581	0.01419
2162.66200	0.01455
2160.60819	0.01346
2158.55438	0.01118
2156.50057	0.00993
2154.44676	0.01018
2152.39295	0.01087
2150.33914	0.01152
2148.28533	0.01204
2146.23152	0.01222
2144.17771	0.01208
2142.12390	0.01191
2140.07009	0.01219
2138.01628	0.01278
2135.96247	0.01279
2133.90866	0.01228
2131.85485	0.01219
2129.80104	0.01273
2127.74723	0.01329
2125.69342	0.01334
2123.63961	0.01300
2121.58580	0.01261
2119.53199	0.01260
2117.47818	0.01291
2115.42437	0.01320
2113.37056	0.01335
2111.31675	0.01344
2109.26294	0.01355
2107.20913	0.01369
2105.15532	0.01399
2103.10151	0.01412
2101.04770	0.01370
2098.99389	0.01305
2096.94008	0.01264
2094.88627	0.01245
2092.83246	0.01251
2090.77865	0.01281
2088.72484	0.01302
2086.67103	0.01301
2084.61722	0.01296
2082.56341	0.01298
2080.50960	0.01309
2078.45579	0.01331
2076.40198	0.01342
2074.34817	0.01340
2072.29436	0.01334
2070.24055	0.01311
2068.18674	0.01278
2066.13293	0.01268
2064.07912	0.01297
2062.02531	0.01334
2059.97150	0.01335
2057.91769	0.01325
2055.86388	0.01343
2053.81007	0.01375
2051.75626	0.01399
2049.70245	0.01405
2047.64864	0.01406
2045.59483	0.01400
2043.54102	0.01390
2041.48721	0.01382
2039.43340	0.01386
2037.37959	0.01379
2035.32578	0.01316
2033.27197	0.01293
2031.21816	0.01339
2029.16435	0.01319
2027.11054	0.01264
2025.05673	0.01270
2023.00292	0.01265
2020.94911	0.01207
2018.89530	0.01176
2016.84149	0.01200
2014.78768	0.01214
2012.73387	0.01241
2010.68006	0.01323
2008.62625	0.01347
2006.57244	0.01281
2004.51863	0.01237
2002.46482	0.01222
2000.41101	0.01190
1998.35720	0.01179
1996.30339	0.01214
1994.24958	0.01261
1992.19577	0.01289
1990.14196	0.01281
1988.08815	0.01289
1986.03434	0.01372
1983.98053	0.01479
1981.92672	0.01539
1979.87291	0.01520
1977.81910	0.01399
1975.76529	0.01263
1973.71148	0.01211
1971.65767	0.01209
1969.60386	0.01210
1967.55005	0.01202
1965.49624	0.01212
1963.44243	0.01259
1961.38862	0.01295
1959.33481	0.01306
1957.28100	0.01316
1955.22719	0.01315
1953.17338	0.01293
1951.11957	0.01287
1949.06576	0.01314
1947.01195	0.01334
1944.95814	0.01317
1942.90433	0.01298
1940.85052	0.01293
1938.79671	0.01277
1936.74290	0.01262
1934.68909	0.01254
1932.63528	0.01260
1930.58147	0.01276
1928.52766	0.01281
1926.47385	0.01278
1924.42004	0.01282
1922.36623	0.01303
1920.31242	0.01308
1918.25861	0.01280
1916.20479	0.01273
1914.15098	0.01290
1912.09717	0.01299
1910.04336	0.01302
1907.98955	0.01306
1905.93574	0.01319
1903.88193	0.01327
1901.82812	0.01318
1899.77431	0.01322
1897.72050	0.01331
1895.66669	0.01319
1893.61288	0.01298
1891.55907	0.01290
1889.50526	0.01300
1887.45145	0.01314
1885.39764	0.01317
1883.34383	0.01313
1881.29002	0.01313
1879.23621	0.01319
1877.18240	0.01314
1875.12859	0.01297
1873.07478	0.01289
1871.02097	0.01299
1868.96716	0.01316
1866.91335	0.01324
1864.85954	0.01332
1862.80573	0.01350
1860.75192	0.01366
1858.69811	0.01362
1856.64430	0.01353
1854.59049	0.01349
1852.53668	0.01330
1850.48287	0.01298
1848.42906	0.01288
1846.37525	0.01308
1844.32144	0.01328
1842.26763	0.01326
1840.21382	0.01325
1838.16001	0.01333
1836.10620	0.01343
1834.05239	0.01357
1831.99858	0.01362
1829.94477	0.01351
1827.89096	0.01345
1825.83715	0.01357
1823.78334	0.01374
1821.72953	0.01375
1819.67572	0.01366
1817.62191	0.01361
1815.56810	0.01362
1813.51429	0.01365
1811.46048	0.01370
1809.40667	0.01389
1807.35286	0.01410
1805.29905	0.01424
1803.24524	0.01448
1801.19143	0.01489
1799.13762	0.01527
1797.08381	0.01555
1795.03000	0.01591
1792.97619	0.01652
1790.92238	0.01715
1788.86857	0.01757
1786.81476	0.01793
1784.76095	0.01847
1782.70714	0.01922
1780.65333	0.02008
1778.59952	0.02084
1776.54571	0.02138
1774.49190	0.02180
1772.43809	0.02226
1770.38428	0.02260
1768.33047	0.02280
1766.27666	0.02297
1764.22285	0.02310
1762.16904	0.02338
1760.11523	0.02387
1758.06142	0.02435
1756.00761	0.02476
1753.95380	0.02513
1751.89999	0.02561
1749.84618	0.02616
1747.79237	0.02661
1745.73856	0.02700
1743.68475	0.02742
1741.63094	0.02790
1739.57713	0.02835
1737.52332	0.02863
1735.46951	0.02884
1733.41570	0.02921
1731.36189	0.02960
1729.30808	0.02985
1727.25427	0.03008
1725.20046	0.03039
1723.14665	0.03077
1721.09284	0.03103
1719.03903	0.03125
1716.98522	0.03163
1714.93141	0.03202
1712.87760	0.03226
1710.82379	0.03235
1708.76998	0.03221
1706.71617	0.03179
1704.66236	0.03112
1702.60855	0.03031
1700.55474	0.02940
1698.50093	0.02850
1696.44712	0.02766
1694.39331	0.02680
1692.33950	0.02608
1690.28569	0.02549
1688.23188	0.02500
1686.17807	0.02460
1684.12426	0.02426
1682.07045	0.02399
1680.01664	0.02383
1677.96283	0.02373
1675.90902	0.02356
1673.85521	0.02341
1671.80140	0.02337
1669.74759	0.02336
1667.69378	0.02339
1665.63997	0.02343
1663.58616	0.02356
1661.53235	0.02380
1659.47854	0.02396
1657.42473	0.02401
1655.37092	0.02406
1653.31711	0.02428
1651.26330	0.02435
1649.20949	0.02421
1647.15568	0.02415
1645.10187	0.02408
1643.04806	0.02389
1640.99425	0.02372
1638.94044	0.02355
1636.88663	0.02334
1634.83282	0.02328
1632.77901	0.02333
1630.72520	0.02331
1628.67139	0.02318
1626.61758	0.02300
1624.56377	0.02283
1622.50996	0.02260
1620.45614	0.02221
1618.40233	0.02176
1616.34852	0.02138
1614.29471	0.02099
1612.24090	0.02054
1610.18709	0.02012
1608.13328	0.01978
1606.07947	0.01950
1604.02566	0.01925
1601.97185	0.01904
1599.91804	0.01884
1597.86423	0.01869
1595.81042	0.01861
1593.75661	0.01851
1591.70280	0.01831
1589.64899	0.01813
1587.59518	0.01800
1585.54137	0.01788
1583.48756	0.01778
1581.43375	0.01764
1579.37994	0.01742
1577.32613	0.01724
1575.27232	0.01726
1573.21851	0.01731
1571.16470	0.01733
1569.11089	0.01738
1567.05708	0.01742
1565.00327	0.01737
1562.94946	0.01722
1560.89565	0.01708
1558.84184	0.01721
1556.78803	0.01743
1554.73422	0.01734
1552.68041	0.01723
1550.62660	0.01724
1548.57279	0.01723
1546.51898	0.01717
1544.46517	0.01717
1542.41136	0.01716
1540.35755	0.01714
1538.30374	0.01716
1536.24993	0.01702
1534.19612	0.01688
1532.14231	0.01688
1530.08850	0.01684
1528.03469	0.01667
1525.98088	0.01654
1523.92707	0.01644
1521.87326	0.01628
1519.81945	0.01625
1517.76564	0.01632
1515.71183	0.01634
1513.65802	0.01628
1511.60421	0.01622
1509.55040	0.01614
1507.49659	0.01597
1505.44278	0.01597
1503.38897	0.01612
1501.33516	0.01613
1499.28135	0.01605
1497.22754	0.01605
1495.17373	0.01617
1493.11992	0.01626
1491.06611	0.01644
1489.01230	0.01684
1486.95849	0.01729
1484.90468	0.01769
1482.85087	0.01823
1480.79706	0.01905
1478.74325	0.02015
1476.68944	0.02172
1474.63563	0.02427
1472.58182	0.02876
1470.52801	0.03448
1468.47420	0.04009
1466.42039	0.04682
1464.36658	0.05495
1462.31277	0.06107
1460.25896	0.06429
1458.20515	0.06682
1456.15134	0.06971
1454.09753	0.07158
1452.04372	0.07242
1449.98991	0.07148
1447.93610	0.06659
1445.88229	0.05822
1443.82848	0.05009
1441.77467	0.04424
1439.72086	0.04117
1437.66705	0.04035
1435.61324	0.03993
1433.55943	0.03759
1431.50562	0.03391
1429.45181	0.03055
1427.39800	0.02855
1425.34419	0.02753
1423.29038	0.02694
1421.23657	0.02650
1419.18276	0.02617
1417.12895	0.02604
1415.07514	0.02592
1413.02133	0.02575
1410.96752	0.02556
1408.91371	0.02543
1406.85990	0.02529
1404.80609	0.02512
1402.75228	0.02499
1400.69847	0.02491
1398.64466	0.02487
1396.59085	0.02499
1394.53704	0.02535
1392.48323	0.02594
1390.42942	0.02685
1388.37561	0.02861
1386.32180	0.03183
1384.26799	0.03703
1382.21418	0.04616
1380.16037	0.06246
1378.10656	0.08501
1376.05275	0.10213
1373.99894	0.09940
1371.94513	0.08107
1369.89132	0.06273
1367.83751	0.05028
1365.78370	0.04402
1363.72989	0.04222
1361.67608	0.04322
1359.62227	0.04473
1357.56846	0.04429
1355.51465	0.04130
1353.46084	0.03732
1351.40703	0.03401
1349.35322	0.03177
1347.29941	0.03030
1345.24560	0.02926
1343.19179	0.02845
1341.13798	0.02790
1339.08417	0.02766
1337.03036	0.02764
1334.97655	0.02784
1332.92274	0.02835
1330.86893	0.02896
1328.81512	0.02927
1326.76130	0.02909
1324.70749	0.02861
1322.65368	0.02822
1320.59987	0.02808
1318.54606	0.02806
1316.49225	0.02797
1314.43844	0.02781
1312.38463	0.02777
1310.33082	0.02808
1308.27701	0.02906
1306.22320	0.03057
1304.16939	0.03163
1302.11558	0.03166
1300.06177	0.03126
1298.00796	0.03110
1295.95415	0.03113
1293.90034	0.03100
1291.84653	0.03066
1289.79272	0.03034
1287.73891	0.03020
1285.68510	0.03021
1283.63129	0.03025
1281.57748	0.03030
1279.52367	0.03040
1277.46986	0.03059
1275.41605	0.03086
1273.36224	0.03118
1271.30843	0.03151
1269.25462	0.03183
1267.20081	0.03218
1265.14700	0.03263
1263.09319	0.03328
1261.03938	0.03423
1258.98557	0.03560
1256.93176	0.03708
1254.87795	0.03786
1252.82414	0.03762
1250.77033	0.03703
1248.71652	0.03680
1246.66271	0.03693
1244.60890	0.03716
1242.55509	0.03735
1240.50128	0.03758
1238.44747	0.03790
1236.39366	0.03826
1234.33985	0.03855
1232.28604	0.03869
1230.23223	0.03882
1228.17842	0.03916
1226.12461	0.03963
1224.07080	0.04013
1222.01699	0.04068
1219.96318	0.04120
1217.90937	0.04153
1215.85556	0.04165
1213.80175	0.04159
1211.74794	0.04141
1209.69413	0.04132
1207.64032	0.04133
1205.58651	0.04125
1203.53270	0.04113
1201.47889	0.04120
1199.42508	0.04142
1197.37127	0.04163
1195.31746	0.04176
1193.26365	0.04182
1191.20984	0.04198
1189.15603	0.04225
1187.10222	0.04258
1185.04841	0.04296
1182.99460	0.04337
1180.94079	0.04370
1178.88698	0.04410
1176.83317	0.04500
1174.77936	0.04697
1172.72555	0.05047
1170.67174	0.05515
1168.61793	0.05933
1166.56412	0.06072
1164.51031	0.05895
1162.45650	0.05590
1160.40269	0.05334
1158.34888	0.05168
1156.29507	0.05072
1154.24126	0.05024
1152.18745	0.04987
1150.13364	0.04930
1148.07983	0.04858
1146.02602	0.04786
1143.97221	0.04724
1141.91840	0.04690
1139.86459	0.04686
1137.81078	0.04698
1135.75697	0.04716
1133.70316	0.04733
1131.64935	0.04752
1129.59554	0.04780
1127.54173	0.04812
1125.48792	0.04853
1123.43411	0.04904
1121.38030	0.04957
1119.32649	0.05008
1117.27268	0.05059
1115.21887	0.05110
1113.16506	0.05160
1111.11125	0.05223
1109.05744	0.05312
1107.00363	0.05420
1104.94982	0.05534
1102.89601	0.05624
1100.84220	0.05655
1098.78839	0.05642
1096.73458	0.05627
1094.68077	0.05629
1092.62696	0.05633
1090.57315	0.05627
1088.51934	0.05634
1086.46553	0.05657
1084.41172	0.05674
1082.35791	0.05686
1080.30410	0.05700
1078.25029	0.05715
1076.19648	0.05731
1074.14267	0.05737
1072.08886	0.05728
1070.03505	0.05712
1067.98124	0.05702
1065.92743	0.05703
1063.87362	0.05712
1061.81981	0.05716
1059.76600	0.05708
1057.71219	0.05707
1055.65838	0.05729
1053.60457	0.05758
1051.55076	0.05794
1049.49695	0.05853
1047.44314	0.05927
1045.38933	0.05997
1043.33552	0.06026
1041.28171	0.05995
1039.22790	0.05936
1037.17409	0.05885
1035.12028	0.05829
1033.06647	0.05754
1031.01265	0.05679
1028.95884	0.05615
1026.90503	0.05551
1024.85122	0.05486
1022.79741	0.05429
1020.74360	0.05374
1018.68979	0.05308
1016.63598	0.05245
1014.58217	0.05201
1012.52836	0.05151
1010.47455	0.05104
1008.42074	0.05089
1006.36693	0.05119
1004.31312	0.05253
1002.25931	0.05620
1000.20550	0.06234
998.15169	0.06721
996.09788	0.06623
994.04407	0.06038
991.99026	0.05422
989.93645	0.05001
987.88264	0.04754
985.82883	0.04608
983.77502	0.04539
981.72121	0.04567
979.66740	0.04716
977.61359	0.05038
975.55978	0.05576
973.50597	0.06116
971.45216	0.06197
969.39835	0.05703
967.34454	0.05057
965.29073	0.04608
963.23692	0.04361
961.18311	0.04210
959.12930	0.04096
957.07549	0.04024
955.02168	0.04001
952.96787	0.03996
950.91406	0.03991
948.86025	0.03984
946.80644	0.03983
944.75263	0.04007
942.69882	0.04045
940.64501	0.04063
938.59120	0.04035
936.53739	0.03955
934.48358	0.03854
932.42977	0.03770
930.37596	0.03704
928.32215	0.03648
926.26834	0.03601
924.21453	0.03562
922.16072	0.03534
920.10691	0.03529
918.05310	0.03538
915.99929	0.03533
913.94548	0.03511
911.89167	0.03490
909.83786	0.03475
907.78405	0.03474
905.73024	0.03520
903.67643	0.03651
901.62262	0.03843
899.56881	0.03963
897.51500	0.03893
895.46119	0.03683
893.40738	0.03469
891.35357	0.03322
889.29976	0.03228
887.24595	0.03162
885.19214	0.03121
883.13833	0.03096
881.08452	0.03067
879.03071	0.03024
876.97690	0.02977
874.92309	0.02962
872.86928	0.02969
870.81547	0.02960
868.76166	0.02955
866.70785	0.02958
864.65404	0.02942
862.60023	0.02922
860.54642	0.02907
858.49261	0.02878
856.43880	0.02863
854.38499	0.02889
852.33118	0.02923
850.27737	0.02959
848.22356	0.03067
846.16975	0.03352
844.11594	0.03987
842.06213	0.04834
840.00832	0.05124
837.95451	0.04544
835.90070	0.03803
833.84689	0.03407
831.79308	0.03251
829.73927	0.03172
827.68546	0.03105
825.63165	0.03053
823.57784	0.03036
821.52403	0.03035
819.47022	0.03023
817.41641	0.03035
815.36260	0.03138
813.30879	0.03364
811.25498	0.03649
809.20117	0.03821
807.14736	0.03760
805.09355	0.03558
803.03974	0.03370
800.98593	0.03232
798.93212	0.03119
796.87831	0.03043
794.82450	0.03025
792.77069	0.03028
790.71688	0.03020
788.66307	0.02994
786.60926	0.02954
784.55545	0.02917
782.50164	0.02900
780.44783	0.02904
778.39402	0.02900
776.34021	0.02875
774.28640	0.02849
772.23259	0.02838
770.17878	0.02855
768.12497	0.02871
766.07116	0.02850
764.01735	0.02818
761.96354	0.02808
759.90973	0.02811
757.85592	0.02805
755.80211	0.02784
753.74830	0.02752
751.69449	0.02712
749.64068	0.02694
747.58687	0.02711
745.53306	0.02726
743.47925	0.02718
741.42544	0.02713
739.37163	0.02716
737.31781	0.02714
735.26400	0.02718
733.21019	0.02742
731.15638	0.02753
729.10257	0.02740
727.04876	0.02741
724.99495	0.02766
722.94114	0.02799
720.88733	0.02829
718.83352	0.02839
716.77971	0.02821
714.72590	0.02799
712.67209	0.02805
710.61828	0.02835
708.56447	0.02854
706.51066	0.02863
704.45685	0.02878
702.40304	0.02910
700.34923	0.02960
698.29542	0.02987
696.24161	0.02983
694.18780	0.02982
692.13399	0.02995
690.08018	0.03013
688.02637	0.03017
685.97256	0.02998
683.91875	0.02981
681.86494	0.02993
679.81113	0.03020
677.75732	0.03060
675.70351	0.03094
673.64970	0.03075
671.59589	0.03025
669.54208	0.03002
667.48827	0.03042
665.43446	0.03096
663.38065	0.03120
661.32684	0.03134
659.27303	0.03156
657.21922	0.03180
655.16541	0.03211
653.11160	0.03230
651.05779	0.03213
649.00398	0.03201
646.95017	0.03217
644.89636	0.03240
642.84255	0.03265
640.78874	0.03295
638.73493	0.03311
636.68112	0.03313
634.62731	0.03332
632.57350	0.03366
630.51969	0.03417
628.46588	0.03502
626.41207	0.03570
624.35826	0.03576
622.30445	0.03559
620.25064	0.03560
618.19683	0.03551
616.14302	0.03551
614.08921	0.03608
612.03540	0.03644
609.98159	0.03613
607.92778	0.03587
605.87397	0.03590
603.82016	0.03587
601.76635	0.03609
599.71254	0.03663
597.65873	0.03688
595.60492	0.03693
593.55111	0.03715
591.49730	0.03733
589.44349	0.03743
587.38968	0.03756
585.33587	0.03793
583.28206	0.03857
581.22825	0.03913
579.17444	0.03945
577.12063	0.03943
575.06682	0.03923
573.01301	0.03914
570.95920	0.03937
568.90539	0.04049
566.85158	0.04175
564.79777	0.04181
562.74396	0.04153
560.69015	0.04192
558.63634	0.04234
556.58253	0.04238
554.52872	0.04250
552.47491	0.04309
550.42110	0.04347
548.36729	0.04310
546.31348	0.04287
544.25967	0.04348
542.20586	0.04418
540.15205	0.04413
538.09824	0.04378
536.04443	0.04394
533.99062	0.04481
531.93681	0.04605
529.88300	0.04687
527.82919	0.04665
525.77538	0.04588
523.72157	0.04572
521.66776	0.04605
519.61395	0.04622
517.56014	0.04612
515.50633	0.04530
513.45252	0.04395
511.39871	0.04304
509.34490	0.04270
507.29109	0.04224
505.23728	0.04177
503.18347	0.04190
501.12966	0.04238
499.07585	0.04287
497.02204	0.04323
494.96823	0.04339
492.91442	0.04344
490.86061	0.04387
488.80680	0.04483
486.75299	0.04570
484.69918	0.04617
482.64537	0.04647
480.59156	0.04744
478.53775	0.04863
476.48394	0.04942
474.43013	0.05091
472.37632	0.05274
470.32251	0.05326
468.26870	0.05282
466.21489	0.05235
464.16108	0.05234
462.10727	0.05287
460.05346	0.05330
457.99965	0.05244
455.94584	0.05031
453.89203	0.04860
451.83822	0.04782
449.78441	0.04742
447.73060	0.04644
445.67679	0.04465
443.62298	0.04327
441.56916	0.04305
439.51535	0.04330
437.46154	0.04366
435.40773	0.04371
433.35392	0.04300
431.30011	0.04207
429.24630	0.04110
427.19249	0.04032
425.13868	0.04067
423.08487	0.04161
421.03106	0.04133
418.97725	0.03979
416.92344	0.03863
414.86963	0.03733
412.81582	0.03580
410.76201	0.03529
408.70820	0.03593
406.65439	0.03706
404.60058	0.03848
402.54677	0.04000
400.49296	0.03978
398.43915	0.03728
