3996.70104	0.99659
3994.64724	0.99630
3992.59344	0.99602
3990.53964	0.99623
3988.48583	0.99687
3986.43203	0.99725
3984.37823	0.99687
3982.32442	0.99624
3980.27062	0.99603
3978.21682	0.99635
3976.16301	0.99686
3974.10921	0.99681
3972.05541	0.99617
3970.00160	0.99590
3967.94780	0.99608
3965.89400	0.99619
3963.84019	0.99659
3961.78639	0.99723
3959.73259	0.99742
3957.67878	0.99738
3955.62498	0.99722
3953.57118	0.99681
3951.51737	0.99646
3949.46357	0.99616
3947.40977	0.99616
3945.35596	0.99636
3943.30216	0.99619
3941.24836	0.99611
3939.19455	0.99632
3937.14075	0.99648
3935.08695	0.99664
3933.03315	0.99669
3930.97934	0.99639
3928.92554	0.99611
3926.87174	0.99610
3924.81793	0.99626
3922.76413	0.99627
3920.71033	0.99606
3918.65652	0.99606
3916.60272	0.99622
3914.54892	0.99637
3912.49511	0.99657
3910.44131	0.99661
3908.38751	0.99650
3906.33370	0.99641
3904.27990	0.99620
3902.22610	0.99587
3900.17229	0.99631
3898.11849	0.99697
3896.06469	0.99667
3894.01088	0.99627
3891.95708	0.99636
3889.90328	0.99630
3887.84947	0.99606
3885.79567	0.99626
3883.74187	0.99692
3881.68807	0.99690
3879.63426	0.99605
3877.58046	0.99585
3875.52666	0.99624
3873.47285	0.99616
3871.41905	0.99592
3869.36525	0.99650
3867.31144	0.99735
3865.25764	0.99781
3863.20384	0.99783
3861.15003	0.99731
3859.09623	0.99688
3857.04243	0.99695
3854.98862	0.99749
3852.93482	0.99824
3850.88102	0.99802
3848.82721	0.99729
3846.77341	0.99669
3844.71961	0.99637
3842.66580	0.99664
3840.61200	0.99689
3838.55820	0.99645
3836.50439	0.99632
3834.45059	0.99637
3832.39679	0.99608
3830.34298	0.99618
3828.28918	0.99662
3826.23538	0.99656
3824.18158	0.99606
3822.12777	0.99580
3820.07397	0.99635
3818.02017	0.99714
3815.96636	0.99691
3813.91256	0.99643
3811.85876	0.99677
3809.80495	0.99686
3807.75115	0.99602
3805.69735	0.99511
3803.64354	0.99490
3801.58974	0.99544
3799.53594	0.99613
3797.48213	0.99601
3795.42833	0.99607
3793.37453	0.99698
3791.32072	0.99734
3789.26692	0.99666
3787.21312	0.99615
3785.15931	0.99622
3783.10551	0.99620
3781.05171	0.99582
3778.99790	0.99554
3776.94410	0.99602
3774.89030	0.99672
3772.83650	0.99673
3770.78269	0.99621
3768.72889	0.99600
3766.67509	0.99597
3764.62128	0.99565
3762.56748	0.99550
3760.51368	0.99542
3758.45987	0.99492
3756.40607	0.99450
3754.35227	0.99467
3752.29846	0.99546
3750.24466	0.99615
3748.19086	0.99599
3746.13705	0.99569
3744.08325	0.99583
3742.02945	0.99660
3739.97564	0.99731
3737.92184	0.99787
3735.86804	0.99803
3733.81423	0.99737
3731.76043	0.99641
3729.70663	0.99554
3727.65282	0.99506
3725.59902	0.99512
3723.54522	0.99573
3721.49141	0.99649
3719.43761	0.99681
3717.38381	0.99646
3715.33001	0.99589
3713.27620	0.99569
3711.22240	0.99568
3709.16860	0.99568
3707.11479	0.99608
3705.06099	0.99667
3703.00719	0.99669
3700.95338	0.99575
3698.89958	0.99526
3696.84578	0.99580
3694.79197	0.99637
3692.73817	0.99668
3690.68437	0.99674
3688.63056	0.99606
3686.57676	0.99594
3684.52296	0.99650
3682.46915	0.99597
3680.41535	0.99463
3678.36155	0.99438
3676.30774	0.99506
3674.25394	0.99536
3672.20014	0.99543
3670.14633	0.99575
3668.09253	0.99663
3666.03873	0.99719
3663.98492	0.99663
3661.93112	0.99553
3659.87732	0.99516
3657.82352	0.99542
3655.76971	0.99582
3653.71591	0.99620
3651.66211	0.99639
3649.60830	0.99693
3647.55450	0.99753
3645.50070	0.99726
3643.44689	0.99664
3641.39309	0.99634
3639.33929	0.99678
3637.28548	0.99737
3635.23168	0.99702
3633.17788	0.99611
3631.12407	0.99613
3629.07027	0.99707
3627.01647	0.99694
3624.96266	0.99623
3622.90886	0.99642
3620.85506	0.99683
3618.80125	0.99627
3616.74745	0.99560
3614.69365	0.99535
3612.63984	0.99478
3610.58604	0.99439
3608.53224	0.99512
3606.47844	0.99654
3604.42463	0.99718
3602.37083	0.99680
3600.31703	0.99632
3598.26322	0.99588
3596.20942	0.99520
3594.15562	0.99494
3592.10181	0.99529
3590.04801	0.99556
3587.99421	0.99526
3585.94040	0.99433
3583.88660	0.99397
3581.83280	0.99422
3579.77899	0.99436
3577.72519	0.99449
3575.67139	0.99454
3573.61758	0.99464
3571.56378	0.99505
3569.50998	0.99559
3567.45617	0.99624
3565.40237	0.99652
3563.34857	0.99591
3561.29476	0.99480
3559.24096	0.99415
3557.18716	0.99435
3555.13335	0.99488
3553.07955	0.99515
3551.02575	0.99497
3548.97195	0.99459
3546.91814	0.99390
3544.86434	0.99338
3542.81054	0.99352
3540.75673	0.99401
3538.70293	0.99472
3536.64913	0.99505
3534.59532	0.99475
3532.54152	0.99435
3530.48772	0.99415
3528.43391	0.99457
3526.38011	0.99508
3524.32631	0.99476
3522.27250	0.99434
3520.21870	0.99448
3518.16490	0.99443
3516.11109	0.99388
3514.05729	0.99370
3512.00349	0.99417
3509.94968	0.99461
3507.89588	0.99456
3505.84208	0.99436
3503.78827	0.99463
3501.73447	0.99512
3499.68067	0.99498
3497.62687	0.99454
3495.57306	0.99453
3493.51926	0.99456
3491.46546	0.99439
3489.41165	0.99415
3487.35785	0.99373
3485.30405	0.99365
3483.25024	0.99431
3481.19644	0.99499
3479.14264	0.99507
3477.08883	0.99483
3475.03503	0.99470
3472.98123	0.99455
3470.92742	0.99420
3468.87362	0.99369
3466.81982	0.99349
3464.76601	0.99398
3462.71221	0.99435
3460.65841	0.99420
3458.60460	0.99409
3456.55080	0.99420
3454.49700	0.99428
3452.44319	0.99416
3450.38939	0.99396
3448.33559	0.99393
3446.28178	0.99396
3444.22798	0.99377
3442.17418	0.99372
3440.12038	0.99423
3438.06657	0.99494
3436.01277	0.99524
3433.95897	0.99500
3431.90516	0.99462
3429.85136	0.99432
3427.79756	0.99405
3425.74375	0.99383
3423.68995	0.99395
3421.63615	0.99448
3419.58234	0.99467
3417.52854	0.99418
3415.47474	0.99377
3413.42093	0.99343
3411.36713	0.99310
3409.31333	0.99319
3407.25952	0.99329
3405.20572	0.99341
3403.15192	0.99379
3401.09811	0.99414
3399.04431	0.99405
3396.99051	0.99341
3394.93670	0.99307
3392.88290	0.99350
3390.82910	0.99384
3388.77529	0.99373
3386.72149	0.99361
3384.66769	0.99348
3382.61389	0.99307
3380.56008	0.99260
3378.50628	0.99255
3376.45248	0.99287
3374.39867	0.99313
3372.34487	0.99336
3370.29107	0.99366
3368.23726	0.99346
3366.18346	0.99283
3364.12966	0.99263
3362.07585	0.99301
3360.02205	0.99296
3357.96825	0.99212
3355.91444	0.99164
3353.86064	0.99175
3351.80684	0.99165
3349.75303	0.99183
3347.69923	0.99272
3345.64543	0.99351
3343.59162	0.99372
3341.53782	0.99350
3339.48402	0.99320
3337.43021	0.99344
3335.37641	0.99409
3333.32261	0.99398
3331.26881	0.99317
3329.21500	0.99277
3327.16120	0.99290
3325.10740	0.99320
3323.05359	0.99342
3320.99979	0.99354
3318.94599	0.99380
3316.89218	0.99394
3314.83838	0.99366
3312.78458	0.99343
3310.73077	0.99343
3308.67697	0.99310
3306.62317	0.99238
3304.56936	0.99191
3302.51556	0.99176
3300.46176	0.99213
3298.40795	0.99316
3296.35415	0.99367
3294.30035	0.99353
3292.24654	0.99381
3290.19274	0.99404
3288.13894	0.99355
3286.08513	0.99295
3284.03133	0.99270
3281.97753	0.99255
3279.92372	0.99257
3277.86992	0.99317
3275.81612	0.99377
3273.76232	0.99404
3271.70851	0.99409
3269.65471	0.99364
3267.60091	0.99299
3265.54710	0.99264
3263.49330	0.99261
3261.43950	0.99292
3259.38569	0.99327
3257.33189	0.99336
3255.27809	0.99314
3253.22428	0.99288
3251.17048	0.99315
3249.11668	0.99362
3247.06287	0.99359
3245.00907	0.99340
3242.95527	0.99364
3240.90146	0.99411
3238.84766	0.99414
3236.79386	0.99354
3234.74005	0.99299
3232.68625	0.99326
3230.63245	0.99402
3228.57864	0.99424
3226.52484	0.99373
3224.47104	0.99340
3222.41724	0.99380
3220.36343	0.99445
3218.30963	0.99465
3216.25583	0.99435
3214.20202	0.99397
3212.14822	0.99379
3210.09442	0.99384
3208.04061	0.99383
3205.98681	0.99361
3203.93301	0.99369
3201.87920	0.99404
3199.82540	0.99415
3197.77160	0.99386
3195.71779	0.99377
3193.66399	0.99383
3191.61019	0.99344
3189.55638	0.99319
3187.50258	0.99360
3185.44878	0.99383
3183.39497	0.99371
3181.34117	0.99370
3179.28737	0.99389
3177.23356	0.99422
3175.17976	0.99461
3173.12596	0.99477
3171.07215	0.99454
3169.01835	0.99431
3166.96455	0.99439
3164.91075	0.99450
3162.85694	0.99435
3160.80314	0.99371
3158.74934	0.99312
3156.69553	0.99367
3154.64173	0.99454
3152.58793	0.99423
3150.53412	0.99348
3148.48032	0.99333
3146.42652	0.99348
3144.37271	0.99383
3142.31891	0.99441
3140.26511	0.99448
3138.21130	0.99420
3136.15750	0.99457
3134.10370	0.99529
3132.04989	0.99551
3129.99609	0.99526
3127.94229	0.99516
3125.88848	0.99521
3123.83468	0.99523
3121.78088	0.99522
3119.72707	0.99491
3117.67327	0.99457
3115.61947	0.99451
3113.56566	0.99427
3111.51186	0.99401
3109.45806	0.99422
3107.40426	0.99463
3105.35045	0.99485
3103.29665	0.99514
3101.24285	0.99560
3099.18904	0.99564
3097.13524	0.99520
3095.08144	0.99487
3093.02763	0.99483
3090.97383	0.99483
3088.92003	0.99475
3086.86622	0.99463
3084.81242	0.99457
3082.75862	0.99464
3080.70481	0.99466
3078.65101	0.99488
3076.59721	0.99535
3074.54340	0.99532
3072.48960	0.99477
3070.43580	0.99429
3068.38199	0.99412
3066.32819	0.99434
3064.27439	0.99467
3062.22058	0.99497
3060.16678	0.99531
3058.11298	0.99545
3056.05918	0.99547
3054.00537	0.99555
3051.95157	0.99546
3049.89777	0.99499
3047.84396	0.99459
3045.79016	0.99446
3043.73636	0.99459
3041.68255	0.99486
3039.62875	0.99474
3037.57495	0.99455
3035.52114	0.99509
3033.46734	0.99573
3031.41354	0.99559
3029.35973	0.99530
3027.30593	0.99539
3025.25213	0.99528
3023.19832	0.99491
3021.14452	0.99490
3019.09072	0.99522
3017.03691	0.99510
3014.98311	0.99463
3012.92931	0.99456
3010.87550	0.99486
3008.82170	0.99529
3006.76790	0.99548
3004.71409	0.99527
3002.66029	0.99522
3000.60649	0.99527
2998.55269	0.99501
2996.49888	0.99456
2994.44508	0.99438
2992.39128	0.99454
2990.33747	0.99462
2988.28367	0.99444
2986.22987	0.99435
2984.17606	0.99459
2982.12226	0.99492
2980.06846	0.99531
2978.01465	0.99546
2975.96085	0.99522
2973.90705	0.99521
2971.85324	0.99552
2969.79944	0.99574
2967.74564	0.99584
2965.69183	0.99607
2963.63803	0.99629
2961.58423	0.99635
2959.53042	0.99623
2957.47662	0.99607
2955.42282	0.99605
2953.36901	0.99598
2951.31521	0.99551
2949.26141	0.99504
2947.20761	0.99511
2945.15380	0.99558
2943.10000	0.99617
2941.04620	0.99667
2938.99239	0.99681
2936.93859	0.99649
2934.88479	0.99623
2932.83098	0.99659
2930.77718	0.99747
2928.72338	0.99841
2926.66957	0.99888
2924.61577	0.99865
2922.56197	0.99797
2920.50816	0.99729
2918.45436	0.99704
2916.40056	0.99713
2914.34675	0.99716
2912.29295	0.99702
2910.23915	0.99688
2908.18534	0.99708
2906.13154	0.99731
2904.07774	0.99713
2902.02393	0.99670
2899.97013	0.99630
2897.91633	0.99616
2895.86252	0.99626
2893.80872	0.99626
2891.75492	0.99608
2889.70112	0.99607
2887.64731	0.99625
2885.59351	0.99627
2883.53971	0.99625
2881.48590	0.99633
2879.43210	0.99611
2877.37830	0.99563
2875.32449	0.99554
2873.27069	0.99578
2871.21689	0.99592
2869.16308	0.99608
2867.10928	0.99610
2865.05548	0.99598
2863.00167	0.99620
2860.94787	0.99660
2858.89407	0.99691
2856.84026	0.99706
2854.78646	0.99694
2852.73266	0.99692
2850.67885	0.99701
2848.62505	0.99671
2846.57125	0.99616
2844.51744	0.99573
2842.46364	0.99549
2840.40984	0.99548
2838.35603	0.99569
2836.30223	0.99597
2834.24843	0.99600
2832.19463	0.99571
2830.14082	0.99539
2828.08702	0.99525
2826.03322	0.99532
2823.97941	0.99551
2821.92561	0.99574
2819.87181	0.99589
2817.81800	0.99596
2815.76420	0.99590
2813.71040	0.99565
2811.65659	0.99539
2809.60279	0.99526
2807.54899	0.99518
2805.49518	0.99510
2803.44138	0.99499
2801.38758	0.99491
2799.33377	0.99496
2797.27997	0.99519
2795.22617	0.99555
2793.17236	0.99573
2791.11856	0.99566
2789.06476	0.99551
2787.01095	0.99543
2784.95715	0.99543
2782.90335	0.99542
2780.84955	0.99532
2778.79574	0.99507
2776.74194	0.99492
2774.68814	0.99505
2772.63433	0.99539
2770.58053	0.99588
2768.52673	0.99608
2766.47292	0.99590
2764.41912	0.99580
2762.36532	0.99582
2760.31151	0.99590
2758.25771	0.99592
2756.20391	0.99589
2754.15010	0.99600
2752.09630	0.99589
2750.04250	0.99540
2747.98869	0.99512
2745.93489	0.99532
2743.88109	0.99555
2741.82728	0.99536
2739.77348	0.99510
2737.71968	0.99516
2735.66587	0.99540
2733.61207	0.99583
2731.55827	0.99637
2729.50446	0.99649
2727.45066	0.99601
2725.39686	0.99556
2723.34306	0.99554
2721.28925	0.99561
2719.23545	0.99584
2717.18165	0.99615
2715.12784	0.99600
2713.07404	0.99568
2711.02024	0.99568
2708.96643	0.99580
2706.91263	0.99575
2704.85883	0.99556
2702.80502	0.99542
2700.75122	0.99546
2698.69742	0.99555
2696.64361	0.99566
2694.58981	0.99580
2692.53601	0.99580
2690.48220	0.99570
2688.42840	0.99581
2686.37460	0.99597
2684.32079	0.99592
2682.26699	0.99591
2680.21319	0.99599
2678.15938	0.99586
2676.10558	0.99550
2674.05178	0.99523
2671.99797	0.99509
2669.94417	0.99493
2667.89037	0.99488
2665.83657	0.99497
2663.78276	0.99507
2661.72896	0.99519
2659.67516	0.99512
2657.62135	0.99485
2655.56755	0.99486
2653.51375	0.99492
2651.45994	0.99472
2649.40614	0.99461
2647.35234	0.99469
2645.29853	0.99484
2643.24473	0.99491
2641.19093	0.99488
2639.13712	0.99500
2637.08332	0.99539
2635.02952	0.99578
2632.97571	0.99574
2630.92191	0.99537
2628.86811	0.99490
2626.81430	0.99453
2624.76050	0.99462
2622.70670	0.99503
2620.65289	0.99540
2618.59909	0.99545
2616.54529	0.99514
2614.49149	0.99478
2612.43768	0.99472
2610.38388	0.99500
2608.33008	0.99510
2606.27627	0.99500
2604.22247	0.99482
2602.16867	0.99434
2600.11486	0.99436
2598.06106	0.99521
2596.00726	0.99566
2593.95345	0.99557
2591.89965	0.99562
2589.84585	0.99536
2587.79204	0.99489
2585.73824	0.99491
2583.68444	0.99521
2581.63063	0.99539
2579.57683	0.99530
2577.52303	0.99529
2575.46922	0.99567
2573.41542	0.99585
2571.36162	0.99567
2569.30781	0.99542
2567.25401	0.99533
2565.20021	0.99529
2563.14640	0.99488
2561.09260	0.99454
2559.03880	0.99491
2556.98500	0.99538
2554.93119	0.99525
2552.87739	0.99515
2550.82359	0.99541
2548.76978	0.99551
2546.71598	0.99576
2544.66218	0.99626
2542.60837	0.99661
2540.55457	0.99654
2538.50077	0.99586
2536.44696	0.99534
2534.39316	0.99556
2532.33936	0.99579
2530.28555	0.99563
2528.23175	0.99569
2526.17795	0.99594
2524.12414	0.99612
2522.07034	0.99611
2520.01654	0.99561
2517.96273	0.99519
2515.90893	0.99539
2513.85513	0.99555
2511.80132	0.99543
2509.74752	0.99588
2507.69372	0.99647
2505.63992	0.99604
2503.58611	0.99580
2501.53231	0.99659
2499.47851	0.99694
2497.42470	0.99628
2495.37090	0.99552
2493.31710	0.99555
2491.26329	0.99620
2489.20949	0.99641
2487.15569	0.99611
2485.10188	0.99600
2483.04808	0.99627
2480.99428	0.99678
2478.94047	0.99697
2476.88667	0.99653
2474.83287	0.99629
2472.77906	0.99688
2470.72526	0.99731
2468.67146	0.99684
2466.61765	0.99613
2464.56385	0.99581
2462.51005	0.99564
2460.45624	0.99517
2458.40244	0.99500
2456.34864	0.99573
2454.29483	0.99646
2452.24103	0.99613
2450.18723	0.99559
2448.13343	0.99594
2446.07962	0.99617
2444.02582	0.99541
2441.97202	0.99482
2439.91821	0.99528
2437.86441	0.99574
2435.81061	0.99571
2433.75680	0.99601
2431.70300	0.99643
2429.64920	0.99626
2427.59539	0.99591
2425.54159	0.99600
2423.48779	0.99618
2421.43398	0.99616
2419.38018	0.99634
2417.32638	0.99667
2415.27257	0.99669
2413.21877	0.99621
2411.16497	0.99558
2409.11116	0.99548
2407.05736	0.99576
2405.00356	0.99586
2402.94975	0.99577
2400.89595	0.99588
2398.84215	0.99618
2396.78834	0.99675
2394.73454	0.99742
2392.68074	0.99734
2390.62694	0.99668
2388.57313	0.99621
2386.51933	0.99608
2384.46553	0.99636
2382.41172	0.99670
2380.35792	0.99669
2378.30412	0.99696
2376.25031	0.99769
2374.19651	0.99792
2372.14271	0.99737
2370.08890	0.99651
2368.03510	0.99572
2365.98130	0.99544
2363.92749	0.99596
2361.87369	0.99656
2359.81989	0.99663
2357.76608	0.99679
2355.71228	0.99695
2353.65848	0.99608
2351.60467	0.99501
2349.55087	0.99485
2347.49707	0.99499
2345.44326	0.99495
2343.38946	0.99513
2341.33566	0.99557
2339.28186	0.99592
2337.22805	0.99604
2335.17425	0.99578
2333.12045	0.99493
2331.06664	0.99390
2329.01284	0.99360
2326.95904	0.99385
2324.90523	0.99374
2322.85143	0.99354
2320.79763	0.99414
2318.74382	0.99491
2316.69002	0.99492
2314.63622	0.99471
2312.58241	0.99485
2310.52861	0.99488
2308.47481	0.99452
2306.42100	0.99424
2304.36720	0.99414
2302.31340	0.99396
2300.25959	0.99449
2298.20579	0.99559
2296.15199	0.99562
2294.09818	0.99460
2292.04438	0.99420
2289.99058	0.99491
2287.93677	0.99555
2285.88297	0.99557
2283.82917	0.99573
2281.77537	0.99604
2279.72156	0.99592
2277.66776	0.99516
2275.61396	0.99366
2273.56015	0.99295
2271.50635	0.99418
2269.45255	0.99565
2267.39874	0.99603
2265.34494	0.99534
2263.29114	0.99469
2261.23733	0.99565
2259.18353	0.99721
2257.12973	0.99761
2255.07592	0.99757
2253.02212	0.99764
2250.96832	0.99668
2248.91451	0.99495
2246.86071	0.99453
2244.80691	0.99576
2242.75310	0.99691
2240.69930	0.99713
2238.64550	0.99684
2236.59169	0.99626
2234.53789	0.99558
2232.48409	0.99583
2230.43029	0.99662
2228.37648	0.99596
2226.32268	0.99488
2224.26888	0.99526
2222.21507	0.99610
2220.16127	0.99657
2218.10747	0.99672
2216.05366	0.99682
2213.99986	0.99703
2211.94606	0.99635
2209.89225	0.99538
2207.83845	0.99571
2205.78465	0.99630
2203.73084	0.99618
2201.67704	0.99605
2199.62324	0.99537
2197.56943	0.99370
2195.51563	0.99250
2193.46183	0.99250
2191.40802	0.99378
2189.35422	0.99649
2187.30042	0.99883
2185.24661	0.99854
2183.19281	0.99704
2181.13901	0.99752
2179.08520	0.99970
2177.03140	1.00056
2174.97760	0.99973
2172.92380	0.99893
2170.86999	0.99869
2168.81619	0.99839
2166.76239	0.99664
2164.70858	0.99449
2162.65478	0.99317
2160.60098	0.99256
2158.54717	0.99366
2156.49337	0.99461
2154.43957	0.99654
2152.38576	1.00078
2150.33196	1.00271
2148.27816	1.00222
2146.22435	1.00151
2144.17055	0.99961
2142.11675	0.99699
2140.06294	0.99613
2138.00914	0.99916
2135.95534	1.00366
2133.90153	1.00458
2131.84773	1.00161
2129.79393	0.99852
2127.74012	0.99752
2125.68632	0.99727
2123.63252	0.99676
2121.57871	0.99687
2119.52491	0.99732
2117.47111	0.99689
2115.41731	0.99604
2113.36350	0.99559
2111.30970	0.99561
2109.25590	0.99639
2107.20209	0.99691
2105.14829	0.99602
2103.09449	0.99508
2101.04068	0.99558
2098.98688	0.99654
2096.93308	0.99657
2094.87927	0.99613
2092.82547	0.99566
2090.77167	0.99519
2088.71786	0.99553
2086.66406	0.99686
2084.61026	0.99785
2082.55645	0.99753
2080.50265	0.99653
2078.44885	0.99640
2076.39504	0.99744
2074.34124	0.99833
2072.28744	0.99830
2070.23363	0.99699
2068.17983	0.99522
2066.12603	0.99488
2064.07223	0.99555
2062.01842	0.99602
2059.96462	0.99641
2057.91082	0.99649
2055.85701	0.99654
2053.80321	0.99773
2051.74941	0.99800
2049.69560	0.99624
2047.64180	0.99565
2045.58800	0.99564
2043.53419	0.99428
2041.48039	0.99350
2039.42659	0.99426
2037.37278	0.99469
2035.31898	0.99379
2033.26518	0.99238
2031.21137	0.99282
2029.15757	0.99559
2027.10377	0.99685
2025.04996	0.99696
2022.99616	0.99732
2020.94236	0.99568
2018.88855	0.99387
2016.83475	0.99572
2014.78095	0.99850
2012.72714	0.99908
2010.67334	0.99908
2008.61954	0.99927
2006.56574	0.99927
2004.51193	0.99915
2002.45813	0.99839
2000.40433	0.99671
1998.35052	0.99708
1996.29672	0.99871
1994.24292	0.99713
1992.18911	0.99442
1990.13531	0.99457
1988.08151	0.99603
1986.02770	0.99701
1983.97390	0.99824
1981.92010	0.99818
1979.86629	0.99645
1977.81249	0.99611
1975.75869	0.99709
1973.70488	0.99713
1971.65108	0.99676
1969.59728	0.99698
1967.54347	0.99778
1965.48967	0.99920
1963.43587	1.00023
1961.38206	1.00053
1959.32826	1.00006
1957.27446	0.99807
1955.22066	0.99632
1953.16685	0.99657
1951.11305	0.99738
1949.05925	0.99844
1947.00544	0.99969
1944.95164	1.00050
1942.89784	1.00109
1940.84403	0.99992
1938.79023	0.99764
1936.73643	0.99693
1934.68262	0.99753
1932.62882	0.99786
1930.57502	0.99828
1928.52121	0.99872
1926.46741	0.99817
1924.41361	0.99783
1922.35980	0.99835
1920.30600	0.99852
1918.25220	0.99838
1916.19839	0.99847
1914.14459	0.99801
1912.09079	0.99697
1910.03698	0.99622
1907.98318	0.99672
1905.92938	0.99793
1903.87557	0.99790
1901.82177	0.99683
1899.76797	0.99651
1897.71417	0.99726
1895.66036	0.99774
1893.60656	0.99739
1891.55276	0.99700
1889.49895	0.99688
1887.44515	0.99662
1885.39135	0.99628
1883.33754	0.99638
1881.28374	0.99656
1879.22994	0.99660
1877.17613	0.99668
1875.12233	0.99654
1873.06853	0.99635
1871.01472	0.99616
1868.96092	0.99583
1866.90712	0.99586
1864.85331	0.99637
1862.79951	0.99673
1860.74571	0.99643
1858.69190	0.99630
1856.63810	0.99687
1854.58430	0.99697
1852.53049	0.99659
1850.47669	0.99706
1848.42289	0.99775
1846.36908	0.99700
1844.31528	0.99565
1842.26148	0.99556
1840.20768	0.99607
1838.15387	0.99637
1836.10007	0.99641
1834.04627	0.99604
1831.99246	0.99547
1829.93866	0.99579
1827.88486	0.99694
1825.83105	0.99731
1823.77725	0.99704
1821.72345	0.99699
1819.66964	0.99709
1817.61584	0.99745
1815.56204	0.99809
1813.50823	0.99821
1811.45443	0.99763
1809.40063	0.99732
1807.34682	0.99751
1805.29302	0.99745
1803.23922	0.99712
1801.18541	0.99684
1799.13161	0.99672
1797.07781	0.99679
1795.02400	0.99702
1792.97020	0.99718
1790.91640	0.99689
1788.86260	0.99676
1786.80879	0.99698
1784.75499	0.99685
1782.70119	0.99621
1780.64738	0.99579
1778.59358	0.99594
1776.53978	0.99611
1774.48597	0.99619
1772.43217	0.99672
1770.37837	0.99732
1768.32456	0.99739
1766.27076	0.99742
1764.21696	0.99760
1762.16315	0.99770
1760.10935	0.99742
1758.05555	0.99703
1756.00174	0.99727
1753.94794	0.99783
1751.89414	0.99785
1749.84033	0.99754
1747.78653	0.99775
1745.73273	0.99800
1743.67892	0.99781
1741.62512	0.99765
1739.57132	0.99782
1737.51751	0.99800
1735.46371	0.99820
1733.40991	0.99837
1731.35611	0.99832
1729.30230	0.99824
1727.24850	0.99802
1725.19470	0.99771
1723.14089	0.99753
1721.08709	0.99754
1719.03329	0.99782
1716.97948	0.99808
1714.92568	0.99787
1712.87188	0.99796
1710.81807	0.99830
1708.76427	0.99818
1706.71047	0.99773
1704.65666	0.99746
1702.60286	0.99771
1700.54906	0.99852
1698.49525	0.99859
1696.44145	0.99763
1694.38765	0.99694
1692.33384	0.99663
1690.28004	0.99637
1688.22624	0.99655
1686.17243	0.99747
1684.11863	0.99822
1682.06483	0.99754
1680.01103	0.99662
1677.95722	0.99640
1675.90342	0.99714
1673.84962	0.99785
1671.79581	0.99754
1669.74201	0.99704
1667.68821	0.99722
1665.63440	0.99755
1663.58060	0.99761
1661.52680	0.99729
1659.47299	0.99701
1657.41919	0.99693
1655.36539	0.99681
1653.31158	0.99685
1651.25778	0.99717
1649.20398	0.99735
1647.15017	0.99748
1645.09637	0.99744
1643.04257	0.99728
1640.98876	0.99722
1638.93496	0.99730
1636.88116	0.99739
1634.82735	0.99731
1632.77355	0.99718
1630.71975	0.99721
1628.66594	0.99722
1626.61214	0.99680
1624.55834	0.99609
1622.50454	0.99587
1620.45073	0.99603
1618.39693	0.99597
1616.34313	0.99598
1614.28932	0.99619
1612.23552	0.99619
1610.18172	0.99612
1608.12791	0.99619
1606.07411	0.99644
1604.02031	0.99679
1601.96650	0.99696
1599.91270	0.99693
1597.85890	0.99694
1595.80509	0.99706
1593.75129	0.99710
1591.69749	0.99701
1589.64368	0.99708
1587.58988	0.99745
1585.53608	0.99767
1583.48227	0.99749
1581.42847	0.99734
1579.37467	0.99735
1577.32086	0.99746
1575.26706	0.99767
1573.21326	0.99758
1571.15945	0.99744
1569.10565	0.99773
1567.05185	0.99816
1564.99805	0.99848
1562.94424	0.99874
1560.89044	0.99875
1558.83664	0.99813
1556.78283	0.99758
1554.72903	0.99738
1552.67523	0.99754
1550.62142	0.99823
1548.56762	0.99866
1546.51382	0.99866
1544.46001	0.99877
1542.40621	0.99870
1540.35241	0.99870
1538.29860	0.99871
1536.24480	0.99823
1534.19100	0.99788
1532.13719	0.99788
1530.08339	0.99790
1528.02959	0.99770
1525.97578	0.99742
1523.92198	0.99743
1521.86818	0.99782
1519.81437	0.99826
1517.76057	0.99851
1515.70677	0.99855
1513.65297	0.99830
1511.59916	0.99794
1509.54536	0.99786
1507.49156	0.99823
1505.43775	0.99829
1503.38395	0.99806
1501.33015	0.99797
1499.27634	0.99783
1497.22254	0.99778
1495.16874	0.99793
1493.11493	0.99778
1491.06113	0.99759
1489.00733	0.99785
1486.95352	0.99827
1484.89972	0.99842
1482.84592	0.99827
1480.79211	0.99809
1478.73831	0.99801
1476.68451	0.99809
1474.63070	0.99870
1472.57690	0.99932
1470.52310	0.99922
1468.46929	0.99888
1466.41549	0.99855
1464.36169	0.99851
1462.30788	0.99867
1460.25408	0.99886
1458.20028	0.99907
1456.14648	0.99897
1454.09267	0.99877
1452.03887	0.99867
1449.98507	0.99869
1447.93126	0.99902
1445.87746	0.99944
1443.82366	0.99949
1441.76985	0.99918
1439.71605	0.99885
1437.66225	0.99868
1435.60844	0.99871
1433.55464	0.99880
1431.50084	0.99899
1429.44703	0.99925
1427.39323	0.99918
1425.33943	0.99884
1423.28562	0.99865
1421.23182	0.99894
1419.17802	0.99940
1417.12421	0.99925
1415.07041	0.99887
1413.01661	0.99882
1410.96280	0.99894
1408.90900	0.99901
1406.85520	0.99907
1404.80139	0.99915
1402.74759	0.99902
1400.69379	0.99873
1398.63999	0.99864
1396.58618	0.99887
1394.53238	0.99904
1392.47858	0.99894
1390.42477	0.99881
1388.37097	0.99895
1386.31717	0.99923
1384.26336	0.99945
1382.20956	0.99963
1380.15576	0.99959
1378.10195	0.99936
1376.04815	0.99917
1373.99435	0.99906
1371.94054	0.99885
1369.88674	0.99847
1367.83294	0.99830
1365.77913	0.99854
1363.72533	0.99871
1361.67153	0.99865
1359.61772	0.99887
1357.56392	0.99905
1355.51012	0.99881
1353.45631	0.99855
1351.40251	0.99849
1349.34871	0.99841
1347.29491	0.99837
1345.24110	0.99850
1343.18730	0.99856
1341.13350	0.99839
1339.07969	0.99828
1337.02589	0.99836
1334.97209	0.99838
1332.91828	0.99835
1330.86448	0.99841
1328.81068	0.99843
1326.75687	0.99807
1324.70307	0.99756
1322.64927	0.99747
1320.59546	0.99768
1318.54166	0.99784
1316.48786	0.99805
1314.43405	0.99814
1312.38025	0.99790
1310.32645	0.99762
1308.27264	0.99752
1306.21884	0.99755
1304.16504	0.99752
1302.11123	0.99725
1300.05743	0.99683
1298.00363	0.99673
1295.94982	0.99677
1293.89602	0.99652
1291.84222	0.99618
1289.78842	0.99598
1287.73461	0.99569
1285.68081	0.99537
1283.62701	0.99530
1281.57320	0.99541
1279.51940	0.99532
1277.46560	0.99484
1275.41179	0.99423
1273.35799	0.99392
1271.30419	0.99400
1269.25038	0.99406
1267.19658	0.99371
1265.14278	0.99336
1263.08897	0.99330
1261.03517	0.99318
1258.98137	0.99286
1256.92756	0.99260
1254.87376	0.99260
1252.81996	0.99266
1250.76615	0.99243
1248.71235	0.99195
1246.65855	0.99146
1244.60474	0.99076
1242.55094	0.98978
1240.49714	0.98893
1238.44334	0.98842
1236.38953	0.98808
1234.33573	0.98769
1232.28193	0.98731
1230.22812	0.98669
1228.17432	0.98542
1226.12052	0.98383
1224.06671	0.98243
1222.01291	0.98086
1219.95911	0.97874
1217.90530	0.97613
1215.85150	0.97317
1213.79770	0.97037
1211.74389	0.96808
1209.69009	0.96600
1207.63629	0.96373
1205.58248	0.96116
1203.52868	0.95864
1201.47488	0.95644
1199.42107	0.95438
1197.36727	0.95238
1195.31347	0.95044
1193.25966	0.94841
1191.20586	0.94624
1189.15206	0.94438
1187.09825	0.94291
1185.04445	0.94121
1182.99065	0.93900
1180.93685	0.93634
1178.88304	0.93325
1176.82924	0.92976
1174.77544	0.92598
1172.72163	0.92204
1170.66783	0.91798
1168.61403	0.91406
1166.56022	0.91070
1164.50642	0.90852
1162.45262	0.90862
1160.39881	0.91127
1158.34501	0.91449
1156.29121	0.91565
1154.23740	0.91413
1152.18360	0.91124
1150.12980	0.90813
1148.07599	0.90499
1146.02219	0.90161
1143.96839	0.89818
1141.91458	0.89505
1139.86078	0.89214
1137.80698	0.88934
1135.75317	0.88658
1133.69937	0.88379
1131.64557	0.88092
1129.59176	0.87776
1127.53796	0.87466
1125.48416	0.87215
1123.43036	0.86981
1121.37655	0.86697
1119.32275	0.86382
1117.26895	0.86104
1115.21514	0.85868
1113.16134	0.85625
1111.10754	0.85352
1109.05373	0.85077
1106.99993	0.84780
1104.94613	0.84428
1102.89232	0.84073
1100.83852	0.83776
1098.78472	0.83502
1096.73091	0.83208
1094.67711	0.82893
1092.62331	0.82569
1090.56950	0.82285
1088.51570	0.82070
1086.46190	0.81912
1084.40809	0.81830
1082.35429	0.81823
1080.30049	0.81892
1078.24668	0.82050
1076.19288	0.82256
1074.13908	0.82472
1072.08528	0.82673
1070.03147	0.82854
1067.97767	0.83014
1065.92387	0.83100
1063.87006	0.83125
1061.81626	0.83166
1059.76246	0.83245
1057.70865	0.83366
1055.65485	0.83533
1053.60105	0.83731
1051.54724	0.83947
1049.49344	0.84168
1047.43964	0.84377
1045.38583	0.84570
1043.33203	0.84726
1041.27823	0.84840
1039.22442	0.84956
1037.17062	0.85090
1035.11682	0.85223
1033.06301	0.85340
1031.00921	0.85444
1028.95541	0.85551
1026.90160	0.85656
1024.84780	0.85747
1022.79400	0.85849
1020.74019	0.85966
1018.68639	0.86040
1016.63259	0.86065
1014.57879	0.86086
1012.52498	0.86127
1010.47118	0.86196
1008.41738	0.86298
1006.36357	0.86399
1004.30977	0.86454
1002.25597	0.86522
1000.20216	0.86633
998.14836	0.86730
996.09456	0.86800
994.04075	0.86851
991.98695	0.86893
989.93315	0.86953
987.87934	0.87027
985.82554	0.87108
983.77174	0.87202
981.71793	0.87307
979.66413	0.87425
977.61033	0.87529
975.55652	0.87612
973.50272	0.87693
971.44892	0.87779
969.39511	0.87895
967.34131	0.88022
965.28751	0.88122
963.23371	0.88220
961.17990	0.88356
959.12610	0.88526
957.07230	0.88689
955.01849	0.88829
952.96469	0.88956
950.91089	0.89079
948.85708	0.89202
946.80328	0.89323
944.74948	0.89447
942.69567	0.89589
940.64187	0.89714
938.58807	0.89820
936.53426	0.89959
934.48046	0.90114
932.42666	0.90269
930.37285	0.90416
928.31905	0.90525
926.26525	0.90644
924.21144	0.90802
922.15764	0.90985
920.10384	0.91179
918.05003	0.91354
915.99623	0.91492
913.94243	0.91592
911.88862	0.91677
909.83482	0.91783
907.78102	0.91943
905.72722	0.92157
903.67341	0.92379
901.61961	0.92545
899.56581	0.92650
897.51200	0.92758
895.45820	0.92884
893.40440	0.93007
891.35059	0.93120
889.29679	0.93211
887.24299	0.93330
885.18918	0.93508
883.13538	0.93709
881.08158	0.93884
879.02777	0.94006
876.97397	0.94097
874.92017	0.94197
872.86636	0.94323
870.81256	0.94439
868.75876	0.94538
866.70495	0.94696
864.65115	0.94877
862.59735	0.94980
860.54354	0.95060
858.48974	0.95223
856.43594	0.95483
854.38213	0.95717
852.32833	0.95845
850.27453	0.95952
848.22073	0.96085
846.16692	0.96233
844.11312	0.96351
842.05932	0.96426
840.00551	0.96510
837.95171	0.96614
835.89791	0.96697
833.84410	0.96733
831.79030	0.96776
829.73650	0.96859
827.68269	0.96929
825.62889	0.96943
823.57509	0.96887
821.52128	0.96772
819.46748	0.96667
817.41368	0.96525
815.35987	0.96219
813.30607	0.95789
811.25227	0.95206
809.19846	0.94305
807.14466	0.93033
805.09086	0.91521
803.03705	0.90014
800.98325	0.88734
798.92945	0.87836
796.87565	0.87460
794.82184	0.87594
792.76804	0.87947
790.71424	0.88186
788.66043	0.88209
786.60663	0.87971
784.55283	0.87415
782.49902	0.86694
780.44522	0.86085
778.39142	0.85796
776.33761	0.85890
774.28381	0.86291
772.23001	0.86821
770.17620	0.87336
768.12240	0.87842
766.06860	0.88325
764.01479	0.88728
761.96099	0.89132
759.90719	0.89538
757.85338	0.89844
755.79958	0.90112
753.74578	0.90430
751.69197	0.90740
749.63817	0.90970
747.58437	0.91163
745.53056	0.91387
743.47676	0.91634
741.42296	0.91930
739.36916	0.92266
737.31535	0.92567
735.26155	0.92817
733.20775	0.93003
731.15394	0.93144
729.10014	0.93282
727.04634	0.93494
724.99253	0.93789
722.93873	0.93992
720.88493	0.94060
718.83112	0.94116
716.77732	0.94231
714.72352	0.94385
712.66971	0.94527
710.61591	0.94644
708.56211	0.94717
706.50830	0.94716
704.45450	0.94639
702.40070	0.94433
700.34689	0.93910
698.29309	0.92971
696.23929	0.91900
694.18548	0.91320
692.13168	0.91514
690.07788	0.92078
688.02408	0.92571
685.97027	0.92931
683.91647	0.93283
681.86267	0.93673
679.80886	0.93978
677.75506	0.94124
675.70126	0.94191
673.64745	0.94260
671.59365	0.94320
669.53985	0.94367
667.48604	0.94480
665.43224	0.94633
663.37844	0.94746
661.32463	0.94813
659.27083	0.94873
657.21703	0.94970
655.16322	0.95095
653.10942	0.95249
651.05562	0.95407
649.00181	0.95460
646.94801	0.95429
644.89421	0.95484
642.84040	0.95625
640.78660	0.95717
638.73280	0.95704
636.67899	0.95663
634.62519	0.95703
632.57139	0.95793
630.51759	0.95841
628.46378	0.95879
626.40998	0.96002
624.35618	0.96191
622.30237	0.96339
620.24857	0.96407
618.19477	0.96451
616.14096	0.96490
614.08716	0.96482
612.03336	0.96498
609.97955	0.96626
607.92575	0.96792
605.87195	0.96966
603.81814	0.97179
601.76434	0.97376
599.71054	0.97565
597.65673	0.97706
595.60293	0.97747
593.54913	0.97746
591.49532	0.97657
589.44152	0.97550
587.38772	0.97652
585.33391	0.97919
583.28011	0.98039
581.22631	0.97962
579.17250	0.97879
577.11870	0.97743
575.06490	0.97574
573.01110	0.97599
570.95729	0.97787
568.90349	0.98026
566.84969	0.98218
564.79588	0.98179
562.74208	0.97873
560.68828	0.97515
558.63447	0.97347
556.58067	0.97244
554.52687	0.97051
552.47306	0.96927
550.41926	0.96803
548.36546	0.96467
546.31165	0.96069
544.25785	0.95756
542.20405	0.95316
540.15024	0.94660
538.09644	0.93979
536.04264	0.93270
533.98883	0.92364
531.93503	0.91426
529.88123	0.90728
527.82742	0.90216
525.77362	0.89685
523.71982	0.89146
521.66602	0.88746
519.61221	0.88554
517.55841	0.88590
515.50461	0.88694
513.45080	0.88766
511.39700	0.88841
509.34320	0.88797
507.28939	0.88421
505.23559	0.87538
503.18179	0.86296
501.12798	0.85148
499.07418	0.84251
497.02038	0.83375
494.96657	0.82418
492.91277	0.81470
490.85897	0.80783
488.80516	0.80300
486.75136	0.79598
484.69756	0.78777
482.64375	0.78095
480.58995	0.77320
478.53615	0.76455
476.48234	0.75849
474.42854	0.75514
472.37474	0.74920
470.32093	0.73976
468.26713	0.73070
466.21333	0.72188
464.15953	0.71548
462.10572	0.71296
460.05192	0.71070
457.99812	0.70769
455.94431	0.70777
453.89051	0.71024
451.83671	0.71293
449.78290	0.71605
447.72910	0.71961
445.67530	0.72394
443.62149	0.72790
441.56769	0.73169
439.51389	0.73639
437.46008	0.74256
435.40628	0.75055
433.35248	0.75595
431.29867	0.75771
429.24487	0.76107
427.19107	0.76541
425.13726	0.76756
423.08346	0.76979
421.02966	0.77500
418.97585	0.78668
416.92205	0.80340
414.86825	0.81513
412.81445	0.82297
410.76064	0.83564
408.70684	0.85336
406.65304	0.86463
404.59923	0.86303
402.54543	0.84701
400.49163	0.81588
398.43782	0.77282
