3996.70104	0.97602
3994.64724	0.97572
3992.59344	0.97586
3990.53964	0.97635
3988.48583	0.97687
3986.43203	0.97736
3984.37823	0.97763
3982.32442	0.97755
3980.27062	0.97748
3978.21682	0.97729
3976.16301	0.97701
3974.10921	0.97699
3972.05541	0.97725
3970.00160	0.97776
3967.94780	0.97783
3965.89400	0.97741
3963.84019	0.97721
3961.78639	0.97704
3959.73259	0.97656
3957.67878	0.97621
3955.62498	0.97630
3953.57118	0.97657
3951.51737	0.97707
3949.46357	0.97785
3947.40977	0.97808
3945.35596	0.97777
3943.30216	0.97748
3941.24836	0.97735
3939.19455	0.97747
3937.14075	0.97732
3935.08695	0.97667
3933.03315	0.97641
3930.97934	0.97710
3928.92554	0.97813
3926.87174	0.97895
3924.81793	0.97905
3922.76413	0.97822
3920.71033	0.97742
3918.65652	0.97717
3916.60272	0.97718
3914.54892	0.97728
3912.49511	0.97725
3910.44131	0.97732
3908.38751	0.97780
3906.33370	0.97831
3904.27990	0.97840
3902.22610	0.97786
3900.17229	0.97732
3898.11849	0.97725
3896.06469	0.97711
3894.01088	0.97708
3891.95708	0.97752
3889.90328	0.97765
3887.84947	0.97726
3885.79567	0.97699
3883.74187	0.97704
3881.68807	0.97725
3879.63426	0.97764
3877.58046	0.97793
3875.52666	0.97792
3873.47285	0.97802
3871.41905	0.97860
3869.36525	0.97883
3867.31144	0.97828
3865.25764	0.97765
3863.20384	0.97704
3861.15003	0.97681
3859.09623	0.97718
3857.04243	0.97815
3854.98862	0.97941
3852.93482	0.97967
3850.88102	0.97911
3848.82721	0.97885
3846.77341	0.97871
3844.71961	0.97840
3842.66580	0.97791
3840.61200	0.97746
3838.55820	0.97709
3836.50439	0.97714
3834.45059	0.97765
3832.39679	0.97813
3830.34298	0.97838
3828.28918	0.97855
3826.23538	0.97868
3824.18158	0.97856
3822.12777	0.97814
3820.07397	0.97822
3818.02017	0.97920
3815.96636	0.97978
3813.91256	0.97917
3811.85876	0.97845
3809.80495	0.97800
3807.75115	0.97774
3805.69735	0.97795
3803.64354	0.97848
3801.58974	0.97916
3799.53594	0.97953
3797.48213	0.97975
3795.42833	0.97989
3793.37453	0.97944
3791.32072	0.97912
3789.26692	0.97945
3787.21312	0.97955
3785.15931	0.97916
3783.10551	0.97918
3781.05171	0.97939
3778.99790	0.97894
3776.94410	0.97822
3774.89030	0.97796
3772.83650	0.97809
3770.78269	0.97814
3768.72889	0.97800
3766.67509	0.97833
3764.62128	0.97913
3762.56748	0.97946
3760.51368	0.97922
3758.45987	0.97894
3756.40607	0.97878
3754.35227	0.97865
3752.29846	0.97860
3750.24466	0.97858
3748.19086	0.97861
3746.13705	0.97883
3744.08325	0.97888
3742.02945	0.97871
3739.97564	0.97907
3737.92184	0.97963
3735.86804	0.97921
3733.81423	0.97823
3731.76043	0.97773
3729.70663	0.97688
3727.65282	0.97605
3725.59902	0.97656
3723.54522	0.97752
3721.49141	0.97743
3719.43761	0.97693
3717.38381	0.97651
3715.33001	0.97581
3713.27620	0.97425
3711.22240	0.97171
3709.16860	0.96945
3707.11479	0.96753
3705.06099	0.96519
3703.00719	0.96243
3700.95338	0.95984
3698.89958	0.95841
3696.84578	0.95854
3694.79197	0.95982
3692.73817	0.96093
3690.68437	0.96102
3688.63056	0.96094
3686.57676	0.96129
3684.52296	0.96158
3682.46915	0.96179
3680.41535	0.96192
3678.36155	0.96204
3676.30774	0.96227
3674.25394	0.96177
3672.20014	0.96043
3670.14633	0.95948
3668.09253	0.95918
3666.03873	0.95856
3663.98492	0.95743
3661.93112	0.95616
3659.87732	0.95522
3657.82352	0.95491
3655.76971	0.95434
3653.71591	0.95300
3651.66211	0.95200
3649.60830	0.95153
3647.55450	0.95013
3645.50070	0.94875
3643.44689	0.94824
3641.39309	0.94787
3639.33929	0.94727
3637.28548	0.94663
3635.23168	0.94607
3633.17788	0.94545
3631.12407	0.94427
3629.07027	0.94162
3627.01647	0.93936
3624.96266	0.93890
3622.90886	0.93851
3620.85506	0.93794
3618.80125	0.93825
3616.74745	0.93998
3614.69365	0.94187
3612.63984	0.94252
3610.58604	0.94244
3608.53224	0.94279
3606.47844	0.94283
3604.42463	0.94244
3602.37083	0.94254
3600.31703	0.94332
3598.26322	0.94421
3596.20942	0.94481
3594.15562	0.94508
3592.10181	0.94488
3590.04801	0.94458
3587.99421	0.94443
3585.94040	0.94430
3583.88660	0.94435
3581.83280	0.94468
3579.77899	0.94499
3577.72519	0.94446
3575.67139	0.94312
3573.61758	0.94233
3571.56378	0.94252
3569.50998	0.94269
3567.45617	0.94247
3565.40237	0.94250
3563.34857	0.94259
3561.29476	0.94234
3559.24096	0.94207
3557.18716	0.94182
3555.13335	0.94150
3553.07955	0.94144
3551.02575	0.94166
3548.97195	0.94189
3546.91814	0.94168
3544.86434	0.94075
3542.81054	0.94032
3540.75673	0.94095
3538.70293	0.94132
3536.64913	0.94097
3534.59532	0.94059
3532.54152	0.94024
3530.48772	0.93987
3528.43391	0.93992
3526.38011	0.94034
3524.32631	0.94058
3522.27250	0.94063
3520.21870	0.94038
3518.16490	0.94021
3516.11109	0.94067
3514.05729	0.94094
3512.00349	0.94042
3509.94968	0.93975
3507.89588	0.93970
3505.84208	0.94036
3503.78827	0.94095
3501.73447	0.94070
3499.68067	0.94010
3497.62687	0.93962
3495.57306	0.93929
3493.51926	0.93941
3491.46546	0.93967
3489.41165	0.93943
3487.35785	0.93894
3485.30405	0.93898
3483.25024	0.93916
3481.19644	0.93873
3479.14264	0.93829
3477.08883	0.93844
3475.03503	0.93883
3472.98123	0.93871
3470.92742	0.93781
3468.87362	0.93721
3466.81982	0.93747
3464.76601	0.93760
3462.71221	0.93733
3460.65841	0.93730
3458.60460	0.93743
3456.55080	0.93711
3454.49700	0.93654
3452.44319	0.93651
3450.38939	0.93671
3448.33559	0.93658
3446.28178	0.93638
3444.22798	0.93635
3442.17418	0.93635
3440.12038	0.93635
3438.06657	0.93642
3436.01277	0.93669
3433.95897	0.93691
3431.90516	0.93651
3429.85136	0.93571
3427.79756	0.93525
3425.74375	0.93525
3423.68995	0.93550
3421.63615	0.93561
3419.58234	0.93531
3417.52854	0.93491
3415.47474	0.93462
3413.42093	0.93447
3411.36713	0.93447
3409.31333	0.93455
3407.25952	0.93459
3405.20572	0.93455
3403.15192	0.93462
3401.09811	0.93510
3399.04431	0.93578
3396.99051	0.93570
3394.93670	0.93487
3392.88290	0.93454
3390.82910	0.93483
3388.77529	0.93493
3386.72149	0.93500
3384.66769	0.93547
3382.61389	0.93597
3380.56008	0.93600
3378.50628	0.93562
3376.45248	0.93526
3374.39867	0.93538
3372.34487	0.93582
3370.29107	0.93594
3368.23726	0.93594
3366.18346	0.93652
3364.12966	0.93727
3362.07585	0.93730
3360.02205	0.93677
3357.96825	0.93664
3355.91444	0.93705
3353.86064	0.93736
3351.80684	0.93766
3349.75303	0.93851
3347.69923	0.93957
3345.64543	0.93964
3343.59162	0.93877
3341.53782	0.93829
3339.48402	0.93849
3337.43021	0.93862
3335.37641	0.93867
3333.32261	0.93918
3331.26881	0.94004
3329.21500	0.94078
3327.16120	0.94100
3325.10740	0.94061
3323.05359	0.94028
3320.99979	0.94063
3318.94599	0.94117
3316.89218	0.94109
3314.83838	0.94086
3312.78458	0.94117
3310.73077	0.94158
3308.67697	0.94151
3306.62317	0.94122
3304.56936	0.94138
3302.51556	0.94191
3300.46176	0.94256
3298.40795	0.94296
3296.35415	0.94259
3294.30035	0.94200
3292.24654	0.94217
3290.19274	0.94290
3288.13894	0.94318
3286.08513	0.94290
3284.03133	0.94285
3281.97753	0.94347
3279.92372	0.94410
3277.86992	0.94397
3275.81612	0.94393
3273.76232	0.94438
3271.70851	0.94475
3269.65471	0.94491
3267.60091	0.94488
3265.54710	0.94512
3263.49330	0.94541
3261.43950	0.94533
3259.38569	0.94543
3257.33189	0.94572
3255.27809	0.94559
3253.22428	0.94564
3251.17048	0.94653
3249.11668	0.94722
3247.06287	0.94686
3245.00907	0.94617
3242.95527	0.94617
3240.90146	0.94696
3238.84766	0.94790
3236.79386	0.94849
3234.74005	0.94855
3232.68625	0.94827
3230.63245	0.94826
3228.57864	0.94849
3226.52484	0.94872
3224.47104	0.94880
3222.41724	0.94864
3220.36343	0.94876
3218.30963	0.94902
3216.25583	0.94919
3214.20202	0.94964
3212.14822	0.95017
3210.09442	0.95024
3208.04061	0.95001
3205.98681	0.94984
3203.93301	0.94968
3201.87920	0.94969
3199.82540	0.95008
3197.77160	0.95044
3195.71779	0.95050
3193.66399	0.95060
3191.61019	0.95096
3189.55638	0.95158
3187.50258	0.95225
3185.44878	0.95274
3183.39497	0.95327
3181.34117	0.95369
3179.28737	0.95384
3177.23356	0.95375
3175.17976	0.95367
3173.12596	0.95405
3171.07215	0.95456
3169.01835	0.95495
3166.96455	0.95531
3164.91075	0.95563
3162.85694	0.95593
3160.80314	0.95595
3158.74934	0.95580
3156.69553	0.95613
3154.64173	0.95673
3152.58793	0.95705
3150.53412	0.95714
3148.48032	0.95680
3146.42652	0.95646
3144.37271	0.95666
3142.31891	0.95709
3140.26511	0.95737
3138.21130	0.95747
3136.15750	0.95762
3134.10370	0.95783
3132.04989	0.95819
3129.99609	0.95879
3127.94229	0.95907
3125.88848	0.95881
3123.83468	0.95852
3121.78088	0.95865
3119.72707	0.95920
3117.67327	0.95957
3115.61947	0.95949
3113.56566	0.95938
3111.51186	0.95941
3109.45806	0.95959
3107.40426	0.95980
3105.35045	0.95952
3103.29665	0.95893
3101.24285	0.95887
3099.18904	0.95938
3097.13524	0.96009
3095.08144	0.96072
3093.02763	0.96091
3090.97383	0.96087
3088.92003	0.96121
3086.86622	0.96136
3084.81242	0.96064
3082.75862	0.96007
3080.70481	0.96034
3078.65101	0.96075
3076.59721	0.96090
3074.54340	0.96117
3072.48960	0.96186
3070.43580	0.96248
3068.38199	0.96252
3066.32819	0.96230
3064.27439	0.96216
3062.22058	0.96205
3060.16678	0.96190
3058.11298	0.96175
3056.05918	0.96194
3054.00537	0.96252
3051.95157	0.96300
3049.89777	0.96326
3047.84396	0.96348
3045.79016	0.96343
3043.73636	0.96314
3041.68255	0.96288
3039.62875	0.96291
3037.57495	0.96319
3035.52114	0.96328
3033.46734	0.96321
3031.41354	0.96319
3029.35973	0.96293
3027.30593	0.96285
3025.25213	0.96368
3023.19832	0.96457
3021.14452	0.96441
3019.09072	0.96383
3017.03691	0.96369
3014.98311	0.96393
3012.92931	0.96409
3010.87550	0.96406
3008.82170	0.96411
3006.76790	0.96416
3004.71409	0.96400
3002.66029	0.96383
3000.60649	0.96388
2998.55269	0.96393
2996.49888	0.96355
2994.44508	0.96289
2992.39128	0.96243
2990.33747	0.96223
2988.28367	0.96198
2986.22987	0.96151
2984.17606	0.96090
2982.12226	0.96016
2980.06846	0.95906
2978.01465	0.95767
2975.96085	0.95641
2973.90705	0.95512
2971.85324	0.95346
2969.79944	0.95149
2967.74564	0.94940
2965.69183	0.94700
2963.63803	0.94436
2961.58423	0.94203
2959.53042	0.93989
2957.47662	0.93746
2955.42282	0.93479
2953.36901	0.93236
2951.31521	0.93009
2949.26141	0.92684
2947.20761	0.92219
2945.15380	0.91625
2943.10000	0.90848
2941.04620	0.89868
2938.99239	0.88691
2936.93859	0.87315
2934.88479	0.85760
2932.83098	0.83989
2930.77718	0.81917
2928.72338	0.79500
2926.66957	0.76675
2924.61577	0.73311
2922.56197	0.69351
2920.50816	0.65038
2918.45436	0.61054
2916.40056	0.58431
2914.34675	0.58092
2912.29295	0.60065
2910.23915	0.63331
2908.18534	0.66723
2906.13154	0.69649
2904.07774	0.72004
2902.02393	0.73864
2899.97013	0.75353
2897.91633	0.76612
2895.86252	0.77795
2893.80872	0.78984
2891.75492	0.80139
2889.70112	0.81230
2887.64731	0.82320
2885.59351	0.83435
2883.53971	0.84544
2881.48590	0.85633
2879.43210	0.86676
2877.37830	0.87615
2875.32449	0.88393
2873.27069	0.88974
2871.21689	0.89311
2869.16308	0.89400
2867.10928	0.89283
2865.05548	0.88910
2863.00167	0.88152
2860.94787	0.86872
2858.89407	0.84877
2856.84026	0.81858
2854.78646	0.77469
2852.73266	0.71715
2850.67885	0.65717
2848.62505	0.61914
2846.57125	0.62223
2844.51744	0.66076
2842.46364	0.71332
2840.40984	0.76304
2838.35603	0.80322
2836.30223	0.83358
2834.24843	0.85629
2832.19463	0.87350
2830.14082	0.88677
2828.08702	0.89750
2826.03322	0.90609
2823.97941	0.91257
2821.92561	0.91778
2819.87181	0.92246
2817.81800	0.92669
2815.76420	0.93032
2813.71040	0.93311
2811.65659	0.93529
2809.60279	0.93745
2807.54899	0.93962
2805.49518	0.94153
2803.44138	0.94312
2801.38758	0.94441
2799.33377	0.94568
2797.27997	0.94709
2795.22617	0.94842
2793.17236	0.94942
2791.11856	0.95049
2789.06476	0.95200
2787.01095	0.95326
2784.95715	0.95403
2782.90335	0.95498
2780.84955	0.95608
2778.79574	0.95682
2776.74194	0.95729
2774.68814	0.95768
2772.63433	0.95797
2770.58053	0.95834
2768.52673	0.95889
2766.47292	0.95934
2764.41912	0.95979
2762.36532	0.96051
2760.31151	0.96113
2758.25771	0.96138
2756.20391	0.96159
2754.15010	0.96183
2752.09630	0.96183
2750.04250	0.96173
2747.98869	0.96179
2745.93489	0.96207
2743.88109	0.96254
2741.82728	0.96286
2739.77348	0.96291
2737.71968	0.96298
2735.66587	0.96312
2733.61207	0.96320
2731.55827	0.96307
2729.50446	0.96296
2727.45066	0.96338
2725.39686	0.96401
2723.34306	0.96427
2721.28925	0.96443
2719.23545	0.96473
2717.18165	0.96501
2715.12784	0.96529
2713.07404	0.96551
2711.02024	0.96540
2708.96643	0.96525
2706.91263	0.96556
2704.85883	0.96604
2702.80502	0.96620
2700.75122	0.96620
2698.69742	0.96633
2696.64361	0.96643
2694.58981	0.96648
2692.53601	0.96659
2690.48220	0.96653
2688.42840	0.96642
2686.37460	0.96650
2684.32079	0.96663
2682.26699	0.96672
2680.21319	0.96668
2678.15938	0.96674
2676.10558	0.96712
2674.05178	0.96724
2671.99797	0.96677
2669.94417	0.96629
2667.89037	0.96634
2665.83657	0.96653
2663.78276	0.96654
2661.72896	0.96648
2659.67516	0.96637
2657.62135	0.96628
2655.56755	0.96646
2653.51375	0.96682
2651.45994	0.96700
2649.40614	0.96690
2647.35234	0.96652
2645.29853	0.96622
2643.24473	0.96640
2641.19093	0.96679
2639.13712	0.96725
2637.08332	0.96769
2635.02952	0.96765
2632.97571	0.96726
2630.92191	0.96725
2628.86811	0.96769
2626.81430	0.96809
2624.76050	0.96828
2622.70670	0.96832
2620.65289	0.96855
2618.59909	0.96920
2616.54529	0.96983
2614.49149	0.96977
2612.43768	0.96921
2610.38388	0.96898
2608.33008	0.96914
2606.27627	0.96934
2604.22247	0.96958
2602.16867	0.97024
2600.11486	0.97135
2598.06106	0.97196
2596.00726	0.97194
2593.95345	0.97195
2591.89965	0.97195
2589.84585	0.97195
2587.79204	0.97227
2585.73824	0.97280
2583.68444	0.97317
2581.63063	0.97314
2579.57683	0.97269
2577.52303	0.97242
2575.46922	0.97272
2573.41542	0.97292
2571.36162	0.97282
2569.30781	0.97303
2567.25401	0.97356
2565.20021	0.97388
2563.14640	0.97393
2561.09260	0.97400
2559.03880	0.97419
2556.98500	0.97436
2554.93119	0.97443
2552.87739	0.97420
2550.82359	0.97367
2548.76978	0.97345
2546.71598	0.97399
2544.66218	0.97497
2542.60837	0.97546
2540.55457	0.97489
2538.50077	0.97381
2536.44696	0.97308
2534.39316	0.97308
2532.33936	0.97394
2530.28555	0.97496
2528.23175	0.97501
2526.17795	0.97448
2524.12414	0.97467
2522.07034	0.97535
2520.01654	0.97518
2517.96273	0.97423
2515.90893	0.97397
2513.85513	0.97466
2511.80132	0.97511
2509.74752	0.97522
2507.69372	0.97543
2505.63992	0.97536
2503.58611	0.97532
2501.53231	0.97569
2499.47851	0.97602
2497.42470	0.97632
2495.37090	0.97666
2493.31710	0.97673
2491.26329	0.97646
2489.20949	0.97601
2487.15569	0.97608
2485.10188	0.97687
2483.04808	0.97755
2480.99428	0.97767
2478.94047	0.97745
2476.88667	0.97715
2474.83287	0.97693
2472.77906	0.97694
2470.72526	0.97702
2468.67146	0.97726
2466.61765	0.97796
2464.56385	0.97857
2462.51005	0.97859
2460.45624	0.97840
2458.40244	0.97806
2456.34864	0.97755
2454.29483	0.97744
2452.24103	0.97743
2450.18723	0.97714
2448.13343	0.97699
2446.07962	0.97692
2444.02582	0.97690
2441.97202	0.97689
2439.91821	0.97666
2437.86441	0.97663
2435.81061	0.97720
2433.75680	0.97782
2431.70300	0.97795
2429.64920	0.97806
2427.59539	0.97866
2425.54159	0.97927
2423.48779	0.97930
2421.43398	0.97891
2419.38018	0.97872
2417.32638	0.97859
2415.27257	0.97828
2413.21877	0.97837
2411.16497	0.97875
2409.11116	0.97882
2407.05736	0.97869
2405.00356	0.97839
2402.94975	0.97805
2400.89595	0.97809
2398.84215	0.97831
2396.78834	0.97869
2394.73454	0.97909
2392.68074	0.97908
2390.62694	0.97896
2388.57313	0.97887
2386.51933	0.97867
2384.46553	0.97853
2382.41172	0.97847
2380.35792	0.97857
2378.30412	0.97879
2376.25031	0.97850
2374.19651	0.97781
2372.14271	0.97749
2370.08890	0.97760
2368.03510	0.97777
2365.98130	0.97753
2363.92749	0.97698
2361.87369	0.97676
2359.81989	0.97678
2357.76608	0.97697
2355.71228	0.97753
2353.65848	0.97790
2351.60467	0.97754
2349.55087	0.97720
2347.49707	0.97766
2345.44326	0.97886
2343.38946	0.97965
2341.33566	0.97911
2339.28186	0.97825
2337.22805	0.97824
2335.17425	0.97849
2333.12045	0.97808
2331.06664	0.97756
2329.01284	0.97720
2326.95904	0.97638
2324.90523	0.97542
2322.85143	0.97495
2320.79763	0.97557
2318.74382	0.97702
2316.69002	0.97779
2314.63622	0.97760
2312.58241	0.97740
2310.52861	0.97759
2308.47481	0.97800
2306.42100	0.97834
2304.36720	0.97875
2302.31340	0.97926
2300.25959	0.97943
2298.20579	0.97925
2296.15199	0.97898
2294.09818	0.97860
2292.04438	0.97793
2289.99058	0.97698
2287.93677	0.97652
2285.88297	0.97696
2283.82917	0.97778
2281.77537	0.97864
2279.72156	0.97925
2277.66776	0.97942
2275.61396	0.97900
2273.56015	0.97797
2271.50635	0.97738
2269.45255	0.97808
2267.39874	0.97946
2265.34494	0.98071
2263.29114	0.98137
2261.23733	0.98100
2259.18353	0.98013
2257.12973	0.97972
2255.07592	0.97997
2253.02212	0.98062
2250.96832	0.98112
2248.91451	0.98116
2246.86071	0.98115
2244.80691	0.98202
2242.75310	0.98344
2240.69930	0.98294
2238.64550	0.98080
2236.59169	0.98015
2234.53789	0.98060
2232.48409	0.97978
2230.43029	0.97805
2228.37648	0.97752
2226.32268	0.97869
2224.26888	0.98023
2222.21507	0.98153
2220.16127	0.98244
2218.10747	0.98286
2216.05366	0.98289
2213.99986	0.98193
2211.94606	0.97962
2209.89225	0.97807
2207.83845	0.97906
2205.78465	0.98100
2203.73084	0.98210
2201.67704	0.98300
2199.62324	0.98472
2197.56943	0.98573
2195.51563	0.98475
2193.46183	0.98296
2191.40802	0.98141
2189.35422	0.98119
2187.30042	0.98190
2185.24661	0.98282
2183.19281	0.98428
2181.13901	0.98445
2179.08520	0.98231
2177.03140	0.97984
2174.97760	0.97842
2172.92380	0.97788
2170.86999	0.97845
2168.81619	0.98030
2166.76239	0.98273
2164.70858	0.98349
2162.65478	0.97928
2160.60098	0.97543
2158.54717	0.97961
2156.49337	0.98469
2154.43957	0.98424
2152.38576	0.98280
2150.33196	0.98306
2148.27816	0.98366
2146.22435	0.98430
2144.17055	0.98508
2142.11675	0.98585
2140.06294	0.98711
2138.00914	0.98810
2135.95534	0.98811
2133.90153	0.98698
2131.84773	0.98490
2129.79393	0.98362
2127.74012	0.98385
2125.68632	0.98421
2123.63252	0.98409
2121.57871	0.98361
2119.52491	0.98253
2117.47111	0.98107
2115.41731	0.97969
2113.36350	0.97909
2111.30970	0.97970
2109.25590	0.98075
2107.20209	0.98097
2105.14829	0.98067
2103.09449	0.98152
2101.04068	0.98237
2098.98688	0.98157
2096.93308	0.98100
2094.87927	0.98165
2092.82547	0.98185
2090.77167	0.98184
2088.71786	0.98190
2086.66406	0.98044
2084.61026	0.97876
2082.55645	0.97914
2080.50265	0.98060
2078.44885	0.98185
2076.39504	0.98236
2074.34124	0.98231
2072.28744	0.98310
2070.23363	0.98350
2068.17983	0.98170
2066.12603	0.97966
2064.07223	0.97902
2062.01842	0.97930
2059.96462	0.97930
2057.91082	0.97886
2055.85701	0.97980
2053.80321	0.98194
2051.74941	0.98226
2049.69560	0.98101
2047.64180	0.98112
2045.58800	0.98163
2043.53419	0.98092
2041.48039	0.98142
2039.42659	0.98325
2037.37278	0.98388
2035.31898	0.98470
2033.26518	0.98604
2031.21137	0.98479
2029.15757	0.98204
2027.10377	0.98039
2025.04996	0.98033
2022.99616	0.98234
2020.94236	0.98522
2018.88855	0.98722
2016.83475	0.98808
2014.78095	0.98667
2012.72714	0.98393
2010.67334	0.98352
2008.61954	0.98498
2006.56574	0.98563
2004.51193	0.98581
2002.45813	0.98631
2000.40433	0.98704
1998.35052	0.98715
1996.29672	0.98454
1994.24292	0.98076
1992.18911	0.98014
1990.13531	0.98254
1988.08151	0.98440
1986.02770	0.98435
1983.97390	0.98437
1981.92010	0.98446
1979.86629	0.98312
1977.81249	0.98243
1975.75869	0.98294
1973.70488	0.98327
1971.65108	0.98367
1969.59728	0.98339
1967.54347	0.98223
1965.48967	0.98196
1963.43587	0.98296
1961.38206	0.98463
1959.32826	0.98548
1957.27446	0.98429
1955.22066	0.98264
1953.16685	0.98145
1951.11305	0.98040
1949.05925	0.97990
1947.00544	0.98052
1944.95164	0.98139
1942.89784	0.98106
1940.84403	0.98002
1938.79023	0.97978
1936.73643	0.98047
1934.68262	0.98148
1932.62882	0.98225
1930.57502	0.98294
1928.52121	0.98392
1926.46741	0.98435
1924.41361	0.98333
1922.35980	0.98207
1920.30600	0.98207
1918.25220	0.98235
1916.19839	0.98188
1914.14459	0.98153
1912.09079	0.98166
1910.03698	0.98162
1907.98318	0.98124
1905.92938	0.98054
1903.87557	0.98034
1901.82177	0.98090
1899.76797	0.98074
1897.71417	0.97977
1895.66036	0.97894
1893.60656	0.97881
1891.55276	0.97929
1889.49895	0.97918
1887.44515	0.97868
1885.39135	0.97916
1883.33754	0.98025
1881.28374	0.98093
1879.22994	0.98075
1877.17613	0.97999
1875.12233	0.97932
1873.06853	0.97893
1871.01472	0.97889
1868.96092	0.97904
1866.90712	0.97919
1864.85331	0.97940
1862.79951	0.97939
1860.74571	0.97936
1858.69190	0.97987
1856.63810	0.98055
1854.58430	0.98081
1852.53049	0.98077
1850.47669	0.98041
1848.42289	0.97974
1846.36908	0.97963
1844.31528	0.97987
1842.26148	0.97968
1840.20768	0.97944
1838.15387	0.97903
1836.10007	0.97860
1834.04627	0.97866
1831.99246	0.97893
1829.93866	0.97937
1827.88486	0.97989
1825.83105	0.97980
1823.77725	0.97911
1821.72345	0.97871
1819.66964	0.97875
1817.61584	0.97836
1815.56204	0.97765
1813.50823	0.97749
1811.45443	0.97749
1809.40063	0.97713
1807.34682	0.97659
1805.29302	0.97629
1803.23922	0.97630
1801.18541	0.97558
1799.13161	0.97397
1797.07781	0.97285
1795.02400	0.97241
1792.97020	0.97192
1790.91640	0.97065
1788.86260	0.96877
1786.80879	0.96717
1784.75499	0.96630
1782.70119	0.96591
1780.64738	0.96539
1778.59358	0.96487
1776.53978	0.96481
1774.48597	0.96465
1772.43217	0.96425
1770.37837	0.96422
1768.32456	0.96384
1766.27076	0.96269
1764.21696	0.96168
1762.16315	0.96137
1760.10935	0.96133
1758.05555	0.96083
1756.00174	0.95991
1753.94794	0.95888
1751.89414	0.95731
1749.84033	0.95444
1747.78653	0.95050
1745.73273	0.94663
1743.67892	0.94307
1741.62512	0.93943
1739.57132	0.93600
1737.51751	0.93400
1735.46371	0.93327
1733.40991	0.93293
1731.35611	0.93287
1729.30230	0.93255
1727.24850	0.93171
1725.19470	0.93037
1723.14089	0.92808
1721.08709	0.92541
1719.03329	0.92290
1716.97948	0.92024
1714.92568	0.91852
1712.87188	0.91825
1710.81807	0.91932
1708.76427	0.92126
1706.71047	0.92367
1704.65666	0.92658
1702.60286	0.92915
1700.54906	0.93140
1698.49525	0.93371
1696.44145	0.93618
1694.38765	0.93888
1692.33384	0.94081
1690.28004	0.94223
1688.22624	0.94340
1686.17243	0.94408
1684.11863	0.94422
1682.06483	0.94413
1680.01103	0.94423
1677.95722	0.94431
1675.90342	0.94410
1673.84962	0.94379
1671.79581	0.94338
1669.74201	0.94251
1667.68821	0.94172
1665.63440	0.94131
1663.58060	0.94083
1661.52680	0.94033
1659.47299	0.94019
1657.41919	0.94045
1655.36539	0.94077
1653.31158	0.94048
1651.25778	0.94003
1649.20398	0.93981
1647.15017	0.93930
1645.09637	0.93889
1643.04257	0.93875
1640.98876	0.93862
1638.93496	0.93869
1636.88116	0.93895
1634.82735	0.93891
1632.77355	0.93855
1630.71975	0.93833
1628.66594	0.93822
1626.61214	0.93799
1624.55834	0.93752
1622.50454	0.93735
1620.45073	0.93815
1618.39693	0.93938
1616.34313	0.94027
1614.28932	0.94066
1612.23552	0.94092
1610.18172	0.94113
1608.12791	0.94126
1606.07411	0.94140
1604.02031	0.94162
1601.96650	0.94202
1599.91270	0.94260
1597.85890	0.94302
1595.80509	0.94330
1593.75129	0.94351
1591.69749	0.94349
1589.64368	0.94348
1587.58988	0.94381
1585.53608	0.94417
1583.48227	0.94438
1581.42847	0.94463
1579.37467	0.94519
1577.32086	0.94612
1575.26706	0.94646
1573.21326	0.94602
1571.15945	0.94584
1569.10565	0.94617
1567.05185	0.94666
1564.99805	0.94696
1562.94424	0.94712
1560.89044	0.94730
1558.83664	0.94724
1556.78283	0.94724
1554.72903	0.94767
1552.67523	0.94808
1550.62142	0.94822
1548.56762	0.94823
1546.51382	0.94853
1544.46001	0.94912
1542.40621	0.94975
1540.35241	0.94994
1538.29860	0.94969
1536.24480	0.94959
1534.19100	0.94939
1532.13719	0.94894
1530.08339	0.94847
1528.02959	0.94800
1525.97578	0.94755
1523.92198	0.94736
1521.86818	0.94684
1519.81437	0.94589
1517.76057	0.94523
1515.70677	0.94426
1513.65297	0.94303
1511.59916	0.94218
1509.54536	0.94187
1507.49156	0.94111
1505.43775	0.93880
1503.38395	0.93718
1501.33015	0.93624
1499.27634	0.93505
1497.22254	0.93352
1495.16874	0.93197
1493.11493	0.93074
1491.06113	0.92940
1489.00733	0.92725
1486.95352	0.92484
1484.89972	0.92282
1482.84592	0.92059
1480.79211	0.91680
1478.73831	0.90823
1476.68451	0.88490
1474.63070	0.83994
1472.57690	0.79895
1470.52310	0.79786
1468.46929	0.81285
1466.41549	0.81679
1464.36169	0.80422
1462.30788	0.79658
1460.25408	0.80977
1458.20028	0.83689
1456.14648	0.86140
1454.09267	0.87291
1452.03887	0.87995
1449.98507	0.88603
1447.93126	0.89107
1445.87746	0.89477
1443.82366	0.89721
1441.76985	0.89886
1439.71605	0.90022
1437.66225	0.90179
1435.60844	0.90352
1433.55464	0.90497
1431.50084	0.90645
1429.44703	0.90829
1427.39323	0.91012
1425.33943	0.91152
1423.28562	0.91258
1421.23182	0.91328
1419.17802	0.91367
1417.12421	0.91432
1415.07041	0.91537
1413.01661	0.91636
1410.96280	0.91750
1408.90900	0.91914
1406.85520	0.92136
1404.80139	0.92417
1402.74759	0.92676
1400.69379	0.92861
1398.63999	0.93030
1396.58618	0.93203
1394.53238	0.93361
1392.47858	0.93489
1390.42477	0.93573
1388.37097	0.93623
1386.31717	0.93617
1384.26336	0.93524
1382.20956	0.93347
1380.15576	0.93142
1378.10195	0.93008
1376.04815	0.93001
1373.99435	0.93077
1371.94054	0.93143
1369.88674	0.93190
1367.83294	0.93238
1365.77913	0.93287
1363.72533	0.93381
1361.67153	0.93523
1359.61772	0.93632
1357.56392	0.93689
1355.51012	0.93734
1353.45631	0.93778
1351.40251	0.93826
1349.34871	0.93874
1347.29491	0.93924
1345.24110	0.93987
1343.18730	0.94050
1341.13350	0.94105
1339.07969	0.94167
1337.02589	0.94226
1334.97209	0.94250
1332.91828	0.94222
1330.86448	0.94161
1328.81068	0.94108
1326.75687	0.94073
1324.70307	0.94034
1322.64927	0.93965
1320.59546	0.93876
1318.54166	0.93799
1316.48786	0.93759
1314.43405	0.93765
1312.38025	0.93786
1310.32645	0.93777
1308.27264	0.93735
1306.21884	0.93690
1304.16504	0.93660
1302.11123	0.93625
1300.05743	0.93573
1298.00363	0.93526
1295.94982	0.93494
1293.89602	0.93479
1291.84222	0.93459
1289.78842	0.93397
1287.73461	0.93308
1285.68081	0.93246
1283.62701	0.93226
1281.57320	0.93196
1279.51940	0.93127
1277.46560	0.93068
1275.41179	0.93019
1273.35799	0.92948
1271.30419	0.92881
1269.25038	0.92848
1267.19658	0.92846
1265.14278	0.92822
1263.08897	0.92732
1261.03517	0.92635
1258.98137	0.92569
1256.92756	0.92514
1254.87376	0.92463
1252.81996	0.92399
1250.76615	0.92310
1248.71235	0.92233
1246.65855	0.92177
1244.60474	0.92104
1242.55094	0.92026
1240.49714	0.91966
1238.44334	0.91907
1236.38953	0.91841
1234.33573	0.91754
1232.28193	0.91661
1230.22812	0.91584
1228.17432	0.91490
1226.12052	0.91354
1224.06671	0.91197
1222.01291	0.91037
1219.95911	0.90852
1217.90530	0.90629
1215.85150	0.90396
1213.79770	0.90159
1211.74389	0.89885
1209.69009	0.89592
1207.63629	0.89313
1205.58248	0.88995
1203.52868	0.88613
1201.47488	0.88213
1199.42107	0.87814
1197.36727	0.87404
1195.31347	0.86964
1193.25966	0.86491
1191.20586	0.86001
1189.15206	0.85495
1187.09825	0.84977
1185.04445	0.84463
1182.99065	0.83940
1180.93685	0.83400
1178.88304	0.82861
1176.82924	0.82352
1174.77544	0.81868
1172.72163	0.81413
1170.66783	0.80994
1168.61403	0.80576
1166.56022	0.80194
1164.50642	0.79922
1162.45262	0.79765
1160.39881	0.79695
1158.34501	0.79641
1156.29121	0.79519
1154.23740	0.79329
1152.18360	0.79124
1150.12980	0.78913
1148.07599	0.78708
1146.02219	0.78506
1143.96839	0.78285
1141.91458	0.78060
1139.86078	0.77860
1137.80698	0.77663
1135.75317	0.77413
1133.69937	0.77106
1131.64557	0.76770
1129.59176	0.76422
1127.53796	0.76067
1125.48416	0.75651
1123.43036	0.75126
1121.37655	0.74515
1119.32275	0.73847
1117.26895	0.73150
1115.21514	0.72473
1113.16134	0.71813
1111.10754	0.71160
1109.05373	0.70553
1106.99993	0.69966
1104.94613	0.69374
1102.89232	0.68841
1100.83852	0.68368
1098.78472	0.67895
1096.73091	0.67435
1094.67711	0.67026
1092.62331	0.66701
1090.56950	0.66441
1088.51570	0.66188
1086.46190	0.65940
1084.40809	0.65726
1082.35429	0.65554
1080.30049	0.65393
1078.24668	0.65219
1076.19288	0.65040
1074.13908	0.64861
1072.08528	0.64647
1070.03147	0.64359
1067.97767	0.63998
1065.92387	0.63594
1063.87006	0.63155
1061.81626	0.62672
1059.76246	0.62170
1057.70865	0.61670
1055.65485	0.61184
1053.60105	0.60679
1051.54724	0.60084
1049.49344	0.59395
1047.43964	0.58655
1045.38583	0.57896
1043.33203	0.57116
1041.27823	0.56327
1039.22442	0.55535
1037.17062	0.54738
1035.11682	0.54023
1033.06301	0.53487
1031.00921	0.53083
1028.95541	0.52771
1026.90160	0.52583
1024.84780	0.52450
1022.79400	0.52289
1020.74019	0.52112
1018.68639	0.51914
1016.63259	0.51713
1014.57879	0.51562
1012.52498	0.51441
1010.47118	0.51340
1008.41738	0.51296
1006.36357	0.51325
1004.30977	0.51458
1002.25597	0.51743
1000.20216	0.52134
998.14836	0.52547
996.09456	0.52968
994.04075	0.53461
991.98695	0.54072
989.93315	0.54789
987.87934	0.55607
985.82554	0.56511
983.77174	0.57497
981.71793	0.58603
979.66413	0.59811
977.61033	0.61097
975.55652	0.62450
973.50272	0.63804
971.44892	0.65111
969.39511	0.66384
967.34131	0.67631
965.28751	0.68805
963.23371	0.69842
961.17990	0.70764
959.12610	0.71609
957.07230	0.72380
955.01849	0.73092
952.96469	0.73718
950.91089	0.74243
948.85708	0.74738
946.80328	0.75238
944.74948	0.75708
942.69567	0.76111
940.64187	0.76496
938.58807	0.76943
936.53426	0.77395
934.48046	0.77809
932.42666	0.78225
930.37285	0.78638
928.31905	0.79010
926.26525	0.79344
924.21144	0.79627
922.15764	0.79776
920.10384	0.79777
918.05003	0.79772
915.99623	0.79880
913.94243	0.80031
911.88862	0.80179
909.83482	0.80441
907.78102	0.80908
905.72722	0.81552
903.67341	0.82323
901.61961	0.83137
899.56581	0.83841
897.51200	0.84409
895.45820	0.84946
893.40440	0.85447
891.35059	0.85841
889.29679	0.86175
887.24299	0.86505
885.18918	0.86753
883.13538	0.86859
881.08158	0.86861
879.02777	0.86841
876.97397	0.86915
874.92017	0.87188
872.86636	0.87634
870.81256	0.88092
868.75876	0.88401
866.70495	0.88495
864.65115	0.88482
862.59735	0.88520
860.54354	0.88663
858.48974	0.88953
856.43594	0.89390
854.38213	0.89839
852.32833	0.90175
850.27453	0.90375
848.22073	0.90432
846.16692	0.90384
844.11312	0.90337
842.05932	0.90341
840.00551	0.90335
837.95171	0.90218
835.89791	0.89981
833.84410	0.89722
831.79030	0.89520
829.73650	0.89388
827.68269	0.89357
825.62889	0.89466
823.57509	0.89577
821.52128	0.89577
819.46748	0.89567
817.41368	0.89597
815.35987	0.89595
813.30607	0.89496
811.25227	0.89215
809.19846	0.88670
807.14466	0.87850
805.09086	0.86816
803.03705	0.85789
800.98325	0.85071
798.92945	0.84802
796.87565	0.84923
794.82184	0.85270
792.76804	0.85669
790.71424	0.85981
788.66043	0.86143
786.60663	0.86130
784.55283	0.85917
782.49902	0.85540
780.44522	0.85162
778.39142	0.85066
776.33761	0.85368
774.28381	0.85854
772.23001	0.86267
770.17620	0.86475
768.12240	0.86457
766.06860	0.86329
764.01479	0.86214
761.96099	0.86127
759.90719	0.86031
757.85338	0.85974
755.79958	0.86041
753.74578	0.86155
751.69197	0.86201
749.63817	0.86205
747.58437	0.86187
745.53056	0.86163
743.47676	0.86227
741.42296	0.86356
739.36916	0.86375
737.31535	0.86091
735.26155	0.84913
733.20775	0.82083
731.15394	0.78932
729.10014	0.78166
727.04634	0.79352
724.99253	0.79702
722.93873	0.77579
720.88493	0.73194
718.83112	0.69769
716.77732	0.70698
714.72352	0.74916
712.66971	0.79279
710.61591	0.82156
708.56211	0.83634
706.50830	0.84358
704.45450	0.84715
702.40070	0.84822
700.34689	0.84744
698.29309	0.84567
696.23929	0.84481
694.18548	0.84599
692.13168	0.84818
690.07788	0.85040
688.02408	0.85240
685.97027	0.85360
683.91647	0.85393
681.86267	0.85449
679.80886	0.85547
677.75506	0.85621
675.70126	0.85654
673.64745	0.85635
671.59365	0.85619
669.53985	0.85685
667.48604	0.85778
665.43224	0.85707
663.37844	0.85540
661.32463	0.85330
659.27083	0.85045
657.21703	0.84708
655.16322	0.84328
653.10942	0.83922
651.05562	0.83626
649.00181	0.83522
646.94801	0.83561
644.89421	0.83750
642.84040	0.84056
640.78660	0.84311
638.73280	0.84469
636.67899	0.84649
634.62519	0.84848
632.57139	0.84951
630.51759	0.84999
628.46378	0.85023
626.40998	0.84973
624.35618	0.84894
622.30237	0.84773
620.24857	0.84563
618.19477	0.84266
616.14096	0.83871
614.08716	0.83424
612.03336	0.83032
609.97955	0.82756
607.92575	0.82539
605.87195	0.82268
603.81814	0.81879
601.76434	0.81354
599.71054	0.80762
597.65673	0.80222
595.60293	0.79827
593.54913	0.79687
591.49532	0.79645
589.44152	0.79453
587.38772	0.79285
585.33391	0.79242
583.28011	0.79113
581.22631	0.78920
579.17250	0.78918
577.11870	0.79129
575.06490	0.79220
573.01110	0.78953
570.95729	0.78514
568.90349	0.78152
566.84969	0.77826
564.79588	0.77364
562.74208	0.76795
560.68828	0.76324
558.63447	0.76054
556.58067	0.75836
554.52687	0.75507
552.47306	0.75066
550.41926	0.74546
548.36546	0.74044
546.31165	0.73528
544.25785	0.72847
542.20405	0.72102
540.15024	0.71343
538.09644	0.70601
536.04264	0.70101
533.98883	0.69757
531.93503	0.69454
529.88123	0.69355
527.82742	0.69487
525.77362	0.69796
523.71982	0.70156
521.66602	0.70442
519.61221	0.70730
517.55841	0.70984
515.50461	0.71162
513.45080	0.71494
511.39700	0.71934
509.34320	0.72216
507.28939	0.72507
505.23559	0.73036
503.18179	0.73470
501.12798	0.73530
499.07418	0.73430
497.02038	0.73407
494.96657	0.73387
492.91277	0.73075
490.85897	0.72333
488.80516	0.71282
486.75136	0.69992
484.69756	0.68427
482.64375	0.66807
480.58995	0.65384
478.53615	0.63973
476.48234	0.62445
474.42854	0.61003
472.37474	0.59967
470.32093	0.59462
468.26713	0.59246
466.21333	0.59365
464.15953	0.59845
462.10572	0.60562
460.05192	0.61674
457.99812	0.63006
455.94431	0.64001
453.89051	0.64742
451.83671	0.65720
449.78290	0.66809
447.72910	0.67643
445.67530	0.68347
443.62149	0.69037
441.56769	0.69499
439.51389	0.69413
437.46008	0.68960
435.40628	0.68537
433.35248	0.68148
431.29867	0.67700
429.24487	0.67534
427.19107	0.67982
425.13726	0.68706
423.08346	0.69403
421.02966	0.69883
418.97585	0.70275
416.92205	0.71115
414.86825	0.71909
412.81445	0.72475
410.76064	0.73265
408.70684	0.74129
406.65304	0.74572
404.59923	0.74915
402.54543	0.75121
400.49163	0.74418
398.43782	0.72819
