3996.71440	0.97330
3994.66059	0.97313
3992.60678	0.97264
3990.55297	0.97250
3988.49916	0.97282
3986.44535	0.97305
3984.39154	0.97304
3982.33773	0.97284
3980.28391	0.97260
3978.23010	0.97274
3976.17629	0.97321
3974.12248	0.97344
3972.06867	0.97341
3970.01486	0.97342
3967.96105	0.97347
3965.90724	0.97360
3963.85343	0.97369
3961.79962	0.97332
3959.74581	0.97279
3957.69200	0.97280
3955.63819	0.97311
3953.58438	0.97321
3951.53057	0.97316
3949.47676	0.97325
3947.42295	0.97331
3945.36914	0.97304
3943.31533	0.97273
3941.26152	0.97269
3939.20771	0.97289
3937.15390	0.97312
3935.10009	0.97317
3933.04628	0.97300
3930.99247	0.97291
3928.93866	0.97309
3926.88485	0.97329
3924.83104	0.97325
3922.77723	0.97307
3920.72342	0.97305
3918.66961	0.97315
3916.61580	0.97329
3914.56199	0.97334
3912.50818	0.97309
3910.45437	0.97277
3908.40056	0.97272
3906.34675	0.97296
3904.29294	0.97335
3902.23913	0.97349
3900.18532	0.97340
3898.13151	0.97328
3896.07770	0.97276
3894.02389	0.97235
3891.97008	0.97266
3889.91627	0.97331
3887.86246	0.97368
3885.80865	0.97352
3883.75484	0.97312
3881.70103	0.97286
3879.64722	0.97259
3877.59341	0.97266
3875.53960	0.97298
3873.48579	0.97310
3871.43198	0.97305
3869.37817	0.97287
3867.32436	0.97271
3865.27055	0.97267
3863.21674	0.97292
3861.16293	0.97344
3859.10912	0.97351
3857.05531	0.97320
3855.00150	0.97301
3852.94769	0.97317
3850.89388	0.97351
3848.84007	0.97340
3846.78626	0.97302
3844.73245	0.97283
3842.67864	0.97288
3840.62483	0.97292
3838.57102	0.97262
3836.51721	0.97225
3834.46340	0.97242
3832.40959	0.97271
3830.35578	0.97280
3828.30197	0.97292
3826.24816	0.97303
3824.19435	0.97314
3822.14054	0.97326
3820.08673	0.97321
3818.03292	0.97308
3815.97911	0.97311
3813.92530	0.97336
3811.87149	0.97355
3809.81768	0.97371
3807.76387	0.97379
3805.71006	0.97358
3803.65625	0.97340
3801.60244	0.97328
3799.54863	0.97324
3797.49482	0.97320
3795.44101	0.97309
3793.38720	0.97321
3791.33339	0.97368
3789.27958	0.97419
3787.22577	0.97414
3785.17196	0.97378
3783.11815	0.97373
3781.06434	0.97371
3779.01053	0.97350
3776.95672	0.97351
3774.90291	0.97355
3772.84910	0.97336
3770.79529	0.97327
3768.74148	0.97351
3766.68767	0.97384
3764.63386	0.97398
3762.58005	0.97405
3760.52624	0.97398
3758.47243	0.97372
3756.41862	0.97361
3754.36481	0.97363
3752.31100	0.97390
3750.25719	0.97467
3748.20338	0.97527
3746.14957	0.97512
3744.09576	0.97426
3742.04195	0.97384
3739.98814	0.97430
3737.93433	0.97484
3735.88052	0.97481
3733.82671	0.97460
3731.77290	0.97464
3729.71909	0.97458
3727.66528	0.97460
3725.61147	0.97489
3723.55766	0.97486
3721.50385	0.97414
3719.45004	0.97338
3717.39623	0.97336
3715.34242	0.97384
3713.28861	0.97389
3711.23480	0.97329
3709.18099	0.97287
3707.12718	0.97279
3705.07337	0.97286
3703.01956	0.97291
3700.96575	0.97282
3698.91194	0.97289
3696.85813	0.97295
3694.80432	0.97288
3692.75051	0.97271
3690.69670	0.97236
3688.64289	0.97213
3686.58907	0.97229
3684.53526	0.97259
3682.48145	0.97279
3680.42764	0.97261
3678.37383	0.97216
3676.32002	0.97216
3674.26621	0.97267
3672.21240	0.97295
3670.15859	0.97302
3668.10478	0.97289
3666.05097	0.97259
3663.99716	0.97253
3661.94335	0.97268
3659.88954	0.97263
3657.83573	0.97226
3655.78192	0.97193
3653.72811	0.97190
3651.67430	0.97176
3649.62049	0.97137
3647.56668	0.97104
3645.51287	0.97101
3643.45906	0.97115
3641.40525	0.97130
3639.35144	0.97142
3637.29763	0.97132
3635.24382	0.97113
3633.19001	0.97116
3631.13620	0.97102
3629.08239	0.97034
3627.02858	0.97003
3624.97477	0.97046
3622.92096	0.97085
3620.86715	0.97109
3618.81334	0.97153
3616.75953	0.97182
3614.70572	0.97152
3612.65191	0.97069
3610.59810	0.96977
3608.54429	0.96940
3606.49048	0.96959
3604.43667	0.96987
3602.38286	0.97014
3600.32905	0.97033
3598.27524	0.97023
3596.22143	0.97018
3594.16762	0.97039
3592.11381	0.97039
3590.06000	0.97025
3588.00619	0.97034
3585.95238	0.97058
3583.89857	0.97061
3581.84476	0.97064
3579.79095	0.97060
3577.73714	0.97020
3575.68333	0.96979
3573.62952	0.96962
3571.57571	0.96958
3569.52190	0.96968
3567.46809	0.96973
3565.41428	0.96948
3563.36047	0.96945
3561.30666	0.96979
3559.25285	0.97005
3557.19904	0.97007
3555.14523	0.97000
3553.09142	0.96994
3551.03761	0.96974
3548.98380	0.96942
3546.92999	0.96937
3544.87618	0.96957
3542.82237	0.96960
3540.76856	0.96941
3538.71475	0.96914
3536.66094	0.96887
3534.60713	0.96881
3532.55332	0.96900
3530.49951	0.96904
3528.44570	0.96886
3526.39189	0.96884
3524.33808	0.96896
3522.28427	0.96895
3520.23046	0.96870
3518.17665	0.96831
3516.12284	0.96805
3514.06903	0.96805
3512.01522	0.96822
3509.96141	0.96813
3507.90760	0.96764
3505.85379	0.96738
3503.79998	0.96755
3501.74617	0.96778
3499.69236	0.96791
3497.63855	0.96790
3495.58474	0.96770
3493.53093	0.96729
3491.47712	0.96679
3489.42331	0.96664
3487.36950	0.96672
3485.31569	0.96651
3483.26188	0.96630
3481.20807	0.96659
3479.15426	0.96695
3477.10045	0.96695
3475.04664	0.96688
3472.99283	0.96682
3470.93902	0.96664
3468.88521	0.96639
3466.83140	0.96625
3464.77759	0.96610
3462.72378	0.96572
3460.66997	0.96550
3458.61616	0.96579
3456.56235	0.96607
3454.50854	0.96617
3452.45473	0.96620
3450.40092	0.96597
3448.34711	0.96566
3446.29330	0.96550
3444.23949	0.96545
3442.18568	0.96539
3440.13187	0.96527
3438.07806	0.96529
3436.02425	0.96544
3433.97044	0.96552
3431.91663	0.96548
3429.86282	0.96542
3427.80901	0.96524
3425.75520	0.96495
3423.70139	0.96485
3421.64758	0.96497
3419.59377	0.96521
3417.53996	0.96538
3415.48615	0.96530
3413.43234	0.96507
3411.37853	0.96501
3409.32472	0.96510
3407.27091	0.96510
3405.21710	0.96510
3403.16329	0.96507
3401.10948	0.96478
3399.05567	0.96456
3397.00186	0.96480
3394.94805	0.96519
3392.89424	0.96528
3390.84042	0.96509
3388.78661	0.96475
3386.73280	0.96455
3384.67899	0.96468
3382.62518	0.96486
3380.57137	0.96481
3378.51756	0.96473
3376.46375	0.96472
3374.40994	0.96462
3372.35613	0.96444
3370.30232	0.96417
3368.24851	0.96392
3366.19470	0.96377
3364.14089	0.96375
3362.08708	0.96387
3360.03327	0.96413
3357.97946	0.96427
3355.92565	0.96423
3353.87184	0.96428
3351.81803	0.96441
3349.76422	0.96445
3347.71041	0.96417
3345.65660	0.96383
3343.60279	0.96373
3341.54898	0.96376
3339.49517	0.96401
3337.44136	0.96430
3335.38755	0.96446
3333.33374	0.96455
3331.27993	0.96445
3329.22612	0.96445
3327.17231	0.96460
3325.11850	0.96444
3323.06469	0.96427
3321.01088	0.96435
3318.95707	0.96445
3316.90326	0.96461
3314.84945	0.96469
3312.79564	0.96469
3310.74183	0.96474
3308.68802	0.96463
3306.63421	0.96439
3304.58040	0.96425
3302.52659	0.96420
3300.47278	0.96422
3298.41897	0.96423
3296.36516	0.96430
3294.31135	0.96440
3292.25754	0.96435
3290.20373	0.96425
3288.14992	0.96421
3286.09611	0.96429
3284.04230	0.96448
3281.98849	0.96464
3279.93468	0.96479
3277.88087	0.96506
3275.82706	0.96529
3273.77325	0.96519
3271.71944	0.96484
3269.66563	0.96471
3267.61182	0.96496
3265.55801	0.96526
3263.50420	0.96551
3261.45039	0.96575
3259.39658	0.96570
3257.34277	0.96537
3255.28896	0.96523
3253.23515	0.96534
3251.18134	0.96572
3249.12753	0.96621
3247.07372	0.96640
3245.01991	0.96622
3242.96610	0.96582
3240.91229	0.96545
3238.85848	0.96541
3236.80467	0.96564
3234.75086	0.96609
3232.69705	0.96667
3230.64324	0.96694
3228.58943	0.96682
3226.53562	0.96671
3224.48181	0.96667
3222.42800	0.96676
3220.37419	0.96695
3218.32038	0.96699
3216.26657	0.96702
3214.21276	0.96707
3212.15895	0.96687
3210.10514	0.96681
3208.05133	0.96717
3205.99752	0.96745
3203.94371	0.96750
3201.88990	0.96768
3199.83609	0.96798
3197.78228	0.96804
3195.72847	0.96774
3193.67466	0.96743
3191.62085	0.96736
3189.56704	0.96760
3187.51323	0.96805
3185.45942	0.96822
3183.40561	0.96801
3181.35180	0.96780
3179.29799	0.96777
3177.24418	0.96787
3175.19037	0.96823
3173.13656	0.96877
3171.08275	0.96910
3169.02894	0.96926
3166.97513	0.96930
3164.92132	0.96926
3162.86751	0.96929
3160.81370	0.96921
3158.75989	0.96898
3156.70608	0.96881
3154.65227	0.96875
3152.59846	0.96890
3150.54465	0.96916
3148.49084	0.96932
3146.43703	0.96925
3144.38322	0.96899
3142.32941	0.96872
3140.27560	0.96857
3138.22179	0.96871
3136.16798	0.96917
3134.11417	0.96970
3132.06036	0.97009
3130.00655	0.97018
3127.95274	0.97007
3125.89893	0.97007
3123.84512	0.97029
3121.79131	0.97040
3119.73750	0.97024
3117.68369	0.97004
3115.62988	0.97003
3113.57607	0.96994
3111.52226	0.96983
3109.46845	0.97005
3107.41464	0.97037
3105.36083	0.97048
3103.30702	0.97036
3101.25321	0.97004
3099.19940	0.96978
3097.14559	0.96976
3095.09177	0.96979
3093.03796	0.96962
3090.98415	0.96945
3088.93034	0.96932
3086.87653	0.96909
3084.82272	0.96881
3082.76891	0.96875
3080.71510	0.96894
3078.66129	0.96908
3076.60748	0.96909
3074.55367	0.96913
3072.49986	0.96932
3070.44605	0.96953
3068.39224	0.96966
3066.33843	0.96970
3064.28462	0.96969
3062.23081	0.96965
3060.17700	0.96971
3058.12319	0.97003
3056.06938	0.97036
3054.01557	0.97020
3051.96176	0.96973
3049.90795	0.96962
3047.85414	0.96986
3045.80033	0.96991
3043.74652	0.96974
3041.69271	0.96977
3039.63890	0.97002
3037.58509	0.97006
3035.53128	0.96978
3033.47747	0.96968
3031.42366	0.97005
3029.36985	0.97032
3027.31604	0.97021
3025.26223	0.97005
3023.20842	0.96991
3021.15461	0.96979
3019.10080	0.96982
3017.04699	0.96992
3014.99318	0.96986
3012.93937	0.96970
3010.88556	0.96984
3008.83175	0.97013
3006.77794	0.97008
3004.72413	0.96981
3002.67032	0.96971
3000.61651	0.96976
2998.56270	0.96987
2996.50889	0.96997
2994.45508	0.97002
2992.40127	0.96999
2990.34746	0.96983
2988.29365	0.96973
2986.23984	0.96969
2984.18603	0.96938
2982.13222	0.96870
2980.07841	0.96797
2978.02460	0.96756
2975.97079	0.96742
2973.91698	0.96712
2971.86317	0.96645
2969.80936	0.96535
2967.75555	0.96402
2965.70174	0.96282
2963.64793	0.96180
2961.59412	0.96077
2959.54031	0.95958
2957.48650	0.95799
2955.43269	0.95616
2953.37888	0.95461
2951.32507	0.95313
2949.27126	0.95098
2947.21745	0.94779
2945.16364	0.94351
2943.10983	0.93801
2941.05602	0.93078
2939.00221	0.92149
2936.94840	0.91037
2934.89459	0.89753
2932.84078	0.88249
2930.78697	0.86456
2928.73316	0.84336
2926.67935	0.81822
2924.62554	0.78780
2922.57173	0.75158
2920.51792	0.71116
2918.46411	0.67113
2916.41030	0.63999
2914.35649	0.62673
2912.30268	0.63356
2910.24887	0.65424
2908.19506	0.67996
2906.14125	0.70444
2904.08744	0.72483
2902.03363	0.74094
2899.97982	0.75386
2897.92601	0.76494
2895.87220	0.77521
2893.81839	0.78516
2891.76458	0.79508
2889.71077	0.80527
2887.65696	0.81584
2885.60315	0.82690
2883.54934	0.83850
2881.49553	0.85045
2879.44172	0.86240
2877.38791	0.87392
2875.33410	0.88441
2873.28029	0.89321
2871.22648	0.89966
2869.17267	0.90359
2867.11886	0.90494
2865.06505	0.90330
2863.01124	0.89820
2860.95743	0.88851
2858.90362	0.87227
2856.84981	0.84691
2854.79600	0.80910
2852.74219	0.75744
2850.68838	0.69911
2848.63457	0.65322
2846.58076	0.63920
2844.52695	0.65933
2842.47314	0.69915
2840.41933	0.74247
2838.36552	0.78031
2836.31171	0.81036
2834.25790	0.83343
2832.20409	0.85104
2830.15028	0.86477
2828.09647	0.87581
2826.04266	0.88480
2823.98885	0.89223
2821.93504	0.89842
2819.88123	0.90378
2817.82742	0.90860
2815.77361	0.91245
2813.71980	0.91548
2811.66599	0.91851
2809.61218	0.92138
2807.55837	0.92377
2805.50456	0.92603
2803.45075	0.92816
2801.39693	0.92998
2799.34312	0.93168
2797.28931	0.93343
2795.23550	0.93510
2793.18169	0.93649
2791.12788	0.93770
2789.07407	0.93906
2787.02026	0.94048
2784.96645	0.94167
2782.91264	0.94270
2780.85883	0.94375
2778.80502	0.94472
2776.75121	0.94548
2774.69740	0.94613
2772.64359	0.94665
2770.58978	0.94720
2768.53597	0.94805
2766.48216	0.94898
2764.42835	0.94963
2762.37454	0.95004
2760.32073	0.95041
2758.26692	0.95089
2756.21311	0.95134
2754.15930	0.95159
2752.10549	0.95179
2750.05168	0.95203
2747.99787	0.95222
2745.94406	0.95237
2743.89025	0.95273
2741.83644	0.95327
2739.78263	0.95356
2737.72882	0.95350
2735.67501	0.95360
2733.62120	0.95396
2731.56739	0.95421
2729.51358	0.95436
2727.45977	0.95459
2725.40596	0.95485
2723.35215	0.95498
2721.29834	0.95508
2719.24453	0.95540
2717.19072	0.95581
2715.13691	0.95615
2713.08310	0.95645
2711.02929	0.95653
2708.97548	0.95641
2706.92167	0.95639
2704.86786	0.95653
2702.81405	0.95672
2700.76024	0.95702
2698.70643	0.95740
2696.65262	0.95776
2694.59881	0.95795
2692.54500	0.95798
2690.49119	0.95789
2688.43738	0.95787
2686.38357	0.95810
2684.32976	0.95844
2682.27595	0.95864
2680.22214	0.95866
2678.16833	0.95857
2676.11452	0.95847
2674.06071	0.95827
2672.00690	0.95777
2669.95309	0.95732
2667.89928	0.95725
2665.84547	0.95732
2663.79166	0.95741
2661.73785	0.95745
2659.68404	0.95720
2657.63023	0.95695
2655.57642	0.95711
2653.52261	0.95744
2651.46880	0.95763
2649.41499	0.95773
2647.36118	0.95787
2645.30737	0.95813
2643.25356	0.95839
2641.19975	0.95836
2639.14594	0.95817
2637.09213	0.95812
2635.03832	0.95817
2632.98451	0.95825
2630.93070	0.95846
2628.87689	0.95877
2626.82308	0.95909
2624.76927	0.95941
2622.71546	0.95974
2620.66165	0.96001
2618.60784	0.96007
2616.55403	0.96003
2614.50022	0.96025
2612.44641	0.96077
2610.39260	0.96118
2608.33879	0.96133
2606.28498	0.96131
2604.23117	0.96129
2602.17736	0.96148
2600.12355	0.96188
2598.06974	0.96232
2596.01593	0.96244
2593.96212	0.96235
2591.90831	0.96259
2589.85450	0.96302
2587.80069	0.96318
2585.74688	0.96302
2583.69307	0.96292
2581.63926	0.96324
2579.58545	0.96362
2577.53164	0.96376
2575.47783	0.96384
2573.42402	0.96370
2571.37021	0.96351
2569.31640	0.96377
2567.26259	0.96400
2565.20878	0.96369
2563.15497	0.96355
2561.10116	0.96405
2559.04735	0.96463
2556.99354	0.96491
2554.93973	0.96499
2552.88592	0.96487
2550.83211	0.96464
2548.77830	0.96484
2546.72449	0.96542
2544.67068	0.96558
2542.61687	0.96521
2540.56306	0.96489
2538.50925	0.96514
2536.45544	0.96577
2534.40163	0.96625
2532.34782	0.96639
2530.29401	0.96607
2528.24020	0.96566
2526.18639	0.96559
2524.13258	0.96571
2522.07877	0.96572
2520.02496	0.96561
2517.97115	0.96584
2515.91734	0.96638
2513.86353	0.96673
2511.80972	0.96685
2509.75591	0.96691
2507.70210	0.96666
2505.64828	0.96612
2503.59447	0.96588
2501.54066	0.96608
2499.48685	0.96635
2497.43304	0.96635
2495.37923	0.96629
2493.32542	0.96641
2491.27161	0.96653
2489.21780	0.96645
2487.16399	0.96635
2485.11018	0.96653
2483.05637	0.96693
2481.00256	0.96697
2478.94875	0.96650
2476.89494	0.96625
2474.84113	0.96648
2472.78732	0.96647
2470.73351	0.96628
2468.67970	0.96645
2466.62589	0.96669
2464.57208	0.96693
2462.51827	0.96744
2460.46446	0.96780
2458.41065	0.96762
2456.35684	0.96732
2454.30303	0.96731
2452.24922	0.96731
2450.19541	0.96740
2448.14160	0.96766
2446.08779	0.96775
2444.03398	0.96774
2441.98017	0.96770
2439.92636	0.96737
2437.87255	0.96693
2435.81874	0.96679
2433.76493	0.96687
2431.71112	0.96691
2429.65731	0.96720
2427.60350	0.96784
2425.54969	0.96805
2423.49588	0.96767
2421.44207	0.96726
2419.38826	0.96702
2417.33445	0.96691
2415.28064	0.96689
2413.22683	0.96696
2411.17302	0.96729
2409.11921	0.96771
2407.06540	0.96802
2405.01159	0.96807
2402.95778	0.96794
2400.90397	0.96799
2398.85016	0.96811
2396.79635	0.96797
2394.74254	0.96777
2392.68873	0.96789
2390.63492	0.96826
2388.58111	0.96848
2386.52730	0.96823
2384.47349	0.96785
2382.41968	0.96799
2380.36587	0.96867
2378.31206	0.96915
2376.25825	0.96898
2374.20444	0.96879
2372.15063	0.96881
2370.09682	0.96835
2368.04301	0.96775
2365.98920	0.96792
2363.93539	0.96829
2361.88158	0.96843
2359.82777	0.96851
2357.77396	0.96776
2355.72015	0.96716
2353.66634	0.96769
2351.61253	0.96788
2349.55872	0.96747
2347.50491	0.96727
2345.45110	0.96719
2343.39729	0.96682
2341.34348	0.96627
2339.28967	0.96579
2337.23586	0.96563
2335.18205	0.96586
2333.12824	0.96637
2331.07443	0.96649
2329.02062	0.96583
2326.96681	0.96525
2324.91300	0.96487
2322.85919	0.96457
2320.80538	0.96493
2318.75157	0.96571
2316.69776	0.96621
2314.64395	0.96630
2312.59014	0.96651
2310.53633	0.96720
2308.48252	0.96745
2306.42871	0.96704
2304.37490	0.96695
2302.32109	0.96726
2300.26728	0.96748
2298.21347	0.96741
2296.15966	0.96719
2294.10585	0.96678
2292.05204	0.96628
2289.99823	0.96638
2287.94442	0.96682
2285.89061	0.96677
2283.83680	0.96662
2281.78299	0.96698
2279.72918	0.96760
2277.67537	0.96793
2275.62156	0.96819
2273.56775	0.96857
2271.51394	0.96874
2269.46013	0.96881
2267.40632	0.96873
2265.35251	0.96820
2263.29870	0.96785
2261.24489	0.96807
2259.19108	0.96833
2257.13727	0.96822
2255.08346	0.96794
2253.02965	0.96830
2250.97584	0.96931
2248.92203	0.96987
2246.86822	0.96942
2244.81441	0.96832
2242.76060	0.96771
2240.70679	0.96812
2238.65298	0.96848
2236.59917	0.96860
2234.54536	0.96888
2232.49155	0.96886
2230.43774	0.96830
2228.38393	0.96799
2226.33012	0.96860
2224.27631	0.96947
2222.22250	0.96969
2220.16869	0.96970
2218.11488	0.96986
2216.06107	0.96942
2214.00726	0.96884
2211.95344	0.96868
2209.89963	0.96827
2207.84582	0.96771
2205.79201	0.96754
2203.73820	0.96783
2201.68439	0.96861
2199.63058	0.96884
2197.57677	0.96869
2195.52296	0.96959
2193.46915	0.97037
2191.41534	0.96987
2189.36153	0.96923
2187.30772	0.96973
2185.25391	0.97004
2183.20010	0.96922
2181.14629	0.96904
2179.09248	0.97007
2177.03867	0.97129
2174.98486	0.97167
2172.93105	0.97084
2170.87724	0.96946
2168.82343	0.96894
2166.76962	0.97003
2164.71581	0.97091
2162.66200	0.96929
2160.60819	0.96746
2158.55438	0.96992
2156.50057	0.97393
2154.44676	0.97429
2152.39295	0.97269
2150.33914	0.97164
2148.28533	0.97102
2146.23152	0.97123
2144.17771	0.97173
2142.12390	0.97114
2140.07009	0.97027
2138.01628	0.97057
2135.96247	0.97177
2133.90866	0.97251
2131.85485	0.97236
2129.80104	0.97195
2127.74723	0.97157
2125.69342	0.97138
2123.63961	0.97114
2121.58580	0.97020
2119.53199	0.96942
2117.47818	0.96985
2115.42437	0.97076
2113.37056	0.97092
2111.31675	0.97020
2109.26294	0.96939
2107.20913	0.96900
2105.15532	0.96904
2103.10151	0.96955
2101.04770	0.96997
2098.99389	0.96983
2096.94008	0.97000
2094.88627	0.97053
2092.83246	0.97058
2090.77865	0.97027
2088.72484	0.96976
2086.67103	0.96971
2084.61722	0.97030
2082.56341	0.97040
2080.50960	0.97000
2078.45579	0.96936
2076.40198	0.96822
2074.34817	0.96774
2072.29436	0.96840
2070.24055	0.96909
2068.18674	0.96968
2066.13293	0.97018
2064.07912	0.97060
2062.02531	0.97124
2059.97150	0.97116
2057.91769	0.97000
2055.86388	0.96886
2053.81007	0.96840
2051.75626	0.96819
2049.70245	0.96844
2047.64864	0.96976
2045.59483	0.97080
2043.54102	0.97097
2041.48721	0.97114
2039.43340	0.97159
2037.37959	0.97230
2035.32578	0.97328
2033.27197	0.97405
2031.21816	0.97264
2029.16435	0.96967
2027.11054	0.96873
2025.05673	0.97011
2023.00292	0.97185
2020.94911	0.97262
2018.89530	0.97150
2016.84149	0.96938
2014.78768	0.96818
2012.73387	0.96801
2010.68006	0.96870
2008.62625	0.97049
2006.57244	0.97191
2004.51863	0.97257
2002.46482	0.97344
2000.41101	0.97366
1998.35720	0.97215
1996.30339	0.96961
1994.24958	0.96816
1992.19577	0.96850
1990.14196	0.96894
1988.08815	0.96868
1986.03434	0.96849
1983.98053	0.96871
1981.92672	0.96887
1979.87291	0.96915
1977.81910	0.97016
1975.76529	0.97100
1973.71148	0.97118
1971.65767	0.97184
1969.60386	0.97286
1967.55005	0.97263
1965.49624	0.97102
1963.44243	0.97023
1961.38862	0.97095
1959.33481	0.97192
1957.28100	0.97220
1955.22719	0.97178
1953.17338	0.97124
1951.11957	0.97071
1949.06576	0.97022
1947.01195	0.97005
1944.95814	0.96993
1942.90433	0.96957
1940.85052	0.96952
1938.79671	0.97030
1936.74290	0.97105
1934.68909	0.97085
1932.63528	0.97000
1930.58147	0.96938
1928.52766	0.96937
1926.47385	0.96943
1924.42004	0.96979
1922.36623	0.97049
1920.31242	0.97025
1918.25861	0.96929
1916.20479	0.96914
1914.15098	0.96972
1912.09717	0.97016
1910.04336	0.97000
1907.98955	0.96926
1905.93574	0.96893
1903.88193	0.96908
1901.82812	0.96897
1899.77431	0.96911
1897.72050	0.96956
1895.66669	0.96960
1893.61288	0.96940
1891.55907	0.96925
1889.50526	0.96921
1887.45145	0.96931
1885.39764	0.96914
1883.34383	0.96871
1881.29002	0.96868
1879.23621	0.96905
1877.18240	0.96946
1875.12859	0.96979
1873.07478	0.96989
1871.02097	0.96967
1868.96716	0.96929
1866.91335	0.96875
1864.85954	0.96839
1862.80573	0.96863
1860.75192	0.96908
1858.69811	0.96922
1856.64430	0.96943
1854.59049	0.96984
1852.53668	0.96981
1850.48287	0.96944
1848.42906	0.96892
1846.37525	0.96794
1844.32144	0.96749
1842.26763	0.96849
1840.21382	0.96919
1838.16001	0.96904
1836.10620	0.96901
1834.05239	0.96905
1831.99858	0.96880
1829.94477	0.96871
1827.89096	0.96894
1825.83715	0.96911
1823.78334	0.96905
1821.72953	0.96881
1819.67572	0.96857
1817.62191	0.96862
1815.56810	0.96896
1813.51429	0.96910
1811.46048	0.96880
1809.40667	0.96849
1807.35286	0.96824
1805.29905	0.96793
1803.24524	0.96790
1801.19143	0.96813
1799.13762	0.96808
1797.08381	0.96777
1795.03000	0.96751
1792.97619	0.96730
1790.92238	0.96710
1788.86857	0.96683
1786.81476	0.96649
1784.76095	0.96621
1782.70714	0.96617
1780.65333	0.96635
1778.59952	0.96636
1776.54571	0.96590
1774.49190	0.96523
1772.43809	0.96474
1770.38428	0.96460
1768.33047	0.96475
1766.27666	0.96480
1764.22285	0.96453
1762.16904	0.96410
1760.11523	0.96367
1758.06142	0.96310
1756.00761	0.96230
1753.95380	0.96149
1751.89999	0.96059
1749.84618	0.95939
1747.79237	0.95816
1745.73856	0.95713
1743.68475	0.95622
1741.63094	0.95556
1739.57713	0.95518
1737.52332	0.95513
1735.46951	0.95546
1733.41570	0.95597
1731.36189	0.95619
1729.30808	0.95616
1727.25427	0.95601
1725.20046	0.95570
1723.14665	0.95529
1721.09284	0.95479
1719.03903	0.95382
1716.98522	0.95222
1714.93141	0.95104
1712.87760	0.95090
1710.82379	0.95143
1708.76998	0.95209
1706.71617	0.95268
1704.66236	0.95323
1702.60855	0.95365
1700.55474	0.95366
1698.50093	0.95352
1696.44712	0.95393
1694.39331	0.95469
1692.33950	0.95532
1690.28569	0.95564
1688.23188	0.95553
1686.17807	0.95528
1684.12426	0.95501
1682.07045	0.95464
1680.01664	0.95425
1677.96283	0.95400
1675.90902	0.95388
1673.85521	0.95356
1671.80140	0.95297
1669.74759	0.95230
1667.69378	0.95191
1665.63997	0.95189
1663.58616	0.95187
1661.53235	0.95170
1659.47854	0.95150
1657.42473	0.95137
1655.37092	0.95142
1653.31711	0.95158
1651.26330	0.95157
1649.20949	0.95129
1647.15568	0.95082
1645.10187	0.95063
1643.04806	0.95075
1640.99425	0.95099
1638.94044	0.95139
1636.88663	0.95170
1634.83282	0.95197
1632.77901	0.95244
1630.72520	0.95282
1628.67139	0.95298
1626.61758	0.95305
1624.56377	0.95321
1622.50996	0.95356
1620.45614	0.95386
1618.40233	0.95400
1616.34852	0.95415
1614.29471	0.95438
1612.24090	0.95460
1610.18709	0.95474
1608.13328	0.95489
1606.07947	0.95518
1604.02566	0.95545
1601.97185	0.95552
1599.91804	0.95559
1597.86423	0.95578
1595.81042	0.95593
1593.75661	0.95605
1591.70280	0.95622
1589.64899	0.95638
1587.59518	0.95656
1585.54137	0.95673
1583.48756	0.95700
1581.43375	0.95740
1579.37994	0.95767
1577.32613	0.95769
1575.27232	0.95774
1573.21851	0.95800
1571.16470	0.95817
1569.11089	0.95821
1567.05708	0.95838
1565.00327	0.95867
1562.94946	0.95887
1560.89565	0.95889
1558.84184	0.95865
1556.78803	0.95819
1554.73422	0.95788
1552.68041	0.95778
1550.62660	0.95774
1548.57279	0.95765
1546.51898	0.95764
1544.46517	0.95763
1542.41136	0.95753
1540.35755	0.95764
1538.30374	0.95809
1536.24993	0.95834
1534.19612	0.95844
1532.14231	0.95859
1530.08850	0.95878
1528.03469	0.95895
1525.98088	0.95903
1523.92707	0.95899
1521.87326	0.95900
1519.81945	0.95937
1517.76564	0.95979
1515.71183	0.95995
1513.65802	0.96004
1511.60421	0.96025
1509.55040	0.96050
1507.49659	0.96065
1505.44278	0.96075
1503.38897	0.96089
1501.33516	0.96104
1499.28135	0.96113
1497.22754	0.96113
1495.17373	0.96087
1493.11992	0.96053
1491.06611	0.96014
1489.01230	0.95965
1486.95849	0.95914
1484.90468	0.95845
1482.85087	0.95704
1480.79706	0.95375
1478.74325	0.94489
1476.68944	0.91940
1474.63563	0.87006
1472.58182	0.82740
1470.52801	0.83076
1468.47420	0.85079
1466.42039	0.85492
1464.36658	0.83456
1462.31277	0.81792
1460.25896	0.83175
1458.20515	0.86853
1456.15134	0.90192
1454.09753	0.91553
1452.04372	0.92204
1449.98991	0.92675
1447.93610	0.92992
1445.88229	0.93207
1443.82848	0.93360
1441.77467	0.93470
1439.72086	0.93570
1437.66705	0.93702
1435.61324	0.93851
1433.55943	0.93965
1431.50562	0.94078
1429.45181	0.94200
1427.39800	0.94325
1425.34419	0.94461
1423.29038	0.94585
1421.23657	0.94648
1419.18276	0.94670
1417.12895	0.94694
1415.07514	0.94733
1413.02133	0.94776
1410.96752	0.94822
1408.91371	0.94872
1406.85990	0.94923
1404.80609	0.94988
1402.75228	0.95052
1400.69847	0.95096
1398.64466	0.95121
1396.59085	0.95130
1394.53704	0.95147
1392.48323	0.95180
1390.42942	0.95196
1388.37561	0.95182
1386.32180	0.95151
1384.26799	0.95115
1382.21418	0.95066
1380.16037	0.95021
1378.10656	0.94990
1376.05275	0.94940
1373.99894	0.94869
1371.94513	0.94799
1369.89132	0.94744
1367.83751	0.94723
1365.78370	0.94750
1363.72989	0.94808
1361.67608	0.94883
1359.62227	0.94942
1357.56846	0.94977
1355.51465	0.94992
1353.46084	0.94992
1351.40703	0.95000
1349.35322	0.95024
1347.29941	0.95054
1345.24560	0.95087
1343.19179	0.95139
1341.13798	0.95199
1339.08417	0.95239
1337.03036	0.95270
1334.97655	0.95302
1332.92274	0.95325
1330.86893	0.95334
1328.81512	0.95319
1326.76130	0.95283
1324.70749	0.95253
1322.65368	0.95241
1320.59987	0.95236
1318.54606	0.95217
1316.49225	0.95180
1314.43844	0.95135
1312.38463	0.95095
1310.33082	0.95068
1308.27701	0.95044
1306.22320	0.95011
1304.16939	0.94974
1302.11558	0.94955
1300.06177	0.94953
1298.00796	0.94948
1295.95415	0.94949
1293.90034	0.94968
1291.84653	0.94986
1289.79272	0.94982
1287.73891	0.94956
1285.68510	0.94916
1283.63129	0.94877
1281.57748	0.94859
1279.52367	0.94848
1277.46986	0.94824
1275.41605	0.94794
1273.36224	0.94769
1271.30843	0.94744
1269.25462	0.94697
1267.20081	0.94642
1265.14700	0.94607
1263.09319	0.94579
1261.03938	0.94557
1258.98557	0.94541
1256.93176	0.94522
1254.87795	0.94501
1252.82414	0.94481
1250.77033	0.94459
1248.71652	0.94439
1246.66271	0.94434
1244.60890	0.94442
1242.55509	0.94451
1240.50128	0.94448
1238.44747	0.94422
1236.39366	0.94393
1234.33985	0.94402
1232.28604	0.94435
1230.23223	0.94440
1228.17842	0.94414
1226.12461	0.94410
1224.07080	0.94424
1222.01699	0.94419
1219.96318	0.94400
1217.90937	0.94384
1215.85556	0.94377
1213.80175	0.94380
1211.74794	0.94385
1209.69413	0.94390
1207.64032	0.94388
1205.58651	0.94377
1203.53270	0.94364
1201.47889	0.94364
1199.42508	0.94376
1197.37127	0.94368
1195.31746	0.94349
1193.26365	0.94340
1191.20984	0.94339
1189.15603	0.94341
1187.10222	0.94329
1185.04841	0.94304
1182.99460	0.94272
1180.94079	0.94226
1178.88698	0.94178
1176.83317	0.94140
1174.77936	0.94109
1172.72555	0.94093
1170.67174	0.94088
1168.61793	0.94073
1166.56412	0.94049
1164.51031	0.94023
1162.45650	0.93991
1160.40269	0.93971
1158.34888	0.93967
1156.29507	0.93959
1154.24126	0.93949
1152.18745	0.93952
1150.13364	0.93950
1148.07983	0.93934
1146.02602	0.93918
1143.97221	0.93902
1141.91840	0.93875
1139.86459	0.93833
1137.81078	0.93799
1135.75697	0.93760
1133.70316	0.93676
1131.64935	0.93580
1129.59554	0.93507
1127.54173	0.93439
1125.48792	0.93363
1123.43411	0.93271
1121.38030	0.93167
1119.32649	0.93065
1117.27268	0.92961
1115.21887	0.92865
1113.16506	0.92798
1111.11125	0.92730
1109.05744	0.92622
1107.00363	0.92494
1104.94982	0.92406
1102.89601	0.92375
1100.84220	0.92360
1098.78839	0.92308
1096.73458	0.92208
1094.68077	0.92119
1092.62696	0.92053
1090.57315	0.91979
1088.51934	0.91923
1086.46553	0.91895
1084.41172	0.91844
1082.35791	0.91767
1080.30410	0.91724
1078.25029	0.91714
1076.19648	0.91696
1074.14267	0.91662
1072.08886	0.91618
1070.03505	0.91572
1067.98124	0.91528
1065.92743	0.91472
1063.87362	0.91403
1061.81981	0.91344
1059.76600	0.91305
1057.71219	0.91261
1055.65838	0.91172
1053.60457	0.91038
1051.55076	0.90885
1049.49695	0.90754
1047.44314	0.90665
1045.38933	0.90599
1043.33552	0.90530
1041.28171	0.90447
1039.22790	0.90387
1037.17409	0.90382
1035.12028	0.90400
1033.06647	0.90428
1031.01265	0.90479
1028.95884	0.90542
1026.90503	0.90594
1024.85122	0.90637
1022.79741	0.90694
1020.74360	0.90763
1018.68979	0.90847
1016.63598	0.90982
1014.58217	0.91133
1012.52836	0.91252
1010.47455	0.91366
1008.42074	0.91491
1006.36693	0.91613
1004.31312	0.91751
1002.25931	0.91912
1000.20550	0.92071
998.15169	0.92208
996.09788	0.92312
994.04407	0.92405
991.99026	0.92535
989.93645	0.92703
987.88264	0.92871
985.82883	0.93043
983.77502	0.93231
981.72121	0.93405
979.66740	0.93529
977.61359	0.93627
975.55978	0.93726
973.50597	0.93809
971.45216	0.93880
969.39835	0.93953
967.34454	0.94030
965.29073	0.94094
963.23692	0.94140
961.18311	0.94193
959.12930	0.94260
957.07549	0.94319
955.02168	0.94349
952.96787	0.94367
950.91406	0.94402
948.86025	0.94438
946.80644	0.94466
944.75263	0.94504
942.69882	0.94552
940.64501	0.94585
938.59120	0.94580
936.53739	0.94549
934.48358	0.94523
932.42977	0.94534
930.37596	0.94575
928.32215	0.94588
926.26834	0.94562
924.21453	0.94529
922.16072	0.94499
920.10691	0.94469
918.05310	0.94412
915.99929	0.94314
913.94548	0.94184
911.89167	0.94012
909.83786	0.93850
907.78405	0.93841
905.73024	0.94014
903.67643	0.94223
901.62262	0.94382
899.56881	0.94539
897.51500	0.94688
895.46119	0.94770
893.40738	0.94776
891.35357	0.94772
889.29976	0.94820
887.24595	0.94877
885.19214	0.94910
883.13833	0.94933
881.08452	0.94957
879.03071	0.94967
876.97690	0.94922
874.92309	0.94865
872.86928	0.94901
870.81547	0.94986
868.76166	0.95025
866.70785	0.95017
864.65404	0.94976
862.60023	0.94941
860.54642	0.94955
858.49261	0.94981
856.43880	0.94989
854.38499	0.95000
852.33118	0.95020
850.27737	0.95015
848.22356	0.94995
846.16975	0.95018
844.11594	0.95059
842.06213	0.95050
840.00832	0.95008
837.95451	0.94974
835.90070	0.94956
833.84689	0.94956
831.79308	0.94954
829.73927	0.94954
827.68546	0.94940
825.63165	0.94897
823.57784	0.94879
821.52403	0.94861
819.47022	0.94836
817.41641	0.94860
815.36260	0.94917
813.30879	0.94939
811.25498	0.94914
809.20117	0.94904
807.14736	0.94916
805.09355	0.94897
803.03974	0.94843
800.98593	0.94811
798.93212	0.94801
796.87831	0.94769
794.82450	0.94783
792.77069	0.94865
790.71688	0.94905
788.66307	0.94881
786.60926	0.94828
784.55545	0.94783
782.50164	0.94810
780.44783	0.94890
778.39402	0.94949
776.34021	0.94956
774.28640	0.94930
772.23259	0.94910
770.17878	0.94924
768.12497	0.94964
766.07116	0.94981
764.01735	0.94963
761.96354	0.94954
759.90973	0.94933
757.85592	0.94875
755.80211	0.94850
753.74830	0.94870
751.69449	0.94887
749.64068	0.94908
747.58687	0.94913
745.53306	0.94858
743.47925	0.94764
741.42544	0.94635
739.37163	0.94374
737.31781	0.93761
735.26400	0.92059
733.21019	0.88213
731.15638	0.83795
729.10257	0.82771
727.04876	0.85069
724.99495	0.86558
722.94114	0.84523
720.88733	0.79284
718.83352	0.75225
716.77971	0.76486
714.72590	0.81295
712.67209	0.85897
710.61828	0.88799
708.56447	0.90345
706.51066	0.91230
704.45685	0.91811
702.40304	0.92216
700.34923	0.92517
698.29542	0.92759
696.24161	0.92960
694.18780	0.93131
692.13399	0.93246
690.08018	0.93288
688.02637	0.93293
685.97256	0.93325
683.91875	0.93444
681.86494	0.93591
679.81113	0.93665
677.75732	0.93690
675.70351	0.93692
673.64970	0.93654
671.59589	0.93602
669.54208	0.93581
667.48827	0.93687
665.43446	0.93789
663.38065	0.93751
661.32684	0.93684
659.27303	0.93680
657.21922	0.93689
655.16541	0.93663
653.11160	0.93657
651.05779	0.93722
649.00398	0.93793
646.95017	0.93812
644.89636	0.93799
642.84255	0.93776
640.78874	0.93722
638.73493	0.93659
636.68112	0.93625
634.62731	0.93610
632.57350	0.93645
630.51969	0.93691
628.46588	0.93651
626.41207	0.93580
624.35826	0.93567
622.30445	0.93552
620.25064	0.93480
618.19683	0.93424
616.14302	0.93465
614.08921	0.93575
612.03540	0.93670
609.98159	0.93669
607.92778	0.93554
605.87397	0.93437
603.82016	0.93430
601.76635	0.93459
599.71254	0.93420
597.65873	0.93365
595.60492	0.93322
593.55111	0.93240
591.49730	0.93186
589.44349	0.93251
587.38968	0.93266
585.33587	0.93143
583.28206	0.93131
581.22825	0.93247
579.17444	0.93337
577.12063	0.93327
575.06682	0.93208
573.01301	0.93109
570.95920	0.93029
568.90539	0.92904
566.85158	0.92836
564.79777	0.92845
562.74396	0.92841
560.69015	0.92811
558.63634	0.92769
556.58253	0.92782
554.52872	0.92810
552.47491	0.92723
550.42110	0.92647
548.36729	0.92659
546.31348	0.92668
544.25967	0.92649
542.20586	0.92567
540.15205	0.92427
538.09824	0.92284
536.04443	0.92228
533.99062	0.92335
531.93681	0.92518
529.88300	0.92557
527.82919	0.92381
525.77538	0.92227
523.72157	0.92284
521.66776	0.92393
519.61395	0.92428
517.56014	0.92474
515.50633	0.92540
513.45252	0.92581
511.39871	0.92674
509.34490	0.92778
507.29109	0.92804
505.23728	0.92839
503.18347	0.92933
501.12966	0.93010
499.07585	0.92984
497.02204	0.92816
494.96823	0.92615
492.91442	0.92531
490.86061	0.92507
488.80680	0.92531
486.75299	0.92662
484.69918	0.92744
482.64537	0.92586
480.59156	0.92235
478.53775	0.91899
476.48394	0.91677
474.43013	0.91456
472.37632	0.91157
470.32251	0.90986
468.26870	0.91128
466.21489	0.91438
464.16108	0.91572
462.10727	0.91411
460.05346	0.91342
457.99965	0.91723
455.94584	0.92274
453.89203	0.92507
451.83822	0.92412
449.78441	0.92406
447.73060	0.92684
445.67679	0.92802
443.62298	0.92479
441.56916	0.92115
439.51535	0.92090
437.46154	0.92280
435.40773	0.92350
433.35392	0.92343
431.30011	0.92560
429.24630	0.92621
427.19249	0.92250
425.13868	0.91880
423.08487	0.91756
421.03106	0.91882
418.97725	0.92250
416.92344	0.92666
414.86963	0.92924
412.81582	0.93034
410.76201	0.93160
408.70820	0.93402
406.65439	0.93449
404.60058	0.93196
402.54677	0.93219
400.49296	0.93613
398.43915	0.93844
