3996.70104	0.95046
3994.64724	0.95003
3992.59344	0.94981
3990.53964	0.95039
3988.48583	0.95076
3986.43203	0.95024
3984.37823	0.94983
3982.32442	0.94986
3980.27062	0.94986
3978.21682	0.95007
3976.16301	0.95062
3974.10921	0.95102
3972.05541	0.95102
3970.00160	0.95065
3967.94780	0.95032
3965.89400	0.95055
3963.84019	0.95096
3961.78639	0.95096
3959.73259	0.95041
3957.67878	0.94967
3955.62498	0.94958
3953.57118	0.95024
3951.51737	0.95081
3949.46357	0.95108
3947.40977	0.95123
3945.35596	0.95106
3943.30216	0.95071
3941.24836	0.95053
3939.19455	0.95046
3937.14075	0.95060
3935.08695	0.95075
3933.03315	0.95036
3930.97934	0.95017
3928.92554	0.95066
3926.87174	0.95107
3924.81793	0.95114
3922.76413	0.95074
3920.71033	0.94989
3918.65652	0.94920
3916.60272	0.94930
3914.54892	0.95026
3912.49511	0.95118
3910.44131	0.95152
3908.38751	0.95175
3906.33370	0.95179
3904.27990	0.95117
3902.22610	0.95064
3900.17229	0.95034
3898.11849	0.94975
3896.06469	0.94964
3894.01088	0.95009
3891.95708	0.95031
3889.90328	0.95001
3887.84947	0.95010
3885.79567	0.95075
3883.74187	0.95126
3881.68807	0.95130
3879.63426	0.95077
3877.58046	0.95029
3875.52666	0.95042
3873.47285	0.95107
3871.41905	0.95190
3869.36525	0.95210
3867.31144	0.95124
3865.25764	0.95011
3863.20384	0.94951
3861.15003	0.94976
3859.09623	0.95044
3857.04243	0.95115
3854.98862	0.95179
3852.93482	0.95192
3850.88102	0.95145
3848.82721	0.95123
3846.77341	0.95118
3844.71961	0.95120
3842.66580	0.95144
3840.61200	0.95146
3838.55820	0.95113
3836.50439	0.95125
3834.45059	0.95162
3832.39679	0.95158
3830.34298	0.95146
3828.28918	0.95163
3826.23538	0.95153
3824.18158	0.95093
3822.12777	0.95064
3820.07397	0.95109
3818.02017	0.95123
3815.96636	0.95061
3813.91256	0.95032
3811.85876	0.95073
3809.80495	0.95108
3807.75115	0.95123
3805.69735	0.95174
3803.64354	0.95257
3801.58974	0.95242
3799.53594	0.95131
3797.48213	0.95098
3795.42833	0.95118
3793.37453	0.95131
3791.32072	0.95147
3789.26692	0.95161
3787.21312	0.95162
3785.15931	0.95166
3783.10551	0.95167
3781.05171	0.95166
3778.99790	0.95206
3776.94410	0.95266
3774.89030	0.95267
3772.83650	0.95241
3770.78269	0.95259
3768.72889	0.95257
3766.67509	0.95219
3764.62128	0.95195
3762.56748	0.95203
3760.51368	0.95268
3758.45987	0.95342
3756.40607	0.95362
3754.35227	0.95336
3752.29846	0.95304
3750.24466	0.95321
3748.19086	0.95373
3746.13705	0.95419
3744.08325	0.95439
3742.02945	0.95428
3739.97564	0.95392
3737.92184	0.95285
3735.86804	0.95137
3733.81423	0.95126
3731.76043	0.95210
3729.70663	0.95256
3727.65282	0.95216
3725.59902	0.95130
3723.54522	0.95109
3721.49141	0.95115
3719.43761	0.95105
3717.38381	0.95111
3715.33001	0.95097
3713.27620	0.95008
3711.22240	0.94815
3709.16860	0.94578
3707.11479	0.94395
3705.06099	0.94267
3703.00719	0.94150
3700.95338	0.93986
3698.89958	0.93827
3696.84578	0.93759
3694.79197	0.93771
3692.73817	0.93842
3690.68437	0.93958
3688.63056	0.94043
3686.57676	0.94102
3684.52296	0.94164
3682.46915	0.94181
3680.41535	0.94186
3678.36155	0.94180
3676.30774	0.94022
3674.25394	0.93789
3672.20014	0.93744
3670.14633	0.93770
3668.09253	0.93720
3666.03873	0.93616
3663.98492	0.93498
3661.93112	0.93401
3659.87732	0.93374
3657.82352	0.93415
3655.76971	0.93443
3653.71591	0.93403
3651.66211	0.93341
3649.60830	0.93180
3647.55450	0.92976
3645.50070	0.92970
3643.44689	0.93002
3641.39309	0.92965
3639.33929	0.92903
3637.28548	0.92822
3635.23168	0.92703
3633.17788	0.92603
3631.12407	0.92532
3629.07027	0.92371
3627.01647	0.92243
3624.96266	0.92262
3622.90886	0.92261
3620.85506	0.92199
3618.80125	0.92167
3616.74745	0.92246
3614.69365	0.92357
3612.63984	0.92369
3610.58604	0.92328
3608.53224	0.92343
3606.47844	0.92366
3604.42463	0.92372
3602.37083	0.92387
3600.31703	0.92404
3598.26322	0.92453
3596.20942	0.92501
3594.15562	0.92478
3592.10181	0.92454
3590.04801	0.92473
3587.99421	0.92483
3585.94040	0.92494
3583.88660	0.92516
3581.83280	0.92519
3579.77899	0.92512
3577.72519	0.92515
3575.67139	0.92514
3573.61758	0.92522
3571.56378	0.92561
3569.50998	0.92583
3567.45617	0.92539
3565.40237	0.92446
3563.34857	0.92348
3561.29476	0.92298
3559.24096	0.92276
3557.18716	0.92247
3555.13335	0.92257
3553.07955	0.92315
3551.02575	0.92379
3548.97195	0.92412
3546.91814	0.92361
3544.86434	0.92222
3542.81054	0.92111
3540.75673	0.92090
3538.70293	0.92127
3536.64913	0.92162
3534.59532	0.92188
3532.54152	0.92204
3530.48772	0.92188
3528.43391	0.92199
3526.38011	0.92240
3524.32631	0.92236
3522.27250	0.92212
3520.21870	0.92216
3518.16490	0.92259
3516.11109	0.92312
3514.05729	0.92292
3512.00349	0.92176
3509.94968	0.92084
3507.89588	0.92084
3505.84208	0.92077
3503.78827	0.92021
3501.73447	0.91995
3499.68067	0.92008
3497.62687	0.92007
3495.57306	0.92007
3493.51926	0.92029
3491.46546	0.92030
3489.41165	0.91997
3487.35785	0.91973
3485.30405	0.91988
3483.25024	0.92002
3481.19644	0.91969
3479.14264	0.91934
3477.08883	0.91957
3475.03503	0.91975
3472.98123	0.91934
3470.92742	0.91913
3468.87362	0.91912
3466.81982	0.91870
3464.76601	0.91802
3462.71221	0.91728
3460.65841	0.91687
3458.60460	0.91696
3456.55080	0.91679
3454.49700	0.91669
3452.44319	0.91720
3450.38939	0.91748
3448.33559	0.91720
3446.28178	0.91680
3444.22798	0.91655
3442.17418	0.91656
3440.12038	0.91670
3438.06657	0.91666
3436.01277	0.91644
3433.95897	0.91627
3431.90516	0.91631
3429.85136	0.91622
3427.79756	0.91582
3425.74375	0.91577
3423.68995	0.91633
3421.63615	0.91670
3419.58234	0.91648
3417.52854	0.91589
3415.47474	0.91494
3413.42093	0.91386
3411.36713	0.91335
3409.31333	0.91363
3407.25952	0.91408
3405.20572	0.91414
3403.15192	0.91421
3401.09811	0.91448
3399.04431	0.91437
3396.99051	0.91400
3394.93670	0.91396
3392.88290	0.91431
3390.82910	0.91465
3388.77529	0.91462
3386.72149	0.91415
3384.66769	0.91355
3382.61389	0.91323
3380.56008	0.91343
3378.50628	0.91407
3376.45248	0.91469
3374.39867	0.91470
3372.34487	0.91415
3370.29107	0.91363
3368.23726	0.91349
3366.18346	0.91359
3364.12966	0.91387
3362.07585	0.91433
3360.02205	0.91504
3357.96825	0.91552
3355.91444	0.91521
3353.86064	0.91472
3351.80684	0.91492
3349.75303	0.91549
3347.69923	0.91559
3345.64543	0.91555
3343.59162	0.91592
3341.53782	0.91625
3339.48402	0.91664
3337.43021	0.91702
3335.37641	0.91668
3333.32261	0.91610
3331.26881	0.91615
3329.21500	0.91634
3327.16120	0.91587
3325.10740	0.91509
3323.05359	0.91495
3320.99979	0.91570
3318.94599	0.91673
3316.89218	0.91732
3314.83838	0.91716
3312.78458	0.91681
3310.73077	0.91683
3308.67697	0.91717
3306.62317	0.91767
3304.56936	0.91808
3302.51556	0.91829
3300.46176	0.91824
3298.40795	0.91814
3296.35415	0.91819
3294.30035	0.91812
3292.24654	0.91790
3290.19274	0.91778
3288.13894	0.91778
3286.08513	0.91801
3284.03133	0.91852
3281.97753	0.91882
3279.92372	0.91873
3277.86992	0.91866
3275.81612	0.91865
3273.76232	0.91876
3271.70851	0.91904
3269.65471	0.91893
3267.60091	0.91873
3265.54710	0.91936
3263.49330	0.92031
3261.43950	0.92050
3259.38569	0.92002
3257.33189	0.91993
3255.27809	0.92039
3253.22428	0.92059
3251.17048	0.92044
3249.11668	0.92058
3247.06287	0.92082
3245.00907	0.92070
3242.95527	0.92051
3240.90146	0.92068
3238.84766	0.92101
3236.79386	0.92133
3234.74005	0.92189
3232.68625	0.92239
3230.63245	0.92234
3228.57864	0.92199
3226.52484	0.92173
3224.47104	0.92172
3222.41724	0.92185
3220.36343	0.92203
3218.30963	0.92216
3216.25583	0.92209
3214.20202	0.92232
3212.14822	0.92295
3210.09442	0.92318
3208.04061	0.92320
3205.98681	0.92361
3203.93301	0.92399
3201.87920	0.92402
3199.82540	0.92404
3197.77160	0.92438
3195.71779	0.92475
3193.66399	0.92501
3191.61019	0.92522
3189.55638	0.92545
3187.50258	0.92584
3185.44878	0.92589
3183.39497	0.92534
3181.34117	0.92495
3179.28737	0.92519
3177.23356	0.92567
3175.17976	0.92575
3173.12596	0.92589
3171.07215	0.92649
3169.01835	0.92683
3166.96455	0.92676
3164.91075	0.92661
3162.85694	0.92636
3160.80314	0.92622
3158.74934	0.92648
3156.69553	0.92731
3154.64173	0.92810
3152.58793	0.92834
3150.53412	0.92841
3148.48032	0.92841
3146.42652	0.92833
3144.37271	0.92836
3142.31891	0.92832
3140.26511	0.92813
3138.21130	0.92789
3136.15750	0.92781
3134.10370	0.92815
3132.04989	0.92879
3129.99609	0.92942
3127.94229	0.92978
3125.88848	0.92983
3123.83468	0.93008
3121.78088	0.93050
3119.72707	0.93047
3117.67327	0.93052
3115.61947	0.93085
3113.56566	0.93073
3111.51186	0.93031
3109.45806	0.92979
3107.40426	0.92918
3105.35045	0.92903
3103.29665	0.92925
3101.24285	0.92934
3099.18904	0.92929
3097.13524	0.92896
3095.08144	0.92859
3093.02763	0.92841
3090.97383	0.92795
3088.92003	0.92663
3086.86622	0.92434
3084.81242	0.92200
3082.75862	0.92075
3080.70481	0.92093
3078.65101	0.92226
3076.59721	0.92383
3074.54340	0.92483
3072.48960	0.92527
3070.43580	0.92524
3068.38199	0.92413
3066.32819	0.92198
3064.27439	0.91971
3062.22058	0.91804
3060.16678	0.91740
3058.11298	0.91787
3056.05918	0.91913
3054.00537	0.92096
3051.95157	0.92316
3049.89777	0.92515
3047.84396	0.92649
3045.79016	0.92721
3043.73636	0.92745
3041.68255	0.92749
3039.62875	0.92695
3037.57495	0.92513
3035.52114	0.92227
3033.46734	0.91873
3031.41354	0.91427
3029.35973	0.90881
3027.30593	0.90348
3025.25213	0.90041
3023.19832	0.90116
3021.14452	0.90547
3019.09072	0.91170
3017.03691	0.91771
3014.98311	0.92204
3012.92931	0.92471
3010.87550	0.92635
3008.82170	0.92738
3006.76790	0.92805
3004.71409	0.92842
3002.66029	0.92863
3000.60649	0.92883
2998.55269	0.92951
2996.49888	0.93059
2994.44508	0.93148
2992.39128	0.93234
2990.33747	0.93329
2988.28367	0.93408
2986.22987	0.93471
2984.17606	0.93513
2982.12226	0.93535
2980.06846	0.93546
2978.01465	0.93544
2975.96085	0.93533
2973.90705	0.93513
2971.85324	0.93487
2969.79944	0.93454
2967.74564	0.93366
2965.69183	0.93252
2963.63803	0.93192
2961.58423	0.93168
2959.53042	0.93129
2957.47662	0.93069
2955.42282	0.92998
2953.36901	0.92933
2951.31521	0.92838
2949.26141	0.92676
2947.20761	0.92500
2945.15380	0.92341
2943.10000	0.92140
2941.04620	0.91882
2938.99239	0.91584
2936.93859	0.91245
2934.88479	0.90847
2932.83098	0.90387
2930.77718	0.89932
2928.72338	0.89547
2926.66957	0.89213
2924.61577	0.88906
2922.56197	0.88675
2920.50816	0.88555
2918.45436	0.88553
2916.40056	0.88696
2914.34675	0.88947
2912.29295	0.89220
2910.23915	0.89468
2908.18534	0.89711
2906.13154	0.89988
2904.07774	0.90286
2902.02393	0.90564
2899.97013	0.90816
2897.91633	0.91060
2895.86252	0.91283
2893.80872	0.91470
2891.75492	0.91645
2889.70112	0.91814
2887.64731	0.91952
2885.59351	0.92058
2883.53971	0.92152
2881.48590	0.92230
2879.43210	0.92302
2877.37830	0.92389
2875.32449	0.92461
2873.27069	0.92501
2871.21689	0.92538
2869.16308	0.92597
2867.10928	0.92637
2865.05548	0.92618
2863.00167	0.92556
2860.94787	0.92447
2858.89407	0.92285
2856.84026	0.92077
2854.78646	0.91837
2852.73266	0.91616
2850.67885	0.91483
2848.62505	0.91494
2846.57125	0.91639
2844.51744	0.91847
2842.46364	0.92075
2840.40984	0.92364
2838.35603	0.92687
2836.30223	0.92937
2834.24843	0.93109
2832.19463	0.93256
2830.14082	0.93382
2828.08702	0.93499
2826.03322	0.93604
2823.97941	0.93661
2821.92561	0.93685
2819.87181	0.93724
2817.81800	0.93771
2815.76420	0.93790
2813.71040	0.93793
2811.65659	0.93823
2809.60279	0.93866
2807.54899	0.93876
2805.49518	0.93861
2803.44138	0.93852
2801.38758	0.93857
2799.33377	0.93887
2797.27997	0.93932
2795.22617	0.93959
2793.17236	0.93954
2791.11856	0.93953
2789.06476	0.94008
2787.01095	0.94090
2784.95715	0.94119
2782.90335	0.94104
2780.84955	0.94112
2778.79574	0.94141
2776.74194	0.94169
2774.68814	0.94193
2772.63433	0.94177
2770.58053	0.94125
2768.52673	0.94105
2766.47292	0.94126
2764.41912	0.94157
2762.36532	0.94199
2760.31151	0.94251
2758.25771	0.94292
2756.20391	0.94326
2754.15010	0.94334
2752.09630	0.94312
2750.04250	0.94291
2747.98869	0.94271
2745.93489	0.94235
2743.88109	0.94224
2741.82728	0.94266
2739.77348	0.94308
2737.71968	0.94326
2735.66587	0.94332
2733.61207	0.94325
2731.55827	0.94292
2729.50446	0.94254
2727.45066	0.94240
2725.39686	0.94246
2723.34306	0.94272
2721.28925	0.94310
2719.23545	0.94338
2717.18165	0.94357
2715.12784	0.94372
2713.07404	0.94389
2711.02024	0.94402
2708.96643	0.94389
2706.91263	0.94367
2704.85883	0.94364
2702.80502	0.94361
2700.75122	0.94363
2698.69742	0.94403
2696.64361	0.94435
2694.58981	0.94413
2692.53601	0.94395
2690.48220	0.94427
2688.42840	0.94471
2686.37460	0.94478
2684.32079	0.94455
2682.26699	0.94439
2680.21319	0.94441
2678.15938	0.94446
2676.10558	0.94446
2674.05178	0.94449
2671.99797	0.94444
2669.94417	0.94433
2667.89037	0.94419
2665.83657	0.94400
2663.78276	0.94393
2661.72896	0.94400
2659.67516	0.94417
2657.62135	0.94431
2655.56755	0.94450
2653.51375	0.94498
2651.45994	0.94539
2649.40614	0.94533
2647.35234	0.94511
2645.29853	0.94487
2643.24473	0.94475
2641.19093	0.94489
2639.13712	0.94510
2637.08332	0.94539
2635.02952	0.94578
2632.97571	0.94607
2630.92191	0.94605
2628.86811	0.94558
2626.81430	0.94495
2624.76050	0.94481
2622.70670	0.94524
2620.65289	0.94583
2618.59909	0.94642
2616.54529	0.94674
2614.49149	0.94651
2612.43768	0.94636
2610.38388	0.94662
2608.33008	0.94638
2606.27627	0.94582
2604.22247	0.94618
2602.16867	0.94719
2600.11486	0.94771
2598.06106	0.94757
2596.00726	0.94725
2593.95345	0.94727
2591.89965	0.94778
2589.84585	0.94806
2587.79204	0.94739
2585.73824	0.94624
2583.68444	0.94583
2581.63063	0.94645
2579.57683	0.94721
2577.52303	0.94744
2575.46922	0.94733
2573.41542	0.94739
2571.36162	0.94761
2569.30781	0.94761
2567.25401	0.94739
2565.20021	0.94715
2563.14640	0.94705
2561.09260	0.94720
2559.03880	0.94769
2556.98500	0.94825
2554.93119	0.94848
2552.87739	0.94831
2550.82359	0.94781
2548.76978	0.94757
2546.71598	0.94819
2544.66218	0.94915
2542.60837	0.94944
2540.55457	0.94902
2538.50077	0.94884
2536.44696	0.94893
2534.39316	0.94877
2532.33936	0.94873
2530.28555	0.94903
2528.23175	0.94950
2526.17795	0.94969
2524.12414	0.94903
2522.07034	0.94803
2520.01654	0.94768
2517.96273	0.94799
2515.90893	0.94831
2513.85513	0.94841
2511.80132	0.94844
2509.74752	0.94864
2507.69372	0.94882
2505.63992	0.94848
2503.58611	0.94766
2501.53231	0.94723
2499.47851	0.94790
2497.42470	0.94878
2495.37090	0.94883
2493.31710	0.94860
2491.26329	0.94879
2489.20949	0.94895
2487.15569	0.94875
2485.10188	0.94879
2483.04808	0.94944
2480.99428	0.94989
2478.94047	0.94962
2476.88667	0.94912
2474.83287	0.94885
2472.77906	0.94883
2470.72526	0.94899
2468.67146	0.94936
2466.61765	0.95001
2464.56385	0.95055
2462.51005	0.95034
2460.45624	0.94950
2458.40244	0.94905
2456.34864	0.94937
2454.29483	0.94987
2452.24103	0.94997
2450.18723	0.94971
2448.13343	0.94980
2446.07962	0.94994
2444.02582	0.94935
2441.97202	0.94854
2439.91821	0.94824
2437.86441	0.94864
2435.81061	0.94951
2433.75680	0.95039
2431.70300	0.95077
2429.64920	0.95073
2427.59539	0.95058
2425.54159	0.95028
2423.48779	0.95032
2421.43398	0.95073
2419.38018	0.95081
2417.32638	0.95074
2415.27257	0.95089
2413.21877	0.95117
2411.16497	0.95090
2409.11116	0.94995
2407.05736	0.94967
2405.00356	0.95009
2402.94975	0.95006
2400.89595	0.95004
2398.84215	0.95059
2396.78834	0.95121
2394.73454	0.95130
2392.68074	0.95072
2390.62694	0.95030
2388.57313	0.95061
2386.51933	0.95074
2384.46553	0.95035
2382.41172	0.95027
2380.35792	0.95036
2378.30412	0.95027
2376.25031	0.95069
2374.19651	0.95123
2372.14271	0.95092
2370.08890	0.95045
2368.03510	0.95051
2365.98130	0.95116
2363.92749	0.95164
2361.87369	0.95061
2359.81989	0.94894
2357.76608	0.94885
2355.71228	0.94999
2353.65848	0.95066
2351.60467	0.95061
2349.55087	0.94996
2347.49707	0.94897
2345.44326	0.94803
2343.38946	0.94733
2341.33566	0.94708
2339.28186	0.94743
2337.22805	0.94757
2335.17425	0.94712
2333.12045	0.94686
2331.06664	0.94731
2329.01284	0.94813
2326.95904	0.94806
2324.90523	0.94692
2322.85143	0.94640
2320.79763	0.94724
2318.74382	0.94882
2316.69002	0.95027
2314.63622	0.95043
2312.58241	0.94958
2310.52861	0.94942
2308.47481	0.94988
2306.42100	0.94948
2304.36720	0.94896
2302.31340	0.94939
2300.25959	0.94997
2298.20579	0.95044
2296.15199	0.95062
2294.09818	0.95025
2292.04438	0.94989
2289.99058	0.94967
2287.93677	0.94928
2285.88297	0.94893
2283.82917	0.94894
2281.77537	0.94883
2279.72156	0.94875
2277.66776	0.94957
2275.61396	0.95064
2273.56015	0.95109
2271.50635	0.95078
2269.45255	0.95067
2267.39874	0.95159
2265.34494	0.95216
2263.29114	0.95150
2261.23733	0.95090
2259.18353	0.95126
2257.12973	0.95163
2255.07592	0.95110
2253.02212	0.95051
2250.96832	0.95078
2248.91451	0.95173
2246.86071	0.95244
2244.80691	0.95261
2242.75310	0.95273
2240.69930	0.95259
2238.64550	0.95238
2236.59169	0.95241
2234.53789	0.95258
2232.48409	0.95258
2230.43029	0.95175
2228.37648	0.95073
2226.32268	0.95051
2224.26888	0.95070
2222.21507	0.95106
2220.16127	0.95248
2218.10747	0.95475
2216.05366	0.95561
2213.99986	0.95381
2211.94606	0.95136
2209.89225	0.95124
2207.83845	0.95279
2205.78465	0.95298
2203.73084	0.95235
2201.67704	0.95307
2199.62324	0.95486
2197.56943	0.95582
2195.51563	0.95463
2193.46183	0.95355
2191.40802	0.95410
2189.35422	0.95374
2187.30042	0.95256
2185.24661	0.95202
2183.19281	0.95132
2181.13901	0.95189
2179.08520	0.95426
2177.03140	0.95668
2174.97760	0.95952
2172.92380	0.96015
2170.86999	0.95633
2168.81619	0.95290
2166.76239	0.95271
2164.70858	0.95253
2162.65478	0.94937
2160.60098	0.94652
2158.54717	0.94972
2156.49337	0.95515
2154.43957	0.95621
2152.38576	0.95498
2150.33196	0.95546
2148.27816	0.95711
2146.22435	0.95710
2144.17055	0.95609
2142.11675	0.95529
2140.06294	0.95490
2138.00914	0.95567
2135.95534	0.95658
2133.90153	0.95712
2131.84773	0.95761
2129.79393	0.95739
2127.74012	0.95637
2125.68632	0.95553
2123.63252	0.95419
2121.57871	0.95201
2119.52491	0.95149
2117.47111	0.95266
2115.41731	0.95300
2113.36350	0.95304
2111.30970	0.95407
2109.25590	0.95484
2107.20209	0.95448
2105.14829	0.95364
2103.09449	0.95322
2101.04068	0.95413
2098.98688	0.95555
2096.93308	0.95573
2094.87927	0.95499
2092.82547	0.95435
2090.77167	0.95368
2088.71786	0.95317
2086.66406	0.95306
2084.61026	0.95310
2082.55645	0.95256
2080.50265	0.95194
2078.44885	0.95332
2076.39504	0.95600
2074.34124	0.95663
2072.28744	0.95438
2070.23363	0.95196
2068.17983	0.95136
2066.12603	0.95254
2064.07223	0.95432
2062.01842	0.95501
2059.96462	0.95473
2057.91082	0.95444
2055.85701	0.95446
2053.80321	0.95445
2051.74941	0.95337
2049.69560	0.95185
2047.64180	0.95226
2045.58800	0.95470
2043.53419	0.95585
2041.48039	0.95438
2039.42659	0.95305
2037.37278	0.95331
2035.31898	0.95461
2033.26518	0.95718
2031.21137	0.96027
2029.15757	0.96067
2027.10377	0.95756
2025.04996	0.95651
2022.99616	0.95943
2020.94236	0.96076
2018.88855	0.95889
2016.83475	0.95622
2014.78095	0.95353
2012.72714	0.95191
2010.67334	0.95215
2008.61954	0.95340
2006.56574	0.95526
2004.51193	0.95643
2002.45813	0.95531
2000.40433	0.95410
1998.35052	0.95444
1996.29672	0.95493
1994.24292	0.95511
1992.18911	0.95498
1990.13531	0.95464
1988.08151	0.95490
1986.02770	0.95657
1983.97390	0.95786
1981.92010	0.95538
1979.86629	0.95168
1977.81249	0.95188
1975.75869	0.95508
1973.70488	0.95743
1971.65108	0.95742
1969.59728	0.95682
1967.54347	0.95783
1965.48967	0.95920
1963.43587	0.95916
1961.38206	0.95877
1959.32826	0.95855
1957.27446	0.95887
1955.22066	0.95898
1953.16685	0.95723
1951.11305	0.95512
1949.05925	0.95357
1947.00544	0.95277
1944.95164	0.95316
1942.89784	0.95345
1940.84403	0.95287
1938.79023	0.95197
1936.73643	0.95188
1934.68262	0.95320
1932.62882	0.95461
1930.57502	0.95461
1928.52121	0.95372
1926.46741	0.95347
1924.41361	0.95436
1922.35980	0.95503
1920.30600	0.95437
1918.25220	0.95395
1916.19839	0.95482
1914.14459	0.95513
1912.09079	0.95467
1910.03698	0.95468
1907.98318	0.95473
1905.92938	0.95428
1903.87557	0.95342
1901.82177	0.95256
1899.76797	0.95259
1897.71417	0.95245
1895.66036	0.95151
1893.60656	0.95133
1891.55276	0.95177
1889.49895	0.95198
1887.44515	0.95220
1885.39135	0.95215
1883.33754	0.95152
1881.28374	0.95096
1879.22994	0.95091
1877.17613	0.95082
1875.12233	0.95014
1873.06853	0.94925
1871.01472	0.94903
1868.96092	0.94967
1866.90712	0.95056
1864.85331	0.95132
1862.79951	0.95192
1860.74571	0.95236
1858.69190	0.95227
1856.63810	0.95159
1854.58430	0.95147
1852.53049	0.95250
1850.47669	0.95354
1848.42289	0.95399
1846.36908	0.95422
1844.31528	0.95389
1842.26148	0.95314
1840.20768	0.95309
1838.15387	0.95365
1836.10007	0.95407
1834.04627	0.95408
1831.99246	0.95368
1829.93866	0.95303
1827.88486	0.95293
1825.83105	0.95347
1823.77725	0.95373
1821.72345	0.95339
1819.66964	0.95271
1817.61584	0.95222
1815.56204	0.95218
1813.50823	0.95194
1811.45443	0.95127
1809.40063	0.95060
1807.34682	0.95005
1805.29302	0.94971
1803.23922	0.94958
1801.18541	0.94936
1799.13161	0.94926
1797.07781	0.94968
1795.02400	0.95006
1792.97020	0.95001
1790.91640	0.95010
1788.86260	0.95038
1786.80879	0.95048
1784.75499	0.95072
1782.70119	0.95138
1780.64738	0.95206
1778.59358	0.95222
1776.53978	0.95207
1774.48597	0.95208
1772.43217	0.95218
1770.37837	0.95229
1768.32456	0.95230
1766.27076	0.95202
1764.21696	0.95167
1762.16315	0.95141
1760.10935	0.95084
1758.05555	0.94994
1756.00174	0.94923
1753.94794	0.94895
1751.89414	0.94851
1749.84033	0.94722
1747.78653	0.94568
1745.73273	0.94489
1743.67892	0.94465
1741.62512	0.94463
1739.57132	0.94472
1737.51751	0.94489
1735.46371	0.94524
1733.40991	0.94588
1731.35611	0.94643
1729.30230	0.94627
1727.24850	0.94574
1725.19470	0.94553
1723.14089	0.94544
1721.08709	0.94533
1719.03329	0.94556
1716.97948	0.94557
1714.92568	0.94489
1712.87188	0.94483
1710.81807	0.94534
1708.76427	0.94595
1706.71047	0.94605
1704.65666	0.94547
1702.60286	0.94499
1700.54906	0.94431
1698.49525	0.94346
1696.44145	0.94279
1694.38765	0.94156
1692.33384	0.94018
1690.28004	0.93885
1688.22624	0.93762
1686.17243	0.93645
1684.11863	0.93396
1682.06483	0.93010
1680.01103	0.92593
1677.95722	0.92049
1675.90342	0.91315
1673.84962	0.90719
1671.79581	0.90642
1669.74201	0.90827
1667.68821	0.90932
1665.63440	0.90916
1663.58060	0.90756
1661.52680	0.90432
1659.47299	0.90220
1657.41919	0.90305
1655.36539	0.90661
1653.31158	0.91294
1651.25778	0.91754
1649.20398	0.91912
1647.15017	0.92022
1645.09637	0.92079
1643.04257	0.92103
1640.98876	0.92125
1638.93496	0.92131
1636.88116	0.92079
1634.82735	0.92000
1632.77355	0.91966
1630.71975	0.91958
1628.66594	0.91983
1626.61214	0.92059
1624.55834	0.92124
1622.50454	0.92096
1620.45073	0.92031
1618.39693	0.92010
1616.34313	0.92013
1614.28932	0.92007
1612.23552	0.91953
1610.18172	0.91709
1608.12791	0.91111
1606.07411	0.90164
1604.02031	0.89027
1601.96650	0.88021
1599.91270	0.87579
1597.85890	0.87770
1595.80509	0.88285
1593.75129	0.88853
1591.69749	0.89524
1589.64368	0.90396
1587.58988	0.91165
1585.53608	0.91521
1583.48227	0.91631
1581.42847	0.91857
1579.37467	0.92242
1577.32086	0.92606
1575.26706	0.92803
1573.21326	0.92851
1571.15945	0.92792
1569.10565	0.92560
1567.05185	0.92251
1564.99805	0.91915
1562.94424	0.91575
1560.89044	0.91238
1558.83664	0.90673
1556.78283	0.90197
1554.72903	0.89953
1552.67523	0.89753
1550.62142	0.89724
1548.56762	0.89885
1546.51382	0.90167
1544.46001	0.90535
1542.40621	0.90855
1540.35241	0.90937
1538.29860	0.90815
1536.24480	0.90636
1534.19100	0.90186
1532.13719	0.89405
1530.08339	0.88632
1528.02959	0.87783
1525.97578	0.86793
1523.92198	0.85949
1521.86818	0.85152
1519.81437	0.84418
1517.76057	0.83943
1515.70677	0.83589
1513.65297	0.83381
1511.59916	0.83354
1509.54536	0.83532
1507.49156	0.84139
1505.43775	0.85142
1503.38395	0.85803
1501.33015	0.86166
1499.27634	0.86053
1497.22254	0.84468
1495.16874	0.81284
1493.11493	0.78645
1491.06113	0.77849
1489.00733	0.79351
1486.95352	0.81766
1484.89972	0.83623
1482.84592	0.85069
1480.79211	0.86392
1478.73831	0.87490
1476.68451	0.88306
1474.63070	0.88878
1472.57690	0.89252
1470.52310	0.89519
1468.46929	0.89728
1466.41549	0.89924
1464.36169	0.90103
1462.30788	0.90224
1460.25408	0.90196
1458.20028	0.89330
1456.14648	0.86496
1454.09267	0.83632
1452.03887	0.82003
1449.98507	0.81546
1447.93126	0.82002
1445.87746	0.83004
1443.82366	0.84359
1441.76985	0.85767
1439.71605	0.86909
1437.66225	0.87850
1435.60844	0.88691
1433.55464	0.89281
1431.50084	0.89741
1429.44703	0.90122
1427.39323	0.90353
1425.33943	0.90480
1423.28562	0.90581
1421.23182	0.90718
1419.17802	0.90912
1417.12421	0.91083
1415.07041	0.91217
1413.01661	0.91382
1410.96280	0.91580
1408.90900	0.91778
1406.85520	0.91952
1404.80139	0.92098
1402.74759	0.92197
1400.69379	0.92274
1398.63999	0.92363
1396.58618	0.92437
1394.53238	0.92447
1392.47858	0.92432
1390.42477	0.92421
1388.37097	0.92348
1386.31717	0.92218
1384.26336	0.92114
1382.20956	0.92016
1380.15576	0.91859
1378.10195	0.91665
1376.04815	0.91508
1373.99435	0.91445
1371.94054	0.91459
1369.88674	0.91462
1367.83294	0.91392
1365.77913	0.91192
1363.72533	0.90708
1361.67153	0.89968
1359.61772	0.89588
1357.56392	0.89865
1355.51012	0.90469
1353.45631	0.91035
1351.40251	0.91467
1349.34871	0.91784
1347.29491	0.92000
1345.24110	0.92161
1343.18730	0.92304
1341.13350	0.92409
1339.07969	0.92451
1337.02589	0.92450
1334.97209	0.92433
1332.91828	0.92373
1330.86448	0.92245
1328.81068	0.92100
1326.75687	0.91962
1324.70307	0.91792
1322.64927	0.91589
1320.59546	0.91361
1318.54166	0.91007
1316.48786	0.90385
1314.43405	0.89575
1312.38025	0.89020
1310.32645	0.89105
1308.27264	0.89678
1306.21884	0.90333
1304.16504	0.90832
1302.11123	0.91175
1300.05743	0.91412
1298.00363	0.91574
1295.94982	0.91662
1293.89602	0.91612
1291.84222	0.91365
1289.78842	0.90903
1287.73461	0.90290
1285.68081	0.89799
1283.62701	0.89711
1281.57320	0.89969
1279.51940	0.90292
1277.46560	0.90527
1275.41179	0.90698
1273.35799	0.90776
1271.30419	0.90689
1269.25038	0.90461
1267.19658	0.90206
1265.14278	0.90029
1263.08897	0.89928
1261.03517	0.89762
1258.98137	0.89427
1256.92756	0.88981
1254.87376	0.88523
1252.81996	0.88116
1250.76615	0.87853
1248.71235	0.87807
1246.65855	0.87913
1244.60474	0.88045
1242.55094	0.88190
1240.49714	0.88468
1238.44334	0.88930
1236.38953	0.89445
1234.33573	0.89900
1232.28193	0.90262
1230.22812	0.90477
1228.17432	0.90553
1226.12052	0.90573
1224.06671	0.90551
1222.01291	0.90435
1219.95911	0.90185
1217.90530	0.89795
1215.85150	0.89368
1213.79770	0.89077
1211.74389	0.89001
1209.69009	0.89034
1207.63629	0.89041
1205.58248	0.88992
1203.52868	0.88874
1201.47488	0.88648
1199.42107	0.88327
1197.36727	0.87965
1195.31347	0.87591
1193.25966	0.87151
1191.20586	0.86537
1189.15206	0.85683
1187.09825	0.84620
1185.04445	0.83518
1182.99065	0.82649
1180.93685	0.82196
1178.88304	0.82092
1176.82924	0.82213
1174.77544	0.82508
1172.72163	0.82845
1170.66783	0.83055
1168.61403	0.83083
1166.56022	0.83013
1164.50642	0.82922
1162.45262	0.82840
1160.39881	0.82737
1158.34501	0.82500
1156.29121	0.82163
1154.23740	0.81922
1152.18360	0.81847
1150.12980	0.81836
1148.07599	0.81799
1146.02219	0.81741
1143.96839	0.81659
1141.91458	0.81532
1139.86078	0.81384
1137.80698	0.81207
1135.75317	0.80986
1133.69937	0.80763
1131.64557	0.80510
1129.59176	0.80201
1127.53796	0.79860
1125.48416	0.79452
1123.43036	0.78956
1121.37655	0.78388
1119.32275	0.77768
1117.26895	0.77140
1115.21514	0.76515
1113.16134	0.75885
1111.10754	0.75286
1109.05373	0.74757
1106.99993	0.74300
1104.94613	0.73917
1102.89232	0.73586
1100.83852	0.73252
1098.78472	0.72885
1096.73091	0.72524
1094.67711	0.72214
1092.62331	0.71927
1090.56950	0.71636
1088.51570	0.71364
1086.46190	0.71142
1084.40809	0.70929
1082.35429	0.70663
1080.30049	0.70370
1078.24668	0.70075
1076.19288	0.69766
1074.13908	0.69413
1072.08528	0.69000
1070.03147	0.68538
1067.97767	0.68076
1065.92387	0.67646
1063.87006	0.67195
1061.81626	0.66757
1059.76246	0.66422
1057.70865	0.66122
1055.65485	0.65713
1053.60105	0.65100
1051.54724	0.64365
1049.49344	0.63717
1047.43964	0.63211
1045.38583	0.62689
1043.33203	0.62005
1041.27823	0.61197
1039.22442	0.60360
1037.17062	0.59499
1035.11682	0.58571
1033.06301	0.57529
1031.00921	0.56434
1028.95541	0.55529
1026.90160	0.54962
1024.84780	0.54691
1022.79400	0.54611
1020.74019	0.54587
1018.68639	0.54545
1016.63259	0.54473
1014.57879	0.54367
1012.52498	0.54249
1010.47118	0.54161
1008.41738	0.54105
1006.36357	0.54050
1004.30977	0.54003
1002.25597	0.54049
1000.20216	0.54276
998.14836	0.54652
996.09456	0.55099
994.04075	0.55572
991.98695	0.56025
989.93315	0.56470
987.87934	0.56989
985.82554	0.57598
983.77174	0.58267
981.71793	0.59019
979.66413	0.59881
977.61033	0.60859
975.55652	0.61953
973.50272	0.63091
971.44892	0.64161
969.39511	0.65152
967.34131	0.66104
965.28751	0.67002
963.23371	0.67829
961.17990	0.68603
959.12610	0.69287
957.07230	0.69787
955.01849	0.70063
952.96469	0.70200
950.91089	0.70373
948.85708	0.70735
946.80328	0.71329
944.74948	0.72029
942.69567	0.72685
940.64187	0.73292
938.58807	0.73861
936.53426	0.74373
934.48046	0.74857
932.42666	0.75310
930.37285	0.75716
928.31905	0.76041
926.26525	0.76241
924.21144	0.76329
922.15764	0.76290
920.10384	0.76099
918.05003	0.75791
915.99623	0.75434
913.94243	0.75124
911.88862	0.74924
909.83482	0.74840
907.78102	0.74933
905.72722	0.75376
903.67341	0.76238
901.61961	0.77341
899.56581	0.78456
897.51200	0.79479
895.45820	0.80360
893.40440	0.81116
891.35059	0.81831
889.29679	0.82482
887.24299	0.82987
885.18918	0.83375
883.13538	0.83696
881.08158	0.83868
879.02777	0.83886
876.97397	0.83950
874.92017	0.84150
872.86636	0.84380
870.81256	0.84620
868.75876	0.84957
866.70495	0.85364
864.65115	0.85679
862.59735	0.85900
860.54354	0.86215
858.48974	0.86600
856.43594	0.86925
854.38213	0.87173
852.32833	0.87297
850.27453	0.87269
848.22073	0.87115
846.16692	0.86891
844.11312	0.86684
842.05932	0.86497
840.00551	0.86308
837.95171	0.86169
835.89791	0.86114
833.84410	0.86098
831.79030	0.86149
829.73650	0.86324
827.68269	0.86497
825.62889	0.86524
823.57509	0.86480
821.52128	0.86548
819.46748	0.86668
817.41368	0.86604
815.35987	0.86354
813.30607	0.86068
811.25227	0.85772
809.19846	0.85403
807.14466	0.84911
805.09086	0.84329
803.03705	0.83798
800.98325	0.83428
798.92945	0.83286
796.87565	0.83403
794.82184	0.83665
792.76804	0.83911
790.71424	0.84004
788.66043	0.83856
786.60663	0.83553
784.55283	0.83170
782.49902	0.82718
780.44522	0.82265
778.39142	0.81825
776.33761	0.81364
774.28381	0.80856
772.23001	0.80157
770.17620	0.79037
768.12240	0.77487
766.06860	0.75800
764.01479	0.74196
761.96099	0.72604
759.90719	0.71036
757.85338	0.69868
755.79958	0.69345
753.74578	0.69203
751.69197	0.69137
749.63817	0.69229
747.58437	0.69778
745.53056	0.70936
743.47676	0.72601
741.42296	0.74532
739.36916	0.76487
737.31535	0.78284
735.26155	0.79815
733.20775	0.81056
731.15394	0.82063
729.10014	0.82864
727.04634	0.83474
724.99253	0.83960
722.93873	0.84387
720.88493	0.84808
718.83112	0.85207
716.77732	0.85414
714.72352	0.85295
712.66971	0.84750
710.61591	0.83525
708.56211	0.81189
706.50830	0.77336
704.45450	0.71876
702.40070	0.65183
700.34689	0.57809
698.29309	0.50550
696.23929	0.45419
694.18548	0.45186
692.13168	0.50108
690.07788	0.56948
688.02408	0.62596
685.97027	0.66502
683.91647	0.69337
681.86267	0.71595
679.80886	0.73356
677.75506	0.74587
675.70126	0.75472
673.64745	0.76191
671.59365	0.76721
669.53985	0.77107
667.48604	0.77558
665.43224	0.77942
663.37844	0.78200
661.32463	0.78430
659.27083	0.78589
657.21703	0.78635
655.16322	0.78604
653.10942	0.78596
651.05562	0.78696
649.00181	0.78825
646.94801	0.78869
644.89421	0.78988
642.84040	0.79267
640.78660	0.79535
638.73280	0.79722
636.67899	0.79868
634.62519	0.79976
632.57139	0.80019
630.51759	0.79982
628.46378	0.79867
626.40998	0.79582
624.35618	0.78977
622.30237	0.78257
620.24857	0.77902
618.19477	0.77974
616.14096	0.77976
614.08716	0.77751
612.03336	0.77646
609.97955	0.77729
607.92575	0.77863
605.87195	0.77921
603.81814	0.77721
601.76434	0.77302
599.71054	0.76945
597.65673	0.76740
595.60293	0.76591
593.54913	0.76441
591.49532	0.76273
589.44152	0.76150
587.38772	0.76055
585.33391	0.75938
583.28011	0.75726
581.22631	0.75297
579.17250	0.74794
577.11870	0.74329
575.06490	0.73813
573.01110	0.73308
570.95729	0.72823
568.90349	0.72164
566.84969	0.71347
564.79588	0.70594
562.74208	0.69818
560.68828	0.68755
558.63447	0.67461
556.58067	0.66329
554.52687	0.65591
552.47306	0.64914
550.41926	0.63997
548.36546	0.63029
546.31165	0.62057
544.25785	0.60959
542.20405	0.59699
540.15024	0.58277
538.09644	0.57145
536.04264	0.56729
533.98883	0.56819
531.93503	0.57133
529.88123	0.57650
527.82742	0.58425
525.77362	0.59328
523.71982	0.60013
521.66602	0.60446
519.61221	0.60965
517.55841	0.61760
515.50461	0.62568
513.45080	0.63222
511.39700	0.63923
509.34320	0.64636
507.28939	0.65175
505.23559	0.65578
503.18179	0.65900
501.12798	0.66173
499.07418	0.66350
497.02038	0.66291
494.96657	0.66044
492.91277	0.65868
490.85897	0.65635
488.80516	0.64848
486.75136	0.63470
484.69756	0.61856
482.64375	0.60424
480.58995	0.59203
478.53615	0.57790
476.48234	0.56248
474.42854	0.54946
472.37474	0.53884
470.32093	0.53209
468.26713	0.52918
466.21333	0.52685
464.15953	0.52839
462.10572	0.53663
460.05192	0.54771
457.99812	0.56041
455.94431	0.57315
453.89051	0.58217
451.83671	0.58859
449.78290	0.59359
447.72910	0.59830
445.67530	0.60455
443.62149	0.60878
441.56769	0.60556
439.51389	0.59814
437.46008	0.59085
435.40628	0.58368
433.35248	0.57970
431.29867	0.58207
429.24487	0.58747
427.19107	0.59250
425.13726	0.59770
423.08346	0.60217
421.02966	0.60519
418.97585	0.60876
416.92205	0.61518
414.86825	0.62296
412.81445	0.62930
410.76064	0.63284
408.70684	0.63435
406.65304	0.63557
404.59923	0.63948
402.54543	0.64662
400.49163	0.65375
398.43782	0.65629
