3996.70104	0.97694
3994.64724	0.97665
3992.59344	0.97698
3990.53964	0.97743
3988.48583	0.97720
3986.43203	0.97669
3984.37823	0.97649
3982.32442	0.97666
3980.27062	0.97681
3978.21682	0.97643
3976.16301	0.97607
3974.10921	0.97645
3972.05541	0.97678
3970.00160	0.97624
3967.94780	0.97557
3965.89400	0.97549
3963.84019	0.97570
3961.78639	0.97590
3959.73259	0.97618
3957.67878	0.97665
3955.62498	0.97686
3953.57118	0.97666
3951.51737	0.97639
3949.46357	0.97630
3947.40977	0.97660
3945.35596	0.97684
3943.30216	0.97680
3941.24836	0.97682
3939.19455	0.97673
3937.14075	0.97637
3935.08695	0.97617
3933.03315	0.97628
3930.97934	0.97659
3928.92554	0.97708
3926.87174	0.97704
3924.81793	0.97629
3922.76413	0.97612
3920.71033	0.97672
3918.65652	0.97700
3916.60272	0.97682
3914.54892	0.97628
3912.49511	0.97555
3910.44131	0.97527
3908.38751	0.97535
3906.33370	0.97534
3904.27990	0.97536
3902.22610	0.97585
3900.17229	0.97701
3898.11849	0.97782
3896.06469	0.97742
3894.01088	0.97665
3891.95708	0.97675
3889.90328	0.97743
3887.84947	0.97732
3885.79567	0.97664
3883.74187	0.97633
3881.68807	0.97652
3879.63426	0.97678
3877.58046	0.97648
3875.52666	0.97567
3873.47285	0.97572
3871.41905	0.97715
3869.36525	0.97801
3867.31144	0.97759
3865.25764	0.97720
3863.20384	0.97682
3861.15003	0.97642
3859.09623	0.97648
3857.04243	0.97671
3854.98862	0.97667
3852.93482	0.97643
3850.88102	0.97664
3848.82721	0.97707
3846.77341	0.97724
3844.71961	0.97699
3842.66580	0.97659
3840.61200	0.97619
3838.55820	0.97557
3836.50439	0.97503
3834.45059	0.97498
3832.39679	0.97536
3830.34298	0.97603
3828.28918	0.97660
3826.23538	0.97667
3824.18158	0.97671
3822.12777	0.97707
3820.07397	0.97738
3818.02017	0.97745
3815.96636	0.97732
3813.91256	0.97704
3811.85876	0.97678
3809.80495	0.97650
3807.75115	0.97624
3805.69735	0.97640
3803.64354	0.97674
3801.58974	0.97684
3799.53594	0.97696
3797.48213	0.97703
3795.42833	0.97708
3793.37453	0.97716
3791.32072	0.97735
3789.26692	0.97769
3787.21312	0.97780
3785.15931	0.97760
3783.10551	0.97729
3781.05171	0.97723
3778.99790	0.97750
3776.94410	0.97735
3774.89030	0.97673
3772.83650	0.97623
3770.78269	0.97580
3768.72889	0.97564
3766.67509	0.97613
3764.62128	0.97676
3762.56748	0.97727
3760.51368	0.97771
3758.45987	0.97787
3756.40607	0.97811
3754.35227	0.97890
3752.29846	0.97942
3750.24466	0.97845
3748.19086	0.97760
3746.13705	0.97803
3744.08325	0.97860
3742.02945	0.97813
3739.97564	0.97748
3737.92184	0.97709
3735.86804	0.97661
3733.81423	0.97557
3731.76043	0.97509
3729.70663	0.97556
3727.65282	0.97594
3725.59902	0.97566
3723.54522	0.97518
3721.49141	0.97513
3719.43761	0.97461
3717.38381	0.97262
3715.33001	0.96993
3713.27620	0.96748
3711.22240	0.96477
3709.16860	0.96175
3707.11479	0.95901
3705.06099	0.95603
3703.00719	0.95263
3700.95338	0.94922
3698.89958	0.94694
3696.84578	0.94670
3694.79197	0.94831
3692.73817	0.95048
3690.68437	0.95213
3688.63056	0.95398
3686.57676	0.95607
3684.52296	0.95729
3682.46915	0.95782
3680.41535	0.95812
3678.36155	0.95786
3676.30774	0.95651
3674.25394	0.95535
3672.20014	0.95521
3670.14633	0.95456
3668.09253	0.95368
3666.03873	0.95338
3663.98492	0.95292
3661.93112	0.95168
3659.87732	0.95007
3657.82352	0.94881
3655.76971	0.94798
3653.71591	0.94778
3651.66211	0.94796
3649.60830	0.94833
3647.55450	0.94855
3645.50070	0.94734
3643.44689	0.94571
3641.39309	0.94457
3639.33929	0.94377
3637.28548	0.94300
3635.23168	0.94216
3633.17788	0.94117
3631.12407	0.93963
3629.07027	0.93719
3627.01647	0.93564
3624.96266	0.93560
3622.90886	0.93526
3620.85506	0.93409
3618.80125	0.93307
3616.74745	0.93313
3614.69365	0.93344
3612.63984	0.93363
3610.58604	0.93392
3608.53224	0.93402
3606.47844	0.93396
3604.42463	0.93406
3602.37083	0.93391
3600.31703	0.93339
3598.26322	0.93321
3596.20942	0.93326
3594.15562	0.93296
3592.10181	0.93271
3590.04801	0.93239
3587.99421	0.93126
3585.94040	0.92965
3583.88660	0.92843
3581.83280	0.92755
3579.77899	0.92719
3577.72519	0.92716
3575.67139	0.92627
3573.61758	0.92435
3571.56378	0.92269
3569.50998	0.92194
3567.45617	0.92132
3565.40237	0.92001
3563.34857	0.91848
3561.29476	0.91685
3559.24096	0.91512
3557.18716	0.91364
3555.13335	0.91226
3553.07955	0.91066
3551.02575	0.90961
3548.97195	0.90940
3546.91814	0.90875
3544.86434	0.90733
3542.81054	0.90646
3540.75673	0.90638
3538.70293	0.90650
3536.64913	0.90663
3534.59532	0.90688
3532.54152	0.90749
3530.48772	0.90806
3528.43391	0.90838
3526.38011	0.90871
3524.32631	0.90903
3522.27250	0.90963
3520.21870	0.91049
3518.16490	0.91120
3516.11109	0.91188
3514.05729	0.91267
3512.00349	0.91331
3509.94968	0.91388
3507.89588	0.91440
3505.84208	0.91465
3503.78827	0.91500
3501.73447	0.91539
3499.68067	0.91526
3497.62687	0.91485
3495.57306	0.91447
3493.51926	0.91410
3491.46546	0.91399
3489.41165	0.91444
3487.35785	0.91519
3485.30405	0.91554
3483.25024	0.91575
3481.19644	0.91630
3479.14264	0.91676
3477.08883	0.91658
3475.03503	0.91597
3472.98123	0.91573
3470.92742	0.91591
3468.87362	0.91570
3466.81982	0.91513
3464.76601	0.91486
3462.71221	0.91462
3460.65841	0.91413
3458.60460	0.91390
3456.55080	0.91381
3454.49700	0.91340
3452.44319	0.91300
3450.38939	0.91299
3448.33559	0.91295
3446.28178	0.91265
3444.22798	0.91233
3442.17418	0.91149
3440.12038	0.91031
3438.06657	0.90977
3436.01277	0.90946
3433.95897	0.90877
3431.90516	0.90812
3429.85136	0.90778
3427.79756	0.90747
3425.74375	0.90678
3423.68995	0.90544
3421.63615	0.90362
3419.58234	0.90196
3417.52854	0.90082
3415.47474	0.89978
3413.42093	0.89847
3411.36713	0.89726
3409.31333	0.89655
3407.25952	0.89624
3405.20572	0.89596
3403.15192	0.89558
3401.09811	0.89536
3399.04431	0.89555
3396.99051	0.89626
3394.93670	0.89715
3392.88290	0.89770
3390.82910	0.89839
3388.77529	0.90001
3386.72149	0.90168
3384.66769	0.90228
3382.61389	0.90262
3380.56008	0.90354
3378.50628	0.90469
3376.45248	0.90576
3374.39867	0.90664
3372.34487	0.90700
3370.29107	0.90710
3368.23726	0.90761
3366.18346	0.90802
3364.12966	0.90809
3362.07585	0.90864
3360.02205	0.90957
3357.96825	0.91026
3355.91444	0.91071
3353.86064	0.91106
3351.80684	0.91137
3349.75303	0.91145
3347.69923	0.91119
3345.64543	0.91115
3343.59162	0.91170
3341.53782	0.91218
3339.48402	0.91230
3337.43021	0.91241
3335.37641	0.91247
3333.32261	0.91274
3331.26881	0.91354
3329.21500	0.91422
3327.16120	0.91436
3325.10740	0.91463
3323.05359	0.91534
3320.99979	0.91594
3318.94599	0.91648
3316.89218	0.91699
3314.83838	0.91714
3312.78458	0.91706
3310.73077	0.91686
3308.67697	0.91696
3306.62317	0.91742
3304.56936	0.91773
3302.51556	0.91803
3300.46176	0.91842
3298.40795	0.91855
3296.35415	0.91874
3294.30035	0.91917
3292.24654	0.91976
3290.19274	0.92037
3288.13894	0.92044
3286.08513	0.92034
3284.03133	0.92078
3281.97753	0.92115
3279.92372	0.92091
3277.86992	0.92065
3275.81612	0.92075
3273.76232	0.92115
3271.70851	0.92176
3269.65471	0.92207
3267.60091	0.92205
3265.54710	0.92244
3263.49330	0.92328
3261.43950	0.92360
3259.38569	0.92319
3257.33189	0.92291
3255.27809	0.92314
3253.22428	0.92375
3251.17048	0.92411
3249.11668	0.92391
3247.06287	0.92379
3245.00907	0.92421
3242.95527	0.92508
3240.90146	0.92603
3238.84766	0.92689
3236.79386	0.92755
3234.74005	0.92790
3232.68625	0.92828
3230.63245	0.92877
3228.57864	0.92902
3226.52484	0.92920
3224.47104	0.92972
3222.41724	0.93044
3220.36343	0.93102
3218.30963	0.93106
3216.25583	0.93065
3214.20202	0.93087
3212.14822	0.93184
3210.09442	0.93247
3208.04061	0.93275
3205.98681	0.93327
3203.93301	0.93390
3201.87920	0.93425
3199.82540	0.93446
3197.77160	0.93466
3195.71779	0.93490
3193.66399	0.93543
3191.61019	0.93628
3189.55638	0.93700
3187.50258	0.93720
3185.44878	0.93742
3183.39497	0.93800
3181.34117	0.93834
3179.28737	0.93817
3177.23356	0.93805
3175.17976	0.93858
3173.12596	0.93945
3171.07215	0.94012
3169.01835	0.94080
3166.96455	0.94157
3164.91075	0.94199
3162.85694	0.94191
3160.80314	0.94168
3158.74934	0.94187
3156.69553	0.94263
3154.64173	0.94349
3152.58793	0.94420
3150.53412	0.94502
3148.48032	0.94561
3146.42652	0.94576
3144.37271	0.94622
3142.31891	0.94671
3140.26511	0.94646
3138.21130	0.94631
3136.15750	0.94701
3134.10370	0.94791
3132.04989	0.94835
3129.99609	0.94828
3127.94229	0.94819
3125.88848	0.94847
3123.83468	0.94889
3121.78088	0.94922
3119.72707	0.94961
3117.67327	0.95015
3115.61947	0.95062
3113.56566	0.95087
3111.51186	0.95112
3109.45806	0.95136
3107.40426	0.95130
3105.35045	0.95116
3103.29665	0.95128
3101.24285	0.95144
3099.18904	0.95173
3097.13524	0.95206
3095.08144	0.95200
3093.02763	0.95196
3090.97383	0.95239
3088.92003	0.95282
3086.86622	0.95285
3084.81242	0.95276
3082.75862	0.95281
3080.70481	0.95307
3078.65101	0.95346
3076.59721	0.95368
3074.54340	0.95381
3072.48960	0.95421
3070.43580	0.95465
3068.38199	0.95499
3066.32819	0.95530
3064.27439	0.95538
3062.22058	0.95542
3060.16678	0.95540
3058.11298	0.95505
3056.05918	0.95496
3054.00537	0.95541
3051.95157	0.95600
3049.89777	0.95653
3047.84396	0.95687
3045.79016	0.95713
3043.73636	0.95747
3041.68255	0.95754
3039.62875	0.95740
3037.57495	0.95764
3035.52114	0.95811
3033.46734	0.95808
3031.41354	0.95757
3029.35973	0.95744
3027.30593	0.95796
3025.25213	0.95836
3023.19832	0.95843
3021.14452	0.95857
3019.09072	0.95879
3017.03691	0.95893
3014.98311	0.95892
3012.92931	0.95877
3010.87550	0.95853
3008.82170	0.95841
3006.76790	0.95870
3004.71409	0.95915
3002.66029	0.95928
3000.60649	0.95912
2998.55269	0.95902
2996.49888	0.95892
2994.44508	0.95868
2992.39128	0.95814
2990.33747	0.95745
2988.28367	0.95725
2986.22987	0.95729
2984.17606	0.95694
2982.12226	0.95631
2980.06846	0.95533
2978.01465	0.95421
2975.96085	0.95350
2973.90705	0.95275
2971.85324	0.95168
2969.79944	0.95044
2967.74564	0.94895
2965.69183	0.94720
2963.63803	0.94512
2961.58423	0.94284
2959.53042	0.94076
2957.47662	0.93909
2955.42282	0.93753
2953.36901	0.93559
2951.31521	0.93326
2949.26141	0.93061
2947.20761	0.92725
2945.15380	0.92230
2943.10000	0.91494
2941.04620	0.90554
2938.99239	0.89464
2936.93859	0.88160
2934.88479	0.86584
2932.83098	0.84732
2930.77718	0.82553
2928.72338	0.79995
2926.66957	0.76973
2924.61577	0.73314
2922.56197	0.68983
2920.50816	0.64253
2918.45436	0.59733
2916.40056	0.56361
2914.34675	0.55117
2912.29295	0.56305
2910.23915	0.59175
2908.18534	0.62579
2906.13154	0.65762
2904.07774	0.68443
2902.02393	0.70590
2899.97013	0.72313
2897.91633	0.73766
2895.86252	0.75078
2893.80872	0.76337
2891.75492	0.77567
2889.70112	0.78792
2887.64731	0.80076
2885.59351	0.81431
2883.53971	0.82793
2881.48590	0.84130
2879.43210	0.85438
2877.37830	0.86683
2875.32449	0.87785
2873.27069	0.88646
2871.21689	0.89245
2869.16308	0.89579
2867.10928	0.89597
2865.05548	0.89271
2863.00167	0.88548
2860.94787	0.87270
2858.89407	0.85172
2856.84026	0.81911
2854.78646	0.77125
2852.73266	0.70773
2850.67885	0.63918
2848.62505	0.59025
2846.57125	0.58312
2844.51744	0.61651
2842.46364	0.67005
2840.40984	0.72457
2838.35603	0.77069
2836.30223	0.80644
2834.24843	0.83321
2832.19463	0.85337
2830.14082	0.86903
2828.08702	0.88139
2826.03322	0.89131
2823.97941	0.89949
2821.92561	0.90638
2819.87181	0.91236
2817.81800	0.91750
2815.76420	0.92179
2813.71040	0.92538
2811.65659	0.92850
2809.60279	0.93131
2807.54899	0.93382
2805.49518	0.93593
2803.44138	0.93769
2801.38758	0.93933
2799.33377	0.94087
2797.27997	0.94221
2795.22617	0.94357
2793.17236	0.94512
2791.11856	0.94672
2789.06476	0.94814
2787.01095	0.94926
2784.95715	0.95030
2782.90335	0.95141
2780.84955	0.95240
2778.79574	0.95325
2776.74194	0.95390
2774.68814	0.95442
2772.63433	0.95514
2770.58053	0.95593
2768.52673	0.95653
2766.47292	0.95707
2764.41912	0.95777
2762.36532	0.95848
2760.31151	0.95899
2758.25771	0.95928
2756.20391	0.95934
2754.15010	0.95948
2752.09630	0.95997
2750.04250	0.96026
2747.98869	0.96013
2745.93489	0.96021
2743.88109	0.96082
2741.82728	0.96125
2739.77348	0.96129
2737.71968	0.96140
2735.66587	0.96178
2733.61207	0.96219
2731.55827	0.96213
2729.50446	0.96188
2727.45066	0.96190
2725.39686	0.96213
2723.34306	0.96249
2721.28925	0.96293
2719.23545	0.96333
2717.18165	0.96349
2715.12784	0.96355
2713.07404	0.96383
2711.02024	0.96416
2708.96643	0.96437
2706.91263	0.96461
2704.85883	0.96487
2702.80502	0.96508
2700.75122	0.96543
2698.69742	0.96577
2696.64361	0.96591
2694.58981	0.96592
2692.53601	0.96594
2690.48220	0.96619
2688.42840	0.96653
2686.37460	0.96656
2684.32079	0.96633
2682.26699	0.96607
2680.21319	0.96584
2678.15938	0.96558
2676.10558	0.96526
2674.05178	0.96515
2671.99797	0.96541
2669.94417	0.96571
2667.89037	0.96568
2665.83657	0.96535
2663.78276	0.96513
2661.72896	0.96529
2659.67516	0.96549
2657.62135	0.96549
2655.56755	0.96544
2653.51375	0.96555
2651.45994	0.96572
2649.40614	0.96595
2647.35234	0.96645
2645.29853	0.96683
2643.24473	0.96657
2641.19093	0.96587
2639.13712	0.96558
2637.08332	0.96590
2635.02952	0.96607
2632.97571	0.96597
2630.92191	0.96616
2628.86811	0.96675
2626.81430	0.96751
2624.76050	0.96824
2622.70670	0.96853
2620.65289	0.96822
2618.59909	0.96782
2616.54529	0.96778
2614.49149	0.96823
2612.43768	0.96894
2610.38388	0.96963
2608.33008	0.97010
2606.27627	0.97007
2604.22247	0.97022
2602.16867	0.97107
2600.11486	0.97170
2598.06106	0.97166
2596.00726	0.97180
2593.95345	0.97209
2591.89965	0.97163
2589.84585	0.97133
2587.79204	0.97202
2585.73824	0.97275
2583.68444	0.97289
2581.63063	0.97278
2579.57683	0.97269
2577.52303	0.97242
2575.46922	0.97234
2573.41542	0.97303
2571.36162	0.97397
2569.30781	0.97419
2567.25401	0.97408
2565.20021	0.97441
2563.14640	0.97471
2561.09260	0.97461
2559.03880	0.97448
2556.98500	0.97419
2554.93119	0.97384
2552.87739	0.97385
2550.82359	0.97380
2548.76978	0.97352
2546.71598	0.97377
2544.66218	0.97465
2542.60837	0.97519
2540.55457	0.97510
2538.50077	0.97510
2536.44696	0.97529
2534.39316	0.97504
2532.33936	0.97452
2530.28555	0.97436
2528.23175	0.97440
2526.17795	0.97457
2524.12414	0.97521
2522.07034	0.97596
2520.01654	0.97609
2517.96273	0.97555
2515.90893	0.97480
2513.85513	0.97445
2511.80132	0.97486
2509.74752	0.97532
2507.69372	0.97557
2505.63992	0.97599
2503.58611	0.97611
2501.53231	0.97576
2499.47851	0.97554
2497.42470	0.97561
2495.37090	0.97579
2493.31710	0.97605
2491.26329	0.97636
2489.20949	0.97670
2487.15569	0.97704
2485.10188	0.97708
2483.04808	0.97662
2480.99428	0.97605
2478.94047	0.97591
2476.88667	0.97609
2474.83287	0.97615
2472.77906	0.97634
2470.72526	0.97698
2468.67146	0.97744
2466.61765	0.97728
2464.56385	0.97732
2462.51005	0.97784
2460.45624	0.97783
2458.40244	0.97723
2456.34864	0.97665
2454.29483	0.97612
2452.24103	0.97600
2450.18723	0.97654
2448.13343	0.97740
2446.07962	0.97801
2444.02582	0.97818
2441.97202	0.97816
2439.91821	0.97794
2437.86441	0.97761
2435.81061	0.97737
2433.75680	0.97712
2431.70300	0.97686
2429.64920	0.97661
2427.59539	0.97663
2425.54159	0.97693
2423.48779	0.97699
2421.43398	0.97677
2419.38018	0.97664
2417.32638	0.97702
2415.27257	0.97775
2413.21877	0.97803
2411.16497	0.97785
2409.11116	0.97777
2407.05736	0.97776
2405.00356	0.97759
2402.94975	0.97770
2400.89595	0.97821
2398.84215	0.97830
2396.78834	0.97767
2394.73454	0.97709
2392.68074	0.97735
2390.62694	0.97786
2388.57313	0.97765
2386.51933	0.97702
2384.46553	0.97675
2382.41172	0.97682
2380.35792	0.97689
2378.30412	0.97694
2376.25031	0.97719
2374.19651	0.97742
2372.14271	0.97728
2370.08890	0.97720
2368.03510	0.97738
2365.98130	0.97750
2363.92749	0.97758
2361.87369	0.97858
2359.81989	0.97999
2357.76608	0.97966
2355.71228	0.97807
2353.65848	0.97693
2351.60467	0.97651
2349.55087	0.97608
2347.49707	0.97553
2345.44326	0.97509
2343.38946	0.97451
2341.33566	0.97421
2339.28186	0.97482
2337.22805	0.97561
2335.17425	0.97568
2333.12045	0.97523
2331.06664	0.97514
2329.01284	0.97537
2326.95904	0.97482
2324.90523	0.97376
2322.85143	0.97345
2320.79763	0.97403
2318.74382	0.97486
2316.69002	0.97512
2314.63622	0.97484
2312.58241	0.97517
2310.52861	0.97625
2308.47481	0.97685
2306.42100	0.97660
2304.36720	0.97626
2302.31340	0.97641
2300.25959	0.97666
2298.20579	0.97657
2296.15199	0.97624
2294.09818	0.97585
2292.04438	0.97575
2289.99058	0.97586
2287.93677	0.97598
2285.88297	0.97632
2283.82917	0.97702
2281.77537	0.97811
2279.72156	0.97836
2277.66776	0.97735
2275.61396	0.97680
2273.56015	0.97643
2271.50635	0.97542
2269.45255	0.97562
2267.39874	0.97790
2265.34494	0.98019
2263.29114	0.98082
2261.23733	0.98088
2259.18353	0.98140
2257.12973	0.98133
2255.07592	0.98005
2253.02212	0.97860
2250.96832	0.97765
2248.91451	0.97685
2246.86071	0.97591
2244.80691	0.97594
2242.75310	0.97807
2240.69930	0.98002
2238.64550	0.98002
2236.59169	0.97973
2234.53789	0.97965
2232.48409	0.97926
2230.43029	0.97849
2228.37648	0.97692
2226.32268	0.97583
2224.26888	0.97689
2222.21507	0.97848
2220.16127	0.97928
2218.10747	0.97981
2216.05366	0.97923
2213.99986	0.97741
2211.94606	0.97601
2209.89225	0.97595
2207.83845	0.97713
2205.78465	0.97925
2203.73084	0.98110
2201.67704	0.98144
2199.62324	0.98063
2197.56943	0.97944
2195.51563	0.97923
2193.46183	0.98051
2191.40802	0.98144
2189.35422	0.98133
2187.30042	0.98130
2185.24661	0.98046
2183.19281	0.97821
2181.13901	0.97758
2179.08520	0.97928
2177.03140	0.97990
2174.97760	0.97953
2172.92380	0.98041
2170.86999	0.98086
2168.81619	0.97859
2166.76239	0.97565
2164.70858	0.97585
2162.65478	0.97786
2160.60098	0.97971
2158.54717	0.98314
2156.49337	0.98566
2154.43957	0.98514
2152.38576	0.98481
2150.33196	0.98537
2148.27816	0.98409
2146.22435	0.98213
2144.17055	0.98176
2142.11675	0.98189
2140.06294	0.98226
2138.00914	0.98296
2135.95534	0.98321
2133.90153	0.98354
2131.84773	0.98457
2129.79393	0.98521
2127.74012	0.98421
2125.68632	0.98228
2123.63252	0.98122
2121.57871	0.98055
2119.52491	0.97922
2117.47111	0.97881
2115.41731	0.97967
2113.36350	0.97989
2111.30970	0.97979
2109.25590	0.98021
2107.20209	0.97995
2105.14829	0.97931
2103.09449	0.97931
2101.04068	0.97926
2098.98688	0.97927
2096.93308	0.98040
2094.87927	0.98216
2092.82547	0.98288
2090.77167	0.98212
2088.71786	0.98128
2086.66406	0.98073
2084.61026	0.98004
2082.55645	0.98028
2080.50265	0.98073
2078.44885	0.97978
2076.39504	0.97844
2074.34124	0.97837
2072.28744	0.97968
2070.23363	0.98093
2068.17983	0.98158
2066.12603	0.98153
2064.07223	0.98058
2062.01842	0.98007
2059.96462	0.98048
2057.91082	0.98045
2055.85701	0.98088
2053.80321	0.98297
2051.74941	0.98443
2049.69560	0.98365
2047.64180	0.98284
2045.58800	0.98362
2043.53419	0.98357
2041.48039	0.98165
2039.42659	0.98031
2037.37278	0.98010
2035.31898	0.98049
2033.26518	0.98094
2031.21137	0.98064
2029.15757	0.98128
2027.10377	0.98375
2025.04996	0.98510
2022.99616	0.98451
2020.94236	0.98560
2018.88855	0.98747
2016.83475	0.98580
2014.78095	0.98290
2012.72714	0.98223
2010.67334	0.98282
2008.61954	0.98388
2006.56574	0.98422
2004.51193	0.98215
2002.45813	0.97943
2000.40433	0.97865
1998.35052	0.98047
1996.29672	0.98341
1994.24292	0.98502
1992.18911	0.98458
1990.13531	0.98333
1988.08151	0.98277
1986.02770	0.98272
1983.97390	0.98286
1981.92010	0.98200
1979.86629	0.98041
1977.81249	0.98140
1975.75869	0.98462
1973.70488	0.98600
1971.65108	0.98412
1969.59728	0.98236
1967.54347	0.98305
1965.48967	0.98455
1963.43587	0.98586
1961.38206	0.98653
1959.32826	0.98565
1957.27446	0.98451
1955.22066	0.98408
1953.16685	0.98316
1951.11305	0.98202
1949.05925	0.98136
1947.00544	0.98025
1944.95164	0.97894
1942.89784	0.97905
1940.84403	0.97981
1938.79023	0.98011
1936.73643	0.98052
1934.68262	0.98103
1932.62882	0.98195
1930.57502	0.98288
1928.52121	0.98222
1926.46741	0.98099
1924.41361	0.98104
1922.35980	0.98125
1920.30600	0.98050
1918.25220	0.98019
1916.19839	0.98052
1914.14459	0.98025
1912.09079	0.98001
1910.03698	0.98032
1907.98318	0.98035
1905.92938	0.98085
1903.87557	0.98171
1901.82177	0.98120
1899.76797	0.98009
1897.71417	0.97944
1895.66036	0.97902
1893.60656	0.97924
1891.55276	0.97972
1889.49895	0.97979
1887.44515	0.97983
1885.39135	0.97989
1883.33754	0.98001
1881.28374	0.98020
1879.22994	0.97972
1877.17613	0.97861
1875.12233	0.97791
1873.06853	0.97808
1871.01472	0.97859
1868.96092	0.97893
1866.90712	0.97903
1864.85331	0.97869
1862.79951	0.97829
1860.74571	0.97844
1858.69190	0.97867
1856.63810	0.97861
1854.58430	0.97864
1852.53049	0.97868
1850.47669	0.97844
1848.42289	0.97820
1846.36908	0.97820
1844.31528	0.97848
1842.26148	0.97895
1840.20768	0.97932
1838.15387	0.97973
1836.10007	0.98020
1834.04627	0.98042
1831.99246	0.98005
1829.93866	0.97909
1827.88486	0.97847
1825.83105	0.97883
1823.77725	0.97910
1821.72345	0.97835
1819.66964	0.97761
1817.61584	0.97766
1815.56204	0.97789
1813.50823	0.97775
1811.45443	0.97751
1809.40063	0.97763
1807.34682	0.97795
1805.29302	0.97802
1803.23922	0.97775
1801.18541	0.97758
1799.13161	0.97789
1797.07781	0.97794
1795.02400	0.97745
1792.97020	0.97697
1790.91640	0.97668
1788.86260	0.97650
1786.80879	0.97623
1784.75499	0.97564
1782.70119	0.97506
1780.64738	0.97501
1778.59358	0.97545
1776.53978	0.97581
1774.48597	0.97558
1772.43217	0.97485
1770.37837	0.97413
1768.32456	0.97336
1766.27076	0.97258
1764.21696	0.97207
1762.16315	0.97195
1760.10935	0.97207
1758.05555	0.97202
1756.00174	0.97159
1753.94794	0.97078
1751.89414	0.96942
1749.84033	0.96748
1747.78653	0.96554
1745.73273	0.96361
1743.67892	0.96153
1741.62512	0.95939
1739.57132	0.95737
1737.51751	0.95599
1735.46371	0.95540
1733.40991	0.95504
1731.35611	0.95443
1729.30230	0.95392
1727.24850	0.95374
1725.19470	0.95335
1723.14089	0.95215
1721.08709	0.95051
1719.03329	0.94882
1716.97948	0.94700
1714.92568	0.94590
1712.87188	0.94591
1710.81807	0.94641
1708.76427	0.94707
1706.71047	0.94765
1704.65666	0.94775
1702.60286	0.94722
1700.54906	0.94608
1698.49525	0.94481
1696.44145	0.94400
1694.38765	0.94323
1692.33384	0.94236
1690.28004	0.94085
1688.22624	0.93856
1686.17243	0.93663
1684.11863	0.93512
1682.06483	0.93384
1680.01103	0.93331
1677.95722	0.93330
1675.90342	0.93303
1673.84962	0.93196
1671.79581	0.93063
1669.74201	0.92907
1667.68821	0.92771
1665.63440	0.92696
1663.58060	0.92592
1661.52680	0.92431
1659.47299	0.92288
1657.41919	0.92193
1655.36539	0.92117
1653.31158	0.91940
1651.25778	0.91850
1649.20398	0.91901
1647.15017	0.91860
1645.09637	0.91733
1643.04257	0.91670
1640.98876	0.91619
1638.93496	0.91541
1636.88116	0.91445
1634.82735	0.91360
1632.77355	0.91311
1630.71975	0.91242
1628.66594	0.91112
1626.61214	0.90953
1624.55834	0.90783
1622.50454	0.90613
1620.45073	0.90573
1618.39693	0.90717
1616.34313	0.91062
1614.28932	0.91430
1612.23552	0.91688
1610.18172	0.91897
1608.12791	0.92058
1606.07411	0.92158
1604.02031	0.92227
1601.96650	0.92300
1599.91270	0.92379
1597.85890	0.92457
1595.80509	0.92544
1593.75129	0.92646
1591.69749	0.92755
1589.64368	0.92845
1587.58988	0.92920
1585.53608	0.92997
1583.48227	0.93079
1581.42847	0.93165
1579.37467	0.93237
1577.32086	0.93312
1575.26706	0.93420
1573.21326	0.93508
1571.15945	0.93590
1569.10565	0.93699
1567.05185	0.93773
1564.99805	0.93816
1562.94424	0.93860
1560.89044	0.93910
1558.83664	0.93999
1556.78283	0.94068
1554.72903	0.94096
1552.67523	0.94116
1550.62142	0.94134
1548.56762	0.94160
1546.51382	0.94194
1544.46001	0.94220
1542.40621	0.94242
1540.35241	0.94336
1538.29860	0.94453
1536.24480	0.94507
1534.19100	0.94604
1532.13719	0.94756
1530.08339	0.94838
1528.02959	0.94855
1525.97578	0.94869
1523.92198	0.94920
1521.86818	0.94967
1519.81437	0.94982
1517.76057	0.94986
1515.70677	0.94999
1513.65297	0.95023
1511.59916	0.95033
1509.54536	0.95030
1507.49156	0.95050
1505.43775	0.95075
1503.38395	0.95074
1501.33015	0.95086
1499.27634	0.95090
1497.22254	0.95066
1495.16874	0.95007
1493.11493	0.94946
1491.06113	0.94885
1489.00733	0.94778
1486.95352	0.94642
1484.89972	0.94498
1482.84592	0.94264
1480.79211	0.93808
1478.73831	0.92773
1476.68451	0.90039
1474.63070	0.84639
1472.57690	0.79405
1470.52310	0.79260
1468.46929	0.81399
1466.41549	0.82286
1464.36169	0.81011
1462.30788	0.80195
1460.25408	0.81907
1458.20028	0.85438
1456.14648	0.88613
1454.09267	0.89831
1452.03887	0.90436
1449.98507	0.90926
1447.93126	0.91271
1445.87746	0.91473
1443.82366	0.91606
1441.76985	0.91722
1439.71605	0.91827
1437.66225	0.91914
1435.60844	0.91973
1433.55464	0.92044
1431.50084	0.92154
1429.44703	0.92288
1427.39323	0.92417
1425.33943	0.92521
1423.28562	0.92604
1421.23182	0.92654
1419.17802	0.92681
1417.12421	0.92711
1415.07041	0.92743
1413.01661	0.92775
1410.96280	0.92811
1408.90900	0.92864
1406.85520	0.92964
1404.80139	0.93128
1402.74759	0.93281
1400.69379	0.93354
1398.63999	0.93385
1396.58618	0.93461
1394.53238	0.93581
1392.47858	0.93664
1390.42477	0.93686
1388.37097	0.93677
1386.31717	0.93662
1384.26336	0.93653
1382.20956	0.93630
1380.15576	0.93592
1378.10195	0.93548
1376.04815	0.93492
1373.99435	0.93452
1371.94054	0.93436
1369.88674	0.93413
1367.83294	0.93416
1365.77913	0.93496
1363.72533	0.93624
1361.67153	0.93755
1359.61772	0.93886
1357.56392	0.93996
1355.51012	0.94048
1353.45631	0.94066
1351.40251	0.94092
1349.34871	0.94149
1347.29491	0.94241
1345.24110	0.94306
1343.18730	0.94324
1341.13350	0.94342
1339.07969	0.94359
1337.02589	0.94386
1334.97209	0.94420
1332.91828	0.94410
1330.86448	0.94364
1328.81068	0.94312
1326.75687	0.94263
1324.70307	0.94230
1322.64927	0.94180
1320.59546	0.94106
1318.54166	0.94058
1316.48786	0.94063
1314.43405	0.94099
1312.38025	0.94144
1310.32645	0.94185
1308.27264	0.94198
1306.21884	0.94177
1304.16504	0.94154
1302.11123	0.94139
1300.05743	0.94122
1298.00363	0.94100
1295.94982	0.94081
1293.89602	0.94077
1291.84222	0.94083
1289.78842	0.94067
1287.73461	0.94001
1285.68081	0.93909
1283.62701	0.93832
1281.57320	0.93763
1279.51940	0.93693
1277.46560	0.93607
1275.41179	0.93501
1273.35799	0.93406
1271.30419	0.93349
1269.25038	0.93308
1267.19658	0.93241
1265.14278	0.93173
1263.08897	0.93143
1261.03517	0.93132
1258.98137	0.93105
1256.92756	0.93068
1254.87376	0.93033
1252.81996	0.92989
1250.76615	0.92931
1248.71235	0.92855
1246.65855	0.92786
1244.60474	0.92719
1242.55094	0.92625
1240.49714	0.92542
1238.44334	0.92478
1236.38953	0.92400
1234.33573	0.92315
1232.28193	0.92213
1230.22812	0.92093
1228.17432	0.91992
1226.12052	0.91907
1224.06671	0.91802
1222.01291	0.91667
1219.95911	0.91518
1217.90530	0.91356
1215.85150	0.91180
1213.79770	0.91017
1211.74389	0.90843
1209.69009	0.90613
1207.63629	0.90359
1205.58248	0.90136
1203.52868	0.89922
1201.47488	0.89671
1199.42107	0.89368
1197.36727	0.89015
1195.31347	0.88615
1193.25966	0.88188
1191.20586	0.87757
1189.15206	0.87323
1187.09825	0.86862
1185.04445	0.86341
1182.99065	0.85739
1180.93685	0.85071
1178.88304	0.84362
1176.82924	0.83634
1174.77544	0.82923
1172.72163	0.82228
1170.66783	0.81531
1168.61403	0.80852
1166.56022	0.80197
1164.50642	0.79578
1162.45262	0.79048
1160.39881	0.78631
1158.34501	0.78282
1156.29121	0.77912
1154.23740	0.77486
1152.18360	0.77045
1150.12980	0.76621
1148.07599	0.76208
1146.02219	0.75828
1143.96839	0.75525
1141.91458	0.75279
1139.86078	0.75046
1137.80698	0.74838
1135.75317	0.74658
1133.69937	0.74449
1131.64557	0.74144
1129.59176	0.73721
1127.53796	0.73230
1125.48416	0.72720
1123.43036	0.72159
1121.37655	0.71506
1119.32275	0.70822
1117.26895	0.70201
1115.21514	0.69703
1113.16134	0.69332
1111.10754	0.69018
1109.05373	0.68712
1106.99993	0.68424
1104.94613	0.68172
1102.89232	0.67954
1100.83852	0.67751
1098.78472	0.67573
1096.73091	0.67440
1094.67711	0.67322
1092.62331	0.67215
1090.56950	0.67186
1088.51570	0.67218
1086.46190	0.67231
1084.40809	0.67228
1082.35429	0.67219
1080.30049	0.67180
1078.24668	0.67136
1076.19288	0.67097
1074.13908	0.67016
1072.08528	0.66880
1070.03147	0.66694
1067.97767	0.66415
1065.92387	0.66013
1063.87006	0.65515
1061.81626	0.65004
1059.76246	0.64499
1057.70865	0.63930
1055.65485	0.63304
1053.60105	0.62647
1051.54724	0.61955
1049.49344	0.61222
1047.43964	0.60469
1045.38583	0.59729
1043.33203	0.59001
1041.27823	0.58322
1039.22442	0.57729
1037.17062	0.57217
1035.11682	0.56813
1033.06301	0.56545
1031.00921	0.56422
1028.95541	0.56463
1026.90160	0.56635
1024.84780	0.56860
1022.79400	0.57065
1020.74019	0.57208
1018.68639	0.57313
1016.63259	0.57393
1014.57879	0.57419
1012.52498	0.57411
1010.47118	0.57439
1008.41738	0.57551
1006.36357	0.57783
1004.30977	0.58162
1002.25597	0.58736
1000.20216	0.59487
998.14836	0.60339
996.09456	0.61280
994.04075	0.62308
991.98695	0.63372
989.93315	0.64446
987.87934	0.65534
985.82554	0.66641
983.77174	0.67761
981.71793	0.68857
979.66413	0.69902
977.61033	0.70937
975.55652	0.71973
973.50272	0.72977
971.44892	0.73930
969.39511	0.74813
967.34131	0.75631
965.28751	0.76407
963.23371	0.77154
961.17990	0.77852
959.12610	0.78440
957.07230	0.78923
955.01849	0.79376
952.96469	0.79811
950.91089	0.80219
948.85708	0.80583
946.80328	0.80887
944.74948	0.81187
942.69567	0.81480
940.64187	0.81718
938.58807	0.81934
936.53426	0.82170
934.48046	0.82415
932.42666	0.82656
930.37285	0.82862
928.31905	0.82995
926.26525	0.83075
924.21144	0.83109
922.15764	0.83042
920.10384	0.82888
918.05003	0.82692
915.99623	0.82465
913.94243	0.82293
911.88862	0.82291
909.83482	0.82553
907.78102	0.83120
905.72722	0.83872
903.67341	0.84659
901.61961	0.85399
899.56581	0.86053
897.51200	0.86593
895.45820	0.86995
893.40440	0.87299
891.35059	0.87587
889.29679	0.87908
887.24299	0.88187
885.18918	0.88310
883.13538	0.88338
881.08158	0.88386
879.02777	0.88448
876.97397	0.88484
874.92017	0.88498
872.86636	0.88583
870.81256	0.88848
868.75876	0.89247
866.70495	0.89639
864.65115	0.89945
862.59735	0.90158
860.54354	0.90291
858.48974	0.90410
856.43594	0.90571
854.38213	0.90753
852.32833	0.90922
850.27453	0.91044
848.22073	0.91095
846.16692	0.91127
844.11312	0.91197
842.05932	0.91272
840.00551	0.91274
837.95171	0.91194
835.89791	0.91140
833.84410	0.91118
831.79030	0.91029
829.73650	0.90960
827.68269	0.90961
825.62889	0.90891
823.57509	0.90732
821.52128	0.90568
819.46748	0.90475
817.41368	0.90475
815.35987	0.90423
813.30607	0.90280
811.25227	0.90059
809.19846	0.89645
807.14466	0.89067
805.09086	0.88464
803.03705	0.87898
800.98325	0.87416
798.92945	0.87075
796.87565	0.86910
794.82184	0.86964
792.76804	0.87124
790.71424	0.87215
788.66043	0.87260
786.60663	0.87264
784.55283	0.87123
782.49902	0.86872
780.44522	0.86667
778.39142	0.86627
776.33761	0.86797
774.28381	0.87070
772.23001	0.87275
770.17620	0.87387
768.12240	0.87419
766.06860	0.87321
764.01479	0.87136
761.96099	0.86973
759.90719	0.86863
757.85338	0.86790
755.79958	0.86738
753.74578	0.86658
751.69197	0.86548
749.63817	0.86519
747.58437	0.86583
745.53056	0.86601
743.47676	0.86602
741.42296	0.86635
739.36916	0.86497
737.31535	0.85963
735.26155	0.84514
733.20775	0.81253
731.15394	0.77405
729.10014	0.76333
727.04634	0.78027
724.99253	0.78954
722.93873	0.76930
720.88493	0.72258
718.83112	0.68048
716.77732	0.67767
714.72352	0.71216
712.66971	0.75739
710.61591	0.79104
708.56211	0.80876
706.50830	0.81687
704.45450	0.81990
702.40070	0.81938
700.34689	0.81719
698.29309	0.81513
696.23929	0.81392
694.18548	0.81419
692.13168	0.81528
690.07788	0.81629
688.02408	0.81736
685.97027	0.81850
683.91647	0.81954
681.86267	0.81971
679.80886	0.81867
677.75506	0.81729
675.70126	0.81512
673.64745	0.81147
671.59365	0.80812
669.53985	0.80741
667.48604	0.81151
665.43224	0.81702
663.37844	0.82108
661.32463	0.82406
659.27083	0.82658
657.21703	0.82855
655.16322	0.82809
653.10942	0.82555
651.05562	0.82301
649.00181	0.82094
646.94801	0.81912
644.89421	0.81806
642.84040	0.81776
640.78660	0.81794
638.73280	0.81914
636.67899	0.82051
634.62519	0.82051
632.57139	0.81981
630.51759	0.81903
628.46378	0.81837
626.40998	0.81772
624.35618	0.81598
622.30237	0.81370
620.24857	0.81095
618.19477	0.80696
616.14096	0.80276
614.08716	0.79896
612.03336	0.79426
609.97955	0.78930
607.92575	0.78545
605.87195	0.78152
603.81814	0.77758
601.76434	0.77468
599.71054	0.77293
597.65673	0.77267
595.60293	0.77247
593.54913	0.77096
591.49532	0.76895
589.44152	0.76639
587.38772	0.76377
585.33391	0.76303
583.28011	0.76293
581.22631	0.76179
579.17250	0.76122
577.11870	0.76164
575.06490	0.76136
573.01110	0.76095
570.95729	0.76180
568.90349	0.76210
566.84969	0.76013
564.79588	0.75717
562.74208	0.75463
560.68828	0.75356
558.63447	0.75388
556.58067	0.75300
554.52687	0.74927
552.47306	0.74421
550.41926	0.74002
548.36546	0.73571
546.31165	0.72919
544.25785	0.72275
542.20405	0.71872
540.15024	0.71479
538.09644	0.70976
536.04264	0.70582
533.98883	0.70438
531.93503	0.70582
529.88123	0.70849
527.82742	0.71037
525.77362	0.71195
523.71982	0.71382
521.66602	0.71652
519.61221	0.72007
517.55841	0.72303
515.50461	0.72636
513.45080	0.73135
511.39700	0.73584
509.34320	0.73894
507.28939	0.74185
505.23559	0.74409
503.18179	0.74449
501.12798	0.74397
499.07418	0.74457
497.02038	0.74588
494.96657	0.74641
492.91277	0.74549
490.85897	0.74275
488.80516	0.73843
486.75136	0.73211
484.69756	0.72293
482.64375	0.71249
480.58995	0.70141
478.53615	0.68936
476.48234	0.67748
474.42854	0.66535
472.37474	0.65209
470.32093	0.64170
468.26713	0.63813
466.21333	0.63901
464.15953	0.64087
462.10572	0.64356
460.05192	0.64867
457.99812	0.65749
455.94431	0.66798
453.89051	0.67748
451.83671	0.68478
449.78290	0.68813
447.72910	0.68926
445.67530	0.69140
443.62149	0.69611
441.56769	0.70055
439.51389	0.70065
437.46008	0.69687
435.40628	0.69057
433.35248	0.68445
431.29867	0.68210
429.24487	0.68340
427.19107	0.68415
425.13726	0.68357
423.08346	0.68712
421.02966	0.69528
418.97585	0.70531
416.92205	0.71538
414.86825	0.72211
412.81445	0.72471
410.76064	0.72573
408.70684	0.73133
406.65304	0.74212
404.59923	0.75057
402.54543	0.74902
400.49163	0.73982
398.43782	0.73614
