3996.70104	0.97830
3994.64724	0.97812
3992.59344	0.97805
3990.53964	0.97798
3988.48583	0.97764
3986.43203	0.97765
3984.37823	0.97821
3982.32442	0.97850
3980.27062	0.97822
3978.21682	0.97796
3976.16301	0.97798
3974.10921	0.97793
3972.05541	0.97743
3970.00160	0.97683
3967.94780	0.97691
3965.89400	0.97755
3963.84019	0.97802
3961.78639	0.97805
3959.73259	0.97788
3957.67878	0.97804
3955.62498	0.97849
3953.57118	0.97843
3951.51737	0.97786
3949.46357	0.97784
3947.40977	0.97835
3945.35596	0.97850
3943.30216	0.97852
3941.24836	0.97863
3939.19455	0.97846
3937.14075	0.97782
3935.08695	0.97696
3933.03315	0.97660
3930.97934	0.97725
3928.92554	0.97801
3926.87174	0.97802
3924.81793	0.97795
3922.76413	0.97833
3920.71033	0.97862
3918.65652	0.97834
3916.60272	0.97783
3914.54892	0.97786
3912.49511	0.97822
3910.44131	0.97844
3908.38751	0.97836
3906.33370	0.97795
3904.27990	0.97807
3902.22610	0.97901
3900.17229	0.97969
3898.11849	0.97990
3896.06469	0.97975
3894.01088	0.97932
3891.95708	0.97914
3889.90328	0.97948
3887.84947	0.97948
3885.79567	0.97896
3883.74187	0.97848
3881.68807	0.97850
3879.63426	0.97903
3877.58046	0.97931
3875.52666	0.97912
3873.47285	0.97880
3871.41905	0.97823
3869.36525	0.97733
3867.31144	0.97716
3865.25764	0.97784
3863.20384	0.97826
3861.15003	0.97816
3859.09623	0.97820
3857.04243	0.97861
3854.98862	0.97939
3852.93482	0.97965
3850.88102	0.97859
3848.82721	0.97817
3846.77341	0.97851
3844.71961	0.97837
3842.66580	0.97770
3840.61200	0.97765
3838.55820	0.97843
3836.50439	0.97917
3834.45059	0.97864
3832.39679	0.97754
3830.34298	0.97738
3828.28918	0.97818
3826.23538	0.97918
3824.18158	0.97971
3822.12777	0.97964
3820.07397	0.97973
3818.02017	0.97988
3815.96636	0.97915
3813.91256	0.97838
3811.85876	0.97856
3809.80495	0.97864
3807.75115	0.97833
3805.69735	0.97852
3803.64354	0.97872
3801.58974	0.97823
3799.53594	0.97777
3797.48213	0.97803
3795.42833	0.97855
3793.37453	0.97858
3791.32072	0.97832
3789.26692	0.97839
3787.21312	0.97887
3785.15931	0.97941
3783.10551	0.97947
3781.05171	0.97938
3778.99790	0.97975
3776.94410	0.97997
3774.89030	0.97974
3772.83650	0.97960
3770.78269	0.97943
3768.72889	0.97923
3766.67509	0.97959
3764.62128	0.97981
3762.56748	0.97922
3760.51368	0.97855
3758.45987	0.97832
3756.40607	0.97831
3754.35227	0.97866
3752.29846	0.97958
3750.24466	0.97977
3748.19086	0.97884
3746.13705	0.97882
3744.08325	0.97978
3742.02945	0.98022
3739.97564	0.98003
3737.92184	0.97975
3735.86804	0.97996
3733.81423	0.98024
3731.76043	0.98014
3729.70663	0.98032
3727.65282	0.98029
3725.59902	0.97976
3723.54522	0.97959
3721.49141	0.97973
3719.43761	0.97944
3717.38381	0.97906
3715.33001	0.97918
3713.27620	0.97934
3711.22240	0.97916
3709.16860	0.97919
3707.11479	0.97929
3705.06099	0.97933
3703.00719	0.97954
3700.95338	0.97950
3698.89958	0.97897
3696.84578	0.97862
3694.79197	0.97881
3692.73817	0.97907
3690.68437	0.97898
3688.63056	0.97879
3686.57676	0.97893
3684.52296	0.97916
3682.46915	0.97938
3680.41535	0.97929
3678.36155	0.97853
3676.30774	0.97796
3674.25394	0.97836
3672.20014	0.97846
3670.14633	0.97834
3668.09253	0.97864
3666.03873	0.97873
3663.98492	0.97840
3661.93112	0.97806
3659.87732	0.97803
3657.82352	0.97864
3655.76971	0.97951
3653.71591	0.97938
3651.66211	0.97871
3649.60830	0.97891
3647.55450	0.97925
3645.50070	0.97852
3643.44689	0.97786
3641.39309	0.97761
3639.33929	0.97713
3637.28548	0.97624
3635.23168	0.97595
3633.17788	0.97618
3631.12407	0.97585
3629.07027	0.97562
3627.01647	0.97608
3624.96266	0.97591
3622.90886	0.97537
3620.85506	0.97524
3618.80125	0.97561
3616.74745	0.97575
3614.69365	0.97536
3612.63984	0.97482
3610.58604	0.97455
3608.53224	0.97481
3606.47844	0.97533
3604.42463	0.97546
3602.37083	0.97493
3600.31703	0.97418
3598.26322	0.97380
3596.20942	0.97395
3594.15562	0.97447
3592.10181	0.97449
3590.04801	0.97405
3587.99421	0.97417
3585.94040	0.97445
3583.88660	0.97409
3581.83280	0.97355
3579.77899	0.97312
3577.72519	0.97295
3575.67139	0.97315
3573.61758	0.97354
3571.56378	0.97344
3569.50998	0.97265
3567.45617	0.97206
3565.40237	0.97190
3563.34857	0.97138
3561.29476	0.97094
3559.24096	0.97101
3557.18716	0.97089
3555.13335	0.97038
3553.07955	0.96996
3551.02575	0.96985
3548.97195	0.96995
3546.91814	0.96995
3544.86434	0.96991
3542.81054	0.96980
3540.75673	0.96945
3538.70293	0.96907
3536.64913	0.96897
3534.59532	0.96903
3532.54152	0.96895
3530.48772	0.96877
3528.43391	0.96857
3526.38011	0.96803
3524.32631	0.96732
3522.27250	0.96699
3520.21870	0.96680
3518.16490	0.96657
3516.11109	0.96655
3514.05729	0.96657
3512.00349	0.96643
3509.94968	0.96637
3507.89588	0.96650
3505.84208	0.96639
3503.78827	0.96617
3501.73447	0.96610
3499.68067	0.96568
3497.62687	0.96478
3495.57306	0.96408
3493.51926	0.96418
3491.46546	0.96475
3489.41165	0.96487
3487.35785	0.96448
3485.30405	0.96421
3483.25024	0.96429
3481.19644	0.96438
3479.14264	0.96407
3477.08883	0.96333
3475.03503	0.96267
3472.98123	0.96223
3470.92742	0.96166
3468.87362	0.96150
3466.81982	0.96195
3464.76601	0.96211
3462.71221	0.96191
3460.65841	0.96176
3458.60460	0.96152
3456.55080	0.96135
3454.49700	0.96128
3452.44319	0.96092
3450.38939	0.96039
3448.33559	0.96002
3446.28178	0.95953
3444.22798	0.95902
3442.17418	0.95915
3440.12038	0.95961
3438.06657	0.95961
3436.01277	0.95914
3433.95897	0.95860
3431.90516	0.95836
3429.85136	0.95837
3427.79756	0.95810
3425.74375	0.95744
3423.68995	0.95727
3421.63615	0.95765
3419.58234	0.95758
3417.52854	0.95716
3415.47474	0.95687
3413.42093	0.95636
3411.36713	0.95583
3409.31333	0.95577
3407.25952	0.95582
3405.20572	0.95580
3403.15192	0.95579
3401.09811	0.95560
3399.04431	0.95516
3396.99051	0.95480
3394.93670	0.95483
3392.88290	0.95502
3390.82910	0.95503
3388.77529	0.95463
3386.72149	0.95403
3384.66769	0.95377
3382.61389	0.95361
3380.56008	0.95335
3378.50628	0.95318
3376.45248	0.95301
3374.39867	0.95300
3372.34487	0.95320
3370.29107	0.95309
3368.23726	0.95251
3366.18346	0.95179
3364.12966	0.95123
3362.07585	0.95117
3360.02205	0.95173
3357.96825	0.95232
3355.91444	0.95217
3353.86064	0.95161
3351.80684	0.95154
3349.75303	0.95183
3347.69923	0.95178
3345.64543	0.95160
3343.59162	0.95147
3341.53782	0.95110
3339.48402	0.95085
3337.43021	0.95119
3335.37641	0.95144
3333.32261	0.95100
3331.26881	0.95053
3329.21500	0.95063
3327.16120	0.95079
3325.10740	0.95061
3323.05359	0.95043
3320.99979	0.95032
3318.94599	0.94992
3316.89218	0.94938
3314.83838	0.94891
3312.78458	0.94858
3310.73077	0.94857
3308.67697	0.94916
3306.62317	0.95004
3304.56936	0.95025
3302.51556	0.94983
3300.46176	0.94953
3298.40795	0.94942
3296.35415	0.94947
3294.30035	0.94975
3292.24654	0.95000
3290.19274	0.94986
3288.13894	0.94950
3286.08513	0.94960
3284.03133	0.94989
3281.97753	0.94972
3279.92372	0.94944
3277.86992	0.94959
3275.81612	0.94999
3273.76232	0.95019
3271.70851	0.95016
3269.65471	0.94998
3267.60091	0.94985
3265.54710	0.94987
3263.49330	0.94984
3261.43950	0.94996
3259.38569	0.95051
3257.33189	0.95096
3255.27809	0.95080
3253.22428	0.95067
3251.17048	0.95091
3249.11668	0.95102
3247.06287	0.95087
3245.00907	0.95070
3242.95527	0.95078
3240.90146	0.95089
3238.84766	0.95071
3236.79386	0.95076
3234.74005	0.95138
3232.68625	0.95186
3230.63245	0.95185
3228.57864	0.95176
3226.52484	0.95179
3224.47104	0.95197
3222.41724	0.95215
3220.36343	0.95203
3218.30963	0.95167
3216.25583	0.95143
3214.20202	0.95151
3212.14822	0.95172
3210.09442	0.95202
3208.04061	0.95268
3205.98681	0.95349
3203.93301	0.95369
3201.87920	0.95334
3199.82540	0.95322
3197.77160	0.95329
3195.71779	0.95317
3193.66399	0.95316
3191.61019	0.95330
3189.55638	0.95347
3187.50258	0.95369
3185.44878	0.95375
3183.39497	0.95374
3181.34117	0.95382
3179.28737	0.95395
3177.23356	0.95439
3175.17976	0.95519
3173.12596	0.95572
3171.07215	0.95606
3169.01835	0.95674
3166.96455	0.95741
3164.91075	0.95752
3162.85694	0.95722
3160.80314	0.95697
3158.74934	0.95682
3156.69553	0.95677
3154.64173	0.95689
3152.58793	0.95704
3150.53412	0.95723
3148.48032	0.95751
3146.42652	0.95796
3144.37271	0.95849
3142.31891	0.95879
3140.26511	0.95878
3138.21130	0.95862
3136.15750	0.95851
3134.10370	0.95854
3132.04989	0.95874
3129.99609	0.95903
3127.94229	0.95937
3125.88848	0.95980
3123.83468	0.96001
3121.78088	0.95995
3119.72707	0.96006
3117.67327	0.96036
3115.61947	0.96064
3113.56566	0.96060
3111.51186	0.96056
3109.45806	0.96083
3107.40426	0.96092
3105.35045	0.96094
3103.29665	0.96129
3101.24285	0.96172
3099.18904	0.96186
3097.13524	0.96162
3095.08144	0.96130
3093.02763	0.96152
3090.97383	0.96204
3088.92003	0.96219
3086.86622	0.96216
3084.81242	0.96225
3082.75862	0.96236
3080.70481	0.96228
3078.65101	0.96212
3076.59721	0.96224
3074.54340	0.96274
3072.48960	0.96322
3070.43580	0.96316
3068.38199	0.96260
3066.32819	0.96229
3064.27439	0.96266
3062.22058	0.96316
3060.16678	0.96320
3058.11298	0.96298
3056.05918	0.96297
3054.00537	0.96330
3051.95157	0.96380
3049.89777	0.96395
3047.84396	0.96368
3045.79016	0.96374
3043.73636	0.96421
3041.68255	0.96439
3039.62875	0.96416
3037.57495	0.96384
3035.52114	0.96390
3033.46734	0.96420
3031.41354	0.96401
3029.35973	0.96376
3027.30593	0.96414
3025.25213	0.96467
3023.19832	0.96512
3021.14452	0.96548
3019.09072	0.96528
3017.03691	0.96475
3014.98311	0.96486
3012.92931	0.96537
3010.87550	0.96545
3008.82170	0.96529
3006.76790	0.96521
3004.71409	0.96515
3002.66029	0.96521
3000.60649	0.96535
2998.55269	0.96561
2996.49888	0.96598
2994.44508	0.96620
2992.39128	0.96608
2990.33747	0.96574
2988.28367	0.96565
2986.22987	0.96569
2984.17606	0.96550
2982.12226	0.96539
2980.06846	0.96543
2978.01465	0.96537
2975.96085	0.96529
2973.90705	0.96546
2971.85324	0.96567
2969.79944	0.96575
2967.74564	0.96608
2965.69183	0.96663
2963.63803	0.96680
2961.58423	0.96654
2959.53042	0.96597
2957.47662	0.96535
2955.42282	0.96519
2953.36901	0.96526
2951.31521	0.96518
2949.26141	0.96502
2947.20761	0.96506
2945.15380	0.96555
2943.10000	0.96584
2941.04620	0.96548
2938.99239	0.96504
2936.93859	0.96479
2934.88479	0.96458
2932.83098	0.96458
2930.77718	0.96457
2928.72338	0.96444
2926.66957	0.96441
2924.61577	0.96457
2922.56197	0.96501
2920.50816	0.96521
2918.45436	0.96473
2916.40056	0.96398
2914.34675	0.96351
2912.29295	0.96361
2910.23915	0.96418
2908.18534	0.96482
2906.13154	0.96514
2904.07774	0.96523
2902.02393	0.96533
2899.97013	0.96539
2897.91633	0.96543
2895.86252	0.96552
2893.80872	0.96539
2891.75492	0.96501
2889.70112	0.96495
2887.64731	0.96525
2885.59351	0.96539
2883.53971	0.96552
2881.48590	0.96573
2879.43210	0.96579
2877.37830	0.96584
2875.32449	0.96599
2873.27069	0.96604
2871.21689	0.96612
2869.16308	0.96634
2867.10928	0.96618
2865.05548	0.96578
2863.00167	0.96590
2860.94787	0.96632
2858.89407	0.96668
2856.84026	0.96699
2854.78646	0.96705
2852.73266	0.96683
2850.67885	0.96663
2848.62505	0.96679
2846.57125	0.96707
2844.51744	0.96720
2842.46364	0.96751
2840.40984	0.96787
2838.35603	0.96796
2836.30223	0.96790
2834.24843	0.96777
2832.19463	0.96781
2830.14082	0.96816
2828.08702	0.96834
2826.03322	0.96823
2823.97941	0.96817
2821.92561	0.96805
2819.87181	0.96783
2817.81800	0.96800
2815.76420	0.96848
2813.71040	0.96864
2811.65659	0.96863
2809.60279	0.96866
2807.54899	0.96857
2805.49518	0.96880
2803.44138	0.96909
2801.38758	0.96904
2799.33377	0.96901
2797.27997	0.96904
2795.22617	0.96926
2793.17236	0.96946
2791.11856	0.96926
2789.06476	0.96906
2787.01095	0.96918
2784.95715	0.96966
2782.90335	0.96992
2780.84955	0.96941
2778.79574	0.96890
2776.74194	0.96923
2774.68814	0.96969
2772.63433	0.96953
2770.58053	0.96927
2768.52673	0.96945
2766.47292	0.96977
2764.41912	0.96987
2762.36532	0.96991
2760.31151	0.96999
2758.25771	0.96988
2756.20391	0.96972
2754.15010	0.96972
2752.09630	0.96993
2750.04250	0.97018
2747.98869	0.97042
2745.93489	0.97075
2743.88109	0.97088
2741.82728	0.97069
2739.77348	0.97061
2737.71968	0.97076
2735.66587	0.97077
2733.61207	0.97050
2731.55827	0.97058
2729.50446	0.97113
2727.45066	0.97124
2725.39686	0.97078
2723.34306	0.97055
2721.28925	0.97080
2719.23545	0.97111
2717.18165	0.97117
2715.12784	0.97116
2713.07404	0.97111
2711.02024	0.97070
2708.96643	0.97028
2706.91263	0.97005
2704.85883	0.96985
2702.80502	0.97003
2700.75122	0.97077
2698.69742	0.97160
2696.64361	0.97201
2694.58981	0.97172
2692.53601	0.97107
2690.48220	0.97077
2688.42840	0.97093
2686.37460	0.97113
2684.32079	0.97141
2682.26699	0.97175
2680.21319	0.97175
2678.15938	0.97145
2676.10558	0.97116
2674.05178	0.97098
2671.99797	0.97118
2669.94417	0.97179
2667.89037	0.97223
2665.83657	0.97208
2663.78276	0.97168
2661.72896	0.97151
2659.67516	0.97153
2657.62135	0.97151
2655.56755	0.97156
2653.51375	0.97170
2651.45994	0.97172
2649.40614	0.97155
2647.35234	0.97131
2645.29853	0.97124
2643.24473	0.97137
2641.19093	0.97166
2639.13712	0.97184
2637.08332	0.97166
2635.02952	0.97156
2632.97571	0.97186
2630.92191	0.97223
2628.86811	0.97235
2626.81430	0.97230
2624.76050	0.97239
2622.70670	0.97238
2620.65289	0.97210
2618.59909	0.97224
2616.54529	0.97246
2614.49149	0.97240
2612.43768	0.97268
2610.38388	0.97297
2608.33008	0.97263
2606.27627	0.97214
2604.22247	0.97199
2602.16867	0.97222
2600.11486	0.97263
2598.06106	0.97280
2596.00726	0.97250
2593.95345	0.97191
2591.89965	0.97169
2589.84585	0.97206
2587.79204	0.97229
2585.73824	0.97216
2583.68444	0.97242
2581.63063	0.97326
2579.57683	0.97404
2577.52303	0.97445
2575.46922	0.97429
2573.41542	0.97368
2571.36162	0.97325
2569.30781	0.97323
2567.25401	0.97335
2565.20021	0.97320
2563.14640	0.97269
2561.09260	0.97265
2559.03880	0.97325
2556.98500	0.97335
2554.93119	0.97260
2552.87739	0.97231
2550.82359	0.97293
2548.76978	0.97315
2546.71598	0.97282
2544.66218	0.97303
2542.60837	0.97384
2540.55457	0.97433
2538.50077	0.97421
2536.44696	0.97393
2534.39316	0.97402
2532.33936	0.97423
2530.28555	0.97376
2528.23175	0.97320
2526.17795	0.97334
2524.12414	0.97353
2522.07034	0.97316
2520.01654	0.97298
2517.96273	0.97344
2515.90893	0.97387
2513.85513	0.97397
2511.80132	0.97374
2509.74752	0.97324
2507.69372	0.97306
2505.63992	0.97348
2503.58611	0.97367
2501.53231	0.97332
2499.47851	0.97309
2497.42470	0.97336
2495.37090	0.97360
2493.31710	0.97337
2491.26329	0.97334
2489.20949	0.97376
2487.15569	0.97385
2485.10188	0.97365
2483.04808	0.97361
2480.99428	0.97368
2478.94047	0.97386
2476.88667	0.97407
2474.83287	0.97426
2472.77906	0.97417
2470.72526	0.97356
2468.67146	0.97335
2466.61765	0.97376
2464.56385	0.97398
2462.51005	0.97384
2460.45624	0.97362
2458.40244	0.97364
2456.34864	0.97362
2454.29483	0.97349
2452.24103	0.97342
2450.18723	0.97305
2448.13343	0.97293
2446.07962	0.97334
2444.02582	0.97383
2441.97202	0.97466
2439.91821	0.97509
2437.86441	0.97443
2435.81061	0.97382
2433.75680	0.97386
2431.70300	0.97419
2429.64920	0.97450
2427.59539	0.97428
2425.54159	0.97379
2423.48779	0.97378
2421.43398	0.97423
2419.38018	0.97467
2417.32638	0.97454
2415.27257	0.97416
2413.21877	0.97438
2411.16497	0.97481
2409.11116	0.97483
2407.05736	0.97466
2405.00356	0.97459
2402.94975	0.97457
2400.89595	0.97465
2398.84215	0.97508
2396.78834	0.97565
2394.73454	0.97589
2392.68074	0.97567
2390.62694	0.97528
2388.57313	0.97526
2386.51933	0.97535
2384.46553	0.97527
2382.41172	0.97532
2380.35792	0.97538
2378.30412	0.97536
2376.25031	0.97508
2374.19651	0.97435
2372.14271	0.97408
2370.08890	0.97440
2368.03510	0.97399
2365.98130	0.97317
2363.92749	0.97379
2361.87369	0.97537
2359.81989	0.97569
2357.76608	0.97489
2355.71228	0.97452
2353.65848	0.97466
2351.60467	0.97464
2349.55087	0.97461
2347.49707	0.97487
2345.44326	0.97502
2343.38946	0.97444
2341.33566	0.97379
2339.28186	0.97349
2337.22805	0.97317
2335.17425	0.97337
2333.12045	0.97418
2331.06664	0.97483
2329.01284	0.97434
2326.95904	0.97331
2324.90523	0.97363
2322.85143	0.97486
2320.79763	0.97523
2318.74382	0.97471
2316.69002	0.97383
2314.63622	0.97361
2312.58241	0.97461
2310.52861	0.97532
2308.47481	0.97495
2306.42100	0.97473
2304.36720	0.97527
2302.31340	0.97578
2300.25959	0.97548
2298.20579	0.97456
2296.15199	0.97371
2294.09818	0.97305
2292.04438	0.97283
2289.99058	0.97314
2287.93677	0.97321
2285.88297	0.97319
2283.82917	0.97377
2281.77537	0.97430
2279.72156	0.97436
2277.66776	0.97422
2275.61396	0.97458
2273.56015	0.97588
2271.50635	0.97684
2269.45255	0.97602
2267.39874	0.97439
2265.34494	0.97397
2263.29114	0.97447
2261.23733	0.97484
2259.18353	0.97501
2257.12973	0.97446
2255.07592	0.97458
2253.02212	0.97625
2250.96832	0.97746
2248.91451	0.97726
2246.86071	0.97602
2244.80691	0.97526
2242.75310	0.97590
2240.69930	0.97668
2238.64550	0.97666
2236.59169	0.97632
2234.53789	0.97667
2232.48409	0.97745
2230.43029	0.97837
2228.37648	0.97893
2226.32268	0.97781
2224.26888	0.97636
2222.21507	0.97509
2220.16127	0.97303
2218.10747	0.97292
2216.05366	0.97596
2213.99986	0.97832
2211.94606	0.97782
2209.89225	0.97611
2207.83845	0.97557
2205.78465	0.97736
2203.73084	0.97969
2201.67704	0.98059
2199.62324	0.98049
2197.56943	0.97973
2195.51563	0.97839
2193.46183	0.97662
2191.40802	0.97603
2189.35422	0.97774
2187.30042	0.97872
2185.24661	0.97712
2183.19281	0.97449
2181.13901	0.97294
2179.08520	0.97394
2177.03140	0.97550
2174.97760	0.97558
2172.92380	0.97527
2170.86999	0.97587
2168.81619	0.97758
2166.76239	0.97922
2164.70858	0.98084
2162.65478	0.98178
2160.60098	0.97901
2158.54717	0.97596
2156.49337	0.97720
2154.43957	0.97924
2152.38576	0.97924
2150.33196	0.97769
2148.27816	0.97634
2146.22435	0.97665
2144.17055	0.97829
2142.11675	0.97940
2140.06294	0.97891
2138.00914	0.97710
2135.95534	0.97486
2133.90153	0.97406
2131.84773	0.97483
2129.79393	0.97539
2127.74012	0.97622
2125.68632	0.97805
2123.63252	0.97891
2121.57871	0.97785
2119.52491	0.97659
2117.47111	0.97612
2115.41731	0.97648
2113.36350	0.97759
2111.30970	0.97816
2109.25590	0.97784
2107.20209	0.97744
2105.14829	0.97709
2103.09449	0.97686
2101.04068	0.97713
2098.98688	0.97817
2096.93308	0.97851
2094.87927	0.97754
2092.82547	0.97664
2090.77167	0.97590
2088.71786	0.97539
2086.66406	0.97525
2084.61026	0.97497
2082.55645	0.97469
2080.50265	0.97446
2078.44885	0.97455
2076.39504	0.97621
2074.34124	0.97839
2072.28744	0.97853
2070.23363	0.97724
2068.17983	0.97648
2066.12603	0.97560
2064.07223	0.97433
2062.01842	0.97420
2059.96462	0.97493
2057.91082	0.97610
2055.85701	0.97749
2053.80321	0.97743
2051.74941	0.97532
2049.69560	0.97405
2047.64180	0.97626
2045.58800	0.97975
2043.53419	0.98132
2041.48039	0.98056
2039.42659	0.97885
2037.37278	0.97713
2035.31898	0.97540
2033.26518	0.97381
2031.21137	0.97325
2029.15757	0.97385
2027.10377	0.97366
2025.04996	0.97329
2022.99616	0.97482
2020.94236	0.97704
2018.88855	0.97894
2016.83475	0.97948
2014.78095	0.97805
2012.72714	0.97788
2010.67334	0.98025
2008.61954	0.98212
2006.56574	0.98138
2004.51193	0.98011
2002.45813	0.98133
2000.40433	0.98331
1998.35052	0.98245
1996.29672	0.98004
1994.24292	0.97874
1992.18911	0.97910
1990.13531	0.98063
1988.08151	0.98126
1986.02770	0.98025
1983.97390	0.97814
1981.92010	0.97560
1979.86629	0.97459
1977.81249	0.97658
1975.75869	0.97920
1973.70488	0.97913
1971.65108	0.97801
1969.59728	0.97831
1967.54347	0.98035
1965.48967	0.98297
1963.43587	0.98412
1961.38206	0.98398
1959.32826	0.98258
1957.27446	0.97953
1955.22066	0.97787
1953.16685	0.97809
1951.11305	0.97773
1949.05925	0.97808
1947.00544	0.97953
1944.95164	0.97953
1942.89784	0.97850
1940.84403	0.97877
1938.79023	0.98050
1936.73643	0.98156
1934.68262	0.98010
1932.62882	0.97801
1930.57502	0.97801
1928.52121	0.97915
1926.46741	0.97899
1924.41361	0.97785
1922.35980	0.97737
1920.30600	0.97726
1918.25220	0.97770
1916.19839	0.97946
1914.14459	0.98097
1912.09079	0.98085
1910.03698	0.97959
1907.98318	0.97909
1905.92938	0.97970
1903.87557	0.97940
1901.82177	0.97853
1899.76797	0.97904
1897.71417	0.97999
1895.66036	0.97990
1893.60656	0.97947
1891.55276	0.97956
1889.49895	0.97970
1887.44515	0.97952
1885.39135	0.97941
1883.33754	0.97949
1881.28374	0.97998
1879.22994	0.97995
1877.17613	0.97858
1875.12233	0.97789
1873.06853	0.97890
1871.01472	0.97955
1868.96092	0.97890
1866.90712	0.97901
1864.85331	0.98005
1862.79951	0.98032
1860.74571	0.97989
1858.69190	0.97966
1856.63810	0.97983
1854.58430	0.98023
1852.53049	0.98030
1850.47669	0.97977
1848.42289	0.97946
1846.36908	0.97941
1844.31528	0.97921
1842.26148	0.97932
1840.20768	0.97962
1838.15387	0.97993
1836.10007	0.98014
1834.04627	0.98020
1831.99246	0.98050
1829.93866	0.98115
1827.88486	0.98112
1825.83105	0.98029
1823.77725	0.97972
1821.72345	0.97988
1819.66964	0.98031
1817.61584	0.98043
1815.56204	0.98011
1813.50823	0.97978
1811.45443	0.98014
1809.40063	0.98065
1807.34682	0.98074
1805.29302	0.98082
1803.23922	0.98053
1801.18541	0.98007
1799.13161	0.98027
1797.07781	0.98050
1795.02400	0.98049
1792.97020	0.98037
1790.91640	0.98007
1788.86260	0.98012
1786.80879	0.98042
1784.75499	0.98062
1782.70119	0.98048
1780.64738	0.97985
1778.59358	0.97951
1776.53978	0.97974
1774.48597	0.97975
1772.43217	0.97937
1770.37837	0.97906
1768.32456	0.97904
1766.27076	0.97924
1764.21696	0.97936
1762.16315	0.97905
1760.10935	0.97832
1758.05555	0.97762
1756.00174	0.97697
1753.94794	0.97623
1751.89414	0.97543
1749.84033	0.97463
1747.78653	0.97416
1745.73273	0.97369
1743.67892	0.97272
1741.62512	0.97177
1739.57132	0.97135
1737.51751	0.97132
1735.46371	0.97130
1733.40991	0.97085
1731.35611	0.97039
1729.30230	0.97026
1727.24850	0.97038
1725.19470	0.97074
1723.14089	0.97117
1721.08709	0.97163
1719.03329	0.97238
1716.97948	0.97309
1714.92568	0.97310
1712.87188	0.97306
1710.81807	0.97320
1708.76427	0.97336
1706.71047	0.97350
1704.65666	0.97347
1702.60286	0.97305
1700.54906	0.97244
1698.49525	0.97176
1696.44145	0.97030
1694.38765	0.96832
1692.33384	0.96708
1690.28004	0.96605
1688.22624	0.96472
1686.17243	0.96311
1684.11863	0.96098
1682.06483	0.95954
1680.01103	0.95848
1677.95722	0.95705
1675.90342	0.95524
1673.84962	0.95332
1671.79581	0.95198
1669.74201	0.95057
1667.68821	0.94897
1665.63440	0.94794
1663.58060	0.94691
1661.52680	0.94511
1659.47299	0.94309
1657.41919	0.94170
1655.36539	0.94109
1653.31158	0.94036
1651.25778	0.93945
1649.20398	0.93916
1647.15017	0.93829
1645.09637	0.93699
1643.04257	0.93684
1640.98876	0.93738
1638.93496	0.93788
1636.88116	0.93805
1634.82735	0.93835
1632.77355	0.93873
1630.71975	0.93893
1628.66594	0.93948
1626.61214	0.94055
1624.55834	0.94161
1622.50454	0.94261
1620.45073	0.94367
1618.39693	0.94462
1616.34313	0.94536
1614.28932	0.94597
1612.23552	0.94659
1610.18172	0.94719
1608.12791	0.94778
1606.07411	0.94848
1604.02031	0.94910
1601.96650	0.94956
1599.91270	0.94991
1597.85890	0.95010
1595.80509	0.95034
1593.75129	0.95078
1591.69749	0.95153
1589.64368	0.95258
1587.58988	0.95369
1585.53608	0.95461
1583.48227	0.95533
1581.42847	0.95598
1579.37467	0.95645
1577.32086	0.95715
1575.26706	0.95829
1573.21326	0.95862
1571.15945	0.95819
1569.10565	0.95788
1567.05185	0.95791
1564.99805	0.95775
1562.94424	0.95707
1560.89044	0.95569
1558.83664	0.95423
1556.78283	0.95473
1554.72903	0.95531
1552.67523	0.95486
1550.62142	0.95398
1548.56762	0.95339
1546.51382	0.95298
1544.46001	0.95292
1542.40621	0.95369
1540.35241	0.95423
1538.29860	0.95346
1536.24480	0.95281
1534.19100	0.95258
1532.13719	0.95270
1530.08339	0.95292
1528.02959	0.95316
1525.97578	0.95347
1523.92198	0.95354
1521.86818	0.95336
1519.81437	0.95314
1517.76057	0.95307
1515.70677	0.95303
1513.65297	0.95288
1511.59916	0.95306
1509.54536	0.95371
1507.49156	0.95452
1505.43775	0.95512
1503.38395	0.95577
1501.33015	0.95683
1499.27634	0.95827
1497.22254	0.95984
1495.16874	0.96121
1493.11493	0.96218
1491.06113	0.96308
1489.00733	0.96407
1486.95352	0.96486
1484.89972	0.96541
1482.84592	0.96559
1480.79211	0.96545
1478.73831	0.96523
1476.68451	0.96484
1474.63070	0.96423
1472.57690	0.96303
1470.52310	0.96121
1468.46929	0.95991
1466.41549	0.95898
1464.36169	0.95798
1462.30788	0.95726
1460.25408	0.95684
1458.20028	0.95640
1456.14648	0.95609
1454.09267	0.95614
1452.03887	0.95626
1449.98507	0.95621
1447.93126	0.95621
1445.87746	0.95637
1443.82366	0.95651
1441.76985	0.95670
1439.71605	0.95677
1437.66225	0.95650
1435.60844	0.95616
1433.55464	0.95571
1431.50084	0.95485
1429.44703	0.95411
1427.39323	0.95388
1425.33943	0.95380
1423.28562	0.95366
1421.23182	0.95354
1419.17802	0.95385
1417.12421	0.95447
1415.07041	0.95496
1413.01661	0.95540
1410.96280	0.95595
1408.90900	0.95657
1406.85520	0.95695
1404.80139	0.95729
1402.74759	0.95768
1400.69379	0.95777
1398.63999	0.95789
1396.58618	0.95829
1394.53238	0.95867
1392.47858	0.95891
1390.42477	0.95881
1388.37097	0.95831
1386.31717	0.95770
1384.26336	0.95739
1382.20956	0.95743
1380.15576	0.95734
1378.10195	0.95682
1376.04815	0.95615
1373.99435	0.95592
1371.94054	0.95616
1369.88674	0.95627
1367.83294	0.95641
1365.77913	0.95696
1363.72533	0.95782
1361.67153	0.95873
1359.61772	0.95932
1357.56392	0.95949
1355.51012	0.95965
1353.45631	0.96004
1351.40251	0.96039
1349.34871	0.96040
1347.29491	0.96024
1345.24110	0.96029
1343.18730	0.96032
1341.13350	0.96001
1339.07969	0.95945
1337.02589	0.95867
1334.97209	0.95785
1332.91828	0.95745
1330.86448	0.95756
1328.81068	0.95786
1326.75687	0.95802
1324.70307	0.95793
1322.64927	0.95773
1320.59546	0.95781
1318.54166	0.95812
1316.48786	0.95848
1314.43405	0.95909
1312.38025	0.95969
1310.32645	0.95997
1308.27264	0.96012
1306.21884	0.96025
1304.16504	0.96057
1302.11123	0.96113
1300.05743	0.96150
1298.00363	0.96161
1295.94982	0.96162
1293.89602	0.96159
1291.84222	0.96151
1289.78842	0.96111
1287.73461	0.96042
1285.68081	0.95982
1283.62701	0.95924
1281.57320	0.95849
1279.51940	0.95774
1277.46560	0.95697
1275.41179	0.95616
1273.35799	0.95553
1271.30419	0.95482
1269.25038	0.95377
1267.19658	0.95254
1265.14278	0.95133
1263.08897	0.95042
1261.03517	0.94986
1258.98137	0.94947
1256.92756	0.94913
1254.87376	0.94862
1252.81996	0.94785
1250.76615	0.94719
1248.71235	0.94674
1246.65855	0.94628
1244.60474	0.94609
1242.55094	0.94623
1240.49714	0.94620
1238.44334	0.94606
1236.38953	0.94617
1234.33573	0.94645
1232.28193	0.94657
1230.22812	0.94647
1228.17432	0.94634
1226.12052	0.94620
1224.06671	0.94610
1222.01291	0.94612
1219.95911	0.94624
1217.90530	0.94671
1215.85150	0.94761
1213.79770	0.94850
1211.74389	0.94921
1209.69009	0.95001
1207.63629	0.95083
1205.58248	0.95135
1203.52868	0.95146
1201.47488	0.95160
1199.42107	0.95194
1197.36727	0.95207
1195.31347	0.95187
1193.25966	0.95140
1191.20586	0.95069
1189.15206	0.95005
1187.09825	0.94959
1185.04445	0.94895
1182.99065	0.94779
1180.93685	0.94651
1178.88304	0.94532
1176.82924	0.94366
1174.77544	0.94173
1172.72163	0.93977
1170.66783	0.93733
1168.61403	0.93458
1166.56022	0.93204
1164.50642	0.93006
1162.45262	0.92869
1160.39881	0.92776
1158.34501	0.92719
1156.29121	0.92655
1154.23740	0.92584
1152.18360	0.92530
1150.12980	0.92457
1148.07599	0.92379
1146.02219	0.92333
1143.96839	0.92288
1141.91458	0.92231
1139.86078	0.92147
1137.80698	0.92018
1135.75317	0.91848
1133.69937	0.91635
1131.64557	0.91419
1129.59176	0.91203
1127.53796	0.90989
1125.48416	0.90817
1123.43036	0.90668
1121.37655	0.90527
1119.32275	0.90419
1117.26895	0.90320
1115.21514	0.90193
1113.16134	0.90045
1111.10754	0.89934
1109.05373	0.89855
1106.99993	0.89743
1104.94613	0.89629
1102.89232	0.89549
1100.83852	0.89498
1098.78472	0.89439
1096.73091	0.89335
1094.67711	0.89230
1092.62331	0.89111
1090.56950	0.88971
1088.51570	0.88855
1086.46190	0.88736
1084.40809	0.88608
1082.35429	0.88522
1080.30049	0.88450
1078.24668	0.88345
1076.19288	0.88235
1074.13908	0.88137
1072.08528	0.88032
1070.03147	0.87914
1067.97767	0.87792
1065.92387	0.87634
1063.87006	0.87407
1061.81626	0.87139
1059.76246	0.86849
1057.70865	0.86559
1055.65485	0.86285
1053.60105	0.86030
1051.54724	0.85790
1049.49344	0.85531
1047.43964	0.85299
1045.38583	0.85122
1043.33203	0.84916
1041.27823	0.84690
1039.22442	0.84500
1037.17062	0.84335
1035.11682	0.84235
1033.06301	0.84225
1031.00921	0.84285
1028.95541	0.84403
1026.90160	0.84553
1024.84780	0.84713
1022.79400	0.84840
1020.74019	0.84918
1018.68639	0.84992
1016.63259	0.85076
1014.57879	0.85174
1012.52498	0.85263
1010.47118	0.85300
1008.41738	0.85301
1006.36357	0.85298
1004.30977	0.85353
1002.25597	0.85480
1000.20216	0.85601
998.14836	0.85726
996.09456	0.85900
994.04075	0.86067
991.98695	0.86184
989.93315	0.86288
987.87934	0.86437
985.82554	0.86627
983.77174	0.86829
981.71793	0.87060
979.66413	0.87321
977.61033	0.87621
975.55652	0.87938
973.50272	0.88223
971.44892	0.88496
969.39511	0.88751
967.34131	0.89001
965.28751	0.89274
963.23371	0.89527
961.17990	0.89761
959.12610	0.90026
957.07230	0.90332
955.01849	0.90629
952.96469	0.90853
950.91089	0.91070
948.85708	0.91306
946.80328	0.91471
944.74948	0.91588
942.69567	0.91688
940.64187	0.91778
938.58807	0.91888
936.53426	0.91955
934.48046	0.91989
932.42666	0.92037
930.37285	0.92083
928.31905	0.92165
926.26525	0.92280
924.21144	0.92376
922.15764	0.92442
920.10384	0.92459
918.05003	0.92441
915.99623	0.92438
913.94243	0.92460
911.88862	0.92480
909.83482	0.92489
907.78102	0.92540
905.72722	0.92620
903.67341	0.92657
901.61961	0.92695
899.56581	0.92756
897.51200	0.92838
895.45820	0.92957
893.40440	0.93086
891.35059	0.93237
889.29679	0.93386
887.24299	0.93499
885.18918	0.93589
883.13538	0.93641
881.08158	0.93697
879.02777	0.93768
876.97397	0.93795
874.92017	0.93816
872.86636	0.93878
870.81256	0.93975
868.75876	0.94067
866.70495	0.94103
864.65115	0.94146
862.59735	0.94213
860.54354	0.94240
858.48974	0.94238
856.43594	0.94223
854.38213	0.94246
852.32833	0.94285
850.27453	0.94257
848.22073	0.94198
846.16692	0.94170
844.11312	0.94190
842.05932	0.94208
840.00551	0.94217
837.95171	0.94261
835.89791	0.94281
833.84410	0.94238
831.79030	0.94144
829.73650	0.94011
827.68269	0.93941
825.62889	0.93955
823.57509	0.93968
821.52128	0.93989
819.46748	0.94025
817.41368	0.94046
815.35987	0.94047
813.30607	0.93994
811.25227	0.93934
809.19846	0.93899
807.14466	0.93813
805.09086	0.93635
803.03705	0.93370
800.98325	0.93127
798.92945	0.93031
796.87565	0.93022
794.82184	0.93038
792.76804	0.93072
790.71424	0.93090
788.66043	0.93099
786.60663	0.93082
784.55283	0.93013
782.49902	0.92842
780.44522	0.92609
778.39142	0.92491
776.33761	0.92518
774.28381	0.92576
772.23001	0.92561
770.17620	0.92503
768.12240	0.92512
766.06860	0.92520
764.01479	0.92513
761.96099	0.92514
759.90719	0.92457
757.85338	0.92405
755.79958	0.92367
753.74578	0.92278
751.69197	0.92198
749.63817	0.92137
747.58437	0.92096
745.53056	0.92083
743.47676	0.92069
741.42296	0.92051
739.36916	0.91981
737.31535	0.91985
735.26155	0.92118
733.20775	0.92165
731.15394	0.92109
729.10014	0.92006
727.04634	0.91911
724.99253	0.91910
722.93873	0.91829
720.88493	0.91662
718.83112	0.91607
716.77732	0.91630
714.72352	0.91666
712.66971	0.91685
710.61591	0.91695
708.56211	0.91708
706.50830	0.91635
704.45450	0.91501
702.40070	0.91354
700.34689	0.91190
698.29309	0.91063
696.23929	0.90944
694.18548	0.90842
692.13168	0.90807
690.07788	0.90791
688.02408	0.90831
685.97027	0.90928
683.91647	0.90984
681.86267	0.90934
679.80886	0.90776
677.75506	0.90640
675.70126	0.90549
673.64745	0.90443
671.59365	0.90360
669.53985	0.90313
667.48604	0.90285
665.43224	0.90245
663.37844	0.90210
661.32463	0.90155
659.27083	0.90035
657.21703	0.89898
655.16322	0.89746
653.10942	0.89571
651.05562	0.89451
649.00181	0.89377
646.94801	0.89324
644.89421	0.89328
642.84040	0.89377
640.78660	0.89420
638.73280	0.89318
636.67899	0.89149
634.62519	0.89175
632.57139	0.89249
630.51759	0.89303
628.46378	0.89442
626.40998	0.89442
624.35618	0.89282
622.30237	0.89139
620.24857	0.89071
618.19477	0.89065
616.14096	0.88905
614.08716	0.88625
612.03336	0.88501
609.97955	0.88544
607.92575	0.88538
605.87195	0.88325
603.81814	0.88090
601.76434	0.88012
599.71054	0.87978
597.65673	0.87982
595.60293	0.88025
593.54913	0.87973
591.49532	0.87778
589.44152	0.87581
587.38772	0.87657
585.33391	0.87843
583.28011	0.87808
581.22631	0.87728
579.17250	0.87621
577.11870	0.87430
575.06490	0.87406
573.01110	0.87521
570.95729	0.87624
568.90349	0.87546
566.84969	0.87260
564.79588	0.87113
562.74208	0.87142
560.68828	0.87164
558.63447	0.87074
556.58067	0.86887
554.52687	0.86785
552.47306	0.86721
550.41926	0.86610
548.36546	0.86440
546.31165	0.86125
544.25785	0.85821
542.20405	0.85661
540.15024	0.85572
538.09644	0.85438
536.04264	0.85156
533.98883	0.84879
531.93503	0.84768
529.88123	0.84807
527.82742	0.84938
525.77362	0.84985
523.71982	0.85003
521.66602	0.85045
519.61221	0.84992
517.55841	0.85049
515.50461	0.85229
513.45080	0.85348
511.39700	0.85510
509.34320	0.85672
507.28939	0.85658
505.23559	0.85615
503.18179	0.85714
501.12798	0.85795
499.07418	0.85768
497.02038	0.85827
494.96657	0.86060
492.91277	0.86052
490.85897	0.85560
488.80516	0.84998
486.75136	0.84616
484.69756	0.84374
482.64375	0.84073
480.58995	0.83716
478.53615	0.83419
476.48234	0.82992
474.42854	0.82506
472.37474	0.82176
470.32093	0.82200
468.26713	0.82417
466.21333	0.82325
464.15953	0.82086
462.10572	0.82019
460.05192	0.82199
457.99812	0.82725
455.94431	0.83086
453.89051	0.83052
451.83671	0.83050
449.78290	0.83147
447.72910	0.83261
445.67530	0.83198
443.62149	0.83184
441.56769	0.83496
439.51389	0.83633
437.46008	0.83712
435.40628	0.83883
433.35248	0.83702
431.29867	0.83249
429.24487	0.82916
427.19107	0.82963
425.13726	0.83158
423.08346	0.83060
421.02966	0.82989
418.97585	0.83115
416.92205	0.83345
414.86825	0.83806
412.81445	0.83855
410.76064	0.83309
408.70684	0.82977
406.65304	0.83471
404.59923	0.84322
402.54543	0.84397
400.49163	0.84219
398.43782	0.85018
