3996.71440	0.98815
3994.66059	0.98799
3992.60678	0.98769
3990.55297	0.98756
3988.49916	0.98751
3986.44535	0.98735
3984.39154	0.98726
3982.33773	0.98763
3980.28391	0.98824
3978.23010	0.98858
3976.17629	0.98861
3974.12248	0.98861
3972.06867	0.98865
3970.01486	0.98842
3967.96105	0.98807
3965.90724	0.98787
3963.85343	0.98774
3961.79962	0.98780
3959.74581	0.98815
3957.69200	0.98836
3955.63819	0.98819
3953.58438	0.98788
3951.53057	0.98772
3949.47676	0.98792
3947.42295	0.98827
3945.36914	0.98832
3943.31533	0.98806
3941.26152	0.98789
3939.20771	0.98791
3937.15390	0.98801
3935.10009	0.98817
3933.04628	0.98814
3930.99247	0.98777
3928.93866	0.98758
3926.88485	0.98780
3924.83104	0.98805
3922.77723	0.98799
3920.72342	0.98790
3918.66961	0.98824
3916.61580	0.98851
3914.56199	0.98826
3912.50818	0.98805
3910.45437	0.98798
3908.40056	0.98793
3906.34675	0.98789
3904.29294	0.98776
3902.23913	0.98755
3900.18532	0.98748
3898.13151	0.98787
3896.07770	0.98825
3894.02389	0.98829
3891.97008	0.98812
3889.91627	0.98778
3887.86246	0.98759
3885.80865	0.98781
3883.75484	0.98814
3881.70103	0.98806
3879.64722	0.98775
3877.59341	0.98776
3875.53960	0.98795
3873.48579	0.98796
3871.43198	0.98772
3869.37817	0.98746
3867.32436	0.98757
3865.27055	0.98796
3863.21674	0.98847
3861.16293	0.98866
3859.10912	0.98831
3857.05531	0.98803
3855.00150	0.98787
3852.94769	0.98739
3850.89388	0.98728
3848.84007	0.98760
3846.78626	0.98794
3844.73245	0.98810
3842.67864	0.98777
3840.62483	0.98727
3838.57102	0.98753
3836.51721	0.98828
3834.46340	0.98855
3832.40959	0.98810
3830.35578	0.98759
3828.30197	0.98773
3826.24816	0.98799
3824.19435	0.98792
3822.14054	0.98796
3820.08673	0.98826
3818.03292	0.98847
3815.97911	0.98851
3813.92530	0.98821
3811.87149	0.98778
3809.81768	0.98753
3807.76387	0.98737
3805.71006	0.98714
3803.65625	0.98712
3801.60244	0.98758
3799.54863	0.98782
3797.49482	0.98735
3795.44101	0.98706
3793.38720	0.98730
3791.33339	0.98745
3789.27958	0.98752
3787.22577	0.98771
3785.17196	0.98785
3783.11815	0.98783
3781.06434	0.98762
3779.01053	0.98741
3776.95672	0.98754
3774.90291	0.98773
3772.84910	0.98770
3770.79529	0.98753
3768.74148	0.98722
3766.68767	0.98698
3764.63386	0.98718
3762.58005	0.98755
3760.52624	0.98750
3758.47243	0.98724
3756.41862	0.98724
3754.36481	0.98723
3752.31100	0.98725
3750.25719	0.98738
3748.20338	0.98737
3746.14957	0.98742
3744.09576	0.98727
3742.04195	0.98670
3739.98814	0.98628
3737.93433	0.98632
3735.88052	0.98657
3733.82671	0.98640
3731.77290	0.98621
3729.71909	0.98645
3727.66528	0.98666
3725.61147	0.98660
3723.55766	0.98647
3721.50385	0.98641
3719.45004	0.98637
3717.39623	0.98621
3715.34242	0.98600
3713.28861	0.98602
3711.23480	0.98593
3709.18099	0.98537
3707.12718	0.98478
3705.07337	0.98437
3703.01956	0.98407
3700.96575	0.98381
3698.91194	0.98368
3696.85813	0.98346
3694.80432	0.98323
3692.75051	0.98299
3690.69670	0.98236
3688.64289	0.98157
3686.58907	0.98114
3684.53526	0.98094
3682.48145	0.98066
3680.42764	0.98018
3678.37383	0.97975
3676.32002	0.97938
3674.26621	0.97879
3672.21240	0.97830
3670.15859	0.97756
3668.10478	0.97621
3666.05097	0.97506
3663.99716	0.97430
3661.94335	0.97364
3659.88954	0.97279
3657.83573	0.97164
3655.78192	0.97047
3653.72811	0.96991
3651.67430	0.96953
3649.62049	0.96824
3647.56668	0.96643
3645.51287	0.96534
3643.45906	0.96455
3641.40525	0.96357
3639.35144	0.96259
3637.29763	0.96164
3635.24382	0.96049
3633.19001	0.95941
3631.13620	0.95846
3629.08239	0.95684
3627.02858	0.95528
3624.97477	0.95455
3622.92096	0.95377
3620.86715	0.95286
3618.81334	0.95198
3616.75953	0.95118
3614.70572	0.95033
3612.65191	0.94920
3610.59810	0.94803
3608.54429	0.94666
3606.49048	0.94518
3604.43667	0.94416
3602.38286	0.94326
3600.32905	0.94207
3598.27524	0.94076
3596.22143	0.93919
3594.16762	0.93760
3592.11381	0.93656
3590.06000	0.93591
3588.00619	0.93512
3585.95238	0.93379
3583.89857	0.93234
3581.84476	0.93134
3579.79095	0.93047
3577.73714	0.92925
3575.68333	0.92789
3573.62952	0.92659
3571.57571	0.92526
3569.52190	0.92371
3567.46809	0.92180
3565.41428	0.92019
3563.36047	0.91914
3561.30666	0.91780
3559.25285	0.91620
3557.19904	0.91484
3555.14523	0.91374
3553.09142	0.91254
3551.03761	0.91122
3548.98380	0.91000
3546.92999	0.90868
3544.87618	0.90727
3542.82237	0.90621
3540.76856	0.90582
3538.71475	0.90567
3536.66094	0.90509
3534.60713	0.90436
3532.55332	0.90404
3530.49951	0.90393
3528.44570	0.90356
3526.39189	0.90275
3524.33808	0.90209
3522.28427	0.90194
3520.23046	0.90213
3518.17665	0.90227
3516.12284	0.90201
3514.06903	0.90152
3512.01522	0.90120
3509.96141	0.90093
3507.90760	0.90044
3505.85379	0.90000
3503.79998	0.89972
3501.74617	0.89938
3499.69236	0.89896
3497.63855	0.89839
3495.58474	0.89780
3493.53093	0.89752
3491.47712	0.89729
3489.42331	0.89669
3487.36950	0.89617
3485.31569	0.89607
3483.26188	0.89595
3481.20807	0.89569
3479.15426	0.89545
3477.10045	0.89500
3475.04664	0.89442
3472.99283	0.89408
3470.93902	0.89380
3468.88521	0.89331
3466.83140	0.89271
3464.77759	0.89222
3462.72378	0.89191
3460.66997	0.89151
3458.61616	0.89115
3456.56235	0.89084
3454.50854	0.89024
3452.45473	0.88962
3450.40092	0.88935
3448.34711	0.88919
3446.29330	0.88872
3444.23949	0.88817
3442.18568	0.88771
3440.13187	0.88727
3438.07806	0.88688
3436.02425	0.88634
3433.97044	0.88558
3431.91663	0.88503
3429.86282	0.88457
3427.80901	0.88374
3425.75520	0.88276
3423.70139	0.88211
3421.64758	0.88173
3419.59377	0.88110
3417.53996	0.88008
3415.48615	0.87916
3413.43234	0.87866
3411.37853	0.87839
3409.32472	0.87807
3407.27091	0.87758
3405.21710	0.87713
3403.16329	0.87688
3401.10948	0.87654
3399.05567	0.87647
3397.00186	0.87705
3394.94805	0.87770
3392.89424	0.87804
3390.84042	0.87843
3388.78661	0.87899
3386.73280	0.87952
3384.67899	0.88002
3382.62518	0.88068
3380.57137	0.88151
3378.51756	0.88215
3376.46375	0.88263
3374.40994	0.88318
3372.35613	0.88372
3370.30232	0.88424
3368.24851	0.88498
3366.19470	0.88573
3364.14089	0.88605
3362.08708	0.88626
3360.03327	0.88677
3357.97946	0.88745
3355.92565	0.88791
3353.87184	0.88794
3351.81803	0.88793
3349.76422	0.88832
3347.71041	0.88893
3345.65660	0.88929
3343.60279	0.88936
3341.54898	0.88966
3339.49517	0.89008
3337.44136	0.89039
3335.38755	0.89087
3333.33374	0.89158
3331.27993	0.89210
3329.22612	0.89231
3327.17231	0.89266
3325.11850	0.89311
3323.06469	0.89351
3321.01088	0.89389
3318.95707	0.89428
3316.90326	0.89475
3314.84945	0.89526
3312.79564	0.89565
3310.74183	0.89571
3308.68802	0.89569
3306.63421	0.89611
3304.58040	0.89675
3302.52659	0.89714
3300.47278	0.89748
3298.41897	0.89777
3296.36516	0.89781
3294.31135	0.89788
3292.25754	0.89820
3290.20373	0.89871
3288.14992	0.89936
3286.09611	0.89989
3284.04230	0.90001
3281.98849	0.90016
3279.93468	0.90080
3277.88087	0.90140
3275.82706	0.90139
3273.77325	0.90140
3271.71944	0.90203
3269.66563	0.90262
3267.61182	0.90274
3265.55801	0.90278
3263.50420	0.90282
3261.45039	0.90281
3259.39658	0.90302
3257.34277	0.90353
3255.28896	0.90405
3253.23515	0.90449
3251.18134	0.90493
3249.12753	0.90536
3247.07372	0.90575
3245.01991	0.90606
3242.96610	0.90631
3240.91229	0.90649
3238.85848	0.90660
3236.80467	0.90689
3234.75086	0.90749
3232.69705	0.90820
3230.64324	0.90889
3228.58943	0.90949
3226.53562	0.90960
3224.48181	0.90944
3222.42800	0.90974
3220.37419	0.91038
3218.32038	0.91086
3216.26657	0.91115
3214.21276	0.91156
3212.15895	0.91219
3210.10514	0.91290
3208.05133	0.91354
3205.99752	0.91397
3203.94371	0.91434
3201.88990	0.91473
3199.83609	0.91508
3197.78228	0.91545
3195.72847	0.91574
3193.67466	0.91604
3191.62085	0.91664
3189.56704	0.91734
3187.51323	0.91786
3185.45942	0.91842
3183.40561	0.91911
3181.35180	0.91968
3179.29799	0.92024
3177.24418	0.92091
3175.19037	0.92156
3173.13656	0.92215
3171.08275	0.92263
3169.02894	0.92309
3166.97513	0.92367
3164.92132	0.92425
3162.86751	0.92459
3160.81370	0.92491
3158.75989	0.92554
3156.70608	0.92623
3154.65227	0.92677
3152.59846	0.92734
3150.54465	0.92799
3148.49084	0.92867
3146.43703	0.92927
3144.38322	0.92968
3142.32941	0.93001
3140.27560	0.93038
3138.22179	0.93069
3136.16798	0.93094
3134.11417	0.93140
3132.06036	0.93213
3130.00655	0.93284
3127.95274	0.93341
3125.89893	0.93389
3123.84512	0.93439
3121.79131	0.93494
3119.73750	0.93534
3117.68369	0.93569
3115.62988	0.93624
3113.57607	0.93681
3111.52226	0.93712
3109.46845	0.93741
3107.41464	0.93796
3105.36083	0.93851
3103.30702	0.93877
3101.25321	0.93903
3099.19940	0.93960
3097.14559	0.94020
3095.09177	0.94032
3093.03796	0.94031
3090.98415	0.94077
3088.93034	0.94142
3086.87653	0.94172
3084.82272	0.94184
3082.76891	0.94220
3080.71510	0.94259
3078.66129	0.94288
3076.60748	0.94323
3074.55367	0.94364
3072.49986	0.94418
3070.44605	0.94481
3068.39224	0.94521
3066.33843	0.94541
3064.28462	0.94564
3062.23081	0.94597
3060.17700	0.94654
3058.12319	0.94716
3056.06938	0.94745
3054.01557	0.94749
3051.96176	0.94750
3049.90795	0.94763
3047.85414	0.94789
3045.80033	0.94828
3043.74652	0.94875
3041.69271	0.94898
3039.63890	0.94883
3037.58509	0.94873
3035.53128	0.94902
3033.47747	0.94951
3031.42366	0.95002
3029.36985	0.95024
3027.31604	0.95021
3025.26223	0.95018
3023.20842	0.95022
3021.15461	0.95034
3019.10080	0.95033
3017.04699	0.95009
3014.99318	0.94994
3012.93937	0.95002
3010.88556	0.95012
3008.83175	0.95012
3006.77794	0.94987
3004.72413	0.94944
3002.67032	0.94908
3000.61651	0.94858
2998.56270	0.94766
2996.50889	0.94647
2994.45508	0.94516
2992.40127	0.94360
2990.34746	0.94189
2988.29365	0.94017
2986.23984	0.93793
2984.18603	0.93468
2982.13222	0.93038
2980.07841	0.92487
2978.02460	0.91764
2975.97079	0.90825
2973.91698	0.89596
2971.86317	0.87992
2969.80936	0.85990
2967.75555	0.83634
2965.70174	0.81018
2963.64793	0.78448
2961.59412	0.76506
2959.54031	0.75545
2957.48650	0.75153
2955.43269	0.74497
2953.37888	0.73180
2951.32507	0.71744
2949.27126	0.71333
2947.21745	0.72684
2945.16364	0.75445
2943.10983	0.78537
2941.05602	0.80973
2939.00221	0.82314
2936.94840	0.82560
2934.89459	0.81879
2932.84078	0.80432
2930.78697	0.78381
2928.73316	0.76002
2926.67935	0.73624
2924.62554	0.71430
2922.57173	0.69404
2920.51792	0.67591
2918.46411	0.66440
2916.41030	0.66587
2914.35649	0.68098
2912.30268	0.70228
2910.24887	0.72141
2908.19506	0.73625
2906.14125	0.74935
2904.08744	0.76294
2902.03363	0.77747
2899.97982	0.79234
2897.92601	0.80620
2895.87220	0.81756
2893.81839	0.82558
2891.76458	0.83013
2889.71077	0.83168
2887.65696	0.83116
2885.60315	0.82919
2883.54934	0.82545
2881.49553	0.81995
2879.44172	0.81446
2877.38791	0.81170
2875.33410	0.81240
2873.28029	0.81385
2871.22648	0.81272
2869.17267	0.80904
2867.11886	0.80752
2865.06505	0.81492
2863.01124	0.83334
2860.95743	0.85685
2858.90362	0.87747
2856.84981	0.89123
2854.79600	0.89812
2852.74219	0.89955
2850.68838	0.89630
2848.63457	0.88811
2846.58076	0.87468
2844.52695	0.85671
2842.47314	0.83660
2840.41933	0.81924
2838.36552	0.81106
2836.31171	0.81678
2834.25790	0.83522
2832.20409	0.85921
2830.15028	0.88090
2828.09647	0.89681
2826.04266	0.90768
2823.98885	0.91535
2821.93504	0.92090
2819.88123	0.92490
2817.82742	0.92800
2815.77361	0.93058
2813.71980	0.93255
2811.66599	0.93407
2809.61218	0.93562
2807.55837	0.93733
2805.50456	0.93908
2803.45075	0.94095
2801.39693	0.94279
2799.34312	0.94417
2797.28931	0.94498
2795.23550	0.94572
2793.18169	0.94661
2791.12788	0.94748
2789.07407	0.94841
2787.02026	0.94947
2784.96645	0.95057
2782.91264	0.95156
2780.85883	0.95237
2778.80502	0.95301
2776.75121	0.95346
2774.69740	0.95386
2772.64359	0.95428
2770.58978	0.95467
2768.53597	0.95497
2766.48216	0.95511
2764.42835	0.95522
2762.37454	0.95559
2760.32073	0.95615
2758.26692	0.95662
2756.21311	0.95696
2754.15930	0.95720
2752.10549	0.95729
2750.05168	0.95727
2747.99787	0.95728
2745.94406	0.95725
2743.89025	0.95719
2741.83644	0.95707
2739.78263	0.95664
2737.72882	0.95606
2735.67501	0.95578
2733.62120	0.95573
2731.56739	0.95546
2729.51358	0.95483
2727.45977	0.95418
2725.40596	0.95363
2723.35215	0.95330
2721.29834	0.95345
2719.24453	0.95399
2717.19072	0.95476
2715.13691	0.95567
2713.08310	0.95658
2711.02929	0.95740
2708.97548	0.95805
2706.92167	0.95843
2704.86786	0.95871
2702.81405	0.95892
2700.76024	0.95898
2698.70643	0.95918
2696.65262	0.95953
2694.59881	0.95974
2692.54500	0.95981
2690.49119	0.95975
2688.43738	0.95969
2686.38357	0.95982
2684.32976	0.95995
2682.27595	0.95995
2680.22214	0.95993
2678.16833	0.96003
2676.11452	0.96026
2674.06071	0.96035
2672.00690	0.96018
2669.95309	0.95996
2667.89928	0.95995
2665.84547	0.96022
2663.79166	0.96037
2661.73785	0.96024
2659.68404	0.96020
2657.63023	0.96034
2655.57642	0.96041
2653.52261	0.96044
2651.46880	0.96060
2649.41499	0.96080
2647.36118	0.96089
2645.30737	0.96111
2643.25356	0.96148
2641.19975	0.96159
2639.14594	0.96160
2637.09213	0.96171
2635.03832	0.96171
2632.98451	0.96164
2630.93070	0.96161
2628.87689	0.96170
2626.82308	0.96191
2624.76927	0.96217
2622.71546	0.96233
2620.66165	0.96227
2618.60784	0.96219
2616.55403	0.96222
2614.50022	0.96220
2612.44641	0.96215
2610.39260	0.96228
2608.33879	0.96259
2606.28498	0.96284
2604.23117	0.96303
2602.17736	0.96322
2600.12355	0.96327
2598.06974	0.96331
2596.01593	0.96356
2593.96212	0.96381
2591.90831	0.96398
2589.85450	0.96401
2587.80069	0.96358
2585.74688	0.96307
2583.69307	0.96308
2581.63926	0.96338
2579.58545	0.96363
2577.53164	0.96390
2575.47783	0.96413
2573.42402	0.96430
2571.37021	0.96447
2569.31640	0.96431
2567.26259	0.96393
2565.20878	0.96394
2563.15497	0.96429
2561.10116	0.96474
2559.04735	0.96513
2556.99354	0.96515
2554.93973	0.96500
2552.88592	0.96505
2550.83211	0.96513
2548.77830	0.96503
2546.72449	0.96506
2544.67068	0.96550
2542.61687	0.96599
2540.56306	0.96609
2538.50925	0.96592
2536.45544	0.96597
2534.40163	0.96631
2532.34782	0.96643
2530.29401	0.96605
2528.24020	0.96540
2526.18639	0.96515
2524.13258	0.96550
2522.07877	0.96596
2520.02496	0.96645
2517.97115	0.96700
2515.91734	0.96728
2513.86353	0.96743
2511.80972	0.96739
2509.75591	0.96691
2507.70210	0.96645
2505.64828	0.96639
2503.59447	0.96667
2501.54066	0.96702
2499.48685	0.96713
2497.43304	0.96705
2495.37923	0.96688
2493.32542	0.96663
2491.27161	0.96660
2489.21780	0.96675
2487.16399	0.96692
2485.11018	0.96713
2483.05637	0.96740
2481.00256	0.96760
2478.94875	0.96775
2476.89494	0.96778
2474.84113	0.96752
2472.78732	0.96750
2470.73351	0.96785
2468.67970	0.96777
2466.62589	0.96734
2464.57208	0.96731
2462.51827	0.96747
2460.46446	0.96727
2458.41065	0.96682
2456.35684	0.96659
2454.30303	0.96688
2452.24922	0.96746
2450.19541	0.96777
2448.14160	0.96752
2446.08779	0.96701
2444.03398	0.96692
2441.98017	0.96712
2439.92636	0.96707
2437.87255	0.96701
2435.81874	0.96709
2433.76493	0.96711
2431.71112	0.96710
2429.65731	0.96711
2427.60350	0.96714
2425.54969	0.96724
2423.49588	0.96729
2421.44207	0.96722
2419.38826	0.96727
2417.33445	0.96740
2415.28064	0.96761
2413.22683	0.96782
2411.17302	0.96770
2409.11921	0.96751
2407.06540	0.96761
2405.01159	0.96779
2402.95778	0.96795
2400.90397	0.96812
2398.85016	0.96821
2396.79635	0.96828
2394.74254	0.96826
2392.68873	0.96807
2390.63492	0.96784
2388.58111	0.96740
2386.52730	0.96680
2384.47349	0.96670
2382.41968	0.96723
2380.36587	0.96758
2378.31206	0.96754
2376.25825	0.96756
2374.20444	0.96757
2372.15063	0.96755
2370.09682	0.96771
2368.04301	0.96814
2365.98920	0.96865
2363.93539	0.96870
2361.88158	0.96855
2359.82777	0.96931
2357.77396	0.97029
2355.72015	0.96943
2353.66634	0.96746
2351.61253	0.96665
2349.55872	0.96682
2347.50491	0.96693
2345.45110	0.96724
2343.39729	0.96790
2341.34348	0.96798
2339.28967	0.96752
2337.23586	0.96727
2335.18205	0.96739
2333.12824	0.96760
2331.07443	0.96764
2329.02062	0.96730
2326.96681	0.96681
2324.91300	0.96682
2322.85919	0.96714
2320.80538	0.96710
2318.75157	0.96670
2316.69776	0.96629
2314.64395	0.96595
2312.59014	0.96567
2310.53633	0.96584
2308.48252	0.96626
2306.42871	0.96611
2304.37490	0.96583
2302.32109	0.96587
2300.26728	0.96575
2298.21347	0.96554
2296.15966	0.96578
2294.10585	0.96638
2292.05204	0.96661
2289.99823	0.96621
2287.94442	0.96599
2285.89061	0.96626
2283.83680	0.96649
2281.78299	0.96660
2279.72918	0.96668
2277.67537	0.96663
2275.62156	0.96652
2273.56775	0.96683
2271.51394	0.96766
2269.46013	0.96780
2267.40632	0.96723
2265.35251	0.96736
2263.29870	0.96761
2261.24489	0.96694
2259.19108	0.96636
2257.13727	0.96635
2255.08346	0.96594
2253.02965	0.96544
2250.97584	0.96605
2248.92203	0.96699
2246.86822	0.96685
2244.81441	0.96616
2242.76060	0.96597
2240.70679	0.96582
2238.65298	0.96549
2236.59917	0.96538
2234.54536	0.96522
2232.49155	0.96524
2230.43774	0.96619
2228.38393	0.96763
2226.33012	0.96837
2224.27631	0.96817
2222.22250	0.96727
2220.16869	0.96643
2218.11488	0.96662
2216.06107	0.96707
2214.00726	0.96742
2211.95344	0.96829
2209.89963	0.96913
2207.84582	0.96864
2205.79201	0.96707
2203.73820	0.96654
2201.68439	0.96701
2199.63058	0.96676
2197.57677	0.96618
2195.52296	0.96576
2193.46915	0.96549
2191.41534	0.96567
2189.36153	0.96585
2187.30772	0.96603
2185.25391	0.96677
2183.20010	0.96759
2181.14629	0.96784
2179.09248	0.96800
2177.03867	0.96847
2174.98486	0.96824
2172.93105	0.96719
2170.87724	0.96675
2168.82343	0.96634
2166.76962	0.96540
2164.71581	0.96532
2162.66200	0.96582
2160.60819	0.96662
2158.55438	0.96910
2156.50057	0.97155
2154.44676	0.97107
2152.39295	0.96915
2150.33914	0.96762
2148.28533	0.96671
2146.23152	0.96758
2144.17771	0.96932
2142.12390	0.97010
2140.07009	0.96952
2138.01628	0.96794
2135.96247	0.96711
2133.90866	0.96790
2131.85485	0.96899
2129.80104	0.96904
2127.74723	0.96864
2125.69342	0.96856
2123.63961	0.96791
2121.58580	0.96682
2119.53199	0.96635
2117.47818	0.96636
2115.42437	0.96638
2113.37056	0.96631
2111.31675	0.96600
2109.26294	0.96566
2107.20913	0.96578
2105.15532	0.96625
2103.10151	0.96666
2101.04770	0.96693
2098.99389	0.96708
2096.94008	0.96735
2094.88627	0.96767
2092.83246	0.96763
2090.77865	0.96726
2088.72484	0.96641
2086.67103	0.96553
2084.61722	0.96559
2082.56341	0.96599
2080.50960	0.96588
2078.45579	0.96600
2076.40198	0.96644
2074.34817	0.96657
2072.29436	0.96648
2070.24055	0.96602
2068.18674	0.96568
2066.13293	0.96617
2064.07912	0.96657
2062.02531	0.96648
2059.97150	0.96631
2057.91769	0.96580
2055.86388	0.96527
2053.81007	0.96550
2051.75626	0.96579
2049.70245	0.96543
2047.64864	0.96553
2045.59483	0.96659
2043.54102	0.96760
2041.48721	0.96840
2039.43340	0.96912
2037.37959	0.96888
2035.32578	0.96858
2033.27197	0.96904
2031.21816	0.96897
2029.16435	0.96877
2027.11054	0.96927
2025.05673	0.96986
2023.00292	0.96898
2020.94911	0.96689
2018.89530	0.96645
2016.84149	0.96720
2014.78768	0.96643
2012.73387	0.96572
2010.68006	0.96659
2008.62625	0.96721
2006.57244	0.96731
2004.51863	0.96802
2002.46482	0.96893
2000.41101	0.96832
1998.35720	0.96646
1996.30339	0.96602
1994.24958	0.96698
1992.19577	0.96736
1990.14196	0.96727
1988.08815	0.96728
1986.03434	0.96736
1983.98053	0.96755
1981.92672	0.96720
1979.87291	0.96665
1977.81910	0.96774
1975.76529	0.96939
1973.71148	0.96976
1971.65767	0.96992
1969.60386	0.96953
1967.55005	0.96842
1965.49624	0.96795
1963.44243	0.96765
1961.38862	0.96658
1959.33481	0.96495
1957.28100	0.96456
1955.22719	0.96589
1953.17338	0.96693
1951.11957	0.96709
1949.06576	0.96686
1947.01195	0.96673
1944.95814	0.96704
1942.90433	0.96697
1940.85052	0.96695
1938.79671	0.96777
1936.74290	0.96822
1934.68909	0.96756
1932.63528	0.96635
1930.58147	0.96528
1928.52766	0.96476
1926.47385	0.96482
1924.42004	0.96508
1922.36623	0.96494
1920.31242	0.96450
1918.25861	0.96415
1916.20479	0.96415
1914.15098	0.96446
1912.09717	0.96437
1910.04336	0.96379
1907.98955	0.96350
1905.93574	0.96362
1903.88193	0.96367
1901.82812	0.96345
1899.77431	0.96311
1897.72050	0.96244
1895.66669	0.96159
1893.61288	0.96142
1891.55907	0.96156
1889.50526	0.96139
1887.45145	0.96141
1885.39764	0.96174
1883.34383	0.96171
1881.29002	0.96137
1879.23621	0.96129
1877.18240	0.96134
1875.12859	0.96098
1873.07478	0.96049
1871.02097	0.96035
1868.96716	0.96022
1866.91335	0.96005
1864.85954	0.96021
1862.80573	0.96034
1860.75192	0.96034
1858.69811	0.96026
1856.64430	0.96000
1854.59049	0.95969
1852.53668	0.95941
1850.48287	0.95922
1848.42906	0.95904
1846.37525	0.95861
1844.32144	0.95815
1842.26763	0.95781
1840.21382	0.95763
1838.16001	0.95765
1836.10620	0.95750
1834.05239	0.95701
1831.99858	0.95656
1829.94477	0.95653
1827.89096	0.95676
1825.83715	0.95666
1823.78334	0.95628
1821.72953	0.95592
1819.67572	0.95564
1817.62191	0.95558
1815.56810	0.95538
1813.51429	0.95473
1811.46048	0.95406
1809.40667	0.95368
1807.35286	0.95314
1805.29905	0.95244
1803.24524	0.95194
1801.19143	0.95154
1799.13762	0.95110
1797.08381	0.95070
1795.03000	0.95021
1792.97619	0.94935
1790.92238	0.94809
1788.86857	0.94702
1786.81476	0.94626
1784.76095	0.94533
1782.70714	0.94410
1780.65333	0.94287
1778.59952	0.94157
1776.54571	0.94022
1774.49190	0.93892
1772.43809	0.93757
1770.38428	0.93649
1768.33047	0.93577
1766.27666	0.93503
1764.22285	0.93429
1762.16904	0.93346
1760.11523	0.93268
1758.06142	0.93194
1756.00761	0.93108
1753.95380	0.93058
1751.89999	0.93035
1749.84618	0.92950
1747.79237	0.92819
1745.73856	0.92718
1743.68475	0.92628
1741.63094	0.92520
1739.57713	0.92386
1737.52332	0.92271
1735.46951	0.92173
1733.41570	0.91996
1731.36189	0.91806
1729.30808	0.91658
1727.25427	0.91514
1725.20046	0.91343
1723.14665	0.91126
1721.09284	0.90919
1719.03903	0.90712
1716.98522	0.90445
1714.93141	0.90223
1712.87760	0.90080
1710.82379	0.89970
1708.76998	0.89905
1706.71617	0.89883
1704.66236	0.89898
1702.60855	0.89959
1700.55474	0.90047
1698.50093	0.90117
1696.44712	0.90160
1694.39331	0.90190
1692.33950	0.90231
1690.28569	0.90259
1688.23188	0.90266
1686.17807	0.90273
1684.12426	0.90248
1682.07045	0.90259
1680.01664	0.90338
1677.96283	0.90411
1675.90902	0.90446
1673.85521	0.90458
1671.80140	0.90452
1669.74759	0.90400
1667.69378	0.90337
1665.63997	0.90312
1663.58616	0.90263
1661.53235	0.90176
1659.47854	0.90115
1657.42473	0.90087
1655.37092	0.90063
1653.31711	0.89935
1651.26330	0.89796
1649.20949	0.89776
1647.15568	0.89725
1645.10187	0.89655
1643.04806	0.89666
1640.99425	0.89706
1638.94044	0.89740
1636.88663	0.89750
1634.83282	0.89753
1632.77901	0.89799
1630.72520	0.89852
1628.67139	0.89880
1626.61758	0.89898
1624.56377	0.89945
1622.50996	0.90035
1620.45614	0.90179
1618.40233	0.90414
1616.34852	0.90771
1614.29471	0.91119
1612.24090	0.91406
1610.18709	0.91679
1608.13328	0.91929
1606.07947	0.92155
1604.02566	0.92362
1601.97185	0.92549
1599.91804	0.92721
1597.86423	0.92881
1595.81042	0.93046
1593.75661	0.93217
1591.70280	0.93357
1589.64899	0.93480
1587.59518	0.93614
1585.54137	0.93724
1583.48756	0.93811
1581.43375	0.93906
1579.37994	0.93995
1577.32613	0.94062
1575.27232	0.94105
1573.21851	0.94146
1571.16470	0.94200
1569.11089	0.94255
1567.05708	0.94309
1565.00327	0.94361
1562.94946	0.94401
1560.89565	0.94439
1558.84184	0.94463
1556.78803	0.94447
1554.73422	0.94436
1552.68041	0.94443
1550.62660	0.94462
1548.57279	0.94477
1546.51898	0.94493
1544.46517	0.94509
1542.41136	0.94538
1540.35755	0.94606
1538.30374	0.94652
1536.24993	0.94667
1534.19612	0.94677
1532.14231	0.94677
1530.08850	0.94689
1528.03469	0.94718
1525.98088	0.94734
1523.92707	0.94716
1521.87326	0.94691
1519.81945	0.94713
1517.76564	0.94763
1515.71183	0.94789
1513.65802	0.94783
1511.60421	0.94767
1509.55040	0.94781
1507.49659	0.94802
1505.44278	0.94767
1503.38897	0.94755
1501.33516	0.94775
1499.28135	0.94768
1497.22754	0.94718
1495.17373	0.94674
1493.11992	0.94650
1491.06611	0.94616
1489.01230	0.94546
1486.95849	0.94427
1484.90468	0.94276
1482.85087	0.94083
1480.79706	0.93826
1478.74325	0.93508
1476.68944	0.93075
1474.63563	0.92364
1472.58182	0.91095
1470.52801	0.89480
1468.47420	0.87901
1466.42039	0.86047
1464.36658	0.83893
1462.31277	0.82327
1460.25896	0.81539
1458.20515	0.80972
1456.15134	0.80435
1454.09753	0.80271
1452.04372	0.80460
1449.98991	0.81136
1447.93610	0.82661
1445.88229	0.84760
1443.82848	0.86638
1441.77467	0.87972
1439.72086	0.88678
1437.66705	0.88896
1435.61324	0.89112
1433.55943	0.89803
1431.50562	0.90776
1429.45181	0.91628
1427.39800	0.92102
1425.34419	0.92326
1423.29038	0.92457
1421.23657	0.92553
1419.18276	0.92616
1417.12895	0.92628
1415.07514	0.92639
1413.02133	0.92672
1410.96752	0.92707
1408.91371	0.92729
1406.85990	0.92752
1404.80609	0.92774
1402.75228	0.92787
1400.69847	0.92786
1398.64466	0.92759
1396.59085	0.92696
1394.53704	0.92574
1392.48323	0.92366
1390.42942	0.92043
1388.37561	0.91457
1386.32180	0.90386
1384.26799	0.88677
1382.21418	0.85916
1380.16037	0.81576
1378.10656	0.76425
1376.05275	0.73363
1373.99894	0.74974
1371.94513	0.79668
1369.89132	0.83940
1367.83751	0.86653
1365.78370	0.87893
1363.72989	0.88122
1361.67608	0.87762
1359.62227	0.87375
1357.56846	0.87482
1355.51465	0.88163
1353.46084	0.89071
1351.40703	0.89847
1349.35322	0.90415
1347.29941	0.90818
1345.24560	0.91083
1343.19179	0.91264
1341.13798	0.91393
1339.08417	0.91458
1337.03036	0.91465
1334.97655	0.91428
1332.92274	0.91345
1330.86893	0.91263
1328.81512	0.91255
1326.76130	0.91324
1324.70749	0.91441
1322.65368	0.91575
1320.59987	0.91677
1318.54606	0.91728
1316.49225	0.91748
1314.43844	0.91754
1312.38463	0.91727
1310.33082	0.91621
1308.27701	0.91369
1306.22320	0.91001
1304.16939	0.90749
1302.11558	0.90767
1300.06177	0.90886
1298.00796	0.90928
1295.95415	0.90917
1293.90034	0.90937
1291.84653	0.90996
1289.79272	0.91054
1287.73891	0.91097
1285.68510	0.91115
1283.63129	0.91106
1281.57748	0.91075
1279.52367	0.91028
1277.46986	0.90975
1275.41605	0.90927
1273.36224	0.90871
1271.30843	0.90787
1269.25462	0.90679
1267.20081	0.90556
1265.14700	0.90407
1263.09319	0.90222
1261.03938	0.89971
1258.98557	0.89627
1256.93176	0.89279
1254.87795	0.89090
1252.82414	0.89091
1250.77033	0.89138
1248.71652	0.89125
1246.66271	0.89039
1244.60890	0.88888
1242.55509	0.88704
1240.50128	0.88513
1238.44747	0.88307
1236.39366	0.88076
1234.33985	0.87838
1232.28604	0.87619
1230.23223	0.87401
1228.17842	0.87145
1226.12461	0.86860
1224.07080	0.86569
1222.01699	0.86289
1219.96318	0.86043
1217.90937	0.85852
1215.85556	0.85713
1213.80175	0.85617
1211.74794	0.85542
1209.69413	0.85462
1207.64032	0.85370
1205.58651	0.85272
1203.53270	0.85185
1201.47889	0.85096
1199.42508	0.84992
1197.37127	0.84888
1195.31746	0.84794
1193.26365	0.84690
1191.20984	0.84558
1189.15603	0.84416
1187.10222	0.84266
1185.04841	0.84093
1182.99460	0.83867
1180.94079	0.83573
1178.88698	0.83221
1176.83317	0.82792
1174.77936	0.82201
1172.72555	0.81366
1170.67174	0.80336
1168.61793	0.79414
1166.56412	0.79019
1164.51031	0.79245
1162.45650	0.79772
1160.40269	0.80294
1158.34888	0.80717
1156.29507	0.81028
1154.24126	0.81254
1152.18745	0.81455
1150.13364	0.81678
1148.07983	0.81920
1146.02602	0.82128
1143.97221	0.82268
1141.91840	0.82344
1139.86459	0.82378
1137.81078	0.82421
1135.75697	0.82537
1133.70316	0.82738
1131.64935	0.83002
1129.59554	0.83292
1127.54173	0.83555
1125.48792	0.83766
1123.43411	0.83912
1121.38030	0.84002
1119.32649	0.84092
1117.27268	0.84205
1115.21887	0.84330
1113.16506	0.84487
1111.11125	0.84692
1109.05744	0.84932
1107.00363	0.85169
1104.94982	0.85377
1102.89601	0.85582
1100.84220	0.85846
1098.78839	0.86182
1096.73458	0.86545
1094.68077	0.86883
1092.62696	0.87166
1090.57315	0.87398
1088.51934	0.87592
1086.46553	0.87743
1084.41172	0.87845
1082.35791	0.87942
1080.30410	0.88048
1078.25029	0.88103
1076.19648	0.88110
1074.14267	0.88117
1072.08886	0.88099
1070.03505	0.88044
1067.98124	0.87966
1065.92743	0.87828
1063.87362	0.87600
1061.81981	0.87295
1059.76600	0.86920
1057.71219	0.86496
1055.65838	0.86088
1053.60457	0.85741
1051.55076	0.85428
1049.49695	0.85114
1047.44314	0.84803
1045.38933	0.84555
1043.33552	0.84466
1041.28171	0.84554
1039.22790	0.84713
1037.17409	0.84888
1035.12028	0.85135
1033.06647	0.85464
1031.01265	0.85818
1028.95884	0.86160
1026.90503	0.86471
1024.85122	0.86750
1022.79741	0.86989
1020.74360	0.87182
1018.68979	0.87376
1016.63598	0.87578
1014.58217	0.87738
1012.52836	0.87847
1010.47455	0.87927
1008.42074	0.87946
1006.36693	0.87826
1004.31312	0.87446
1002.25931	0.86640
1000.20550	0.85445
998.15169	0.84549
996.09788	0.84767
994.04407	0.85892
991.99026	0.87046
989.93645	0.87810
987.88264	0.88248
985.82883	0.88498
983.77502	0.88589
981.72121	0.88433
979.66740	0.87952
977.61359	0.87064
975.55978	0.85823
973.50597	0.84818
971.45216	0.84884
969.39835	0.86008
967.34454	0.87314
965.29073	0.88213
963.23692	0.88711
961.18311	0.88996
959.12930	0.89178
957.07549	0.89291
955.02168	0.89367
952.96787	0.89427
950.91406	0.89460
948.86025	0.89462
946.80644	0.89446
944.75263	0.89415
942.69882	0.89347
940.64501	0.89275
938.59120	0.89270
936.53739	0.89365
934.48358	0.89508
932.42977	0.89600
930.37596	0.89608
928.32215	0.89571
926.26834	0.89537
924.21453	0.89512
922.16072	0.89464
920.10691	0.89406
918.05310	0.89351
915.99929	0.89267
913.94548	0.89158
911.89167	0.89037
909.83786	0.88901
907.78405	0.88749
905.73024	0.88507
903.67643	0.88064
901.62262	0.87495
899.56881	0.87084
897.51500	0.87059
895.46119	0.87322
893.40738	0.87600
891.35357	0.87759
889.29976	0.87822
887.24595	0.87833
885.19214	0.87824
883.13833	0.87832
881.08452	0.87860
879.03071	0.87879
876.97690	0.87876
874.92309	0.87875
872.86928	0.87889
870.81547	0.87878
868.76166	0.87844
866.70785	0.87853
864.65404	0.87900
862.60023	0.87923
860.54642	0.87917
858.49261	0.87907
856.43880	0.87905
854.38499	0.87896
852.33118	0.87836
850.27737	0.87692
848.22356	0.87415
846.16975	0.86827
844.11594	0.85646
842.06213	0.84250
840.00832	0.83912
837.95451	0.84913
835.90070	0.86048
833.84689	0.86627
831.79308	0.86861
829.73927	0.86956
827.68546	0.86980
825.63165	0.86987
823.57784	0.87002
821.52403	0.86978
819.47022	0.86878
817.41641	0.86728
815.36260	0.86483
813.30879	0.86063
811.25498	0.85564
809.20117	0.85232
807.14736	0.85227
805.09355	0.85474
803.03974	0.85763
800.98593	0.85966
798.93212	0.86090
796.87831	0.86154
794.82450	0.86152
792.77069	0.86142
790.71688	0.86135
788.66307	0.86096
786.60926	0.86066
784.55545	0.86046
782.50164	0.85992
780.44783	0.85933
778.39402	0.85891
776.34021	0.85815
774.28640	0.85704
772.23259	0.85614
770.17878	0.85569
768.12497	0.85536
766.07116	0.85447
764.01735	0.85330
761.96354	0.85257
759.90973	0.85230
757.85592	0.85196
755.80211	0.85122
753.74830	0.85044
751.69449	0.84958
749.64068	0.84866
747.58687	0.84813
745.53306	0.84779
743.47925	0.84722
741.42544	0.84667
739.37163	0.84637
737.31781	0.84576
735.26400	0.84450
733.21019	0.84323
731.15638	0.84228
729.10257	0.84151
727.04876	0.84108
724.99495	0.84052
722.94114	0.83947
720.88733	0.83868
718.83352	0.83836
716.77971	0.83779
714.72590	0.83708
712.67209	0.83643
710.61828	0.83541
708.56447	0.83409
706.51066	0.83296
704.45685	0.83218
702.40304	0.83163
700.34923	0.83108
698.29542	0.83019
696.24161	0.82893
694.18780	0.82783
692.13399	0.82728
690.08018	0.82692
688.02637	0.82637
685.97256	0.82536
683.91875	0.82391
681.86494	0.82278
679.81113	0.82189
677.75732	0.82055
675.70351	0.81858
673.64970	0.81625
671.59589	0.81431
669.54208	0.81168
667.48827	0.80782
665.43446	0.80697
663.38065	0.80800
661.32684	0.80893
659.27303	0.80939
657.21922	0.80944
655.16541	0.80974
653.11160	0.81019
651.05779	0.80929
649.00398	0.80687
646.95017	0.80500
644.89636	0.80441
642.84255	0.80384
640.78874	0.80296
638.73493	0.80187
636.68112	0.80052
634.62731	0.79952
632.57350	0.79917
630.51969	0.79878
628.46588	0.79747
626.41207	0.79565
624.35826	0.79412
622.30445	0.79268
620.25064	0.79103
618.19683	0.78906
616.14302	0.78699
614.08921	0.78542
612.03540	0.78397
609.98159	0.78193
607.92778	0.77910
605.87397	0.77570
603.82016	0.77238
601.76635	0.76992
599.71254	0.76874
597.65873	0.76862
595.60492	0.76926
593.55111	0.76998
591.49730	0.76967
589.44349	0.76903
587.38968	0.76940
585.33587	0.77114
583.28206	0.77296
581.22825	0.77298
579.17444	0.77173
577.12063	0.77178
575.06682	0.77440
573.01301	0.77794
570.95920	0.78047
568.90539	0.78145
566.85158	0.78157
564.79777	0.78187
562.74396	0.78271
560.69015	0.78403
558.63634	0.78487
556.58253	0.78479
554.52872	0.78484
552.47491	0.78528
550.42110	0.78542
548.36729	0.78525
546.31348	0.78525
544.25967	0.78585
542.20586	0.78661
540.15205	0.78687
538.09824	0.78702
536.04443	0.78672
533.99062	0.78580
531.93681	0.78527
529.88300	0.78478
527.82919	0.78399
525.77538	0.78421
523.72157	0.78527
521.66776	0.78579
519.61395	0.78658
517.56014	0.78864
515.50633	0.79057
513.45252	0.79068
511.39871	0.78937
509.34490	0.78834
507.29109	0.78905
505.23728	0.79012
503.18347	0.78945
501.12966	0.78892
499.07585	0.78908
497.02204	0.78888
494.96823	0.78988
492.91442	0.79139
490.86061	0.79072
488.80680	0.78900
486.75299	0.78858
484.69918	0.78851
482.64537	0.78738
480.59156	0.78635
478.53775	0.78700
476.48394	0.78792
474.43013	0.78681
472.37632	0.78582
470.32251	0.78717
468.26870	0.78835
466.21489	0.78780
464.16108	0.78538
462.10727	0.78194
460.05346	0.77972
457.99965	0.77925
455.94584	0.77949
453.89203	0.77973
451.83822	0.78053
449.78441	0.78229
447.73060	0.78328
445.67679	0.78412
443.62298	0.78687
441.56916	0.78854
439.51535	0.78645
437.46154	0.78309
435.40773	0.78180
433.35392	0.78359
431.30011	0.78670
429.24630	0.78865
427.19249	0.78900
425.13868	0.79004
423.08487	0.79123
421.03106	0.79142
418.97725	0.79140
416.92344	0.79018
414.86963	0.78867
412.81582	0.78670
410.76201	0.78491
408.70820	0.78545
406.65439	0.78695
404.60058	0.78853
402.54677	0.79149
400.49296	0.79460
398.43915	0.79562
