3996.70104	0.98639
3994.64724	0.98612
3992.59344	0.98586
3990.53964	0.98575
3988.48583	0.98583
3986.43203	0.98612
3984.37823	0.98649
3982.32442	0.98664
3980.27062	0.98679
3978.21682	0.98692
3976.16301	0.98651
3974.10921	0.98585
3972.05541	0.98589
3970.00160	0.98654
3967.94780	0.98684
3965.89400	0.98659
3963.84019	0.98618
3961.78639	0.98570
3959.73259	0.98559
3957.67878	0.98617
3955.62498	0.98663
3953.57118	0.98656
3951.51737	0.98659
3949.46357	0.98655
3947.40977	0.98644
3945.35596	0.98663
3943.30216	0.98677
3941.24836	0.98692
3939.19455	0.98693
3937.14075	0.98648
3935.08695	0.98640
3933.03315	0.98680
3930.97934	0.98652
3928.92554	0.98599
3926.87174	0.98603
3924.81793	0.98600
3922.76413	0.98568
3920.71033	0.98547
3918.65652	0.98553
3916.60272	0.98583
3914.54892	0.98618
3912.49511	0.98647
3910.44131	0.98676
3908.38751	0.98684
3906.33370	0.98646
3904.27990	0.98635
3902.22610	0.98649
3900.17229	0.98593
3898.11849	0.98580
3896.06469	0.98628
3894.01088	0.98662
3891.95708	0.98679
3889.90328	0.98668
3887.84947	0.98631
3885.79567	0.98598
3883.74187	0.98613
3881.68807	0.98654
3879.63426	0.98661
3877.58046	0.98668
3875.52666	0.98684
3873.47285	0.98664
3871.41905	0.98619
3869.36525	0.98610
3867.31144	0.98633
3865.25764	0.98654
3863.20384	0.98666
3861.15003	0.98644
3859.09623	0.98601
3857.04243	0.98594
3854.98862	0.98668
3852.93482	0.98765
3850.88102	0.98774
3848.82721	0.98754
3846.77341	0.98734
3844.71961	0.98694
3842.66580	0.98580
3840.61200	0.98477
3838.55820	0.98532
3836.50439	0.98682
3834.45059	0.98738
3832.39679	0.98715
3830.34298	0.98706
3828.28918	0.98699
3826.23538	0.98692
3824.18158	0.98696
3822.12777	0.98697
3820.07397	0.98685
3818.02017	0.98688
3815.96636	0.98741
3813.91256	0.98760
3811.85876	0.98717
3809.80495	0.98676
3807.75115	0.98665
3805.69735	0.98699
3803.64354	0.98749
3801.58974	0.98730
3799.53594	0.98670
3797.48213	0.98665
3795.42833	0.98667
3793.37453	0.98670
3791.32072	0.98699
3789.26692	0.98727
3787.21312	0.98766
3785.15931	0.98828
3783.10551	0.98827
3781.05171	0.98715
3778.99790	0.98644
3776.94410	0.98700
3774.89030	0.98751
3772.83650	0.98786
3770.78269	0.98822
3768.72889	0.98802
3766.67509	0.98764
3764.62128	0.98729
3762.56748	0.98685
3760.51368	0.98662
3758.45987	0.98652
3756.40607	0.98652
3754.35227	0.98661
3752.29846	0.98656
3750.24466	0.98692
3748.19086	0.98737
3746.13705	0.98692
3744.08325	0.98656
3742.02945	0.98751
3739.97564	0.98830
3737.92184	0.98821
3735.86804	0.98759
3733.81423	0.98702
3731.76043	0.98734
3729.70663	0.98827
3727.65282	0.98873
3725.59902	0.98842
3723.54522	0.98793
3721.49141	0.98771
3719.43761	0.98765
3717.38381	0.98794
3715.33001	0.98872
3713.27620	0.98920
3711.22240	0.98884
3709.16860	0.98865
3707.11479	0.98874
3705.06099	0.98882
3703.00719	0.98863
3700.95338	0.98776
3698.89958	0.98746
3696.84578	0.98812
3694.79197	0.98858
3692.73817	0.98891
3690.68437	0.98968
3688.63056	0.98993
3686.57676	0.98910
3684.52296	0.98834
3682.46915	0.98781
3680.41535	0.98714
3678.36155	0.98680
3676.30774	0.98715
3674.25394	0.98732
3672.20014	0.98710
3670.14633	0.98690
3668.09253	0.98716
3666.03873	0.98738
3663.98492	0.98703
3661.93112	0.98682
3659.87732	0.98716
3657.82352	0.98743
3655.76971	0.98714
3653.71591	0.98666
3651.66211	0.98656
3649.60830	0.98723
3647.55450	0.98727
3645.50070	0.98582
3643.44689	0.98493
3641.39309	0.98510
3639.33929	0.98526
3637.28548	0.98492
3635.23168	0.98493
3633.17788	0.98553
3631.12407	0.98608
3629.07027	0.98659
3627.01647	0.98640
3624.96266	0.98545
3622.90886	0.98453
3620.85506	0.98428
3618.80125	0.98485
3616.74745	0.98517
3614.69365	0.98511
3612.63984	0.98524
3610.58604	0.98512
3608.53224	0.98477
3606.47844	0.98475
3604.42463	0.98439
3602.37083	0.98356
3600.31703	0.98279
3598.26322	0.98206
3596.20942	0.98141
3594.15562	0.98117
3592.10181	0.98147
3590.04801	0.98207
3587.99421	0.98270
3585.94040	0.98258
3583.88660	0.98165
3581.83280	0.98089
3579.77899	0.98076
3577.72519	0.98102
3575.67139	0.98127
3573.61758	0.98108
3571.56378	0.98000
3569.50998	0.97865
3567.45617	0.97830
3565.40237	0.97905
3563.34857	0.97964
3561.29476	0.97993
3559.24096	0.98017
3557.18716	0.98030
3555.13335	0.98020
3553.07955	0.97962
3551.02575	0.97882
3548.97195	0.97855
3546.91814	0.97857
3544.86434	0.97836
3542.81054	0.97823
3540.75673	0.97843
3538.70293	0.97864
3536.64913	0.97883
3534.59532	0.97879
3532.54152	0.97822
3530.48772	0.97781
3528.43391	0.97788
3526.38011	0.97789
3524.32631	0.97806
3522.27250	0.97851
3520.21870	0.97839
3518.16490	0.97787
3516.11109	0.97805
3514.05729	0.97844
3512.00349	0.97793
3509.94968	0.97719
3507.89588	0.97749
3505.84208	0.97830
3503.78827	0.97849
3501.73447	0.97842
3499.68067	0.97851
3497.62687	0.97838
3495.57306	0.97816
3493.51926	0.97805
3491.46546	0.97797
3489.41165	0.97810
3487.35785	0.97830
3485.30405	0.97841
3483.25024	0.97847
3481.19644	0.97835
3479.14264	0.97837
3477.08883	0.97861
3475.03503	0.97846
3472.98123	0.97799
3470.92742	0.97798
3468.87362	0.97815
3466.81982	0.97798
3464.76601	0.97804
3462.71221	0.97839
3460.65841	0.97848
3458.60460	0.97803
3456.55080	0.97734
3454.49700	0.97697
3452.44319	0.97690
3450.38939	0.97672
3448.33559	0.97628
3446.28178	0.97618
3444.22798	0.97661
3442.17418	0.97671
3440.12038	0.97625
3438.06657	0.97570
3436.01277	0.97514
3433.95897	0.97501
3431.90516	0.97542
3429.85136	0.97567
3427.79756	0.97564
3425.74375	0.97567
3423.68995	0.97576
3421.63615	0.97597
3419.58234	0.97644
3417.52854	0.97658
3415.47474	0.97607
3413.42093	0.97543
3411.36713	0.97479
3409.31333	0.97429
3407.25952	0.97445
3405.20572	0.97497
3403.15192	0.97486
3401.09811	0.97434
3399.04431	0.97425
3396.99051	0.97439
3394.93670	0.97445
3392.88290	0.97447
3390.82910	0.97443
3388.77529	0.97470
3386.72149	0.97511
3384.66769	0.97503
3382.61389	0.97491
3380.56008	0.97527
3378.50628	0.97541
3376.45248	0.97526
3374.39867	0.97521
3372.34487	0.97472
3370.29107	0.97383
3368.23726	0.97345
3366.18346	0.97342
3364.12966	0.97324
3362.07585	0.97318
3360.02205	0.97336
3357.96825	0.97346
3355.91444	0.97371
3353.86064	0.97436
3351.80684	0.97498
3349.75303	0.97546
3347.69923	0.97586
3345.64543	0.97596
3343.59162	0.97558
3341.53782	0.97490
3339.48402	0.97471
3337.43021	0.97502
3335.37641	0.97514
3333.32261	0.97518
3331.26881	0.97542
3329.21500	0.97543
3327.16120	0.97539
3325.10740	0.97560
3323.05359	0.97551
3320.99979	0.97519
3318.94599	0.97519
3316.89218	0.97538
3314.83838	0.97563
3312.78458	0.97582
3310.73077	0.97565
3308.67697	0.97526
3306.62317	0.97518
3304.56936	0.97543
3302.51556	0.97549
3300.46176	0.97516
3298.40795	0.97499
3296.35415	0.97541
3294.30035	0.97576
3292.24654	0.97579
3290.19274	0.97592
3288.13894	0.97590
3286.08513	0.97554
3284.03133	0.97476
3281.97753	0.97423
3279.92372	0.97484
3277.86992	0.97596
3275.81612	0.97637
3273.76232	0.97592
3271.70851	0.97548
3269.65471	0.97541
3267.60091	0.97523
3265.54710	0.97492
3263.49330	0.97508
3261.43950	0.97524
3259.38569	0.97480
3257.33189	0.97439
3255.27809	0.97445
3253.22428	0.97464
3251.17048	0.97462
3249.11668	0.97465
3247.06287	0.97506
3245.00907	0.97549
3242.95527	0.97558
3240.90146	0.97549
3238.84766	0.97546
3236.79386	0.97547
3234.74005	0.97523
3232.68625	0.97478
3230.63245	0.97471
3228.57864	0.97489
3226.52484	0.97470
3224.47104	0.97475
3222.41724	0.97517
3220.36343	0.97535
3218.30963	0.97563
3216.25583	0.97595
3214.20202	0.97561
3212.14822	0.97500
3210.09442	0.97472
3208.04061	0.97470
3205.98681	0.97510
3203.93301	0.97561
3201.87920	0.97555
3199.82540	0.97510
3197.77160	0.97487
3195.71779	0.97495
3193.66399	0.97487
3191.61019	0.97473
3189.55638	0.97470
3187.50258	0.97457
3185.44878	0.97450
3183.39497	0.97469
3181.34117	0.97473
3179.28737	0.97449
3177.23356	0.97413
3175.17976	0.97384
3173.12596	0.97393
3171.07215	0.97416
3169.01835	0.97438
3166.96455	0.97425
3164.91075	0.97367
3162.85694	0.97351
3160.80314	0.97384
3158.74934	0.97383
3156.69553	0.97355
3154.64173	0.97376
3152.58793	0.97442
3150.53412	0.97478
3148.48032	0.97462
3146.42652	0.97439
3144.37271	0.97407
3142.31891	0.97393
3140.26511	0.97447
3138.21130	0.97481
3136.15750	0.97429
3134.10370	0.97395
3132.04989	0.97421
3129.99609	0.97433
3127.94229	0.97440
3125.88848	0.97463
3123.83468	0.97451
3121.78088	0.97421
3119.72707	0.97416
3117.67327	0.97420
3115.61947	0.97449
3113.56566	0.97486
3111.51186	0.97489
3109.45806	0.97451
3107.40426	0.97389
3105.35045	0.97354
3103.29665	0.97364
3101.24285	0.97388
3099.18904	0.97396
3097.13524	0.97394
3095.08144	0.97392
3093.02763	0.97359
3090.97383	0.97331
3088.92003	0.97348
3086.86622	0.97366
3084.81242	0.97389
3082.75862	0.97439
3080.70481	0.97466
3078.65101	0.97453
3076.59721	0.97444
3074.54340	0.97456
3072.48960	0.97459
3070.43580	0.97431
3068.38199	0.97392
3066.32819	0.97369
3064.27439	0.97375
3062.22058	0.97404
3060.16678	0.97432
3058.11298	0.97438
3056.05918	0.97439
3054.00537	0.97458
3051.95157	0.97487
3049.89777	0.97494
3047.84396	0.97466
3045.79016	0.97427
3043.73636	0.97406
3041.68255	0.97419
3039.62875	0.97462
3037.57495	0.97489
3035.52114	0.97452
3033.46734	0.97392
3031.41354	0.97380
3029.35973	0.97423
3027.30593	0.97459
3025.25213	0.97444
3023.19832	0.97420
3021.14452	0.97419
3019.09072	0.97430
3017.03691	0.97449
3014.98311	0.97472
3012.92931	0.97473
3010.87550	0.97447
3008.82170	0.97434
3006.76790	0.97460
3004.71409	0.97473
3002.66029	0.97446
3000.60649	0.97431
2998.55269	0.97451
2996.49888	0.97492
2994.44508	0.97515
2992.39128	0.97492
2990.33747	0.97462
2988.28367	0.97469
2986.22987	0.97481
2984.17606	0.97489
2982.12226	0.97518
2980.06846	0.97538
2978.01465	0.97534
2975.96085	0.97534
2973.90705	0.97533
2971.85324	0.97515
2969.79944	0.97480
2967.74564	0.97447
2965.69183	0.97470
2963.63803	0.97511
2961.58423	0.97484
2959.53042	0.97451
2957.47662	0.97484
2955.42282	0.97521
2953.36901	0.97504
2951.31521	0.97483
2949.26141	0.97514
2947.20761	0.97562
2945.15380	0.97566
2943.10000	0.97527
2941.04620	0.97511
2938.99239	0.97541
2936.93859	0.97550
2934.88479	0.97506
2932.83098	0.97458
2930.77718	0.97466
2928.72338	0.97532
2926.66957	0.97591
2924.61577	0.97608
2922.56197	0.97621
2920.50816	0.97645
2918.45436	0.97639
2916.40056	0.97592
2914.34675	0.97551
2912.29295	0.97547
2910.23915	0.97565
2908.18534	0.97585
2906.13154	0.97605
2904.07774	0.97600
2902.02393	0.97565
2899.97013	0.97552
2897.91633	0.97591
2895.86252	0.97629
2893.80872	0.97613
2891.75492	0.97590
2889.70112	0.97598
2887.64731	0.97601
2885.59351	0.97591
2883.53971	0.97610
2881.48590	0.97659
2879.43210	0.97685
2877.37830	0.97661
2875.32449	0.97614
2873.27069	0.97580
2871.21689	0.97575
2869.16308	0.97575
2867.10928	0.97564
2865.05548	0.97538
2863.00167	0.97517
2860.94787	0.97544
2858.89407	0.97592
2856.84026	0.97608
2854.78646	0.97616
2852.73266	0.97624
2850.67885	0.97601
2848.62505	0.97588
2846.57125	0.97620
2844.51744	0.97636
2842.46364	0.97610
2840.40984	0.97597
2838.35603	0.97598
2836.30223	0.97606
2834.24843	0.97634
2832.19463	0.97631
2830.14082	0.97588
2828.08702	0.97589
2826.03322	0.97647
2823.97941	0.97695
2821.92561	0.97706
2819.87181	0.97707
2817.81800	0.97704
2815.76420	0.97691
2813.71040	0.97673
2811.65659	0.97668
2809.60279	0.97665
2807.54899	0.97639
2805.49518	0.97637
2803.44138	0.97682
2801.38758	0.97711
2799.33377	0.97718
2797.27997	0.97747
2795.22617	0.97788
2793.17236	0.97775
2791.11856	0.97724
2789.06476	0.97705
2787.01095	0.97717
2784.95715	0.97725
2782.90335	0.97737
2780.84955	0.97761
2778.79574	0.97755
2776.74194	0.97714
2774.68814	0.97698
2772.63433	0.97715
2770.58053	0.97738
2768.52673	0.97737
2766.47292	0.97701
2764.41912	0.97685
2762.36532	0.97689
2760.31151	0.97671
2758.25771	0.97668
2756.20391	0.97703
2754.15010	0.97739
2752.09630	0.97745
2750.04250	0.97731
2747.98869	0.97734
2745.93489	0.97755
2743.88109	0.97777
2741.82728	0.97805
2739.77348	0.97823
2737.71968	0.97815
2735.66587	0.97813
2733.61207	0.97798
2731.55827	0.97741
2729.50446	0.97721
2727.45066	0.97773
2725.39686	0.97815
2723.34306	0.97805
2721.28925	0.97785
2719.23545	0.97806
2717.18165	0.97841
2715.12784	0.97832
2713.07404	0.97810
2711.02024	0.97822
2708.96643	0.97851
2706.91263	0.97871
2704.85883	0.97889
2702.80502	0.97908
2700.75122	0.97892
2698.69742	0.97839
2696.64361	0.97811
2694.58981	0.97841
2692.53601	0.97887
2690.48220	0.97886
2688.42840	0.97840
2686.37460	0.97811
2684.32079	0.97825
2682.26699	0.97850
2680.21319	0.97871
2678.15938	0.97899
2676.10558	0.97910
2674.05178	0.97886
2671.99797	0.97865
2669.94417	0.97864
2667.89037	0.97843
2665.83657	0.97811
2663.78276	0.97799
2661.72896	0.97809
2659.67516	0.97838
2657.62135	0.97844
2655.56755	0.97821
2653.51375	0.97819
2651.45994	0.97845
2649.40614	0.97858
2647.35234	0.97845
2645.29853	0.97852
2643.24473	0.97871
2641.19093	0.97875
2639.13712	0.97890
2637.08332	0.97920
2635.02952	0.97941
2632.97571	0.97923
2630.92191	0.97883
2628.86811	0.97866
2626.81430	0.97867
2624.76050	0.97887
2622.70670	0.97931
2620.65289	0.97951
2618.59909	0.97927
2616.54529	0.97954
2614.49149	0.98048
2612.43768	0.98105
2610.38388	0.98064
2608.33008	0.97967
2606.27627	0.97947
2604.22247	0.98008
2602.16867	0.98040
2600.11486	0.98065
2598.06106	0.98122
2596.00726	0.98086
2593.95345	0.97939
2591.89965	0.97890
2589.84585	0.97995
2587.79204	0.98086
2585.73824	0.98092
2583.68444	0.98036
2581.63063	0.97943
2579.57683	0.97896
2577.52303	0.97949
2575.46922	0.98028
2573.41542	0.98038
2571.36162	0.98002
2569.30781	0.98001
2567.25401	0.98030
2565.20021	0.98047
2563.14640	0.98030
2561.09260	0.98023
2559.03880	0.98060
2556.98500	0.98060
2554.93119	0.98029
2552.87739	0.98054
2550.82359	0.98102
2548.76978	0.98102
2546.71598	0.98053
2544.66218	0.98032
2542.60837	0.98093
2540.55457	0.98174
2538.50077	0.98209
2536.44696	0.98188
2534.39316	0.98144
2532.33936	0.98123
2530.28555	0.98125
2528.23175	0.98147
2526.17795	0.98165
2524.12414	0.98147
2522.07034	0.98124
2520.01654	0.98119
2517.96273	0.98131
2515.90893	0.98159
2513.85513	0.98196
2511.80132	0.98242
2509.74752	0.98275
2507.69372	0.98271
2505.63992	0.98237
2503.58611	0.98214
2501.53231	0.98226
2499.47851	0.98219
2497.42470	0.98196
2495.37090	0.98182
2493.31710	0.98139
2491.26329	0.98106
2489.20949	0.98143
2487.15569	0.98201
2485.10188	0.98233
2483.04808	0.98294
2480.99428	0.98377
2478.94047	0.98349
2476.88667	0.98248
2474.83287	0.98250
2472.77906	0.98298
2470.72526	0.98288
2468.67146	0.98232
2466.61765	0.98167
2464.56385	0.98152
2462.51005	0.98212
2460.45624	0.98300
2458.40244	0.98344
2456.34864	0.98328
2454.29483	0.98232
2452.24103	0.98121
2450.18723	0.98164
2448.13343	0.98277
2446.07962	0.98280
2444.02582	0.98258
2441.97202	0.98317
2439.91821	0.98360
2437.86441	0.98324
2435.81061	0.98283
2433.75680	0.98248
2431.70300	0.98204
2429.64920	0.98183
2427.59539	0.98225
2425.54159	0.98316
2423.48779	0.98338
2421.43398	0.98282
2419.38018	0.98238
2417.32638	0.98214
2415.27257	0.98214
2413.21877	0.98239
2411.16497	0.98247
2409.11116	0.98230
2407.05736	0.98240
2405.00356	0.98290
2402.94975	0.98310
2400.89595	0.98287
2398.84215	0.98285
2396.78834	0.98325
2394.73454	0.98361
2392.68074	0.98328
2390.62694	0.98277
2388.57313	0.98324
2386.51933	0.98402
2384.46553	0.98399
2382.41172	0.98354
2380.35792	0.98300
2378.30412	0.98240
2376.25031	0.98246
2374.19651	0.98276
2372.14271	0.98228
2370.08890	0.98146
2368.03510	0.98065
2365.98130	0.97969
2363.92749	0.97931
2361.87369	0.97956
2359.81989	0.97961
2357.76608	0.97998
2355.71228	0.98021
2353.65848	0.98041
2351.60467	0.98152
2349.55087	0.98249
2347.49707	0.98261
2345.44326	0.98198
2343.38946	0.98133
2341.33566	0.98128
2339.28186	0.98119
2337.22805	0.98070
2335.17425	0.98043
2333.12045	0.98097
2331.06664	0.98165
2329.01284	0.98169
2326.95904	0.98142
2324.90523	0.98097
2322.85143	0.98038
2320.79763	0.98042
2318.74382	0.98090
2316.69002	0.98123
2314.63622	0.98161
2312.58241	0.98204
2310.52861	0.98231
2308.47481	0.98221
2306.42100	0.98184
2304.36720	0.98193
2302.31340	0.98223
2300.25959	0.98225
2298.20579	0.98246
2296.15199	0.98272
2294.09818	0.98271
2292.04438	0.98287
2289.99058	0.98299
2287.93677	0.98282
2285.88297	0.98257
2283.82917	0.98278
2281.77537	0.98354
2279.72156	0.98381
2277.66776	0.98327
2275.61396	0.98264
2273.56015	0.98291
2271.50635	0.98398
2269.45255	0.98442
2267.39874	0.98349
2265.34494	0.98193
2263.29114	0.98166
2261.23733	0.98280
2259.18353	0.98281
2257.12973	0.98132
2255.07592	0.98083
2253.02212	0.98167
2250.96832	0.98262
2248.91451	0.98361
2246.86071	0.98360
2244.80691	0.98254
2242.75310	0.98240
2240.69930	0.98325
2238.64550	0.98361
2236.59169	0.98363
2234.53789	0.98389
2232.48409	0.98398
2230.43029	0.98326
2228.37648	0.98139
2226.32268	0.97995
2224.26888	0.98058
2222.21507	0.98137
2220.16127	0.98068
2218.10747	0.98089
2216.05366	0.98260
2213.99986	0.98352
2211.94606	0.98372
2209.89225	0.98419
2207.83845	0.98471
2205.78465	0.98497
2203.73084	0.98508
2201.67704	0.98442
2199.62324	0.98370
2197.56943	0.98438
2195.51563	0.98491
2193.46183	0.98441
2191.40802	0.98388
2189.35422	0.98348
2187.30042	0.98295
2185.24661	0.98209
2183.19281	0.98149
2181.13901	0.98128
2179.08520	0.98121
2177.03140	0.98151
2174.97760	0.98229
2172.92380	0.98429
2170.86999	0.98637
2168.81619	0.98600
2166.76239	0.98469
2164.70858	0.98497
2162.65478	0.98536
2160.60098	0.98581
2158.54717	0.98810
2156.49337	0.98948
2154.43957	0.98909
2152.38576	0.98863
2150.33196	0.98777
2148.27816	0.98668
2146.22435	0.98611
2144.17055	0.98589
2142.11675	0.98543
2140.06294	0.98529
2138.00914	0.98681
2135.95534	0.98837
2133.90153	0.98786
2131.84773	0.98658
2129.79393	0.98533
2127.74012	0.98436
2125.68632	0.98385
2123.63252	0.98378
2121.57871	0.98458
2119.52491	0.98486
2117.47111	0.98397
2115.41731	0.98278
2113.36350	0.98179
2111.30970	0.98211
2109.25590	0.98313
2107.20209	0.98393
2105.14829	0.98494
2103.09449	0.98573
2101.04068	0.98639
2098.98688	0.98683
2096.93308	0.98639
2094.87927	0.98574
2092.82547	0.98537
2090.77167	0.98489
2088.71786	0.98414
2086.66406	0.98389
2084.61026	0.98416
2082.55645	0.98360
2080.50265	0.98255
2078.44885	0.98232
2076.39504	0.98274
2074.34124	0.98278
2072.28744	0.98304
2070.23363	0.98502
2068.17983	0.98671
2066.12603	0.98615
2064.07223	0.98493
2062.01842	0.98437
2059.96462	0.98481
2057.91082	0.98613
2055.85701	0.98712
2053.80321	0.98628
2051.74941	0.98447
2049.69560	0.98401
2047.64180	0.98491
2045.58800	0.98549
2043.53419	0.98521
2041.48039	0.98514
2039.42659	0.98607
2037.37278	0.98630
2035.31898	0.98601
2033.26518	0.98720
2031.21137	0.98718
2029.15757	0.98518
2027.10377	0.98505
2025.04996	0.98663
2022.99616	0.98726
2020.94236	0.98643
2018.88855	0.98521
2016.83475	0.98457
2014.78095	0.98476
2012.72714	0.98533
2010.67334	0.98556
2008.61954	0.98530
2006.56574	0.98569
2004.51193	0.98572
2002.45813	0.98451
2000.40433	0.98423
1998.35052	0.98526
1996.29672	0.98612
1994.24292	0.98582
1992.18911	0.98508
1990.13531	0.98432
1988.08151	0.98374
1986.02770	0.98521
1983.97390	0.98751
1981.92010	0.98748
1979.86629	0.98551
1977.81249	0.98538
1975.75869	0.98861
1973.70488	0.99126
1971.65108	0.98989
1969.59728	0.98641
1967.54347	0.98480
1965.48967	0.98626
1963.43587	0.98835
1961.38206	0.98924
1959.32826	0.98879
1957.27446	0.98663
1955.22066	0.98457
1953.16685	0.98483
1951.11305	0.98619
1949.05925	0.98701
1947.00544	0.98719
1944.95164	0.98637
1942.89784	0.98526
1940.84403	0.98487
1938.79023	0.98450
1936.73643	0.98398
1934.68262	0.98374
1932.62882	0.98407
1930.57502	0.98501
1928.52121	0.98604
1926.46741	0.98658
1924.41361	0.98667
1922.35980	0.98697
1920.30600	0.98664
1918.25220	0.98569
1916.19839	0.98588
1914.14459	0.98643
1912.09079	0.98621
1910.03698	0.98525
1907.98318	0.98401
1905.92938	0.98382
1903.87557	0.98481
1901.82177	0.98576
1899.76797	0.98547
1897.71417	0.98438
1895.66036	0.98412
1893.60656	0.98473
1891.55276	0.98562
1889.49895	0.98606
1887.44515	0.98563
1885.39135	0.98478
1883.33754	0.98401
1881.28374	0.98393
1879.22994	0.98449
1877.17613	0.98507
1875.12233	0.98534
1873.06853	0.98536
1871.01472	0.98535
1868.96092	0.98542
1866.90712	0.98557
1864.85331	0.98592
1862.79951	0.98596
1860.74571	0.98574
1858.69190	0.98571
1856.63810	0.98548
1854.58430	0.98519
1852.53049	0.98538
1850.47669	0.98576
1848.42289	0.98561
1846.36908	0.98502
1844.31528	0.98483
1842.26148	0.98529
1840.20768	0.98556
1838.15387	0.98515
1836.10007	0.98459
1834.04627	0.98439
1831.99246	0.98431
1829.93866	0.98449
1827.88486	0.98520
1825.83105	0.98561
1823.77725	0.98505
1821.72345	0.98444
1819.66964	0.98449
1817.61584	0.98464
1815.56204	0.98476
1813.50823	0.98491
1811.45443	0.98469
1809.40063	0.98435
1807.34682	0.98440
1805.29302	0.98466
1803.23922	0.98476
1801.18541	0.98441
1799.13161	0.98397
1797.07781	0.98414
1795.02400	0.98461
1792.97020	0.98467
1790.91640	0.98456
1788.86260	0.98491
1786.80879	0.98544
1784.75499	0.98540
1782.70119	0.98504
1780.64738	0.98518
1778.59358	0.98559
1776.53978	0.98570
1774.48597	0.98544
1772.43217	0.98504
1770.37837	0.98471
1768.32456	0.98465
1766.27076	0.98488
1764.21696	0.98491
1762.16315	0.98463
1760.10935	0.98450
1758.05555	0.98473
1756.00174	0.98516
1753.94794	0.98552
1751.89414	0.98560
1749.84033	0.98541
1747.78653	0.98538
1745.73273	0.98573
1743.67892	0.98608
1741.62512	0.98598
1739.57132	0.98540
1737.51751	0.98471
1735.46371	0.98447
1733.40991	0.98481
1731.35611	0.98509
1729.30230	0.98538
1727.24850	0.98569
1725.19470	0.98575
1723.14089	0.98569
1721.08709	0.98552
1719.03329	0.98541
1716.97948	0.98532
1714.92568	0.98503
1712.87188	0.98493
1710.81807	0.98501
1708.76427	0.98516
1706.71047	0.98540
1704.65666	0.98549
1702.60286	0.98541
1700.54906	0.98532
1698.49525	0.98495
1696.44145	0.98458
1694.38765	0.98503
1692.33384	0.98569
1690.28004	0.98581
1688.22624	0.98532
1686.17243	0.98461
1684.11863	0.98418
1682.06483	0.98423
1680.01103	0.98435
1677.95722	0.98445
1675.90342	0.98454
1673.84962	0.98437
1671.79581	0.98409
1669.74201	0.98384
1667.68821	0.98367
1665.63440	0.98356
1663.58060	0.98333
1661.52680	0.98310
1659.47299	0.98308
1657.41919	0.98306
1655.36539	0.98280
1653.31158	0.98225
1651.25778	0.98207
1649.20398	0.98229
1647.15017	0.98261
1645.09637	0.98279
1643.04257	0.98270
1640.98876	0.98242
1638.93496	0.98224
1636.88116	0.98223
1634.82735	0.98208
1632.77355	0.98214
1630.71975	0.98241
1628.66594	0.98261
1626.61214	0.98285
1624.55834	0.98290
1622.50454	0.98258
1620.45073	0.98245
1618.39693	0.98253
1616.34313	0.98263
1614.28932	0.98267
1612.23552	0.98279
1610.18172	0.98307
1608.12791	0.98319
1606.07411	0.98321
1604.02031	0.98356
1601.96650	0.98406
1599.91270	0.98413
1597.85890	0.98404
1595.80509	0.98416
1593.75129	0.98414
1591.69749	0.98377
1589.64368	0.98350
1587.58988	0.98350
1585.53608	0.98361
1583.48227	0.98389
1581.42847	0.98419
1579.37467	0.98421
1577.32086	0.98412
1575.26706	0.98409
1573.21326	0.98390
1571.15945	0.98378
1569.10565	0.98406
1567.05185	0.98455
1564.99805	0.98484
1562.94424	0.98486
1560.89044	0.98468
1558.83664	0.98442
1556.78283	0.98450
1554.72903	0.98475
1552.67523	0.98483
1550.62142	0.98465
1548.56762	0.98451
1546.51382	0.98451
1544.46001	0.98451
1542.40621	0.98453
1540.35241	0.98456
1538.29860	0.98459
1536.24480	0.98445
1534.19100	0.98445
1532.13719	0.98496
1530.08339	0.98529
1528.02959	0.98509
1525.97578	0.98473
1523.92198	0.98444
1521.86818	0.98435
1519.81437	0.98461
1517.76057	0.98496
1515.70677	0.98510
1513.65297	0.98497
1511.59916	0.98481
1509.54536	0.98489
1507.49156	0.98554
1505.43775	0.98616
1503.38395	0.98588
1501.33015	0.98551
1499.27634	0.98535
1497.22254	0.98541
1495.16874	0.98557
1493.11493	0.98549
1491.06113	0.98510
1489.00733	0.98483
1486.95352	0.98502
1484.89972	0.98548
1482.84592	0.98577
1480.79211	0.98560
1478.73831	0.98530
1476.68451	0.98532
1474.63070	0.98540
1472.57690	0.98550
1470.52310	0.98597
1468.46929	0.98636
1466.41549	0.98618
1464.36169	0.98549
1462.30788	0.98488
1460.25408	0.98458
1458.20028	0.98470
1456.14648	0.98514
1454.09267	0.98547
1452.03887	0.98580
1449.98507	0.98611
1447.93126	0.98630
1445.87746	0.98629
1443.82366	0.98625
1441.76985	0.98623
1439.71605	0.98623
1437.66225	0.98630
1435.60844	0.98641
1433.55464	0.98655
1431.50084	0.98673
1429.44703	0.98661
1427.39323	0.98632
1425.33943	0.98643
1423.28562	0.98682
1421.23182	0.98694
1419.17802	0.98668
1417.12421	0.98635
1415.07041	0.98626
1413.01661	0.98647
1410.96280	0.98673
1408.90900	0.98664
1406.85520	0.98639
1404.80139	0.98625
1402.74759	0.98636
1400.69379	0.98667
1398.63999	0.98684
1396.58618	0.98683
1394.53238	0.98678
1392.47858	0.98680
1390.42477	0.98677
1388.37097	0.98653
1386.31717	0.98625
1384.26336	0.98612
1382.20956	0.98619
1380.15576	0.98627
1378.10195	0.98615
1376.04815	0.98639
1373.99435	0.98702
1371.94054	0.98704
1369.88674	0.98663
1367.83294	0.98641
1365.77913	0.98637
1363.72533	0.98648
1361.67153	0.98685
1359.61772	0.98705
1357.56392	0.98690
1355.51012	0.98678
1353.45631	0.98683
1351.40251	0.98688
1349.34871	0.98694
1347.29491	0.98690
1345.24110	0.98650
1343.18730	0.98599
1341.13350	0.98586
1339.07969	0.98620
1337.02589	0.98653
1334.97209	0.98657
1332.91828	0.98670
1330.86448	0.98708
1328.81068	0.98755
1326.75687	0.98799
1324.70307	0.98798
1322.64927	0.98741
1320.59546	0.98698
1318.54166	0.98712
1316.48786	0.98743
1314.43405	0.98749
1312.38025	0.98741
1310.32645	0.98737
1308.27264	0.98745
1306.21884	0.98752
1304.16504	0.98754
1302.11123	0.98771
1300.05743	0.98788
1298.00363	0.98791
1295.94982	0.98803
1293.89602	0.98806
1291.84222	0.98802
1289.78842	0.98820
1287.73461	0.98827
1285.68081	0.98806
1283.62701	0.98787
1281.57320	0.98777
1279.51940	0.98764
1277.46560	0.98766
1275.41179	0.98784
1273.35799	0.98788
1271.30419	0.98774
1269.25038	0.98759
1267.19658	0.98759
1265.14278	0.98797
1263.08897	0.98853
1261.03517	0.98858
1258.98137	0.98818
1256.92756	0.98799
1254.87376	0.98803
1252.81996	0.98799
1250.76615	0.98801
1248.71235	0.98822
1246.65855	0.98823
1244.60474	0.98784
1242.55094	0.98755
1240.49714	0.98734
1238.44334	0.98680
1236.38953	0.98635
1234.33573	0.98644
1232.28193	0.98670
1230.22812	0.98681
1228.17432	0.98671
1226.12052	0.98625
1224.06671	0.98545
1222.01291	0.98472
1219.95911	0.98446
1217.90530	0.98439
1215.85150	0.98410
1213.79770	0.98374
1211.74389	0.98323
1209.69009	0.98235
1207.63629	0.98133
1205.58248	0.98048
1203.52868	0.97983
1201.47488	0.97925
1199.42107	0.97851
1197.36727	0.97753
1195.31347	0.97646
1193.25966	0.97521
1191.20586	0.97368
1189.15206	0.97226
1187.09825	0.97120
1185.04445	0.97027
1182.99065	0.96908
1180.93685	0.96758
1178.88304	0.96616
1176.82924	0.96478
1174.77544	0.96305
1172.72163	0.96118
1170.66783	0.95968
1168.61403	0.95875
1166.56022	0.95789
1164.50642	0.95674
1162.45262	0.95552
1160.39881	0.95427
1158.34501	0.95298
1156.29121	0.95164
1154.23740	0.95055
1152.18360	0.95007
1150.12980	0.94960
1148.07599	0.94869
1146.02219	0.94777
1143.96839	0.94716
1141.91458	0.94690
1139.86078	0.94685
1137.80698	0.94681
1135.75317	0.94651
1133.69937	0.94590
1131.64557	0.94516
1129.59176	0.94440
1127.53796	0.94408
1125.48416	0.94442
1123.43036	0.94480
1121.37655	0.94482
1119.32275	0.94460
1117.26895	0.94428
1115.21514	0.94408
1113.16134	0.94389
1111.10754	0.94358
1109.05373	0.94348
1106.99993	0.94351
1104.94613	0.94324
1102.89232	0.94280
1100.83852	0.94235
1098.78472	0.94192
1096.73091	0.94187
1094.67711	0.94216
1092.62331	0.94212
1090.56950	0.94202
1088.51570	0.94233
1086.46190	0.94233
1084.40809	0.94177
1082.35429	0.94127
1080.30049	0.94108
1078.24668	0.94109
1076.19288	0.94092
1074.13908	0.93990
1072.08528	0.93809
1070.03147	0.93626
1067.97767	0.93498
1065.92387	0.93418
1063.87006	0.93312
1061.81626	0.93138
1059.76246	0.92946
1057.70865	0.92759
1055.65485	0.92526
1053.60105	0.92255
1051.54724	0.92017
1049.49344	0.91818
1047.43964	0.91643
1045.38583	0.91482
1043.33203	0.91294
1041.27823	0.91074
1039.22442	0.90857
1037.17062	0.90660
1035.11682	0.90479
1033.06301	0.90296
1031.00921	0.90089
1028.95541	0.89855
1026.90160	0.89606
1024.84780	0.89345
1022.79400	0.89102
1020.74019	0.88940
1018.68639	0.88824
1016.63259	0.88678
1014.57879	0.88512
1012.52498	0.88374
1010.47118	0.88288
1008.41738	0.88219
1006.36357	0.88107
1004.30977	0.87980
1002.25597	0.87923
1000.20216	0.87909
998.14836	0.87887
996.09456	0.87894
994.04075	0.87896
991.98695	0.87857
989.93315	0.87824
987.87934	0.87824
985.82554	0.87834
983.77174	0.87853
981.71793	0.87891
979.66413	0.87928
977.61033	0.87970
975.55652	0.88019
973.50272	0.88054
971.44892	0.88094
969.39511	0.88160
967.34131	0.88238
965.28751	0.88313
963.23371	0.88391
961.17990	0.88473
959.12610	0.88537
957.07230	0.88606
955.01849	0.88702
952.96469	0.88793
950.91089	0.88870
948.85708	0.88954
946.80328	0.89030
944.74948	0.89102
942.69567	0.89215
940.64187	0.89377
938.58807	0.89536
936.53426	0.89681
934.48046	0.89854
932.42666	0.90034
930.37285	0.90190
928.31905	0.90321
926.26525	0.90450
924.21144	0.90603
922.15764	0.90768
920.10384	0.90948
918.05003	0.91139
915.99623	0.91318
913.94243	0.91501
911.88862	0.91683
909.83482	0.91815
907.78102	0.91879
905.72722	0.91951
903.67341	0.92112
901.61961	0.92307
899.56581	0.92431
897.51200	0.92489
895.45820	0.92588
893.40440	0.92760
891.35059	0.92918
889.29679	0.93049
887.24299	0.93170
885.18918	0.93262
883.13538	0.93371
881.08158	0.93535
879.02777	0.93673
876.97397	0.93756
874.92017	0.93857
872.86636	0.93978
870.81256	0.94047
868.75876	0.94079
866.70495	0.94212
864.65115	0.94367
862.59735	0.94410
860.54354	0.94481
858.48974	0.94617
856.43594	0.94728
854.38213	0.94855
852.32833	0.94991
850.27453	0.95047
848.22073	0.95062
846.16692	0.95144
844.11312	0.95252
842.05932	0.95278
840.00551	0.95270
837.95171	0.95334
835.89791	0.95435
833.84410	0.95473
831.79030	0.95462
829.73650	0.95463
827.68269	0.95480
825.62889	0.95481
823.57509	0.95438
821.52128	0.95407
819.46748	0.95407
817.41368	0.95359
815.35987	0.95282
813.30607	0.95245
811.25227	0.95211
809.19846	0.95161
807.14466	0.95121
805.09086	0.95030
803.03705	0.94848
800.98325	0.94661
798.92945	0.94538
796.87565	0.94461
794.82184	0.94365
792.76804	0.94199
790.71424	0.94040
788.66043	0.93965
786.60663	0.93898
784.55283	0.93806
782.49902	0.93779
780.44522	0.93818
778.39142	0.93848
776.33761	0.93867
774.28381	0.93830
772.23001	0.93690
770.17620	0.93533
768.12240	0.93403
766.06860	0.93234
764.01479	0.93019
761.96099	0.92859
759.90719	0.92831
757.85338	0.92844
755.79958	0.92765
753.74578	0.92655
751.69197	0.92623
749.63817	0.92644
747.58437	0.92686
745.53056	0.92749
743.47676	0.92793
741.42296	0.92800
739.36916	0.92807
737.31535	0.92829
735.26155	0.92845
733.20775	0.92877
731.15394	0.92969
729.10014	0.93031
727.04634	0.92984
724.99253	0.92918
722.93873	0.92870
720.88493	0.92841
718.83112	0.92920
716.77732	0.93127
714.72352	0.93392
712.66971	0.93627
710.61591	0.93770
708.56211	0.93825
706.50830	0.93805
704.45450	0.93811
702.40070	0.93954
700.34689	0.94148
698.29309	0.94234
696.23929	0.94216
694.18548	0.94142
692.13168	0.94030
690.07788	0.93967
688.02408	0.93963
685.97027	0.93965
683.91647	0.93978
681.86267	0.93987
679.80886	0.93992
677.75506	0.93995
675.70126	0.93931
673.64745	0.93851
671.59365	0.93831
669.53985	0.93771
667.48604	0.93593
665.43224	0.93503
663.37844	0.93458
661.32463	0.93303
659.27083	0.93018
657.21703	0.92615
655.16322	0.92184
653.10942	0.91866
651.05562	0.91580
649.00181	0.91243
646.94801	0.91013
644.89421	0.90967
642.84040	0.91037
640.78660	0.91175
638.73280	0.91298
636.67899	0.91363
634.62519	0.91443
632.57139	0.91560
630.51759	0.91640
628.46378	0.91697
626.40998	0.91762
624.35618	0.91789
622.30237	0.91762
620.24857	0.91673
618.19477	0.91506
616.14096	0.91308
614.08716	0.91150
612.03336	0.90964
609.97955	0.90706
607.92575	0.90462
605.87195	0.90217
603.81814	0.89965
601.76434	0.89824
599.71054	0.89815
597.65673	0.89788
595.60293	0.89652
593.54913	0.89456
591.49532	0.89250
589.44152	0.89045
587.38772	0.88866
585.33391	0.88772
583.28011	0.88745
581.22631	0.88733
579.17250	0.88821
577.11870	0.89013
575.06490	0.89190
573.01110	0.89342
570.95729	0.89410
568.90349	0.89439
566.84969	0.89586
564.79588	0.89791
562.74208	0.89960
560.68828	0.90097
558.63447	0.90220
556.58067	0.90254
554.52687	0.90114
552.47306	0.89907
550.41926	0.89843
548.36546	0.89943
546.31165	0.89919
544.25785	0.89631
542.20405	0.89258
540.15024	0.88915
538.09644	0.88660
536.04264	0.88582
533.98883	0.88648
531.93503	0.88766
529.88123	0.88823
527.82742	0.88868
525.77362	0.89118
523.71982	0.89452
521.66602	0.89600
519.61221	0.89642
517.55841	0.89648
515.50461	0.89487
513.45080	0.89270
511.39700	0.89105
509.34320	0.88932
507.28939	0.88847
505.23559	0.88869
503.18179	0.88927
501.12798	0.89005
499.07418	0.88963
497.02038	0.88815
494.96657	0.88785
492.91277	0.88769
490.85897	0.88546
488.80516	0.88316
486.75136	0.88141
484.69756	0.87840
482.64375	0.87557
480.58995	0.87435
478.53615	0.87217
476.48234	0.86680
474.42854	0.85996
472.37474	0.85511
470.32093	0.85372
468.26713	0.85253
466.21333	0.84774
464.15953	0.84124
462.10572	0.83808
460.05192	0.83863
457.99812	0.83988
455.94431	0.84014
453.89051	0.83854
451.83671	0.83473
449.78290	0.83181
447.72910	0.83103
445.67530	0.82923
443.62149	0.82734
441.56769	0.82733
439.51389	0.82662
437.46008	0.82457
435.40628	0.82263
433.35248	0.82070
431.29867	0.81755
429.24487	0.81222
427.19107	0.80712
425.13726	0.80505
423.08346	0.80427
421.02966	0.80376
418.97585	0.80489
416.92205	0.80682
414.86825	0.80763
412.81445	0.80808
410.76064	0.81029
408.70684	0.81229
406.65304	0.81006
404.59923	0.80647
402.54543	0.80805
400.49163	0.81345
398.43782	0.81476
