3996.70104	0.96300
3994.64724	0.96292
3992.59344	0.96228
3990.53964	0.96178
3988.48583	0.96221
3986.43203	0.96264
3984.37823	0.96245
3982.32442	0.96246
3980.27062	0.96266
3978.21682	0.96260
3976.16301	0.96288
3974.10921	0.96356
3972.05541	0.96398
3970.00160	0.96419
3967.94780	0.96445
3965.89400	0.96456
3963.84019	0.96440
3961.78639	0.96420
3959.73259	0.96406
3957.67878	0.96380
3955.62498	0.96326
3953.57118	0.96255
3951.51737	0.96205
3949.46357	0.96189
3947.40977	0.96173
3945.35596	0.96163
3943.30216	0.96162
3941.24836	0.96138
3939.19455	0.96122
3937.14075	0.96161
3935.08695	0.96246
3933.03315	0.96340
3930.97934	0.96374
3928.92554	0.96374
3926.87174	0.96433
3924.81793	0.96514
3922.76413	0.96555
3920.71033	0.96564
3918.65652	0.96516
3916.60272	0.96434
3914.54892	0.96407
3912.49511	0.96401
3910.44131	0.96375
3908.38751	0.96362
3906.33370	0.96351
3904.27990	0.96302
3902.22610	0.96253
3900.17229	0.96244
3898.11849	0.96247
3896.06469	0.96246
3894.01088	0.96236
3891.95708	0.96215
3889.90328	0.96199
3887.84947	0.96219
3885.79567	0.96298
3883.74187	0.96384
3881.68807	0.96431
3879.63426	0.96458
3877.58046	0.96482
3875.52666	0.96494
3873.47285	0.96505
3871.41905	0.96570
3869.36525	0.96592
3867.31144	0.96510
3865.25764	0.96492
3863.20384	0.96500
3861.15003	0.96414
3859.09623	0.96342
3857.04243	0.96325
3854.98862	0.96295
3852.93482	0.96258
3850.88102	0.96266
3848.82721	0.96270
3846.77341	0.96244
3844.71961	0.96219
3842.66580	0.96205
3840.61200	0.96164
3838.55820	0.96140
3836.50439	0.96217
3834.45059	0.96346
3832.39679	0.96446
3830.34298	0.96520
3828.28918	0.96597
3826.23538	0.96671
3824.18158	0.96756
3822.12777	0.96826
3820.07397	0.96789
3818.02017	0.96679
3815.96636	0.96557
3813.91256	0.96469
3811.85876	0.96461
3809.80495	0.96463
3807.75115	0.96402
3805.69735	0.96349
3803.64354	0.96350
3801.58974	0.96346
3799.53594	0.96319
3797.48213	0.96273
3795.42833	0.96248
3793.37453	0.96269
3791.32072	0.96297
3789.26692	0.96325
3787.21312	0.96378
3785.15931	0.96416
3783.10551	0.96419
3781.05171	0.96466
3778.99790	0.96533
3776.94410	0.96561
3774.89030	0.96608
3772.83650	0.96657
3770.78269	0.96617
3768.72889	0.96543
3766.67509	0.96577
3764.62128	0.96618
3762.56748	0.96563
3760.51368	0.96500
3758.45987	0.96461
3756.40607	0.96442
3754.35227	0.96427
3752.29846	0.96360
3750.24466	0.96281
3748.19086	0.96265
3746.13705	0.96302
3744.08325	0.96389
3742.02945	0.96439
3739.97564	0.96450
3737.92184	0.96479
3735.86804	0.96530
3733.81423	0.96575
3731.76043	0.96598
3729.70663	0.96621
3727.65282	0.96671
3725.59902	0.96709
3723.54522	0.96655
3721.49141	0.96595
3719.43761	0.96627
3717.38381	0.96640
3715.33001	0.96528
3713.27620	0.96311
3711.22240	0.96038
3709.16860	0.95784
3707.11479	0.95588
3705.06099	0.95402
3703.00719	0.95195
3700.95338	0.95033
3698.89958	0.94951
3696.84578	0.94873
3694.79197	0.94816
3692.73817	0.94893
3690.68437	0.95093
3688.63056	0.95198
3686.57676	0.95195
3684.52296	0.95261
3682.46915	0.95351
3680.41535	0.95383
3678.36155	0.95394
3676.30774	0.95437
3674.25394	0.95447
3672.20014	0.95401
3670.14633	0.95357
3668.09253	0.95271
3666.03873	0.95146
3663.98492	0.95031
3661.93112	0.94958
3659.87732	0.94926
3657.82352	0.94868
3655.76971	0.94749
3653.71591	0.94654
3651.66211	0.94577
3649.60830	0.94460
3647.55450	0.94414
3645.50070	0.94395
3643.44689	0.94344
3641.39309	0.94349
3639.33929	0.94402
3637.28548	0.94403
3635.23168	0.94346
3633.17788	0.94293
3631.12407	0.94264
3629.07027	0.94208
3627.01647	0.94103
3624.96266	0.93977
3622.90886	0.93817
3620.85506	0.93725
3618.80125	0.93775
3616.74745	0.93861
3614.69365	0.93974
3612.63984	0.94085
3610.58604	0.94065
3608.53224	0.93931
3606.47844	0.93813
3604.42463	0.93802
3602.37083	0.93841
3600.31703	0.93893
3598.26322	0.93986
3596.20942	0.94065
3594.15562	0.94070
3592.10181	0.94121
3590.04801	0.94260
3587.99421	0.94307
3585.94040	0.94221
3583.88660	0.94196
3581.83280	0.94257
3579.77899	0.94353
3577.72519	0.94420
3575.67139	0.94437
3573.61758	0.94429
3571.56378	0.94409
3569.50998	0.94375
3567.45617	0.94299
3565.40237	0.94241
3563.34857	0.94238
3561.29476	0.94201
3559.24096	0.94129
3557.18716	0.94088
3555.13335	0.94060
3553.07955	0.94048
3551.02575	0.94084
3548.97195	0.94103
3546.91814	0.94097
3544.86434	0.94128
3542.81054	0.94164
3540.75673	0.94181
3538.70293	0.94202
3536.64913	0.94211
3534.59532	0.94159
3532.54152	0.94129
3530.48772	0.94230
3528.43391	0.94338
3526.38011	0.94328
3524.32631	0.94294
3522.27250	0.94293
3520.21870	0.94262
3518.16490	0.94207
3516.11109	0.94197
3514.05729	0.94221
3512.00349	0.94199
3509.94968	0.94119
3507.89588	0.94031
3505.84208	0.93992
3503.78827	0.94010
3501.73447	0.94017
3499.68067	0.93996
3497.62687	0.94006
3495.57306	0.94026
3493.51926	0.94017
3491.46546	0.94021
3489.41165	0.94031
3487.35785	0.94023
3485.30405	0.94022
3483.25024	0.93996
3481.19644	0.93950
3479.14264	0.93967
3477.08883	0.94035
3475.03503	0.94069
3472.98123	0.94049
3470.92742	0.94025
3468.87362	0.94017
3466.81982	0.93985
3464.76601	0.93922
3462.71221	0.93869
3460.65841	0.93825
3458.60460	0.93775
3456.55080	0.93771
3454.49700	0.93820
3452.44319	0.93834
3450.38939	0.93785
3448.33559	0.93721
3446.28178	0.93698
3444.22798	0.93735
3442.17418	0.93751
3440.12038	0.93704
3438.06657	0.93661
3436.01277	0.93679
3433.95897	0.93757
3431.90516	0.93837
3429.85136	0.93864
3427.79756	0.93845
3425.74375	0.93813
3423.68995	0.93807
3421.63615	0.93840
3419.58234	0.93860
3417.52854	0.93853
3415.47474	0.93819
3413.42093	0.93725
3411.36713	0.93625
3409.31333	0.93587
3407.25952	0.93582
3405.20572	0.93580
3403.15192	0.93610
3401.09811	0.93648
3399.04431	0.93598
3396.99051	0.93486
3394.93670	0.93439
3392.88290	0.93482
3390.82910	0.93562
3388.77529	0.93654
3386.72149	0.93737
3384.66769	0.93772
3382.61389	0.93784
3380.56008	0.93811
3378.50628	0.93840
3376.45248	0.93862
3374.39867	0.93877
3372.34487	0.93911
3370.29107	0.93916
3368.23726	0.93819
3366.18346	0.93701
3364.12966	0.93663
3362.07585	0.93689
3360.02205	0.93715
3357.96825	0.93713
3355.91444	0.93710
3353.86064	0.93722
3351.80684	0.93736
3349.75303	0.93751
3347.69923	0.93782
3345.64543	0.93816
3343.59162	0.93810
3341.53782	0.93787
3339.48402	0.93794
3337.43021	0.93847
3335.37641	0.93954
3333.32261	0.94051
3331.26881	0.94061
3329.21500	0.94030
3327.16120	0.94030
3325.10740	0.94060
3323.05359	0.94094
3320.99979	0.94100
3318.94599	0.94065
3316.89218	0.94012
3314.83838	0.93953
3312.78458	0.93882
3310.73077	0.93840
3308.67697	0.93851
3306.62317	0.93880
3304.56936	0.93926
3302.51556	0.93976
3300.46176	0.93978
3298.40795	0.93956
3296.35415	0.93969
3294.30035	0.94001
3292.24654	0.94033
3290.19274	0.94086
3288.13894	0.94141
3286.08513	0.94166
3284.03133	0.94177
3281.97753	0.94187
3279.92372	0.94193
3277.86992	0.94214
3275.81612	0.94270
3273.76232	0.94310
3271.70851	0.94252
3269.65471	0.94139
3267.60091	0.94079
3265.54710	0.94081
3263.49330	0.94107
3261.43950	0.94137
3259.38569	0.94137
3257.33189	0.94109
3255.27809	0.94087
3253.22428	0.94096
3251.17048	0.94141
3249.11668	0.94194
3247.06287	0.94251
3245.00907	0.94305
3242.95527	0.94318
3240.90146	0.94304
3238.84766	0.94311
3236.79386	0.94341
3234.74005	0.94392
3232.68625	0.94493
3230.63245	0.94592
3228.57864	0.94594
3226.52484	0.94540
3224.47104	0.94523
3222.41724	0.94513
3220.36343	0.94461
3218.30963	0.94443
3216.25583	0.94449
3214.20202	0.94388
3212.14822	0.94359
3210.09442	0.94425
3208.04061	0.94450
3205.98681	0.94430
3203.93301	0.94429
3201.87920	0.94407
3199.82540	0.94387
3197.77160	0.94425
3195.71779	0.94503
3193.66399	0.94577
3191.61019	0.94630
3189.55638	0.94677
3187.50258	0.94716
3185.44878	0.94766
3183.39497	0.94853
3181.34117	0.94925
3179.28737	0.94934
3177.23356	0.94930
3175.17976	0.94951
3173.12596	0.94984
3171.07215	0.94993
3169.01835	0.94922
3166.96455	0.94800
3164.91075	0.94756
3162.85694	0.94804
3160.80314	0.94845
3158.74934	0.94844
3156.69553	0.94822
3154.64173	0.94794
3152.58793	0.94774
3150.53412	0.94802
3148.48032	0.94878
3146.42652	0.94957
3144.37271	0.95015
3142.31891	0.95037
3140.26511	0.95062
3138.21130	0.95127
3136.15750	0.95174
3134.10370	0.95198
3132.04989	0.95227
3129.99609	0.95238
3127.94229	0.95231
3125.88848	0.95207
3123.83468	0.95192
3121.78088	0.95209
3119.72707	0.95207
3117.67327	0.95175
3115.61947	0.95165
3113.56566	0.95171
3111.51186	0.95124
3109.45806	0.95055
3107.40426	0.95039
3105.35045	0.95032
3103.29665	0.95000
3101.24285	0.94997
3099.18904	0.95016
3097.13524	0.95025
3095.08144	0.95038
3093.02763	0.95041
3090.97383	0.95040
3088.92003	0.95035
3086.86622	0.94974
3084.81242	0.94884
3082.75862	0.94835
3080.70481	0.94827
3078.65101	0.94869
3076.59721	0.94974
3074.54340	0.95068
3072.48960	0.95085
3070.43580	0.95023
3068.38199	0.94917
3066.32819	0.94783
3064.27439	0.94621
3062.22058	0.94477
3060.16678	0.94387
3058.11298	0.94360
3056.05918	0.94444
3054.00537	0.94608
3051.95157	0.94747
3049.89777	0.94851
3047.84396	0.94961
3045.79016	0.95054
3043.73636	0.95094
3041.68255	0.95116
3039.62875	0.95145
3037.57495	0.95117
3035.52114	0.94990
3033.46734	0.94770
3031.41354	0.94476
3029.35973	0.94165
3027.30593	0.93894
3025.25213	0.93696
3023.19832	0.93657
3021.14452	0.93864
3019.09072	0.94253
3017.03691	0.94634
3014.98311	0.94861
3012.92931	0.94954
3010.87550	0.95018
3008.82170	0.95077
3006.76790	0.95086
3004.71409	0.95055
3002.66029	0.95039
3000.60649	0.95059
2998.55269	0.95110
2996.49888	0.95199
2994.44508	0.95306
2992.39128	0.95388
2990.33747	0.95465
2988.28367	0.95572
2986.22987	0.95659
2984.17606	0.95663
2982.12226	0.95632
2980.06846	0.95621
2978.01465	0.95609
2975.96085	0.95589
2973.90705	0.95555
2971.85324	0.95504
2969.79944	0.95480
2967.74564	0.95462
2965.69183	0.95412
2963.63803	0.95353
2961.58423	0.95293
2959.53042	0.95258
2957.47662	0.95257
2955.42282	0.95248
2953.36901	0.95232
2951.31521	0.95235
2949.26141	0.95209
2947.20761	0.95125
2945.15380	0.95022
2943.10000	0.94919
2941.04620	0.94816
2938.99239	0.94702
2936.93859	0.94539
2934.88479	0.94329
2932.83098	0.94119
2930.77718	0.93916
2928.72338	0.93718
2926.66957	0.93532
2924.61577	0.93365
2922.56197	0.93246
2920.50816	0.93184
2918.45436	0.93176
2916.40056	0.93235
2914.34675	0.93308
2912.29295	0.93356
2910.23915	0.93446
2908.18534	0.93583
2906.13154	0.93724
2904.07774	0.93879
2902.02393	0.94044
2899.97013	0.94202
2897.91633	0.94374
2895.86252	0.94556
2893.80872	0.94710
2891.75492	0.94818
2889.70112	0.94909
2887.64731	0.94987
2885.59351	0.95021
2883.53971	0.95037
2881.48590	0.95077
2879.43210	0.95128
2877.37830	0.95168
2875.32449	0.95204
2873.27069	0.95226
2871.21689	0.95218
2869.16308	0.95210
2867.10928	0.95211
2865.05548	0.95171
2863.00167	0.95099
2860.94787	0.95024
2858.89407	0.94954
2856.84026	0.94891
2854.78646	0.94823
2852.73266	0.94751
2850.67885	0.94703
2848.62505	0.94712
2846.57125	0.94772
2844.51744	0.94858
2842.46364	0.94979
2840.40984	0.95134
2838.35603	0.95287
2836.30223	0.95427
2834.24843	0.95555
2832.19463	0.95631
2830.14082	0.95652
2828.08702	0.95658
2826.03322	0.95680
2823.97941	0.95706
2821.92561	0.95715
2819.87181	0.95718
2817.81800	0.95727
2815.76420	0.95716
2813.71040	0.95689
2811.65659	0.95673
2809.60279	0.95670
2807.54899	0.95673
2805.49518	0.95690
2803.44138	0.95728
2801.38758	0.95754
2799.33377	0.95771
2797.27997	0.95799
2795.22617	0.95836
2793.17236	0.95903
2791.11856	0.95973
2789.06476	0.95980
2787.01095	0.95961
2784.95715	0.95990
2782.90335	0.96023
2780.84955	0.95998
2778.79574	0.95953
2776.74194	0.95934
2774.68814	0.95930
2772.63433	0.95924
2770.58053	0.95914
2768.52673	0.95897
2766.47292	0.95875
2764.41912	0.95851
2762.36532	0.95828
2760.31151	0.95821
2758.25771	0.95842
2756.20391	0.95883
2754.15010	0.95912
2752.09630	0.95904
2750.04250	0.95912
2747.98869	0.95969
2745.93489	0.96040
2743.88109	0.96087
2741.82728	0.96091
2739.77348	0.96095
2737.71968	0.96114
2735.66587	0.96113
2733.61207	0.96103
2731.55827	0.96098
2729.50446	0.96096
2727.45066	0.96085
2725.39686	0.96045
2723.34306	0.95983
2721.28925	0.95938
2719.23545	0.95940
2717.18165	0.95972
2715.12784	0.95988
2713.07404	0.95971
2711.02024	0.95935
2708.96643	0.95909
2706.91263	0.95917
2704.85883	0.95927
2702.80502	0.95937
2700.75122	0.95978
2698.69742	0.96040
2696.64361	0.96101
2694.58981	0.96155
2692.53601	0.96196
2690.48220	0.96202
2688.42840	0.96180
2686.37460	0.96165
2684.32079	0.96166
2682.26699	0.96183
2680.21319	0.96207
2678.15938	0.96188
2676.10558	0.96135
2674.05178	0.96095
2671.99797	0.96072
2669.94417	0.96060
2667.89037	0.96043
2665.83657	0.96011
2663.78276	0.95982
2661.72896	0.95970
2659.67516	0.95952
2657.62135	0.95928
2655.56755	0.95950
2653.51375	0.96008
2651.45994	0.96035
2649.40614	0.96051
2647.35234	0.96089
2645.29853	0.96134
2643.24473	0.96189
2641.19093	0.96251
2639.13712	0.96282
2637.08332	0.96269
2635.02952	0.96249
2632.97571	0.96233
2630.92191	0.96210
2628.86811	0.96176
2626.81430	0.96149
2624.76050	0.96138
2622.70670	0.96114
2620.65289	0.96059
2618.59909	0.96011
2616.54529	0.96025
2614.49149	0.96040
2612.43768	0.95995
2610.38388	0.95992
2608.33008	0.96028
2606.27627	0.96010
2604.22247	0.96042
2602.16867	0.96143
2600.11486	0.96199
2598.06106	0.96242
2596.00726	0.96340
2593.95345	0.96438
2591.89965	0.96468
2589.84585	0.96466
2587.79204	0.96450
2585.73824	0.96429
2583.68444	0.96434
2581.63063	0.96409
2579.57683	0.96352
2577.52303	0.96323
2575.46922	0.96307
2573.41542	0.96267
2571.36162	0.96183
2569.30781	0.96100
2567.25401	0.96068
2565.20021	0.96073
2563.14640	0.96081
2561.09260	0.96062
2559.03880	0.96064
2556.98500	0.96156
2554.93119	0.96283
2552.87739	0.96319
2550.82359	0.96295
2548.76978	0.96342
2546.71598	0.96447
2544.66218	0.96499
2542.60837	0.96470
2540.55457	0.96466
2538.50077	0.96533
2536.44696	0.96558
2534.39316	0.96508
2532.33936	0.96460
2530.28555	0.96417
2528.23175	0.96368
2526.17795	0.96333
2524.12414	0.96289
2522.07034	0.96232
2520.01654	0.96202
2517.96273	0.96212
2515.90893	0.96203
2513.85513	0.96162
2511.80132	0.96132
2509.74752	0.96142
2507.69372	0.96205
2505.63992	0.96278
2503.58611	0.96305
2501.53231	0.96303
2499.47851	0.96347
2497.42470	0.96434
2495.37090	0.96503
2493.31710	0.96570
2491.26329	0.96645
2489.20949	0.96676
2487.15569	0.96661
2485.10188	0.96627
2483.04808	0.96607
2480.99428	0.96570
2478.94047	0.96482
2476.88667	0.96423
2474.83287	0.96395
2472.77906	0.96319
2470.72526	0.96231
2468.67146	0.96174
2466.61765	0.96167
2464.56385	0.96184
2462.51005	0.96173
2460.45624	0.96190
2458.40244	0.96271
2456.34864	0.96338
2454.29483	0.96361
2452.24103	0.96409
2450.18723	0.96490
2448.13343	0.96528
2446.07962	0.96528
2444.02582	0.96579
2441.97202	0.96646
2439.91821	0.96624
2437.86441	0.96570
2435.81061	0.96555
2433.75680	0.96513
2431.70300	0.96449
2429.64920	0.96444
2427.59539	0.96469
2425.54159	0.96474
2423.48779	0.96482
2421.43398	0.96483
2419.38018	0.96435
2417.32638	0.96374
2415.27257	0.96348
2413.21877	0.96351
2411.16497	0.96368
2409.11116	0.96377
2407.05736	0.96382
2405.00356	0.96411
2402.94975	0.96462
2400.89595	0.96517
2398.84215	0.96577
2396.78834	0.96653
2394.73454	0.96683
2392.68074	0.96677
2390.62694	0.96718
2388.57313	0.96724
2386.51933	0.96670
2384.46553	0.96638
2382.41172	0.96625
2380.35792	0.96638
2378.30412	0.96669
2376.25031	0.96597
2374.19651	0.96368
2372.14271	0.96137
2370.08890	0.96072
2368.03510	0.96118
2365.98130	0.96106
2363.92749	0.96042
2361.87369	0.96062
2359.81989	0.96167
2357.76608	0.96228
2355.71228	0.96289
2353.65848	0.96413
2351.60467	0.96512
2349.55087	0.96564
2347.49707	0.96612
2345.44326	0.96668
2343.38946	0.96771
2341.33566	0.96901
2339.28186	0.96906
2337.22805	0.96784
2335.17425	0.96676
2333.12045	0.96576
2331.06664	0.96422
2329.01284	0.96313
2326.95904	0.96300
2324.90523	0.96268
2322.85143	0.96160
2320.79763	0.96087
2318.74382	0.96121
2316.69002	0.96186
2314.63622	0.96230
2312.58241	0.96254
2310.52861	0.96267
2308.47481	0.96280
2306.42100	0.96331
2304.36720	0.96442
2302.31340	0.96537
2300.25959	0.96565
2298.20579	0.96595
2296.15199	0.96654
2294.09818	0.96684
2292.04438	0.96662
2289.99058	0.96636
2287.93677	0.96632
2285.88297	0.96579
2283.82917	0.96481
2281.77537	0.96453
2279.72156	0.96440
2277.66776	0.96383
2275.61396	0.96442
2273.56015	0.96590
2271.50635	0.96564
2269.45255	0.96359
2267.39874	0.96225
2265.34494	0.96252
2263.29114	0.96363
2261.23733	0.96450
2259.18353	0.96481
2257.12973	0.96523
2255.07592	0.96578
2253.02212	0.96689
2250.96832	0.96831
2248.91451	0.96874
2246.86071	0.96877
2244.80691	0.96913
2242.75310	0.96996
2240.69930	0.97107
2238.64550	0.97172
2236.59169	0.97150
2234.53789	0.97055
2232.48409	0.96980
2230.43029	0.96904
2228.37648	0.96680
2226.32268	0.96385
2224.26888	0.96187
2222.21507	0.96036
2220.16127	0.95905
2218.10747	0.95862
2216.05366	0.95928
2213.99986	0.96018
2211.94606	0.95978
2209.89225	0.95997
2207.83845	0.96267
2205.78465	0.96585
2203.73084	0.96756
2201.67704	0.96887
2199.62324	0.97200
2197.56943	0.97478
2195.51563	0.97514
2193.46183	0.97529
2191.40802	0.97515
2189.35422	0.97359
2187.30042	0.97181
2185.24661	0.97056
2183.19281	0.96985
2181.13901	0.96919
2179.08520	0.96766
2177.03140	0.96540
2174.97760	0.96338
2172.92380	0.96251
2170.86999	0.96217
2168.81619	0.96079
2166.76239	0.95874
2164.70858	0.95823
2162.65478	0.96039
2160.60098	0.96472
2158.54717	0.97000
2156.49337	0.97389
2154.43957	0.97546
2152.38576	0.97581
2150.33196	0.97598
2148.27816	0.97696
2146.22435	0.97804
2144.17055	0.97734
2142.11675	0.97578
2140.06294	0.97492
2138.00914	0.97453
2135.95534	0.97426
2133.90153	0.97368
2131.84773	0.97156
2129.79393	0.96839
2127.74012	0.96631
2125.68632	0.96560
2123.63252	0.96511
2121.57871	0.96447
2119.52491	0.96475
2117.47111	0.96513
2115.41731	0.96421
2113.36350	0.96380
2111.30970	0.96486
2109.25590	0.96615
2107.20209	0.96729
2105.14829	0.96872
2103.09449	0.97018
2101.04068	0.97069
2098.98688	0.97053
2096.93308	0.97092
2094.87927	0.97137
2092.82547	0.97104
2090.77167	0.97032
2088.71786	0.96950
2086.66406	0.96886
2084.61026	0.96845
2082.55645	0.96767
2080.50265	0.96617
2078.44885	0.96487
2076.39504	0.96487
2074.34124	0.96561
2072.28744	0.96545
2070.23363	0.96418
2068.17983	0.96277
2066.12603	0.96184
2064.07223	0.96243
2062.01842	0.96419
2059.96462	0.96630
2057.91082	0.96936
2055.85701	0.97209
2053.80321	0.97300
2051.74941	0.97374
2049.69560	0.97567
2047.64180	0.97802
2045.58800	0.97948
2043.53419	0.97887
2041.48039	0.97722
2039.42659	0.97628
2037.37278	0.97527
2035.31898	0.97282
2033.26518	0.96898
2031.21137	0.96526
2029.15757	0.96374
2027.10377	0.96412
2025.04996	0.96447
2022.99616	0.96377
2020.94236	0.96225
2018.88855	0.96100
2016.83475	0.96083
2014.78095	0.96279
2012.72714	0.96680
2010.67334	0.97088
2008.61954	0.97349
2006.56574	0.97645
2004.51193	0.98112
2002.45813	0.98384
2000.40433	0.98297
1998.35052	0.98122
1996.29672	0.97957
1994.24292	0.97770
1992.18911	0.97650
1990.13531	0.97587
1988.08151	0.97465
1986.02770	0.97240
1983.97390	0.96938
1981.92010	0.96556
1979.86629	0.96137
1977.81249	0.95962
1975.75869	0.96089
1973.70488	0.96181
1971.65108	0.96134
1969.59728	0.96021
1967.54347	0.95967
1965.48967	0.95985
1963.43587	0.96064
1961.38206	0.96423
1959.32826	0.96905
1957.27446	0.97146
1955.22066	0.97260
1953.16685	0.97412
1951.11305	0.97530
1949.05925	0.97602
1947.00544	0.97694
1944.95164	0.97684
1942.89784	0.97485
1940.84403	0.97224
1938.79023	0.96979
1936.73643	0.96812
1934.68262	0.96728
1932.62882	0.96616
1930.57502	0.96567
1928.52121	0.96606
1926.46741	0.96545
1924.41361	0.96497
1922.35980	0.96615
1920.30600	0.96714
1918.25220	0.96724
1916.19839	0.96737
1914.14459	0.96810
1912.09079	0.96944
1910.03698	0.97040
1907.98318	0.97045
1905.92938	0.97045
1903.87557	0.97143
1901.82177	0.97281
1899.76797	0.97355
1897.71417	0.97382
1895.66036	0.97348
1893.60656	0.97254
1891.55276	0.97154
1889.49895	0.97006
1887.44515	0.96849
1885.39135	0.96791
1883.33754	0.96725
1881.28374	0.96569
1879.22994	0.96448
1877.17613	0.96433
1875.12233	0.96437
1873.06853	0.96399
1871.01472	0.96363
1868.96092	0.96362
1866.90712	0.96410
1864.85331	0.96519
1862.79951	0.96645
1860.74571	0.96717
1858.69190	0.96756
1856.63810	0.96838
1854.58430	0.96964
1852.53049	0.97086
1850.47669	0.97167
1848.42289	0.97193
1846.36908	0.97162
1844.31528	0.97105
1842.26148	0.97023
1840.20768	0.96927
1838.15387	0.96885
1836.10007	0.96871
1834.04627	0.96776
1831.99246	0.96665
1829.93866	0.96655
1827.88486	0.96680
1825.83105	0.96646
1823.77725	0.96559
1821.72345	0.96505
1819.66964	0.96549
1817.61584	0.96659
1815.56204	0.96747
1813.50823	0.96740
1811.45443	0.96683
1809.40063	0.96683
1807.34682	0.96724
1805.29302	0.96746
1803.23922	0.96780
1801.18541	0.96841
1799.13161	0.96888
1797.07781	0.96920
1795.02400	0.96939
1792.97020	0.96906
1790.91640	0.96831
1788.86260	0.96795
1786.80879	0.96800
1784.75499	0.96763
1782.70119	0.96666
1780.64738	0.96614
1778.59358	0.96640
1776.53978	0.96647
1774.48597	0.96599
1772.43217	0.96577
1770.37837	0.96631
1768.32456	0.96682
1766.27076	0.96724
1764.21696	0.96780
1762.16315	0.96833
1760.10935	0.96853
1758.05555	0.96841
1756.00174	0.96822
1753.94794	0.96827
1751.89414	0.96860
1749.84033	0.96873
1747.78653	0.96835
1745.73273	0.96782
1743.67892	0.96737
1741.62512	0.96699
1739.57132	0.96655
1737.51751	0.96583
1735.46371	0.96491
1733.40991	0.96439
1731.35611	0.96441
1729.30230	0.96422
1727.24850	0.96393
1725.19470	0.96372
1723.14089	0.96358
1721.08709	0.96360
1719.03329	0.96359
1716.97948	0.96345
1714.92568	0.96349
1712.87188	0.96382
1710.81807	0.96451
1708.76427	0.96548
1706.71047	0.96606
1704.65666	0.96599
1702.60286	0.96593
1700.54906	0.96607
1698.49525	0.96588
1696.44145	0.96487
1694.38765	0.96333
1692.33384	0.96208
1690.28004	0.96107
1688.22624	0.96027
1686.17243	0.95945
1684.11863	0.95780
1682.06483	0.95626
1680.01103	0.95536
1677.95722	0.95433
1675.90342	0.95344
1673.84962	0.95329
1671.79581	0.95335
1669.74201	0.95298
1667.68821	0.95262
1665.63440	0.95246
1663.58060	0.95208
1661.52680	0.95162
1659.47299	0.95154
1657.41919	0.95174
1655.36539	0.95229
1653.31158	0.95245
1651.25778	0.95136
1649.20398	0.95113
1647.15017	0.95115
1645.09637	0.95056
1643.04257	0.95028
1640.98876	0.95007
1638.93496	0.94938
1636.88116	0.94845
1634.82735	0.94805
1632.77355	0.94816
1630.71975	0.94811
1628.66594	0.94801
1626.61214	0.94824
1624.55834	0.94856
1622.50454	0.94871
1620.45073	0.94896
1618.39693	0.94957
1616.34313	0.95077
1614.28932	0.95205
1612.23552	0.95254
1610.18172	0.95207
1608.12791	0.95051
1606.07411	0.94766
1604.02031	0.94409
1601.96650	0.94148
1599.91270	0.94156
1597.85890	0.94412
1595.80509	0.94757
1593.75129	0.95038
1591.69749	0.95217
1589.64368	0.95304
1587.58988	0.95282
1585.53608	0.95188
1583.48227	0.95112
1581.42847	0.95121
1579.37467	0.95207
1577.32086	0.95324
1575.26706	0.95438
1573.21326	0.95519
1571.15945	0.95572
1569.10565	0.95654
1567.05185	0.95785
1564.99805	0.95883
1562.94424	0.95921
1560.89044	0.95958
1558.83664	0.96028
1556.78283	0.96033
1554.72903	0.96006
1552.67523	0.95998
1550.62142	0.95990
1548.56762	0.95972
1546.51382	0.95947
1544.46001	0.95912
1542.40621	0.95876
1540.35241	0.95832
1538.29860	0.95784
1536.24480	0.95771
1534.19100	0.95773
1532.13719	0.95798
1530.08339	0.95841
1528.02959	0.95849
1525.97578	0.95801
1523.92198	0.95784
1521.86818	0.95872
1519.81437	0.96008
1517.76057	0.96079
1515.70677	0.96094
1513.65297	0.96110
1511.59916	0.96159
1509.54536	0.96239
1507.49156	0.96312
1505.43775	0.96251
1503.38395	0.96147
1501.33015	0.96022
1499.27634	0.95638
1497.22254	0.94497
1495.16874	0.92767
1493.11493	0.91702
1491.06113	0.91909
1489.00733	0.93152
1486.95352	0.94232
1484.89972	0.94777
1482.84592	0.95088
1480.79211	0.95279
1478.73831	0.95381
1476.68451	0.95440
1474.63070	0.95481
1472.57690	0.95514
1470.52310	0.95563
1468.46929	0.95598
1466.41549	0.95607
1464.36169	0.95594
1462.30788	0.95572
1460.25408	0.95531
1458.20028	0.95123
1456.14648	0.93663
1454.09267	0.92168
1452.03887	0.91544
1449.98507	0.91782
1447.93126	0.92477
1445.87746	0.93107
1443.82366	0.93574
1441.76985	0.93952
1439.71605	0.94238
1437.66225	0.94483
1435.60844	0.94747
1433.55464	0.94933
1431.50084	0.95028
1429.44703	0.95110
1427.39323	0.95204
1425.33943	0.95307
1423.28562	0.95431
1421.23182	0.95529
1419.17802	0.95580
1417.12421	0.95644
1415.07041	0.95732
1413.01661	0.95813
1410.96280	0.95879
1408.90900	0.95948
1406.85520	0.96033
1404.80139	0.96109
1402.74759	0.96139
1400.69379	0.96129
1398.63999	0.96123
1396.58618	0.96129
1394.53238	0.96106
1392.47858	0.96062
1390.42477	0.96013
1388.37097	0.95946
1386.31717	0.95863
1384.26336	0.95788
1382.20956	0.95730
1380.15576	0.95681
1378.10195	0.95625
1376.04815	0.95589
1373.99435	0.95594
1371.94054	0.95623
1369.88674	0.95687
1367.83294	0.95785
1365.77913	0.95884
1363.72533	0.95971
1361.67153	0.96034
1359.61772	0.96064
1357.56392	0.96069
1355.51012	0.96068
1353.45631	0.96088
1351.40251	0.96125
1349.34871	0.96145
1347.29491	0.96140
1345.24110	0.96127
1343.18730	0.96120
1341.13350	0.96115
1339.07969	0.96086
1337.02589	0.96045
1334.97209	0.96008
1332.91828	0.95968
1330.86448	0.95939
1328.81068	0.95927
1326.75687	0.95924
1324.70307	0.95949
1322.64927	0.96007
1320.59546	0.96068
1318.54166	0.96106
1316.48786	0.96117
1314.43405	0.96133
1312.38025	0.96161
1310.32645	0.96188
1308.27264	0.96233
1306.21884	0.96295
1304.16504	0.96346
1302.11123	0.96373
1300.05743	0.96377
1298.00363	0.96379
1295.94982	0.96371
1293.89602	0.96325
1291.84222	0.96270
1289.78842	0.96213
1287.73461	0.96136
1285.68081	0.96069
1283.62701	0.96045
1281.57320	0.96051
1279.51940	0.96059
1277.46560	0.96068
1275.41179	0.96085
1273.35799	0.96105
1271.30419	0.96129
1269.25038	0.96146
1267.19658	0.96152
1265.14278	0.96182
1263.08897	0.96254
1261.03517	0.96320
1258.98137	0.96329
1256.92756	0.96307
1254.87376	0.96285
1252.81996	0.96245
1250.76615	0.96184
1248.71235	0.96109
1246.65855	0.96018
1244.60474	0.95925
1242.55094	0.95858
1240.49714	0.95817
1238.44334	0.95782
1236.38953	0.95747
1234.33573	0.95707
1232.28193	0.95667
1230.22812	0.95634
1228.17432	0.95607
1226.12052	0.95578
1224.06671	0.95531
1222.01291	0.95474
1219.95911	0.95425
1217.90530	0.95367
1215.85150	0.95295
1213.79770	0.95226
1211.74389	0.95137
1209.69009	0.95002
1207.63629	0.94839
1205.58248	0.94655
1203.52868	0.94454
1201.47488	0.94251
1199.42107	0.94023
1197.36727	0.93789
1195.31347	0.93571
1193.25966	0.93328
1191.20586	0.93079
1189.15206	0.92860
1187.09825	0.92626
1185.04445	0.92333
1182.99065	0.92028
1180.93685	0.91788
1178.88304	0.91622
1176.82924	0.91475
1174.77544	0.91314
1172.72163	0.91147
1170.66783	0.90984
1168.61403	0.90808
1166.56022	0.90615
1164.50642	0.90432
1162.45262	0.90291
1160.39881	0.90190
1158.34501	0.90049
1156.29121	0.89826
1154.23740	0.89581
1152.18360	0.89369
1150.12980	0.89196
1148.07599	0.89041
1146.02219	0.88888
1143.96839	0.88709
1141.91458	0.88494
1139.86078	0.88244
1137.80698	0.87945
1135.75317	0.87627
1133.69937	0.87332
1131.64557	0.87029
1129.59176	0.86685
1127.53796	0.86307
1125.48416	0.85887
1123.43036	0.85400
1121.37655	0.84852
1119.32275	0.84289
1117.26895	0.83725
1115.21514	0.83161
1113.16134	0.82633
1111.10754	0.82169
1109.05373	0.81753
1106.99993	0.81346
1104.94613	0.80942
1102.89232	0.80562
1100.83852	0.80241
1098.78472	0.79951
1096.73091	0.79628
1094.67711	0.79287
1092.62331	0.78986
1090.56950	0.78736
1088.51570	0.78519
1086.46190	0.78310
1084.40809	0.78076
1082.35429	0.77816
1080.30049	0.77568
1078.24668	0.77322
1076.19288	0.77029
1074.13908	0.76717
1072.08528	0.76418
1070.03147	0.76082
1067.97767	0.75684
1065.92387	0.75255
1063.87006	0.74810
1061.81626	0.74335
1059.76246	0.73770
1057.70865	0.73120
1055.65485	0.72421
1053.60105	0.71603
1051.54724	0.70632
1049.49344	0.69559
1047.43964	0.68437
1045.38583	0.67290
1043.33203	0.66126
1041.27823	0.64947
1039.22442	0.63761
1037.17062	0.62620
1035.11682	0.61557
1033.06301	0.60541
1031.00921	0.59600
1028.95541	0.58867
1026.90160	0.58427
1024.84780	0.58227
1022.79400	0.58131
1020.74019	0.57989
1018.68639	0.57750
1016.63259	0.57460
1014.57879	0.57144
1012.52498	0.56791
1010.47118	0.56399
1008.41738	0.55983
1006.36357	0.55594
1004.30977	0.55288
1002.25597	0.55116
1000.20216	0.55123
998.14836	0.55291
996.09456	0.55550
994.04075	0.55874
991.98695	0.56277
989.93315	0.56746
987.87934	0.57269
985.82554	0.57876
983.77174	0.58582
981.71793	0.59362
979.66413	0.60219
977.61033	0.61170
975.55652	0.62215
973.50272	0.63320
971.44892	0.64427
969.39511	0.65513
967.34131	0.66590
965.28751	0.67631
963.23371	0.68609
961.17990	0.69544
959.12610	0.70457
957.07230	0.71314
955.01849	0.72037
952.96469	0.72616
950.91089	0.73152
948.85708	0.73649
946.80328	0.74031
944.74948	0.74347
942.69567	0.74686
940.64187	0.75012
938.58807	0.75270
936.53426	0.75535
934.48046	0.75833
932.42666	0.76083
930.37285	0.76275
928.31905	0.76489
926.26525	0.76722
924.21144	0.76852
922.15764	0.76833
920.10384	0.76689
918.05003	0.76441
915.99623	0.76124
913.94243	0.75751
911.88862	0.75431
909.83482	0.75377
907.78102	0.75667
905.72722	0.76224
903.67341	0.76965
901.61961	0.77814
899.56581	0.78691
897.51200	0.79551
895.45820	0.80335
893.40440	0.80991
891.35059	0.81582
889.29679	0.82112
887.24299	0.82543
885.18918	0.82910
883.13538	0.83269
881.08158	0.83610
879.02777	0.83895
876.97397	0.84195
874.92017	0.84575
872.86636	0.85054
870.81256	0.85640
868.75876	0.86195
866.70495	0.86603
864.65115	0.86931
862.59735	0.87256
860.54354	0.87553
858.48974	0.87764
856.43594	0.87909
854.38213	0.88055
852.32833	0.88190
850.27453	0.88269
848.22073	0.88226
846.16692	0.88077
844.11312	0.87947
842.05932	0.87857
840.00551	0.87806
837.95171	0.87856
835.89791	0.87954
833.84410	0.87994
831.79030	0.88020
829.73650	0.88123
827.68269	0.88270
825.62889	0.88392
823.57509	0.88545
821.52128	0.88790
819.46748	0.89022
817.41368	0.89175
815.35987	0.89261
813.30607	0.89266
811.25227	0.89201
809.19846	0.89008
807.14466	0.88582
805.09086	0.87963
803.03705	0.87337
800.98325	0.86861
798.92945	0.86515
796.87565	0.86227
794.82184	0.86073
792.76804	0.86091
790.71424	0.86138
788.66043	0.86140
786.60663	0.86118
784.55283	0.86030
782.49902	0.85858
780.44522	0.85674
778.39142	0.85531
776.33761	0.85407
774.28381	0.85275
772.23001	0.85051
770.17620	0.84606
768.12240	0.83979
766.06860	0.83288
764.01479	0.82547
761.96099	0.81743
759.90719	0.80974
757.85338	0.80374
755.79958	0.79943
753.74578	0.79675
751.69197	0.79594
749.63817	0.79667
747.58437	0.79862
745.53056	0.80212
743.47676	0.80828
741.42296	0.81727
739.36916	0.82671
737.31535	0.83525
735.26155	0.84384
733.20775	0.85188
731.15394	0.85818
729.10014	0.86282
727.04634	0.86613
724.99253	0.86883
722.93873	0.87199
720.88493	0.87542
718.83112	0.87813
716.77732	0.87985
714.72352	0.87997
712.66971	0.87700
710.61591	0.86965
708.56211	0.85553
706.50830	0.83106
704.45450	0.79453
702.40070	0.74723
700.34689	0.69356
698.29309	0.64425
696.23929	0.62081
694.18548	0.64076
692.13168	0.69018
690.07788	0.73656
688.02408	0.76509
685.97027	0.78112
683.91647	0.79175
681.86267	0.79999
679.80886	0.80644
677.75506	0.81139
675.70126	0.81564
673.64745	0.81946
671.59365	0.82303
669.53985	0.82745
667.48604	0.83226
665.43224	0.83352
663.37844	0.83316
661.32463	0.83335
659.27083	0.83301
657.21703	0.83129
655.16322	0.82876
653.10942	0.82585
651.05562	0.82248
649.00181	0.81926
646.94801	0.81739
644.89421	0.81663
642.84040	0.81624
640.78660	0.81627
638.73280	0.81701
636.67899	0.81821
634.62519	0.81947
632.57139	0.82119
630.51759	0.82346
628.46378	0.82537
626.40998	0.82643
624.35618	0.82657
622.30237	0.82636
620.24857	0.82664
618.19477	0.82699
616.14096	0.82665
614.08716	0.82530
612.03336	0.82229
609.97955	0.81796
607.92575	0.81361
605.87195	0.80942
603.81814	0.80490
601.76434	0.80010
599.71054	0.79542
597.65673	0.79054
595.60293	0.78438
593.54913	0.77820
591.49532	0.77450
589.44152	0.77245
587.38772	0.77036
585.33391	0.76825
583.28011	0.76641
581.22631	0.76500
579.17250	0.76357
577.11870	0.76208
575.06490	0.76083
573.01110	0.75921
570.95729	0.75557
568.90349	0.74969
566.84969	0.74379
564.79588	0.73746
562.74208	0.72899
560.68828	0.71998
558.63447	0.71199
556.58067	0.70340
554.52687	0.69259
552.47306	0.68112
550.41926	0.66988
548.36546	0.65764
546.31165	0.64352
544.25785	0.62717
542.20405	0.61083
540.15024	0.59663
538.09644	0.58457
536.04264	0.57569
533.98883	0.57168
531.93503	0.57250
529.88123	0.57463
527.82742	0.57674
525.77362	0.58123
523.71982	0.58680
521.66602	0.59132
519.61221	0.59615
517.55841	0.60283
515.50461	0.61050
513.45080	0.61633
511.39700	0.61982
509.34320	0.62322
507.28939	0.62713
505.23559	0.63101
503.18179	0.63365
501.12798	0.63417
499.07418	0.63398
497.02038	0.63327
494.96657	0.63092
492.91277	0.62644
490.85897	0.62057
488.80516	0.61420
486.75136	0.60605
484.69756	0.59616
482.64375	0.58647
480.58995	0.57559
478.53615	0.56242
476.48234	0.54896
474.42854	0.53442
472.37474	0.51661
470.32093	0.50106
468.26713	0.49321
466.21333	0.48972
464.15953	0.48682
462.10572	0.48457
460.05192	0.48475
457.99812	0.48851
455.94431	0.49285
453.89051	0.49510
451.83671	0.49762
449.78290	0.50045
447.72910	0.50139
445.67530	0.49985
443.62149	0.49818
441.56769	0.49703
439.51389	0.49449
437.46008	0.49336
435.40628	0.49552
433.35248	0.49865
431.29867	0.50262
429.24487	0.50832
427.19107	0.51355
425.13726	0.51667
423.08346	0.52125
421.02966	0.53215
418.97585	0.54481
416.92205	0.54459
414.86825	0.53982
412.81445	0.53858
410.76064	0.53794
408.70684	0.53868
406.65304	0.54329
404.59923	0.54590
402.54543	0.53973
400.49163	0.52662
398.43782	0.51248
