3996.71440	0.98636
3994.66059	0.98612
3992.60678	0.98572
3990.55297	0.98539
3988.49916	0.98543
3986.44535	0.98583
3984.39154	0.98611
3982.33773	0.98616
3980.28391	0.98613
3978.23010	0.98606
3976.17629	0.98618
3974.12248	0.98631
3972.06867	0.98619
3970.01486	0.98607
3967.96105	0.98606
3965.90724	0.98597
3963.85343	0.98570
3961.79962	0.98566
3959.74581	0.98608
3957.69200	0.98648
3955.63819	0.98649
3953.58438	0.98634
3951.53057	0.98618
3949.47676	0.98587
3947.42295	0.98570
3945.36914	0.98597
3943.31533	0.98631
3941.26152	0.98621
3939.20771	0.98582
3937.15390	0.98563
3935.10009	0.98560
3933.04628	0.98558
3930.99247	0.98569
3928.93866	0.98570
3926.88485	0.98554
3924.83104	0.98560
3922.77723	0.98612
3920.72342	0.98678
3918.66961	0.98715
3916.61580	0.98706
3914.56199	0.98675
3912.50818	0.98640
3910.45437	0.98615
3908.40056	0.98621
3906.34675	0.98636
3904.29294	0.98629
3902.23913	0.98615
3900.18532	0.98601
3898.13151	0.98566
3896.07770	0.98528
3894.02389	0.98504
3891.97008	0.98520
3889.91627	0.98580
3887.86246	0.98612
3885.80865	0.98618
3883.75484	0.98623
3881.70103	0.98617
3879.64722	0.98622
3877.59341	0.98645
3875.53960	0.98661
3873.48579	0.98637
3871.43198	0.98596
3869.37817	0.98587
3867.32436	0.98552
3865.27055	0.98500
3863.21674	0.98522
3861.16293	0.98590
3859.10912	0.98601
3857.05531	0.98559
3855.00150	0.98519
3852.94769	0.98526
3850.89388	0.98564
3848.84007	0.98596
3846.78626	0.98621
3844.73245	0.98613
3842.67864	0.98565
3840.62483	0.98527
3838.57102	0.98525
3836.51721	0.98562
3834.46340	0.98623
3832.40959	0.98672
3830.35578	0.98674
3828.30197	0.98659
3826.24816	0.98657
3824.19435	0.98638
3822.14054	0.98596
3820.08673	0.98572
3818.03292	0.98590
3815.97911	0.98644
3813.92530	0.98679
3811.87149	0.98678
3809.81768	0.98675
3807.76387	0.98651
3805.71006	0.98615
3803.65625	0.98613
3801.60244	0.98636
3799.54863	0.98649
3797.49482	0.98634
3795.44101	0.98624
3793.38720	0.98639
3791.33339	0.98650
3789.27958	0.98630
3787.22577	0.98608
3785.17196	0.98620
3783.11815	0.98658
3781.06434	0.98680
3779.01053	0.98665
3776.95672	0.98654
3774.90291	0.98672
3772.84910	0.98670
3770.79529	0.98637
3768.74148	0.98622
3766.68767	0.98657
3764.63386	0.98716
3762.58005	0.98731
3760.52624	0.98712
3758.47243	0.98702
3756.41862	0.98662
3754.36481	0.98578
3752.31100	0.98531
3750.25719	0.98579
3748.20338	0.98605
3746.14957	0.98606
3744.09576	0.98653
3742.04195	0.98659
3739.98814	0.98612
3737.93433	0.98593
3735.88052	0.98619
3733.82671	0.98625
3731.77290	0.98600
3729.71909	0.98604
3727.66528	0.98625
3725.61147	0.98640
3723.55766	0.98661
3721.50385	0.98689
3719.45004	0.98691
3717.39623	0.98642
3715.34242	0.98570
3713.28861	0.98527
3711.23480	0.98531
3709.18099	0.98491
3707.12718	0.98417
3705.07337	0.98376
3703.01956	0.98358
3700.96575	0.98368
3698.91194	0.98391
3696.85813	0.98410
3694.80432	0.98439
3692.75051	0.98459
3690.69670	0.98441
3688.64289	0.98436
3686.58907	0.98452
3684.53526	0.98452
3682.48145	0.98450
3680.42764	0.98452
3678.37383	0.98432
3676.32002	0.98352
3674.26621	0.98296
3672.21240	0.98324
3670.15859	0.98377
3668.10478	0.98443
3666.05097	0.98467
3663.99716	0.98437
3661.94335	0.98400
3659.88954	0.98384
3657.83573	0.98398
3655.78192	0.98444
3653.72811	0.98473
3651.67430	0.98463
3649.62049	0.98418
3647.56668	0.98363
3645.51287	0.98326
3643.45906	0.98277
3641.40525	0.98220
3639.35144	0.98189
3637.29763	0.98175
3635.24382	0.98182
3633.19001	0.98206
3631.13620	0.98191
3629.08239	0.98165
3627.02858	0.98179
3624.97477	0.98177
3622.92096	0.98143
3620.86715	0.98099
3618.81334	0.98064
3616.75953	0.98053
3614.70572	0.98063
3612.65191	0.98087
3610.59810	0.98109
3608.54429	0.98102
3606.49048	0.98072
3604.43667	0.98043
3602.38286	0.98020
3600.32905	0.98026
3598.27524	0.98048
3596.22143	0.98033
3594.16762	0.98001
3592.11381	0.97999
3590.06000	0.98008
3588.00619	0.97991
3585.95238	0.97965
3583.89857	0.97955
3581.84476	0.97949
3579.79095	0.97936
3577.73714	0.97904
3575.68333	0.97884
3573.62952	0.97902
3571.57571	0.97928
3569.52190	0.97939
3567.46809	0.97930
3565.41428	0.97884
3563.36047	0.97835
3561.30666	0.97813
3559.25285	0.97794
3557.19904	0.97776
3555.14523	0.97780
3553.09142	0.97786
3551.03761	0.97765
3548.98380	0.97721
3546.92999	0.97690
3544.87618	0.97672
3542.82237	0.97658
3540.76856	0.97664
3538.71475	0.97668
3536.66094	0.97646
3534.60713	0.97621
3532.55332	0.97612
3530.49951	0.97592
3528.44570	0.97550
3526.39189	0.97534
3524.33808	0.97552
3522.28427	0.97557
3520.23046	0.97527
3518.17665	0.97475
3516.12284	0.97435
3514.06903	0.97425
3512.01522	0.97422
3509.96141	0.97424
3507.90760	0.97449
3505.85379	0.97490
3503.79998	0.97501
3501.74617	0.97456
3499.69236	0.97396
3497.63855	0.97369
3495.58474	0.97386
3493.53093	0.97400
3491.47712	0.97370
3489.42331	0.97323
3487.36950	0.97286
3485.31569	0.97258
3483.26188	0.97255
3481.20807	0.97275
3479.15426	0.97278
3477.10045	0.97270
3475.04664	0.97269
3472.99283	0.97252
3470.93902	0.97230
3468.88521	0.97234
3466.83140	0.97240
3464.77759	0.97205
3462.72378	0.97136
3460.66997	0.97097
3458.61616	0.97111
3456.56235	0.97117
3454.50854	0.97086
3452.45473	0.97054
3450.40092	0.97029
3448.34711	0.97011
3446.29330	0.97034
3444.23949	0.97073
3442.18568	0.97069
3440.13187	0.97019
3438.07806	0.96981
3436.02425	0.96999
3433.97044	0.97015
3431.91663	0.97008
3429.86282	0.97000
3427.80901	0.96973
3425.75520	0.96948
3423.70139	0.96961
3421.64758	0.96983
3419.59377	0.96983
3417.53996	0.96961
3415.48615	0.96925
3413.43234	0.96909
3411.37853	0.96907
3409.32472	0.96902
3407.27091	0.96915
3405.21710	0.96939
3403.16329	0.96950
3401.10948	0.96947
3399.05567	0.96942
3397.00186	0.96944
3394.94805	0.96947
3392.89424	0.96924
3390.84042	0.96885
3388.78661	0.96869
3386.73280	0.96870
3384.67899	0.96878
3382.62518	0.96912
3380.57137	0.96933
3378.51756	0.96920
3376.46375	0.96900
3374.40994	0.96890
3372.35613	0.96884
3370.30232	0.96878
3368.24851	0.96881
3366.19470	0.96896
3364.14089	0.96913
3362.08708	0.96917
3360.03327	0.96909
3357.97946	0.96905
3355.92565	0.96927
3353.87184	0.96970
3351.81803	0.97012
3349.76422	0.97030
3347.71041	0.97008
3345.65660	0.96970
3343.60279	0.96945
3341.54898	0.96946
3339.49517	0.96964
3337.44136	0.96988
3335.38755	0.97000
3333.33374	0.96992
3331.27993	0.96974
3329.22612	0.96958
3327.17231	0.96948
3325.11850	0.96952
3323.06469	0.96975
3321.01088	0.96983
3318.95707	0.96964
3316.90326	0.96959
3314.84945	0.96963
3312.79564	0.96954
3310.74183	0.96950
3308.68802	0.96959
3306.63421	0.96980
3304.58040	0.97019
3302.52659	0.97029
3300.47278	0.96999
3298.41897	0.96979
3296.36516	0.96966
3294.31135	0.96966
3292.25754	0.96995
3290.20373	0.97023
3288.14992	0.97024
3286.09611	0.97013
3284.04230	0.97033
3281.98849	0.97088
3279.93468	0.97128
3277.88087	0.97139
3275.82706	0.97130
3273.77325	0.97118
3271.71944	0.97142
3269.66563	0.97196
3267.61182	0.97216
3265.55801	0.97190
3263.50420	0.97160
3261.45039	0.97151
3259.39658	0.97158
3257.34277	0.97177
3255.28896	0.97213
3253.23515	0.97243
3251.18134	0.97231
3249.12753	0.97194
3247.07372	0.97187
3245.01991	0.97235
3242.96610	0.97298
3240.91229	0.97323
3238.85848	0.97298
3236.80467	0.97256
3234.75086	0.97223
3232.69705	0.97211
3230.64324	0.97229
3228.58943	0.97270
3226.53562	0.97311
3224.48181	0.97332
3222.42800	0.97337
3220.37419	0.97349
3218.32038	0.97380
3216.26657	0.97413
3214.21276	0.97439
3212.15895	0.97478
3210.10514	0.97505
3208.05133	0.97495
3205.99752	0.97474
3203.94371	0.97452
3201.88990	0.97433
3199.83609	0.97441
3197.78228	0.97479
3195.72847	0.97542
3193.67466	0.97589
3191.62085	0.97585
3189.56704	0.97564
3187.51323	0.97559
3185.45942	0.97568
3183.40561	0.97598
3181.35180	0.97638
3179.29799	0.97655
3177.24418	0.97650
3175.19037	0.97648
3173.13656	0.97664
3171.08275	0.97680
3169.02894	0.97686
3166.97513	0.97712
3164.92132	0.97753
3162.86751	0.97758
3160.81370	0.97736
3158.75989	0.97756
3156.70608	0.97809
3154.65227	0.97838
3152.59846	0.97848
3150.54465	0.97843
3148.49084	0.97841
3146.43703	0.97866
3144.38322	0.97886
3142.32941	0.97886
3140.27560	0.97888
3138.22179	0.97904
3136.16798	0.97928
3134.11417	0.97941
3132.06036	0.97918
3130.00655	0.97890
3127.95274	0.97899
3125.89893	0.97926
3123.84512	0.97938
3121.79131	0.97942
3119.73750	0.97953
3117.68369	0.97962
3115.62988	0.97962
3113.57607	0.97964
3111.52226	0.97970
3109.46845	0.97977
3107.41464	0.97984
3105.36083	0.97972
3103.30702	0.97956
3101.25321	0.97961
3099.19940	0.97979
3097.14559	0.98005
3095.09177	0.98019
3093.03796	0.98003
3090.98415	0.97994
3088.93034	0.98007
3086.87653	0.98006
3084.82272	0.97997
3082.76891	0.98006
3080.71510	0.98031
3078.66129	0.98053
3076.60748	0.98051
3074.55367	0.98042
3072.49986	0.98050
3070.44605	0.98058
3068.39224	0.98053
3066.33843	0.98053
3064.28462	0.98065
3062.23081	0.98085
3060.17700	0.98115
3058.12319	0.98139
3056.06938	0.98137
3054.01557	0.98139
3051.96176	0.98151
3049.90795	0.98152
3047.85414	0.98154
3045.80033	0.98155
3043.74652	0.98165
3041.69271	0.98186
3039.63890	0.98191
3037.58509	0.98175
3035.53128	0.98154
3033.47747	0.98152
3031.42366	0.98175
3029.36985	0.98195
3027.31604	0.98196
3025.26223	0.98190
3023.20842	0.98184
3021.15461	0.98190
3019.10080	0.98204
3017.04699	0.98208
3014.99318	0.98200
3012.93937	0.98186
3010.88556	0.98185
3008.83175	0.98201
3006.77794	0.98213
3004.72413	0.98214
3002.67032	0.98211
3000.61651	0.98203
2998.56270	0.98190
2996.50889	0.98166
2994.45508	0.98137
2992.40127	0.98121
2990.34746	0.98109
2988.29365	0.98082
2986.23984	0.98060
2984.18603	0.98047
2982.13222	0.98031
2980.07841	0.98019
2978.02460	0.98000
2975.97079	0.97973
2973.91698	0.97940
2971.86317	0.97877
2969.80936	0.97795
2967.75555	0.97712
2965.70174	0.97608
2963.64793	0.97479
2961.59412	0.97367
2959.54031	0.97269
2957.48650	0.97159
2955.43269	0.97055
2953.37888	0.96965
2951.32507	0.96853
2949.27126	0.96690
2947.21745	0.96470
2945.16364	0.96186
2943.10983	0.95807
2941.05602	0.95316
2939.00221	0.94711
2936.94840	0.93987
2934.89459	0.93144
2932.84078	0.92163
2930.78697	0.90988
2928.73316	0.89578
2926.67935	0.87888
2924.62554	0.85836
2922.57173	0.83401
2920.51792	0.80742
2918.46411	0.78226
2916.41030	0.76411
2914.35649	0.75853
2912.30268	0.76672
2910.24887	0.78396
2908.19506	0.80346
2906.14125	0.82069
2904.08744	0.83457
2902.03363	0.84574
2899.97982	0.85482
2897.92601	0.86233
2895.87220	0.86890
2893.81839	0.87528
2891.76458	0.88181
2889.71077	0.88840
2887.65696	0.89490
2885.60315	0.90132
2883.54934	0.90791
2881.49553	0.91483
2879.44172	0.92172
2877.38791	0.92825
2875.33410	0.93415
2873.28029	0.93876
2871.22648	0.94184
2869.17267	0.94361
2867.11886	0.94382
2865.06505	0.94226
2863.01124	0.93870
2860.95743	0.93238
2858.90362	0.92187
2856.84981	0.90493
2854.79600	0.87904
2852.74219	0.84338
2850.68838	0.80446
2848.63457	0.77876
2846.58076	0.77973
2844.52695	0.80363
2842.47314	0.83579
2840.41933	0.86501
2838.36552	0.88775
2836.31171	0.90456
2834.25790	0.91690
2832.20409	0.92619
2830.15028	0.93364
2828.09647	0.93974
2826.04266	0.94443
2823.98885	0.94797
2821.93504	0.95096
2819.88123	0.95353
2817.82742	0.95560
2815.77361	0.95726
2813.71980	0.95868
2811.66599	0.96004
2809.61218	0.96134
2807.55837	0.96243
2805.50456	0.96342
2803.45075	0.96455
2801.39693	0.96560
2799.34312	0.96631
2797.28931	0.96708
2795.23550	0.96799
2793.18169	0.96874
2791.12788	0.96941
2789.07407	0.97005
2787.02026	0.97061
2784.96645	0.97130
2782.91264	0.97196
2780.85883	0.97231
2778.80502	0.97254
2776.75121	0.97290
2774.69740	0.97341
2772.64359	0.97399
2770.58978	0.97444
2768.53597	0.97469
2766.48216	0.97482
2764.42835	0.97492
2762.37454	0.97512
2760.32073	0.97546
2758.26692	0.97579
2756.21311	0.97598
2754.15930	0.97608
2752.10549	0.97624
2750.05168	0.97640
2747.99787	0.97653
2745.94406	0.97667
2743.89025	0.97676
2741.83644	0.97687
2739.78263	0.97703
2737.72882	0.97704
2735.67501	0.97697
2733.62120	0.97699
2731.56739	0.97711
2729.51358	0.97739
2727.45977	0.97768
2725.40596	0.97783
2723.35215	0.97790
2721.29834	0.97801
2719.24453	0.97818
2717.19072	0.97834
2715.13691	0.97848
2713.08310	0.97868
2711.02929	0.97889
2708.97548	0.97907
2706.92167	0.97925
2704.86786	0.97927
2702.81405	0.97912
2700.76024	0.97905
2698.70643	0.97923
2696.65262	0.97957
2694.59881	0.97981
2692.54500	0.97984
2690.49119	0.97983
2688.43738	0.97992
2686.38357	0.98012
2684.32976	0.98025
2682.27595	0.98019
2680.22214	0.97998
2678.16833	0.97974
2676.11452	0.97959
2674.06071	0.97956
2672.00690	0.97958
2669.95309	0.97952
2667.89928	0.97947
2665.84547	0.97942
2663.79166	0.97933
2661.73785	0.97940
2659.68404	0.97945
2657.63023	0.97932
2655.57642	0.97924
2653.52261	0.97934
2651.46880	0.97946
2649.41499	0.97947
2647.36118	0.97946
2645.30737	0.97954
2643.25356	0.97968
2641.19975	0.97969
2639.14594	0.97951
2637.09213	0.97936
2635.03832	0.97935
2632.98451	0.97955
2630.93070	0.97981
2628.87689	0.97989
2626.82308	0.97989
2624.76927	0.98009
2622.71546	0.98047
2620.66165	0.98060
2618.60784	0.98042
2616.55403	0.98038
2614.50022	0.98063
2612.44641	0.98112
2610.39260	0.98162
2608.33879	0.98181
2606.28498	0.98167
2604.23117	0.98136
2602.17736	0.98120
2600.12355	0.98147
2598.06974	0.98187
2596.01593	0.98200
2593.96212	0.98199
2591.90831	0.98208
2589.85450	0.98230
2587.80069	0.98274
2585.74688	0.98291
2583.69307	0.98267
2581.63926	0.98264
2579.58545	0.98277
2577.53164	0.98270
2575.47783	0.98273
2573.42402	0.98307
2571.37021	0.98324
2569.31640	0.98307
2567.26259	0.98302
2565.20878	0.98324
2563.15497	0.98338
2561.10116	0.98355
2559.04735	0.98406
2556.99354	0.98430
2554.93973	0.98407
2552.88592	0.98383
2550.83211	0.98352
2548.77830	0.98343
2546.72449	0.98369
2544.67068	0.98367
2542.61687	0.98337
2540.56306	0.98343
2538.50925	0.98353
2536.45544	0.98330
2534.40163	0.98327
2532.34782	0.98353
2530.29401	0.98393
2528.24020	0.98446
2526.18639	0.98454
2524.13258	0.98404
2522.07877	0.98367
2520.02496	0.98391
2517.97115	0.98450
2515.91734	0.98483
2513.86353	0.98467
2511.80972	0.98444
2509.75591	0.98444
2507.70210	0.98465
2505.64828	0.98490
2503.59447	0.98503
2501.54066	0.98499
2499.48685	0.98485
2497.43304	0.98487
2495.37923	0.98531
2493.32542	0.98559
2491.27161	0.98512
2489.21780	0.98455
2487.16399	0.98420
2485.11018	0.98404
2483.05637	0.98426
2481.00256	0.98454
2478.94875	0.98459
2476.89494	0.98453
2474.84113	0.98456
2472.78732	0.98486
2470.73351	0.98530
2468.67970	0.98539
2466.62589	0.98514
2464.57208	0.98505
2462.51827	0.98518
2460.46446	0.98536
2458.41065	0.98545
2456.35684	0.98537
2454.30303	0.98538
2452.24922	0.98556
2450.19541	0.98544
2448.14160	0.98512
2446.08779	0.98511
2444.03398	0.98553
2441.98017	0.98600
2439.92636	0.98612
2437.87255	0.98589
2435.81874	0.98563
2433.76493	0.98552
2431.71112	0.98560
2429.65731	0.98590
2427.60350	0.98617
2425.54969	0.98629
2423.49588	0.98629
2421.44207	0.98600
2419.38826	0.98548
2417.33445	0.98527
2415.28064	0.98542
2413.22683	0.98561
2411.17302	0.98594
2409.11921	0.98616
2407.06540	0.98589
2405.01159	0.98563
2402.95778	0.98579
2400.90397	0.98609
2398.85016	0.98634
2396.79635	0.98642
2394.74254	0.98618
2392.68873	0.98584
2390.63492	0.98585
2388.58111	0.98604
2386.52730	0.98594
2384.47349	0.98578
2382.41968	0.98584
2380.36587	0.98584
2378.31206	0.98558
2376.25825	0.98508
2374.20444	0.98454
2372.15063	0.98402
2370.09682	0.98357
2368.04301	0.98356
2365.98920	0.98384
2363.93539	0.98419
2361.88158	0.98417
2359.82777	0.98350
2357.77396	0.98305
2355.72015	0.98345
2353.66634	0.98435
2351.61253	0.98485
2349.55872	0.98480
2347.50491	0.98460
2345.45110	0.98438
2343.39729	0.98391
2341.34348	0.98318
2339.28967	0.98258
2337.23586	0.98258
2335.18205	0.98330
2333.12824	0.98382
2331.07443	0.98374
2329.02062	0.98369
2326.96681	0.98370
2324.91300	0.98367
2322.85919	0.98372
2320.80538	0.98339
2318.75157	0.98282
2316.69776	0.98287
2314.64395	0.98353
2312.59014	0.98429
2310.53633	0.98458
2308.48252	0.98443
2306.42871	0.98440
2304.37490	0.98465
2302.32109	0.98497
2300.26728	0.98503
2298.21347	0.98470
2296.15966	0.98441
2294.10585	0.98436
2292.05204	0.98433
2289.99823	0.98422
2287.94442	0.98411
2285.89061	0.98418
2283.83680	0.98435
2281.78299	0.98466
2279.72918	0.98512
2277.67537	0.98522
2275.62156	0.98495
2273.56775	0.98450
2271.51394	0.98421
2269.46013	0.98470
2267.40632	0.98507
2265.35251	0.98467
2263.29870	0.98476
2261.24489	0.98562
2259.19108	0.98621
2257.13727	0.98627
2255.08346	0.98614
2253.02965	0.98589
2250.97584	0.98536
2248.92203	0.98488
2246.86822	0.98474
2244.81441	0.98522
2242.76060	0.98625
2240.70679	0.98660
2238.65298	0.98593
2236.59917	0.98544
2234.54536	0.98569
2232.49155	0.98608
2230.43774	0.98600
2228.38393	0.98555
2226.33012	0.98557
2224.27631	0.98594
2222.22250	0.98585
2220.16869	0.98599
2218.11488	0.98668
2216.06107	0.98717
2214.00726	0.98715
2211.95344	0.98660
2209.89963	0.98614
2207.84582	0.98620
2205.79201	0.98684
2203.73820	0.98728
2201.68439	0.98628
2199.63058	0.98467
2197.57677	0.98448
2195.52296	0.98543
2193.46915	0.98531
2191.41534	0.98377
2189.36153	0.98279
2187.30772	0.98345
2185.25391	0.98455
2183.20010	0.98540
2181.14629	0.98712
2179.09248	0.98974
2177.03867	0.99084
2174.98486	0.98946
2172.93105	0.98793
2170.87724	0.98705
2168.82343	0.98533
2166.76962	0.98329
2164.71581	0.98263
2162.66200	0.98262
2160.60819	0.98366
2158.55438	0.98719
2156.50057	0.98995
2154.44676	0.98998
2152.39295	0.98996
2150.33914	0.99079
2148.28533	0.99064
2146.23152	0.98866
2144.17771	0.98668
2142.12390	0.98681
2140.07009	0.98806
2138.01628	0.98849
2135.96247	0.98836
2133.90866	0.98830
2131.85485	0.98792
2129.80104	0.98729
2127.74723	0.98707
2125.69342	0.98693
2123.63961	0.98683
2121.58580	0.98726
2119.53199	0.98772
2117.47818	0.98721
2115.42437	0.98626
2113.37056	0.98646
2111.31675	0.98760
2109.26294	0.98800
2107.20913	0.98730
2105.15532	0.98663
2103.10151	0.98662
2101.04770	0.98683
2098.99389	0.98654
2096.94008	0.98615
2094.88627	0.98670
2092.83246	0.98768
2090.77865	0.98810
2088.72484	0.98773
2086.67103	0.98698
2084.61722	0.98696
2082.56341	0.98741
2080.50960	0.98733
2078.45579	0.98673
2076.40198	0.98594
2074.34817	0.98584
2072.29436	0.98658
2070.24055	0.98742
2068.18674	0.98823
2066.13293	0.98884
2064.07912	0.98895
2062.02531	0.98839
2059.97150	0.98723
2057.91769	0.98627
2055.86388	0.98639
2053.81007	0.98660
2051.75626	0.98582
2049.70245	0.98561
2047.64864	0.98681
2045.59483	0.98772
2043.54102	0.98784
2041.48721	0.98799
2039.43340	0.98746
2037.37959	0.98595
2035.32578	0.98461
2033.27197	0.98424
2031.21816	0.98453
2029.16435	0.98496
2027.11054	0.98557
2025.05673	0.98589
2023.00292	0.98576
2020.94911	0.98535
2018.89530	0.98523
2016.84149	0.98595
2014.78768	0.98694
2012.73387	0.98703
2010.68006	0.98610
2008.62625	0.98560
2006.57244	0.98553
2004.51863	0.98547
2002.46482	0.98574
2000.41101	0.98627
1998.35720	0.98711
1996.30339	0.98769
1994.24958	0.98733
1992.19577	0.98703
1990.14196	0.98767
1988.08815	0.98785
1986.03434	0.98730
1983.98053	0.98714
1981.92672	0.98734
1979.87291	0.98719
1977.81910	0.98672
1975.76529	0.98731
1973.71148	0.98857
1971.65767	0.98828
1969.60386	0.98734
1967.55005	0.98733
1965.49624	0.98735
1963.44243	0.98793
1961.38862	0.98913
1959.33481	0.98950
1957.28100	0.98910
1955.22719	0.98839
1953.17338	0.98776
1951.11957	0.98759
1949.06576	0.98794
1947.01195	0.98835
1944.95814	0.98843
1942.90433	0.98844
1940.85052	0.98832
1938.79671	0.98829
1936.74290	0.98829
1934.68909	0.98805
1932.63528	0.98777
1930.58147	0.98775
1928.52766	0.98815
1926.47385	0.98851
1924.42004	0.98837
1922.36623	0.98781
1920.31242	0.98738
1918.25861	0.98748
1916.20479	0.98753
1914.15098	0.98694
1912.09717	0.98616
1910.04336	0.98600
1907.98955	0.98661
1905.93574	0.98712
1903.88193	0.98720
1901.82812	0.98718
1899.77431	0.98689
1897.72050	0.98662
1895.66669	0.98700
1893.61288	0.98756
1891.55907	0.98762
1889.50526	0.98730
1887.45145	0.98693
1885.39764	0.98671
1883.34383	0.98682
1881.29002	0.98713
1879.23621	0.98722
1877.18240	0.98694
1875.12859	0.98676
1873.07478	0.98704
1871.02097	0.98750
1868.96716	0.98777
1866.91335	0.98720
1864.85954	0.98604
1862.80573	0.98552
1860.75192	0.98589
1858.69811	0.98640
1856.64430	0.98671
1854.59049	0.98691
1852.53668	0.98721
1850.48287	0.98745
1848.42906	0.98727
1846.37525	0.98704
1844.32144	0.98708
1842.26763	0.98704
1840.21382	0.98688
1838.16001	0.98671
1836.10620	0.98665
1834.05239	0.98669
1831.99858	0.98670
1829.94477	0.98652
1827.89096	0.98631
1825.83715	0.98631
1823.78334	0.98648
1821.72953	0.98661
1819.67572	0.98649
1817.62191	0.98621
1815.56810	0.98609
1813.51429	0.98613
1811.46048	0.98613
1809.40667	0.98608
1807.35286	0.98612
1805.29905	0.98616
1803.24524	0.98598
1801.19143	0.98573
1799.13762	0.98552
1797.08381	0.98520
1795.03000	0.98493
1792.97619	0.98479
1790.92238	0.98444
1788.86857	0.98414
1786.81476	0.98412
1784.76095	0.98425
1782.70714	0.98449
1780.65333	0.98461
1778.59952	0.98442
1776.54571	0.98417
1774.49190	0.98411
1772.43809	0.98434
1770.38428	0.98439
1768.33047	0.98395
1766.27666	0.98358
1764.22285	0.98336
1762.16904	0.98301
1760.11523	0.98273
1758.06142	0.98260
1756.00761	0.98233
1753.95380	0.98183
1751.89999	0.98108
1749.84618	0.98023
1747.79237	0.97955
1745.73856	0.97893
1743.68475	0.97806
1741.63094	0.97702
1739.57713	0.97622
1737.52332	0.97594
1735.46951	0.97607
1733.41570	0.97630
1731.36189	0.97590
1729.30808	0.97491
1727.25427	0.97363
1725.20046	0.97198
1723.14665	0.97011
1721.09284	0.96863
1719.03903	0.96752
1716.98522	0.96646
1714.93141	0.96603
1712.87760	0.96652
1710.82379	0.96750
1708.76998	0.96843
1706.71617	0.96920
1704.66236	0.97001
1702.60855	0.97069
1700.55474	0.97108
1698.50093	0.97101
1696.44712	0.97076
1694.39331	0.97106
1692.33950	0.97151
1690.28569	0.97147
1688.23188	0.97102
1686.17807	0.97052
1684.12426	0.97004
1682.07045	0.96960
1680.01664	0.96913
1677.96283	0.96865
1675.90902	0.96803
1673.85521	0.96719
1671.80140	0.96634
1669.74759	0.96549
1667.69378	0.96478
1665.63997	0.96410
1663.58616	0.96341
1661.53235	0.96299
1659.47854	0.96272
1657.42473	0.96242
1655.37092	0.96225
1653.31711	0.96238
1651.26330	0.96260
1649.20949	0.96268
1647.15568	0.96305
1645.10187	0.96355
1643.04806	0.96355
1640.99425	0.96337
1638.94044	0.96344
1636.88663	0.96373
1634.83282	0.96395
1632.77901	0.96401
1630.72520	0.96402
1628.67139	0.96393
1626.61758	0.96400
1624.56377	0.96456
1622.50996	0.96550
1620.45614	0.96622
1618.40233	0.96662
1616.34852	0.96691
1614.29471	0.96716
1612.24090	0.96736
1610.18709	0.96759
1608.13328	0.96790
1606.07947	0.96816
1604.02566	0.96833
1601.97185	0.96855
1599.91804	0.96883
1597.86423	0.96910
1595.81042	0.96935
1593.75661	0.96962
1591.70280	0.96989
1589.64899	0.97003
1587.59518	0.97010
1585.54137	0.97004
1583.48756	0.96974
1581.43375	0.96958
1579.37994	0.96956
1577.32613	0.96948
1575.27232	0.96947
1573.21851	0.96936
1571.16470	0.96896
1569.11089	0.96854
1567.05708	0.96832
1565.00327	0.96808
1562.94946	0.96781
1560.89565	0.96747
1558.84184	0.96666
1556.78803	0.96606
1554.73422	0.96595
1552.68041	0.96569
1550.62660	0.96512
1548.57279	0.96433
1546.51898	0.96341
1544.46517	0.96227
1542.41136	0.96109
1540.35755	0.96015
1538.30374	0.95951
1536.24993	0.95894
1534.19612	0.95822
1532.14231	0.95751
1530.08850	0.95676
1528.03469	0.95584
1525.98088	0.95503
1523.92707	0.95442
1521.87326	0.95380
1519.81945	0.95347
1517.76564	0.95338
1515.71183	0.95322
1513.65802	0.95288
1511.60421	0.95241
1509.55040	0.95192
1507.49659	0.95123
1505.44278	0.95063
1503.38897	0.95029
1501.33516	0.94988
1499.28135	0.94938
1497.22754	0.94880
1495.17373	0.94812
1493.11992	0.94754
1491.06611	0.94706
1489.01230	0.94634
1486.95849	0.94550
1484.90468	0.94495
1482.85087	0.94435
1480.79706	0.94281
1478.74325	0.93829
1476.68944	0.92464
1474.63563	0.89629
1472.58182	0.86904
1470.52801	0.87018
1468.47420	0.88527
1466.42039	0.89383
1464.36658	0.89026
1462.31277	0.88681
1460.25896	0.89515
1458.20515	0.91221
1456.15134	0.92721
1454.09753	0.93369
1452.04372	0.93735
1449.98991	0.94042
1447.93610	0.94298
1445.88229	0.94500
1443.82848	0.94647
1441.77467	0.94753
1439.72086	0.94824
1437.66705	0.94891
1435.61324	0.94984
1433.55943	0.95069
1431.50562	0.95138
1429.45181	0.95191
1427.39800	0.95239
1425.34419	0.95293
1423.29038	0.95339
1421.23657	0.95366
1419.18276	0.95408
1417.12895	0.95462
1415.07514	0.95492
1413.02133	0.95512
1410.96752	0.95564
1408.91371	0.95659
1406.85990	0.95764
1404.80609	0.95884
1402.75228	0.96013
1400.69847	0.96122
1398.64466	0.96205
1396.59085	0.96276
1394.53704	0.96348
1392.48323	0.96398
1390.42942	0.96413
1388.37561	0.96426
1386.32180	0.96440
1384.26799	0.96433
1382.21418	0.96401
1380.16037	0.96342
1378.10656	0.96273
1376.05275	0.96230
1373.99894	0.96242
1371.94513	0.96278
1369.89132	0.96296
1367.83751	0.96308
1365.78370	0.96341
1363.72989	0.96410
1361.67608	0.96491
1359.62227	0.96535
1357.56846	0.96558
1355.51465	0.96573
1353.46084	0.96583
1351.40703	0.96603
1349.35322	0.96639
1347.29941	0.96685
1345.24560	0.96726
1343.19179	0.96751
1341.13798	0.96770
1339.08417	0.96795
1337.03036	0.96825
1334.97655	0.96846
1332.92274	0.96865
1330.86893	0.96885
1328.81512	0.96883
1326.76130	0.96862
1324.70749	0.96853
1322.65368	0.96856
1320.59987	0.96846
1318.54606	0.96818
1316.49225	0.96794
1314.43844	0.96777
1312.38463	0.96763
1310.33082	0.96753
1308.27701	0.96740
1306.22320	0.96723
1304.16939	0.96697
1302.11558	0.96685
1300.06177	0.96696
1298.00796	0.96688
1295.95415	0.96664
1293.90034	0.96660
1291.84653	0.96666
1289.79272	0.96650
1287.73891	0.96624
1285.68510	0.96608
1283.63129	0.96595
1281.57748	0.96579
1279.52367	0.96541
1277.46986	0.96490
1275.41605	0.96457
1273.36224	0.96436
1271.30843	0.96411
1269.25462	0.96389
1267.20081	0.96393
1265.14700	0.96409
1263.09319	0.96402
1261.03938	0.96374
1258.98557	0.96343
1256.93176	0.96310
1254.87795	0.96278
1252.82414	0.96261
1250.77033	0.96250
1248.71652	0.96230
1246.66271	0.96218
1244.60890	0.96230
1242.55509	0.96241
1240.50128	0.96246
1238.44747	0.96252
1236.39366	0.96259
1234.33985	0.96263
1232.28604	0.96265
1230.23223	0.96264
1228.17842	0.96263
1226.12461	0.96280
1224.07080	0.96307
1222.01699	0.96308
1219.96318	0.96273
1217.90937	0.96229
1215.85556	0.96198
1213.80175	0.96190
1211.74794	0.96198
1209.69413	0.96215
1207.64032	0.96236
1205.58651	0.96245
1203.53270	0.96228
1201.47889	0.96205
1199.42508	0.96200
1197.37127	0.96224
1195.31746	0.96246
1193.26365	0.96233
1191.20984	0.96195
1189.15603	0.96153
1187.10222	0.96108
1185.04841	0.96055
1182.99460	0.96001
1180.94079	0.95945
1178.88698	0.95881
1176.83317	0.95827
1174.77936	0.95785
1172.72555	0.95730
1170.67174	0.95659
1168.61793	0.95580
1166.56412	0.95498
1164.51031	0.95439
1162.45650	0.95392
1160.40269	0.95325
1158.34888	0.95267
1156.29507	0.95249
1154.24126	0.95239
1152.18745	0.95203
1150.13364	0.95150
1148.07983	0.95113
1146.02602	0.95095
1143.97221	0.95080
1141.91840	0.95064
1139.86459	0.95023
1137.81078	0.94949
1135.75697	0.94865
1133.70316	0.94766
1131.64935	0.94654
1129.59554	0.94529
1127.54173	0.94384
1125.48792	0.94234
1123.43411	0.94085
1121.38030	0.93930
1119.32649	0.93762
1117.27268	0.93581
1115.21887	0.93419
1113.16506	0.93287
1111.11125	0.93152
1109.05744	0.93010
1107.00363	0.92869
1104.94982	0.92729
1102.89601	0.92620
1100.84220	0.92539
1098.78839	0.92433
1096.73458	0.92293
1094.68077	0.92153
1092.62696	0.92028
1090.57315	0.91913
1088.51934	0.91797
1086.46553	0.91652
1084.41172	0.91489
1082.35791	0.91357
1080.30410	0.91250
1078.25029	0.91136
1076.19648	0.91036
1074.14267	0.90962
1072.08886	0.90882
1070.03505	0.90780
1067.98124	0.90669
1065.92743	0.90562
1063.87362	0.90475
1061.81981	0.90418
1059.76600	0.90358
1057.71219	0.90268
1055.65838	0.90158
1053.60457	0.90019
1051.55076	0.89849
1049.49695	0.89678
1047.44314	0.89533
1045.38933	0.89409
1043.33552	0.89293
1041.28171	0.89197
1039.22790	0.89145
1037.17409	0.89133
1035.12028	0.89145
1033.06647	0.89185
1031.01265	0.89252
1028.95884	0.89342
1026.90503	0.89448
1024.85122	0.89582
1022.79741	0.89733
1020.74360	0.89841
1018.68979	0.89913
1016.63598	0.90005
1014.58217	0.90096
1012.52836	0.90176
1010.47455	0.90282
1008.42074	0.90418
1006.36693	0.90564
1004.31312	0.90718
1002.25931	0.90877
1000.20550	0.91024
998.15169	0.91168
996.09788	0.91310
994.04407	0.91436
991.99026	0.91568
989.93645	0.91708
987.88264	0.91844
985.82883	0.92003
983.77502	0.92176
981.72121	0.92320
979.66740	0.92459
977.61359	0.92606
975.55978	0.92744
973.50597	0.92884
971.45216	0.93026
969.39835	0.93143
967.34454	0.93264
965.29073	0.93409
963.23692	0.93526
961.18311	0.93608
959.12930	0.93703
957.07549	0.93825
955.02168	0.93948
952.96787	0.94067
950.91406	0.94190
948.86025	0.94325
946.80644	0.94468
944.75263	0.94592
942.69882	0.94680
940.64501	0.94741
938.59120	0.94792
936.53739	0.94845
934.48358	0.94900
932.42977	0.94956
930.37596	0.95019
928.32215	0.95059
926.26834	0.95061
924.21453	0.95063
922.16072	0.95053
920.10691	0.95011
918.05310	0.94966
915.99929	0.94937
913.94548	0.94910
911.89167	0.94892
909.83786	0.94914
907.78405	0.94952
905.73024	0.94985
903.67643	0.95070
901.62262	0.95186
899.56881	0.95260
897.51500	0.95309
895.46119	0.95361
893.40738	0.95420
891.35357	0.95473
889.29976	0.95501
887.24595	0.95507
885.19214	0.95512
883.13833	0.95504
881.08452	0.95433
879.03071	0.95304
876.97690	0.95217
874.92309	0.95247
872.86928	0.95346
870.81547	0.95420
868.76166	0.95415
866.70785	0.95348
864.65404	0.95243
862.60023	0.95090
860.54642	0.94930
858.49261	0.94840
856.43880	0.94849
854.38499	0.95015
852.33118	0.95315
850.27737	0.95562
848.22356	0.95665
846.16975	0.95708
844.11594	0.95746
842.06213	0.95741
840.00832	0.95672
837.95451	0.95592
835.90070	0.95532
833.84689	0.95481
831.79308	0.95466
829.73927	0.95518
827.68546	0.95531
825.63165	0.95432
823.57784	0.95329
821.52403	0.95316
819.47022	0.95357
817.41641	0.95355
815.36260	0.95314
813.30879	0.95316
811.25498	0.95310
809.20117	0.95219
807.14736	0.95100
805.09355	0.95008
803.03974	0.94960
800.98593	0.94954
798.93212	0.94959
796.87831	0.94947
794.82450	0.94930
792.77069	0.94948
790.71688	0.94981
788.66307	0.94958
786.60926	0.94866
784.55545	0.94753
782.50164	0.94687
780.44783	0.94672
778.39402	0.94681
776.34021	0.94751
774.28640	0.94854
772.23259	0.94912
770.17878	0.94916
768.12497	0.94870
766.07116	0.94812
764.01735	0.94808
761.96354	0.94828
759.90973	0.94795
757.85592	0.94688
755.80211	0.94586
753.74830	0.94575
751.69449	0.94611
749.64068	0.94617
747.58687	0.94623
745.53306	0.94660
743.47925	0.94683
741.42544	0.94659
739.37163	0.94545
737.31781	0.94244
735.26400	0.93442
733.21019	0.91799
731.15638	0.90092
729.10257	0.89769
727.04876	0.90619
724.99495	0.91134
722.94114	0.90316
720.88733	0.88102
718.83352	0.85865
716.77971	0.85308
714.72590	0.86561
712.67209	0.88601
710.61828	0.90341
708.56447	0.91408
706.51066	0.91993
704.45685	0.92306
702.40304	0.92457
700.34923	0.92524
698.29542	0.92605
696.24161	0.92700
694.18780	0.92741
692.13399	0.92754
690.08018	0.92807
688.02637	0.92879
685.97256	0.92933
683.91875	0.92979
681.86494	0.92972
679.81113	0.92909
677.75732	0.92897
675.70351	0.92959
673.64970	0.93008
671.59589	0.93016
669.54208	0.93023
667.48827	0.93016
665.43446	0.93017
663.38065	0.93074
661.32684	0.93139
659.27303	0.93142
657.21922	0.93139
655.16541	0.93152
653.11160	0.93113
651.05779	0.93047
649.00398	0.92999
646.95017	0.92943
644.89636	0.92920
642.84255	0.92972
640.78874	0.93019
638.73493	0.93014
636.68112	0.92983
634.62731	0.92922
632.57350	0.92806
630.51969	0.92676
628.46588	0.92618
626.41207	0.92635
624.35826	0.92659
622.30445	0.92697
620.25064	0.92808
618.19683	0.92871
616.14302	0.92770
614.08921	0.92644
612.03540	0.92594
609.98159	0.92563
607.92778	0.92529
605.87397	0.92548
603.82016	0.92603
601.76635	0.92609
599.71254	0.92527
597.65873	0.92370
595.60492	0.92199
593.55111	0.92139
591.49730	0.92211
589.44349	0.92282
587.38968	0.92225
585.33587	0.92061
583.28206	0.91956
581.22825	0.91913
579.17444	0.91844
577.12063	0.91778
575.06682	0.91715
573.01301	0.91638
570.95920	0.91542
568.90539	0.91468
566.85158	0.91373
564.79777	0.91142
562.74396	0.90848
560.69015	0.90671
558.63634	0.90702
556.58253	0.90792
554.52872	0.90754
552.47491	0.90627
550.42110	0.90465
548.36729	0.90295
546.31348	0.90210
544.25967	0.90174
542.20586	0.90121
540.15205	0.90137
538.09824	0.90229
536.04443	0.90287
533.99062	0.90277
531.93681	0.90229
529.88300	0.90159
527.82919	0.90103
525.77538	0.90125
523.72157	0.90268
521.66776	0.90392
519.61395	0.90354
517.56014	0.90262
515.50633	0.90203
513.45252	0.90154
511.39871	0.90164
509.34490	0.90226
507.29109	0.90280
505.23728	0.90272
503.18347	0.90201
501.12966	0.90083
499.07585	0.89920
497.02204	0.89820
494.96823	0.89822
492.91442	0.89768
490.86061	0.89604
488.80680	0.89415
486.75299	0.89201
484.69918	0.88881
482.64537	0.88564
480.59156	0.88468
478.53775	0.88443
476.48394	0.88309
474.43013	0.88166
472.37632	0.88022
470.32251	0.87932
468.26870	0.88099
466.21489	0.88396
464.16108	0.88511
462.10727	0.88486
460.05346	0.88683
457.99965	0.89191
455.94584	0.89544
453.89203	0.89534
451.83822	0.89394
449.78441	0.89419
447.73060	0.89740
445.67679	0.90036
443.62298	0.90163
441.56916	0.90384
439.51535	0.90460
437.46154	0.90141
435.40773	0.89756
433.35392	0.89688
431.30011	0.89916
429.24630	0.90034
427.19249	0.90000
425.13868	0.90190
423.08487	0.90403
421.03106	0.90157
418.97725	0.89867
416.92344	0.90269
414.86963	0.90495
412.81582	0.90166
410.76201	0.89925
408.70820	0.89998
406.65439	0.89956
404.60058	0.89808
402.54677	0.89867
400.49296	0.89776
398.43915	0.89483
