3996.70104	0.96755
3994.64724	0.96748
3992.59344	0.96715
3990.53964	0.96683
3988.48583	0.96682
3986.43203	0.96719
3984.37823	0.96757
3982.32442	0.96763
3980.27062	0.96747
3978.21682	0.96715
3976.16301	0.96677
3974.10921	0.96675
3972.05541	0.96716
3970.00160	0.96753
3967.94780	0.96757
3965.89400	0.96736
3963.84019	0.96712
3961.78639	0.96689
3959.73259	0.96667
3957.67878	0.96668
3955.62498	0.96718
3953.57118	0.96772
3951.51737	0.96775
3949.46357	0.96763
3947.40977	0.96743
3945.35596	0.96692
3943.30216	0.96645
3941.24836	0.96638
3939.19455	0.96684
3937.14075	0.96726
3935.08695	0.96744
3933.03315	0.96775
3930.97934	0.96787
3928.92554	0.96759
3926.87174	0.96748
3924.81793	0.96754
3922.76413	0.96759
3920.71033	0.96779
3918.65652	0.96806
3916.60272	0.96838
3914.54892	0.96853
3912.49511	0.96833
3910.44131	0.96799
3908.38751	0.96771
3906.33370	0.96770
3904.27990	0.96783
3902.22610	0.96819
3900.17229	0.96838
3898.11849	0.96786
3896.06469	0.96765
3894.01088	0.96810
3891.95708	0.96822
3889.90328	0.96768
3887.84947	0.96765
3885.79567	0.96826
3883.74187	0.96851
3881.68807	0.96824
3879.63426	0.96788
3877.58046	0.96746
3875.52666	0.96715
3873.47285	0.96728
3871.41905	0.96789
3869.36525	0.96850
3867.31144	0.96821
3865.25764	0.96763
3863.20384	0.96750
3861.15003	0.96748
3859.09623	0.96747
3857.04243	0.96796
3854.98862	0.96924
3852.93482	0.96997
3850.88102	0.96890
3848.82721	0.96791
3846.77341	0.96754
3844.71961	0.96775
3842.66580	0.96811
3840.61200	0.96803
3838.55820	0.96820
3836.50439	0.96904
3834.45059	0.96928
3832.39679	0.96884
3830.34298	0.96858
3828.28918	0.96838
3826.23538	0.96785
3824.18158	0.96754
3822.12777	0.96766
3820.07397	0.96791
3818.02017	0.96861
3815.96636	0.96952
3813.91256	0.96963
3811.85876	0.96926
3809.80495	0.96918
3807.75115	0.96960
3805.69735	0.96973
3803.64354	0.96904
3801.58974	0.96853
3799.53594	0.96852
3797.48213	0.96836
3795.42833	0.96833
3793.37453	0.96860
3791.32072	0.96867
3789.26692	0.96842
3787.21312	0.96801
3785.15931	0.96770
3783.10551	0.96779
3781.05171	0.96814
3778.99790	0.96823
3776.94410	0.96810
3774.89030	0.96819
3772.83650	0.96836
3770.78269	0.96855
3768.72889	0.96878
3766.67509	0.96871
3764.62128	0.96860
3762.56748	0.96902
3760.51368	0.96995
3758.45987	0.97057
3756.40607	0.97020
3754.35227	0.96955
3752.29846	0.96944
3750.24466	0.97027
3748.19086	0.97097
3746.13705	0.97069
3744.08325	0.97026
3742.02945	0.96971
3739.97564	0.96893
3737.92184	0.96914
3735.86804	0.97021
3733.81423	0.97028
3731.76043	0.96993
3729.70663	0.96975
3727.65282	0.96929
3725.59902	0.96907
3723.54522	0.96944
3721.49141	0.96966
3719.43761	0.96920
3717.38381	0.96818
3715.33001	0.96712
3713.27620	0.96630
3711.22240	0.96580
3709.16860	0.96485
3707.11479	0.96270
3705.06099	0.96014
3703.00719	0.95836
3700.95338	0.95748
3698.89958	0.95637
3696.84578	0.95503
3694.79197	0.95448
3692.73817	0.95543
3690.68437	0.95773
3688.63056	0.95931
3686.57676	0.95905
3684.52296	0.95866
3682.46915	0.95854
3680.41535	0.95816
3678.36155	0.95722
3676.30774	0.95608
3674.25394	0.95566
3672.20014	0.95569
3670.14633	0.95497
3668.09253	0.95415
3666.03873	0.95390
3663.98492	0.95338
3661.93112	0.95259
3659.87732	0.95162
3657.82352	0.95057
3655.76971	0.94980
3653.71591	0.94928
3651.66211	0.94878
3649.60830	0.94730
3647.55450	0.94506
3645.50070	0.94417
3643.44689	0.94395
3641.39309	0.94352
3639.33929	0.94277
3637.28548	0.94225
3635.23168	0.94180
3633.17788	0.94018
3631.12407	0.93828
3629.07027	0.93754
3627.01647	0.93730
3624.96266	0.93704
3622.90886	0.93643
3620.85506	0.93552
3618.80125	0.93556
3616.74745	0.93660
3614.69365	0.93697
3612.63984	0.93648
3610.58604	0.93615
3608.53224	0.93655
3606.47844	0.93712
3604.42463	0.93739
3602.37083	0.93746
3600.31703	0.93706
3598.26322	0.93621
3596.20942	0.93595
3594.15562	0.93630
3592.10181	0.93615
3590.04801	0.93582
3587.99421	0.93623
3585.94040	0.93680
3583.88660	0.93690
3581.83280	0.93670
3579.77899	0.93626
3577.72519	0.93583
3575.67139	0.93534
3573.61758	0.93461
3571.56378	0.93409
3569.50998	0.93385
3567.45617	0.93343
3565.40237	0.93258
3563.34857	0.93223
3561.29476	0.93311
3559.24096	0.93379
3557.18716	0.93277
3555.13335	0.93096
3553.07955	0.92970
3551.02575	0.92922
3548.97195	0.92904
3546.91814	0.92888
3544.86434	0.92882
3542.81054	0.92887
3540.75673	0.92893
3538.70293	0.92869
3536.64913	0.92829
3534.59532	0.92820
3532.54152	0.92828
3530.48772	0.92804
3528.43391	0.92782
3526.38011	0.92808
3524.32631	0.92848
3522.27250	0.92845
3520.21870	0.92807
3518.16490	0.92792
3516.11109	0.92790
3514.05729	0.92761
3512.00349	0.92743
3509.94968	0.92763
3507.89588	0.92758
3505.84208	0.92702
3503.78827	0.92674
3501.73447	0.92707
3499.68067	0.92733
3497.62687	0.92702
3495.57306	0.92644
3493.51926	0.92582
3491.46546	0.92501
3489.41165	0.92441
3487.35785	0.92449
3485.30405	0.92477
3483.25024	0.92522
3481.19644	0.92568
3479.14264	0.92520
3477.08883	0.92442
3475.03503	0.92439
3472.98123	0.92430
3470.92742	0.92369
3468.87362	0.92337
3466.81982	0.92342
3464.76601	0.92335
3462.71221	0.92307
3460.65841	0.92245
3458.60460	0.92192
3456.55080	0.92213
3454.49700	0.92248
3452.44319	0.92227
3450.38939	0.92193
3448.33559	0.92163
3446.28178	0.92115
3444.22798	0.92082
3442.17418	0.92100
3440.12038	0.92138
3438.06657	0.92153
3436.01277	0.92138
3433.95897	0.92074
3431.90516	0.91960
3429.85136	0.91884
3427.79756	0.91883
3425.74375	0.91890
3423.68995	0.91860
3421.63615	0.91809
3419.58234	0.91764
3417.52854	0.91726
3415.47474	0.91681
3413.42093	0.91649
3411.36713	0.91661
3409.31333	0.91669
3407.25952	0.91654
3405.20572	0.91661
3403.15192	0.91657
3401.09811	0.91604
3399.04431	0.91602
3396.99051	0.91686
3394.93670	0.91743
3392.88290	0.91753
3390.82910	0.91763
3388.77529	0.91752
3386.72149	0.91712
3384.66769	0.91674
3382.61389	0.91671
3380.56008	0.91720
3378.50628	0.91766
3376.45248	0.91773
3374.39867	0.91775
3372.34487	0.91798
3370.29107	0.91855
3368.23726	0.91895
3366.18346	0.91861
3364.12966	0.91814
3362.07585	0.91813
3360.02205	0.91854
3357.96825	0.91926
3355.91444	0.91989
3353.86064	0.91994
3351.80684	0.91983
3349.75303	0.92008
3347.69923	0.92028
3345.64543	0.92038
3343.59162	0.92081
3341.53782	0.92123
3339.48402	0.92127
3337.43021	0.92115
3335.37641	0.92102
3333.32261	0.92103
3331.26881	0.92112
3329.21500	0.92106
3327.16120	0.92122
3325.10740	0.92170
3323.05359	0.92203
3320.99979	0.92219
3318.94599	0.92222
3316.89218	0.92205
3314.83838	0.92220
3312.78458	0.92284
3310.73077	0.92331
3308.67697	0.92351
3306.62317	0.92354
3304.56936	0.92325
3302.51556	0.92314
3300.46176	0.92344
3298.40795	0.92359
3296.35415	0.92358
3294.30035	0.92391
3292.24654	0.92464
3290.19274	0.92521
3288.13894	0.92529
3286.08513	0.92538
3284.03133	0.92580
3281.97753	0.92625
3279.92372	0.92648
3277.86992	0.92623
3275.81612	0.92583
3273.76232	0.92572
3271.70851	0.92600
3269.65471	0.92661
3267.60091	0.92693
3265.54710	0.92675
3263.49330	0.92688
3261.43950	0.92741
3259.38569	0.92742
3257.33189	0.92711
3255.27809	0.92741
3253.22428	0.92829
3251.17048	0.92910
3249.11668	0.92934
3247.06287	0.92935
3245.00907	0.92979
3242.95527	0.93063
3240.90146	0.93135
3238.84766	0.93141
3236.79386	0.93104
3234.74005	0.93120
3232.68625	0.93170
3230.63245	0.93175
3228.57864	0.93173
3226.52484	0.93244
3224.47104	0.93340
3222.41724	0.93341
3220.36343	0.93286
3218.30963	0.93272
3216.25583	0.93317
3214.20202	0.93405
3212.14822	0.93461
3210.09442	0.93458
3208.04061	0.93462
3205.98681	0.93494
3203.93301	0.93535
3201.87920	0.93580
3199.82540	0.93624
3197.77160	0.93654
3195.71779	0.93685
3193.66399	0.93742
3191.61019	0.93801
3189.55638	0.93800
3187.50258	0.93762
3185.44878	0.93771
3183.39497	0.93831
3181.34117	0.93878
3179.28737	0.93894
3177.23356	0.93920
3175.17976	0.93970
3173.12596	0.94029
3171.07215	0.94066
3169.01835	0.94081
3166.96455	0.94093
3164.91075	0.94097
3162.85694	0.94116
3160.80314	0.94171
3158.74934	0.94222
3156.69553	0.94224
3154.64173	0.94225
3152.58793	0.94302
3150.53412	0.94396
3148.48032	0.94432
3146.42652	0.94434
3144.37271	0.94434
3142.31891	0.94449
3140.26511	0.94476
3138.21130	0.94485
3136.15750	0.94488
3134.10370	0.94537
3132.04989	0.94622
3129.99609	0.94693
3127.94229	0.94740
3125.88848	0.94778
3123.83468	0.94798
3121.78088	0.94805
3119.72707	0.94827
3117.67327	0.94876
3115.61947	0.94934
3113.56566	0.94959
3111.51186	0.94930
3109.45806	0.94886
3107.40426	0.94888
3105.35045	0.94926
3103.29665	0.94951
3101.24285	0.94980
3099.18904	0.95014
3097.13524	0.94995
3095.08144	0.94957
3093.02763	0.94970
3090.97383	0.95000
3088.92003	0.95026
3086.86622	0.95063
3084.81242	0.95086
3082.75862	0.95087
3080.70481	0.95088
3078.65101	0.95091
3076.59721	0.95110
3074.54340	0.95142
3072.48960	0.95180
3070.43580	0.95225
3068.38199	0.95250
3066.32819	0.95270
3064.27439	0.95335
3062.22058	0.95407
3060.16678	0.95405
3058.11298	0.95369
3056.05918	0.95374
3054.00537	0.95392
3051.95157	0.95397
3049.89777	0.95415
3047.84396	0.95469
3045.79016	0.95529
3043.73636	0.95547
3041.68255	0.95514
3039.62875	0.95458
3037.57495	0.95441
3035.52114	0.95489
3033.46734	0.95547
3031.41354	0.95556
3029.35973	0.95534
3027.30593	0.95528
3025.25213	0.95559
3023.19832	0.95609
3021.14452	0.95635
3019.09072	0.95632
3017.03691	0.95648
3014.98311	0.95706
3012.92931	0.95769
3010.87550	0.95776
3008.82170	0.95741
3006.76790	0.95721
3004.71409	0.95711
3002.66029	0.95718
3000.60649	0.95751
2998.55269	0.95771
2996.49888	0.95776
2994.44508	0.95800
2992.39128	0.95828
2990.33747	0.95812
2988.28367	0.95774
2986.22987	0.95769
2984.17606	0.95760
2982.12226	0.95694
2980.06846	0.95614
2978.01465	0.95554
2975.96085	0.95487
2973.90705	0.95407
2971.85324	0.95292
2969.79944	0.95148
2967.74564	0.95023
2965.69183	0.94869
2963.63803	0.94655
2961.58423	0.94435
2959.53042	0.94218
2957.47662	0.93987
2955.42282	0.93765
2953.36901	0.93528
2951.31521	0.93247
2949.26141	0.92929
2947.20761	0.92547
2945.15380	0.92080
2943.10000	0.91508
2941.04620	0.90797
2938.99239	0.89913
2936.93859	0.88875
2934.88479	0.87719
2932.83098	0.86419
2930.77718	0.84943
2928.72338	0.83259
2926.66957	0.81336
2924.61577	0.79160
2922.56197	0.76737
2920.50816	0.74215
2918.45436	0.72106
2916.40056	0.71135
2914.34675	0.71712
2912.29295	0.73533
2910.23915	0.75820
2908.18534	0.77987
2906.13154	0.79824
2904.07774	0.81296
2902.02393	0.82442
2899.97013	0.83369
2897.91633	0.84196
2895.86252	0.84979
2893.80872	0.85737
2891.75492	0.86489
2889.70112	0.87216
2887.64731	0.87910
2885.59351	0.88602
2883.53971	0.89242
2881.48590	0.89790
2879.43210	0.90286
2877.37830	0.90750
2875.32449	0.91139
2873.27069	0.91384
2871.21689	0.91471
2869.16308	0.91446
2867.10928	0.91288
2865.05548	0.90875
2863.00167	0.90149
2860.94787	0.89102
2858.89407	0.87655
2856.84026	0.85635
2854.78646	0.82850
2852.73266	0.79426
2850.67885	0.76235
2848.62505	0.74722
2846.57125	0.75706
2844.51744	0.78493
2842.46364	0.81736
2840.40984	0.84629
2838.35603	0.86970
2836.30223	0.88757
2834.24843	0.90055
2832.19463	0.90988
2830.14082	0.91691
2828.08702	0.92245
2826.03322	0.92674
2823.97941	0.93012
2821.92561	0.93292
2819.87181	0.93514
2817.81800	0.93688
2815.76420	0.93856
2813.71040	0.94043
2811.65659	0.94203
2809.60279	0.94315
2807.54899	0.94410
2805.49518	0.94504
2803.44138	0.94612
2801.38758	0.94712
2799.33377	0.94775
2797.27997	0.94817
2795.22617	0.94860
2793.17236	0.94929
2791.11856	0.95007
2789.06476	0.95067
2787.01095	0.95119
2784.95715	0.95162
2782.90335	0.95207
2780.84955	0.95274
2778.79574	0.95343
2776.74194	0.95396
2774.68814	0.95429
2772.63433	0.95457
2770.58053	0.95508
2768.52673	0.95564
2766.47292	0.95584
2764.41912	0.95587
2762.36532	0.95591
2760.31151	0.95596
2758.25771	0.95608
2756.20391	0.95591
2754.15010	0.95573
2752.09630	0.95601
2750.04250	0.95644
2747.98869	0.95691
2745.93489	0.95751
2743.88109	0.95792
2741.82728	0.95768
2739.77348	0.95719
2737.71968	0.95726
2735.66587	0.95769
2733.61207	0.95802
2731.55827	0.95825
2729.50446	0.95832
2727.45066	0.95822
2725.39686	0.95825
2723.34306	0.95848
2721.28925	0.95872
2719.23545	0.95896
2717.18165	0.95932
2715.12784	0.95960
2713.07404	0.95952
2711.02024	0.95936
2708.96643	0.95960
2706.91263	0.95990
2704.85883	0.95984
2702.80502	0.95959
2700.75122	0.95946
2698.69742	0.95962
2696.64361	0.96013
2694.58981	0.96047
2692.53601	0.96018
2690.48220	0.95993
2688.42840	0.96015
2686.37460	0.96038
2684.32079	0.96054
2682.26699	0.96079
2680.21319	0.96068
2678.15938	0.96025
2676.10558	0.96037
2674.05178	0.96099
2671.99797	0.96116
2669.94417	0.96103
2667.89037	0.96107
2665.83657	0.96120
2663.78276	0.96131
2661.72896	0.96132
2659.67516	0.96126
2657.62135	0.96126
2655.56755	0.96113
2653.51375	0.96084
2651.45994	0.96085
2649.40614	0.96117
2647.35234	0.96130
2645.29853	0.96146
2643.24473	0.96179
2641.19093	0.96189
2639.13712	0.96179
2637.08332	0.96168
2635.02952	0.96175
2632.97571	0.96204
2630.92191	0.96232
2628.86811	0.96253
2626.81430	0.96293
2624.76050	0.96344
2622.70670	0.96336
2620.65289	0.96279
2618.59909	0.96257
2616.54529	0.96285
2614.49149	0.96333
2612.43768	0.96369
2610.38388	0.96389
2608.33008	0.96409
2606.27627	0.96410
2604.22247	0.96413
2602.16867	0.96417
2600.11486	0.96387
2598.06106	0.96364
2596.00726	0.96393
2593.95345	0.96433
2591.89965	0.96462
2589.84585	0.96466
2587.79204	0.96437
2585.73824	0.96458
2583.68444	0.96540
2581.63063	0.96611
2579.57683	0.96614
2577.52303	0.96562
2575.46922	0.96506
2573.41542	0.96486
2571.36162	0.96534
2569.30781	0.96581
2567.25401	0.96584
2565.20021	0.96593
2563.14640	0.96611
2561.09260	0.96597
2559.03880	0.96567
2556.98500	0.96567
2554.93119	0.96576
2552.87739	0.96560
2550.82359	0.96549
2548.76978	0.96551
2546.71598	0.96525
2544.66218	0.96509
2542.60837	0.96533
2540.55457	0.96553
2538.50077	0.96548
2536.44696	0.96565
2534.39316	0.96620
2532.33936	0.96648
2530.28555	0.96653
2528.23175	0.96670
2526.17795	0.96656
2524.12414	0.96639
2522.07034	0.96698
2520.01654	0.96765
2517.96273	0.96740
2515.90893	0.96676
2513.85513	0.96669
2511.80132	0.96724
2509.74752	0.96754
2507.69372	0.96748
2505.63992	0.96810
2503.58611	0.96889
2501.53231	0.96879
2499.47851	0.96809
2497.42470	0.96731
2495.37090	0.96685
2493.31710	0.96707
2491.26329	0.96769
2489.20949	0.96805
2487.15569	0.96811
2485.10188	0.96839
2483.04808	0.96871
2480.99428	0.96846
2478.94047	0.96838
2476.88667	0.96873
2474.83287	0.96871
2472.77906	0.96850
2470.72526	0.96842
2468.67146	0.96826
2466.61765	0.96795
2464.56385	0.96748
2462.51005	0.96736
2460.45624	0.96768
2458.40244	0.96764
2456.34864	0.96736
2454.29483	0.96729
2452.24103	0.96737
2450.18723	0.96767
2448.13343	0.96815
2446.07962	0.96825
2444.02582	0.96787
2441.97202	0.96792
2439.91821	0.96857
2437.86441	0.96859
2435.81061	0.96792
2433.75680	0.96784
2431.70300	0.96816
2429.64920	0.96811
2427.59539	0.96823
2425.54159	0.96892
2423.48779	0.96942
2421.43398	0.96892
2419.38018	0.96794
2417.32638	0.96772
2415.27257	0.96812
2413.21877	0.96820
2411.16497	0.96783
2409.11116	0.96757
2407.05736	0.96773
2405.00356	0.96805
2402.94975	0.96856
2400.89595	0.96911
2398.84215	0.96928
2396.78834	0.96932
2394.73454	0.96918
2392.68074	0.96899
2390.62694	0.96910
2388.57313	0.96926
2386.51933	0.96933
2384.46553	0.96930
2382.41172	0.96903
2380.35792	0.96854
2378.30412	0.96834
2376.25031	0.96898
2374.19651	0.96970
2372.14271	0.96959
2370.08890	0.96892
2368.03510	0.96806
2365.98130	0.96772
2363.92749	0.96780
2361.87369	0.96665
2359.81989	0.96544
2357.76608	0.96650
2355.71228	0.96823
2353.65848	0.96859
2351.60467	0.96847
2349.55087	0.96851
2347.49707	0.96801
2345.44326	0.96764
2343.38946	0.96853
2341.33566	0.96982
2339.28186	0.97043
2337.22805	0.97028
2335.17425	0.96976
2333.12045	0.96916
2331.06664	0.96848
2329.01284	0.96778
2326.95904	0.96726
2324.90523	0.96721
2322.85143	0.96788
2320.79763	0.96900
2318.74382	0.96960
2316.69002	0.96935
2314.63622	0.96883
2312.58241	0.96863
2310.52861	0.96903
2308.47481	0.96961
2306.42100	0.96931
2304.36720	0.96866
2302.31340	0.96871
2300.25959	0.96871
2298.20579	0.96846
2296.15199	0.96835
2294.09818	0.96795
2292.04438	0.96755
2289.99058	0.96750
2287.93677	0.96744
2285.88297	0.96759
2283.82917	0.96810
2281.77537	0.96869
2279.72156	0.96909
2277.66776	0.96931
2275.61396	0.96941
2273.56015	0.96889
2271.50635	0.96851
2269.45255	0.96931
2267.39874	0.97039
2265.34494	0.97046
2263.29114	0.97058
2261.23733	0.97172
2259.18353	0.97222
2257.12973	0.97156
2255.07592	0.97042
2253.02212	0.96938
2250.96832	0.96903
2248.91451	0.96880
2246.86071	0.96856
2244.80691	0.96893
2242.75310	0.96932
2240.69930	0.96923
2238.64550	0.96907
2236.59169	0.96840
2234.53789	0.96703
2232.48409	0.96689
2230.43029	0.96912
2228.37648	0.97158
2226.32268	0.97192
2224.26888	0.97138
2222.21507	0.97126
2220.16127	0.97059
2218.10747	0.97015
2216.05366	0.97149
2213.99986	0.97376
2211.94606	0.97477
2209.89225	0.97407
2207.83845	0.97312
2205.78465	0.97252
2203.73084	0.97244
2201.67704	0.97245
2199.62324	0.97189
2197.56943	0.97232
2195.51563	0.97402
2193.46183	0.97371
2191.40802	0.97185
2189.35422	0.97191
2187.30042	0.97219
2185.24661	0.97050
2183.19281	0.96888
2181.13901	0.96875
2179.08520	0.96961
2177.03140	0.97030
2174.97760	0.97069
2172.92380	0.97099
2170.86999	0.96977
2168.81619	0.96892
2166.76239	0.97074
2164.70858	0.97182
2162.65478	0.97067
2160.60098	0.97053
2158.54717	0.97257
2156.49337	0.97444
2154.43957	0.97423
2152.38576	0.97434
2150.33196	0.97612
2148.27816	0.97566
2146.22435	0.97266
2144.17055	0.97129
2142.11675	0.97203
2140.06294	0.97316
2138.00914	0.97349
2135.95534	0.97333
2133.90153	0.97449
2131.84773	0.97554
2129.79393	0.97416
2127.74012	0.97187
2125.68632	0.97100
2123.63252	0.97126
2121.57871	0.97112
2119.52491	0.97090
2117.47111	0.97142
2115.41731	0.97249
2113.36350	0.97356
2111.30970	0.97348
2109.25590	0.97206
2107.20209	0.97087
2105.14829	0.97089
2103.09449	0.97158
2101.04068	0.97192
2098.98688	0.97176
2096.93308	0.97144
2094.87927	0.97089
2092.82547	0.97072
2090.77167	0.97128
2088.71786	0.97223
2086.66406	0.97302
2084.61026	0.97231
2082.55645	0.97106
2080.50265	0.97167
2078.44885	0.97303
2076.39504	0.97297
2074.34124	0.97234
2072.28744	0.97227
2070.23363	0.97245
2068.17983	0.97278
2066.12603	0.97331
2064.07223	0.97325
2062.01842	0.97269
2059.96462	0.97280
2057.91082	0.97324
2055.85701	0.97358
2053.80321	0.97372
2051.74941	0.97304
2049.69560	0.97261
2047.64180	0.97357
2045.58800	0.97485
2043.53419	0.97531
2041.48039	0.97424
2039.42659	0.97222
2037.37278	0.97138
2035.31898	0.97286
2033.26518	0.97585
2031.21137	0.97852
2029.15757	0.97922
2027.10377	0.97799
2025.04996	0.97603
2022.99616	0.97406
2020.94236	0.97313
2018.88855	0.97294
2016.83475	0.97224
2014.78095	0.97178
2012.72714	0.97288
2010.67334	0.97524
2008.61954	0.97670
2006.56574	0.97651
2004.51193	0.97599
2002.45813	0.97526
2000.40433	0.97400
1998.35052	0.97352
1996.29672	0.97478
1994.24292	0.97569
1992.18911	0.97443
1990.13531	0.97189
1988.08151	0.97091
1986.02770	0.97290
1983.97390	0.97540
1981.92010	0.97563
1979.86629	0.97357
1977.81249	0.97227
1975.75869	0.97408
1973.70488	0.97577
1971.65108	0.97411
1969.59728	0.97145
1967.54347	0.97096
1965.48967	0.97253
1963.43587	0.97444
1961.38206	0.97552
1959.32826	0.97576
1957.27446	0.97603
1955.22066	0.97677
1953.16685	0.97732
1951.11305	0.97699
1949.05925	0.97599
1947.00544	0.97526
1944.95164	0.97548
1942.89784	0.97603
1940.84403	0.97566
1938.79023	0.97429
1936.73643	0.97285
1934.68262	0.97292
1932.62882	0.97419
1930.57502	0.97387
1928.52121	0.97248
1926.46741	0.97267
1924.41361	0.97411
1922.35980	0.97458
1920.30600	0.97354
1918.25220	0.97260
1916.19839	0.97264
1914.14459	0.97348
1912.09079	0.97470
1910.03698	0.97507
1907.98318	0.97382
1905.92938	0.97193
1903.87557	0.97063
1901.82177	0.97050
1899.76797	0.97131
1897.71417	0.97228
1895.66036	0.97240
1893.60656	0.97182
1891.55276	0.97178
1889.49895	0.97215
1887.44515	0.97203
1885.39135	0.97142
1883.33754	0.97052
1881.28374	0.96982
1879.22994	0.97001
1877.17613	0.97045
1875.12233	0.97054
1873.06853	0.97081
1871.01472	0.97114
1868.96092	0.97098
1866.90712	0.97121
1864.85331	0.97168
1862.79951	0.97166
1860.74571	0.97164
1858.69190	0.97198
1856.63810	0.97215
1854.58430	0.97148
1852.53049	0.97080
1850.47669	0.97100
1848.42289	0.97170
1846.36908	0.97240
1844.31528	0.97279
1842.26148	0.97259
1840.20768	0.97228
1838.15387	0.97205
1836.10007	0.97174
1834.04627	0.97160
1831.99246	0.97133
1829.93866	0.97035
1827.88486	0.96940
1825.83105	0.96944
1823.77725	0.97012
1821.72345	0.97063
1819.66964	0.97071
1817.61584	0.97083
1815.56204	0.97142
1813.50823	0.97170
1811.45443	0.97129
1809.40063	0.97095
1807.34682	0.97079
1805.29302	0.97033
1803.23922	0.96997
1801.18541	0.96991
1799.13161	0.96979
1797.07781	0.96967
1795.02400	0.96974
1792.97020	0.96985
1790.91640	0.96939
1788.86260	0.96845
1786.80879	0.96793
1784.75499	0.96808
1782.70119	0.96806
1780.64738	0.96768
1778.59358	0.96761
1776.53978	0.96793
1774.48597	0.96811
1772.43217	0.96817
1770.37837	0.96815
1768.32456	0.96756
1766.27076	0.96678
1764.21696	0.96625
1762.16315	0.96544
1760.10935	0.96446
1758.05555	0.96378
1756.00174	0.96252
1753.94794	0.95999
1751.89414	0.95515
1749.84033	0.94548
1747.78653	0.92935
1745.73273	0.90732
1743.67892	0.88085
1741.62512	0.85577
1739.57132	0.83894
1737.51751	0.83359
1735.46371	0.83931
1733.40991	0.85645
1731.35611	0.87453
1729.30230	0.88884
1727.24850	0.90078
1725.19470	0.90924
1723.14089	0.91527
1721.08709	0.91933
1719.03329	0.92204
1716.97948	0.92442
1714.92568	0.92670
1712.87188	0.92872
1710.81807	0.93070
1708.76427	0.93239
1706.71047	0.93378
1704.65666	0.93516
1702.60286	0.93648
1700.54906	0.93775
1698.49525	0.93871
1696.44145	0.93893
1694.38765	0.93818
1692.33384	0.93707
1690.28004	0.93628
1688.22624	0.93576
1686.17243	0.93525
1684.11863	0.93429
1682.06483	0.93286
1680.01103	0.93168
1677.95722	0.93071
1675.90342	0.92955
1673.84962	0.92819
1671.79581	0.92716
1669.74201	0.92608
1667.68821	0.92466
1665.63440	0.92335
1663.58060	0.92194
1661.52680	0.92041
1659.47299	0.91946
1657.41919	0.91915
1655.36539	0.91896
1653.31158	0.91861
1651.25778	0.91834
1649.20398	0.91831
1647.15017	0.91841
1645.09637	0.91832
1643.04257	0.91805
1640.98876	0.91810
1638.93496	0.91891
1636.88116	0.92002
1634.82735	0.91987
1632.77355	0.91907
1630.71975	0.91900
1628.66594	0.91951
1626.61214	0.92006
1624.55834	0.92051
1622.50454	0.92116
1620.45073	0.92197
1618.39693	0.92317
1616.34313	0.92522
1614.28932	0.92739
1612.23552	0.92905
1610.18172	0.93039
1608.12791	0.93157
1606.07411	0.93278
1604.02031	0.93381
1601.96650	0.93450
1599.91270	0.93519
1597.85890	0.93592
1595.80509	0.93674
1593.75129	0.93778
1591.69749	0.93867
1589.64368	0.93907
1587.58988	0.93922
1585.53608	0.93949
1583.48227	0.93977
1581.42847	0.93982
1579.37467	0.93980
1577.32086	0.93983
1575.26706	0.93977
1573.21326	0.93974
1571.15945	0.93979
1569.10565	0.93973
1567.05185	0.93952
1564.99805	0.93930
1562.94424	0.93927
1560.89044	0.93965
1558.83664	0.93997
1556.78283	0.93930
1554.72903	0.93870
1552.67523	0.93843
1550.62142	0.93835
1548.56762	0.93834
1546.51382	0.93855
1544.46001	0.93926
1542.40621	0.94030
1540.35241	0.94118
1538.29860	0.94097
1536.24480	0.94029
1534.19100	0.94012
1532.13719	0.94053
1530.08339	0.94091
1528.02959	0.94134
1525.97578	0.94188
1523.92198	0.94219
1521.86818	0.94214
1519.81437	0.94178
1517.76057	0.94162
1515.70677	0.94144
1513.65297	0.94104
1511.59916	0.94095
1509.54536	0.94114
1507.49156	0.94062
1505.43775	0.93930
1503.38395	0.93887
1501.33015	0.93909
1499.27634	0.93936
1497.22254	0.93932
1495.16874	0.93893
1493.11493	0.93836
1491.06113	0.93769
1489.00733	0.93712
1486.95352	0.93670
1484.89972	0.93602
1482.84592	0.93489
1480.79211	0.93311
1478.73831	0.92952
1476.68451	0.92035
1474.63070	0.90128
1472.57690	0.87616
1470.52310	0.86091
1468.46929	0.85620
1466.41549	0.85412
1464.36169	0.85477
1462.30788	0.86055
1460.25408	0.86921
1458.20028	0.87819
1456.14648	0.88537
1454.09267	0.88994
1452.03887	0.89347
1449.98507	0.89645
1447.93126	0.89900
1445.87746	0.90059
1443.82366	0.90102
1441.76985	0.90114
1439.71605	0.90139
1437.66225	0.90191
1435.60844	0.90270
1433.55464	0.90357
1431.50084	0.90465
1429.44703	0.90605
1427.39323	0.90760
1425.33943	0.90936
1423.28562	0.91117
1421.23182	0.91278
1419.17802	0.91449
1417.12421	0.91627
1415.07041	0.91799
1413.01661	0.91972
1410.96280	0.92121
1408.90900	0.92270
1406.85520	0.92452
1404.80139	0.92660
1402.74759	0.92860
1400.69379	0.93029
1398.63999	0.93185
1396.58618	0.93318
1394.53238	0.93396
1392.47858	0.93411
1390.42477	0.93383
1388.37097	0.93284
1386.31717	0.93070
1384.26336	0.92764
1382.20956	0.92350
1380.15576	0.91821
1378.10195	0.91272
1376.04815	0.90745
1373.99435	0.90227
1371.94054	0.89899
1369.88674	0.89909
1367.83294	0.90191
1365.77913	0.90615
1363.72533	0.91119
1361.67153	0.91631
1359.61772	0.92004
1357.56392	0.92271
1355.51012	0.92523
1353.45631	0.92755
1351.40251	0.92959
1349.34871	0.93201
1347.29491	0.93490
1345.24110	0.93751
1343.18730	0.93932
1341.13350	0.94033
1339.07969	0.94110
1337.02589	0.94211
1334.97209	0.94310
1332.91828	0.94385
1330.86448	0.94428
1328.81068	0.94405
1326.75687	0.94351
1324.70307	0.94323
1322.64927	0.94299
1320.59546	0.94255
1318.54166	0.94222
1316.48786	0.94197
1314.43405	0.94141
1312.38025	0.94097
1310.32645	0.94087
1308.27264	0.94054
1306.21884	0.94002
1304.16504	0.93964
1302.11123	0.93928
1300.05743	0.93890
1298.00363	0.93852
1295.94982	0.93818
1293.89602	0.93789
1291.84222	0.93732
1289.78842	0.93620
1287.73461	0.93487
1285.68081	0.93344
1283.62701	0.93157
1281.57320	0.92959
1279.51940	0.92787
1277.46560	0.92576
1275.41179	0.92270
1273.35799	0.91908
1271.30419	0.91562
1269.25038	0.91220
1267.19658	0.90830
1265.14278	0.90363
1263.08897	0.89803
1261.03517	0.89160
1258.98137	0.88449
1256.92756	0.87655
1254.87376	0.86725
1252.81996	0.85630
1250.76615	0.84395
1248.71235	0.83035
1246.65855	0.81592
1244.60474	0.80173
1242.55094	0.78914
1240.49714	0.77980
1238.44334	0.77533
1236.38953	0.77656
1234.33573	0.78319
1232.28193	0.79398
1230.22812	0.80714
1228.17432	0.82086
1226.12052	0.83320
1224.06671	0.84299
1222.01291	0.85025
1219.95911	0.85525
1217.90530	0.85853
1215.85150	0.86086
1213.79770	0.86258
1211.74389	0.86343
1209.69009	0.86337
1207.63629	0.86295
1205.58248	0.86229
1203.52868	0.86095
1201.47488	0.85889
1199.42107	0.85653
1197.36727	0.85399
1195.31347	0.85133
1193.25966	0.84838
1191.20586	0.84477
1189.15206	0.84052
1187.09825	0.83596
1185.04445	0.83149
1182.99065	0.82718
1180.93685	0.82269
1178.88304	0.81810
1176.82924	0.81360
1174.77544	0.80911
1172.72163	0.80479
1170.66783	0.80044
1168.61403	0.79578
1166.56022	0.79124
1164.50642	0.78743
1162.45262	0.78469
1160.39881	0.78307
1158.34501	0.78182
1156.29121	0.77981
1154.23740	0.77696
1152.18360	0.77395
1150.12980	0.77091
1148.07599	0.76799
1146.02219	0.76541
1143.96839	0.76285
1141.91458	0.76018
1139.86078	0.75735
1137.80698	0.75417
1135.75317	0.75082
1133.69937	0.74722
1131.64557	0.74334
1129.59176	0.73931
1127.53796	0.73497
1125.48416	0.73021
1123.43036	0.72491
1121.37655	0.71917
1119.32275	0.71310
1117.26895	0.70661
1115.21514	0.69983
1113.16134	0.69309
1111.10754	0.68665
1109.05373	0.68068
1106.99993	0.67497
1104.94613	0.66935
1102.89232	0.66390
1100.83852	0.65878
1098.78472	0.65427
1096.73091	0.65027
1094.67711	0.64655
1092.62331	0.64327
1090.56950	0.64055
1088.51570	0.63800
1086.46190	0.63517
1084.40809	0.63227
1082.35429	0.62991
1080.30049	0.62799
1078.24668	0.62581
1076.19288	0.62326
1074.13908	0.62075
1072.08528	0.61821
1070.03147	0.61499
1067.97767	0.61064
1065.92387	0.60566
1063.87006	0.60090
1061.81626	0.59646
1059.76246	0.59167
1057.70865	0.58627
1055.65485	0.58049
1053.60105	0.57407
1051.54724	0.56704
1049.49344	0.55937
1047.43964	0.55047
1045.38583	0.54066
1043.33203	0.53095
1041.27823	0.52136
1039.22442	0.51121
1037.17062	0.50084
1035.11682	0.49137
1033.06301	0.48292
1031.00921	0.47533
1028.95541	0.46872
1026.90160	0.46233
1024.84780	0.45544
1022.79400	0.44853
1020.74019	0.44242
1018.68639	0.43766
1016.63259	0.43459
1014.57879	0.43335
1012.52498	0.43354
1010.47118	0.43436
1008.41738	0.43519
1006.36357	0.43624
1004.30977	0.43817
1002.25597	0.44116
1000.20216	0.44466
998.14836	0.44840
996.09456	0.45276
994.04075	0.45800
991.98695	0.46415
989.93315	0.47112
987.87934	0.47871
985.82554	0.48690
983.77174	0.49623
981.71793	0.50709
979.66413	0.51914
977.61033	0.53202
975.55652	0.54554
973.50272	0.55936
971.44892	0.57334
969.39511	0.58739
967.34131	0.60084
965.28751	0.61338
963.23371	0.62536
961.17990	0.63672
959.12610	0.64689
957.07230	0.65575
955.01849	0.66390
952.96469	0.67184
950.91089	0.67950
948.85708	0.68626
946.80328	0.69154
944.74948	0.69612
942.69567	0.70089
940.64187	0.70552
938.58807	0.70993
936.53426	0.71435
934.48046	0.71882
932.42666	0.72391
930.37285	0.72964
928.31905	0.73515
926.26525	0.74004
924.21144	0.74430
922.15764	0.74762
920.10384	0.74978
918.05003	0.75089
915.99623	0.75153
913.94243	0.75264
911.88862	0.75502
909.83482	0.75911
907.78102	0.76497
905.72722	0.77204
903.67341	0.77969
901.61961	0.78738
899.56581	0.79460
897.51200	0.80138
895.45820	0.80795
893.40440	0.81361
891.35059	0.81780
889.29679	0.82130
887.24299	0.82468
885.18918	0.82712
883.13538	0.82793
881.08158	0.82775
879.02777	0.82739
876.97397	0.82796
874.92017	0.83097
872.86636	0.83647
870.81256	0.84277
868.75876	0.84823
866.70495	0.85217
864.65115	0.85436
862.59735	0.85527
860.54354	0.85675
858.48974	0.85956
856.43594	0.86219
854.38213	0.86375
852.32833	0.86485
850.27453	0.86586
848.22073	0.86683
846.16692	0.86775
844.11312	0.86798
842.05932	0.86683
840.00551	0.86463
837.95171	0.86215
835.89791	0.85982
833.84410	0.85738
831.79030	0.85476
829.73650	0.85239
827.68269	0.85108
825.62889	0.85128
823.57509	0.85220
821.52128	0.85327
819.46748	0.85419
817.41368	0.85455
815.35987	0.85421
813.30607	0.85248
811.25227	0.84839
809.19846	0.84229
807.14466	0.83470
805.09086	0.82571
803.03705	0.81612
800.98325	0.80787
798.92945	0.80349
796.87565	0.80380
794.82184	0.80700
792.76804	0.81058
790.71424	0.81268
788.66043	0.81305
786.60663	0.81233
784.55283	0.81058
782.49902	0.80762
780.44522	0.80511
778.39142	0.80564
776.33761	0.80901
774.28381	0.81281
772.23001	0.81524
770.17620	0.81594
768.12240	0.81506
766.06860	0.81278
764.01479	0.81012
761.96099	0.80844
759.90719	0.80780
757.85338	0.80751
755.79958	0.80733
753.74578	0.80748
751.69197	0.80789
749.63817	0.80799
747.58437	0.80752
745.53056	0.80715
743.47676	0.80804
741.42296	0.81002
739.36916	0.81184
737.31535	0.81297
735.26155	0.81161
733.20775	0.80363
731.15394	0.78946
729.10014	0.77721
727.04634	0.77077
724.99253	0.76377
722.93873	0.74978
720.88493	0.73187
718.83112	0.72333
716.77732	0.73333
714.72352	0.75505
712.66971	0.77533
710.61591	0.78760
708.56211	0.79339
706.50830	0.79575
704.45450	0.79644
702.40070	0.79637
700.34689	0.79541
698.29309	0.79318
696.23929	0.79049
694.18548	0.78938
692.13168	0.79112
690.07788	0.79421
688.02408	0.79577
685.97027	0.79551
683.91647	0.79532
681.86267	0.79549
679.80886	0.79547
677.75506	0.79503
675.70126	0.79368
673.64745	0.79276
671.59365	0.79348
669.53985	0.79331
667.48604	0.79041
665.43224	0.78822
663.37844	0.78713
661.32463	0.78606
659.27083	0.78427
657.21703	0.78132
655.16322	0.77763
653.10942	0.77273
651.05562	0.76730
649.00181	0.76420
646.94801	0.76375
644.89421	0.76431
642.84040	0.76578
640.78660	0.76805
638.73280	0.76999
636.67899	0.77119
634.62519	0.77238
632.57139	0.77352
630.51759	0.77410
628.46378	0.77401
626.40998	0.77265
624.35618	0.77050
622.30237	0.76853
620.24857	0.76603
618.19477	0.76152
616.14096	0.75485
614.08716	0.74719
612.03336	0.73878
609.97955	0.73116
607.92575	0.72690
605.87195	0.72510
603.81814	0.72292
601.76434	0.72033
599.71054	0.71908
597.65673	0.71823
595.60293	0.71611
593.54913	0.71341
591.49532	0.71116
589.44152	0.70917
587.38772	0.70764
585.33391	0.70711
583.28011	0.70684
581.22631	0.70576
579.17250	0.70385
577.11870	0.70285
575.06490	0.70281
573.01110	0.70171
570.95729	0.69982
568.90349	0.69736
566.84969	0.69284
564.79588	0.68691
562.74208	0.68172
560.68828	0.67692
558.63447	0.67126
556.58067	0.66477
554.52687	0.65820
552.47306	0.65255
550.41926	0.64841
548.36546	0.64359
546.31165	0.63574
544.25785	0.62693
542.20405	0.61810
540.15024	0.60781
538.09644	0.59786
536.04264	0.59091
533.98883	0.58525
531.93503	0.57956
529.88123	0.57690
527.82742	0.57765
525.77362	0.57947
523.71982	0.58302
521.66602	0.58740
519.61221	0.59086
517.55841	0.59526
515.50461	0.60055
513.45080	0.60436
511.39700	0.60748
509.34320	0.61272
507.28939	0.61893
505.23559	0.62194
503.18179	0.62115
501.12798	0.61896
499.07418	0.61805
497.02038	0.61678
494.96657	0.61214
492.91277	0.60674
490.85897	0.60135
488.80516	0.59029
486.75136	0.57525
484.69756	0.56052
482.64375	0.54453
480.58995	0.52762
478.53615	0.51116
476.48234	0.49531
474.42854	0.47988
472.37474	0.46546
470.32093	0.45466
468.26713	0.44825
466.21333	0.44568
464.15953	0.44741
462.10572	0.45282
460.05192	0.46045
457.99812	0.47100
455.94431	0.48383
453.89051	0.49685
451.83671	0.50793
449.78290	0.51494
447.72910	0.51917
445.67530	0.52151
443.62149	0.52262
441.56769	0.52421
439.51389	0.52658
437.46008	0.52578
435.40628	0.52066
433.35248	0.51558
431.29867	0.51127
429.24487	0.50736
427.19107	0.50696
425.13726	0.51187
423.08346	0.51997
421.02966	0.52837
418.97585	0.53697
416.92205	0.54326
414.86825	0.54653
412.81445	0.55198
410.76064	0.56132
408.70684	0.57149
406.65304	0.57862
404.59923	0.57967
402.54543	0.57596
400.49163	0.56996
398.43782	0.56395
