3996.70104	0.97279
3994.64724	0.97252
3992.59344	0.97252
3990.53964	0.97257
3988.48583	0.97289
3986.43203	0.97325
3984.37823	0.97320
3982.32442	0.97290
3980.27062	0.97278
3978.21682	0.97287
3976.16301	0.97295
3974.10921	0.97332
3972.05541	0.97381
3970.00160	0.97356
3967.94780	0.97294
3965.89400	0.97297
3963.84019	0.97342
3961.78639	0.97375
3959.73259	0.97375
3957.67878	0.97327
3955.62498	0.97288
3953.57118	0.97299
3951.51737	0.97330
3949.46357	0.97341
3947.40977	0.97317
3945.35596	0.97327
3943.30216	0.97364
3941.24836	0.97346
3939.19455	0.97313
3937.14075	0.97335
3935.08695	0.97377
3933.03315	0.97380
3930.97934	0.97348
3928.92554	0.97334
3926.87174	0.97351
3924.81793	0.97349
3922.76413	0.97309
3920.71033	0.97271
3918.65652	0.97265
3916.60272	0.97315
3914.54892	0.97377
3912.49511	0.97380
3910.44131	0.97356
3908.38751	0.97371
3906.33370	0.97421
3904.27990	0.97425
3902.22610	0.97319
3900.17229	0.97206
3898.11849	0.97223
3896.06469	0.97304
3894.01088	0.97337
3891.95708	0.97340
3889.90328	0.97325
3887.84947	0.97289
3885.79567	0.97274
3883.74187	0.97282
3881.68807	0.97321
3879.63426	0.97400
3877.58046	0.97414
3875.52666	0.97351
3873.47285	0.97316
3871.41905	0.97359
3869.36525	0.97417
3867.31144	0.97396
3865.25764	0.97336
3863.20384	0.97343
3861.15003	0.97390
3859.09623	0.97369
3857.04243	0.97293
3854.98862	0.97277
3852.93482	0.97417
3850.88102	0.97520
3848.82721	0.97510
3846.77341	0.97482
3844.71961	0.97457
3842.66580	0.97448
3840.61200	0.97453
3838.55820	0.97436
3836.50439	0.97425
3834.45059	0.97407
3832.39679	0.97385
3830.34298	0.97379
3828.28918	0.97346
3826.23538	0.97316
3824.18158	0.97360
3822.12777	0.97426
3820.07397	0.97443
3818.02017	0.97457
3815.96636	0.97524
3813.91256	0.97606
3811.85876	0.97623
3809.80495	0.97583
3807.75115	0.97511
3805.69735	0.97452
3803.64354	0.97455
3801.58974	0.97505
3799.53594	0.97510
3797.48213	0.97440
3795.42833	0.97374
3793.37453	0.97373
3791.32072	0.97387
3789.26692	0.97377
3787.21312	0.97379
3785.15931	0.97427
3783.10551	0.97520
3781.05171	0.97598
3778.99790	0.97596
3776.94410	0.97534
3774.89030	0.97511
3772.83650	0.97543
3770.78269	0.97543
3768.72889	0.97482
3766.67509	0.97422
3764.62128	0.97404
3762.56748	0.97416
3760.51368	0.97430
3758.45987	0.97450
3756.40607	0.97488
3754.35227	0.97536
3752.29846	0.97550
3750.24466	0.97458
3748.19086	0.97417
3746.13705	0.97482
3744.08325	0.97479
3742.02945	0.97416
3739.97564	0.97382
3737.92184	0.97357
3735.86804	0.97346
3733.81423	0.97319
3731.76043	0.97318
3729.70663	0.97376
3727.65282	0.97411
3725.59902	0.97367
3723.54522	0.97264
3721.49141	0.97189
3719.43761	0.97154
3717.38381	0.97092
3715.33001	0.96962
3713.27620	0.96719
3711.22240	0.96273
3709.16860	0.95728
3707.11479	0.95263
3705.06099	0.94836
3703.00719	0.94370
3700.95338	0.93921
3698.89958	0.93637
3696.84578	0.93516
3694.79197	0.93564
3692.73817	0.93753
3690.68437	0.93981
3688.63056	0.94268
3686.57676	0.94516
3684.52296	0.94597
3682.46915	0.94633
3680.41535	0.94690
3678.36155	0.94683
3676.30774	0.94625
3674.25394	0.94656
3672.20014	0.94687
3670.14633	0.94591
3668.09253	0.94420
3666.03873	0.94331
3663.98492	0.94292
3661.93112	0.94245
3659.87732	0.94181
3657.82352	0.94060
3655.76971	0.93860
3653.71591	0.93650
3651.66211	0.93475
3649.60830	0.93407
3647.55450	0.93469
3645.50070	0.93471
3643.44689	0.93434
3641.39309	0.93383
3639.33929	0.93315
3637.28548	0.93247
3635.23168	0.93149
3633.17788	0.93029
3631.12407	0.92924
3629.07027	0.92739
3627.01647	0.92490
3624.96266	0.92351
3622.90886	0.92255
3620.85506	0.92145
3618.80125	0.92115
3616.74745	0.92231
3614.69365	0.92410
3612.63984	0.92569
3610.58604	0.92585
3608.53224	0.92545
3606.47844	0.92616
3604.42463	0.92701
3602.37083	0.92688
3600.31703	0.92628
3598.26322	0.92629
3596.20942	0.92708
3594.15562	0.92767
3592.10181	0.92702
3590.04801	0.92564
3587.99421	0.92472
3585.94040	0.92461
3583.88660	0.92416
3581.83280	0.92323
3579.77899	0.92254
3577.72519	0.92215
3575.67139	0.92180
3573.61758	0.92173
3571.56378	0.92174
3569.50998	0.92078
3567.45617	0.91889
3565.40237	0.91793
3563.34857	0.91741
3561.29476	0.91619
3559.24096	0.91487
3557.18716	0.91392
3555.13335	0.91320
3553.07955	0.91249
3551.02575	0.91190
3548.97195	0.91140
3546.91814	0.91072
3544.86434	0.90995
3542.81054	0.90939
3540.75673	0.90938
3538.70293	0.90956
3536.64913	0.90949
3534.59532	0.90935
3532.54152	0.90930
3530.48772	0.90932
3528.43391	0.90936
3526.38011	0.90939
3524.32631	0.90954
3522.27250	0.90959
3520.21870	0.90945
3518.16490	0.90961
3516.11109	0.91003
3514.05729	0.91015
3512.00349	0.90984
3509.94968	0.90955
3507.89588	0.90956
3505.84208	0.91007
3503.78827	0.91094
3501.73447	0.91136
3499.68067	0.91119
3497.62687	0.91054
3495.57306	0.90974
3493.51926	0.90956
3491.46546	0.90941
3489.41165	0.90870
3487.35785	0.90809
3485.30405	0.90789
3483.25024	0.90799
3481.19644	0.90813
3479.14264	0.90786
3477.08883	0.90752
3475.03503	0.90782
3472.98123	0.90812
3470.92742	0.90780
3468.87362	0.90735
3466.81982	0.90681
3464.76601	0.90583
3462.71221	0.90458
3460.65841	0.90407
3458.60460	0.90466
3456.55080	0.90504
3454.49700	0.90445
3452.44319	0.90374
3450.38939	0.90348
3448.33559	0.90322
3446.28178	0.90279
3444.22798	0.90254
3442.17418	0.90229
3440.12038	0.90192
3438.06657	0.90145
3436.01277	0.90067
3433.95897	0.89974
3431.90516	0.89872
3429.85136	0.89780
3427.79756	0.89742
3425.74375	0.89709
3423.68995	0.89605
3421.63615	0.89485
3419.58234	0.89428
3417.52854	0.89386
3415.47474	0.89335
3413.42093	0.89285
3411.36713	0.89205
3409.31333	0.89114
3407.25952	0.89048
3405.20572	0.89020
3403.15192	0.89044
3401.09811	0.89050
3399.04431	0.89024
3396.99051	0.89047
3394.93670	0.89116
3392.88290	0.89193
3390.82910	0.89219
3388.77529	0.89178
3386.72149	0.89160
3384.66769	0.89182
3382.61389	0.89220
3380.56008	0.89261
3378.50628	0.89307
3376.45248	0.89383
3374.39867	0.89440
3372.34487	0.89438
3370.29107	0.89414
3368.23726	0.89447
3366.18346	0.89540
3364.12966	0.89603
3362.07585	0.89649
3360.02205	0.89686
3357.96825	0.89690
3355.91444	0.89732
3353.86064	0.89793
3351.80684	0.89782
3349.75303	0.89736
3347.69923	0.89704
3345.64543	0.89699
3343.59162	0.89726
3341.53782	0.89782
3339.48402	0.89856
3337.43021	0.89909
3335.37641	0.89922
3333.32261	0.89919
3331.26881	0.89941
3329.21500	0.89968
3327.16120	0.89983
3325.10740	0.90043
3323.05359	0.90113
3320.99979	0.90124
3318.94599	0.90144
3316.89218	0.90221
3314.83838	0.90287
3312.78458	0.90274
3310.73077	0.90207
3308.67697	0.90198
3306.62317	0.90288
3304.56936	0.90379
3302.51556	0.90407
3300.46176	0.90407
3298.40795	0.90432
3296.35415	0.90464
3294.30035	0.90458
3292.24654	0.90453
3290.19274	0.90489
3288.13894	0.90513
3286.08513	0.90513
3284.03133	0.90555
3281.97753	0.90640
3279.92372	0.90695
3277.86992	0.90685
3275.81612	0.90674
3273.76232	0.90712
3271.70851	0.90762
3269.65471	0.90803
3267.60091	0.90849
3265.54710	0.90896
3263.49330	0.90927
3261.43950	0.90932
3259.38569	0.90943
3257.33189	0.90957
3255.27809	0.90963
3253.22428	0.91006
3251.17048	0.91051
3249.11668	0.91057
3247.06287	0.91076
3245.00907	0.91116
3242.95527	0.91130
3240.90146	0.91153
3238.84766	0.91248
3236.79386	0.91380
3234.74005	0.91454
3232.68625	0.91463
3230.63245	0.91498
3228.57864	0.91562
3226.52484	0.91574
3224.47104	0.91539
3222.41724	0.91543
3220.36343	0.91612
3218.30963	0.91673
3216.25583	0.91740
3214.20202	0.91845
3212.14822	0.91910
3210.09442	0.91928
3208.04061	0.91943
3205.98681	0.91962
3203.93301	0.92000
3201.87920	0.92043
3199.82540	0.92112
3197.77160	0.92213
3195.71779	0.92284
3193.66399	0.92300
3191.61019	0.92300
3189.55638	0.92324
3187.50258	0.92367
3185.44878	0.92411
3183.39497	0.92477
3181.34117	0.92569
3179.28737	0.92636
3177.23356	0.92657
3175.17976	0.92683
3173.12596	0.92748
3171.07215	0.92835
3169.01835	0.92912
3166.96455	0.92951
3164.91075	0.92972
3162.85694	0.93011
3160.80314	0.93049
3158.74934	0.93106
3156.69553	0.93189
3154.64173	0.93223
3152.58793	0.93225
3150.53412	0.93248
3148.48032	0.93295
3146.42652	0.93378
3144.37271	0.93467
3142.31891	0.93514
3140.26511	0.93547
3138.21130	0.93606
3136.15750	0.93666
3134.10370	0.93659
3132.04989	0.93624
3129.99609	0.93682
3127.94229	0.93783
3125.88848	0.93809
3123.83468	0.93786
3121.78088	0.93801
3119.72707	0.93848
3117.67327	0.93874
3115.61947	0.93902
3113.56566	0.93984
3111.51186	0.94064
3109.45806	0.94083
3107.40426	0.94091
3105.35045	0.94113
3103.29665	0.94132
3101.24285	0.94145
3099.18904	0.94155
3097.13524	0.94171
3095.08144	0.94174
3093.02763	0.94167
3090.97383	0.94189
3088.92003	0.94250
3086.86622	0.94321
3084.81242	0.94368
3082.75862	0.94391
3080.70481	0.94395
3078.65101	0.94382
3076.59721	0.94380
3074.54340	0.94425
3072.48960	0.94498
3070.43580	0.94534
3068.38199	0.94527
3066.32819	0.94512
3064.27439	0.94524
3062.22058	0.94590
3060.16678	0.94677
3058.11298	0.94695
3056.05918	0.94666
3054.00537	0.94690
3051.95157	0.94764
3049.89777	0.94800
3047.84396	0.94801
3045.79016	0.94819
3043.73636	0.94804
3041.68255	0.94764
3039.62875	0.94783
3037.57495	0.94862
3035.52114	0.94955
3033.46734	0.94993
3031.41354	0.94968
3029.35973	0.94967
3027.30593	0.94972
3025.25213	0.94931
3023.19832	0.94932
3021.14452	0.95001
3019.09072	0.95047
3017.03691	0.95053
3014.98311	0.95038
3012.92931	0.95024
3010.87550	0.95055
3008.82170	0.95072
3006.76790	0.95041
3004.71409	0.95010
3002.66029	0.94982
3000.60649	0.94973
2998.55269	0.94996
2996.49888	0.95023
2994.44508	0.95027
2992.39128	0.94989
2990.33747	0.94924
2988.28367	0.94857
2986.22987	0.94811
2984.17606	0.94761
2982.12226	0.94671
2980.06846	0.94576
2978.01465	0.94502
2975.96085	0.94411
2973.90705	0.94244
2971.85324	0.94002
2969.79944	0.93749
2967.74564	0.93512
2965.69183	0.93266
2963.63803	0.92982
2961.58423	0.92679
2959.53042	0.92402
2957.47662	0.92178
2955.42282	0.92011
2953.36901	0.91854
2951.31521	0.91677
2949.26141	0.91470
2947.20761	0.91193
2945.15380	0.90770
2943.10000	0.90144
2941.04620	0.89284
2938.99239	0.88190
2936.93859	0.86883
2934.88479	0.85339
2932.83098	0.83535
2930.77718	0.81454
2928.72338	0.79066
2926.66957	0.76335
2924.61577	0.73176
2922.56197	0.69555
2920.50816	0.65652
2918.45436	0.61865
2916.40056	0.58917
2914.34675	0.57696
2912.29295	0.58495
2910.23915	0.60734
2908.18534	0.63554
2906.13154	0.66328
2904.07774	0.68758
2902.02393	0.70752
2899.97013	0.72362
2897.91633	0.73716
2895.86252	0.74922
2893.80872	0.76090
2891.75492	0.77311
2889.70112	0.78595
2887.64731	0.79898
2885.59351	0.81195
2883.53971	0.82483
2881.48590	0.83718
2879.43210	0.84889
2877.37830	0.86004
2875.32449	0.86988
2873.27069	0.87767
2871.21689	0.88325
2869.16308	0.88640
2867.10928	0.88668
2865.05548	0.88355
2863.00167	0.87629
2860.94787	0.86363
2858.89407	0.84387
2856.84026	0.81477
2854.78646	0.77360
2852.73266	0.71949
2850.67885	0.66017
2848.62505	0.61539
2846.57125	0.60515
2844.51744	0.63162
2842.46364	0.67874
2840.40984	0.72855
2838.35603	0.77141
2836.30223	0.80527
2834.24843	0.83164
2832.19463	0.85211
2830.14082	0.86768
2828.08702	0.87972
2826.03322	0.88943
2823.97941	0.89753
2821.92561	0.90457
2819.87181	0.91054
2817.81800	0.91529
2815.76420	0.91940
2813.71040	0.92322
2811.65659	0.92624
2809.60279	0.92872
2807.54899	0.93132
2805.49518	0.93366
2803.44138	0.93549
2801.38758	0.93733
2799.33377	0.93927
2797.27997	0.94082
2795.22617	0.94191
2793.17236	0.94292
2791.11856	0.94401
2789.06476	0.94520
2787.01095	0.94658
2784.95715	0.94777
2782.90335	0.94864
2780.84955	0.94975
2778.79574	0.95121
2776.74194	0.95231
2774.68814	0.95260
2772.63433	0.95273
2770.58053	0.95322
2768.52673	0.95401
2766.47292	0.95483
2764.41912	0.95530
2762.36532	0.95550
2760.31151	0.95565
2758.25771	0.95584
2756.20391	0.95621
2754.15010	0.95659
2752.09630	0.95687
2750.04250	0.95735
2747.98869	0.95775
2745.93489	0.95762
2743.88109	0.95748
2741.82728	0.95772
2739.77348	0.95814
2737.71968	0.95850
2735.66587	0.95844
2733.61207	0.95828
2731.55827	0.95860
2729.50446	0.95924
2727.45066	0.95962
2725.39686	0.95952
2723.34306	0.95943
2721.28925	0.95966
2719.23545	0.95986
2717.18165	0.95995
2715.12784	0.96036
2713.07404	0.96097
2711.02024	0.96132
2708.96643	0.96165
2706.91263	0.96196
2704.85883	0.96194
2702.80502	0.96192
2700.75122	0.96230
2698.69742	0.96285
2696.64361	0.96314
2694.58981	0.96310
2692.53601	0.96299
2690.48220	0.96303
2688.42840	0.96323
2686.37460	0.96308
2684.32079	0.96266
2682.26699	0.96272
2680.21319	0.96309
2678.15938	0.96304
2676.10558	0.96280
2674.05178	0.96283
2671.99797	0.96280
2669.94417	0.96241
2667.89037	0.96216
2665.83657	0.96216
2663.78276	0.96211
2661.72896	0.96224
2659.67516	0.96248
2657.62135	0.96271
2655.56755	0.96294
2653.51375	0.96288
2651.45994	0.96267
2649.40614	0.96279
2647.35234	0.96307
2645.29853	0.96313
2643.24473	0.96295
2641.19093	0.96262
2639.13712	0.96245
2637.08332	0.96247
2635.02952	0.96227
2632.97571	0.96215
2630.92191	0.96262
2628.86811	0.96318
2626.81430	0.96352
2624.76050	0.96392
2622.70670	0.96457
2620.65289	0.96536
2618.59909	0.96572
2616.54529	0.96580
2614.49149	0.96604
2612.43768	0.96595
2610.38388	0.96554
2608.33008	0.96540
2606.27627	0.96588
2604.22247	0.96651
2602.16867	0.96690
2600.11486	0.96749
2598.06106	0.96792
2596.00726	0.96804
2593.95345	0.96836
2591.89965	0.96831
2589.84585	0.96789
2587.79204	0.96790
2585.73824	0.96816
2583.68444	0.96826
2581.63063	0.96849
2579.57683	0.96891
2577.52303	0.96938
2575.46922	0.96988
2573.41542	0.97013
2571.36162	0.96969
2569.30781	0.96865
2567.25401	0.96816
2565.20021	0.96877
2563.14640	0.96945
2561.09260	0.96972
2559.03880	0.97022
2556.98500	0.97110
2554.93119	0.97154
2552.87739	0.97100
2550.82359	0.96990
2548.76978	0.96920
2546.71598	0.96980
2544.66218	0.97098
2542.60837	0.97146
2540.55457	0.97141
2538.50077	0.97129
2536.44696	0.97091
2534.39316	0.97056
2532.33936	0.97111
2530.28555	0.97222
2528.23175	0.97279
2526.17795	0.97242
2524.12414	0.97127
2522.07034	0.97063
2520.01654	0.97109
2517.96273	0.97137
2515.90893	0.97132
2513.85513	0.97159
2511.80132	0.97178
2509.74752	0.97175
2507.69372	0.97164
2505.63992	0.97160
2503.58611	0.97195
2501.53231	0.97245
2499.47851	0.97273
2497.42470	0.97246
2495.37090	0.97206
2493.31710	0.97235
2491.26329	0.97308
2489.20949	0.97316
2487.15569	0.97232
2485.10188	0.97195
2483.04808	0.97269
2480.99428	0.97312
2478.94047	0.97262
2476.88667	0.97211
2474.83287	0.97237
2472.77906	0.97338
2470.72526	0.97414
2468.67146	0.97399
2466.61765	0.97338
2464.56385	0.97302
2462.51005	0.97311
2460.45624	0.97342
2458.40244	0.97336
2456.34864	0.97249
2454.29483	0.97179
2452.24103	0.97226
2450.18723	0.97274
2448.13343	0.97207
2446.07962	0.97141
2444.02582	0.97197
2441.97202	0.97306
2439.91821	0.97365
2437.86441	0.97337
2435.81061	0.97268
2433.75680	0.97258
2431.70300	0.97297
2429.64920	0.97307
2427.59539	0.97292
2425.54159	0.97302
2423.48779	0.97317
2421.43398	0.97291
2419.38018	0.97274
2417.32638	0.97316
2415.27257	0.97359
2413.21877	0.97338
2411.16497	0.97281
2409.11116	0.97281
2407.05736	0.97317
2405.00356	0.97322
2402.94975	0.97327
2400.89595	0.97331
2398.84215	0.97326
2396.78834	0.97318
2394.73454	0.97273
2392.68074	0.97245
2390.62694	0.97283
2388.57313	0.97299
2386.51933	0.97273
2384.46553	0.97273
2382.41172	0.97290
2380.35792	0.97308
2378.30412	0.97375
2376.25031	0.97462
2374.19651	0.97489
2372.14271	0.97428
2370.08890	0.97273
2368.03510	0.97104
2365.98130	0.97039
2363.92749	0.97075
2361.87369	0.97088
2359.81989	0.97119
2357.76608	0.97307
2355.71228	0.97399
2353.65848	0.97232
2351.60467	0.97109
2349.55087	0.97126
2347.49707	0.97133
2345.44326	0.97111
2343.38946	0.97175
2341.33566	0.97244
2339.28186	0.97133
2337.22805	0.96995
2335.17425	0.97028
2333.12045	0.97118
2331.06664	0.97139
2329.01284	0.97072
2326.95904	0.96967
2324.90523	0.96969
2322.85143	0.97052
2320.79763	0.97075
2318.74382	0.97096
2316.69002	0.97139
2314.63622	0.97108
2312.58241	0.97063
2310.52861	0.97101
2308.47481	0.97182
2306.42100	0.97215
2304.36720	0.97231
2302.31340	0.97286
2300.25959	0.97311
2298.20579	0.97285
2296.15199	0.97288
2294.09818	0.97308
2292.04438	0.97249
2289.99058	0.97159
2287.93677	0.97194
2285.88297	0.97282
2283.82917	0.97272
2281.77537	0.97257
2279.72156	0.97325
2277.66776	0.97396
2275.61396	0.97408
2273.56015	0.97387
2271.50635	0.97389
2269.45255	0.97380
2267.39874	0.97338
2265.34494	0.97413
2263.29114	0.97516
2261.23733	0.97422
2259.18353	0.97315
2257.12973	0.97364
2255.07592	0.97430
2253.02212	0.97376
2250.96832	0.97227
2248.91451	0.97176
2246.86071	0.97372
2244.80691	0.97618
2242.75310	0.97657
2240.69930	0.97585
2238.64550	0.97542
2236.59169	0.97529
2234.53789	0.97567
2232.48409	0.97627
2230.43029	0.97629
2228.37648	0.97589
2226.32268	0.97490
2224.26888	0.97355
2222.21507	0.97420
2220.16127	0.97664
2218.10747	0.97773
2216.05366	0.97670
2213.99986	0.97577
2211.94606	0.97522
2209.89225	0.97412
2207.83845	0.97327
2205.78465	0.97312
2203.73084	0.97426
2201.67704	0.97633
2199.62324	0.97807
2197.56943	0.97915
2195.51563	0.97851
2193.46183	0.97652
2191.40802	0.97455
2189.35422	0.97351
2187.30042	0.97362
2185.24661	0.97342
2183.19281	0.97335
2181.13901	0.97313
2179.08520	0.97190
2177.03140	0.97185
2174.97760	0.97305
2172.92380	0.97344
2170.86999	0.97360
2168.81619	0.97501
2166.76239	0.97650
2164.70858	0.97658
2162.65478	0.97638
2160.60098	0.97893
2158.54717	0.98284
2156.49337	0.98223
2154.43957	0.97932
2152.38576	0.97990
2150.33196	0.98291
2148.27816	0.98361
2146.22435	0.98125
2144.17055	0.97952
2142.11675	0.97927
2140.06294	0.97815
2138.00914	0.97759
2135.95534	0.97913
2133.90153	0.98063
2131.84773	0.98005
2129.79393	0.97799
2127.74012	0.97678
2125.68632	0.97658
2123.63252	0.97568
2121.57871	0.97472
2119.52491	0.97535
2117.47111	0.97571
2115.41731	0.97485
2113.36350	0.97524
2111.30970	0.97663
2109.25590	0.97684
2107.20209	0.97616
2105.14829	0.97596
2103.09449	0.97663
2101.04068	0.97716
2098.98688	0.97726
2096.93308	0.97762
2094.87927	0.97759
2092.82547	0.97755
2090.77167	0.97818
2088.71786	0.97856
2086.66406	0.97838
2084.61026	0.97758
2082.55645	0.97603
2080.50265	0.97457
2078.44885	0.97391
2076.39504	0.97408
2074.34124	0.97581
2072.28744	0.97809
2070.23363	0.97839
2068.17983	0.97743
2066.12603	0.97703
2064.07223	0.97661
2062.01842	0.97628
2059.96462	0.97649
2057.91082	0.97578
2055.85701	0.97412
2053.80321	0.97366
2051.74941	0.97508
2049.69560	0.97669
2047.64180	0.97733
2045.58800	0.97704
2043.53419	0.97634
2041.48039	0.97594
2039.42659	0.97639
2037.37278	0.97806
2035.31898	0.98095
2033.26518	0.98336
2031.21137	0.98374
2029.15757	0.98462
2027.10377	0.98626
2025.04996	0.98527
2022.99616	0.98071
2020.94236	0.97631
2018.88855	0.97662
2016.83475	0.97859
2014.78095	0.97636
2012.72714	0.97244
2010.67334	0.97223
2008.61954	0.97495
2006.56574	0.97692
2004.51193	0.97577
2002.45813	0.97301
2000.40433	0.97204
1998.35052	0.97315
1996.29672	0.97585
1994.24292	0.97780
1992.18911	0.97639
1990.13531	0.97450
1988.08151	0.97516
1986.02770	0.97656
1983.97390	0.97601
1981.92010	0.97396
1979.86629	0.97416
1977.81249	0.97854
1975.75869	0.98172
1973.70488	0.98056
1971.65108	0.98023
1969.59728	0.98085
1967.54347	0.98028
1965.48967	0.98035
1963.43587	0.98043
1961.38206	0.97984
1959.32826	0.97993
1957.27446	0.98080
1955.22066	0.98116
1953.16685	0.98079
1951.11305	0.97868
1949.05925	0.97480
1947.00544	0.97263
1944.95164	0.97369
1942.89784	0.97578
1940.84403	0.97624
1938.79023	0.97530
1936.73643	0.97477
1934.68262	0.97533
1932.62882	0.97558
1930.57502	0.97474
1928.52121	0.97462
1926.46741	0.97566
1924.41361	0.97690
1922.35980	0.97767
1920.30600	0.97730
1918.25220	0.97678
1916.19839	0.97752
1914.14459	0.97838
1912.09079	0.97751
1910.03698	0.97630
1907.98318	0.97675
1905.92938	0.97698
1903.87557	0.97612
1901.82177	0.97552
1899.76797	0.97538
1897.71417	0.97528
1895.66036	0.97476
1893.60656	0.97438
1891.55276	0.97469
1889.49895	0.97513
1887.44515	0.97541
1885.39135	0.97531
1883.33754	0.97507
1881.28374	0.97515
1879.22994	0.97527
1877.17613	0.97595
1875.12233	0.97723
1873.06853	0.97742
1871.01472	0.97665
1868.96092	0.97622
1866.90712	0.97612
1864.85331	0.97601
1862.79951	0.97561
1860.74571	0.97530
1858.69190	0.97598
1856.63810	0.97683
1854.58430	0.97691
1852.53049	0.97683
1850.47669	0.97701
1848.42289	0.97708
1846.36908	0.97649
1844.31528	0.97575
1842.26148	0.97592
1840.20768	0.97632
1838.15387	0.97623
1836.10007	0.97610
1834.04627	0.97646
1831.99246	0.97664
1829.93866	0.97575
1827.88486	0.97489
1825.83105	0.97529
1823.77725	0.97558
1821.72345	0.97507
1819.66964	0.97471
1817.61584	0.97523
1815.56204	0.97630
1813.50823	0.97680
1811.45443	0.97636
1809.40063	0.97553
1807.34682	0.97507
1805.29302	0.97523
1803.23922	0.97549
1801.18541	0.97520
1799.13161	0.97510
1797.07781	0.97536
1795.02400	0.97515
1792.97020	0.97480
1790.91640	0.97462
1788.86260	0.97435
1786.80879	0.97405
1784.75499	0.97374
1782.70119	0.97366
1780.64738	0.97381
1778.59358	0.97391
1776.53978	0.97390
1774.48597	0.97357
1772.43217	0.97293
1770.37837	0.97249
1768.32456	0.97238
1766.27076	0.97226
1764.21696	0.97195
1762.16315	0.97130
1760.10935	0.97022
1758.05555	0.96941
1756.00174	0.96913
1753.94794	0.96884
1751.89414	0.96834
1749.84033	0.96753
1747.78653	0.96574
1745.73273	0.96329
1743.67892	0.96122
1741.62512	0.95955
1739.57132	0.95763
1737.51751	0.95626
1735.46371	0.95603
1733.40991	0.95585
1731.35611	0.95527
1729.30230	0.95501
1727.24850	0.95507
1725.19470	0.95545
1723.14089	0.95583
1721.08709	0.95571
1719.03329	0.95534
1716.97948	0.95525
1714.92568	0.95527
1712.87188	0.95528
1710.81807	0.95520
1708.76427	0.95468
1706.71047	0.95347
1704.65666	0.95219
1702.60286	0.95160
1700.54906	0.95092
1698.49525	0.94983
1696.44145	0.94837
1694.38765	0.94572
1692.33384	0.94316
1690.28004	0.94101
1688.22624	0.93890
1686.17243	0.93668
1684.11863	0.93392
1682.06483	0.93241
1680.01103	0.93194
1677.95722	0.93097
1675.90342	0.92915
1673.84962	0.92708
1671.79581	0.92546
1669.74201	0.92358
1667.68821	0.92183
1665.63440	0.92059
1663.58060	0.91908
1661.52680	0.91751
1659.47299	0.91633
1657.41919	0.91531
1655.36539	0.91431
1653.31158	0.91307
1651.25778	0.91228
1649.20398	0.91215
1647.15017	0.91204
1645.09637	0.91176
1643.04257	0.91119
1640.98876	0.91024
1638.93496	0.90925
1636.88116	0.90845
1634.82735	0.90820
1632.77355	0.90853
1630.71975	0.90884
1628.66594	0.90892
1626.61214	0.90875
1624.55834	0.90859
1622.50454	0.90852
1620.45073	0.90903
1618.39693	0.91081
1616.34313	0.91415
1614.28932	0.91704
1612.23552	0.91905
1610.18172	0.92120
1608.12791	0.92313
1606.07411	0.92452
1604.02031	0.92583
1601.96650	0.92698
1599.91270	0.92780
1597.85890	0.92868
1595.80509	0.92977
1593.75129	0.93081
1591.69749	0.93167
1589.64368	0.93213
1587.58988	0.93227
1585.53608	0.93252
1583.48227	0.93271
1581.42847	0.93244
1579.37467	0.93200
1577.32086	0.93178
1575.26706	0.93210
1573.21326	0.93318
1571.15945	0.93471
1569.10565	0.93620
1567.05185	0.93684
1564.99805	0.93684
1562.94424	0.93647
1560.89044	0.93589
1558.83664	0.93553
1556.78283	0.93584
1554.72903	0.93613
1552.67523	0.93616
1550.62142	0.93576
1548.56762	0.93533
1546.51382	0.93538
1544.46001	0.93573
1542.40621	0.93621
1540.35241	0.93676
1538.29860	0.93730
1536.24480	0.93808
1534.19100	0.93962
1532.13719	0.94180
1530.08339	0.94360
1528.02959	0.94512
1525.97578	0.94621
1523.92198	0.94658
1521.86818	0.94715
1519.81437	0.94854
1517.76057	0.94971
1515.70677	0.95055
1513.65297	0.95147
1511.59916	0.95224
1509.54536	0.95252
1507.49156	0.95283
1505.43775	0.95369
1503.38395	0.95402
1501.33015	0.95411
1499.27634	0.95407
1497.22254	0.95414
1495.16874	0.95434
1493.11493	0.95427
1491.06113	0.95369
1489.00733	0.95271
1486.95352	0.95153
1484.89972	0.94984
1482.84592	0.94732
1480.79211	0.94299
1478.73831	0.93356
1476.68451	0.90920
1474.63070	0.86067
1472.57690	0.81090
1470.52310	0.80459
1468.46929	0.82030
1466.41549	0.82798
1464.36169	0.81973
1462.30788	0.81488
1460.25408	0.83062
1458.20028	0.86272
1456.14648	0.89216
1454.09267	0.90369
1452.03887	0.90952
1449.98507	0.91428
1447.93126	0.91806
1445.87746	0.92082
1443.82366	0.92263
1441.76985	0.92408
1439.71605	0.92562
1437.66225	0.92720
1435.60844	0.92853
1433.55464	0.92974
1431.50084	0.93151
1429.44703	0.93371
1427.39323	0.93552
1425.33943	0.93677
1423.28562	0.93776
1421.23182	0.93841
1419.17802	0.93904
1417.12421	0.93978
1415.07041	0.94030
1413.01661	0.94079
1410.96280	0.94137
1408.90900	0.94186
1406.85520	0.94237
1404.80139	0.94300
1402.74759	0.94348
1400.69379	0.94389
1398.63999	0.94437
1396.58618	0.94467
1394.53238	0.94461
1392.47858	0.94452
1390.42477	0.94441
1388.37097	0.94425
1386.31717	0.94400
1384.26336	0.94344
1382.20956	0.94249
1380.15576	0.94110
1378.10195	0.93972
1376.04815	0.93904
1373.99435	0.93900
1371.94054	0.93894
1369.88674	0.93862
1367.83294	0.93850
1365.77913	0.93913
1363.72533	0.94049
1361.67153	0.94212
1359.61772	0.94327
1357.56392	0.94410
1355.51012	0.94485
1353.45631	0.94537
1351.40251	0.94587
1349.34871	0.94641
1347.29491	0.94697
1345.24110	0.94760
1343.18730	0.94807
1341.13350	0.94834
1339.07969	0.94870
1337.02589	0.94919
1334.97209	0.94954
1332.91828	0.94968
1330.86448	0.94971
1328.81068	0.94967
1326.75687	0.94934
1324.70307	0.94889
1322.64927	0.94846
1320.59546	0.94782
1318.54166	0.94726
1316.48786	0.94718
1314.43405	0.94727
1312.38025	0.94710
1310.32645	0.94675
1308.27264	0.94659
1306.21884	0.94654
1304.16504	0.94630
1302.11123	0.94605
1300.05743	0.94598
1298.00363	0.94605
1295.94982	0.94606
1293.89602	0.94594
1291.84222	0.94580
1289.78842	0.94558
1287.73461	0.94504
1285.68081	0.94445
1283.62701	0.94442
1281.57320	0.94454
1279.51940	0.94394
1277.46560	0.94257
1275.41179	0.94134
1273.35799	0.94076
1271.30419	0.94017
1269.25038	0.93918
1267.19658	0.93818
1265.14278	0.93709
1263.08897	0.93597
1261.03517	0.93523
1258.98137	0.93480
1256.92756	0.93432
1254.87376	0.93370
1252.81996	0.93330
1250.76615	0.93290
1248.71235	0.93198
1246.65855	0.93103
1244.60474	0.93042
1242.55094	0.92969
1240.49714	0.92875
1238.44334	0.92781
1236.38953	0.92686
1234.33573	0.92588
1232.28193	0.92501
1230.22812	0.92434
1228.17432	0.92379
1226.12052	0.92331
1224.06671	0.92262
1222.01291	0.92170
1219.95911	0.92066
1217.90530	0.91944
1215.85150	0.91826
1213.79770	0.91713
1211.74389	0.91588
1209.69009	0.91470
1207.63629	0.91341
1205.58248	0.91136
1203.52868	0.90870
1201.47488	0.90622
1199.42107	0.90424
1197.36727	0.90242
1195.31347	0.90022
1193.25966	0.89761
1191.20586	0.89466
1189.15206	0.89126
1187.09825	0.88755
1185.04445	0.88353
1182.99065	0.87915
1180.93685	0.87466
1178.88304	0.86992
1176.82924	0.86481
1174.77544	0.85960
1172.72163	0.85443
1170.66783	0.84971
1168.61403	0.84545
1166.56022	0.84117
1164.50642	0.83711
1162.45262	0.83347
1160.39881	0.83007
1158.34501	0.82689
1156.29121	0.82373
1154.23740	0.82064
1152.18360	0.81760
1150.12980	0.81425
1148.07599	0.81071
1146.02219	0.80731
1143.96839	0.80437
1141.91458	0.80194
1139.86078	0.79947
1137.80698	0.79662
1135.75317	0.79336
1133.69937	0.78953
1131.64557	0.78531
1129.59176	0.78079
1127.53796	0.77541
1125.48416	0.76888
1123.43036	0.76182
1121.37655	0.75469
1119.32275	0.74713
1117.26895	0.73933
1115.21514	0.73225
1113.16134	0.72608
1111.10754	0.72054
1109.05373	0.71572
1106.99993	0.71144
1104.94613	0.70746
1102.89232	0.70383
1100.83852	0.70068
1098.78472	0.69800
1096.73091	0.69567
1094.67711	0.69379
1092.62331	0.69254
1090.56950	0.69168
1088.51570	0.69078
1086.46190	0.68962
1084.40809	0.68841
1082.35429	0.68733
1080.30049	0.68611
1078.24668	0.68449
1076.19288	0.68247
1074.13908	0.68040
1072.08528	0.67822
1070.03147	0.67528
1067.97767	0.67134
1065.92387	0.66664
1063.87006	0.66145
1061.81626	0.65588
1059.76246	0.64996
1057.70865	0.64342
1055.65485	0.63622
1053.60105	0.62876
1051.54724	0.62081
1049.49344	0.61199
1047.43964	0.60293
1045.38583	0.59421
1043.33203	0.58561
1041.27823	0.57697
1039.22442	0.56865
1037.17062	0.56116
1035.11682	0.55496
1033.06301	0.55037
1031.00921	0.54754
1028.95541	0.54645
1026.90160	0.54678
1024.84780	0.54799
1022.79400	0.54961
1020.74019	0.55109
1018.68639	0.55176
1016.63259	0.55154
1014.57879	0.55078
1012.52498	0.54985
1010.47118	0.54927
1008.41738	0.54903
1006.36357	0.54924
1004.30977	0.55111
1002.25597	0.55533
1000.20216	0.56143
998.14836	0.56884
996.09456	0.57716
994.04075	0.58595
991.98695	0.59527
989.93315	0.60528
987.87934	0.61553
985.82554	0.62541
983.77174	0.63498
981.71793	0.64480
979.66413	0.65486
977.61033	0.66472
975.55652	0.67426
973.50272	0.68324
971.44892	0.69138
969.39511	0.69928
967.34131	0.70738
965.28751	0.71504
963.23371	0.72195
961.17990	0.72840
959.12610	0.73414
957.07230	0.73936
955.01849	0.74467
952.96469	0.74970
950.91089	0.75378
948.85708	0.75692
946.80328	0.75934
944.74948	0.76129
942.69567	0.76340
940.64187	0.76600
938.58807	0.76866
936.53426	0.77096
934.48046	0.77275
932.42666	0.77439
930.37285	0.77596
928.31905	0.77693
926.26525	0.77712
924.21144	0.77666
922.15764	0.77557
920.10384	0.77377
918.05003	0.77094
915.99623	0.76738
913.94243	0.76440
911.88862	0.76337
909.83482	0.76506
907.78102	0.77005
905.72722	0.77788
903.67341	0.78670
901.61961	0.79517
899.56581	0.80271
897.51200	0.80922
895.45820	0.81507
893.40440	0.82031
891.35059	0.82483
889.29679	0.82857
887.24299	0.83168
885.18918	0.83465
883.13538	0.83751
881.08158	0.83992
879.02777	0.84226
876.97397	0.84467
874.92017	0.84671
872.86636	0.84883
870.81256	0.85173
868.75876	0.85487
866.70495	0.85765
864.65115	0.86027
862.59735	0.86281
860.54354	0.86574
858.48974	0.86896
856.43594	0.87144
854.38213	0.87315
852.32833	0.87441
850.27453	0.87542
848.22073	0.87701
846.16692	0.87884
844.11312	0.87992
842.05932	0.88054
840.00551	0.88064
837.95171	0.88023
835.89791	0.88005
833.84410	0.87951
831.79030	0.87816
829.73650	0.87705
827.68269	0.87661
825.62889	0.87634
823.57509	0.87602
821.52128	0.87544
819.46748	0.87476
817.41368	0.87416
815.35987	0.87353
813.30607	0.87299
811.25227	0.87178
809.19846	0.86870
807.14466	0.86448
805.09086	0.86021
803.03705	0.85562
800.98325	0.85149
798.92945	0.84858
796.87565	0.84680
794.82184	0.84626
792.76804	0.84671
790.71424	0.84726
788.66043	0.84765
786.60663	0.84810
784.55283	0.84772
782.49902	0.84608
780.44522	0.84470
778.39142	0.84451
776.33761	0.84465
774.28381	0.84497
772.23001	0.84618
770.17620	0.84776
768.12240	0.84804
766.06860	0.84666
764.01479	0.84502
761.96099	0.84315
759.90719	0.84091
757.85338	0.83952
755.79958	0.83907
753.74578	0.83819
751.69197	0.83713
749.63817	0.83659
747.58437	0.83623
745.53056	0.83628
743.47676	0.83699
741.42296	0.83758
739.36916	0.83733
737.31535	0.83510
735.26155	0.82525
733.20775	0.79962
731.15394	0.76832
729.10014	0.75853
727.04634	0.77046
724.99253	0.77661
722.93873	0.75933
720.88493	0.71953
718.83112	0.68168
716.77732	0.67617
714.72352	0.70495
712.66971	0.74596
710.61591	0.77709
708.56211	0.79316
706.50830	0.79942
704.45450	0.80016
702.40070	0.79874
700.34689	0.79702
698.29309	0.79505
696.23929	0.79324
694.18548	0.79275
692.13168	0.79399
690.07788	0.79556
688.02408	0.79593
685.97027	0.79563
683.91647	0.79625
681.86267	0.79751
679.80886	0.79862
677.75506	0.79936
675.70126	0.79888
673.64745	0.79744
671.59365	0.79600
669.53985	0.79527
667.48604	0.79680
665.43224	0.80038
663.37844	0.80415
661.32463	0.80700
659.27083	0.80810
657.21703	0.80809
655.16322	0.80763
653.10942	0.80644
651.05562	0.80410
649.00181	0.80188
646.94801	0.80159
644.89421	0.80241
642.84040	0.80333
640.78660	0.80446
638.73280	0.80532
636.67899	0.80606
634.62519	0.80642
632.57139	0.80527
630.51759	0.80347
628.46378	0.80258
626.40998	0.80238
624.35618	0.80144
622.30237	0.79880
620.24857	0.79609
618.19477	0.79466
616.14096	0.79210
614.08716	0.78782
612.03336	0.78425
609.97955	0.78113
607.92575	0.77734
605.87195	0.77371
603.81814	0.77079
601.76434	0.76744
599.71054	0.76382
597.65673	0.76195
595.60293	0.76146
593.54913	0.76081
591.49532	0.75960
589.44152	0.75747
587.38772	0.75440
585.33391	0.75109
583.28011	0.74779
581.22631	0.74462
579.17250	0.74310
577.11870	0.74322
575.06490	0.74309
573.01110	0.74186
570.95729	0.73965
568.90349	0.73720
566.84969	0.73461
564.79588	0.73097
562.74208	0.72670
560.68828	0.72235
558.63447	0.71829
556.58067	0.71488
554.52687	0.71051
552.47306	0.70474
550.41926	0.69936
548.36546	0.69384
546.31165	0.68640
544.25785	0.67811
542.20405	0.67133
540.15024	0.66641
538.09644	0.66202
536.04264	0.65763
533.98883	0.65454
531.93503	0.65341
529.88123	0.65260
527.82742	0.65152
525.77362	0.65176
523.71982	0.65268
521.66602	0.65331
519.61221	0.65635
517.55841	0.66211
515.50461	0.66688
513.45080	0.67008
511.39700	0.67426
509.34320	0.67971
507.28939	0.68401
505.23559	0.68698
503.18179	0.68970
501.12798	0.69036
499.07418	0.68941
497.02038	0.68918
494.96657	0.68928
492.91277	0.68923
490.85897	0.68744
488.80516	0.68285
486.75136	0.67672
484.69756	0.66921
482.64375	0.66103
480.58995	0.64991
478.53615	0.63455
476.48234	0.62070
474.42854	0.60873
472.37474	0.59347
470.32093	0.57930
468.26713	0.57177
466.21333	0.56807
464.15953	0.56673
462.10572	0.56957
460.05192	0.57606
457.99812	0.58301
455.94431	0.58798
453.89051	0.59340
451.83671	0.60104
449.78290	0.60641
447.72910	0.60614
445.67530	0.60413
443.62149	0.60670
441.56769	0.61178
439.51389	0.61273
437.46008	0.60993
435.40628	0.60510
433.35248	0.60051
431.29867	0.59792
429.24487	0.59568
427.19107	0.59526
425.13726	0.59989
423.08346	0.60768
421.02966	0.61176
418.97585	0.61328
416.92205	0.61976
414.86825	0.62393
412.81445	0.62337
410.76064	0.62495
408.70684	0.63342
406.65304	0.64410
404.59923	0.65080
402.54543	0.65439
400.49163	0.65757
398.43782	0.66293
