3996.70104	0.96403
3994.64724	0.96408
3992.59344	0.96420
3990.53964	0.96449
3988.48583	0.96490
3986.43203	0.96475
3984.37823	0.96391
3982.32442	0.96355
3980.27062	0.96406
3978.21682	0.96455
3976.16301	0.96469
3974.10921	0.96485
3972.05541	0.96506
3970.00160	0.96530
3967.94780	0.96559
3965.89400	0.96549
3963.84019	0.96502
3961.78639	0.96479
3959.73259	0.96504
3957.67878	0.96491
3955.62498	0.96423
3953.57118	0.96402
3951.51737	0.96407
3949.46357	0.96366
3947.40977	0.96339
3945.35596	0.96388
3943.30216	0.96448
3941.24836	0.96457
3939.19455	0.96448
3937.14075	0.96462
3935.08695	0.96470
3933.03315	0.96453
3930.97934	0.96449
3928.92554	0.96469
3926.87174	0.96504
3924.81793	0.96525
3922.76413	0.96503
3920.71033	0.96466
3918.65652	0.96457
3916.60272	0.96475
3914.54892	0.96485
3912.49511	0.96464
3910.44131	0.96451
3908.38751	0.96510
3906.33370	0.96586
3904.27990	0.96574
3902.22610	0.96518
3900.17229	0.96553
3898.11849	0.96610
3896.06469	0.96582
3894.01088	0.96555
3891.95708	0.96567
3889.90328	0.96554
3887.84947	0.96557
3885.79567	0.96596
3883.74187	0.96595
3881.68807	0.96550
3879.63426	0.96475
3877.58046	0.96408
3875.52666	0.96380
3873.47285	0.96409
3871.41905	0.96458
3869.36525	0.96458
3867.31144	0.96448
3865.25764	0.96440
3863.20384	0.96431
3861.15003	0.96478
3859.09623	0.96561
3857.04243	0.96607
3854.98862	0.96509
3852.93482	0.96281
3850.88102	0.96290
3848.82721	0.96405
3846.77341	0.96464
3844.71961	0.96503
3842.66580	0.96530
3840.61200	0.96519
3838.55820	0.96499
3836.50439	0.96492
3834.45059	0.96514
3832.39679	0.96580
3830.34298	0.96635
3828.28918	0.96637
3826.23538	0.96616
3824.18158	0.96594
3822.12777	0.96532
3820.07397	0.96463
3818.02017	0.96489
3815.96636	0.96542
3813.91256	0.96554
3811.85876	0.96546
3809.80495	0.96541
3807.75115	0.96558
3805.69735	0.96604
3803.64354	0.96600
3801.58974	0.96518
3799.53594	0.96489
3797.48213	0.96539
3795.42833	0.96569
3793.37453	0.96580
3791.32072	0.96614
3789.26692	0.96645
3787.21312	0.96640
3785.15931	0.96611
3783.10551	0.96598
3781.05171	0.96606
3778.99790	0.96617
3776.94410	0.96623
3774.89030	0.96648
3772.83650	0.96669
3770.78269	0.96619
3768.72889	0.96535
3766.67509	0.96556
3764.62128	0.96623
3762.56748	0.96641
3760.51368	0.96672
3758.45987	0.96709
3756.40607	0.96713
3754.35227	0.96751
3752.29846	0.96821
3750.24466	0.96839
3748.19086	0.96825
3746.13705	0.96788
3744.08325	0.96704
3742.02945	0.96736
3739.97564	0.96849
3737.92184	0.96918
3735.86804	0.96877
3733.81423	0.96724
3731.76043	0.96622
3729.70663	0.96642
3727.65282	0.96690
3725.59902	0.96710
3723.54522	0.96718
3721.49141	0.96678
3719.43761	0.96581
3717.38381	0.96536
3715.33001	0.96559
3713.27620	0.96498
3711.22240	0.96232
3709.16860	0.95998
3707.11479	0.95919
3705.06099	0.95844
3703.00719	0.95687
3700.95338	0.95442
3698.89958	0.95286
3696.84578	0.95304
3694.79197	0.95360
3692.73817	0.95412
3690.68437	0.95538
3688.63056	0.95679
3686.57676	0.95746
3684.52296	0.95769
3682.46915	0.95727
3680.41535	0.95654
3678.36155	0.95635
3676.30774	0.95633
3674.25394	0.95604
3672.20014	0.95622
3670.14633	0.95603
3668.09253	0.95438
3666.03873	0.95274
3663.98492	0.95214
3661.93112	0.95211
3659.87732	0.95202
3657.82352	0.95164
3655.76971	0.95052
3653.71591	0.94941
3651.66211	0.94894
3649.60830	0.94808
3647.55450	0.94700
3645.50070	0.94630
3643.44689	0.94548
3641.39309	0.94495
3639.33929	0.94504
3637.28548	0.94500
3635.23168	0.94430
3633.17788	0.94315
3631.12407	0.94186
3629.07027	0.93996
3627.01647	0.93860
3624.96266	0.93897
3622.90886	0.93950
3620.85506	0.93932
3618.80125	0.93889
3616.74745	0.93905
3614.69365	0.93951
3612.63984	0.94023
3610.58604	0.94148
3608.53224	0.94226
3606.47844	0.94208
3604.42463	0.94211
3602.37083	0.94257
3600.31703	0.94266
3598.26322	0.94199
3596.20942	0.94121
3594.15562	0.94116
3592.10181	0.94186
3590.04801	0.94265
3587.99421	0.94286
3585.94040	0.94199
3583.88660	0.94099
3581.83280	0.94121
3579.77899	0.94211
3577.72519	0.94214
3575.67139	0.94136
3573.61758	0.94071
3571.56378	0.94073
3569.50998	0.94132
3567.45617	0.94144
3565.40237	0.94073
3563.34857	0.94042
3561.29476	0.94021
3559.24096	0.93968
3557.18716	0.93944
3555.13335	0.93940
3553.07955	0.93905
3551.02575	0.93894
3548.97195	0.93956
3546.91814	0.93985
3544.86434	0.93930
3542.81054	0.93883
3540.75673	0.93879
3538.70293	0.93874
3536.64913	0.93855
3534.59532	0.93852
3532.54152	0.93831
3530.48772	0.93778
3528.43391	0.93801
3526.38011	0.93884
3524.32631	0.93899
3522.27250	0.93866
3520.21870	0.93838
3518.16490	0.93834
3516.11109	0.93862
3514.05729	0.93916
3512.00349	0.93947
3509.94968	0.93901
3507.89588	0.93848
3505.84208	0.93863
3503.78827	0.93875
3501.73447	0.93851
3499.68067	0.93841
3497.62687	0.93820
3495.57306	0.93744
3493.51926	0.93645
3491.46546	0.93637
3489.41165	0.93709
3487.35785	0.93734
3485.30405	0.93700
3483.25024	0.93647
3481.19644	0.93606
3479.14264	0.93591
3477.08883	0.93575
3475.03503	0.93548
3472.98123	0.93510
3470.92742	0.93481
3468.87362	0.93482
3466.81982	0.93466
3464.76601	0.93396
3462.71221	0.93336
3460.65841	0.93336
3458.60460	0.93344
3456.55080	0.93336
3454.49700	0.93330
3452.44319	0.93295
3450.38939	0.93238
3448.33559	0.93179
3446.28178	0.93135
3444.22798	0.93138
3442.17418	0.93144
3440.12038	0.93095
3438.06657	0.93036
3436.01277	0.93012
3433.95897	0.92996
3431.90516	0.92994
3429.85136	0.92999
3427.79756	0.92977
3425.74375	0.92945
3423.68995	0.92933
3421.63615	0.92916
3419.58234	0.92858
3417.52854	0.92800
3415.47474	0.92763
3413.42093	0.92738
3411.36713	0.92730
3409.31333	0.92731
3407.25952	0.92696
3405.20572	0.92608
3403.15192	0.92549
3401.09811	0.92537
3399.04431	0.92522
3396.99051	0.92547
3394.93670	0.92592
3392.88290	0.92568
3390.82910	0.92526
3388.77529	0.92516
3386.72149	0.92480
3384.66769	0.92423
3382.61389	0.92407
3380.56008	0.92424
3378.50628	0.92420
3376.45248	0.92399
3374.39867	0.92381
3372.34487	0.92339
3370.29107	0.92297
3368.23726	0.92301
3366.18346	0.92327
3364.12966	0.92362
3362.07585	0.92402
3360.02205	0.92402
3357.96825	0.92366
3355.91444	0.92340
3353.86064	0.92350
3351.80684	0.92364
3349.75303	0.92343
3347.69923	0.92319
3345.64543	0.92322
3343.59162	0.92319
3341.53782	0.92334
3339.48402	0.92381
3337.43021	0.92403
3335.37641	0.92385
3333.32261	0.92357
3331.26881	0.92347
3329.21500	0.92364
3327.16120	0.92390
3325.10740	0.92422
3323.05359	0.92443
3320.99979	0.92444
3318.94599	0.92423
3316.89218	0.92399
3314.83838	0.92374
3312.78458	0.92341
3310.73077	0.92353
3308.67697	0.92377
3306.62317	0.92329
3304.56936	0.92268
3302.51556	0.92257
3300.46176	0.92258
3298.40795	0.92266
3296.35415	0.92325
3294.30035	0.92380
3292.24654	0.92382
3290.19274	0.92370
3288.13894	0.92351
3286.08513	0.92330
3284.03133	0.92314
3281.97753	0.92308
3279.92372	0.92325
3277.86992	0.92336
3275.81612	0.92330
3273.76232	0.92358
3271.70851	0.92434
3269.65471	0.92496
3267.60091	0.92520
3265.54710	0.92543
3263.49330	0.92579
3261.43950	0.92603
3259.38569	0.92595
3257.33189	0.92567
3255.27809	0.92542
3253.22428	0.92532
3251.17048	0.92560
3249.11668	0.92606
3247.06287	0.92616
3245.00907	0.92647
3242.95527	0.92713
3240.90146	0.92728
3238.84766	0.92723
3236.79386	0.92759
3234.74005	0.92800
3232.68625	0.92829
3230.63245	0.92832
3228.57864	0.92803
3226.52484	0.92817
3224.47104	0.92875
3222.41724	0.92908
3220.36343	0.92909
3218.30963	0.92911
3216.25583	0.92934
3214.20202	0.92976
3212.14822	0.93016
3210.09442	0.93038
3208.04061	0.93024
3205.98681	0.92980
3203.93301	0.92959
3201.87920	0.93000
3199.82540	0.93074
3197.77160	0.93117
3195.71779	0.93116
3193.66399	0.93115
3191.61019	0.93135
3189.55638	0.93195
3187.50258	0.93256
3185.44878	0.93269
3183.39497	0.93316
3181.34117	0.93400
3179.28737	0.93410
3177.23356	0.93366
3175.17976	0.93372
3173.12596	0.93421
3171.07215	0.93439
3169.01835	0.93425
3166.96455	0.93441
3164.91075	0.93491
3162.85694	0.93522
3160.80314	0.93529
3158.74934	0.93554
3156.69553	0.93626
3154.64173	0.93709
3152.58793	0.93721
3150.53412	0.93660
3148.48032	0.93642
3146.42652	0.93747
3144.37271	0.93870
3142.31891	0.93906
3140.26511	0.93905
3138.21130	0.93940
3136.15750	0.93972
3134.10370	0.93944
3132.04989	0.93925
3129.99609	0.93960
3127.94229	0.94024
3125.88848	0.94063
3123.83468	0.94033
3121.78088	0.94010
3119.72707	0.94070
3117.67327	0.94134
3115.61947	0.94168
3113.56566	0.94208
3111.51186	0.94232
3109.45806	0.94216
3107.40426	0.94181
3105.35045	0.94151
3103.29665	0.94132
3101.24285	0.94124
3099.18904	0.94137
3097.13524	0.94163
3095.08144	0.94211
3093.02763	0.94268
3090.97383	0.94278
3088.92003	0.94248
3086.86622	0.94222
3084.81242	0.94197
3082.75862	0.94174
3080.70481	0.94174
3078.65101	0.94201
3076.59721	0.94215
3074.54340	0.94196
3072.48960	0.94208
3070.43580	0.94240
3068.38199	0.94234
3066.32819	0.94212
3064.27439	0.94190
3062.22058	0.94157
3060.16678	0.94129
3058.11298	0.94144
3056.05918	0.94235
3054.00537	0.94359
3051.95157	0.94425
3049.89777	0.94449
3047.84396	0.94508
3045.79016	0.94567
3043.73636	0.94556
3041.68255	0.94529
3039.62875	0.94546
3037.57495	0.94542
3035.52114	0.94483
3033.46734	0.94419
3031.41354	0.94303
3029.35973	0.94071
3027.30593	0.93848
3025.25213	0.93777
3023.19832	0.93835
3021.14452	0.93983
3019.09072	0.94214
3017.03691	0.94424
3014.98311	0.94556
3012.92931	0.94644
3010.87550	0.94698
3008.82170	0.94736
3006.76790	0.94767
3004.71409	0.94781
3002.66029	0.94780
3000.60649	0.94794
2998.55269	0.94853
2996.49888	0.94899
2994.44508	0.94890
2992.39128	0.94886
2990.33747	0.94915
2988.28367	0.94942
2986.22987	0.94949
2984.17606	0.94954
2982.12226	0.94970
2980.06846	0.95002
2978.01465	0.95038
2975.96085	0.95056
2973.90705	0.95032
2971.85324	0.94961
2969.79944	0.94887
2967.74564	0.94822
2965.69183	0.94740
2963.63803	0.94657
2961.58423	0.94591
2959.53042	0.94499
2957.47662	0.94373
2955.42282	0.94264
2953.36901	0.94187
2951.31521	0.94118
2949.26141	0.94041
2947.20761	0.93949
2945.15380	0.93829
2943.10000	0.93675
2941.04620	0.93514
2938.99239	0.93372
2936.93859	0.93222
2934.88479	0.93048
2932.83098	0.92866
2930.77718	0.92701
2928.72338	0.92566
2926.66957	0.92453
2924.61577	0.92320
2922.56197	0.92146
2920.50816	0.92008
2918.45436	0.91980
2916.40056	0.92038
2914.34675	0.92186
2912.29295	0.92403
2910.23915	0.92576
2908.18534	0.92689
2906.13154	0.92819
2904.07774	0.92975
2902.02393	0.93119
2899.97013	0.93257
2897.91633	0.93429
2895.86252	0.93591
2893.80872	0.93686
2891.75492	0.93745
2889.70112	0.93807
2887.64731	0.93877
2885.59351	0.93959
2883.53971	0.94040
2881.48590	0.94097
2879.43210	0.94117
2877.37830	0.94085
2875.32449	0.94059
2873.27069	0.94108
2871.21689	0.94192
2869.16308	0.94228
2867.10928	0.94186
2865.05548	0.94136
2863.00167	0.94125
2860.94787	0.94096
2858.89407	0.94007
2856.84026	0.93881
2854.78646	0.93749
2852.73266	0.93650
2850.67885	0.93634
2848.62505	0.93705
2846.57125	0.93828
2844.51744	0.93998
2842.46364	0.94209
2840.40984	0.94389
2838.35603	0.94518
2836.30223	0.94622
2834.24843	0.94707
2832.19463	0.94774
2830.14082	0.94823
2828.08702	0.94879
2826.03322	0.94950
2823.97941	0.95008
2821.92561	0.95050
2819.87181	0.95083
2817.81800	0.95109
2815.76420	0.95140
2813.71040	0.95164
2811.65659	0.95159
2809.60279	0.95163
2807.54899	0.95205
2805.49518	0.95241
2803.44138	0.95253
2801.38758	0.95270
2799.33377	0.95299
2797.27997	0.95329
2795.22617	0.95361
2793.17236	0.95393
2791.11856	0.95426
2789.06476	0.95449
2787.01095	0.95457
2784.95715	0.95470
2782.90335	0.95483
2780.84955	0.95481
2778.79574	0.95493
2776.74194	0.95519
2774.68814	0.95529
2772.63433	0.95539
2770.58053	0.95568
2768.52673	0.95590
2766.47292	0.95592
2764.41912	0.95601
2762.36532	0.95612
2760.31151	0.95595
2758.25771	0.95563
2756.20391	0.95539
2754.15010	0.95537
2752.09630	0.95554
2750.04250	0.95599
2747.98869	0.95665
2745.93489	0.95670
2743.88109	0.95596
2741.82728	0.95557
2739.77348	0.95595
2737.71968	0.95616
2735.66587	0.95586
2733.61207	0.95572
2731.55827	0.95608
2729.50446	0.95649
2727.45066	0.95653
2725.39686	0.95653
2723.34306	0.95675
2721.28925	0.95712
2719.23545	0.95746
2717.18165	0.95736
2715.12784	0.95681
2713.07404	0.95664
2711.02024	0.95703
2708.96643	0.95721
2706.91263	0.95712
2704.85883	0.95717
2702.80502	0.95728
2700.75122	0.95737
2698.69742	0.95755
2696.64361	0.95768
2694.58981	0.95772
2692.53601	0.95787
2690.48220	0.95799
2688.42840	0.95765
2686.37460	0.95736
2684.32079	0.95771
2682.26699	0.95795
2680.21319	0.95769
2678.15938	0.95754
2676.10558	0.95781
2674.05178	0.95807
2671.99797	0.95796
2669.94417	0.95776
2667.89037	0.95778
2665.83657	0.95793
2663.78276	0.95797
2661.72896	0.95796
2659.67516	0.95785
2657.62135	0.95762
2655.56755	0.95751
2653.51375	0.95752
2651.45994	0.95749
2649.40614	0.95749
2647.35234	0.95767
2645.29853	0.95784
2643.24473	0.95779
2641.19093	0.95766
2639.13712	0.95757
2637.08332	0.95759
2635.02952	0.95822
2632.97571	0.95933
2630.92191	0.95994
2628.86811	0.95993
2626.81430	0.95951
2624.76050	0.95879
2622.70670	0.95866
2620.65289	0.95940
2618.59909	0.95973
2616.54529	0.95942
2614.49149	0.95947
2612.43768	0.95970
2610.38388	0.95964
2608.33008	0.95974
2606.27627	0.96027
2604.22247	0.96052
2602.16867	0.96003
2600.11486	0.95950
2598.06106	0.95914
2596.00726	0.95886
2593.95345	0.95914
2591.89965	0.95958
2589.84585	0.95982
2587.79204	0.96034
2585.73824	0.96090
2583.68444	0.96079
2581.63063	0.96044
2579.57683	0.96046
2577.52303	0.96054
2575.46922	0.96079
2573.41542	0.96130
2571.36162	0.96137
2569.30781	0.96109
2567.25401	0.96058
2565.20021	0.96003
2563.14640	0.96038
2561.09260	0.96142
2559.03880	0.96206
2556.98500	0.96231
2554.93119	0.96252
2552.87739	0.96227
2550.82359	0.96158
2548.76978	0.96126
2546.71598	0.96138
2544.66218	0.96149
2542.60837	0.96153
2540.55457	0.96162
2538.50077	0.96170
2536.44696	0.96166
2534.39316	0.96168
2532.33936	0.96189
2530.28555	0.96186
2528.23175	0.96158
2526.17795	0.96154
2524.12414	0.96159
2522.07034	0.96145
2520.01654	0.96131
2517.96273	0.96145
2515.90893	0.96203
2513.85513	0.96234
2511.80132	0.96192
2509.74752	0.96157
2507.69372	0.96176
2505.63992	0.96223
2503.58611	0.96245
2501.53231	0.96219
2499.47851	0.96186
2497.42470	0.96173
2495.37090	0.96168
2493.31710	0.96155
2491.26329	0.96137
2489.20949	0.96131
2487.15569	0.96173
2485.10188	0.96269
2483.04808	0.96322
2480.99428	0.96252
2478.94047	0.96168
2476.88667	0.96195
2474.83287	0.96260
2472.77906	0.96301
2470.72526	0.96317
2468.67146	0.96279
2466.61765	0.96247
2464.56385	0.96298
2462.51005	0.96375
2460.45624	0.96361
2458.40244	0.96257
2456.34864	0.96207
2454.29483	0.96265
2452.24103	0.96287
2450.18723	0.96235
2448.13343	0.96232
2446.07962	0.96289
2444.02582	0.96323
2441.97202	0.96319
2439.91821	0.96323
2437.86441	0.96314
2435.81061	0.96283
2433.75680	0.96273
2431.70300	0.96280
2429.64920	0.96293
2427.59539	0.96289
2425.54159	0.96243
2423.48779	0.96225
2421.43398	0.96262
2419.38018	0.96304
2417.32638	0.96335
2415.27257	0.96337
2413.21877	0.96316
2411.16497	0.96307
2409.11116	0.96321
2407.05736	0.96361
2405.00356	0.96413
2402.94975	0.96403
2400.89595	0.96333
2398.84215	0.96302
2396.78834	0.96319
2394.73454	0.96345
2392.68074	0.96384
2390.62694	0.96398
2388.57313	0.96356
2386.51933	0.96315
2384.46553	0.96309
2382.41172	0.96333
2380.35792	0.96365
2378.30412	0.96343
2376.25031	0.96286
2374.19651	0.96279
2372.14271	0.96287
2370.08890	0.96255
2368.03510	0.96230
2365.98130	0.96279
2363.92749	0.96335
2361.87369	0.96254
2359.81989	0.96114
2357.76608	0.96068
2355.71228	0.96110
2353.65848	0.96154
2351.60467	0.96179
2349.55087	0.96204
2347.49707	0.96249
2345.44326	0.96326
2343.38946	0.96348
2341.33566	0.96278
2339.28186	0.96264
2337.22805	0.96331
2335.17425	0.96371
2333.12045	0.96372
2331.06664	0.96359
2329.01284	0.96330
2326.95904	0.96252
2324.90523	0.96090
2322.85143	0.95968
2320.79763	0.96027
2318.74382	0.96106
2316.69002	0.96111
2314.63622	0.96156
2312.58241	0.96237
2310.52861	0.96259
2308.47481	0.96220
2306.42100	0.96215
2304.36720	0.96270
2302.31340	0.96308
2300.25959	0.96283
2298.20579	0.96264
2296.15199	0.96294
2294.09818	0.96296
2292.04438	0.96232
2289.99058	0.96171
2287.93677	0.96188
2285.88297	0.96276
2283.82917	0.96392
2281.77537	0.96470
2279.72156	0.96453
2277.66776	0.96378
2275.61396	0.96302
2273.56015	0.96311
2271.50635	0.96442
2269.45255	0.96525
2267.39874	0.96422
2265.34494	0.96327
2263.29114	0.96373
2261.23733	0.96462
2259.18353	0.96501
2257.12973	0.96407
2255.07592	0.96318
2253.02212	0.96377
2250.96832	0.96451
2248.91451	0.96419
2246.86071	0.96307
2244.80691	0.96244
2242.75310	0.96297
2240.69930	0.96391
2238.64550	0.96415
2236.59169	0.96335
2234.53789	0.96259
2232.48409	0.96311
2230.43029	0.96499
2228.37648	0.96654
2226.32268	0.96609
2224.26888	0.96516
2222.21507	0.96551
2220.16127	0.96533
2218.10747	0.96424
2216.05366	0.96472
2213.99986	0.96649
2211.94606	0.96688
2209.89225	0.96634
2207.83845	0.96633
2205.78465	0.96545
2203.73084	0.96451
2201.67704	0.96502
2199.62324	0.96576
2197.56943	0.96715
2195.51563	0.96898
2193.46183	0.96861
2191.40802	0.96626
2189.35422	0.96486
2187.30042	0.96487
2185.24661	0.96399
2183.19281	0.96314
2181.13901	0.96444
2179.08520	0.96541
2177.03140	0.96550
2174.97760	0.96640
2172.92380	0.96659
2170.86999	0.96598
2168.81619	0.96646
2166.76239	0.96748
2164.70858	0.96727
2162.65478	0.96488
2160.60098	0.96179
2158.54717	0.96279
2156.49337	0.96662
2154.43957	0.96809
2152.38576	0.96876
2150.33196	0.96942
2148.27816	0.96789
2146.22435	0.96535
2144.17055	0.96535
2142.11675	0.96803
2140.06294	0.97039
2138.00914	0.97017
2135.95534	0.96847
2133.90153	0.96808
2131.84773	0.96775
2129.79393	0.96662
2127.74012	0.96683
2125.68632	0.96782
2123.63252	0.96777
2121.57871	0.96656
2119.52491	0.96562
2117.47111	0.96618
2115.41731	0.96711
2113.36350	0.96693
2111.30970	0.96630
2109.25590	0.96608
2107.20209	0.96629
2105.14829	0.96693
2103.09449	0.96743
2101.04068	0.96762
2098.98688	0.96746
2096.93308	0.96733
2094.87927	0.96745
2092.82547	0.96697
2090.77167	0.96654
2088.71786	0.96661
2086.66406	0.96656
2084.61026	0.96627
2082.55645	0.96596
2080.50265	0.96588
2078.44885	0.96584
2076.39504	0.96606
2074.34124	0.96707
2072.28744	0.96792
2070.23363	0.96729
2068.17983	0.96594
2066.12603	0.96604
2064.07223	0.96741
2062.01842	0.96754
2059.96462	0.96645
2057.91082	0.96622
2055.85701	0.96706
2053.80321	0.96770
2051.74941	0.96742
2049.69560	0.96595
2047.64180	0.96384
2045.58800	0.96354
2043.53419	0.96563
2041.48039	0.96696
2039.42659	0.96613
2037.37278	0.96534
2035.31898	0.96611
2033.26518	0.96646
2031.21137	0.96610
2029.15757	0.96752
2027.10377	0.97002
2025.04996	0.97092
2022.99616	0.96910
2020.94236	0.96746
2018.88855	0.96812
2016.83475	0.96894
2014.78095	0.96843
2012.72714	0.96757
2010.67334	0.96769
2008.61954	0.96956
2006.56574	0.97148
2004.51193	0.97027
2002.45813	0.96754
2000.40433	0.96675
1998.35052	0.96807
1996.29672	0.96927
1994.24292	0.96931
1992.18911	0.96851
1990.13531	0.96700
1988.08151	0.96606
1986.02770	0.96566
1983.97390	0.96576
1981.92010	0.96643
1979.86629	0.96676
1977.81249	0.96666
1975.75869	0.96831
1973.70488	0.97209
1971.65108	0.97364
1969.59728	0.97272
1967.54347	0.97146
1965.48967	0.97037
1963.43587	0.96964
1961.38206	0.96911
1959.32826	0.96957
1957.27446	0.97042
1955.22066	0.96983
1953.16685	0.96823
1951.11305	0.96694
1949.05925	0.96642
1947.00544	0.96685
1944.95164	0.96735
1942.89784	0.96707
1940.84403	0.96672
1938.79023	0.96630
1936.73643	0.96570
1934.68262	0.96623
1932.62882	0.96782
1930.57502	0.96888
1928.52121	0.96884
1926.46741	0.96833
1924.41361	0.96760
1922.35980	0.96620
1920.30600	0.96514
1918.25220	0.96533
1916.19839	0.96625
1914.14459	0.96701
1912.09079	0.96729
1910.03698	0.96733
1907.98318	0.96704
1905.92938	0.96669
1903.87557	0.96691
1901.82177	0.96709
1899.76797	0.96693
1897.71417	0.96735
1895.66036	0.96793
1893.60656	0.96762
1891.55276	0.96681
1889.49895	0.96599
1887.44515	0.96549
1885.39135	0.96567
1883.33754	0.96607
1881.28374	0.96616
1879.22994	0.96631
1877.17613	0.96671
1875.12233	0.96729
1873.06853	0.96766
1871.01472	0.96683
1868.96092	0.96559
1866.90712	0.96574
1864.85331	0.96637
1862.79951	0.96623
1860.74571	0.96577
1858.69190	0.96592
1856.63810	0.96650
1854.58430	0.96658
1852.53049	0.96640
1850.47669	0.96655
1848.42289	0.96675
1846.36908	0.96694
1844.31528	0.96733
1842.26148	0.96739
1840.20768	0.96721
1838.15387	0.96740
1836.10007	0.96762
1834.04627	0.96755
1831.99246	0.96733
1829.93866	0.96702
1827.88486	0.96688
1825.83105	0.96692
1823.77725	0.96673
1821.72345	0.96639
1819.66964	0.96632
1817.61584	0.96633
1815.56204	0.96596
1813.50823	0.96550
1811.45443	0.96553
1809.40063	0.96557
1807.34682	0.96527
1805.29302	0.96510
1803.23922	0.96510
1801.18541	0.96508
1799.13161	0.96535
1797.07781	0.96593
1795.02400	0.96617
1792.97020	0.96581
1790.91640	0.96537
1788.86260	0.96537
1786.80879	0.96555
1784.75499	0.96564
1782.70119	0.96588
1780.64738	0.96632
1778.59358	0.96662
1776.53978	0.96687
1774.48597	0.96736
1772.43217	0.96758
1770.37837	0.96697
1768.32456	0.96626
1766.27076	0.96591
1764.21696	0.96595
1762.16315	0.96611
1760.10935	0.96613
1758.05555	0.96595
1756.00174	0.96529
1753.94794	0.96445
1751.89414	0.96383
1749.84033	0.96318
1747.78653	0.96237
1745.73273	0.96187
1743.67892	0.96153
1741.62512	0.96098
1739.57132	0.96051
1737.51751	0.96063
1735.46371	0.96105
1733.40991	0.96079
1731.35611	0.96026
1729.30230	0.96001
1727.24850	0.95959
1725.19470	0.95925
1723.14089	0.95926
1721.08709	0.95943
1719.03329	0.95947
1716.97948	0.95889
1714.92568	0.95818
1712.87188	0.95805
1710.81807	0.95790
1708.76427	0.95773
1706.71047	0.95786
1704.65666	0.95788
1702.60286	0.95748
1700.54906	0.95665
1698.49525	0.95559
1696.44145	0.95451
1694.38765	0.95349
1692.33384	0.95287
1690.28004	0.95205
1688.22624	0.95091
1686.17243	0.95008
1684.11863	0.94889
1682.06483	0.94723
1680.01103	0.94601
1677.95722	0.94486
1675.90342	0.94342
1673.84962	0.94191
1671.79581	0.94077
1669.74201	0.93921
1667.68821	0.93746
1665.63440	0.93652
1663.58060	0.93563
1661.52680	0.93421
1659.47299	0.93305
1657.41919	0.93276
1655.36539	0.93303
1653.31158	0.93286
1651.25778	0.93277
1649.20398	0.93381
1647.15017	0.93469
1645.09637	0.93456
1643.04257	0.93460
1640.98876	0.93513
1638.93496	0.93585
1636.88116	0.93635
1634.82735	0.93568
1632.77355	0.93484
1630.71975	0.93485
1628.66594	0.93522
1626.61214	0.93564
1624.55834	0.93607
1622.50454	0.93639
1620.45073	0.93658
1618.39693	0.93660
1616.34313	0.93610
1614.28932	0.93551
1612.23552	0.93508
1610.18172	0.93404
1608.12791	0.93174
1606.07411	0.92824
1604.02031	0.92388
1601.96650	0.91938
1599.91270	0.91634
1597.85890	0.91569
1595.80509	0.91646
1593.75129	0.91718
1591.69749	0.91722
1589.64368	0.91630
1587.58988	0.91422
1585.53608	0.91083
1583.48227	0.90703
1581.42847	0.90448
1579.37467	0.90380
1577.32086	0.90413
1575.26706	0.90406
1573.21326	0.90334
1571.15945	0.90210
1569.10565	0.90009
1567.05185	0.89822
1564.99805	0.89668
1562.94424	0.89551
1560.89044	0.89476
1558.83664	0.89258
1556.78283	0.89068
1554.72903	0.89082
1552.67523	0.89172
1550.62142	0.89342
1548.56762	0.89555
1546.51382	0.89775
1544.46001	0.90045
1542.40621	0.90399
1540.35241	0.90856
1538.29860	0.91289
1536.24480	0.91575
1534.19100	0.91817
1532.13719	0.92001
1530.08339	0.92109
1528.02959	0.92221
1525.97578	0.92287
1523.92198	0.92230
1521.86818	0.92096
1519.81437	0.91992
1517.76057	0.91898
1515.70677	0.91712
1513.65297	0.91528
1511.59916	0.91399
1509.54536	0.91278
1507.49156	0.91000
1505.43775	0.90588
1503.38395	0.90398
1501.33015	0.90238
1499.27634	0.89876
1497.22254	0.89026
1495.16874	0.87847
1493.11493	0.87126
1491.06113	0.87157
1489.00733	0.87840
1486.95352	0.88585
1484.89972	0.89095
1482.84592	0.89479
1480.79211	0.89804
1478.73831	0.90056
1476.68451	0.90221
1474.63070	0.90314
1472.57690	0.90344
1470.52310	0.90383
1468.46929	0.90487
1466.41549	0.90591
1464.36169	0.90612
1462.30788	0.90566
1460.25408	0.90469
1458.20028	0.90014
1456.14648	0.88831
1454.09267	0.87817
1452.03887	0.87346
1449.98507	0.87354
1447.93126	0.87695
1445.87746	0.88068
1443.82366	0.88398
1441.76985	0.88722
1439.71605	0.89000
1437.66225	0.89210
1435.60844	0.89377
1433.55464	0.89530
1431.50084	0.89646
1429.44703	0.89675
1427.39323	0.89674
1425.33943	0.89725
1423.28562	0.89791
1421.23182	0.89799
1419.17802	0.89709
1417.12421	0.89598
1415.07041	0.89564
1413.01661	0.89581
1410.96280	0.89678
1408.90900	0.89868
1406.85520	0.90095
1404.80139	0.90318
1402.74759	0.90517
1400.69379	0.90685
1398.63999	0.90832
1396.58618	0.90987
1394.53238	0.91133
1392.47858	0.91185
1390.42477	0.91147
1388.37097	0.91064
1386.31717	0.90932
1384.26336	0.90802
1382.20956	0.90716
1380.15576	0.90633
1378.10195	0.90522
1376.04815	0.90396
1373.99435	0.90277
1371.94054	0.90210
1369.88674	0.90193
1367.83294	0.90196
1365.77913	0.90259
1363.72533	0.90384
1361.67153	0.90482
1359.61772	0.90543
1357.56392	0.90600
1355.51012	0.90617
1353.45631	0.90551
1351.40251	0.90410
1349.34871	0.90217
1347.29491	0.89990
1345.24110	0.89761
1343.18730	0.89570
1341.13350	0.89400
1339.07969	0.89185
1337.02589	0.88949
1334.97209	0.88766
1332.91828	0.88634
1330.86448	0.88530
1328.81068	0.88468
1326.75687	0.88474
1324.70307	0.88531
1322.64927	0.88631
1320.59546	0.88814
1318.54166	0.89068
1316.48786	0.89339
1314.43405	0.89605
1312.38025	0.89836
1310.32645	0.89997
1308.27264	0.90091
1306.21884	0.90170
1304.16504	0.90292
1302.11123	0.90473
1300.05743	0.90685
1298.00363	0.90857
1295.94982	0.90949
1293.89602	0.90987
1291.84222	0.91003
1289.78842	0.91046
1287.73461	0.91162
1285.68081	0.91311
1283.62701	0.91436
1281.57320	0.91524
1279.51940	0.91559
1277.46560	0.91557
1275.41179	0.91591
1273.35799	0.91705
1271.30419	0.91894
1269.25038	0.92103
1267.19658	0.92274
1265.14278	0.92410
1263.08897	0.92509
1261.03517	0.92550
1258.98137	0.92574
1256.92756	0.92634
1254.87376	0.92690
1252.81996	0.92706
1250.76615	0.92686
1248.71235	0.92644
1246.65855	0.92604
1244.60474	0.92587
1242.55094	0.92574
1240.49714	0.92527
1238.44334	0.92460
1236.38953	0.92406
1234.33573	0.92348
1232.28193	0.92269
1230.22812	0.92191
1228.17432	0.92123
1226.12052	0.92023
1224.06671	0.91858
1222.01291	0.91676
1219.95911	0.91518
1217.90530	0.91395
1215.85150	0.91306
1213.79770	0.91235
1211.74389	0.91173
1209.69009	0.91095
1207.63629	0.90964
1205.58248	0.90807
1203.52868	0.90664
1201.47488	0.90524
1199.42107	0.90374
1197.36727	0.90167
1195.31347	0.89858
1193.25966	0.89471
1191.20586	0.89031
1189.15206	0.88540
1187.09825	0.88069
1185.04445	0.87741
1182.99065	0.87583
1180.93685	0.87491
1178.88304	0.87369
1176.82924	0.87223
1174.77544	0.87064
1172.72163	0.86780
1170.66783	0.86288
1168.61403	0.85609
1166.56022	0.84750
1164.50642	0.83741
1162.45262	0.82696
1160.39881	0.81744
1158.34501	0.80938
1156.29121	0.80321
1154.23740	0.79963
1152.18360	0.79873
1150.12980	0.79996
1148.07599	0.80258
1146.02219	0.80590
1143.96839	0.80912
1141.91458	0.81175
1139.86078	0.81420
1137.80698	0.81644
1135.75317	0.81765
1133.69937	0.81741
1131.64557	0.81606
1129.59176	0.81426
1127.53796	0.81211
1125.48416	0.80900
1123.43036	0.80481
1121.37655	0.80011
1119.32275	0.79527
1117.26895	0.79032
1115.21514	0.78563
1113.16134	0.78109
1111.10754	0.77630
1109.05373	0.77162
1106.99993	0.76718
1104.94613	0.76291
1102.89232	0.75894
1100.83852	0.75495
1098.78472	0.75028
1096.73091	0.74477
1094.67711	0.73885
1092.62331	0.73326
1090.56950	0.72894
1088.51570	0.72640
1086.46190	0.72514
1084.40809	0.72385
1082.35429	0.72173
1080.30049	0.71928
1078.24668	0.71704
1076.19288	0.71445
1074.13908	0.71132
1072.08528	0.70805
1070.03147	0.70422
1067.97767	0.69979
1065.92387	0.69551
1063.87006	0.69145
1061.81626	0.68732
1059.76246	0.68332
1057.70865	0.67959
1055.65485	0.67548
1053.60105	0.67005
1051.54724	0.66345
1049.49344	0.65619
1047.43964	0.64830
1045.38583	0.64011
1043.33203	0.63145
1041.27823	0.62201
1039.22442	0.61223
1037.17062	0.60293
1035.11682	0.59450
1033.06301	0.58642
1031.00921	0.57864
1028.95541	0.57181
1026.90160	0.56628
1024.84780	0.56238
1022.79400	0.55991
1020.74019	0.55792
1018.68639	0.55572
1016.63259	0.55319
1014.57879	0.55038
1012.52498	0.54724
1010.47118	0.54379
1008.41738	0.54057
1006.36357	0.53821
1004.30977	0.53682
1002.25597	0.53634
1000.20216	0.53681
998.14836	0.53834
996.09456	0.54071
994.04075	0.54348
991.98695	0.54674
989.93315	0.55074
987.87934	0.55546
985.82554	0.56072
983.77174	0.56675
981.71793	0.57385
979.66413	0.58190
977.61033	0.59075
975.55652	0.60061
973.50272	0.61137
971.44892	0.62257
969.39511	0.63371
967.34131	0.64405
965.28751	0.65353
963.23371	0.66289
961.17990	0.67245
959.12610	0.68177
957.07230	0.69041
955.01849	0.69798
952.96469	0.70442
950.91089	0.71004
948.85708	0.71474
946.80328	0.71862
944.74948	0.72216
942.69567	0.72541
940.64187	0.72852
938.58807	0.73144
936.53426	0.73409
934.48046	0.73696
932.42666	0.74006
930.37285	0.74243
928.31905	0.74374
926.26525	0.74471
924.21144	0.74576
922.15764	0.74614
920.10384	0.74512
918.05003	0.74346
915.99623	0.74223
913.94243	0.74174
911.88862	0.74195
909.83482	0.74336
907.78102	0.74667
905.72722	0.75203
903.67341	0.75912
901.61961	0.76729
899.56581	0.77572
897.51200	0.78370
895.45820	0.79082
893.40440	0.79747
891.35059	0.80389
889.29679	0.80932
887.24299	0.81338
885.18918	0.81629
883.13538	0.81828
881.08158	0.81962
879.02777	0.82073
876.97397	0.82231
874.92017	0.82497
872.86636	0.82829
870.81256	0.83116
868.75876	0.83293
866.70495	0.83399
864.65115	0.83505
862.59735	0.83585
860.54354	0.83642
858.48974	0.83743
856.43594	0.83886
854.38213	0.84023
852.32833	0.84102
850.27453	0.84093
848.22073	0.83991
846.16692	0.83748
844.11312	0.83430
842.05932	0.83223
840.00551	0.83081
837.95171	0.82869
835.89791	0.82672
833.84410	0.82567
831.79030	0.82497
829.73650	0.82451
827.68269	0.82514
825.62889	0.82690
823.57509	0.82846
821.52128	0.82757
819.46748	0.82301
817.41368	0.81610
815.35987	0.80892
813.30607	0.80357
811.25227	0.80210
809.19846	0.80450
807.14466	0.80854
805.09086	0.81178
803.03705	0.81337
800.98325	0.81437
798.92945	0.81584
796.87565	0.81829
794.82184	0.82142
792.76804	0.82426
790.71424	0.82625
788.66043	0.82744
786.60663	0.82822
784.55283	0.82869
782.49902	0.82861
780.44522	0.82798
778.39142	0.82704
776.33761	0.82549
774.28381	0.82286
772.23001	0.81867
770.17620	0.81254
768.12240	0.80517
766.06860	0.79729
764.01479	0.78883
761.96099	0.78023
759.90719	0.77313
757.85338	0.76843
755.79958	0.76548
753.74578	0.76369
751.69197	0.76310
749.63817	0.76376
747.58437	0.76549
745.53056	0.76933
743.47676	0.77670
741.42296	0.78642
739.36916	0.79590
737.31535	0.80402
735.26155	0.81111
733.20775	0.81778
731.15394	0.82343
729.10014	0.82692
727.04634	0.82924
724.99253	0.83193
722.93873	0.83447
720.88493	0.83614
718.83112	0.83751
716.77732	0.83831
714.72352	0.83665
712.66971	0.83227
710.61591	0.82519
708.56211	0.81244
706.50830	0.79264
704.45450	0.76705
702.40070	0.73541
700.34689	0.69829
698.29309	0.66057
696.23929	0.63363
694.18548	0.63238
692.13168	0.65811
690.07788	0.69283
688.02408	0.72035
685.97027	0.73800
683.91647	0.74860
681.86267	0.75479
679.80886	0.75815
677.75506	0.76003
675.70126	0.76107
673.64745	0.76070
671.59365	0.75934
669.53985	0.75723
667.48604	0.75408
665.43224	0.75256
663.37844	0.75256
661.32463	0.75264
659.27083	0.75279
657.21703	0.75379
655.16322	0.75683
653.10942	0.76127
651.05562	0.76511
649.00181	0.76861
646.94801	0.77236
644.89421	0.77613
642.84040	0.77964
640.78660	0.78195
638.73280	0.78303
636.67899	0.78363
634.62519	0.78466
632.57139	0.78704
630.51759	0.78893
628.46378	0.78866
626.40998	0.78756
624.35618	0.78633
622.30237	0.78503
620.24857	0.78411
618.19477	0.78366
616.14096	0.78313
614.08716	0.78134
612.03336	0.77855
609.97955	0.77598
607.92575	0.77353
605.87195	0.77115
603.81814	0.76878
601.76434	0.76616
599.71054	0.76321
597.65673	0.75963
595.60293	0.75617
593.54913	0.75296
591.49532	0.75007
589.44152	0.74858
587.38772	0.74770
585.33391	0.74634
583.28011	0.74415
581.22631	0.74048
579.17250	0.73703
577.11870	0.73528
575.06490	0.73308
573.01110	0.72952
570.95729	0.72525
568.90349	0.71973
566.84969	0.71273
564.79588	0.70504
562.74208	0.69639
560.68828	0.68624
558.63447	0.67677
556.58067	0.66947
554.52687	0.66179
552.47306	0.65170
550.41926	0.64074
548.36546	0.63095
546.31165	0.62175
544.25785	0.61204
542.20405	0.60334
540.15024	0.59583
538.09644	0.58818
536.04264	0.58194
533.98883	0.57888
531.93503	0.57805
529.88123	0.57831
527.82742	0.58094
525.77362	0.58618
523.71982	0.59148
521.66602	0.59734
519.61221	0.60411
517.55841	0.60947
515.50461	0.61463
513.45080	0.62033
511.39700	0.62537
509.34320	0.63045
507.28939	0.63492
505.23559	0.63770
503.18179	0.63953
501.12798	0.64060
499.07418	0.64152
497.02038	0.64215
494.96657	0.63996
492.91277	0.63386
490.85897	0.62627
488.80516	0.61946
486.75136	0.61259
484.69756	0.60354
482.64375	0.59062
480.58995	0.57519
478.53615	0.56159
476.48234	0.55146
474.42854	0.54256
472.37474	0.53318
470.32093	0.52569
468.26713	0.52254
466.21333	0.52203
464.15953	0.52311
462.10572	0.52651
460.05192	0.53188
457.99812	0.53963
455.94431	0.54806
453.89051	0.55499
451.83671	0.56359
449.78290	0.57147
447.72910	0.57381
445.67530	0.57573
443.62149	0.58082
441.56769	0.58370
439.51389	0.58347
437.46008	0.58271
435.40628	0.58046
433.35248	0.57730
431.29867	0.57656
429.24487	0.57752
427.19107	0.57822
425.13726	0.57961
423.08346	0.58232
421.02966	0.58836
418.97585	0.59292
416.92205	0.58964
414.86825	0.58925
412.81445	0.59231
410.76064	0.59608
408.70684	0.60208
406.65304	0.60890
404.59923	0.61463
402.54543	0.61784
400.49163	0.61825
398.43782	0.62158
