3996.70104	0.95744
3994.64724	0.95730
3992.59344	0.95708
3990.53964	0.95679
3988.48583	0.95663
3986.43203	0.95672
3984.37823	0.95686
3982.32442	0.95722
3980.27062	0.95775
3978.21682	0.95807
3976.16301	0.95788
3974.10921	0.95728
3972.05541	0.95692
3970.00160	0.95701
3967.94780	0.95721
3965.89400	0.95715
3963.84019	0.95711
3961.78639	0.95759
3959.73259	0.95798
3957.67878	0.95755
3955.62498	0.95688
3953.57118	0.95691
3951.51737	0.95735
3949.46357	0.95748
3947.40977	0.95766
3945.35596	0.95818
3943.30216	0.95839
3941.24836	0.95802
3939.19455	0.95768
3937.14075	0.95776
3935.08695	0.95805
3933.03315	0.95845
3930.97934	0.95891
3928.92554	0.95903
3926.87174	0.95869
3924.81793	0.95793
3922.76413	0.95736
3920.71033	0.95761
3918.65652	0.95804
3916.60272	0.95801
3914.54892	0.95826
3912.49511	0.95900
3910.44131	0.95929
3908.38751	0.95919
3906.33370	0.95935
3904.27990	0.95942
3902.22610	0.95894
3900.17229	0.95855
3898.11849	0.95840
3896.06469	0.95833
3894.01088	0.95848
3891.95708	0.95877
3889.90328	0.95906
3887.84947	0.95943
3885.79567	0.95935
3883.74187	0.95892
3881.68807	0.95907
3879.63426	0.95940
3877.58046	0.95963
3875.52666	0.95973
3873.47285	0.95969
3871.41905	0.95983
3869.36525	0.95944
3867.31144	0.95899
3865.25764	0.95922
3863.20384	0.95936
3861.15003	0.95921
3859.09623	0.95923
3857.04243	0.95947
3854.98862	0.96022
3852.93482	0.96157
3850.88102	0.96160
3848.82721	0.96059
3846.77341	0.95979
3844.71961	0.95922
3842.66580	0.95866
3840.61200	0.95879
3838.55820	0.95981
3836.50439	0.96074
3834.45059	0.96122
3832.39679	0.96114
3830.34298	0.96032
3828.28918	0.95923
3826.23538	0.95885
3824.18158	0.95959
3822.12777	0.96030
3820.07397	0.95976
3818.02017	0.95906
3815.96636	0.95956
3813.91256	0.96087
3811.85876	0.96161
3809.80495	0.96136
3807.75115	0.96054
3805.69735	0.96056
3803.64354	0.96149
3801.58974	0.96169
3799.53594	0.96108
3797.48213	0.96055
3795.42833	0.96011
3793.37453	0.95996
3791.32072	0.96001
3789.26692	0.96034
3787.21312	0.96087
3785.15931	0.96089
3783.10551	0.96045
3781.05171	0.96019
3778.99790	0.96053
3776.94410	0.96121
3774.89030	0.96162
3772.83650	0.96166
3770.78269	0.96140
3768.72889	0.96103
3766.67509	0.96081
3764.62128	0.96084
3762.56748	0.96140
3760.51368	0.96209
3758.45987	0.96207
3756.40607	0.96171
3754.35227	0.96175
3752.29846	0.96179
3750.24466	0.96099
3748.19086	0.96049
3746.13705	0.96138
3744.08325	0.96307
3742.02945	0.96380
3739.97564	0.96332
3737.92184	0.96270
3735.86804	0.96246
3733.81423	0.96230
3731.76043	0.96205
3729.70663	0.96184
3727.65282	0.96186
3725.59902	0.96254
3723.54522	0.96353
3721.49141	0.96357
3719.43761	0.96265
3717.38381	0.96205
3715.33001	0.96186
3713.27620	0.96160
3711.22240	0.96131
3709.16860	0.96033
3707.11479	0.95871
3705.06099	0.95730
3703.00719	0.95626
3700.95338	0.95522
3698.89958	0.95396
3696.84578	0.95306
3694.79197	0.95317
3692.73817	0.95390
3690.68437	0.95469
3688.63056	0.95549
3686.57676	0.95572
3684.52296	0.95555
3682.46915	0.95538
3680.41535	0.95502
3678.36155	0.95450
3676.30774	0.95430
3674.25394	0.95400
3672.20014	0.95346
3670.14633	0.95308
3668.09253	0.95273
3666.03873	0.95236
3663.98492	0.95150
3661.93112	0.95012
3659.87732	0.94900
3657.82352	0.94826
3655.76971	0.94730
3653.71591	0.94604
3651.66211	0.94459
3649.60830	0.94260
3647.55450	0.94129
3645.50070	0.94153
3643.44689	0.94139
3641.39309	0.94048
3639.33929	0.93941
3637.28548	0.93811
3635.23168	0.93691
3633.17788	0.93596
3631.12407	0.93500
3629.07027	0.93390
3627.01647	0.93220
3624.96266	0.93064
3622.90886	0.93004
3620.85506	0.92952
3618.80125	0.92815
3616.74745	0.92736
3614.69365	0.92715
3612.63984	0.92733
3610.58604	0.92801
3608.53224	0.92745
3606.47844	0.92580
3604.42463	0.92482
3602.37083	0.92426
3600.31703	0.92368
3598.26322	0.92321
3596.20942	0.92251
3594.15562	0.92134
3592.10181	0.92058
3590.04801	0.92029
3587.99421	0.91935
3585.94040	0.91788
3583.88660	0.91667
3581.83280	0.91578
3579.77899	0.91508
3577.72519	0.91431
3575.67139	0.91371
3573.61758	0.91334
3571.56378	0.91267
3569.50998	0.91153
3567.45617	0.90990
3565.40237	0.90879
3563.34857	0.90844
3561.29476	0.90743
3559.24096	0.90581
3557.18716	0.90443
3555.13335	0.90324
3553.07955	0.90193
3551.02575	0.90050
3548.97195	0.89948
3546.91814	0.89928
3544.86434	0.89912
3542.81054	0.89789
3540.75673	0.89648
3538.70293	0.89575
3536.64913	0.89494
3534.59532	0.89373
3532.54152	0.89261
3530.48772	0.89155
3528.43391	0.89042
3526.38011	0.88911
3524.32631	0.88770
3522.27250	0.88650
3520.21870	0.88566
3518.16490	0.88494
3516.11109	0.88417
3514.05729	0.88353
3512.00349	0.88302
3509.94968	0.88229
3507.89588	0.88111
3505.84208	0.88001
3503.78827	0.87931
3501.73447	0.87866
3499.68067	0.87783
3497.62687	0.87668
3495.57306	0.87554
3493.51926	0.87479
3491.46546	0.87408
3489.41165	0.87334
3487.35785	0.87241
3485.30405	0.87093
3483.25024	0.86934
3481.19644	0.86806
3479.14264	0.86728
3477.08883	0.86674
3475.03503	0.86576
3472.98123	0.86439
3470.92742	0.86319
3468.87362	0.86264
3466.81982	0.86246
3464.76601	0.86169
3462.71221	0.86009
3460.65841	0.85837
3458.60460	0.85733
3456.55080	0.85672
3454.49700	0.85573
3452.44319	0.85446
3450.38939	0.85347
3448.33559	0.85277
3446.28178	0.85214
3444.22798	0.85178
3442.17418	0.85148
3440.12038	0.85095
3438.06657	0.85006
3436.01277	0.84885
3433.95897	0.84775
3431.90516	0.84701
3429.85136	0.84634
3427.79756	0.84532
3425.74375	0.84397
3423.68995	0.84291
3421.63615	0.84250
3419.58234	0.84223
3417.52854	0.84140
3415.47474	0.84041
3413.42093	0.83986
3411.36713	0.83909
3409.31333	0.83763
3407.25952	0.83637
3405.20572	0.83591
3403.15192	0.83577
3401.09811	0.83542
3399.04431	0.83479
3396.99051	0.83388
3394.93670	0.83315
3392.88290	0.83269
3390.82910	0.83193
3388.77529	0.83115
3386.72149	0.83078
3384.66769	0.83043
3382.61389	0.82990
3380.56008	0.82921
3378.50628	0.82836
3376.45248	0.82775
3374.39867	0.82761
3372.34487	0.82754
3370.29107	0.82722
3368.23726	0.82688
3366.18346	0.82668
3364.12966	0.82629
3362.07585	0.82580
3360.02205	0.82550
3357.96825	0.82533
3355.91444	0.82539
3353.86064	0.82548
3351.80684	0.82527
3349.75303	0.82483
3347.69923	0.82439
3345.64543	0.82404
3343.59162	0.82356
3341.53782	0.82323
3339.48402	0.82333
3337.43021	0.82360
3335.37641	0.82378
3333.32261	0.82394
3331.26881	0.82412
3329.21500	0.82424
3327.16120	0.82434
3325.10740	0.82422
3323.05359	0.82374
3320.99979	0.82331
3318.94599	0.82341
3316.89218	0.82385
3314.83838	0.82427
3312.78458	0.82473
3310.73077	0.82515
3308.67697	0.82551
3306.62317	0.82577
3304.56936	0.82597
3302.51556	0.82611
3300.46176	0.82601
3298.40795	0.82596
3296.35415	0.82635
3294.30035	0.82664
3292.24654	0.82632
3290.19274	0.82584
3288.13894	0.82568
3286.08513	0.82605
3284.03133	0.82681
3281.97753	0.82737
3279.92372	0.82745
3277.86992	0.82740
3275.81612	0.82765
3273.76232	0.82819
3271.70851	0.82885
3269.65471	0.82936
3267.60091	0.82961
3265.54710	0.82981
3263.49330	0.83021
3261.43950	0.83088
3259.38569	0.83146
3257.33189	0.83173
3255.27809	0.83190
3253.22428	0.83221
3251.17048	0.83259
3249.11668	0.83309
3247.06287	0.83360
3245.00907	0.83392
3242.95527	0.83436
3240.90146	0.83508
3238.84766	0.83557
3236.79386	0.83573
3234.74005	0.83609
3232.68625	0.83692
3230.63245	0.83811
3228.57864	0.83938
3226.52484	0.84012
3224.47104	0.84003
3222.41724	0.83992
3220.36343	0.84054
3218.30963	0.84136
3216.25583	0.84198
3214.20202	0.84263
3212.14822	0.84337
3210.09442	0.84387
3208.04061	0.84398
3205.98681	0.84452
3203.93301	0.84582
3201.87920	0.84698
3199.82540	0.84764
3197.77160	0.84817
3195.71779	0.84878
3193.66399	0.84952
3191.61019	0.85063
3189.55638	0.85177
3187.50258	0.85257
3185.44878	0.85327
3183.39497	0.85390
3181.34117	0.85478
3179.28737	0.85605
3177.23356	0.85708
3175.17976	0.85770
3173.12596	0.85829
3171.07215	0.85904
3169.01835	0.85985
3166.96455	0.86055
3164.91075	0.86126
3162.85694	0.86200
3160.80314	0.86287
3158.74934	0.86421
3156.69553	0.86559
3154.64173	0.86632
3152.58793	0.86694
3150.53412	0.86796
3148.48032	0.86904
3146.42652	0.86972
3144.37271	0.87019
3142.31891	0.87097
3140.26511	0.87161
3138.21130	0.87206
3136.15750	0.87318
3134.10370	0.87473
3132.04989	0.87597
3129.99609	0.87679
3127.94229	0.87737
3125.88848	0.87780
3123.83468	0.87832
3121.78088	0.87911
3119.72707	0.87968
3117.67327	0.88003
3115.61947	0.88088
3113.56566	0.88196
3111.51186	0.88257
3109.45806	0.88305
3107.40426	0.88384
3105.35045	0.88469
3103.29665	0.88551
3101.24285	0.88644
3099.18904	0.88743
3097.13524	0.88795
3095.08144	0.88826
3093.02763	0.88887
3090.97383	0.88946
3088.92003	0.89001
3086.86622	0.89058
3084.81242	0.89105
3082.75862	0.89140
3080.70481	0.89176
3078.65101	0.89234
3076.59721	0.89296
3074.54340	0.89343
3072.48960	0.89377
3070.43580	0.89443
3068.38199	0.89561
3066.32819	0.89662
3064.27439	0.89723
3062.22058	0.89788
3060.16678	0.89860
3058.11298	0.89922
3056.05918	0.89983
3054.00537	0.90051
3051.95157	0.90115
3049.89777	0.90172
3047.84396	0.90225
3045.79016	0.90273
3043.73636	0.90334
3041.68255	0.90392
3039.62875	0.90441
3037.57495	0.90519
3035.52114	0.90611
3033.46734	0.90689
3031.41354	0.90763
3029.35973	0.90795
3027.30593	0.90793
3025.25213	0.90827
3023.19832	0.90891
3021.14452	0.90940
3019.09072	0.90967
3017.03691	0.90977
3014.98311	0.90983
3012.92931	0.91020
3010.87550	0.91092
3008.82170	0.91161
3006.76790	0.91206
3004.71409	0.91227
3002.66029	0.91229
3000.60649	0.91222
2998.55269	0.91213
2996.49888	0.91197
2994.44508	0.91213
2992.39128	0.91263
2990.33747	0.91290
2988.28367	0.91277
2986.22987	0.91253
2984.17606	0.91260
2982.12226	0.91273
2980.06846	0.91236
2978.01465	0.91180
2975.96085	0.91140
2973.90705	0.91095
2971.85324	0.91053
2969.79944	0.91036
2967.74564	0.90998
2965.69183	0.90911
2963.63803	0.90817
2961.58423	0.90774
2959.53042	0.90792
2957.47662	0.90824
2955.42282	0.90815
2953.36901	0.90750
2951.31521	0.90652
2949.26141	0.90572
2947.20761	0.90520
2945.15380	0.90452
2943.10000	0.90382
2941.04620	0.90354
2938.99239	0.90348
2936.93859	0.90332
2934.88479	0.90320
2932.83098	0.90313
2930.77718	0.90281
2928.72338	0.90256
2926.66957	0.90287
2924.61577	0.90334
2922.56197	0.90336
2920.50816	0.90317
2918.45436	0.90332
2916.40056	0.90381
2914.34675	0.90443
2912.29295	0.90538
2910.23915	0.90650
2908.18534	0.90726
2906.13154	0.90779
2904.07774	0.90858
2902.02393	0.90942
2899.97013	0.90989
2897.91633	0.91012
2895.86252	0.91023
2893.80872	0.91023
2891.75492	0.91063
2889.70112	0.91148
2887.64731	0.91199
2885.59351	0.91208
2883.53971	0.91227
2881.48590	0.91246
2879.43210	0.91243
2877.37830	0.91251
2875.32449	0.91282
2873.27069	0.91322
2871.21689	0.91387
2869.16308	0.91478
2867.10928	0.91569
2865.05548	0.91644
2863.00167	0.91694
2860.94787	0.91736
2858.89407	0.91782
2856.84026	0.91815
2854.78646	0.91828
2852.73266	0.91810
2850.67885	0.91771
2848.62505	0.91779
2846.57125	0.91874
2844.51744	0.92000
2842.46364	0.92089
2840.40984	0.92150
2838.35603	0.92215
2836.30223	0.92313
2834.24843	0.92432
2832.19463	0.92513
2830.14082	0.92559
2828.08702	0.92636
2826.03322	0.92749
2823.97941	0.92835
2821.92561	0.92853
2819.87181	0.92845
2817.81800	0.92874
2815.76420	0.92937
2813.71040	0.92992
2811.65659	0.93035
2809.60279	0.93094
2807.54899	0.93164
2805.49518	0.93197
2803.44138	0.93211
2801.38758	0.93255
2799.33377	0.93303
2797.27997	0.93324
2795.22617	0.93336
2793.17236	0.93357
2791.11856	0.93399
2789.06476	0.93440
2787.01095	0.93449
2784.95715	0.93443
2782.90335	0.93442
2780.84955	0.93429
2778.79574	0.93431
2776.74194	0.93497
2774.68814	0.93579
2772.63433	0.93609
2770.58053	0.93612
2768.52673	0.93619
2766.47292	0.93640
2764.41912	0.93688
2762.36532	0.93731
2760.31151	0.93723
2758.25771	0.93700
2756.20391	0.93692
2754.15010	0.93677
2752.09630	0.93680
2750.04250	0.93746
2747.98869	0.93823
2745.93489	0.93833
2743.88109	0.93816
2741.82728	0.93824
2739.77348	0.93832
2737.71968	0.93849
2735.66587	0.93881
2733.61207	0.93889
2731.55827	0.93890
2729.50446	0.93915
2727.45066	0.93940
2725.39686	0.93945
2723.34306	0.93945
2721.28925	0.93946
2719.23545	0.93955
2717.18165	0.93996
2715.12784	0.94056
2713.07404	0.94078
2711.02024	0.94073
2708.96643	0.94078
2706.91263	0.94075
2704.85883	0.94065
2702.80502	0.94072
2700.75122	0.94088
2698.69742	0.94092
2696.64361	0.94105
2694.58981	0.94155
2692.53601	0.94197
2690.48220	0.94203
2688.42840	0.94201
2686.37460	0.94219
2684.32079	0.94255
2682.26699	0.94265
2680.21319	0.94250
2678.15938	0.94250
2676.10558	0.94264
2674.05178	0.94284
2671.99797	0.94311
2669.94417	0.94318
2667.89037	0.94293
2665.83657	0.94296
2663.78276	0.94335
2661.72896	0.94360
2659.67516	0.94366
2657.62135	0.94361
2655.56755	0.94328
2653.51375	0.94297
2651.45994	0.94325
2649.40614	0.94389
2647.35234	0.94453
2645.29853	0.94516
2643.24473	0.94543
2641.19093	0.94519
2639.13712	0.94494
2637.08332	0.94495
2635.02952	0.94505
2632.97571	0.94545
2630.92191	0.94612
2628.86811	0.94643
2626.81430	0.94617
2624.76050	0.94569
2622.70670	0.94531
2620.65289	0.94539
2618.59909	0.94587
2616.54529	0.94622
2614.49149	0.94663
2612.43768	0.94733
2610.38388	0.94766
2608.33008	0.94718
2606.27627	0.94659
2604.22247	0.94696
2602.16867	0.94799
2600.11486	0.94869
2598.06106	0.94889
2596.00726	0.94868
2593.95345	0.94823
2591.89965	0.94781
2589.84585	0.94785
2587.79204	0.94843
2585.73824	0.94857
2583.68444	0.94799
2581.63063	0.94782
2579.57683	0.94839
2577.52303	0.94871
2575.46922	0.94837
2573.41542	0.94819
2571.36162	0.94870
2569.30781	0.94961
2567.25401	0.95021
2565.20021	0.95007
2563.14640	0.94967
2561.09260	0.94915
2559.03880	0.94840
2556.98500	0.94835
2554.93119	0.94903
2552.87739	0.94967
2550.82359	0.94984
2548.76978	0.94976
2546.71598	0.95022
2544.66218	0.95109
2542.60837	0.95142
2540.55457	0.95106
2538.50077	0.95105
2536.44696	0.95170
2534.39316	0.95218
2532.33936	0.95222
2530.28555	0.95202
2528.23175	0.95200
2526.17795	0.95221
2524.12414	0.95227
2522.07034	0.95190
2520.01654	0.95124
2517.96273	0.95118
2515.90893	0.95163
2513.85513	0.95161
2511.80132	0.95144
2509.74752	0.95150
2507.69372	0.95134
2505.63992	0.95143
2503.58611	0.95186
2501.53231	0.95213
2499.47851	0.95232
2497.42470	0.95233
2495.37090	0.95241
2493.31710	0.95302
2491.26329	0.95349
2489.20949	0.95311
2487.15569	0.95254
2485.10188	0.95260
2483.04808	0.95286
2480.99428	0.95323
2478.94047	0.95366
2476.88667	0.95343
2474.83287	0.95300
2472.77906	0.95303
2470.72526	0.95300
2468.67146	0.95268
2466.61765	0.95282
2464.56385	0.95335
2462.51005	0.95342
2460.45624	0.95340
2458.40244	0.95385
2456.34864	0.95423
2454.29483	0.95421
2452.24103	0.95406
2450.18723	0.95412
2448.13343	0.95432
2446.07962	0.95428
2444.02582	0.95406
2441.97202	0.95434
2439.91821	0.95493
2437.86441	0.95511
2435.81061	0.95488
2433.75680	0.95429
2431.70300	0.95403
2429.64920	0.95457
2427.59539	0.95507
2425.54159	0.95499
2423.48779	0.95491
2421.43398	0.95495
2419.38018	0.95465
2417.32638	0.95426
2415.27257	0.95402
2413.21877	0.95418
2411.16497	0.95486
2409.11116	0.95529
2407.05736	0.95491
2405.00356	0.95445
2402.94975	0.95460
2400.89595	0.95480
2398.84215	0.95489
2396.78834	0.95510
2394.73454	0.95505
2392.68074	0.95492
2390.62694	0.95535
2388.57313	0.95591
2386.51933	0.95590
2384.46553	0.95564
2382.41172	0.95578
2380.35792	0.95611
2378.30412	0.95636
2376.25031	0.95676
2374.19651	0.95702
2372.14271	0.95680
2370.08890	0.95610
2368.03510	0.95570
2365.98130	0.95575
2363.92749	0.95465
2361.87369	0.95331
2359.81989	0.95330
2357.76608	0.95357
2355.71228	0.95331
2353.65848	0.95286
2351.60467	0.95328
2349.55087	0.95442
2347.49707	0.95488
2345.44326	0.95446
2343.38946	0.95413
2341.33566	0.95456
2339.28186	0.95546
2337.22805	0.95560
2335.17425	0.95478
2333.12045	0.95452
2331.06664	0.95511
2329.01284	0.95529
2326.95904	0.95496
2324.90523	0.95454
2322.85143	0.95418
2320.79763	0.95418
2318.74382	0.95468
2316.69002	0.95539
2314.63622	0.95524
2312.58241	0.95468
2310.52861	0.95489
2308.47481	0.95526
2306.42100	0.95541
2304.36720	0.95543
2302.31340	0.95535
2300.25959	0.95558
2298.20579	0.95606
2296.15199	0.95629
2294.09818	0.95639
2292.04438	0.95653
2289.99058	0.95620
2287.93677	0.95546
2285.88297	0.95480
2283.82917	0.95431
2281.77537	0.95426
2279.72156	0.95442
2277.66776	0.95453
2275.61396	0.95508
2273.56015	0.95552
2271.50635	0.95541
2269.45255	0.95569
2267.39874	0.95658
2265.34494	0.95734
2263.29114	0.95716
2261.23733	0.95663
2259.18353	0.95674
2257.12973	0.95661
2255.07592	0.95615
2253.02212	0.95673
2250.96832	0.95779
2248.91451	0.95795
2246.86071	0.95788
2244.80691	0.95817
2242.75310	0.95768
2240.69930	0.95647
2238.64550	0.95677
2236.59169	0.95868
2234.53789	0.95871
2232.48409	0.95700
2230.43029	0.95678
2228.37648	0.95693
2226.32268	0.95572
2224.26888	0.95549
2222.21507	0.95751
2220.16127	0.95892
2218.10747	0.95850
2216.05366	0.95806
2213.99986	0.95751
2211.94606	0.95675
2209.89225	0.95707
2207.83845	0.95792
2205.78465	0.95861
2203.73084	0.95925
2201.67704	0.95966
2199.62324	0.95972
2197.56943	0.95918
2195.51563	0.95940
2193.46183	0.96038
2191.40802	0.96013
2189.35422	0.95890
2187.30042	0.95852
2185.24661	0.95958
2183.19281	0.96082
2181.13901	0.96120
2179.08520	0.96064
2177.03140	0.96007
2174.97760	0.96004
2172.92380	0.95984
2170.86999	0.95884
2168.81619	0.95717
2166.76239	0.95665
2164.70858	0.95736
2162.65478	0.95668
2160.60098	0.95530
2158.54717	0.95757
2156.49337	0.96151
2154.43957	0.96175
2152.38576	0.96067
2150.33196	0.96129
2148.27816	0.96166
2146.22435	0.96029
2144.17055	0.95960
2142.11675	0.96157
2140.06294	0.96394
2138.00914	0.96456
2135.95534	0.96402
2133.90153	0.96361
2131.84773	0.96292
2129.79393	0.96136
2127.74012	0.96029
2125.68632	0.96011
2123.63252	0.96038
2121.57871	0.96017
2119.52491	0.95901
2117.47111	0.95850
2115.41731	0.95903
2113.36350	0.95964
2111.30970	0.95989
2109.25590	0.95969
2107.20209	0.95962
2105.14829	0.96004
2103.09449	0.96026
2101.04068	0.95993
2098.98688	0.95948
2096.93308	0.95933
2094.87927	0.95961
2092.82547	0.95999
2090.77167	0.96007
2088.71786	0.95916
2086.66406	0.95791
2084.61026	0.95771
2082.55645	0.95837
2080.50265	0.95923
2078.44885	0.96016
2076.39504	0.96099
2074.34124	0.96113
2072.28744	0.96076
2070.23363	0.96106
2068.17983	0.96172
2066.12603	0.96172
2064.07223	0.96206
2062.01842	0.96294
2059.96462	0.96290
2057.91082	0.96286
2055.85701	0.96359
2053.80321	0.96243
2051.74941	0.95999
2049.69560	0.96049
2047.64180	0.96319
2045.58800	0.96384
2043.53419	0.96247
2041.48039	0.96162
2039.42659	0.96136
2037.37278	0.96088
2035.31898	0.96000
2033.26518	0.95961
2031.21137	0.96134
2029.15757	0.96322
2027.10377	0.96242
2025.04996	0.96124
2022.99616	0.96194
2020.94236	0.96302
2018.88855	0.96389
2016.83475	0.96479
2014.78095	0.96546
2012.72714	0.96590
2010.67334	0.96498
2008.61954	0.96398
2006.56574	0.96488
2004.51193	0.96470
2002.45813	0.96330
2000.40433	0.96335
1998.35052	0.96364
1996.29672	0.96333
1994.24292	0.96336
1992.18911	0.96434
1990.13531	0.96693
1988.08151	0.96955
1986.02770	0.96930
1983.97390	0.96643
1981.92010	0.96377
1979.86629	0.96354
1977.81249	0.96556
1975.75869	0.96807
1973.70488	0.96939
1971.65108	0.96847
1969.59728	0.96609
1967.54347	0.96471
1965.48967	0.96593
1963.43587	0.96639
1961.38206	0.96385
1959.32826	0.96255
1957.27446	0.96392
1955.22066	0.96523
1953.16685	0.96642
1951.11305	0.96759
1949.05925	0.96765
1947.00544	0.96717
1944.95164	0.96671
1942.89784	0.96526
1940.84403	0.96385
1938.79023	0.96463
1936.73643	0.96680
1934.68262	0.96804
1932.62882	0.96741
1930.57502	0.96643
1928.52121	0.96654
1926.46741	0.96711
1924.41361	0.96684
1922.35980	0.96617
1920.30600	0.96631
1918.25220	0.96654
1916.19839	0.96617
1914.14459	0.96581
1912.09079	0.96608
1910.03698	0.96679
1907.98318	0.96741
1905.92938	0.96752
1903.87557	0.96687
1901.82177	0.96638
1899.76797	0.96657
1897.71417	0.96665
1895.66036	0.96614
1893.60656	0.96558
1891.55276	0.96550
1889.49895	0.96606
1887.44515	0.96701
1885.39135	0.96711
1883.33754	0.96656
1881.28374	0.96664
1879.22994	0.96708
1877.17613	0.96713
1875.12233	0.96692
1873.06853	0.96664
1871.01472	0.96662
1868.96092	0.96673
1866.90712	0.96652
1864.85331	0.96662
1862.79951	0.96674
1860.74571	0.96639
1858.69190	0.96605
1856.63810	0.96633
1854.58430	0.96728
1852.53049	0.96809
1850.47669	0.96790
1848.42289	0.96722
1846.36908	0.96698
1844.31528	0.96753
1842.26148	0.96804
1840.20768	0.96749
1838.15387	0.96676
1836.10007	0.96662
1834.04627	0.96675
1831.99246	0.96706
1829.93866	0.96771
1827.88486	0.96811
1825.83105	0.96788
1823.77725	0.96754
1821.72345	0.96731
1819.66964	0.96744
1817.61584	0.96798
1815.56204	0.96809
1813.50823	0.96740
1811.45443	0.96675
1809.40063	0.96696
1807.34682	0.96760
1805.29302	0.96794
1803.23922	0.96767
1801.18541	0.96684
1799.13161	0.96637
1797.07781	0.96658
1795.02400	0.96693
1792.97020	0.96670
1790.91640	0.96608
1788.86260	0.96614
1786.80879	0.96618
1784.75499	0.96553
1782.70119	0.96499
1780.64738	0.96508
1778.59358	0.96511
1776.53978	0.96491
1774.48597	0.96474
1772.43217	0.96444
1770.37837	0.96421
1768.32456	0.96432
1766.27076	0.96421
1764.21696	0.96378
1762.16315	0.96341
1760.10935	0.96279
1758.05555	0.96181
1756.00174	0.96110
1753.94794	0.96069
1751.89414	0.95999
1749.84033	0.95936
1747.78653	0.95913
1745.73273	0.95842
1743.67892	0.95740
1741.62512	0.95677
1739.57132	0.95652
1737.51751	0.95623
1735.46371	0.95554
1733.40991	0.95431
1731.35611	0.95371
1729.30230	0.95358
1727.24850	0.95313
1725.19470	0.95223
1723.14089	0.95120
1721.08709	0.95073
1719.03329	0.95064
1716.97948	0.94975
1714.92568	0.94793
1712.87188	0.94654
1710.81807	0.94548
1708.76427	0.94446
1706.71047	0.94308
1704.65666	0.94123
1702.60286	0.93947
1700.54906	0.93691
1698.49525	0.93343
1696.44145	0.93051
1694.38765	0.92761
1692.33384	0.92481
1690.28004	0.92184
1688.22624	0.91887
1686.17243	0.91596
1684.11863	0.91106
1682.06483	0.90596
1680.01103	0.90284
1677.95722	0.90012
1675.90342	0.89654
1673.84962	0.89241
1671.79581	0.88908
1669.74201	0.88488
1667.68821	0.88004
1665.63440	0.87678
1663.58060	0.87388
1661.52680	0.87009
1659.47299	0.86650
1657.41919	0.86412
1655.36539	0.86255
1653.31158	0.85924
1651.25778	0.85548
1649.20398	0.85417
1647.15017	0.85245
1645.09637	0.84986
1643.04257	0.84800
1640.98876	0.84671
1638.93496	0.84578
1636.88116	0.84435
1634.82735	0.84179
1632.77355	0.84027
1630.71975	0.83973
1628.66594	0.83947
1626.61214	0.83943
1624.55834	0.83904
1622.50454	0.83849
1620.45073	0.83856
1618.39693	0.83869
1616.34313	0.83872
1614.28932	0.83924
1612.23552	0.83956
1610.18172	0.83938
1608.12791	0.83895
1606.07411	0.83836
1604.02031	0.83763
1601.96650	0.83676
1599.91270	0.83579
1597.85890	0.83494
1595.80509	0.83440
1593.75129	0.83452
1591.69749	0.83577
1589.64368	0.83831
1587.58988	0.84167
1585.53608	0.84526
1583.48227	0.84876
1581.42847	0.85226
1579.37467	0.85573
1577.32086	0.85936
1575.26706	0.86369
1573.21326	0.86694
1571.15945	0.86897
1569.10565	0.87114
1567.05185	0.87341
1564.99805	0.87520
1562.94424	0.87674
1560.89044	0.87843
1558.83664	0.88017
1556.78283	0.88104
1554.72903	0.88181
1552.67523	0.88266
1550.62142	0.88344
1548.56762	0.88412
1546.51382	0.88485
1544.46001	0.88595
1542.40621	0.88729
1540.35241	0.88855
1538.29860	0.89006
1536.24480	0.89153
1534.19100	0.89260
1532.13719	0.89339
1530.08339	0.89440
1528.02959	0.89538
1525.97578	0.89537
1523.92198	0.89403
1521.86818	0.89115
1519.81437	0.88725
1517.76057	0.88300
1515.70677	0.87763
1513.65297	0.87287
1511.59916	0.86946
1509.54536	0.86710
1507.49156	0.86558
1505.43775	0.86550
1503.38395	0.86734
1501.33015	0.87011
1499.27634	0.87399
1497.22254	0.87920
1495.16874	0.88421
1493.11493	0.88786
1491.06113	0.89112
1489.00733	0.89439
1486.95352	0.89706
1484.89972	0.89894
1482.84592	0.89984
1480.79211	0.89962
1478.73831	0.89840
1476.68451	0.89599
1474.63070	0.89168
1472.57690	0.88495
1470.52310	0.87836
1468.46929	0.87384
1466.41549	0.86997
1464.36169	0.86647
1462.30788	0.86449
1460.25408	0.86375
1458.20028	0.86299
1456.14648	0.86165
1454.09267	0.86123
1452.03887	0.86220
1449.98507	0.86390
1447.93126	0.86567
1445.87746	0.86762
1443.82366	0.86957
1441.76985	0.87067
1439.71605	0.87057
1437.66225	0.86914
1435.60844	0.86617
1433.55464	0.86269
1431.50084	0.85870
1429.44703	0.85397
1427.39323	0.84961
1425.33943	0.84607
1423.28562	0.84332
1421.23182	0.84186
1419.17802	0.84147
1417.12421	0.84223
1415.07041	0.84408
1413.01661	0.84656
1410.96280	0.84938
1408.90900	0.85232
1406.85520	0.85524
1404.80139	0.85807
1402.74759	0.86045
1400.69379	0.86238
1398.63999	0.86445
1396.58618	0.86640
1394.53238	0.86769
1392.47858	0.86853
1390.42477	0.86921
1388.37097	0.86967
1386.31717	0.86982
1384.26336	0.86993
1382.20956	0.87030
1380.15576	0.87078
1378.10195	0.87101
1376.04815	0.87084
1373.99435	0.87051
1371.94054	0.87064
1369.88674	0.87122
1367.83294	0.87171
1365.77913	0.87217
1363.72533	0.87309
1361.67153	0.87454
1359.61772	0.87569
1357.56392	0.87615
1355.51012	0.87648
1353.45631	0.87679
1351.40251	0.87694
1349.34871	0.87707
1347.29491	0.87672
1345.24110	0.87577
1343.18730	0.87487
1341.13350	0.87388
1339.07969	0.87219
1337.02589	0.87025
1334.97209	0.86875
1332.91828	0.86779
1330.86448	0.86712
1328.81068	0.86660
1326.75687	0.86663
1324.70307	0.86725
1322.64927	0.86816
1320.59546	0.86933
1318.54166	0.87079
1316.48786	0.87225
1314.43405	0.87381
1312.38025	0.87580
1310.32645	0.87789
1308.27264	0.87989
1306.21884	0.88178
1304.16504	0.88337
1302.11123	0.88482
1300.05743	0.88596
1298.00363	0.88648
1295.94982	0.88657
1293.89602	0.88660
1291.84222	0.88647
1289.78842	0.88581
1287.73461	0.88462
1285.68081	0.88295
1283.62701	0.88062
1281.57320	0.87799
1279.51940	0.87541
1277.46560	0.87258
1275.41179	0.86925
1273.35799	0.86598
1271.30419	0.86334
1269.25038	0.86132
1267.19658	0.85994
1265.14278	0.85932
1263.08897	0.85950
1261.03517	0.86047
1258.98137	0.86185
1256.92756	0.86316
1254.87376	0.86461
1252.81996	0.86610
1250.76615	0.86706
1248.71235	0.86741
1246.65855	0.86736
1244.60474	0.86703
1242.55094	0.86648
1240.49714	0.86585
1238.44334	0.86500
1236.38953	0.86376
1234.33573	0.86229
1232.28193	0.86071
1230.22812	0.85912
1228.17432	0.85747
1226.12052	0.85595
1224.06671	0.85499
1222.01291	0.85456
1219.95911	0.85449
1217.90530	0.85489
1215.85150	0.85569
1213.79770	0.85669
1211.74389	0.85784
1209.69009	0.85940
1207.63629	0.86139
1205.58248	0.86339
1203.52868	0.86527
1201.47488	0.86698
1199.42107	0.86837
1197.36727	0.86958
1195.31347	0.87047
1193.25966	0.87063
1191.20586	0.87043
1189.15206	0.87010
1187.09825	0.86924
1185.04445	0.86792
1182.99065	0.86643
1180.93685	0.86472
1178.88304	0.86271
1176.82924	0.85996
1174.77544	0.85594
1172.72163	0.85094
1170.66783	0.84551
1168.61403	0.83949
1166.56022	0.83262
1164.50642	0.82581
1162.45262	0.82007
1160.39881	0.81534
1158.34501	0.81112
1156.29121	0.80738
1154.23740	0.80416
1152.18360	0.80105
1150.12980	0.79759
1148.07599	0.79373
1146.02219	0.79000
1143.96839	0.78676
1141.91458	0.78398
1139.86078	0.78150
1137.80698	0.77853
1135.75317	0.77447
1133.69937	0.76948
1131.64557	0.76401
1129.59176	0.75853
1127.53796	0.75335
1125.48416	0.74833
1123.43036	0.74389
1121.37655	0.74063
1119.32275	0.73778
1117.26895	0.73434
1115.21514	0.73045
1113.16134	0.72674
1111.10754	0.72334
1109.05373	0.72007
1106.99993	0.71669
1104.94613	0.71314
1102.89232	0.70966
1100.83852	0.70628
1098.78472	0.70303
1096.73091	0.69979
1094.67711	0.69642
1092.62331	0.69355
1090.56950	0.69137
1088.51570	0.68916
1086.46190	0.68675
1084.40809	0.68441
1082.35429	0.68203
1080.30049	0.67927
1078.24668	0.67649
1076.19288	0.67417
1074.13908	0.67184
1072.08528	0.66890
1070.03147	0.66572
1067.97767	0.66239
1065.92387	0.65827
1063.87006	0.65339
1061.81626	0.64831
1059.76246	0.64309
1057.70865	0.63764
1055.65485	0.63209
1053.60105	0.62645
1051.54724	0.62047
1049.49344	0.61420
1047.43964	0.60783
1045.38583	0.60099
1043.33203	0.59322
1041.27823	0.58472
1039.22442	0.57588
1037.17062	0.56701
1035.11682	0.55853
1033.06301	0.55092
1031.00921	0.54486
1028.95541	0.54068
1026.90160	0.53781
1024.84780	0.53574
1022.79400	0.53483
1020.74019	0.53479
1018.68639	0.53475
1016.63259	0.53468
1014.57879	0.53472
1012.52498	0.53446
1010.47118	0.53350
1008.41738	0.53242
1006.36357	0.53237
1004.30977	0.53351
1002.25597	0.53563
1000.20216	0.53868
998.14836	0.54267
996.09456	0.54776
994.04075	0.55341
991.98695	0.55885
989.93315	0.56406
987.87934	0.56925
985.82554	0.57503
983.77174	0.58196
981.71793	0.58975
979.66413	0.59801
977.61033	0.60662
975.55652	0.61520
973.50272	0.62383
971.44892	0.63277
969.39511	0.64176
967.34131	0.65036
965.28751	0.65846
963.23371	0.66616
961.17990	0.67341
959.12610	0.68004
957.07230	0.68617
955.01849	0.69251
952.96469	0.69946
950.91089	0.70648
948.85708	0.71319
946.80328	0.71923
944.74948	0.72437
942.69567	0.72906
940.64187	0.73351
938.58807	0.73758
936.53426	0.74138
934.48046	0.74469
932.42666	0.74738
930.37285	0.75005
928.31905	0.75267
926.26525	0.75431
924.21144	0.75486
922.15764	0.75533
920.10384	0.75589
918.05003	0.75592
915.99623	0.75563
913.94243	0.75565
911.88862	0.75665
909.83482	0.75890
907.78102	0.76172
905.72722	0.76473
903.67341	0.76809
901.61961	0.77173
899.56581	0.77547
897.51200	0.77920
895.45820	0.78284
893.40440	0.78651
891.35059	0.79011
889.29679	0.79315
887.24299	0.79581
885.18918	0.79858
883.13538	0.80095
881.08158	0.80279
879.02777	0.80449
876.97397	0.80601
874.92017	0.80769
872.86636	0.80982
870.81256	0.81219
868.75876	0.81445
866.70495	0.81594
864.65115	0.81632
862.59735	0.81621
860.54354	0.81655
858.48974	0.81756
856.43594	0.81815
854.38213	0.81819
852.32833	0.81861
850.27453	0.81915
848.22073	0.81938
846.16692	0.81966
844.11312	0.81997
842.05932	0.81946
840.00551	0.81800
837.95171	0.81639
835.89791	0.81470
833.84410	0.81263
831.79030	0.81054
829.73650	0.80918
827.68269	0.80818
825.62889	0.80684
823.57509	0.80624
821.52128	0.80689
819.46748	0.80750
817.41368	0.80779
815.35987	0.80770
813.30607	0.80675
811.25227	0.80525
809.19846	0.80333
807.14466	0.80035
805.09086	0.79617
803.03705	0.79151
800.98325	0.78775
798.92945	0.78589
796.87565	0.78538
794.82184	0.78537
792.76804	0.78544
790.71424	0.78511
788.66043	0.78423
786.60663	0.78325
784.55283	0.78217
782.49902	0.78022
780.44522	0.77770
778.39142	0.77617
776.33761	0.77609
774.28381	0.77609
772.23001	0.77501
770.17620	0.77323
768.12240	0.77141
766.06860	0.76983
764.01479	0.76823
761.96099	0.76628
759.90719	0.76467
757.85338	0.76360
755.79958	0.76247
753.74578	0.76136
751.69197	0.76041
749.63817	0.75957
747.58437	0.75908
745.53056	0.75865
743.47676	0.75863
741.42296	0.75975
739.36916	0.76093
737.31535	0.76121
735.26155	0.76105
733.20775	0.76060
731.15394	0.75966
729.10014	0.75848
727.04634	0.75697
724.99253	0.75487
722.93873	0.75288
720.88493	0.75193
718.83112	0.75183
716.77732	0.75151
714.72352	0.75063
712.66971	0.74940
710.61591	0.74754
708.56211	0.74485
706.50830	0.74192
704.45450	0.73937
702.40070	0.73720
700.34689	0.73495
698.29309	0.73229
696.23929	0.72965
694.18548	0.72761
692.13168	0.72667
690.07788	0.72631
688.02408	0.72546
685.97027	0.72417
683.91647	0.72306
681.86267	0.72251
679.80886	0.72165
677.75506	0.71995
675.70126	0.71786
673.64745	0.71568
671.59365	0.71432
669.53985	0.71376
667.48604	0.71196
665.43224	0.70975
663.37844	0.70868
661.32463	0.70746
659.27083	0.70491
657.21703	0.70204
655.16322	0.69915
653.10942	0.69565
651.05562	0.69282
649.00181	0.69111
646.94801	0.69038
644.89421	0.69086
642.84040	0.69124
640.78660	0.69022
638.73280	0.68930
636.67899	0.68958
634.62519	0.69007
632.57139	0.69025
630.51759	0.68988
628.46378	0.68947
626.40998	0.68969
624.35618	0.68983
622.30237	0.68889
620.24857	0.68711
618.19477	0.68501
616.14096	0.68245
614.08716	0.67970
612.03336	0.67714
609.97955	0.67441
607.92575	0.67195
605.87195	0.66979
603.81814	0.66663
601.76434	0.66355
599.71054	0.66130
597.65673	0.65880
595.60293	0.65701
593.54913	0.65638
591.49532	0.65543
589.44152	0.65458
587.38772	0.65423
585.33391	0.65250
583.28011	0.64934
581.22631	0.64686
579.17250	0.64588
577.11870	0.64485
575.06490	0.64291
573.01110	0.64047
570.95729	0.63672
568.90349	0.63252
566.84969	0.62941
564.79588	0.62668
562.74208	0.62338
560.68828	0.61875
558.63447	0.61410
556.58067	0.61087
554.52687	0.60676
552.47306	0.60062
550.41926	0.59488
548.36546	0.59005
546.31165	0.58409
544.25785	0.57769
542.20405	0.57226
540.15024	0.56659
538.09644	0.56021
536.04264	0.55349
533.98883	0.54769
531.93503	0.54422
529.88123	0.54264
527.82742	0.54225
525.77362	0.54252
523.71982	0.54312
521.66602	0.54415
519.61221	0.54629
517.55841	0.54917
515.50461	0.55187
513.45080	0.55468
511.39700	0.55776
509.34320	0.56171
507.28939	0.56587
505.23559	0.56792
503.18179	0.56883
501.12798	0.57025
499.07418	0.56975
497.02038	0.56669
494.96657	0.56388
492.91277	0.56189
490.85897	0.55917
488.80516	0.55588
486.75136	0.55187
484.69756	0.54349
482.64375	0.53075
480.58995	0.51883
478.53615	0.50723
476.48234	0.49532
474.42854	0.48557
472.37474	0.47765
470.32093	0.47208
468.26713	0.46804
466.21333	0.46370
464.15953	0.46147
462.10572	0.46301
460.05192	0.46567
457.99812	0.46903
455.94431	0.47472
453.89051	0.47895
451.83671	0.48141
449.78290	0.48552
447.72910	0.48945
445.67530	0.48969
443.62149	0.48782
441.56769	0.48727
439.51389	0.48830
437.46008	0.48839
435.40628	0.48484
433.35248	0.48050
431.29867	0.48047
429.24487	0.48229
427.19107	0.48131
425.13726	0.47980
423.08346	0.48025
421.02966	0.48103
418.97585	0.48222
416.92205	0.48577
414.86825	0.48953
412.81445	0.49167
410.76064	0.49475
408.70684	0.50037
406.65304	0.50444
404.59923	0.50333
402.54543	0.49977
400.49163	0.49898
398.43782	0.50242
