3996.70104	0.97807
3994.64724	0.97851
3992.59344	0.97909
3990.53964	0.97900
3988.48583	0.97856
3986.43203	0.97817
3984.37823	0.97831
3982.32442	0.97901
3980.27062	0.97909
3978.21682	0.97833
3976.16301	0.97797
3974.10921	0.97825
3972.05541	0.97845
3970.00160	0.97848
3967.94780	0.97847
3965.89400	0.97852
3963.84019	0.97866
3961.78639	0.97864
3959.73259	0.97856
3957.67878	0.97885
3955.62498	0.97928
3953.57118	0.97937
3951.51737	0.97908
3949.46357	0.97885
3947.40977	0.97908
3945.35596	0.97933
3943.30216	0.97907
3941.24836	0.97862
3939.19455	0.97846
3937.14075	0.97839
3935.08695	0.97846
3933.03315	0.97905
3930.97934	0.97944
3928.92554	0.97914
3926.87174	0.97894
3924.81793	0.97897
3922.76413	0.97888
3920.71033	0.97869
3918.65652	0.97854
3916.60272	0.97860
3914.54892	0.97862
3912.49511	0.97846
3910.44131	0.97852
3908.38751	0.97878
3906.33370	0.97909
3904.27990	0.97925
3902.22610	0.97871
3900.17229	0.97846
3898.11849	0.97891
3896.06469	0.97897
3894.01088	0.97879
3891.95708	0.97882
3889.90328	0.97901
3887.84947	0.97926
3885.79567	0.97942
3883.74187	0.97938
3881.68807	0.97947
3879.63426	0.97959
3877.58046	0.97942
3875.52666	0.97931
3873.47285	0.97942
3871.41905	0.97955
3869.36525	0.97963
3867.31144	0.97954
3865.25764	0.97944
3863.20384	0.97938
3861.15003	0.97929
3859.09623	0.97945
3857.04243	0.97983
3854.98862	0.97988
3852.93482	0.97978
3850.88102	0.98009
3848.82721	0.98008
3846.77341	0.98002
3844.71961	0.98026
3842.66580	0.98048
3840.61200	0.98040
3838.55820	0.98024
3836.50439	0.98068
3834.45059	0.98153
3832.39679	0.98114
3830.34298	0.97943
3828.28918	0.97855
3826.23538	0.97870
3824.18158	0.97899
3822.12777	0.97972
3820.07397	0.98032
3818.02017	0.97993
3815.96636	0.97942
3813.91256	0.97920
3811.85876	0.97922
3809.80495	0.97961
3807.75115	0.98031
3805.69735	0.98069
3803.64354	0.98057
3801.58974	0.97999
3799.53594	0.97929
3797.48213	0.97910
3795.42833	0.97934
3793.37453	0.97958
3791.32072	0.97945
3789.26692	0.97917
3787.21312	0.97902
3785.15931	0.97882
3783.10551	0.97851
3781.05171	0.97849
3778.99790	0.97895
3776.94410	0.97933
3774.89030	0.97922
3772.83650	0.97919
3770.78269	0.97954
3768.72889	0.97973
3766.67509	0.97958
3764.62128	0.97921
3762.56748	0.97915
3760.51368	0.97958
3758.45987	0.97957
3756.40607	0.97958
3754.35227	0.98058
3752.29846	0.98198
3750.24466	0.98159
3748.19086	0.98008
3746.13705	0.98067
3744.08325	0.98240
3742.02945	0.98202
3739.97564	0.98084
3737.92184	0.98072
3735.86804	0.98151
3733.81423	0.98166
3731.76043	0.98123
3729.70663	0.98100
3727.65282	0.98030
3725.59902	0.97923
3723.54522	0.97898
3721.49141	0.97882
3719.43761	0.97813
3717.38381	0.97798
3715.33001	0.97823
3713.27620	0.97787
3711.22240	0.97616
3709.16860	0.97360
3707.11479	0.97146
3705.06099	0.96969
3703.00719	0.96775
3700.95338	0.96563
3698.89958	0.96401
3696.84578	0.96346
3694.79197	0.96406
3692.73817	0.96503
3690.68437	0.96584
3688.63056	0.96653
3686.57676	0.96750
3684.52296	0.96846
3682.46915	0.96853
3680.41535	0.96785
3678.36155	0.96750
3676.30774	0.96817
3674.25394	0.96887
3672.20014	0.96893
3670.14633	0.96900
3668.09253	0.96834
3666.03873	0.96747
3663.98492	0.96673
3661.93112	0.96567
3659.87732	0.96503
3657.82352	0.96526
3655.76971	0.96533
3653.71591	0.96496
3651.66211	0.96496
3649.60830	0.96468
3647.55450	0.96367
3645.50070	0.96315
3643.44689	0.96285
3641.39309	0.96286
3639.33929	0.96314
3637.28548	0.96290
3635.23168	0.96208
3633.17788	0.96130
3631.12407	0.96116
3629.07027	0.96104
3627.01647	0.95934
3624.96266	0.95748
3622.90886	0.95681
3620.85506	0.95744
3618.80125	0.95826
3616.74745	0.95817
3614.69365	0.95836
3612.63984	0.95917
3610.58604	0.95947
3608.53224	0.95952
3606.47844	0.95982
3604.42463	0.95974
3602.37083	0.95931
3600.31703	0.95897
3598.26322	0.95923
3596.20942	0.95997
3594.15562	0.96021
3592.10181	0.95994
3590.04801	0.96029
3587.99421	0.96126
3585.94040	0.96127
3583.88660	0.96019
3581.83280	0.95935
3579.77899	0.95906
3577.72519	0.95870
3575.67139	0.95827
3573.61758	0.95826
3571.56378	0.95834
3569.50998	0.95839
3567.45617	0.95832
3565.40237	0.95748
3563.34857	0.95657
3561.29476	0.95589
3559.24096	0.95504
3557.18716	0.95451
3555.13335	0.95458
3553.07955	0.95457
3551.02575	0.95414
3548.97195	0.95361
3546.91814	0.95332
3544.86434	0.95349
3542.81054	0.95341
3540.75673	0.95288
3538.70293	0.95280
3536.64913	0.95296
3534.59532	0.95239
3532.54152	0.95182
3530.48772	0.95193
3528.43391	0.95197
3526.38011	0.95168
3524.32631	0.95178
3522.27250	0.95195
3520.21870	0.95161
3518.16490	0.95094
3516.11109	0.95030
3514.05729	0.95020
3512.00349	0.95041
3509.94968	0.95034
3507.89588	0.95013
3505.84208	0.95008
3503.78827	0.95018
3501.73447	0.94995
3499.68067	0.94927
3497.62687	0.94888
3495.57306	0.94888
3493.51926	0.94841
3491.46546	0.94748
3489.41165	0.94732
3487.35785	0.94784
3485.30405	0.94812
3483.25024	0.94796
3481.19644	0.94757
3479.14264	0.94725
3477.08883	0.94695
3475.03503	0.94679
3472.98123	0.94703
3470.92742	0.94731
3468.87362	0.94719
3466.81982	0.94657
3464.76601	0.94555
3462.71221	0.94486
3460.65841	0.94495
3458.60460	0.94484
3456.55080	0.94412
3454.49700	0.94367
3452.44319	0.94374
3450.38939	0.94346
3448.33559	0.94282
3446.28178	0.94261
3444.22798	0.94278
3442.17418	0.94251
3440.12038	0.94163
3438.06657	0.94112
3436.01277	0.94133
3433.95897	0.94164
3431.90516	0.94165
3429.85136	0.94138
3427.79756	0.94096
3425.74375	0.94053
3423.68995	0.94032
3421.63615	0.94018
3419.58234	0.94008
3417.52854	0.94004
3415.47474	0.93973
3413.42093	0.93932
3411.36713	0.93892
3409.31333	0.93845
3407.25952	0.93805
3405.20572	0.93775
3403.15192	0.93767
3401.09811	0.93767
3399.04431	0.93773
3396.99051	0.93798
3394.93670	0.93797
3392.88290	0.93757
3390.82910	0.93705
3388.77529	0.93680
3386.72149	0.93702
3384.66769	0.93759
3382.61389	0.93814
3380.56008	0.93832
3378.50628	0.93841
3376.45248	0.93852
3374.39867	0.93836
3372.34487	0.93784
3370.29107	0.93724
3368.23726	0.93718
3366.18346	0.93756
3364.12966	0.93790
3362.07585	0.93800
3360.02205	0.93787
3357.96825	0.93793
3355.91444	0.93839
3353.86064	0.93866
3351.80684	0.93822
3349.75303	0.93751
3347.69923	0.93726
3345.64543	0.93738
3343.59162	0.93741
3341.53782	0.93741
3339.48402	0.93766
3337.43021	0.93787
3335.37641	0.93783
3333.32261	0.93795
3331.26881	0.93827
3329.21500	0.93857
3327.16120	0.93865
3325.10740	0.93819
3323.05359	0.93795
3320.99979	0.93845
3318.94599	0.93899
3316.89218	0.93924
3314.83838	0.93901
3312.78458	0.93849
3310.73077	0.93832
3308.67697	0.93858
3306.62317	0.93899
3304.56936	0.93925
3302.51556	0.93905
3300.46176	0.93867
3298.40795	0.93865
3296.35415	0.93872
3294.30035	0.93853
3292.24654	0.93848
3290.19274	0.93899
3288.13894	0.93962
3286.08513	0.93961
3284.03133	0.93946
3281.97753	0.94005
3279.92372	0.94074
3277.86992	0.94066
3275.81612	0.94027
3273.76232	0.93998
3271.70851	0.93969
3269.65471	0.93994
3267.60091	0.94075
3265.54710	0.94124
3263.49330	0.94129
3261.43950	0.94140
3259.38569	0.94168
3257.33189	0.94194
3255.27809	0.94232
3253.22428	0.94264
3251.17048	0.94254
3249.11668	0.94234
3247.06287	0.94217
3245.00907	0.94208
3242.95527	0.94223
3240.90146	0.94252
3238.84766	0.94275
3236.79386	0.94293
3234.74005	0.94314
3232.68625	0.94355
3230.63245	0.94404
3228.57864	0.94408
3226.52484	0.94383
3224.47104	0.94376
3222.41724	0.94384
3220.36343	0.94405
3218.30963	0.94433
3216.25583	0.94476
3214.20202	0.94527
3212.14822	0.94552
3210.09442	0.94577
3208.04061	0.94636
3205.98681	0.94671
3203.93301	0.94654
3201.87920	0.94657
3199.82540	0.94648
3197.77160	0.94616
3195.71779	0.94663
3193.66399	0.94759
3191.61019	0.94801
3189.55638	0.94801
3187.50258	0.94845
3185.44878	0.94906
3183.39497	0.94904
3181.34117	0.94887
3179.28737	0.94921
3177.23356	0.94942
3175.17976	0.94934
3173.12596	0.94969
3171.07215	0.95043
3169.01835	0.95081
3166.96455	0.95058
3164.91075	0.95055
3162.85694	0.95105
3160.80314	0.95138
3158.74934	0.95142
3156.69553	0.95173
3154.64173	0.95223
3152.58793	0.95265
3150.53412	0.95305
3148.48032	0.95320
3146.42652	0.95303
3144.37271	0.95314
3142.31891	0.95371
3140.26511	0.95404
3138.21130	0.95396
3136.15750	0.95403
3134.10370	0.95425
3132.04989	0.95428
3129.99609	0.95432
3127.94229	0.95470
3125.88848	0.95507
3123.83468	0.95526
3121.78088	0.95560
3119.72707	0.95587
3117.67327	0.95573
3115.61947	0.95568
3113.56566	0.95634
3111.51186	0.95731
3109.45806	0.95772
3107.40426	0.95755
3105.35045	0.95755
3103.29665	0.95790
3101.24285	0.95812
3099.18904	0.95804
3097.13524	0.95777
3095.08144	0.95750
3093.02763	0.95759
3090.97383	0.95807
3088.92003	0.95854
3086.86622	0.95871
3084.81242	0.95850
3082.75862	0.95813
3080.70481	0.95803
3078.65101	0.95835
3076.59721	0.95900
3074.54340	0.95945
3072.48960	0.95917
3070.43580	0.95887
3068.38199	0.95917
3066.32819	0.95952
3064.27439	0.95968
3062.22058	0.95977
3060.16678	0.95974
3058.11298	0.95985
3056.05918	0.96033
3054.00537	0.96077
3051.95157	0.96101
3049.89777	0.96125
3047.84396	0.96138
3045.79016	0.96127
3043.73636	0.96097
3041.68255	0.96090
3039.62875	0.96133
3037.57495	0.96198
3035.52114	0.96244
3033.46734	0.96250
3031.41354	0.96245
3029.35973	0.96266
3027.30593	0.96293
3025.25213	0.96302
3023.19832	0.96311
3021.14452	0.96326
3019.09072	0.96338
3017.03691	0.96350
3014.98311	0.96381
3012.92931	0.96398
3010.87550	0.96372
3008.82170	0.96337
3006.76790	0.96312
3004.71409	0.96306
3002.66029	0.96305
3000.60649	0.96305
2998.55269	0.96331
2996.49888	0.96345
2994.44508	0.96317
2992.39128	0.96295
2990.33747	0.96298
2988.28367	0.96292
2986.22987	0.96255
2984.17606	0.96198
2982.12226	0.96121
2980.06846	0.96036
2978.01465	0.95984
2975.96085	0.95943
2973.90705	0.95869
2971.85324	0.95790
2969.79944	0.95722
2967.74564	0.95633
2965.69183	0.95517
2963.63803	0.95383
2961.58423	0.95202
2959.53042	0.94976
2957.47662	0.94749
2955.42282	0.94527
2953.36901	0.94279
2951.31521	0.94010
2949.26141	0.93735
2947.20761	0.93462
2945.15380	0.93203
2943.10000	0.92912
2941.04620	0.92570
2938.99239	0.92204
2936.93859	0.91826
2934.88479	0.91455
2932.83098	0.91097
2930.77718	0.90777
2928.72338	0.90544
2926.66957	0.90406
2924.61577	0.90332
2922.56197	0.90293
2920.50816	0.90308
2918.45436	0.90431
2916.40056	0.90676
2914.34675	0.90998
2912.29295	0.91295
2910.23915	0.91533
2908.18534	0.91801
2906.13154	0.92099
2904.07774	0.92337
2902.02393	0.92527
2899.97013	0.92719
2897.91633	0.92936
2895.86252	0.93177
2893.80872	0.93412
2891.75492	0.93598
2889.70112	0.93752
2887.64731	0.93917
2885.59351	0.94093
2883.53971	0.94234
2881.48590	0.94325
2879.43210	0.94402
2877.37830	0.94459
2875.32449	0.94435
2873.27069	0.94318
2871.21689	0.94154
2869.16308	0.93979
2867.10928	0.93779
2865.05548	0.93538
2863.00167	0.93268
2860.94787	0.92959
2858.89407	0.92614
2856.84026	0.92268
2854.78646	0.92005
2852.73266	0.91901
2850.67885	0.91967
2848.62505	0.92237
2846.57125	0.92685
2844.51744	0.93188
2842.46364	0.93670
2840.40984	0.94093
2838.35603	0.94428
2836.30223	0.94703
2834.24843	0.94944
2832.19463	0.95144
2830.14082	0.95300
2828.08702	0.95415
2826.03322	0.95513
2823.97941	0.95605
2821.92561	0.95694
2819.87181	0.95775
2817.81800	0.95813
2815.76420	0.95826
2813.71040	0.95870
2811.65659	0.95933
2809.60279	0.95966
2807.54899	0.95963
2805.49518	0.95971
2803.44138	0.96018
2801.38758	0.96071
2799.33377	0.96120
2797.27997	0.96152
2795.22617	0.96158
2793.17236	0.96173
2791.11856	0.96206
2789.06476	0.96235
2787.01095	0.96269
2784.95715	0.96313
2782.90335	0.96342
2780.84955	0.96344
2778.79574	0.96350
2776.74194	0.96371
2774.68814	0.96393
2772.63433	0.96402
2770.58053	0.96404
2768.52673	0.96409
2766.47292	0.96427
2764.41912	0.96457
2762.36532	0.96467
2760.31151	0.96446
2758.25771	0.96437
2756.20391	0.96439
2754.15010	0.96416
2752.09630	0.96401
2750.04250	0.96449
2747.98869	0.96521
2745.93489	0.96544
2743.88109	0.96545
2741.82728	0.96561
2739.77348	0.96571
2737.71968	0.96571
2735.66587	0.96578
2733.61207	0.96580
2731.55827	0.96557
2729.50446	0.96539
2727.45066	0.96562
2725.39686	0.96584
2723.34306	0.96573
2721.28925	0.96571
2719.23545	0.96606
2717.18165	0.96657
2715.12784	0.96695
2713.07404	0.96674
2711.02024	0.96607
2708.96643	0.96573
2706.91263	0.96596
2704.85883	0.96637
2702.80502	0.96660
2700.75122	0.96653
2698.69742	0.96640
2696.64361	0.96629
2694.58981	0.96616
2692.53601	0.96639
2690.48220	0.96676
2688.42840	0.96669
2686.37460	0.96635
2684.32079	0.96637
2682.26699	0.96671
2680.21319	0.96679
2678.15938	0.96661
2676.10558	0.96664
2674.05178	0.96701
2671.99797	0.96755
2669.94417	0.96802
2667.89037	0.96823
2665.83657	0.96812
2663.78276	0.96777
2661.72896	0.96747
2659.67516	0.96723
2657.62135	0.96700
2655.56755	0.96691
2653.51375	0.96685
2651.45994	0.96703
2649.40614	0.96752
2647.35234	0.96774
2645.29853	0.96758
2643.24473	0.96750
2641.19093	0.96769
2639.13712	0.96797
2637.08332	0.96814
2635.02952	0.96811
2632.97571	0.96780
2630.92191	0.96755
2628.86811	0.96786
2626.81430	0.96815
2624.76050	0.96800
2622.70670	0.96796
2620.65289	0.96804
2618.59909	0.96806
2616.54529	0.96829
2614.49149	0.96856
2612.43768	0.96884
2610.38388	0.96925
2608.33008	0.96933
2606.27627	0.96883
2604.22247	0.96852
2602.16867	0.96884
2600.11486	0.96919
2598.06106	0.96938
2596.00726	0.96961
2593.95345	0.96965
2591.89965	0.96950
2589.84585	0.96966
2587.79204	0.96993
2585.73824	0.96957
2583.68444	0.96886
2581.63063	0.96882
2579.57683	0.96923
2577.52303	0.96942
2575.46922	0.96959
2573.41542	0.96961
2571.36162	0.96949
2569.30781	0.96979
2567.25401	0.97000
2565.20021	0.96981
2563.14640	0.96980
2561.09260	0.97001
2559.03880	0.97012
2556.98500	0.97006
2554.93119	0.97003
2552.87739	0.97019
2550.82359	0.97033
2548.76978	0.97054
2546.71598	0.97117
2544.66218	0.97143
2542.60837	0.97071
2540.55457	0.96992
2538.50077	0.96990
2536.44696	0.97028
2534.39316	0.97077
2532.33936	0.97146
2530.28555	0.97186
2528.23175	0.97138
2526.17795	0.97041
2524.12414	0.97032
2522.07034	0.97100
2520.01654	0.97080
2517.96273	0.97014
2515.90893	0.97030
2513.85513	0.97071
2511.80132	0.97090
2509.74752	0.97141
2507.69372	0.97231
2505.63992	0.97254
2503.58611	0.97174
2501.53231	0.97096
2499.47851	0.97080
2497.42470	0.97109
2495.37090	0.97154
2493.31710	0.97177
2491.26329	0.97164
2489.20949	0.97157
2487.15569	0.97182
2485.10188	0.97192
2483.04808	0.97158
2480.99428	0.97138
2478.94047	0.97150
2476.88667	0.97171
2474.83287	0.97218
2472.77906	0.97287
2470.72526	0.97332
2468.67146	0.97321
2466.61765	0.97258
2464.56385	0.97192
2462.51005	0.97185
2460.45624	0.97213
2458.40244	0.97231
2456.34864	0.97241
2454.29483	0.97212
2452.24103	0.97160
2450.18723	0.97172
2448.13343	0.97241
2446.07962	0.97284
2444.02582	0.97280
2441.97202	0.97261
2439.91821	0.97232
2437.86441	0.97183
2435.81061	0.97169
2433.75680	0.97211
2431.70300	0.97232
2429.64920	0.97228
2427.59539	0.97219
2425.54159	0.97230
2423.48779	0.97295
2421.43398	0.97324
2419.38018	0.97284
2417.32638	0.97251
2415.27257	0.97237
2413.21877	0.97235
2411.16497	0.97270
2409.11116	0.97301
2407.05736	0.97281
2405.00356	0.97305
2402.94975	0.97377
2400.89595	0.97378
2398.84215	0.97349
2396.78834	0.97322
2394.73454	0.97269
2392.68074	0.97268
2390.62694	0.97319
2388.57313	0.97319
2386.51933	0.97263
2384.46553	0.97220
2382.41172	0.97224
2380.35792	0.97247
2378.30412	0.97251
2376.25031	0.97271
2374.19651	0.97319
2372.14271	0.97346
2370.08890	0.97366
2368.03510	0.97353
2365.98130	0.97238
2363.92749	0.97073
2361.87369	0.96913
2359.81989	0.96813
2357.76608	0.96833
2355.71228	0.96945
2353.65848	0.97107
2351.60467	0.97208
2349.55087	0.97197
2347.49707	0.97168
2345.44326	0.97180
2343.38946	0.97148
2341.33566	0.97014
2339.28186	0.96951
2337.22805	0.97033
2335.17425	0.97146
2333.12045	0.97251
2331.06664	0.97343
2329.01284	0.97332
2326.95904	0.97176
2324.90523	0.97004
2322.85143	0.96973
2320.79763	0.97085
2318.74382	0.97201
2316.69002	0.97238
2314.63622	0.97173
2312.58241	0.97081
2310.52861	0.97075
2308.47481	0.97128
2306.42100	0.97163
2304.36720	0.97220
2302.31340	0.97316
2300.25959	0.97348
2298.20579	0.97298
2296.15199	0.97252
2294.09818	0.97218
2292.04438	0.97178
2289.99058	0.97134
2287.93677	0.97102
2285.88297	0.97097
2283.82917	0.97082
2281.77537	0.97066
2279.72156	0.97093
2277.66776	0.97154
2275.61396	0.97204
2273.56015	0.97235
2271.50635	0.97269
2269.45255	0.97293
2267.39874	0.97301
2265.34494	0.97301
2263.29114	0.97306
2261.23733	0.97301
2259.18353	0.97273
2257.12973	0.97351
2255.07592	0.97561
2253.02212	0.97656
2250.96832	0.97542
2248.91451	0.97392
2246.86071	0.97303
2244.80691	0.97239
2242.75310	0.97193
2240.69930	0.97187
2238.64550	0.97243
2236.59169	0.97296
2234.53789	0.97249
2232.48409	0.97186
2230.43029	0.97163
2228.37648	0.97126
2226.32268	0.97114
2224.26888	0.97217
2222.21507	0.97468
2220.16127	0.97602
2218.10747	0.97476
2216.05366	0.97422
2213.99986	0.97478
2211.94606	0.97428
2209.89225	0.97277
2207.83845	0.97143
2205.78465	0.97181
2203.73084	0.97354
2201.67704	0.97489
2199.62324	0.97437
2197.56943	0.97263
2195.51563	0.97229
2193.46183	0.97365
2191.40802	0.97568
2189.35422	0.97740
2187.30042	0.97772
2185.24661	0.97671
2183.19281	0.97443
2181.13901	0.97232
2179.08520	0.97206
2177.03140	0.97235
2174.97760	0.97370
2172.92380	0.97636
2170.86999	0.97684
2168.81619	0.97519
2166.76239	0.97406
2164.70858	0.97342
2162.65478	0.97351
2160.60098	0.97548
2158.54717	0.97787
2156.49337	0.97825
2154.43957	0.97735
2152.38576	0.97697
2150.33196	0.97825
2148.27816	0.97991
2146.22435	0.97954
2144.17055	0.97751
2142.11675	0.97482
2140.06294	0.97271
2138.00914	0.97332
2135.95534	0.97622
2133.90153	0.97840
2131.84773	0.97839
2129.79393	0.97753
2127.74012	0.97717
2125.68632	0.97700
2123.63252	0.97648
2121.57871	0.97621
2119.52491	0.97622
2117.47111	0.97599
2115.41731	0.97576
2113.36350	0.97548
2111.30970	0.97491
2109.25590	0.97424
2107.20209	0.97367
2105.14829	0.97366
2103.09449	0.97378
2101.04068	0.97381
2098.98688	0.97517
2096.93308	0.97706
2094.87927	0.97728
2092.82547	0.97639
2090.77167	0.97647
2088.71786	0.97729
2086.66406	0.97651
2084.61026	0.97531
2082.55645	0.97568
2080.50265	0.97611
2078.44885	0.97605
2076.39504	0.97582
2074.34124	0.97517
2072.28744	0.97466
2070.23363	0.97465
2068.17983	0.97526
2066.12603	0.97619
2064.07223	0.97682
2062.01842	0.97790
2059.96462	0.97865
2057.91082	0.97781
2055.85701	0.97772
2053.80321	0.97845
2051.74941	0.97688
2049.69560	0.97422
2047.64180	0.97290
2045.58800	0.97240
2043.53419	0.97329
2041.48039	0.97634
2039.42659	0.98050
2037.37278	0.98272
2035.31898	0.98080
2033.26518	0.97737
2031.21137	0.97466
2029.15757	0.97404
2027.10377	0.97623
2025.04996	0.97778
2022.99616	0.97724
2020.94236	0.97485
2018.88855	0.97229
2016.83475	0.97435
2014.78095	0.97838
2012.72714	0.97853
2010.67334	0.97721
2008.61954	0.97870
2006.56574	0.98101
2004.51193	0.98036
2002.45813	0.97882
2000.40433	0.97786
1998.35052	0.97572
1996.29672	0.97425
1994.24292	0.97509
1992.18911	0.97578
1990.13531	0.97507
1988.08151	0.97450
1986.02770	0.97570
1983.97390	0.97769
1981.92010	0.97748
1979.86629	0.97563
1977.81249	0.97583
1975.75869	0.97765
1973.70488	0.97721
1971.65108	0.97637
1969.59728	0.97831
1967.54347	0.97974
1965.48967	0.97828
1963.43587	0.97672
1961.38206	0.97733
1959.32826	0.98031
1957.27446	0.98220
1955.22066	0.98022
1953.16685	0.97747
1951.11305	0.97744
1949.05925	0.97884
1947.00544	0.97888
1944.95164	0.97797
1942.89784	0.97771
1940.84403	0.97784
1938.79023	0.97763
1936.73643	0.97750
1934.68262	0.97800
1932.62882	0.97875
1930.57502	0.97907
1928.52121	0.97886
1926.46741	0.97840
1924.41361	0.97820
1922.35980	0.97866
1920.30600	0.97882
1918.25220	0.97796
1916.19839	0.97688
1914.14459	0.97648
1912.09079	0.97728
1910.03698	0.97877
1907.98318	0.97956
1905.92938	0.97910
1903.87557	0.97764
1901.82177	0.97621
1899.76797	0.97572
1897.71417	0.97576
1895.66036	0.97578
1893.60656	0.97609
1891.55276	0.97668
1889.49895	0.97719
1887.44515	0.97713
1885.39135	0.97653
1883.33754	0.97651
1881.28374	0.97712
1879.22994	0.97741
1877.17613	0.97711
1875.12233	0.97671
1873.06853	0.97683
1871.01472	0.97764
1868.96092	0.97886
1866.90712	0.97948
1864.85331	0.97900
1862.79951	0.97782
1860.74571	0.97661
1858.69190	0.97606
1856.63810	0.97620
1854.58430	0.97655
1852.53049	0.97647
1850.47669	0.97624
1848.42289	0.97655
1846.36908	0.97718
1844.31528	0.97763
1842.26148	0.97745
1840.20768	0.97689
1838.15387	0.97685
1836.10007	0.97732
1834.04627	0.97770
1831.99246	0.97781
1829.93866	0.97746
1827.88486	0.97698
1825.83105	0.97707
1823.77725	0.97738
1821.72345	0.97728
1819.66964	0.97698
1817.61584	0.97711
1815.56204	0.97728
1813.50823	0.97692
1811.45443	0.97666
1809.40063	0.97649
1807.34682	0.97615
1805.29302	0.97620
1803.23922	0.97653
1801.18541	0.97680
1799.13161	0.97707
1797.07781	0.97725
1795.02400	0.97711
1792.97020	0.97654
1790.91640	0.97590
1788.86260	0.97596
1786.80879	0.97645
1784.75499	0.97652
1782.70119	0.97583
1780.64738	0.97505
1778.59358	0.97488
1776.53978	0.97514
1774.48597	0.97537
1772.43217	0.97528
1770.37837	0.97472
1768.32456	0.97396
1766.27076	0.97308
1764.21696	0.97252
1762.16315	0.97233
1760.10935	0.97170
1758.05555	0.97057
1756.00174	0.96932
1753.94794	0.96797
1751.89414	0.96610
1749.84033	0.96306
1747.78653	0.95860
1745.73273	0.95313
1743.67892	0.94661
1741.62512	0.93890
1739.57132	0.92975
1737.51751	0.92137
1735.46371	0.91389
1733.40991	0.90453
1731.35611	0.89805
1729.30230	0.89545
1727.24850	0.89449
1725.19470	0.89507
1723.14089	0.89714
1721.08709	0.90011
1719.03329	0.90375
1716.97948	0.90728
1714.92568	0.90849
1712.87188	0.90881
1710.81807	0.90970
1708.76427	0.91102
1706.71047	0.91286
1704.65666	0.91496
1702.60286	0.91659
1700.54906	0.91848
1698.49525	0.92038
1696.44145	0.92145
1694.38765	0.92251
1692.33384	0.92383
1690.28004	0.92513
1688.22624	0.92604
1686.17243	0.92674
1684.11863	0.92727
1682.06483	0.92698
1680.01103	0.92650
1677.95722	0.92635
1675.90342	0.92630
1673.84962	0.92602
1671.79581	0.92572
1669.74201	0.92500
1667.68821	0.92386
1665.63440	0.92322
1663.58060	0.92266
1661.52680	0.92156
1659.47299	0.92039
1657.41919	0.91968
1655.36539	0.91933
1653.31158	0.91823
1651.25778	0.91687
1649.20398	0.91640
1647.15017	0.91522
1645.09637	0.91341
1643.04257	0.91258
1640.98876	0.91215
1638.93496	0.91157
1636.88116	0.91014
1634.82735	0.90745
1632.77355	0.90610
1630.71975	0.90600
1628.66594	0.90561
1626.61214	0.90478
1624.55834	0.90473
1622.50454	0.90512
1620.45073	0.90497
1618.39693	0.90488
1616.34313	0.90513
1614.28932	0.90552
1612.23552	0.90630
1610.18172	0.90710
1608.12791	0.90748
1606.07411	0.90772
1604.02031	0.90823
1601.96650	0.90920
1599.91270	0.91033
1597.85890	0.91138
1595.80509	0.91244
1593.75129	0.91361
1591.69749	0.91502
1589.64368	0.91638
1587.58988	0.91746
1585.53608	0.91858
1583.48227	0.91983
1581.42847	0.92099
1579.37467	0.92231
1577.32086	0.92406
1575.26706	0.92576
1573.21326	0.92667
1571.15945	0.92745
1569.10565	0.92842
1567.05185	0.92925
1564.99805	0.92989
1562.94424	0.93048
1560.89044	0.93124
1558.83664	0.93225
1556.78283	0.93224
1554.72903	0.93168
1552.67523	0.93152
1550.62142	0.93198
1548.56762	0.93270
1546.51382	0.93334
1544.46001	0.93393
1542.40621	0.93473
1540.35241	0.93548
1538.29860	0.93581
1536.24480	0.93650
1534.19100	0.93766
1532.13719	0.93877
1530.08339	0.93945
1528.02959	0.94000
1525.97578	0.94032
1523.92198	0.94021
1521.86818	0.93881
1519.81437	0.93605
1517.76057	0.93400
1515.70677	0.93343
1513.65297	0.93451
1511.59916	0.93668
1509.54536	0.93950
1507.49156	0.94308
1505.43775	0.94526
1503.38395	0.94568
1501.33015	0.94634
1499.27634	0.94745
1497.22254	0.94882
1495.16874	0.94971
1493.11493	0.95024
1491.06113	0.95104
1489.00733	0.95164
1486.95352	0.95150
1484.89972	0.95137
1482.84592	0.95115
1480.79211	0.95044
1478.73831	0.94937
1476.68451	0.94796
1474.63070	0.94576
1472.57690	0.94107
1470.52310	0.93424
1468.46929	0.92859
1466.41549	0.92414
1464.36169	0.92090
1462.30788	0.91974
1460.25408	0.91983
1458.20028	0.91990
1456.14648	0.91906
1454.09267	0.91837
1452.03887	0.91852
1449.98507	0.91915
1447.93126	0.91964
1445.87746	0.91945
1443.82366	0.91880
1441.76985	0.91853
1439.71605	0.91887
1437.66225	0.91909
1435.60844	0.91881
1433.55464	0.91883
1431.50084	0.91943
1429.44703	0.92036
1427.39323	0.92134
1425.33943	0.92220
1423.28562	0.92273
1421.23182	0.92292
1419.17802	0.92253
1417.12421	0.92161
1415.07041	0.92154
1413.01661	0.92246
1410.96280	0.92342
1408.90900	0.92416
1406.85520	0.92524
1404.80139	0.92637
1402.74759	0.92717
1400.69379	0.92783
1398.63999	0.92807
1396.58618	0.92780
1394.53238	0.92729
1392.47858	0.92684
1390.42477	0.92666
1388.37097	0.92648
1386.31717	0.92597
1384.26336	0.92517
1382.20956	0.92435
1380.15576	0.92356
1378.10195	0.92278
1376.04815	0.92215
1373.99435	0.92160
1371.94054	0.92115
1369.88674	0.92099
1367.83294	0.92073
1365.77913	0.92038
1363.72533	0.92063
1361.67153	0.92125
1359.61772	0.92143
1357.56392	0.92144
1355.51012	0.92145
1353.45631	0.92150
1351.40251	0.92179
1349.34871	0.92199
1347.29491	0.92197
1345.24110	0.92201
1343.18730	0.92236
1341.13350	0.92305
1339.07969	0.92343
1337.02589	0.92332
1334.97209	0.92343
1332.91828	0.92379
1330.86448	0.92403
1328.81068	0.92409
1326.75687	0.92396
1324.70307	0.92363
1322.64927	0.92317
1320.59546	0.92282
1318.54166	0.92278
1316.48786	0.92285
1314.43405	0.92284
1312.38025	0.92251
1310.32645	0.92196
1308.27264	0.92164
1306.21884	0.92158
1304.16504	0.92158
1302.11123	0.92158
1300.05743	0.92159
1298.00363	0.92164
1295.94982	0.92161
1293.89602	0.92128
1291.84222	0.92070
1289.78842	0.92002
1287.73461	0.91919
1285.68081	0.91825
1283.62701	0.91720
1281.57320	0.91580
1279.51940	0.91416
1277.46560	0.91280
1275.41179	0.91178
1273.35799	0.91081
1271.30419	0.90979
1269.25038	0.90888
1267.19658	0.90808
1265.14278	0.90725
1263.08897	0.90640
1261.03517	0.90534
1258.98137	0.90422
1256.92756	0.90341
1254.87376	0.90268
1252.81996	0.90165
1250.76615	0.90041
1248.71235	0.89920
1246.65855	0.89833
1244.60474	0.89792
1242.55094	0.89774
1240.49714	0.89750
1238.44334	0.89727
1236.38953	0.89733
1234.33573	0.89763
1232.28193	0.89785
1230.22812	0.89800
1228.17432	0.89799
1226.12052	0.89776
1224.06671	0.89755
1222.01291	0.89728
1219.95911	0.89704
1217.90530	0.89674
1215.85150	0.89597
1213.79770	0.89507
1211.74389	0.89440
1209.69009	0.89374
1207.63629	0.89294
1205.58248	0.89193
1203.52868	0.89066
1201.47488	0.88935
1199.42107	0.88793
1197.36727	0.88621
1195.31347	0.88441
1193.25966	0.88264
1191.20586	0.88092
1189.15206	0.87910
1187.09825	0.87697
1185.04445	0.87479
1182.99065	0.87261
1180.93685	0.86987
1178.88304	0.86640
1176.82924	0.86275
1174.77544	0.85950
1172.72163	0.85667
1170.66783	0.85384
1168.61403	0.85104
1166.56022	0.84913
1164.50642	0.84837
1162.45262	0.84829
1160.39881	0.84887
1158.34501	0.84991
1156.29121	0.85077
1154.23740	0.85130
1152.18360	0.85189
1150.12980	0.85284
1148.07599	0.85387
1146.02219	0.85443
1143.96839	0.85482
1141.91458	0.85555
1139.86078	0.85622
1137.80698	0.85656
1135.75317	0.85665
1133.69937	0.85653
1131.64557	0.85618
1129.59176	0.85515
1127.53796	0.85347
1125.48416	0.85134
1123.43036	0.84849
1121.37655	0.84483
1119.32275	0.84059
1117.26895	0.83632
1115.21514	0.83237
1113.16134	0.82844
1111.10754	0.82405
1109.05373	0.81951
1106.99993	0.81562
1104.94613	0.81243
1102.89232	0.81000
1100.83852	0.80842
1098.78472	0.80743
1096.73091	0.80693
1094.67711	0.80675
1092.62331	0.80709
1090.56950	0.80791
1088.51570	0.80815
1086.46190	0.80760
1084.40809	0.80697
1082.35429	0.80674
1080.30049	0.80653
1078.24668	0.80556
1076.19288	0.80419
1074.13908	0.80262
1072.08528	0.80058
1070.03147	0.79857
1067.97767	0.79658
1065.92387	0.79394
1063.87006	0.79062
1061.81626	0.78713
1059.76246	0.78372
1057.70865	0.78003
1055.65485	0.77570
1053.60105	0.77104
1051.54724	0.76652
1049.49344	0.76190
1047.43964	0.75691
1045.38583	0.75192
1043.33203	0.74710
1041.27823	0.74232
1039.22442	0.73760
1037.17062	0.73313
1035.11682	0.72963
1033.06301	0.72748
1031.00921	0.72618
1028.95541	0.72533
1026.90160	0.72503
1024.84780	0.72508
1022.79400	0.72514
1020.74019	0.72553
1018.68639	0.72610
1016.63259	0.72596
1014.57879	0.72500
1012.52498	0.72396
1010.47118	0.72335
1008.41738	0.72311
1006.36357	0.72341
1004.30977	0.72471
1002.25597	0.72703
1000.20216	0.73040
998.14836	0.73488
996.09456	0.74002
994.04075	0.74537
991.98695	0.75032
989.93315	0.75478
987.87934	0.75970
985.82554	0.76545
983.77174	0.77139
981.71793	0.77693
979.66413	0.78222
977.61033	0.78757
975.55652	0.79282
973.50272	0.79752
971.44892	0.80181
969.39511	0.80602
967.34131	0.81013
965.28751	0.81427
963.23371	0.81808
961.17990	0.82109
959.12610	0.82376
957.07230	0.82652
955.01849	0.82946
952.96469	0.83246
950.91089	0.83515
948.85708	0.83746
946.80328	0.83953
944.74948	0.84175
942.69567	0.84427
940.64187	0.84632
938.58807	0.84744
936.53426	0.84836
934.48046	0.84956
932.42666	0.85113
930.37285	0.85312
928.31905	0.85453
926.26525	0.85458
924.21144	0.85365
922.15764	0.85226
920.10384	0.85090
918.05003	0.84973
915.99623	0.84873
913.94243	0.84822
911.88862	0.84854
909.83482	0.84992
907.78102	0.85237
905.72722	0.85566
903.67341	0.85940
901.61961	0.86259
899.56581	0.86519
897.51200	0.86797
895.45820	0.87073
893.40440	0.87315
891.35059	0.87517
889.29679	0.87686
887.24299	0.87870
885.18918	0.88047
883.13538	0.88185
881.08158	0.88276
879.02777	0.88342
876.97397	0.88451
874.92017	0.88607
872.86636	0.88746
870.81256	0.88852
868.75876	0.88963
866.70495	0.89084
864.65115	0.89211
862.59735	0.89327
860.54354	0.89445
858.48974	0.89579
856.43594	0.89685
854.38213	0.89756
852.32833	0.89823
850.27453	0.89862
848.22073	0.89847
846.16692	0.89815
844.11312	0.89746
842.05932	0.89581
840.00551	0.89328
837.95171	0.89062
835.89791	0.88845
833.84410	0.88724
831.79030	0.88761
829.73650	0.88889
827.68269	0.89005
825.62889	0.89117
823.57509	0.89229
821.52128	0.89311
819.46748	0.89321
817.41368	0.89290
815.35987	0.89321
813.30607	0.89393
811.25227	0.89441
809.19846	0.89440
807.14466	0.89369
805.09086	0.89259
803.03705	0.89149
800.98325	0.89085
798.92945	0.89078
796.87565	0.89071
794.82184	0.89059
792.76804	0.89059
790.71424	0.89036
788.66043	0.88986
786.60663	0.88956
784.55283	0.88933
782.49902	0.88900
780.44522	0.88883
778.39142	0.88913
776.33761	0.88970
774.28381	0.88936
772.23001	0.88827
770.17620	0.88791
768.12240	0.88835
766.06860	0.88877
764.01479	0.88810
761.96099	0.88667
759.90719	0.88626
757.85338	0.88629
755.79958	0.88584
753.74578	0.88541
751.69197	0.88459
749.63817	0.88338
747.58437	0.88279
745.53056	0.88297
743.47676	0.88341
741.42296	0.88402
739.36916	0.88487
737.31535	0.88480
735.26155	0.88291
733.20775	0.88083
731.15394	0.87953
729.10014	0.87807
727.04634	0.87619
724.99253	0.87417
722.93873	0.87284
720.88493	0.87321
718.83112	0.87488
716.77732	0.87632
714.72352	0.87661
712.66971	0.87618
710.61591	0.87569
708.56211	0.87470
706.50830	0.87324
704.45450	0.87203
702.40070	0.87051
700.34689	0.86860
698.29309	0.86694
696.23929	0.86525
694.18548	0.86407
692.13168	0.86410
690.07788	0.86450
688.02408	0.86482
685.97027	0.86485
683.91647	0.86482
681.86267	0.86514
679.80886	0.86457
677.75506	0.86304
675.70126	0.86202
673.64745	0.86218
671.59365	0.86305
669.53985	0.86326
667.48604	0.86300
665.43224	0.86341
663.37844	0.86365
661.32463	0.86396
659.27083	0.86438
657.21703	0.86378
655.16322	0.86235
653.10942	0.86152
651.05562	0.86180
649.00181	0.86271
646.94801	0.86313
644.89421	0.86280
642.84040	0.86190
640.78660	0.86052
638.73280	0.85988
636.67899	0.85948
634.62519	0.85848
632.57139	0.85776
630.51759	0.85657
628.46378	0.85526
626.40998	0.85547
624.35618	0.85579
622.30237	0.85506
620.24857	0.85403
618.19477	0.85308
616.14096	0.85269
614.08716	0.85204
612.03336	0.85063
609.97955	0.84918
607.92575	0.84697
605.87195	0.84417
603.81814	0.84212
601.76434	0.84060
599.71054	0.83923
597.65673	0.83812
595.60293	0.83710
593.54913	0.83618
591.49532	0.83596
589.44152	0.83644
587.38772	0.83585
585.33391	0.83394
583.28011	0.83306
581.22631	0.83295
579.17250	0.83173
577.11870	0.82935
575.06490	0.82599
573.01110	0.82321
570.95729	0.82241
568.90349	0.82197
566.84969	0.82045
564.79588	0.81864
562.74208	0.81662
560.68828	0.81403
558.63447	0.81146
556.58067	0.80858
554.52687	0.80522
552.47306	0.80254
550.41926	0.80102
548.36546	0.79842
546.31165	0.79379
544.25785	0.78927
542.20405	0.78456
540.15024	0.77993
538.09644	0.77649
536.04264	0.77284
533.98883	0.77062
531.93503	0.77051
529.88123	0.76941
527.82742	0.76951
525.77362	0.77249
523.71982	0.77469
521.66602	0.77611
519.61221	0.77785
517.55841	0.77919
515.50461	0.77984
513.45080	0.78116
511.39700	0.78455
509.34320	0.78778
507.28939	0.78931
505.23559	0.79075
503.18179	0.79266
501.12798	0.79504
499.07418	0.79701
497.02038	0.79685
494.96657	0.79663
492.91277	0.79791
490.85897	0.79645
488.80516	0.79235
486.75136	0.78837
484.69756	0.78334
482.64375	0.77759
480.58995	0.77122
478.53615	0.76483
476.48234	0.75875
474.42854	0.75181
472.37474	0.74570
470.32093	0.73909
468.26713	0.73199
466.21333	0.73128
464.15953	0.73643
462.10572	0.74307
460.05192	0.75079
457.99812	0.75610
455.94431	0.75897
453.89051	0.76245
451.83671	0.76456
449.78290	0.76700
447.72910	0.77087
445.67530	0.77104
443.62149	0.76809
441.56769	0.76905
439.51389	0.77231
437.46008	0.77084
435.40628	0.76457
433.35248	0.76128
431.29867	0.76139
429.24487	0.76011
427.19107	0.76081
425.13726	0.76334
423.08346	0.76347
421.02966	0.76417
418.97585	0.76816
416.92205	0.77205
414.86825	0.77448
412.81445	0.77836
410.76064	0.78432
408.70684	0.79111
406.65304	0.79738
404.59923	0.79994
402.54543	0.80098
400.49163	0.80460
398.43782	0.80647
