3996.70104	0.95628
3994.64724	0.95669
3992.59344	0.95715
3990.53964	0.95717
3988.48583	0.95669
3986.43203	0.95646
3984.37823	0.95667
3982.32442	0.95704
3980.27062	0.95747
3978.21682	0.95747
3976.16301	0.95710
3974.10921	0.95699
3972.05541	0.95705
3970.00160	0.95729
3967.94780	0.95750
3965.89400	0.95722
3963.84019	0.95701
3961.78639	0.95712
3959.73259	0.95719
3957.67878	0.95758
3955.62498	0.95822
3953.57118	0.95844
3951.51737	0.95832
3949.46357	0.95807
3947.40977	0.95753
3945.35596	0.95730
3943.30216	0.95757
3941.24836	0.95740
3939.19455	0.95711
3937.14075	0.95752
3935.08695	0.95793
3933.03315	0.95792
3930.97934	0.95802
3928.92554	0.95801
3926.87174	0.95763
3924.81793	0.95721
3922.76413	0.95688
3920.71033	0.95651
3918.65652	0.95638
3916.60272	0.95691
3914.54892	0.95736
3912.49511	0.95707
3910.44131	0.95667
3908.38751	0.95671
3906.33370	0.95712
3904.27990	0.95754
3902.22610	0.95747
3900.17229	0.95739
3898.11849	0.95783
3896.06469	0.95836
3894.01088	0.95857
3891.95708	0.95861
3889.90328	0.95873
3887.84947	0.95875
3885.79567	0.95863
3883.74187	0.95824
3881.68807	0.95775
3879.63426	0.95736
3877.58046	0.95707
3875.52666	0.95694
3873.47285	0.95694
3871.41905	0.95668
3869.36525	0.95658
3867.31144	0.95684
3865.25764	0.95688
3863.20384	0.95712
3861.15003	0.95733
3859.09623	0.95732
3857.04243	0.95733
3854.98862	0.95687
3852.93482	0.95641
3850.88102	0.95720
3848.82721	0.95774
3846.77341	0.95799
3844.71961	0.95833
3842.66580	0.95802
3840.61200	0.95702
3838.55820	0.95655
3836.50439	0.95700
3834.45059	0.95730
3832.39679	0.95729
3830.34298	0.95763
3828.28918	0.95812
3826.23538	0.95837
3824.18158	0.95867
3822.12777	0.95882
3820.07397	0.95824
3818.02017	0.95797
3815.96636	0.95793
3813.91256	0.95728
3811.85876	0.95690
3809.80495	0.95712
3807.75115	0.95760
3805.69735	0.95793
3803.64354	0.95754
3801.58974	0.95673
3799.53594	0.95673
3797.48213	0.95736
3795.42833	0.95775
3793.37453	0.95761
3791.32072	0.95718
3789.26692	0.95691
3787.21312	0.95696
3785.15931	0.95720
3783.10551	0.95777
3781.05171	0.95832
3778.99790	0.95816
3776.94410	0.95766
3774.89030	0.95757
3772.83650	0.95782
3770.78269	0.95812
3768.72889	0.95816
3766.67509	0.95807
3764.62128	0.95822
3762.56748	0.95864
3760.51368	0.95894
3758.45987	0.95874
3756.40607	0.95857
3754.35227	0.95893
3752.29846	0.95903
3750.24466	0.95872
3748.19086	0.95924
3746.13705	0.96018
3744.08325	0.96038
3742.02945	0.95972
3739.97564	0.95967
3737.92184	0.96044
3735.86804	0.96101
3733.81423	0.96084
3731.76043	0.96066
3729.70663	0.96048
3727.65282	0.96020
3725.59902	0.95964
3723.54522	0.95892
3721.49141	0.95883
3719.43761	0.95910
3717.38381	0.95910
3715.33001	0.95903
3713.27620	0.95888
3711.22240	0.95842
3709.16860	0.95740
3707.11479	0.95606
3705.06099	0.95470
3703.00719	0.95366
3700.95338	0.95342
3698.89958	0.95343
3696.84578	0.95310
3694.79197	0.95240
3692.73817	0.95147
3690.68437	0.95142
3688.63056	0.95285
3686.57676	0.95414
3684.52296	0.95459
3682.46915	0.95475
3680.41535	0.95481
3678.36155	0.95499
3676.30774	0.95550
3674.25394	0.95550
3672.20014	0.95498
3670.14633	0.95443
3668.09253	0.95366
3666.03873	0.95311
3663.98492	0.95306
3661.93112	0.95320
3659.87732	0.95313
3657.82352	0.95289
3655.76971	0.95235
3653.71591	0.95186
3651.66211	0.95149
3649.60830	0.95032
3647.55450	0.94958
3645.50070	0.95047
3643.44689	0.95131
3641.39309	0.95145
3639.33929	0.95115
3637.28548	0.95079
3635.23168	0.95042
3633.17788	0.95001
3631.12407	0.94942
3629.07027	0.94803
3627.01647	0.94721
3624.96266	0.94763
3622.90886	0.94742
3620.85506	0.94650
3618.80125	0.94639
3616.74745	0.94715
3614.69365	0.94775
3612.63984	0.94780
3610.58604	0.94746
3608.53224	0.94752
3606.47844	0.94779
3604.42463	0.94802
3602.37083	0.94805
3600.31703	0.94723
3598.26322	0.94612
3596.20942	0.94567
3594.15562	0.94562
3592.10181	0.94559
3590.04801	0.94562
3587.99421	0.94582
3585.94040	0.94616
3583.88660	0.94625
3581.83280	0.94622
3579.77899	0.94610
3577.72519	0.94583
3575.67139	0.94536
3573.61758	0.94445
3571.56378	0.94363
3569.50998	0.94342
3567.45617	0.94333
3565.40237	0.94276
3563.34857	0.94226
3561.29476	0.94228
3559.24096	0.94220
3557.18716	0.94150
3555.13335	0.94071
3553.07955	0.94052
3551.02575	0.94078
3548.97195	0.94076
3546.91814	0.94053
3544.86434	0.94040
3542.81054	0.94013
3540.75673	0.93968
3538.70293	0.93911
3536.64913	0.93876
3534.59532	0.93903
3532.54152	0.93926
3530.48772	0.93919
3528.43391	0.93917
3526.38011	0.93886
3524.32631	0.93796
3522.27250	0.93729
3520.21870	0.93736
3518.16490	0.93688
3516.11109	0.93556
3514.05729	0.93525
3512.00349	0.93589
3509.94968	0.93608
3507.89588	0.93575
3505.84208	0.93542
3503.78827	0.93539
3501.73447	0.93551
3499.68067	0.93558
3497.62687	0.93548
3495.57306	0.93493
3493.51926	0.93419
3491.46546	0.93367
3489.41165	0.93333
3487.35785	0.93308
3485.30405	0.93249
3483.25024	0.93186
3481.19644	0.93210
3479.14264	0.93219
3477.08883	0.93152
3475.03503	0.93127
3472.98123	0.93147
3470.92742	0.93143
3468.87362	0.93091
3466.81982	0.93012
3464.76601	0.92996
3462.71221	0.93044
3460.65841	0.93060
3458.60460	0.93028
3456.55080	0.92969
3454.49700	0.92892
3452.44319	0.92843
3450.38939	0.92833
3448.33559	0.92795
3446.28178	0.92708
3444.22798	0.92643
3442.17418	0.92660
3440.12038	0.92704
3438.06657	0.92701
3436.01277	0.92681
3433.95897	0.92648
3431.90516	0.92584
3429.85136	0.92545
3427.79756	0.92561
3425.74375	0.92580
3423.68995	0.92563
3421.63615	0.92542
3419.58234	0.92522
3417.52854	0.92455
3415.47474	0.92369
3413.42093	0.92334
3411.36713	0.92372
3409.31333	0.92386
3407.25952	0.92280
3405.20572	0.92166
3403.15192	0.92152
3401.09811	0.92190
3399.04431	0.92210
3396.99051	0.92199
3394.93670	0.92208
3392.88290	0.92244
3390.82910	0.92212
3388.77529	0.92133
3386.72149	0.92113
3384.66769	0.92129
3382.61389	0.92117
3380.56008	0.92070
3378.50628	0.92010
3376.45248	0.92010
3374.39867	0.92083
3372.34487	0.92118
3370.29107	0.92059
3368.23726	0.91982
3366.18346	0.91943
3364.12966	0.91944
3362.07585	0.91975
3360.02205	0.92016
3357.96825	0.92031
3355.91444	0.92021
3353.86064	0.92025
3351.80684	0.92049
3349.75303	0.92047
3347.69923	0.92006
3345.64543	0.91975
3343.59162	0.91990
3341.53782	0.92016
3339.48402	0.92021
3337.43021	0.92018
3335.37641	0.92007
3333.32261	0.92007
3331.26881	0.92042
3329.21500	0.92081
3327.16120	0.92059
3325.10740	0.91999
3323.05359	0.91955
3320.99979	0.91919
3318.94599	0.91915
3316.89218	0.91964
3314.83838	0.92019
3312.78458	0.92050
3310.73077	0.92049
3308.67697	0.92051
3306.62317	0.92097
3304.56936	0.92121
3302.51556	0.92074
3300.46176	0.92032
3298.40795	0.92064
3296.35415	0.92135
3294.30035	0.92189
3292.24654	0.92213
3290.19274	0.92205
3288.13894	0.92185
3286.08513	0.92156
3284.03133	0.92113
3281.97753	0.92112
3279.92372	0.92137
3277.86992	0.92124
3275.81612	0.92112
3273.76232	0.92144
3271.70851	0.92204
3269.65471	0.92273
3267.60091	0.92312
3265.54710	0.92296
3263.49330	0.92275
3261.43950	0.92283
3259.38569	0.92290
3257.33189	0.92280
3255.27809	0.92262
3253.22428	0.92287
3251.17048	0.92364
3249.11668	0.92402
3247.06287	0.92373
3245.00907	0.92324
3242.95527	0.92302
3240.90146	0.92322
3238.84766	0.92356
3236.79386	0.92381
3234.74005	0.92397
3232.68625	0.92413
3230.63245	0.92416
3228.57864	0.92403
3226.52484	0.92447
3224.47104	0.92550
3222.41724	0.92579
3220.36343	0.92516
3218.30963	0.92498
3216.25583	0.92549
3214.20202	0.92578
3212.14822	0.92556
3210.09442	0.92537
3208.04061	0.92574
3205.98681	0.92628
3203.93301	0.92634
3201.87920	0.92620
3199.82540	0.92663
3197.77160	0.92758
3195.71779	0.92800
3193.66399	0.92779
3191.61019	0.92773
3189.55638	0.92812
3187.50258	0.92875
3185.44878	0.92883
3183.39497	0.92847
3181.34117	0.92880
3179.28737	0.92963
3177.23356	0.92990
3175.17976	0.92964
3173.12596	0.92981
3171.07215	0.93046
3169.01835	0.93081
3166.96455	0.93080
3164.91075	0.93074
3162.85694	0.93117
3160.80314	0.93186
3158.74934	0.93184
3156.69553	0.93147
3154.64173	0.93147
3152.58793	0.93154
3150.53412	0.93157
3148.48032	0.93206
3146.42652	0.93297
3144.37271	0.93368
3142.31891	0.93395
3140.26511	0.93415
3138.21130	0.93454
3136.15750	0.93507
3134.10370	0.93537
3132.04989	0.93517
3129.99609	0.93501
3127.94229	0.93500
3125.88848	0.93491
3123.83468	0.93486
3121.78088	0.93497
3119.72707	0.93530
3117.67327	0.93579
3115.61947	0.93627
3113.56566	0.93644
3111.51186	0.93633
3109.45806	0.93622
3107.40426	0.93618
3105.35045	0.93625
3103.29665	0.93648
3101.24285	0.93684
3099.18904	0.93733
3097.13524	0.93781
3095.08144	0.93786
3093.02763	0.93724
3090.97383	0.93636
3088.92003	0.93566
3086.86622	0.93495
3084.81242	0.93413
3082.75862	0.93355
3080.70481	0.93350
3078.65101	0.93390
3076.59721	0.93431
3074.54340	0.93461
3072.48960	0.93516
3070.43580	0.93576
3068.38199	0.93566
3066.32819	0.93455
3064.27439	0.93280
3062.22058	0.93151
3060.16678	0.93138
3058.11298	0.93180
3056.05918	0.93243
3054.00537	0.93355
3051.95157	0.93498
3049.89777	0.93620
3047.84396	0.93709
3045.79016	0.93786
3043.73636	0.93828
3041.68255	0.93805
3039.62875	0.93734
3037.57495	0.93674
3035.52114	0.93635
3033.46734	0.93525
3031.41354	0.93281
3029.35973	0.92949
3027.30593	0.92608
3025.25213	0.92386
3023.19832	0.92419
3021.14452	0.92670
3019.09072	0.92967
3017.03691	0.93211
3014.98311	0.93435
3012.92931	0.93670
3010.87550	0.93839
3008.82170	0.93876
3006.76790	0.93847
3004.71409	0.93827
3002.66029	0.93820
3000.60649	0.93842
2998.55269	0.93895
2996.49888	0.93950
2994.44508	0.94004
2992.39128	0.94059
2990.33747	0.94132
2988.28367	0.94227
2986.22987	0.94266
2984.17606	0.94235
2982.12226	0.94244
2980.06846	0.94321
2978.01465	0.94378
2975.96085	0.94385
2973.90705	0.94394
2971.85324	0.94390
2969.79944	0.94317
2967.74564	0.94234
2965.69183	0.94209
2963.63803	0.94213
2961.58423	0.94209
2959.53042	0.94174
2957.47662	0.94110
2955.42282	0.94090
2953.36901	0.94102
2951.31521	0.94075
2949.26141	0.94038
2947.20761	0.94003
2945.15380	0.93908
2943.10000	0.93748
2941.04620	0.93571
2938.99239	0.93398
2936.93859	0.93215
2934.88479	0.93019
2932.83098	0.92799
2930.77718	0.92552
2928.72338	0.92289
2926.66957	0.92043
2924.61577	0.91888
2922.56197	0.91819
2920.50816	0.91745
2918.45436	0.91670
2916.40056	0.91684
2914.34675	0.91819
2912.29295	0.91994
2910.23915	0.92158
2908.18534	0.92319
2906.13154	0.92474
2904.07774	0.92648
2902.02393	0.92822
2899.97013	0.92946
2897.91633	0.93061
2895.86252	0.93201
2893.80872	0.93329
2891.75492	0.93421
2889.70112	0.93488
2887.64731	0.93544
2885.59351	0.93596
2883.53971	0.93654
2881.48590	0.93722
2879.43210	0.93788
2877.37830	0.93852
2875.32449	0.93888
2873.27069	0.93898
2871.21689	0.93932
2869.16308	0.93981
2867.10928	0.94015
2865.05548	0.94022
2863.00167	0.93978
2860.94787	0.93883
2858.89407	0.93783
2856.84026	0.93674
2854.78646	0.93528
2852.73266	0.93391
2850.67885	0.93305
2848.62505	0.93285
2846.57125	0.93352
2844.51744	0.93484
2842.46364	0.93648
2840.40984	0.93820
2838.35603	0.93969
2836.30223	0.94100
2834.24843	0.94202
2832.19463	0.94274
2830.14082	0.94339
2828.08702	0.94370
2826.03322	0.94384
2823.97941	0.94419
2821.92561	0.94463
2819.87181	0.94503
2817.81800	0.94521
2815.76420	0.94518
2813.71040	0.94528
2811.65659	0.94567
2809.60279	0.94598
2807.54899	0.94607
2805.49518	0.94608
2803.44138	0.94601
2801.38758	0.94595
2799.33377	0.94606
2797.27997	0.94630
2795.22617	0.94659
2793.17236	0.94680
2791.11856	0.94695
2789.06476	0.94713
2787.01095	0.94724
2784.95715	0.94719
2782.90335	0.94725
2780.84955	0.94763
2778.79574	0.94803
2776.74194	0.94809
2774.68814	0.94780
2772.63433	0.94754
2770.58053	0.94777
2768.52673	0.94827
2766.47292	0.94842
2764.41912	0.94812
2762.36532	0.94783
2760.31151	0.94772
2758.25771	0.94766
2756.20391	0.94785
2754.15010	0.94834
2752.09630	0.94870
2750.04250	0.94863
2747.98869	0.94855
2745.93489	0.94885
2743.88109	0.94904
2741.82728	0.94889
2739.77348	0.94891
2737.71968	0.94932
2735.66587	0.94963
2733.61207	0.94956
2731.55827	0.94932
2729.50446	0.94896
2727.45066	0.94867
2725.39686	0.94876
2723.34306	0.94904
2721.28925	0.94904
2719.23545	0.94898
2717.18165	0.94912
2715.12784	0.94904
2713.07404	0.94876
2711.02024	0.94884
2708.96643	0.94935
2706.91263	0.94978
2704.85883	0.94986
2702.80502	0.94988
2700.75122	0.95000
2698.69742	0.95001
2696.64361	0.94990
2694.58981	0.94988
2692.53601	0.95005
2690.48220	0.95004
2688.42840	0.94977
2686.37460	0.94978
2684.32079	0.95000
2682.26699	0.94993
2680.21319	0.94969
2678.15938	0.94959
2676.10558	0.94958
2674.05178	0.94960
2671.99797	0.94975
2669.94417	0.95007
2667.89037	0.95037
2665.83657	0.95040
2663.78276	0.95018
2661.72896	0.94998
2659.67516	0.94992
2657.62135	0.95000
2655.56755	0.95027
2653.51375	0.95065
2651.45994	0.95070
2649.40614	0.95025
2647.35234	0.94997
2645.29853	0.95016
2643.24473	0.95043
2641.19093	0.95055
2639.13712	0.95034
2637.08332	0.94999
2635.02952	0.95015
2632.97571	0.95070
2630.92191	0.95104
2628.86811	0.95116
2626.81430	0.95111
2624.76050	0.95080
2622.70670	0.95041
2620.65289	0.95036
2618.59909	0.95060
2616.54529	0.95079
2614.49149	0.95089
2612.43768	0.95081
2610.38388	0.95064
2608.33008	0.95090
2606.27627	0.95157
2604.22247	0.95190
2602.16867	0.95157
2600.11486	0.95136
2598.06106	0.95152
2596.00726	0.95179
2593.95345	0.95229
2591.89965	0.95254
2589.84585	0.95205
2587.79204	0.95145
2585.73824	0.95137
2583.68444	0.95145
2581.63063	0.95173
2579.57683	0.95268
2577.52303	0.95328
2575.46922	0.95286
2573.41542	0.95214
2571.36162	0.95157
2569.30781	0.95170
2567.25401	0.95241
2565.20021	0.95290
2563.14640	0.95305
2561.09260	0.95285
2559.03880	0.95231
2556.98500	0.95211
2554.93119	0.95261
2552.87739	0.95269
2550.82359	0.95222
2548.76978	0.95217
2546.71598	0.95241
2544.66218	0.95257
2542.60837	0.95232
2540.55457	0.95168
2538.50077	0.95170
2536.44696	0.95261
2534.39316	0.95331
2532.33936	0.95326
2530.28555	0.95283
2528.23175	0.95248
2526.17795	0.95237
2524.12414	0.95226
2522.07034	0.95195
2520.01654	0.95170
2517.96273	0.95195
2515.90893	0.95260
2513.85513	0.95313
2511.80132	0.95329
2509.74752	0.95302
2507.69372	0.95244
2505.63992	0.95255
2503.58611	0.95323
2501.53231	0.95295
2499.47851	0.95240
2497.42470	0.95307
2495.37090	0.95392
2493.31710	0.95376
2491.26329	0.95347
2489.20949	0.95358
2487.15569	0.95320
2485.10188	0.95250
2483.04808	0.95246
2480.99428	0.95297
2478.94047	0.95353
2476.88667	0.95369
2474.83287	0.95323
2472.77906	0.95271
2470.72526	0.95264
2468.67146	0.95298
2466.61765	0.95345
2464.56385	0.95374
2462.51005	0.95351
2460.45624	0.95296
2458.40244	0.95262
2456.34864	0.95235
2454.29483	0.95241
2452.24103	0.95336
2450.18723	0.95412
2448.13343	0.95374
2446.07962	0.95324
2444.02582	0.95335
2441.97202	0.95381
2439.91821	0.95421
2437.86441	0.95393
2435.81061	0.95291
2433.75680	0.95220
2431.70300	0.95278
2429.64920	0.95425
2427.59539	0.95510
2425.54159	0.95490
2423.48779	0.95459
2421.43398	0.95444
2419.38018	0.95438
2417.32638	0.95443
2415.27257	0.95429
2413.21877	0.95406
2411.16497	0.95405
2409.11116	0.95416
2407.05736	0.95447
2405.00356	0.95496
2402.94975	0.95479
2400.89595	0.95425
2398.84215	0.95396
2396.78834	0.95356
2394.73454	0.95317
2392.68074	0.95311
2390.62694	0.95346
2388.57313	0.95391
2386.51933	0.95395
2384.46553	0.95391
2382.41172	0.95423
2380.35792	0.95413
2378.30412	0.95316
2376.25031	0.95234
2374.19651	0.95223
2372.14271	0.95232
2370.08890	0.95228
2368.03510	0.95214
2365.98130	0.95268
2363.92749	0.95385
2361.87369	0.95394
2359.81989	0.95302
2357.76608	0.95257
2355.71228	0.95281
2353.65848	0.95311
2351.60467	0.95314
2349.55087	0.95300
2347.49707	0.95293
2345.44326	0.95319
2343.38946	0.95340
2341.33566	0.95266
2339.28186	0.95143
2337.22805	0.95106
2335.17425	0.95152
2333.12045	0.95184
2331.06664	0.95182
2329.01284	0.95197
2326.95904	0.95212
2324.90523	0.95197
2322.85143	0.95217
2320.79763	0.95311
2318.74382	0.95368
2316.69002	0.95316
2314.63622	0.95259
2312.58241	0.95289
2310.52861	0.95319
2308.47481	0.95297
2306.42100	0.95297
2304.36720	0.95342
2302.31340	0.95384
2300.25959	0.95371
2298.20579	0.95300
2296.15199	0.95240
2294.09818	0.95212
2292.04438	0.95167
2289.99058	0.95129
2287.93677	0.95141
2285.88297	0.95165
2283.82917	0.95173
2281.77537	0.95156
2279.72156	0.95169
2277.66776	0.95229
2275.61396	0.95227
2273.56015	0.95205
2271.50635	0.95235
2269.45255	0.95252
2267.39874	0.95300
2265.34494	0.95381
2263.29114	0.95389
2261.23733	0.95316
2259.18353	0.95219
2257.12973	0.95182
2255.07592	0.95269
2253.02212	0.95397
2250.96832	0.95444
2248.91451	0.95464
2246.86071	0.95488
2244.80691	0.95409
2242.75310	0.95263
2240.69930	0.95248
2238.64550	0.95381
2236.59169	0.95439
2234.53789	0.95398
2232.48409	0.95384
2230.43029	0.95368
2228.37648	0.95327
2226.32268	0.95293
2224.26888	0.95275
2222.21507	0.95258
2220.16127	0.95287
2218.10747	0.95456
2216.05366	0.95655
2213.99986	0.95759
2211.94606	0.95859
2209.89225	0.95871
2207.83845	0.95669
2205.78465	0.95495
2203.73084	0.95536
2201.67704	0.95582
2199.62324	0.95479
2197.56943	0.95470
2195.51563	0.95621
2193.46183	0.95667
2191.40802	0.95548
2189.35422	0.95461
2187.30042	0.95516
2185.24661	0.95551
2183.19281	0.95397
2181.13901	0.95144
2179.08520	0.95088
2177.03140	0.95211
2174.97760	0.95221
2172.92380	0.95187
2170.86999	0.95239
2168.81619	0.95372
2166.76239	0.95591
2164.70858	0.95727
2162.65478	0.95657
2160.60098	0.95652
2158.54717	0.95878
2156.49337	0.95907
2154.43957	0.95709
2152.38576	0.95736
2150.33196	0.95902
2148.27816	0.95825
2146.22435	0.95646
2144.17055	0.95625
2142.11675	0.95600
2140.06294	0.95521
2138.00914	0.95539
2135.95534	0.95636
2133.90153	0.95667
2131.84773	0.95596
2129.79393	0.95506
2127.74012	0.95501
2125.68632	0.95551
2123.63252	0.95566
2121.57871	0.95617
2119.52491	0.95690
2117.47111	0.95706
2115.41731	0.95737
2113.36350	0.95711
2111.30970	0.95552
2109.25590	0.95478
2107.20209	0.95572
2105.14829	0.95624
2103.09449	0.95573
2101.04068	0.95585
2098.98688	0.95679
2096.93308	0.95655
2094.87927	0.95595
2092.82547	0.95667
2090.77167	0.95741
2088.71786	0.95723
2086.66406	0.95562
2084.61026	0.95353
2082.55645	0.95318
2080.50265	0.95435
2078.44885	0.95542
2076.39504	0.95587
2074.34124	0.95596
2072.28744	0.95548
2070.23363	0.95486
2068.17983	0.95536
2066.12603	0.95587
2064.07223	0.95544
2062.01842	0.95567
2059.96462	0.95654
2057.91082	0.95671
2055.85701	0.95668
2053.80321	0.95731
2051.74941	0.95730
2049.69560	0.95514
2047.64180	0.95251
2045.58800	0.95239
2043.53419	0.95449
2041.48039	0.95636
2039.42659	0.95719
2037.37278	0.95665
2035.31898	0.95459
2033.26518	0.95331
2031.21137	0.95455
2029.15757	0.95588
2027.10377	0.95544
2025.04996	0.95546
2022.99616	0.95671
2020.94236	0.95655
2018.88855	0.95358
2016.83475	0.95057
2014.78095	0.95009
2012.72714	0.95103
2010.67334	0.95169
2008.61954	0.95333
2006.56574	0.95770
2004.51193	0.96117
2002.45813	0.96042
2000.40433	0.95834
1998.35052	0.95856
1996.29672	0.96045
1994.24292	0.96103
1992.18911	0.96017
1990.13531	0.96009
1988.08151	0.96040
1986.02770	0.95958
1983.97390	0.95832
1981.92010	0.95731
1979.86629	0.95643
1977.81249	0.95617
1975.75869	0.95584
1973.70488	0.95495
1971.65108	0.95474
1969.59728	0.95600
1967.54347	0.95756
1965.48967	0.95786
1963.43587	0.95753
1961.38206	0.95767
1959.32826	0.95837
1957.27446	0.95848
1955.22066	0.95662
1953.16685	0.95410
1951.11305	0.95322
1949.05925	0.95370
1947.00544	0.95467
1944.95164	0.95596
1942.89784	0.95616
1940.84403	0.95469
1938.79023	0.95382
1936.73643	0.95463
1934.68262	0.95574
1932.62882	0.95661
1930.57502	0.95773
1928.52121	0.95829
1926.46741	0.95731
1924.41361	0.95649
1922.35980	0.95749
1920.30600	0.95821
1918.25220	0.95746
1916.19839	0.95685
1914.14459	0.95681
1912.09079	0.95696
1910.03698	0.95746
1907.98318	0.95795
1905.92938	0.95774
1903.87557	0.95725
1901.82177	0.95714
1899.76797	0.95722
1897.71417	0.95726
1895.66036	0.95707
1893.60656	0.95678
1891.55276	0.95674
1889.49895	0.95663
1887.44515	0.95654
1885.39135	0.95639
1883.33754	0.95569
1881.28374	0.95543
1879.22994	0.95640
1877.17613	0.95700
1875.12233	0.95635
1873.06853	0.95603
1871.01472	0.95708
1868.96092	0.95786
1866.90712	0.95662
1864.85331	0.95522
1862.79951	0.95536
1860.74571	0.95638
1858.69190	0.95710
1856.63810	0.95738
1854.58430	0.95742
1852.53049	0.95736
1850.47669	0.95774
1848.42289	0.95841
1846.36908	0.95822
1844.31528	0.95766
1842.26148	0.95807
1840.20768	0.95833
1838.15387	0.95821
1836.10007	0.95847
1834.04627	0.95858
1831.99246	0.95792
1829.93866	0.95719
1827.88486	0.95757
1825.83105	0.95817
1823.77725	0.95770
1821.72345	0.95727
1819.66964	0.95760
1817.61584	0.95765
1815.56204	0.95709
1813.50823	0.95674
1811.45443	0.95651
1809.40063	0.95605
1807.34682	0.95582
1805.29302	0.95605
1803.23922	0.95642
1801.18541	0.95626
1799.13161	0.95557
1797.07781	0.95543
1795.02400	0.95613
1792.97020	0.95697
1790.91640	0.95716
1788.86260	0.95679
1786.80879	0.95646
1784.75499	0.95645
1782.70119	0.95659
1780.64738	0.95663
1778.59358	0.95658
1776.53978	0.95655
1774.48597	0.95671
1772.43217	0.95713
1770.37837	0.95733
1768.32456	0.95726
1766.27076	0.95719
1764.21696	0.95704
1762.16315	0.95690
1760.10935	0.95661
1758.05555	0.95606
1756.00174	0.95562
1753.94794	0.95549
1751.89414	0.95535
1749.84033	0.95506
1747.78653	0.95444
1745.73273	0.95371
1743.67892	0.95365
1741.62512	0.95395
1739.57132	0.95390
1737.51751	0.95359
1735.46371	0.95328
1733.40991	0.95327
1731.35611	0.95371
1729.30230	0.95378
1727.24850	0.95328
1725.19470	0.95302
1723.14089	0.95312
1721.08709	0.95305
1719.03329	0.95269
1716.97948	0.95214
1714.92568	0.95166
1712.87188	0.95155
1710.81807	0.95176
1708.76427	0.95174
1706.71047	0.95112
1704.65666	0.95040
1702.60286	0.95013
1700.54906	0.94973
1698.49525	0.94867
1696.44145	0.94723
1694.38765	0.94579
1692.33384	0.94474
1690.28004	0.94342
1688.22624	0.94189
1686.17243	0.94064
1684.11863	0.93906
1682.06483	0.93780
1680.01103	0.93691
1677.95722	0.93585
1675.90342	0.93472
1673.84962	0.93366
1671.79581	0.93282
1669.74201	0.93159
1667.68821	0.93002
1665.63440	0.92904
1663.58060	0.92820
1661.52680	0.92711
1659.47299	0.92616
1657.41919	0.92550
1655.36539	0.92504
1653.31158	0.92454
1651.25778	0.92403
1649.20398	0.92362
1647.15017	0.92311
1645.09637	0.92293
1643.04257	0.92289
1640.98876	0.92274
1638.93496	0.92302
1636.88116	0.92385
1634.82735	0.92426
1632.77355	0.92418
1630.71975	0.92432
1628.66594	0.92453
1626.61214	0.92468
1624.55834	0.92488
1622.50454	0.92530
1620.45073	0.92598
1618.39693	0.92685
1616.34313	0.92755
1614.28932	0.92783
1612.23552	0.92817
1610.18172	0.92855
1608.12791	0.92814
1606.07411	0.92618
1604.02031	0.92288
1601.96650	0.91971
1599.91270	0.91871
1597.85890	0.92042
1595.80509	0.92381
1593.75129	0.92729
1591.69749	0.92968
1589.64368	0.93113
1587.58988	0.93203
1585.53608	0.93209
1583.48227	0.93176
1581.42847	0.93226
1579.37467	0.93371
1577.32086	0.93539
1575.26706	0.93666
1573.21326	0.93746
1571.15945	0.93817
1569.10565	0.93883
1567.05185	0.93931
1564.99805	0.93939
1562.94424	0.93910
1560.89044	0.93861
1558.83664	0.93832
1556.78283	0.93898
1554.72903	0.93938
1552.67523	0.93930
1550.62142	0.93919
1548.56762	0.93920
1546.51382	0.93936
1544.46001	0.93955
1542.40621	0.93969
1540.35241	0.94008
1538.29860	0.94031
1536.24480	0.94030
1534.19100	0.94058
1532.13719	0.94114
1530.08339	0.94184
1528.02959	0.94314
1525.97578	0.94461
1523.92198	0.94513
1521.86818	0.94480
1519.81437	0.94458
1517.76057	0.94528
1515.70677	0.94643
1513.65297	0.94721
1511.59916	0.94755
1509.54536	0.94775
1507.49156	0.94826
1505.43775	0.94892
1503.38395	0.94897
1501.33015	0.94819
1499.27634	0.94509
1497.22254	0.93525
1495.16874	0.91914
1493.11493	0.90817
1491.06113	0.90903
1489.00733	0.92061
1486.95352	0.93145
1484.89972	0.93734
1482.84592	0.94092
1480.79211	0.94329
1478.73831	0.94490
1476.68451	0.94611
1474.63070	0.94688
1472.57690	0.94667
1470.52310	0.94566
1468.46929	0.94501
1466.41549	0.94476
1464.36169	0.94462
1462.30788	0.94453
1460.25408	0.94399
1458.20028	0.93966
1456.14648	0.92582
1454.09267	0.91141
1452.03887	0.90389
1449.98507	0.90405
1447.93126	0.90958
1445.87746	0.91542
1443.82366	0.91994
1441.76985	0.92381
1439.71605	0.92700
1437.66225	0.92977
1435.60844	0.93229
1433.55464	0.93412
1431.50084	0.93561
1429.44703	0.93700
1427.39323	0.93824
1425.33943	0.93931
1423.28562	0.94014
1421.23182	0.94072
1419.17802	0.94114
1417.12421	0.94120
1415.07041	0.94106
1413.01661	0.94106
1410.96280	0.94142
1408.90900	0.94202
1406.85520	0.94255
1404.80139	0.94279
1402.74759	0.94284
1400.69379	0.94292
1398.63999	0.94324
1396.58618	0.94398
1394.53238	0.94458
1392.47858	0.94453
1390.42477	0.94411
1388.37097	0.94346
1386.31717	0.94279
1384.26336	0.94238
1382.20956	0.94198
1380.15576	0.94118
1378.10195	0.94031
1376.04815	0.93996
1373.99435	0.93973
1371.94054	0.93925
1369.88674	0.93909
1367.83294	0.93951
1365.77913	0.94027
1363.72533	0.94100
1361.67153	0.94135
1359.61772	0.94144
1357.56392	0.94166
1355.51012	0.94211
1353.45631	0.94245
1351.40251	0.94237
1349.34871	0.94222
1347.29491	0.94233
1345.24110	0.94266
1343.18730	0.94299
1341.13350	0.94318
1339.07969	0.94342
1337.02589	0.94356
1334.97209	0.94350
1332.91828	0.94339
1330.86448	0.94332
1328.81068	0.94327
1326.75687	0.94323
1324.70307	0.94316
1322.64927	0.94299
1320.59546	0.94294
1318.54166	0.94312
1316.48786	0.94332
1314.43405	0.94333
1312.38025	0.94314
1310.32645	0.94287
1308.27264	0.94301
1306.21884	0.94362
1304.16504	0.94417
1302.11123	0.94444
1300.05743	0.94448
1298.00363	0.94466
1295.94982	0.94513
1293.89602	0.94526
1291.84222	0.94497
1289.78842	0.94479
1287.73461	0.94472
1285.68081	0.94457
1283.62701	0.94446
1281.57320	0.94422
1279.51940	0.94389
1277.46560	0.94381
1275.41179	0.94370
1273.35799	0.94319
1271.30419	0.94262
1269.25038	0.94244
1267.19658	0.94271
1265.14278	0.94315
1263.08897	0.94341
1261.03517	0.94324
1258.98137	0.94289
1256.92756	0.94269
1254.87376	0.94262
1252.81996	0.94256
1250.76615	0.94249
1248.71235	0.94230
1246.65855	0.94207
1244.60474	0.94205
1242.55094	0.94210
1240.49714	0.94198
1238.44334	0.94170
1236.38953	0.94140
1234.33573	0.94120
1232.28193	0.94105
1230.22812	0.94091
1228.17432	0.94052
1226.12052	0.93983
1224.06671	0.93937
1222.01291	0.93930
1219.95911	0.93932
1217.90530	0.93900
1215.85150	0.93810
1213.79770	0.93701
1211.74389	0.93606
1209.69009	0.93510
1207.63629	0.93410
1205.58248	0.93293
1203.52868	0.93135
1201.47488	0.92956
1199.42107	0.92802
1197.36727	0.92671
1195.31347	0.92558
1193.25966	0.92430
1191.20586	0.92245
1189.15206	0.92024
1187.09825	0.91797
1185.04445	0.91570
1182.99065	0.91323
1180.93685	0.91076
1178.88304	0.90907
1176.82924	0.90786
1174.77544	0.90625
1172.72163	0.90432
1170.66783	0.90252
1168.61403	0.90078
1166.56022	0.89880
1164.50642	0.89665
1162.45262	0.89475
1160.39881	0.89308
1158.34501	0.89100
1156.29121	0.88851
1154.23740	0.88650
1152.18360	0.88545
1150.12980	0.88484
1148.07599	0.88404
1146.02219	0.88306
1143.96839	0.88211
1141.91458	0.88115
1139.86078	0.88022
1137.80698	0.87914
1135.75317	0.87767
1133.69937	0.87622
1131.64557	0.87514
1129.59176	0.87395
1127.53796	0.87236
1125.48416	0.87049
1123.43036	0.86815
1121.37655	0.86537
1119.32275	0.86248
1117.26895	0.85974
1115.21514	0.85720
1113.16134	0.85467
1111.10754	0.85213
1109.05373	0.84990
1106.99993	0.84787
1104.94613	0.84569
1102.89232	0.84379
1100.83852	0.84276
1098.78472	0.84208
1096.73091	0.84092
1094.67711	0.83984
1092.62331	0.83953
1090.56950	0.83967
1088.51570	0.83990
1086.46190	0.83999
1084.40809	0.83998
1082.35429	0.84016
1080.30049	0.84035
1078.24668	0.84009
1076.19288	0.83946
1074.13908	0.83891
1072.08528	0.83825
1070.03147	0.83731
1067.97767	0.83638
1065.92387	0.83541
1063.87006	0.83410
1061.81626	0.83257
1059.76246	0.83127
1057.70865	0.82997
1055.65485	0.82797
1053.60105	0.82536
1051.54724	0.82262
1049.49344	0.81965
1047.43964	0.81637
1045.38583	0.81314
1043.33203	0.80993
1041.27823	0.80677
1039.22442	0.80382
1037.17062	0.80049
1035.11682	0.79630
1033.06301	0.79146
1031.00921	0.78691
1028.95541	0.78410
1026.90160	0.78385
1024.84780	0.78577
1022.79400	0.78848
1020.74019	0.79059
1018.68639	0.79181
1016.63259	0.79275
1014.57879	0.79349
1012.52498	0.79362
1010.47118	0.79304
1008.41738	0.79207
1006.36357	0.79140
1004.30977	0.79180
1002.25597	0.79360
1000.20216	0.79686
998.14836	0.80134
996.09456	0.80629
994.04075	0.81094
991.98695	0.81519
989.93315	0.81950
987.87934	0.82422
985.82554	0.82919
983.77174	0.83382
981.71793	0.83793
979.66413	0.84206
977.61033	0.84647
975.55652	0.85111
973.50272	0.85554
971.44892	0.85925
969.39511	0.86234
967.34131	0.86510
965.28751	0.86777
963.23371	0.87073
961.17990	0.87367
959.12610	0.87625
957.07230	0.87895
955.01849	0.88160
952.96469	0.88351
950.91089	0.88489
948.85708	0.88631
946.80328	0.88751
944.74948	0.88814
942.69567	0.88876
940.64187	0.88973
938.58807	0.89057
936.53426	0.89111
934.48046	0.89160
932.42666	0.89253
930.37285	0.89360
928.31905	0.89396
926.26525	0.89375
924.21144	0.89349
922.15764	0.89327
920.10384	0.89278
918.05003	0.89173
915.99623	0.89005
913.94243	0.88800
911.88862	0.88617
909.83482	0.88505
907.78102	0.88484
905.72722	0.88595
903.67341	0.88878
901.61961	0.89300
899.56581	0.89747
897.51200	0.90132
895.45820	0.90430
893.40440	0.90637
891.35059	0.90810
889.29679	0.91011
887.24299	0.91188
885.18918	0.91287
883.13538	0.91344
881.08158	0.91402
879.02777	0.91511
876.97397	0.91645
874.92017	0.91712
872.86636	0.91718
870.81256	0.91750
868.75876	0.91834
866.70495	0.91926
864.65115	0.91997
862.59735	0.92042
860.54354	0.92084
858.48974	0.92152
856.43594	0.92243
854.38213	0.92318
852.32833	0.92335
850.27453	0.92292
848.22073	0.92191
846.16692	0.92072
844.11312	0.92053
842.05932	0.92122
840.00551	0.92143
837.95171	0.92104
835.89791	0.92149
833.84410	0.92280
831.79030	0.92317
829.73650	0.92273
827.68269	0.92259
825.62889	0.92252
823.57509	0.92232
821.52128	0.92201
819.46748	0.92182
817.41368	0.92177
815.35987	0.92151
813.30607	0.92123
811.25227	0.92035
809.19846	0.91821
807.14466	0.91555
805.09086	0.91271
803.03705	0.90999
800.98325	0.90846
798.92945	0.90767
796.87565	0.90666
794.82184	0.90618
792.76804	0.90628
790.71424	0.90555
788.66043	0.90424
786.60663	0.90326
784.55283	0.90185
782.49902	0.89950
780.44522	0.89701
778.39142	0.89479
776.33761	0.89271
774.28381	0.89026
772.23001	0.88616
770.17620	0.88054
768.12240	0.87445
766.06860	0.86800
764.01479	0.86136
761.96099	0.85456
759.90719	0.84777
757.85338	0.84236
755.79958	0.83891
753.74578	0.83723
751.69197	0.83704
749.63817	0.83752
747.58437	0.83926
745.53056	0.84353
743.47676	0.85025
741.42296	0.85808
739.36916	0.86532
737.31535	0.87118
735.26155	0.87635
733.20775	0.88147
731.15394	0.88597
729.10014	0.88949
727.04634	0.89249
724.99253	0.89454
722.93873	0.89541
720.88493	0.89616
718.83112	0.89757
716.77732	0.89899
714.72352	0.89904
712.66971	0.89766
710.61591	0.89364
708.56211	0.88246
706.50830	0.86089
704.45450	0.82844
702.40070	0.78638
700.34689	0.73845
698.29309	0.69340
696.23929	0.66909
694.18548	0.68172
692.13168	0.72313
690.07788	0.76711
688.02408	0.79732
685.97027	0.81469
683.91647	0.82595
681.86267	0.83411
679.80886	0.83933
677.75506	0.84357
675.70126	0.84794
673.64745	0.85036
671.59365	0.85069
669.53985	0.85121
667.48604	0.85233
665.43224	0.85343
663.37844	0.85493
661.32463	0.85573
659.27083	0.85490
657.21703	0.85386
655.16322	0.85280
653.10942	0.85159
651.05562	0.85140
649.00181	0.85169
646.94801	0.85202
644.89421	0.85291
642.84040	0.85377
640.78660	0.85440
638.73280	0.85503
636.67899	0.85492
634.62519	0.85434
632.57139	0.85416
630.51759	0.85392
628.46378	0.85315
626.40998	0.85277
624.35618	0.85339
622.30237	0.85352
620.24857	0.85278
618.19477	0.85232
616.14096	0.85131
614.08716	0.84893
612.03336	0.84612
609.97955	0.84366
607.92575	0.84134
605.87195	0.83852
603.81814	0.83533
601.76434	0.83208
599.71054	0.82941
597.65673	0.82783
595.60293	0.82723
593.54913	0.82787
591.49532	0.82872
589.44152	0.82852
587.38772	0.82815
585.33391	0.82808
583.28011	0.82746
581.22631	0.82688
579.17250	0.82682
577.11870	0.82655
575.06490	0.82556
573.01110	0.82324
570.95729	0.82021
568.90349	0.81709
566.84969	0.81406
564.79588	0.81180
562.74208	0.80912
560.68828	0.80533
558.63447	0.80149
556.58067	0.79786
554.52687	0.79463
552.47306	0.79184
550.41926	0.78852
548.36546	0.78317
546.31165	0.77604
544.25785	0.76805
542.20405	0.75931
540.15024	0.75131
538.09644	0.74572
536.04264	0.74361
533.98883	0.74503
531.93503	0.74785
529.88123	0.75038
527.82742	0.75389
525.77362	0.75949
523.71982	0.76451
521.66602	0.76697
519.61221	0.76846
517.55841	0.77134
515.50461	0.77530
513.45080	0.77840
511.39700	0.78036
509.34320	0.78214
507.28939	0.78447
505.23559	0.78666
503.18179	0.78758
501.12798	0.78824
499.07418	0.78967
497.02038	0.79019
494.96657	0.78891
492.91277	0.78669
490.85897	0.78378
488.80516	0.78041
486.75136	0.77702
484.69756	0.77234
482.64375	0.76643
480.58995	0.76072
478.53615	0.75400
476.48234	0.74602
474.42854	0.73797
472.37474	0.72924
470.32093	0.71991
468.26713	0.71300
466.21333	0.71151
464.15953	0.71403
462.10572	0.71705
460.05192	0.72156
457.99812	0.72757
455.94431	0.73050
453.89051	0.73171
451.83671	0.73412
449.78290	0.73803
447.72910	0.74374
445.67530	0.74856
443.62149	0.74932
441.56769	0.74680
439.51389	0.74395
437.46008	0.74187
435.40628	0.73850
433.35248	0.73341
431.29867	0.72916
429.24487	0.72800
427.19107	0.73045
425.13726	0.73120
423.08346	0.72591
421.02966	0.72089
418.97585	0.72392
416.92205	0.73259
414.86825	0.73787
412.81445	0.73929
410.76064	0.74239
408.70684	0.75058
406.65304	0.75699
404.59923	0.75987
402.54543	0.76480
400.49163	0.76894
398.43782	0.76215
