3996.70104	0.94673
3994.64724	0.94681
3992.59344	0.94683
3990.53964	0.94685
3988.48583	0.94676
3986.43203	0.94670
3984.37823	0.94685
3982.32442	0.94717
3980.27062	0.94774
3978.21682	0.94824
3976.16301	0.94848
3974.10921	0.94863
3972.05541	0.94846
3970.00160	0.94798
3967.94780	0.94779
3965.89400	0.94796
3963.84019	0.94780
3961.78639	0.94735
3959.73259	0.94749
3957.67878	0.94819
3955.62498	0.94825
3953.57118	0.94742
3951.51737	0.94688
3949.46357	0.94709
3947.40977	0.94738
3945.35596	0.94758
3943.30216	0.94783
3941.24836	0.94789
3939.19455	0.94774
3937.14075	0.94743
3935.08695	0.94731
3933.03315	0.94786
3930.97934	0.94851
3928.92554	0.94843
3926.87174	0.94812
3924.81793	0.94815
3922.76413	0.94850
3920.71033	0.94876
3918.65652	0.94888
3916.60272	0.94893
3914.54892	0.94873
3912.49511	0.94842
3910.44131	0.94825
3908.38751	0.94807
3906.33370	0.94772
3904.27990	0.94759
3902.22610	0.94796
3900.17229	0.94838
3898.11849	0.94829
3896.06469	0.94759
3894.01088	0.94693
3891.95708	0.94706
3889.90328	0.94765
3887.84947	0.94787
3885.79567	0.94787
3883.74187	0.94786
3881.68807	0.94777
3879.63426	0.94786
3877.58046	0.94837
3875.52666	0.94895
3873.47285	0.94895
3871.41905	0.94838
3869.36525	0.94835
3867.31144	0.94865
3865.25764	0.94853
3863.20384	0.94861
3861.15003	0.94923
3859.09623	0.94954
3857.04243	0.94919
3854.98862	0.94870
3852.93482	0.94864
3850.88102	0.94863
3848.82721	0.94858
3846.77341	0.94845
3844.71961	0.94836
3842.66580	0.94868
3840.61200	0.94901
3838.55820	0.94927
3836.50439	0.94953
3834.45059	0.94941
3832.39679	0.94926
3830.34298	0.94914
3828.28918	0.94891
3826.23538	0.94911
3824.18158	0.94946
3822.12777	0.94951
3820.07397	0.94980
3818.02017	0.94991
3815.96636	0.94934
3813.91256	0.94888
3811.85876	0.94895
3809.80495	0.94902
3807.75115	0.94894
3805.69735	0.94879
3803.64354	0.94852
3801.58974	0.94862
3799.53594	0.94906
3797.48213	0.94931
3795.42833	0.94936
3793.37453	0.94912
3791.32072	0.94888
3789.26692	0.94873
3787.21312	0.94852
3785.15931	0.94836
3783.10551	0.94810
3781.05171	0.94795
3778.99790	0.94866
3776.94410	0.94933
3774.89030	0.94937
3772.83650	0.94949
3770.78269	0.94953
3768.72889	0.94941
3766.67509	0.94939
3764.62128	0.94946
3762.56748	0.94950
3760.51368	0.94977
3758.45987	0.95075
3756.40607	0.95139
3754.35227	0.95118
3752.29846	0.95115
3750.24466	0.95161
3748.19086	0.95174
3746.13705	0.95164
3744.08325	0.95164
3742.02945	0.95160
3739.97564	0.95128
3737.92184	0.95117
3735.86804	0.95186
3733.81423	0.95235
3731.76043	0.95197
3729.70663	0.95165
3727.65282	0.95126
3725.59902	0.95054
3723.54522	0.95003
3721.49141	0.95024
3719.43761	0.95084
3717.38381	0.95099
3715.33001	0.95040
3713.27620	0.94930
3711.22240	0.94773
3709.16860	0.94648
3707.11479	0.94594
3705.06099	0.94508
3703.00719	0.94339
3700.95338	0.94164
3698.89958	0.94062
3696.84578	0.94015
3694.79197	0.94015
3692.73817	0.94056
3690.68437	0.94093
3688.63056	0.94131
3686.57676	0.94168
3684.52296	0.94187
3682.46915	0.94211
3680.41535	0.94213
3678.36155	0.94195
3676.30774	0.94235
3674.25394	0.94297
3672.20014	0.94267
3670.14633	0.94227
3668.09253	0.94255
3666.03873	0.94277
3663.98492	0.94222
3661.93112	0.94139
3659.87732	0.94088
3657.82352	0.94064
3655.76971	0.94039
3653.71591	0.93958
3651.66211	0.93807
3649.60830	0.93663
3647.55450	0.93694
3645.50070	0.93761
3643.44689	0.93724
3641.39309	0.93655
3639.33929	0.93637
3637.28548	0.93641
3635.23168	0.93575
3633.17788	0.93430
3631.12407	0.93297
3629.07027	0.93294
3627.01647	0.93337
3624.96266	0.93257
3622.90886	0.93155
3620.85506	0.93101
3618.80125	0.93092
3616.74745	0.93121
3614.69365	0.93186
3612.63984	0.93301
3610.58604	0.93383
3608.53224	0.93354
3606.47844	0.93312
3604.42463	0.93332
3602.37083	0.93370
3600.31703	0.93380
3598.26322	0.93352
3596.20942	0.93324
3594.15562	0.93328
3592.10181	0.93326
3590.04801	0.93296
3587.99421	0.93305
3585.94040	0.93380
3583.88660	0.93411
3581.83280	0.93370
3579.77899	0.93326
3577.72519	0.93363
3575.67139	0.93438
3573.61758	0.93438
3571.56378	0.93384
3569.50998	0.93354
3567.45617	0.93359
3565.40237	0.93368
3563.34857	0.93338
3561.29476	0.93258
3559.24096	0.93198
3557.18716	0.93191
3555.13335	0.93187
3553.07955	0.93183
3551.02575	0.93201
3548.97195	0.93199
3546.91814	0.93178
3544.86434	0.93185
3542.81054	0.93193
3540.75673	0.93192
3538.70293	0.93204
3536.64913	0.93218
3534.59532	0.93208
3532.54152	0.93186
3530.48772	0.93195
3528.43391	0.93218
3526.38011	0.93215
3524.32631	0.93181
3522.27250	0.93158
3520.21870	0.93206
3518.16490	0.93256
3516.11109	0.93226
3514.05729	0.93191
3512.00349	0.93178
3509.94968	0.93156
3507.89588	0.93167
3505.84208	0.93158
3503.78827	0.93130
3501.73447	0.93180
3499.68067	0.93276
3497.62687	0.93291
3495.57306	0.93188
3493.51926	0.93093
3491.46546	0.93108
3489.41165	0.93193
3487.35785	0.93264
3485.30405	0.93261
3483.25024	0.93210
3481.19644	0.93161
3479.14264	0.93119
3477.08883	0.93104
3475.03503	0.93127
3472.98123	0.93142
3470.92742	0.93120
3468.87362	0.93103
3466.81982	0.93099
3464.76601	0.93048
3462.71221	0.92990
3460.65841	0.93003
3458.60460	0.93041
3456.55080	0.93042
3454.49700	0.93024
3452.44319	0.92998
3450.38939	0.92976
3448.33559	0.93003
3446.28178	0.93045
3444.22798	0.93014
3442.17418	0.92944
3440.12038	0.92915
3438.06657	0.92924
3436.01277	0.92915
3433.95897	0.92874
3431.90516	0.92885
3429.85136	0.92985
3427.79756	0.93060
3425.74375	0.93008
3423.68995	0.92926
3421.63615	0.92928
3419.58234	0.92945
3417.52854	0.92926
3415.47474	0.92923
3413.42093	0.92921
3411.36713	0.92889
3409.31333	0.92840
3407.25952	0.92779
3405.20572	0.92748
3403.15192	0.92798
3401.09811	0.92903
3399.04431	0.92969
3396.99051	0.92947
3394.93670	0.92879
3392.88290	0.92826
3390.82910	0.92818
3388.77529	0.92830
3386.72149	0.92831
3384.66769	0.92840
3382.61389	0.92871
3380.56008	0.92919
3378.50628	0.92961
3376.45248	0.92958
3374.39867	0.92910
3372.34487	0.92876
3370.29107	0.92897
3368.23726	0.92926
3366.18346	0.92940
3364.12966	0.92972
3362.07585	0.93010
3360.02205	0.93006
3357.96825	0.92944
3355.91444	0.92884
3353.86064	0.92904
3351.80684	0.92984
3349.75303	0.93037
3347.69923	0.93038
3345.64543	0.93030
3343.59162	0.93020
3341.53782	0.92995
3339.48402	0.93000
3337.43021	0.93046
3335.37641	0.93080
3333.32261	0.93073
3331.26881	0.93052
3329.21500	0.93071
3327.16120	0.93108
3325.10740	0.93123
3323.05359	0.93124
3320.99979	0.93114
3318.94599	0.93096
3316.89218	0.93074
3314.83838	0.93094
3312.78458	0.93161
3310.73077	0.93191
3308.67697	0.93159
3306.62317	0.93115
3304.56936	0.93108
3302.51556	0.93152
3300.46176	0.93227
3298.40795	0.93298
3296.35415	0.93312
3294.30035	0.93268
3292.24654	0.93249
3290.19274	0.93245
3288.13894	0.93241
3286.08513	0.93265
3284.03133	0.93248
3281.97753	0.93193
3279.92372	0.93195
3277.86992	0.93261
3275.81612	0.93318
3273.76232	0.93332
3271.70851	0.93322
3269.65471	0.93304
3267.60091	0.93298
3265.54710	0.93305
3263.49330	0.93306
3261.43950	0.93287
3259.38569	0.93237
3257.33189	0.93206
3255.27809	0.93244
3253.22428	0.93310
3251.17048	0.93352
3249.11668	0.93356
3247.06287	0.93342
3245.00907	0.93378
3242.95527	0.93452
3240.90146	0.93466
3238.84766	0.93433
3236.79386	0.93405
3234.74005	0.93388
3232.68625	0.93387
3230.63245	0.93386
3228.57864	0.93391
3226.52484	0.93443
3224.47104	0.93485
3222.41724	0.93463
3220.36343	0.93463
3218.30963	0.93530
3216.25583	0.93562
3214.20202	0.93521
3212.14822	0.93524
3210.09442	0.93589
3208.04061	0.93633
3205.98681	0.93641
3203.93301	0.93640
3201.87920	0.93647
3199.82540	0.93669
3197.77160	0.93656
3195.71779	0.93579
3193.66399	0.93539
3191.61019	0.93590
3189.55638	0.93631
3187.50258	0.93621
3185.44878	0.93635
3183.39497	0.93688
3181.34117	0.93711
3179.28737	0.93680
3177.23356	0.93691
3175.17976	0.93773
3173.12596	0.93809
3171.07215	0.93780
3169.01835	0.93747
3166.96455	0.93715
3164.91075	0.93712
3162.85694	0.93781
3160.80314	0.93857
3158.74934	0.93869
3156.69553	0.93862
3154.64173	0.93854
3152.58793	0.93833
3150.53412	0.93820
3148.48032	0.93830
3146.42652	0.93881
3144.37271	0.93941
3142.31891	0.93959
3140.26511	0.93951
3138.21130	0.93953
3136.15750	0.93973
3134.10370	0.94011
3132.04989	0.94029
3129.99609	0.94000
3127.94229	0.93974
3125.88848	0.93978
3123.83468	0.93994
3121.78088	0.94013
3119.72707	0.94051
3117.67327	0.94096
3115.61947	0.94095
3113.56566	0.94028
3111.51186	0.93949
3109.45806	0.93932
3107.40426	0.93928
3105.35045	0.93890
3103.29665	0.93895
3101.24285	0.93933
3099.18904	0.93927
3097.13524	0.93906
3095.08144	0.93927
3093.02763	0.93960
3090.97383	0.93918
3088.92003	0.93778
3086.86622	0.93562
3084.81242	0.93330
3082.75862	0.93170
3080.70481	0.93147
3078.65101	0.93258
3076.59721	0.93406
3074.54340	0.93499
3072.48960	0.93527
3070.43580	0.93477
3068.38199	0.93348
3066.32819	0.93196
3064.27439	0.93022
3062.22058	0.92806
3060.16678	0.92650
3058.11298	0.92646
3056.05918	0.92774
3054.00537	0.92989
3051.95157	0.93232
3049.89777	0.93447
3047.84396	0.93621
3045.79016	0.93705
3043.73636	0.93685
3041.68255	0.93619
3039.62875	0.93512
3037.57495	0.93336
3035.52114	0.93097
3033.46734	0.92787
3031.41354	0.92333
3029.35973	0.91745
3027.30593	0.91225
3025.25213	0.90977
3023.19832	0.91081
3021.14452	0.91506
3019.09072	0.92092
3017.03691	0.92660
3014.98311	0.93114
3012.92931	0.93418
3010.87550	0.93591
3008.82170	0.93664
3006.76790	0.93686
3004.71409	0.93673
3002.66029	0.93614
3000.60649	0.93580
2998.55269	0.93632
2996.49888	0.93744
2994.44508	0.93871
2992.39128	0.93995
2990.33747	0.94103
2988.28367	0.94177
2986.22987	0.94220
2984.17606	0.94232
2982.12226	0.94232
2980.06846	0.94249
2978.01465	0.94271
2975.96085	0.94270
2973.90705	0.94267
2971.85324	0.94312
2969.79944	0.94338
2967.74564	0.94262
2965.69183	0.94150
2963.63803	0.94082
2961.58423	0.94053
2959.53042	0.94027
2957.47662	0.93979
2955.42282	0.93907
2953.36901	0.93835
2951.31521	0.93770
2949.26141	0.93684
2947.20761	0.93536
2945.15380	0.93307
2943.10000	0.93083
2941.04620	0.92921
2938.99239	0.92755
2936.93859	0.92516
2934.88479	0.92203
2932.83098	0.91843
2930.77718	0.91473
2928.72338	0.91135
2926.66957	0.90856
2924.61577	0.90639
2922.56197	0.90498
2920.50816	0.90464
2918.45436	0.90526
2916.40056	0.90644
2914.34675	0.90777
2912.29295	0.90927
2910.23915	0.91137
2908.18534	0.91387
2906.13154	0.91599
2904.07774	0.91778
2902.02393	0.91970
2899.97013	0.92159
2897.91633	0.92355
2895.86252	0.92564
2893.80872	0.92734
2891.75492	0.92879
2889.70112	0.93006
2887.64731	0.93096
2885.59351	0.93169
2883.53971	0.93232
2881.48590	0.93294
2879.43210	0.93345
2877.37830	0.93397
2875.32449	0.93484
2873.27069	0.93578
2871.21689	0.93638
2869.16308	0.93655
2867.10928	0.93630
2865.05548	0.93588
2863.00167	0.93538
2860.94787	0.93487
2858.89407	0.93433
2856.84026	0.93346
2854.78646	0.93218
2852.73266	0.93069
2850.67885	0.92958
2848.62505	0.92929
2846.57125	0.92974
2844.51744	0.93086
2842.46364	0.93254
2840.40984	0.93442
2838.35603	0.93598
2836.30223	0.93723
2834.24843	0.93856
2832.19463	0.94001
2830.14082	0.94125
2828.08702	0.94186
2826.03322	0.94209
2823.97941	0.94235
2821.92561	0.94245
2819.87181	0.94253
2817.81800	0.94288
2815.76420	0.94312
2813.71040	0.94307
2811.65659	0.94310
2809.60279	0.94347
2807.54899	0.94396
2805.49518	0.94438
2803.44138	0.94462
2801.38758	0.94447
2799.33377	0.94417
2797.27997	0.94432
2795.22617	0.94498
2793.17236	0.94537
2791.11856	0.94519
2789.06476	0.94499
2787.01095	0.94508
2784.95715	0.94530
2782.90335	0.94564
2780.84955	0.94604
2778.79574	0.94627
2776.74194	0.94617
2774.68814	0.94609
2772.63433	0.94630
2770.58053	0.94648
2768.52673	0.94655
2766.47292	0.94665
2764.41912	0.94674
2762.36532	0.94680
2760.31151	0.94679
2758.25771	0.94683
2756.20391	0.94714
2754.15010	0.94738
2752.09630	0.94718
2750.04250	0.94682
2747.98869	0.94667
2745.93489	0.94673
2743.88109	0.94686
2741.82728	0.94692
2739.77348	0.94696
2737.71968	0.94705
2735.66587	0.94715
2733.61207	0.94723
2731.55827	0.94735
2729.50446	0.94755
2727.45066	0.94778
2725.39686	0.94805
2723.34306	0.94824
2721.28925	0.94795
2719.23545	0.94736
2717.18165	0.94723
2715.12784	0.94752
2713.07404	0.94761
2711.02024	0.94734
2708.96643	0.94728
2706.91263	0.94752
2704.85883	0.94755
2702.80502	0.94745
2700.75122	0.94747
2698.69742	0.94747
2696.64361	0.94746
2694.58981	0.94771
2692.53601	0.94815
2690.48220	0.94821
2688.42840	0.94788
2686.37460	0.94771
2684.32079	0.94789
2682.26699	0.94817
2680.21319	0.94845
2678.15938	0.94878
2676.10558	0.94891
2674.05178	0.94860
2671.99797	0.94820
2669.94417	0.94826
2667.89037	0.94856
2665.83657	0.94889
2663.78276	0.94905
2661.72896	0.94872
2659.67516	0.94817
2657.62135	0.94789
2655.56755	0.94811
2653.51375	0.94855
2651.45994	0.94866
2649.40614	0.94836
2647.35234	0.94808
2645.29853	0.94804
2643.24473	0.94816
2641.19093	0.94851
2639.13712	0.94877
2637.08332	0.94874
2635.02952	0.94846
2632.97571	0.94792
2630.92191	0.94787
2628.86811	0.94884
2626.81430	0.94967
2624.76050	0.94944
2622.70670	0.94890
2620.65289	0.94893
2618.59909	0.94924
2616.54529	0.94925
2614.49149	0.94920
2612.43768	0.94957
2610.38388	0.94996
2608.33008	0.94972
2606.27627	0.94950
2604.22247	0.94971
2602.16867	0.94967
2600.11486	0.94961
2598.06106	0.94987
2596.00726	0.95019
2593.95345	0.95023
2591.89965	0.94986
2589.84585	0.94951
2587.79204	0.94976
2585.73824	0.95027
2583.68444	0.95033
2581.63063	0.95026
2579.57683	0.95058
2577.52303	0.95084
2575.46922	0.95083
2573.41542	0.95105
2571.36162	0.95144
2569.30781	0.95150
2567.25401	0.95100
2565.20021	0.95014
2563.14640	0.94984
2561.09260	0.95008
2559.03880	0.95021
2556.98500	0.95041
2554.93119	0.95074
2552.87739	0.95107
2550.82359	0.95133
2548.76978	0.95122
2546.71598	0.95109
2544.66218	0.95152
2542.60837	0.95226
2540.55457	0.95264
2538.50077	0.95244
2536.44696	0.95188
2534.39316	0.95112
2532.33936	0.95093
2530.28555	0.95158
2528.23175	0.95210
2526.17795	0.95182
2524.12414	0.95132
2522.07034	0.95127
2520.01654	0.95143
2517.96273	0.95129
2515.90893	0.95130
2513.85513	0.95192
2511.80132	0.95218
2509.74752	0.95164
2507.69372	0.95148
2505.63992	0.95220
2503.58611	0.95306
2501.53231	0.95320
2499.47851	0.95224
2497.42470	0.95101
2495.37090	0.95087
2493.31710	0.95149
2491.26329	0.95192
2489.20949	0.95198
2487.15569	0.95191
2485.10188	0.95235
2483.04808	0.95298
2480.99428	0.95295
2478.94047	0.95245
2476.88667	0.95203
2474.83287	0.95209
2472.77906	0.95244
2470.72526	0.95259
2468.67146	0.95265
2466.61765	0.95272
2464.56385	0.95263
2462.51005	0.95256
2460.45624	0.95238
2458.40244	0.95179
2456.34864	0.95150
2454.29483	0.95177
2452.24103	0.95165
2450.18723	0.95128
2448.13343	0.95154
2446.07962	0.95222
2444.02582	0.95275
2441.97202	0.95295
2439.91821	0.95277
2437.86441	0.95241
2435.81061	0.95228
2433.75680	0.95237
2431.70300	0.95248
2429.64920	0.95273
2427.59539	0.95264
2425.54159	0.95198
2423.48779	0.95175
2421.43398	0.95246
2419.38018	0.95344
2417.32638	0.95390
2415.27257	0.95405
2413.21877	0.95427
2411.16497	0.95413
2409.11116	0.95346
2407.05736	0.95296
2405.00356	0.95287
2402.94975	0.95301
2400.89595	0.95335
2398.84215	0.95357
2396.78834	0.95364
2394.73454	0.95380
2392.68074	0.95361
2390.62694	0.95331
2388.57313	0.95355
2386.51933	0.95372
2384.46553	0.95352
2382.41172	0.95341
2380.35792	0.95349
2378.30412	0.95345
2376.25031	0.95356
2374.19651	0.95429
2372.14271	0.95517
2370.08890	0.95522
2368.03510	0.95415
2365.98130	0.95339
2363.92749	0.95360
2361.87369	0.95397
2359.81989	0.95469
2357.76608	0.95520
2355.71228	0.95510
2353.65848	0.95505
2351.60467	0.95447
2349.55087	0.95354
2347.49707	0.95306
2345.44326	0.95261
2343.38946	0.95191
2341.33566	0.95188
2339.28186	0.95260
2337.22805	0.95285
2335.17425	0.95218
2333.12045	0.95145
2331.06664	0.95130
2329.01284	0.95163
2326.95904	0.95173
2324.90523	0.95133
2322.85143	0.95118
2320.79763	0.95135
2318.74382	0.95178
2316.69002	0.95248
2314.63622	0.95238
2312.58241	0.95183
2310.52861	0.95219
2308.47481	0.95278
2306.42100	0.95320
2304.36720	0.95359
2302.31340	0.95385
2300.25959	0.95389
2298.20579	0.95301
2296.15199	0.95184
2294.09818	0.95199
2292.04438	0.95307
2289.99058	0.95377
2287.93677	0.95380
2285.88297	0.95338
2283.82917	0.95292
2281.77537	0.95341
2279.72156	0.95452
2277.66776	0.95422
2275.61396	0.95277
2273.56015	0.95257
2271.50635	0.95357
2269.45255	0.95402
2267.39874	0.95419
2265.34494	0.95522
2263.29114	0.95670
2261.23733	0.95748
2259.18353	0.95707
2257.12973	0.95579
2255.07592	0.95495
2253.02212	0.95601
2250.96832	0.95788
2248.91451	0.95805
2246.86071	0.95720
2244.80691	0.95747
2242.75310	0.95803
2240.69930	0.95731
2238.64550	0.95569
2236.59169	0.95488
2234.53789	0.95540
2232.48409	0.95571
2230.43029	0.95544
2228.37648	0.95509
2226.32268	0.95430
2224.26888	0.95414
2222.21507	0.95582
2220.16127	0.95805
2218.10747	0.95916
2216.05366	0.95902
2213.99986	0.95815
2211.94606	0.95764
2209.89225	0.95813
2207.83845	0.95776
2205.78465	0.95601
2203.73084	0.95585
2201.67704	0.95800
2199.62324	0.95958
2197.56943	0.95958
2195.51563	0.95960
2193.46183	0.95888
2191.40802	0.95624
2189.35422	0.95477
2187.30042	0.95611
2185.24661	0.95650
2183.19281	0.95519
2181.13901	0.95599
2179.08520	0.95728
2177.03140	0.95654
2174.97760	0.95677
2172.92380	0.95800
2170.86999	0.95802
2168.81619	0.95794
2166.76239	0.95778
2164.70858	0.95683
2162.65478	0.95592
2160.60098	0.95561
2158.54717	0.95648
2156.49337	0.95907
2154.43957	0.96136
2152.38576	0.96089
2150.33196	0.95931
2148.27816	0.96027
2146.22435	0.96206
2144.17055	0.96101
2142.11675	0.95958
2140.06294	0.96037
2138.00914	0.96038
2135.95534	0.95870
2133.90153	0.95834
2131.84773	0.95880
2129.79393	0.95865
2127.74012	0.95848
2125.68632	0.95807
2123.63252	0.95775
2121.57871	0.95766
2119.52491	0.95657
2117.47111	0.95540
2115.41731	0.95574
2113.36350	0.95673
2111.30970	0.95715
2109.25590	0.95712
2107.20209	0.95681
2105.14829	0.95609
2103.09449	0.95587
2101.04068	0.95665
2098.98688	0.95711
2096.93308	0.95738
2094.87927	0.95809
2092.82547	0.95835
2090.77167	0.95810
2088.71786	0.95770
2086.66406	0.95677
2084.61026	0.95623
2082.55645	0.95693
2080.50265	0.95718
2078.44885	0.95641
2076.39504	0.95607
2074.34124	0.95692
2072.28744	0.95807
2070.23363	0.95892
2068.17983	0.95951
2066.12603	0.95899
2064.07223	0.95771
2062.01842	0.95711
2059.96462	0.95759
2057.91082	0.95913
2055.85701	0.96065
2053.80321	0.96023
2051.74941	0.95780
2049.69560	0.95598
2047.64180	0.95743
2045.58800	0.96037
2043.53419	0.96200
2041.48039	0.96213
2039.42659	0.96125
2037.37278	0.96018
2035.31898	0.95930
2033.26518	0.95978
2031.21137	0.96064
2029.15757	0.96030
2027.10377	0.96005
2025.04996	0.96001
2022.99616	0.96036
2020.94236	0.96213
2018.88855	0.96478
2016.83475	0.96549
2014.78095	0.96315
2012.72714	0.96031
2010.67334	0.95954
2008.61954	0.96064
2006.56574	0.96172
2004.51193	0.96320
2002.45813	0.96461
2000.40433	0.96307
1998.35052	0.96027
1996.29672	0.95920
1994.24292	0.95821
1992.18911	0.95724
1990.13531	0.95754
1988.08151	0.95714
1986.02770	0.95540
1983.97390	0.95521
1981.92010	0.95760
1979.86629	0.95913
1977.81249	0.95909
1975.75869	0.95994
1973.70488	0.96123
1971.65108	0.96257
1969.59728	0.96395
1967.54347	0.96236
1965.48967	0.95807
1963.43587	0.95720
1961.38206	0.96016
1959.32826	0.96174
1957.27446	0.96069
1955.22066	0.95897
1953.16685	0.95771
1951.11305	0.95728
1949.05925	0.95756
1947.00544	0.95826
1944.95164	0.95856
1942.89784	0.95859
1940.84403	0.95857
1938.79023	0.95761
1936.73643	0.95642
1934.68262	0.95584
1932.62882	0.95594
1930.57502	0.95705
1928.52121	0.95867
1926.46741	0.95943
1924.41361	0.95947
1922.35980	0.96022
1920.30600	0.96106
1918.25220	0.96095
1916.19839	0.96107
1914.14459	0.96117
1912.09079	0.95985
1910.03698	0.95800
1907.98318	0.95737
1905.92938	0.95783
1903.87557	0.95836
1901.82177	0.95869
1899.76797	0.95883
1897.71417	0.95855
1895.66036	0.95798
1893.60656	0.95777
1891.55276	0.95783
1889.49895	0.95790
1887.44515	0.95806
1885.39135	0.95771
1883.33754	0.95664
1881.28374	0.95539
1879.22994	0.95482
1877.17613	0.95542
1875.12233	0.95626
1873.06853	0.95656
1871.01472	0.95709
1868.96092	0.95765
1866.90712	0.95704
1864.85331	0.95646
1862.79951	0.95652
1860.74571	0.95673
1858.69190	0.95716
1856.63810	0.95765
1854.58430	0.95803
1852.53049	0.95828
1850.47669	0.95839
1848.42289	0.95881
1846.36908	0.95966
1844.31528	0.96013
1842.26148	0.95956
1840.20768	0.95869
1838.15387	0.95861
1836.10007	0.95941
1834.04627	0.96009
1831.99246	0.96051
1829.93866	0.96045
1827.88486	0.95937
1825.83105	0.95855
1823.77725	0.95881
1821.72345	0.95933
1819.66964	0.95893
1817.61584	0.95765
1815.56204	0.95703
1813.50823	0.95738
1811.45443	0.95766
1809.40063	0.95723
1807.34682	0.95629
1805.29302	0.95528
1803.23922	0.95442
1801.18541	0.95410
1799.13161	0.95425
1797.07781	0.95450
1795.02400	0.95494
1792.97020	0.95570
1790.91640	0.95646
1788.86260	0.95683
1786.80879	0.95678
1784.75499	0.95655
1782.70119	0.95645
1780.64738	0.95617
1778.59358	0.95561
1776.53978	0.95519
1774.48597	0.95502
1772.43217	0.95518
1770.37837	0.95594
1768.32456	0.95631
1766.27076	0.95568
1764.21696	0.95496
1762.16315	0.95491
1760.10935	0.95507
1758.05555	0.95484
1756.00174	0.95477
1753.94794	0.95500
1751.89414	0.95516
1749.84033	0.95523
1747.78653	0.95504
1745.73273	0.95443
1743.67892	0.95364
1741.62512	0.95320
1739.57132	0.95324
1737.51751	0.95312
1735.46371	0.95253
1733.40991	0.95201
1731.35611	0.95230
1729.30230	0.95283
1727.24850	0.95296
1725.19470	0.95269
1723.14089	0.95222
1721.08709	0.95184
1719.03329	0.95219
1716.97948	0.95343
1714.92568	0.95380
1712.87188	0.95345
1710.81807	0.95341
1708.76427	0.95359
1706.71047	0.95360
1704.65666	0.95310
1702.60286	0.95235
1700.54906	0.95174
1698.49525	0.95155
1696.44145	0.95158
1694.38765	0.95146
1692.33384	0.95128
1690.28004	0.95081
1688.22624	0.95004
1686.17243	0.94961
1684.11863	0.94946
1682.06483	0.94882
1680.01103	0.94804
1677.95722	0.94747
1675.90342	0.94707
1673.84962	0.94655
1671.79581	0.94594
1669.74201	0.94542
1667.68821	0.94492
1665.63440	0.94446
1663.58060	0.94411
1661.52680	0.94388
1659.47299	0.94357
1657.41919	0.94321
1655.36539	0.94296
1653.31158	0.94331
1651.25778	0.94385
1649.20398	0.94390
1647.15017	0.94412
1645.09637	0.94448
1643.04257	0.94440
1640.98876	0.94417
1638.93496	0.94407
1636.88116	0.94422
1634.82735	0.94440
1632.77355	0.94422
1630.71975	0.94414
1628.66594	0.94431
1626.61214	0.94458
1624.55834	0.94486
1622.50454	0.94491
1620.45073	0.94486
1618.39693	0.94523
1616.34313	0.94607
1614.28932	0.94646
1612.23552	0.94596
1610.18172	0.94433
1608.12791	0.94085
1606.07411	0.93514
1604.02031	0.92803
1601.96650	0.92238
1599.91270	0.92173
1597.85890	0.92615
1595.80509	0.93252
1593.75129	0.93770
1591.69749	0.94086
1589.64368	0.94277
1587.58988	0.94325
1585.53608	0.94215
1583.48227	0.94109
1581.42847	0.94180
1579.37467	0.94401
1577.32086	0.94657
1575.26706	0.94851
1573.21326	0.94945
1571.15945	0.95006
1569.10565	0.95063
1567.05185	0.95113
1564.99805	0.95159
1562.94424	0.95176
1560.89044	0.95154
1558.83664	0.95154
1556.78283	0.95204
1554.72903	0.95216
1552.67523	0.95184
1550.62142	0.95137
1548.56762	0.95098
1546.51382	0.95069
1544.46001	0.95069
1542.40621	0.95116
1540.35241	0.95120
1538.29860	0.95054
1536.24480	0.95036
1534.19100	0.95040
1532.13719	0.95049
1530.08339	0.95092
1528.02959	0.95153
1525.97578	0.95195
1523.92198	0.95202
1521.86818	0.95174
1519.81437	0.95142
1517.76057	0.95129
1515.70677	0.95115
1513.65297	0.95099
1511.59916	0.95075
1509.54536	0.95041
1507.49156	0.95036
1505.43775	0.94996
1503.38395	0.94825
1501.33015	0.94527
1499.27634	0.93842
1497.22254	0.92007
1495.16874	0.89215
1493.11493	0.87475
1491.06113	0.87824
1489.00733	0.89976
1486.95352	0.91866
1484.89972	0.92800
1482.84592	0.93320
1480.79211	0.93652
1478.73831	0.93843
1476.68451	0.93954
1474.63070	0.94043
1472.57690	0.94122
1470.52310	0.94160
1468.46929	0.94169
1466.41549	0.94175
1464.36169	0.94154
1462.30788	0.94079
1460.25408	0.93871
1458.20028	0.92970
1456.14648	0.90464
1454.09267	0.88056
1452.03887	0.87026
1449.98507	0.87378
1447.93126	0.88570
1445.87746	0.89723
1443.82366	0.90573
1441.76985	0.91263
1439.71605	0.91819
1437.66225	0.92335
1435.60844	0.92860
1433.55464	0.93239
1431.50084	0.93507
1429.44703	0.93738
1427.39323	0.93922
1425.33943	0.94056
1423.28562	0.94143
1421.23182	0.94189
1419.17802	0.94270
1417.12421	0.94387
1415.07041	0.94446
1413.01661	0.94494
1410.96280	0.94582
1408.90900	0.94678
1406.85520	0.94728
1404.80139	0.94748
1402.74759	0.94786
1400.69379	0.94845
1398.63999	0.94919
1396.58618	0.94978
1394.53238	0.94979
1392.47858	0.94948
1390.42477	0.94925
1388.37097	0.94896
1386.31717	0.94819
1384.26336	0.94684
1382.20956	0.94558
1380.15576	0.94482
1378.10195	0.94418
1376.04815	0.94343
1373.99435	0.94295
1371.94054	0.94279
1369.88674	0.94284
1367.83294	0.94319
1365.77913	0.94356
1363.72533	0.94370
1361.67153	0.94403
1359.61772	0.94488
1357.56392	0.94572
1355.51012	0.94621
1353.45631	0.94660
1351.40251	0.94686
1349.34871	0.94696
1347.29491	0.94713
1345.24110	0.94750
1343.18730	0.94804
1341.13350	0.94858
1339.07969	0.94872
1337.02589	0.94843
1334.97209	0.94830
1332.91828	0.94816
1330.86448	0.94754
1328.81068	0.94683
1326.75687	0.94659
1324.70307	0.94667
1322.64927	0.94687
1320.59546	0.94730
1318.54166	0.94769
1316.48786	0.94768
1314.43405	0.94753
1312.38025	0.94739
1310.32645	0.94751
1308.27264	0.94830
1306.21884	0.94935
1304.16504	0.94977
1302.11123	0.94967
1300.05743	0.94972
1298.00363	0.94996
1295.94982	0.95007
1293.89602	0.94999
1291.84222	0.94989
1289.78842	0.94987
1287.73461	0.94995
1285.68081	0.95009
1283.62701	0.95008
1281.57320	0.94983
1279.51940	0.94969
1277.46560	0.94960
1275.41179	0.94944
1273.35799	0.94948
1271.30419	0.94959
1269.25038	0.94957
1267.19658	0.94969
1265.14278	0.95007
1263.08897	0.95037
1261.03517	0.95023
1258.98137	0.94975
1256.92756	0.94925
1254.87376	0.94892
1252.81996	0.94892
1250.76615	0.94889
1248.71235	0.94846
1246.65855	0.94799
1244.60474	0.94765
1242.55094	0.94730
1240.49714	0.94702
1238.44334	0.94694
1236.38953	0.94682
1234.33573	0.94623
1232.28193	0.94552
1230.22812	0.94515
1228.17432	0.94468
1226.12052	0.94386
1224.06671	0.94280
1222.01291	0.94157
1219.95911	0.94028
1217.90530	0.93910
1215.85150	0.93786
1213.79770	0.93607
1211.74389	0.93363
1209.69009	0.93122
1207.63629	0.92922
1205.58248	0.92713
1203.52868	0.92447
1201.47488	0.92165
1199.42107	0.91906
1197.36727	0.91619
1195.31347	0.91311
1193.25966	0.91028
1191.20586	0.90742
1189.15206	0.90420
1187.09825	0.90046
1185.04445	0.89629
1182.99065	0.89201
1180.93685	0.88828
1178.88304	0.88570
1176.82924	0.88388
1174.77544	0.88209
1172.72163	0.88010
1170.66783	0.87765
1168.61403	0.87464
1166.56022	0.87166
1164.50642	0.86924
1162.45262	0.86727
1160.39881	0.86531
1158.34501	0.86296
1156.29121	0.86023
1154.23740	0.85780
1152.18360	0.85631
1150.12980	0.85556
1148.07599	0.85483
1146.02219	0.85376
1143.96839	0.85264
1141.91458	0.85164
1139.86078	0.85033
1137.80698	0.84838
1135.75317	0.84629
1133.69937	0.84441
1131.64557	0.84234
1129.59176	0.83965
1127.53796	0.83650
1125.48416	0.83302
1123.43036	0.82873
1121.37655	0.82351
1119.32275	0.81785
1117.26895	0.81176
1115.21514	0.80547
1113.16134	0.79963
1111.10754	0.79453
1109.05373	0.79022
1106.99993	0.78632
1104.94613	0.78269
1102.89232	0.77930
1100.83852	0.77618
1098.78472	0.77341
1096.73091	0.77063
1094.67711	0.76801
1092.62331	0.76593
1090.56950	0.76416
1088.51570	0.76255
1086.46190	0.76127
1084.40809	0.75981
1082.35429	0.75793
1080.30049	0.75621
1078.24668	0.75434
1076.19288	0.75166
1074.13908	0.74828
1072.08528	0.74443
1070.03147	0.74015
1067.97767	0.73542
1065.92387	0.73071
1063.87006	0.72702
1061.81626	0.72386
1059.76246	0.72018
1057.70865	0.71616
1055.65485	0.71143
1053.60105	0.70539
1051.54724	0.69856
1049.49344	0.69126
1047.43964	0.68303
1045.38583	0.67383
1043.33203	0.66432
1041.27823	0.65468
1039.22442	0.64510
1037.17062	0.63575
1035.11682	0.62590
1033.06301	0.61536
1031.00921	0.60522
1028.95541	0.59701
1026.90160	0.59203
1024.84780	0.59032
1022.79400	0.59037
1020.74019	0.59023
1018.68639	0.58917
1016.63259	0.58771
1014.57879	0.58601
1012.52498	0.58378
1010.47118	0.58142
1008.41738	0.57947
1006.36357	0.57820
1004.30977	0.57798
1002.25597	0.57897
1000.20216	0.58134
998.14836	0.58537
996.09456	0.59054
994.04075	0.59612
991.98695	0.60220
989.93315	0.60896
987.87934	0.61616
985.82554	0.62368
983.77174	0.63185
981.71793	0.64073
979.66413	0.65027
977.61033	0.66091
975.55652	0.67266
973.50272	0.68474
971.44892	0.69653
969.39511	0.70747
967.34131	0.71716
965.28751	0.72594
963.23371	0.73454
961.17990	0.74323
959.12610	0.75152
957.07230	0.75906
955.01849	0.76579
952.96469	0.77166
950.91089	0.77677
948.85708	0.78091
946.80328	0.78411
944.74948	0.78694
942.69567	0.78993
940.64187	0.79351
938.58807	0.79729
936.53426	0.80071
934.48046	0.80394
932.42666	0.80720
930.37285	0.81021
928.31905	0.81241
926.26525	0.81358
924.21144	0.81426
922.15764	0.81456
920.10384	0.81396
918.05003	0.81206
915.99623	0.80913
913.94243	0.80603
911.88862	0.80368
909.83482	0.80291
907.78102	0.80460
905.72722	0.80932
903.67341	0.81683
901.61961	0.82614
899.56581	0.83561
897.51200	0.84377
895.45820	0.85064
893.40440	0.85637
891.35059	0.86090
889.29679	0.86505
887.24299	0.86860
885.18918	0.87083
883.13538	0.87211
881.08158	0.87320
879.02777	0.87441
876.97397	0.87586
874.92017	0.87810
872.86636	0.88134
870.81256	0.88504
868.75876	0.88832
866.70495	0.89057
864.65115	0.89206
862.59735	0.89356
860.54354	0.89520
858.48974	0.89692
856.43594	0.89886
854.38213	0.90041
852.32833	0.90148
850.27453	0.90234
848.22073	0.90250
846.16692	0.90167
844.11312	0.90015
842.05932	0.89900
840.00551	0.89881
837.95171	0.89903
835.89791	0.89942
833.84410	0.89972
831.79030	0.89963
829.73650	0.89957
827.68269	0.90001
825.62889	0.90102
823.57509	0.90237
821.52128	0.90345
819.46748	0.90427
817.41368	0.90517
815.35987	0.90519
813.30607	0.90349
811.25227	0.90060
809.19846	0.89703
807.14466	0.89207
805.09086	0.88534
803.03705	0.87823
800.98325	0.87273
798.92945	0.87056
796.87565	0.87168
794.82184	0.87417
792.76804	0.87564
790.71424	0.87494
788.66043	0.87300
786.60663	0.87080
784.55283	0.86822
782.49902	0.86499
780.44522	0.86157
778.39142	0.85806
776.33761	0.85398
774.28381	0.84857
772.23001	0.84118
770.17620	0.83182
768.12240	0.82085
766.06860	0.80873
764.01479	0.79589
761.96099	0.78292
759.90719	0.77129
757.85338	0.76267
755.79958	0.75806
753.74578	0.75773
751.69197	0.76009
749.63817	0.76269
747.58437	0.76635
745.53056	0.77431
743.47676	0.78730
741.42296	0.80287
739.36916	0.81853
737.31535	0.83284
735.26155	0.84496
733.20775	0.85467
731.15394	0.86241
729.10014	0.86789
727.04634	0.87077
724.99253	0.87318
722.93873	0.87677
720.88493	0.87999
718.83112	0.88185
716.77732	0.88264
714.72352	0.88164
712.66971	0.87689
710.61591	0.86493
708.56211	0.84135
706.50830	0.80195
704.45450	0.74459
702.40070	0.67180
700.34689	0.59170
698.29309	0.52131
696.23929	0.49197
694.18548	0.52771
692.13168	0.60695
690.07788	0.68304
688.02408	0.73410
685.97027	0.76459
683.91647	0.78286
681.86267	0.79401
679.80886	0.80205
677.75506	0.80892
675.70126	0.81417
673.64745	0.81774
671.59365	0.81952
669.53985	0.81980
667.48604	0.82145
665.43224	0.82471
663.37844	0.82715
661.32463	0.82853
659.27083	0.82833
657.21703	0.82640
655.16322	0.82418
653.10942	0.82296
651.05562	0.82209
649.00181	0.82164
646.94801	0.82286
644.89421	0.82523
642.84040	0.82769
640.78660	0.83043
638.73280	0.83280
636.67899	0.83342
634.62519	0.83328
632.57139	0.83405
630.51759	0.83533
628.46378	0.83565
626.40998	0.83491
624.35618	0.83387
622.30237	0.83201
620.24857	0.82903
618.19477	0.82536
616.14096	0.82172
614.08716	0.81890
612.03336	0.81603
609.97955	0.81270
607.92575	0.80980
605.87195	0.80660
603.81814	0.80205
601.76434	0.79736
599.71054	0.79327
597.65673	0.78896
595.60293	0.78546
593.54913	0.78348
591.49532	0.78185
589.44152	0.78025
587.38772	0.77900
585.33391	0.77829
583.28011	0.77809
581.22631	0.77699
579.17250	0.77360
577.11870	0.76888
575.06490	0.76445
573.01110	0.76024
570.95729	0.75536
568.90349	0.74972
566.84969	0.74343
564.79588	0.73649
562.74208	0.72894
560.68828	0.72197
558.63447	0.71620
556.58067	0.70943
554.52687	0.70111
552.47306	0.69257
550.41926	0.68353
548.36546	0.67324
546.31165	0.66062
544.25785	0.64523
542.20405	0.62968
540.15024	0.61635
538.09644	0.60557
536.04264	0.59843
533.98883	0.59628
531.93503	0.59884
529.88123	0.60396
527.82742	0.60998
525.77362	0.61727
523.71982	0.62477
521.66602	0.63127
519.61221	0.63802
517.55841	0.64566
515.50461	0.65343
513.45080	0.66090
511.39700	0.66755
509.34320	0.67367
507.28939	0.67959
505.23559	0.68428
503.18179	0.68718
501.12798	0.68820
499.07418	0.68822
497.02038	0.68859
494.96657	0.68699
492.91277	0.68098
490.85897	0.67223
488.80516	0.66241
486.75136	0.65135
484.69756	0.63713
482.64375	0.61954
480.58995	0.60138
478.53615	0.58365
476.48234	0.56649
474.42854	0.55141
472.37474	0.53983
470.32093	0.53091
468.26713	0.52425
466.21333	0.52201
464.15953	0.52419
462.10572	0.52865
460.05192	0.53678
457.99812	0.55070
455.94431	0.56403
453.89051	0.57293
451.83671	0.58012
449.78290	0.58588
447.72910	0.59180
445.67530	0.59648
443.62149	0.59642
441.56769	0.59405
439.51389	0.59241
437.46008	0.58892
435.40628	0.58238
433.35248	0.57754
431.29867	0.57523
429.24487	0.57380
427.19107	0.57489
425.13726	0.57828
423.08346	0.58334
421.02966	0.58860
418.97585	0.59096
416.92205	0.59228
414.86825	0.59901
412.81445	0.60989
410.76064	0.61861
408.70684	0.62754
406.65304	0.64090
404.59923	0.64965
402.54543	0.64752
400.49163	0.63912
398.43782	0.62742
