3996.70104	0.97679
3994.64724	0.97668
3992.59344	0.97668
3990.53964	0.97667
3988.48583	0.97685
3986.43203	0.97738
3984.37823	0.97758
3982.32442	0.97748
3980.27062	0.97738
3978.21682	0.97701
3976.16301	0.97676
3974.10921	0.97699
3972.05541	0.97727
3970.00160	0.97719
3967.94780	0.97698
3965.89400	0.97700
3963.84019	0.97725
3961.78639	0.97761
3959.73259	0.97793
3957.67878	0.97808
3955.62498	0.97801
3953.57118	0.97777
3951.51737	0.97755
3949.46357	0.97715
3947.40977	0.97662
3945.35596	0.97656
3943.30216	0.97725
3941.24836	0.97800
3939.19455	0.97799
3937.14075	0.97773
3935.08695	0.97770
3933.03315	0.97762
3930.97934	0.97741
3928.92554	0.97719
3926.87174	0.97715
3924.81793	0.97737
3922.76413	0.97751
3920.71033	0.97727
3918.65652	0.97681
3916.60272	0.97671
3914.54892	0.97709
3912.49511	0.97749
3910.44131	0.97763
3908.38751	0.97744
3906.33370	0.97711
3904.27990	0.97716
3902.22610	0.97777
3900.17229	0.97800
3898.11849	0.97757
3896.06469	0.97738
3894.01088	0.97755
3891.95708	0.97791
3889.90328	0.97798
3887.84947	0.97735
3885.79567	0.97668
3883.74187	0.97678
3881.68807	0.97726
3879.63426	0.97776
3877.58046	0.97797
3875.52666	0.97792
3873.47285	0.97791
3871.41905	0.97779
3869.36525	0.97771
3867.31144	0.97772
3865.25764	0.97771
3863.20384	0.97766
3861.15003	0.97719
3859.09623	0.97660
3857.04243	0.97657
3854.98862	0.97732
3852.93482	0.97837
3850.88102	0.97849
3848.82721	0.97821
3846.77341	0.97812
3844.71961	0.97806
3842.66580	0.97780
3840.61200	0.97742
3838.55820	0.97744
3836.50439	0.97794
3834.45059	0.97812
3832.39679	0.97789
3830.34298	0.97763
3828.28918	0.97750
3826.23538	0.97765
3824.18158	0.97796
3822.12777	0.97848
3820.07397	0.97941
3818.02017	0.98000
3815.96636	0.97976
3813.91256	0.97897
3811.85876	0.97864
3809.80495	0.97870
3807.75115	0.97846
3805.69735	0.97842
3803.64354	0.97893
3801.58974	0.97934
3799.53594	0.97925
3797.48213	0.97889
3795.42833	0.97856
3793.37453	0.97841
3791.32072	0.97864
3789.26692	0.97876
3787.21312	0.97842
3785.15931	0.97823
3783.10551	0.97841
3781.05171	0.97862
3778.99790	0.97856
3776.94410	0.97821
3774.89030	0.97822
3772.83650	0.97864
3770.78269	0.97877
3768.72889	0.97871
3766.67509	0.97886
3764.62128	0.97889
3762.56748	0.97877
3760.51368	0.97871
3758.45987	0.97848
3756.40607	0.97808
3754.35227	0.97764
3752.29846	0.97739
3750.24466	0.97824
3748.19086	0.97943
3746.13705	0.98033
3744.08325	0.98131
3742.02945	0.98096
3739.97564	0.97990
3737.92184	0.97955
3735.86804	0.98035
3733.81423	0.98094
3731.76043	0.98049
3729.70663	0.98000
3727.65282	0.97947
3725.59902	0.97881
3723.54522	0.97824
3721.49141	0.97793
3719.43761	0.97738
3717.38381	0.97634
3715.33001	0.97580
3713.27620	0.97539
3711.22240	0.97324
3709.16860	0.97015
3707.11479	0.96812
3705.06099	0.96683
3703.00719	0.96506
3700.95338	0.96225
3698.89958	0.96011
3696.84578	0.95978
3694.79197	0.96063
3692.73817	0.96185
3690.68437	0.96303
3688.63056	0.96377
3686.57676	0.96448
3684.52296	0.96529
3682.46915	0.96561
3680.41535	0.96571
3678.36155	0.96612
3676.30774	0.96682
3674.25394	0.96699
3672.20014	0.96591
3670.14633	0.96407
3668.09253	0.96264
3666.03873	0.96236
3663.98492	0.96241
3661.93112	0.96218
3659.87732	0.96171
3657.82352	0.96128
3655.76971	0.96093
3653.71591	0.96044
3651.66211	0.95987
3649.60830	0.95959
3647.55450	0.95934
3645.50070	0.95915
3643.44689	0.95923
3641.39309	0.95903
3639.33929	0.95820
3637.28548	0.95728
3635.23168	0.95656
3633.17788	0.95604
3631.12407	0.95566
3629.07027	0.95461
3627.01647	0.95252
3624.96266	0.95070
3622.90886	0.94940
3620.85506	0.94854
3618.80125	0.94869
3616.74745	0.94934
3614.69365	0.94963
3612.63984	0.95007
3610.58604	0.95054
3608.53224	0.95083
3606.47844	0.95087
3604.42463	0.95087
3602.37083	0.95098
3600.31703	0.95035
3598.26322	0.94865
3596.20942	0.94758
3594.15562	0.94824
3592.10181	0.94927
3590.04801	0.94926
3587.99421	0.94827
3585.94040	0.94731
3583.88660	0.94726
3581.83280	0.94726
3579.77899	0.94647
3577.72519	0.94558
3575.67139	0.94526
3573.61758	0.94538
3571.56378	0.94563
3569.50998	0.94526
3567.45617	0.94401
3565.40237	0.94314
3563.34857	0.94347
3561.29476	0.94393
3559.24096	0.94360
3557.18716	0.94264
3555.13335	0.94152
3553.07955	0.94036
3551.02575	0.93963
3548.97195	0.93969
3546.91814	0.94016
3544.86434	0.94027
3542.81054	0.93940
3540.75673	0.93816
3538.70293	0.93726
3536.64913	0.93669
3534.59532	0.93624
3532.54152	0.93581
3530.48772	0.93526
3528.43391	0.93447
3526.38011	0.93423
3524.32631	0.93462
3522.27250	0.93443
3520.21870	0.93377
3518.16490	0.93350
3516.11109	0.93360
3514.05729	0.93325
3512.00349	0.93202
3509.94968	0.93077
3507.89588	0.93044
3505.84208	0.93058
3503.78827	0.93030
3501.73447	0.92960
3499.68067	0.92875
3497.62687	0.92777
3495.57306	0.92691
3493.51926	0.92640
3491.46546	0.92623
3489.41165	0.92608
3487.35785	0.92568
3485.30405	0.92519
3483.25024	0.92457
3481.19644	0.92402
3479.14264	0.92392
3477.08883	0.92391
3475.03503	0.92366
3472.98123	0.92307
3470.92742	0.92214
3468.87362	0.92136
3466.81982	0.92104
3464.76601	0.92071
3462.71221	0.92010
3460.65841	0.91976
3458.60460	0.91963
3456.55080	0.91898
3454.49700	0.91797
3452.44319	0.91727
3450.38939	0.91696
3448.33559	0.91695
3446.28178	0.91713
3444.22798	0.91683
3442.17418	0.91566
3440.12038	0.91445
3438.06657	0.91407
3436.01277	0.91409
3433.95897	0.91365
3431.90516	0.91312
3429.85136	0.91295
3427.79756	0.91273
3425.74375	0.91237
3423.68995	0.91196
3421.63615	0.91116
3419.58234	0.91033
3417.52854	0.91010
3415.47474	0.90997
3413.42093	0.90962
3411.36713	0.90919
3409.31333	0.90842
3407.25952	0.90753
3405.20572	0.90717
3403.15192	0.90718
3401.09811	0.90693
3399.04431	0.90630
3396.99051	0.90575
3394.93670	0.90561
3392.88290	0.90560
3390.82910	0.90549
3388.77529	0.90541
3386.72149	0.90561
3384.66769	0.90576
3382.61389	0.90525
3380.56008	0.90454
3378.50628	0.90440
3376.45248	0.90477
3374.39867	0.90502
3372.34487	0.90523
3370.29107	0.90584
3368.23726	0.90626
3366.18346	0.90620
3364.12966	0.90633
3362.07585	0.90659
3360.02205	0.90657
3357.96825	0.90650
3355.91444	0.90624
3353.86064	0.90570
3351.80684	0.90583
3349.75303	0.90665
3347.69923	0.90688
3345.64543	0.90680
3343.59162	0.90730
3341.53782	0.90771
3339.48402	0.90750
3337.43021	0.90732
3335.37641	0.90764
3333.32261	0.90807
3331.26881	0.90808
3329.21500	0.90805
3327.16120	0.90837
3325.10740	0.90849
3323.05359	0.90839
3320.99979	0.90875
3318.94599	0.90961
3316.89218	0.91055
3314.83838	0.91116
3312.78458	0.91122
3310.73077	0.91097
3308.67697	0.91095
3306.62317	0.91125
3304.56936	0.91157
3302.51556	0.91194
3300.46176	0.91249
3298.40795	0.91285
3296.35415	0.91284
3294.30035	0.91313
3292.24654	0.91372
3290.19274	0.91369
3288.13894	0.91325
3286.08513	0.91356
3284.03133	0.91452
3281.97753	0.91517
3279.92372	0.91530
3277.86992	0.91501
3275.81612	0.91470
3273.76232	0.91506
3271.70851	0.91569
3269.65471	0.91609
3267.60091	0.91647
3265.54710	0.91672
3263.49330	0.91702
3261.43950	0.91759
3259.38569	0.91809
3257.33189	0.91817
3255.27809	0.91773
3253.22428	0.91728
3251.17048	0.91746
3249.11668	0.91814
3247.06287	0.91860
3245.00907	0.91871
3242.95527	0.91889
3240.90146	0.91939
3238.84766	0.91999
3236.79386	0.92012
3234.74005	0.91985
3232.68625	0.91959
3230.63245	0.91959
3228.57864	0.92007
3226.52484	0.92077
3224.47104	0.92113
3222.41724	0.92141
3220.36343	0.92200
3218.30963	0.92228
3216.25583	0.92224
3214.20202	0.92261
3212.14822	0.92328
3210.09442	0.92374
3208.04061	0.92407
3205.98681	0.92466
3203.93301	0.92557
3201.87920	0.92612
3199.82540	0.92611
3197.77160	0.92622
3195.71779	0.92678
3193.66399	0.92722
3191.61019	0.92721
3189.55638	0.92731
3187.50258	0.92786
3185.44878	0.92828
3183.39497	0.92820
3181.34117	0.92839
3179.28737	0.92937
3177.23356	0.93030
3175.17976	0.93067
3173.12596	0.93090
3171.07215	0.93150
3169.01835	0.93253
3166.96455	0.93341
3164.91075	0.93357
3162.85694	0.93338
3160.80314	0.93368
3158.74934	0.93442
3156.69553	0.93506
3154.64173	0.93549
3152.58793	0.93596
3150.53412	0.93665
3148.48032	0.93727
3146.42652	0.93743
3144.37271	0.93733
3142.31891	0.93759
3140.26511	0.93827
3138.21130	0.93893
3136.15750	0.93929
3134.10370	0.93949
3132.04989	0.94012
3129.99609	0.94113
3127.94229	0.94130
3125.88848	0.94069
3123.83468	0.94086
3121.78088	0.94194
3119.72707	0.94294
3117.67327	0.94369
3115.61947	0.94428
3113.56566	0.94454
3111.51186	0.94454
3109.45806	0.94483
3107.40426	0.94588
3105.35045	0.94675
3103.29665	0.94672
3101.24285	0.94670
3099.18904	0.94684
3097.13524	0.94686
3095.08144	0.94709
3093.02763	0.94735
3090.97383	0.94741
3088.92003	0.94752
3086.86622	0.94780
3084.81242	0.94843
3082.75862	0.94933
3080.70481	0.94989
3078.65101	0.95013
3076.59721	0.95026
3074.54340	0.95032
3072.48960	0.95064
3070.43580	0.95088
3068.38199	0.95085
3066.32819	0.95095
3064.27439	0.95131
3062.22058	0.95198
3060.16678	0.95270
3058.11298	0.95290
3056.05918	0.95270
3054.00537	0.95285
3051.95157	0.95341
3049.89777	0.95364
3047.84396	0.95340
3045.79016	0.95369
3043.73636	0.95466
3041.68255	0.95520
3039.62875	0.95502
3037.57495	0.95490
3035.52114	0.95531
3033.46734	0.95612
3031.41354	0.95693
3029.35973	0.95737
3027.30593	0.95737
3025.25213	0.95730
3023.19832	0.95737
3021.14452	0.95744
3019.09072	0.95736
3017.03691	0.95749
3014.98311	0.95800
3012.92931	0.95847
3010.87550	0.95859
3008.82170	0.95866
3006.76790	0.95875
3004.71409	0.95859
3002.66029	0.95828
3000.60649	0.95776
2998.55269	0.95700
2996.49888	0.95633
2994.44508	0.95590
2992.39128	0.95549
2990.33747	0.95475
2988.28367	0.95364
2986.22987	0.95256
2984.17606	0.95160
2982.12226	0.95016
2980.06846	0.94792
2978.01465	0.94477
2975.96085	0.94052
2973.90705	0.93487
2971.85324	0.92763
2969.79944	0.91876
2967.74564	0.90796
2965.69183	0.89564
2963.63803	0.88344
2961.58423	0.87418
2959.53042	0.86959
2957.47662	0.86767
2955.42282	0.86458
2953.36901	0.85836
2951.31521	0.85163
2949.26141	0.84978
2947.20761	0.85594
2945.15380	0.86863
2943.10000	0.88278
2941.04620	0.89361
2938.99239	0.89951
2936.93859	0.90056
2934.88479	0.89725
2932.83098	0.89007
2930.77718	0.87983
2928.72338	0.86808
2926.66957	0.85625
2924.61577	0.84469
2922.56197	0.83355
2920.50816	0.82414
2918.45436	0.81877
2916.40056	0.81991
2914.34675	0.82795
2912.29295	0.83954
2910.23915	0.85043
2908.18534	0.85891
2906.13154	0.86589
2904.07774	0.87258
2902.02393	0.87965
2899.97013	0.88720
2897.91633	0.89415
2895.86252	0.89955
2893.80872	0.90327
2891.75492	0.90511
2889.70112	0.90524
2887.64731	0.90441
2885.59351	0.90316
2883.53971	0.90154
2881.48590	0.89925
2879.43210	0.89654
2877.37830	0.89490
2875.32449	0.89529
2873.27069	0.89619
2871.21689	0.89571
2869.16308	0.89367
2867.10928	0.89201
2865.05548	0.89442
2863.00167	0.90223
2860.94787	0.91226
2858.89407	0.92091
2856.84026	0.92716
2854.78646	0.93107
2852.73266	0.93236
2850.67885	0.93127
2848.62505	0.92848
2846.57125	0.92374
2844.51744	0.91655
2842.46364	0.90750
2840.40984	0.89881
2838.35603	0.89426
2836.30223	0.89663
2834.24843	0.90508
2832.19463	0.91584
2830.14082	0.92558
2828.08702	0.93300
2826.03322	0.93818
2823.97941	0.94201
2821.92561	0.94502
2819.87181	0.94707
2817.81800	0.94841
2815.76420	0.94948
2813.71040	0.95032
2811.65659	0.95111
2809.60279	0.95210
2807.54899	0.95307
2805.49518	0.95389
2803.44138	0.95474
2801.38758	0.95563
2799.33377	0.95640
2797.27997	0.95703
2795.22617	0.95753
2793.17236	0.95776
2791.11856	0.95790
2789.06476	0.95839
2787.01095	0.95923
2784.95715	0.96007
2782.90335	0.96062
2780.84955	0.96083
2778.79574	0.96084
2776.74194	0.96094
2774.68814	0.96133
2772.63433	0.96177
2770.58053	0.96215
2768.52673	0.96271
2766.47292	0.96330
2764.41912	0.96345
2762.36532	0.96345
2760.31151	0.96384
2758.25771	0.96408
2756.20391	0.96381
2754.15010	0.96367
2752.09630	0.96391
2750.04250	0.96428
2747.98869	0.96454
2745.93489	0.96465
2743.88109	0.96471
2741.82728	0.96456
2739.77348	0.96412
2737.71968	0.96377
2735.66587	0.96379
2733.61207	0.96390
2731.55827	0.96384
2729.50446	0.96368
2727.45066	0.96342
2725.39686	0.96301
2723.34306	0.96264
2721.28925	0.96262
2719.23545	0.96300
2717.18165	0.96348
2715.12784	0.96386
2713.07404	0.96428
2711.02024	0.96485
2708.96643	0.96514
2706.91263	0.96511
2704.85883	0.96524
2702.80502	0.96552
2700.75122	0.96596
2698.69742	0.96643
2696.64361	0.96647
2694.58981	0.96611
2692.53601	0.96582
2690.48220	0.96593
2688.42840	0.96627
2686.37460	0.96665
2684.32079	0.96701
2682.26699	0.96695
2680.21319	0.96671
2678.15938	0.96687
2676.10558	0.96704
2674.05178	0.96693
2671.99797	0.96693
2669.94417	0.96703
2667.89037	0.96699
2665.83657	0.96693
2663.78276	0.96702
2661.72896	0.96687
2659.67516	0.96636
2657.62135	0.96615
2655.56755	0.96651
2653.51375	0.96692
2651.45994	0.96729
2649.40614	0.96752
2647.35234	0.96726
2645.29853	0.96702
2643.24473	0.96733
2641.19093	0.96772
2639.13712	0.96786
2637.08332	0.96783
2635.02952	0.96767
2632.97571	0.96761
2630.92191	0.96770
2628.86811	0.96774
2626.81430	0.96805
2624.76050	0.96870
2622.70670	0.96919
2620.65289	0.96898
2618.59909	0.96818
2616.54529	0.96748
2614.49149	0.96719
2612.43768	0.96737
2610.38388	0.96803
2608.33008	0.96872
2606.27627	0.96898
2604.22247	0.96891
2602.16867	0.96889
2600.11486	0.96905
2598.06106	0.96938
2596.00726	0.96960
2593.95345	0.96927
2591.89965	0.96892
2589.84585	0.96926
2587.79204	0.96977
2585.73824	0.96959
2583.68444	0.96872
2581.63063	0.96818
2579.57683	0.96856
2577.52303	0.96925
2575.46922	0.96974
2573.41542	0.97009
2571.36162	0.97043
2569.30781	0.97033
2567.25401	0.96976
2565.20021	0.96950
2563.14640	0.96978
2561.09260	0.97014
2559.03880	0.97041
2556.98500	0.97089
2554.93119	0.97107
2552.87739	0.97070
2550.82359	0.97067
2548.76978	0.97107
2546.71598	0.97122
2544.66218	0.97084
2542.60837	0.97007
2540.55457	0.96960
2538.50077	0.96995
2536.44696	0.97066
2534.39316	0.97121
2532.33936	0.97160
2530.28555	0.97178
2528.23175	0.97171
2526.17795	0.97161
2524.12414	0.97152
2522.07034	0.97126
2520.01654	0.97127
2517.96273	0.97173
2515.90893	0.97220
2513.85513	0.97230
2511.80132	0.97217
2509.74752	0.97209
2507.69372	0.97198
2505.63992	0.97183
2503.58611	0.97179
2501.53231	0.97187
2499.47851	0.97198
2497.42470	0.97232
2495.37090	0.97256
2493.31710	0.97220
2491.26329	0.97163
2489.20949	0.97165
2487.15569	0.97214
2485.10188	0.97238
2483.04808	0.97223
2480.99428	0.97189
2478.94047	0.97212
2476.88667	0.97271
2474.83287	0.97276
2472.77906	0.97234
2470.72526	0.97180
2468.67146	0.97161
2466.61765	0.97182
2464.56385	0.97204
2462.51005	0.97225
2460.45624	0.97244
2458.40244	0.97229
2456.34864	0.97226
2454.29483	0.97253
2452.24103	0.97229
2450.18723	0.97173
2448.13343	0.97123
2446.07962	0.97085
2444.02582	0.97110
2441.97202	0.97156
2439.91821	0.97163
2437.86441	0.97185
2435.81061	0.97252
2433.75680	0.97313
2431.70300	0.97313
2429.64920	0.97236
2427.59539	0.97146
2425.54159	0.97147
2423.48779	0.97206
2421.43398	0.97214
2419.38018	0.97195
2417.32638	0.97179
2415.27257	0.97151
2413.21877	0.97162
2411.16497	0.97228
2409.11116	0.97288
2407.05736	0.97342
2405.00356	0.97394
2402.94975	0.97403
2400.89595	0.97394
2398.84215	0.97363
2396.78834	0.97299
2394.73454	0.97267
2392.68074	0.97238
2390.62694	0.97198
2388.57313	0.97191
2386.51933	0.97188
2384.46553	0.97212
2382.41172	0.97265
2380.35792	0.97257
2378.30412	0.97225
2376.25031	0.97256
2374.19651	0.97281
2372.14271	0.97210
2370.08890	0.97147
2368.03510	0.97174
2365.98130	0.97200
2363.92749	0.97237
2361.87369	0.97273
2359.81989	0.97205
2357.76608	0.97171
2355.71228	0.97267
2353.65848	0.97377
2351.60467	0.97411
2349.55087	0.97372
2347.49707	0.97300
2345.44326	0.97201
2343.38946	0.97120
2341.33566	0.97105
2339.28186	0.97119
2337.22805	0.97169
2335.17425	0.97229
2333.12045	0.97274
2331.06664	0.97339
2329.01284	0.97353
2326.95904	0.97263
2324.90523	0.97178
2322.85143	0.97165
2320.79763	0.97142
2318.74382	0.97075
2316.69002	0.97061
2314.63622	0.97149
2312.58241	0.97235
2310.52861	0.97237
2308.47481	0.97216
2306.42100	0.97189
2304.36720	0.97147
2302.31340	0.97133
2300.25959	0.97132
2298.20579	0.97136
2296.15199	0.97166
2294.09818	0.97204
2292.04438	0.97241
2289.99058	0.97261
2287.93677	0.97246
2285.88297	0.97208
2283.82917	0.97167
2281.77537	0.97148
2279.72156	0.97193
2277.66776	0.97245
2275.61396	0.97261
2273.56015	0.97289
2271.50635	0.97296
2269.45255	0.97277
2267.39874	0.97261
2265.34494	0.97239
2263.29114	0.97307
2261.23733	0.97382
2259.18353	0.97322
2257.12973	0.97269
2255.07592	0.97332
2253.02212	0.97405
2250.96832	0.97413
2248.91451	0.97462
2246.86071	0.97458
2244.80691	0.97279
2242.75310	0.97200
2240.69930	0.97266
2238.64550	0.97244
2236.59169	0.97234
2234.53789	0.97384
2232.48409	0.97511
2230.43029	0.97446
2228.37648	0.97282
2226.32268	0.97176
2224.26888	0.97242
2222.21507	0.97448
2220.16127	0.97589
2218.10747	0.97533
2216.05366	0.97359
2213.99986	0.97277
2211.94606	0.97392
2209.89225	0.97501
2207.83845	0.97439
2205.78465	0.97371
2203.73084	0.97351
2201.67704	0.97288
2199.62324	0.97268
2197.56943	0.97376
2195.51563	0.97581
2193.46183	0.97676
2191.40802	0.97510
2189.35422	0.97351
2187.30042	0.97388
2185.24661	0.97440
2183.19281	0.97394
2181.13901	0.97359
2179.08520	0.97404
2177.03140	0.97457
2174.97760	0.97506
2172.92380	0.97487
2170.86999	0.97352
2168.81619	0.97232
2166.76239	0.97192
2164.70858	0.97235
2162.65478	0.97315
2160.60098	0.97423
2158.54717	0.97758
2156.49337	0.98042
2154.43957	0.97807
2152.38576	0.97380
2150.33196	0.97272
2148.27816	0.97447
2146.22435	0.97651
2144.17055	0.97805
2142.11675	0.97875
2140.06294	0.97816
2138.00914	0.97692
2135.95534	0.97600
2133.90153	0.97617
2131.84773	0.97724
2129.79393	0.97797
2127.74012	0.97814
2125.68632	0.97771
2123.63252	0.97667
2121.57871	0.97608
2119.52491	0.97593
2117.47111	0.97548
2115.41731	0.97538
2113.36350	0.97613
2111.30970	0.97628
2109.25590	0.97524
2107.20209	0.97409
2105.14829	0.97322
2103.09449	0.97270
2101.04068	0.97242
2098.98688	0.97262
2096.93308	0.97405
2094.87927	0.97618
2092.82547	0.97754
2090.77167	0.97752
2088.71786	0.97739
2086.66406	0.97786
2084.61026	0.97776
2082.55645	0.97723
2080.50265	0.97692
2078.44885	0.97586
2076.39504	0.97440
2074.34124	0.97470
2072.28744	0.97621
2070.23363	0.97589
2068.17983	0.97383
2066.12603	0.97299
2064.07223	0.97439
2062.01842	0.97639
2059.96462	0.97701
2057.91082	0.97594
2055.85701	0.97454
2053.80321	0.97295
2051.74941	0.97171
2049.69560	0.97257
2047.64180	0.97470
2045.58800	0.97650
2043.53419	0.97669
2041.48039	0.97471
2039.42659	0.97209
2037.37278	0.97066
2035.31898	0.97134
2033.26518	0.97383
2031.21137	0.97761
2029.15757	0.98024
2027.10377	0.98009
2025.04996	0.97849
2022.99616	0.97679
2020.94236	0.97681
2018.88855	0.97721
2016.83475	0.97664
2014.78095	0.97759
2012.72714	0.97889
2010.67334	0.97889
2008.61954	0.97807
2006.56574	0.97667
2004.51193	0.97707
2002.45813	0.97975
2000.40433	0.98087
1998.35052	0.97837
1996.29672	0.97501
1994.24292	0.97431
1992.18911	0.97586
1990.13531	0.97668
1988.08151	0.97717
1986.02770	0.97796
1983.97390	0.97771
1981.92010	0.97662
1979.86629	0.97513
1977.81249	0.97436
1975.75869	0.97470
1973.70488	0.97516
1971.65108	0.97673
1969.59728	0.97914
1967.54347	0.97988
1965.48967	0.97899
1963.43587	0.97837
1961.38206	0.97907
1959.32826	0.98054
1957.27446	0.98047
1955.22066	0.97836
1953.16685	0.97616
1951.11305	0.97508
1949.05925	0.97573
1947.00544	0.97803
1944.95164	0.97950
1942.89784	0.97913
1940.84403	0.97894
1938.79023	0.97828
1936.73643	0.97595
1934.68262	0.97486
1932.62882	0.97613
1930.57502	0.97691
1928.52121	0.97675
1926.46741	0.97631
1924.41361	0.97550
1922.35980	0.97551
1920.30600	0.97636
1918.25220	0.97654
1916.19839	0.97643
1914.14459	0.97708
1912.09079	0.97748
1910.03698	0.97684
1907.98318	0.97597
1905.92938	0.97532
1903.87557	0.97497
1901.82177	0.97515
1899.76797	0.97512
1897.71417	0.97441
1895.66036	0.97383
1893.60656	0.97399
1891.55276	0.97408
1889.49895	0.97373
1887.44515	0.97378
1885.39135	0.97439
1883.33754	0.97504
1881.28374	0.97517
1879.22994	0.97500
1877.17613	0.97520
1875.12233	0.97541
1873.06853	0.97495
1871.01472	0.97424
1868.96092	0.97430
1866.90712	0.97499
1864.85331	0.97535
1862.79951	0.97529
1860.74571	0.97495
1858.69190	0.97444
1856.63810	0.97388
1854.58430	0.97385
1852.53049	0.97472
1850.47669	0.97581
1848.42289	0.97642
1846.36908	0.97636
1844.31528	0.97601
1842.26148	0.97572
1840.20768	0.97514
1838.15387	0.97469
1836.10007	0.97469
1834.04627	0.97463
1831.99246	0.97456
1829.93866	0.97482
1827.88486	0.97523
1825.83105	0.97518
1823.77725	0.97468
1821.72345	0.97451
1819.66964	0.97489
1817.61584	0.97506
1815.56204	0.97467
1813.50823	0.97418
1811.45443	0.97412
1809.40063	0.97433
1807.34682	0.97444
1805.29302	0.97462
1803.23922	0.97457
1801.18541	0.97397
1799.13161	0.97330
1797.07781	0.97251
1795.02400	0.97168
1792.97020	0.97121
1790.91640	0.97040
1788.86260	0.96939
1786.80879	0.96858
1784.75499	0.96740
1782.70119	0.96604
1780.64738	0.96508
1778.59358	0.96434
1776.53978	0.96348
1774.48597	0.96272
1772.43217	0.96200
1770.37837	0.96093
1768.32456	0.96009
1766.27076	0.95969
1764.21696	0.95929
1762.16315	0.95893
1760.10935	0.95872
1758.05555	0.95839
1756.00174	0.95790
1753.94794	0.95739
1751.89414	0.95676
1749.84033	0.95612
1747.78653	0.95565
1745.73273	0.95499
1743.67892	0.95419
1741.62512	0.95357
1739.57132	0.95273
1737.51751	0.95178
1735.46371	0.95137
1733.40991	0.95087
1731.35611	0.94959
1729.30230	0.94837
1727.24850	0.94725
1725.19470	0.94582
1723.14089	0.94433
1721.08709	0.94323
1719.03329	0.94242
1716.97948	0.94170
1714.92568	0.94058
1712.87188	0.93923
1710.81807	0.93826
1708.76427	0.93784
1706.71047	0.93788
1704.65666	0.93795
1702.60286	0.93786
1700.54906	0.93819
1698.49525	0.93861
1696.44145	0.93838
1694.38765	0.93822
1692.33384	0.93822
1690.28004	0.93784
1688.22624	0.93712
1686.17243	0.93652
1684.11863	0.93519
1682.06483	0.93334
1680.01103	0.93229
1677.95722	0.93158
1675.90342	0.93071
1673.84962	0.92948
1671.79581	0.92812
1669.74201	0.92680
1667.68821	0.92553
1665.63440	0.92424
1663.58060	0.92309
1661.52680	0.92206
1659.47299	0.92111
1657.41919	0.92041
1655.36539	0.91972
1653.31158	0.91852
1651.25778	0.91776
1649.20398	0.91758
1647.15017	0.91735
1645.09637	0.91710
1643.04257	0.91665
1640.98876	0.91611
1638.93496	0.91585
1636.88116	0.91586
1634.82735	0.91567
1632.77355	0.91556
1630.71975	0.91597
1628.66594	0.91666
1626.61214	0.91694
1624.55834	0.91685
1622.50454	0.91716
1620.45073	0.91786
1618.39693	0.91870
1616.34313	0.92021
1614.28932	0.92216
1612.23552	0.92393
1610.18172	0.92569
1608.12791	0.92727
1606.07411	0.92848
1604.02031	0.92941
1601.96650	0.93031
1599.91270	0.93131
1597.85890	0.93237
1595.80509	0.93333
1593.75129	0.93416
1591.69749	0.93501
1589.64368	0.93579
1587.58988	0.93625
1585.53608	0.93673
1583.48227	0.93765
1581.42847	0.93863
1579.37467	0.93933
1577.32086	0.94008
1575.26706	0.94098
1573.21326	0.94133
1571.15945	0.94160
1569.10565	0.94255
1567.05185	0.94328
1564.99805	0.94340
1562.94424	0.94358
1560.89044	0.94405
1558.83664	0.94530
1556.78283	0.94624
1554.72903	0.94653
1552.67523	0.94710
1550.62142	0.94775
1548.56762	0.94826
1546.51382	0.94869
1544.46001	0.94923
1542.40621	0.94976
1540.35241	0.95041
1538.29860	0.95152
1536.24480	0.95239
1534.19100	0.95336
1532.13719	0.95416
1530.08339	0.95429
1528.02959	0.95440
1525.97578	0.95461
1523.92198	0.95458
1521.86818	0.95494
1519.81437	0.95609
1517.76057	0.95731
1515.70677	0.95827
1513.65297	0.95870
1511.59916	0.95893
1509.54536	0.95893
1507.49156	0.95889
1505.43775	0.95984
1503.38395	0.96025
1501.33015	0.96007
1499.27634	0.95999
1497.22254	0.96013
1495.16874	0.96020
1493.11493	0.96000
1491.06113	0.95947
1489.00733	0.95907
1486.95352	0.95891
1484.89972	0.95822
1482.84592	0.95698
1480.79211	0.95532
1478.73831	0.95326
1476.68451	0.95068
1474.63070	0.94659
1472.57690	0.93936
1470.52310	0.93093
1468.46929	0.92320
1466.41549	0.91373
1464.36169	0.90214
1462.30788	0.89383
1460.25408	0.88978
1458.20028	0.88625
1456.14648	0.88193
1454.09267	0.87978
1452.03887	0.87953
1449.98507	0.88174
1447.93126	0.88867
1445.87746	0.89923
1443.82366	0.90907
1441.76985	0.91625
1439.71605	0.92006
1437.66225	0.92099
1435.60844	0.92144
1433.55464	0.92431
1431.50084	0.92882
1429.44703	0.93302
1427.39323	0.93565
1425.33943	0.93715
1423.28562	0.93761
1421.23182	0.93740
1419.17802	0.93743
1417.12421	0.93788
1415.07041	0.93810
1413.01661	0.93817
1410.96280	0.93857
1408.90900	0.93902
1406.85520	0.93930
1404.80139	0.93976
1402.74759	0.94039
1400.69379	0.94095
1398.63999	0.94133
1396.58618	0.94128
1394.53238	0.94075
1392.47858	0.93988
1390.42477	0.93865
1388.37097	0.93624
1386.31717	0.93149
1384.26336	0.92364
1382.20956	0.91024
1380.15576	0.88758
1378.10195	0.85865
1376.04815	0.83934
1373.99435	0.84542
1371.94054	0.86936
1369.88674	0.89196
1367.83294	0.90710
1365.77913	0.91466
1363.72533	0.91705
1361.67153	0.91630
1359.61772	0.91474
1357.56392	0.91547
1355.51012	0.91958
1353.45631	0.92520
1351.40251	0.93018
1349.34871	0.93400
1347.29491	0.93668
1345.24110	0.93864
1343.18730	0.94019
1341.13350	0.94138
1339.07969	0.94210
1337.02589	0.94217
1334.97209	0.94192
1332.91828	0.94146
1330.86448	0.94076
1328.81068	0.94039
1326.75687	0.94073
1324.70307	0.94137
1322.64927	0.94177
1320.59546	0.94176
1318.54166	0.94163
1316.48786	0.94183
1314.43405	0.94234
1312.38025	0.94268
1310.32645	0.94258
1308.27264	0.94168
1306.21884	0.94000
1304.16504	0.93865
1302.11123	0.93850
1300.05743	0.93903
1298.00363	0.93947
1295.94982	0.93968
1293.89602	0.93991
1291.84222	0.94017
1289.78842	0.94032
1287.73461	0.94047
1285.68081	0.94040
1283.62701	0.94006
1281.57320	0.93976
1279.51940	0.93948
1277.46560	0.93902
1275.41179	0.93851
1273.35799	0.93814
1271.30419	0.93772
1269.25038	0.93692
1267.19658	0.93583
1265.14278	0.93476
1263.08897	0.93365
1261.03517	0.93212
1258.98137	0.92996
1256.92756	0.92761
1254.87376	0.92615
1252.81996	0.92615
1250.76615	0.92664
1248.71235	0.92673
1246.65855	0.92636
1244.60474	0.92567
1242.55094	0.92490
1240.49714	0.92406
1238.44334	0.92330
1236.38953	0.92271
1234.33573	0.92197
1232.28193	0.92102
1230.22812	0.92004
1228.17432	0.91897
1226.12052	0.91774
1224.06671	0.91659
1222.01291	0.91584
1219.95911	0.91518
1217.90530	0.91416
1215.85150	0.91315
1213.79770	0.91258
1211.74389	0.91226
1209.69009	0.91185
1207.63629	0.91109
1205.58248	0.90995
1203.52868	0.90863
1201.47488	0.90743
1199.42107	0.90649
1197.36727	0.90541
1195.31347	0.90383
1193.25966	0.90198
1191.20586	0.90007
1189.15206	0.89804
1187.09825	0.89579
1185.04445	0.89318
1182.99065	0.89044
1180.93685	0.88771
1178.88304	0.88460
1176.82924	0.88078
1174.77544	0.87604
1172.72163	0.86979
1170.66783	0.86208
1168.61403	0.85490
1166.56022	0.85062
1164.50642	0.84962
1162.45262	0.85051
1160.39881	0.85165
1158.34501	0.85207
1156.29121	0.85158
1154.23740	0.85048
1152.18360	0.84940
1150.12980	0.84870
1148.07599	0.84812
1146.02219	0.84741
1143.96839	0.84667
1141.91458	0.84596
1139.86078	0.84521
1137.80698	0.84440
1135.75317	0.84308
1133.69937	0.84116
1131.64557	0.83939
1129.59176	0.83759
1127.53796	0.83508
1125.48416	0.83212
1123.43036	0.82896
1121.37655	0.82527
1119.32275	0.82146
1117.26895	0.81798
1115.21514	0.81447
1113.16134	0.81062
1111.10754	0.80647
1109.05373	0.80228
1106.99993	0.79839
1104.94613	0.79502
1102.89232	0.79216
1100.83852	0.78994
1098.78472	0.78859
1096.73091	0.78794
1094.67711	0.78754
1092.62331	0.78704
1090.56950	0.78664
1088.51570	0.78667
1086.46190	0.78679
1084.40809	0.78661
1082.35429	0.78632
1080.30049	0.78622
1078.24668	0.78590
1076.19288	0.78491
1074.13908	0.78377
1072.08528	0.78282
1070.03147	0.78167
1067.97767	0.77997
1065.92387	0.77765
1063.87006	0.77474
1061.81626	0.77148
1059.76246	0.76794
1057.70865	0.76395
1055.65485	0.75967
1053.60105	0.75514
1051.54724	0.75026
1049.49344	0.74515
1047.43964	0.73947
1045.38583	0.73327
1043.33203	0.72777
1041.27823	0.72329
1039.22442	0.71912
1037.17062	0.71527
1035.11682	0.71218
1033.06301	0.71026
1031.00921	0.70973
1028.95541	0.71008
1026.90160	0.71079
1024.84780	0.71192
1022.79400	0.71326
1020.74019	0.71451
1018.68639	0.71558
1016.63259	0.71596
1014.57879	0.71551
1012.52498	0.71486
1010.47118	0.71428
1008.41738	0.71376
1006.36357	0.71367
1004.30977	0.71357
1002.25597	0.71212
1000.20216	0.70915
998.14836	0.70771
996.09456	0.71202
994.04075	0.72200
991.98695	0.73355
989.93315	0.74393
987.87934	0.75247
985.82554	0.75912
983.77174	0.76480
981.71793	0.76985
979.66413	0.77338
977.61033	0.77447
975.55652	0.77285
973.50272	0.77121
971.44892	0.77463
969.39511	0.78411
967.34131	0.79510
965.28751	0.80388
963.23371	0.81010
961.17990	0.81478
959.12610	0.81890
957.07230	0.82248
955.01849	0.82543
952.96469	0.82793
950.91089	0.83007
948.85708	0.83208
946.80328	0.83330
944.74948	0.83353
942.69567	0.83388
940.64187	0.83489
938.58807	0.83654
936.53426	0.83856
934.48046	0.84054
932.42666	0.84221
930.37285	0.84360
928.31905	0.84497
926.26525	0.84604
924.21144	0.84621
922.15764	0.84579
920.10384	0.84506
918.05003	0.84383
915.99623	0.84246
913.94243	0.84150
911.88862	0.84146
909.83482	0.84298
907.78102	0.84578
905.72722	0.84863
903.67341	0.85066
901.61961	0.85180
899.56581	0.85311
897.51200	0.85608
895.45820	0.86092
893.40440	0.86603
891.35059	0.86994
889.29679	0.87295
887.24299	0.87548
885.18918	0.87724
883.13538	0.87861
881.08158	0.88024
879.02777	0.88161
876.97397	0.88242
874.92017	0.88344
872.86636	0.88477
870.81256	0.88603
868.75876	0.88740
866.70495	0.88899
864.65115	0.89072
862.59735	0.89263
860.54354	0.89440
858.48974	0.89546
856.43594	0.89580
854.38213	0.89621
852.32833	0.89705
850.27453	0.89769
848.22073	0.89654
846.16692	0.89219
844.11312	0.88403
842.05932	0.87483
840.00551	0.87277
837.95171	0.87986
835.89791	0.88784
833.84410	0.89194
831.79030	0.89389
829.73650	0.89518
827.68269	0.89586
825.62889	0.89573
823.57509	0.89489
821.52128	0.89357
819.46748	0.89271
817.41368	0.89252
815.35987	0.89111
813.30607	0.88766
811.25227	0.88401
809.19846	0.88171
807.14466	0.88067
805.09086	0.88088
803.03705	0.88179
800.98325	0.88187
798.92945	0.88069
796.87565	0.87979
794.82184	0.87991
792.76804	0.87998
790.71424	0.88003
788.66043	0.88044
786.60663	0.88057
784.55283	0.88027
782.49902	0.87999
780.44522	0.87959
778.39142	0.87908
776.33761	0.87913
774.28381	0.87970
772.23001	0.88004
770.17620	0.88043
768.12240	0.88110
766.06860	0.88099
764.01479	0.87977
761.96099	0.87841
759.90719	0.87760
757.85338	0.87721
755.79958	0.87703
753.74578	0.87691
751.69197	0.87666
749.63817	0.87657
747.58437	0.87629
745.53056	0.87573
743.47676	0.87562
741.42296	0.87600
739.36916	0.87631
737.31535	0.87674
735.26155	0.87741
733.20775	0.87751
731.15394	0.87708
729.10014	0.87646
727.04634	0.87571
724.99253	0.87541
722.93873	0.87560
720.88493	0.87533
718.83112	0.87467
716.77732	0.87431
714.72352	0.87380
712.66971	0.87318
710.61591	0.87226
708.56211	0.87035
706.50830	0.86805
704.45450	0.86560
702.40070	0.86259
700.34689	0.85965
698.29309	0.85763
696.23929	0.85660
694.18548	0.85573
692.13168	0.85511
690.07788	0.85474
688.02408	0.85362
685.97027	0.85219
683.91647	0.85118
681.86267	0.85083
679.80886	0.85115
677.75506	0.85127
675.70126	0.85067
673.64745	0.84916
671.59365	0.84773
669.53985	0.84776
667.48604	0.84890
665.43224	0.84954
663.37844	0.84972
661.32463	0.84903
659.27083	0.84745
657.21703	0.84644
655.16322	0.84568
653.10942	0.84437
651.05562	0.84404
649.00181	0.84471
646.94801	0.84420
644.89421	0.84284
642.84040	0.84231
640.78660	0.84200
638.73280	0.84137
636.67899	0.84084
634.62519	0.84034
632.57139	0.83990
630.51759	0.83877
628.46378	0.83660
626.40998	0.83466
624.35618	0.83370
622.30237	0.83346
620.24857	0.83328
618.19477	0.83259
616.14096	0.83139
614.08716	0.82983
612.03336	0.82781
609.97955	0.82515
607.92575	0.82264
605.87195	0.82120
603.81814	0.81936
601.76434	0.81619
599.71054	0.81404
597.65673	0.81426
595.60293	0.81532
593.54913	0.81542
591.49532	0.81447
589.44152	0.81361
587.38772	0.81278
585.33391	0.81154
583.28011	0.80993
581.22631	0.80861
579.17250	0.80749
577.11870	0.80556
575.06490	0.80313
573.01110	0.80150
570.95729	0.80144
568.90349	0.80161
566.84969	0.80028
564.79588	0.79846
562.74208	0.79781
560.68828	0.79766
558.63447	0.79584
556.58067	0.79210
554.52687	0.78772
552.47306	0.78387
550.41926	0.78077
548.36546	0.77740
546.31165	0.77399
544.25785	0.77067
542.20405	0.76699
540.15024	0.76369
538.09644	0.76015
536.04264	0.75630
533.98883	0.75376
531.93503	0.75179
529.88123	0.75040
527.82742	0.75166
525.77362	0.75377
523.71982	0.75483
521.66602	0.75678
519.61221	0.75954
517.55841	0.76185
515.50461	0.76407
513.45080	0.76611
511.39700	0.76785
509.34320	0.76957
507.28939	0.77142
505.23559	0.77430
503.18179	0.77806
501.12798	0.78016
499.07418	0.77975
497.02038	0.77867
494.96657	0.77803
492.91277	0.77707
490.85897	0.77415
488.80516	0.77021
486.75136	0.76758
484.69756	0.76475
482.64375	0.76001
480.58995	0.75509
478.53615	0.74879
476.48234	0.73970
474.42854	0.73000
472.37474	0.72133
470.32093	0.71478
468.26713	0.70927
466.21333	0.70446
464.15953	0.70272
462.10572	0.70338
460.05192	0.70474
457.99812	0.70685
455.94431	0.70966
453.89051	0.71284
451.83671	0.71555
449.78290	0.71885
447.72910	0.72434
445.67530	0.72828
443.62149	0.72865
441.56769	0.72909
439.51389	0.72923
437.46008	0.72601
435.40628	0.72104
433.35248	0.71865
431.29867	0.71855
429.24487	0.71776
427.19107	0.71586
425.13726	0.71557
423.08346	0.71969
421.02966	0.72471
418.97585	0.72764
416.92205	0.73066
414.86825	0.73151
412.81445	0.73020
410.76064	0.73126
408.70684	0.73658
406.65304	0.74573
404.59923	0.75810
402.54543	0.76675
400.49163	0.76672
398.43782	0.76343
