3996.71440	0.96316
3994.66059	0.96316
3992.60678	0.96310
3990.55297	0.96297
3988.49916	0.96297
3986.44535	0.96310
3984.39154	0.96306
3982.33773	0.96293
3980.28391	0.96320
3978.23010	0.96364
3976.17629	0.96362
3974.12248	0.96325
3972.06867	0.96304
3970.01486	0.96306
3967.96105	0.96301
3965.90724	0.96266
3963.85343	0.96243
3961.79962	0.96264
3959.74581	0.96301
3957.69200	0.96331
3955.63819	0.96351
3953.58438	0.96388
3951.53057	0.96447
3949.47676	0.96466
3947.42295	0.96431
3945.36914	0.96395
3943.31533	0.96391
3941.26152	0.96404
3939.20771	0.96386
3937.15390	0.96351
3935.10009	0.96333
3933.04628	0.96310
3930.99247	0.96304
3928.93866	0.96334
3926.88485	0.96353
3924.83104	0.96352
3922.77723	0.96349
3920.72342	0.96352
3918.66961	0.96362
3916.61580	0.96351
3914.56199	0.96350
3912.50818	0.96382
3910.45437	0.96385
3908.40056	0.96349
3906.34675	0.96315
3904.29294	0.96301
3902.23913	0.96315
3900.18532	0.96353
3898.13151	0.96370
3896.07770	0.96356
3894.02389	0.96331
3891.97008	0.96325
3889.91627	0.96372
3887.86246	0.96419
3885.80865	0.96425
3883.75484	0.96393
3881.70103	0.96349
3879.64722	0.96319
3877.59341	0.96318
3875.53960	0.96352
3873.48579	0.96405
3871.43198	0.96399
3869.37817	0.96341
3867.32436	0.96335
3865.27055	0.96365
3863.21674	0.96388
3861.16293	0.96387
3859.10912	0.96361
3857.05531	0.96344
3855.00150	0.96345
3852.94769	0.96349
3850.89388	0.96369
3848.84007	0.96391
3846.78626	0.96381
3844.73245	0.96337
3842.67864	0.96317
3840.62483	0.96336
3838.57102	0.96353
3836.51721	0.96371
3834.46340	0.96376
3832.40959	0.96363
3830.35578	0.96367
3828.30197	0.96408
3826.24816	0.96450
3824.19435	0.96469
3822.14054	0.96475
3820.08673	0.96463
3818.03292	0.96449
3815.97911	0.96444
3813.92530	0.96424
3811.87149	0.96383
3809.81768	0.96351
3807.76387	0.96346
3805.71006	0.96363
3803.65625	0.96385
3801.60244	0.96380
3799.54863	0.96359
3797.49482	0.96369
3795.44101	0.96408
3793.38720	0.96441
3791.33339	0.96461
3789.27958	0.96488
3787.22577	0.96503
3785.17196	0.96479
3783.11815	0.96459
3781.06434	0.96468
3779.01053	0.96472
3776.95672	0.96480
3774.90291	0.96499
3772.84910	0.96508
3770.79529	0.96489
3768.74148	0.96448
3766.68767	0.96418
3764.63386	0.96410
3762.58005	0.96425
3760.52624	0.96435
3758.47243	0.96419
3756.41862	0.96415
3754.36481	0.96433
3752.31100	0.96437
3750.25719	0.96442
3748.20338	0.96493
3746.14957	0.96530
3744.09576	0.96506
3742.04195	0.96500
3739.98814	0.96532
3737.93433	0.96525
3735.88052	0.96473
3733.82671	0.96434
3731.77290	0.96437
3729.71909	0.96470
3727.66528	0.96503
3725.61147	0.96522
3723.55766	0.96517
3721.50385	0.96471
3719.45004	0.96426
3717.39623	0.96431
3715.34242	0.96448
3713.28861	0.96411
3711.23480	0.96343
3709.18099	0.96349
3707.12718	0.96412
3705.07337	0.96453
3703.01956	0.96438
3700.96575	0.96410
3698.91194	0.96422
3696.85813	0.96426
3694.80432	0.96386
3692.75051	0.96339
3690.69670	0.96334
3688.64289	0.96375
3686.58907	0.96420
3684.53526	0.96442
3682.48145	0.96442
3680.42764	0.96440
3678.37383	0.96424
3676.32002	0.96369
3674.26621	0.96324
3672.21240	0.96327
3670.15859	0.96330
3668.10478	0.96331
3666.05097	0.96340
3663.99716	0.96341
3661.94335	0.96315
3659.88954	0.96286
3657.83573	0.96272
3655.78192	0.96239
3653.72811	0.96212
3651.67430	0.96213
3649.62049	0.96186
3647.56668	0.96134
3645.51287	0.96105
3643.45906	0.96081
3641.40525	0.96057
3639.35144	0.96038
3637.29763	0.96028
3635.24382	0.96019
3633.19001	0.95992
3631.13620	0.95953
3629.08239	0.95915
3627.02858	0.95886
3624.97477	0.95879
3622.92096	0.95867
3620.86715	0.95828
3618.81334	0.95793
3616.75953	0.95782
3614.70572	0.95762
3612.65191	0.95726
3610.59810	0.95684
3608.54429	0.95633
3606.49048	0.95577
3604.43667	0.95547
3602.38286	0.95536
3600.32905	0.95507
3598.27524	0.95484
3596.22143	0.95474
3594.16762	0.95447
3592.11381	0.95435
3590.06000	0.95419
3588.00619	0.95331
3585.95238	0.95227
3583.89857	0.95192
3581.84476	0.95186
3579.79095	0.95196
3577.73714	0.95187
3575.68333	0.95129
3573.62952	0.95065
3571.57571	0.95039
3569.52190	0.95036
3567.46809	0.94985
3565.41428	0.94882
3563.36047	0.94817
3561.30666	0.94799
3559.25285	0.94790
3557.19904	0.94741
3555.14523	0.94660
3553.09142	0.94601
3551.03761	0.94568
3548.98380	0.94542
3546.92999	0.94507
3544.87618	0.94451
3542.82237	0.94384
3540.76856	0.94336
3538.71475	0.94312
3536.66094	0.94297
3534.60713	0.94276
3532.55332	0.94253
3530.49951	0.94241
3528.44570	0.94230
3526.39189	0.94229
3524.33808	0.94243
3522.28427	0.94216
3520.23046	0.94169
3518.17665	0.94163
3516.12284	0.94167
3514.06903	0.94156
3512.01522	0.94147
3509.96141	0.94143
3507.90760	0.94154
3505.85379	0.94174
3503.79998	0.94154
3501.74617	0.94103
3499.69236	0.94085
3497.63855	0.94101
3495.58474	0.94109
3493.53093	0.94080
3491.47712	0.94019
3489.42331	0.93958
3487.36950	0.93940
3485.31569	0.93955
3483.26188	0.93961
3481.20807	0.93964
3479.15426	0.93960
3477.10045	0.93936
3475.04664	0.93906
3472.99283	0.93879
3470.93902	0.93860
3468.88521	0.93850
3466.83140	0.93827
3464.77759	0.93784
3462.72378	0.93746
3460.66997	0.93719
3458.61616	0.93688
3456.56235	0.93657
3454.50854	0.93632
3452.45473	0.93623
3450.40092	0.93629
3448.34711	0.93630
3446.29330	0.93584
3444.23949	0.93511
3442.18568	0.93482
3440.13187	0.93496
3438.07806	0.93486
3436.02425	0.93436
3433.97044	0.93387
3431.91663	0.93379
3429.86282	0.93417
3427.80901	0.93438
3425.75520	0.93385
3423.70139	0.93301
3421.64758	0.93241
3419.59377	0.93185
3417.53996	0.93110
3415.48615	0.93050
3413.43234	0.93031
3411.37853	0.93021
3409.32472	0.92998
3407.27091	0.92969
3405.21710	0.92935
3403.16329	0.92908
3401.10948	0.92893
3399.05567	0.92864
3397.00186	0.92871
3394.94805	0.92934
3392.89424	0.92977
3390.84042	0.92984
3388.78661	0.92981
3386.73280	0.92959
3384.67899	0.92932
3382.62518	0.92914
3380.57137	0.92899
3378.51756	0.92894
3376.46375	0.92896
3374.40994	0.92892
3372.35613	0.92867
3370.30232	0.92827
3368.24851	0.92798
3366.19470	0.92790
3364.14089	0.92789
3362.08708	0.92779
3360.03327	0.92756
3357.97946	0.92730
3355.92565	0.92701
3353.87184	0.92671
3351.81803	0.92652
3349.76422	0.92643
3347.71041	0.92631
3345.65660	0.92629
3343.60279	0.92647
3341.54898	0.92658
3339.49517	0.92625
3337.44136	0.92557
3335.38755	0.92511
3333.33374	0.92507
3331.27993	0.92525
3329.22612	0.92550
3327.17231	0.92549
3325.11850	0.92516
3323.06469	0.92507
3321.01088	0.92512
3318.95707	0.92510
3316.90326	0.92516
3314.84945	0.92512
3312.79564	0.92485
3310.74183	0.92451
3308.68802	0.92394
3306.63421	0.92328
3304.58040	0.92298
3302.52659	0.92299
3300.47278	0.92316
3298.41897	0.92319
3296.36516	0.92278
3294.31135	0.92226
3292.25754	0.92202
3290.20373	0.92195
3288.14992	0.92181
3286.09611	0.92163
3284.04230	0.92164
3281.98849	0.92176
3279.93468	0.92171
3277.88087	0.92155
3275.82706	0.92142
3273.77325	0.92146
3271.71944	0.92187
3269.66563	0.92230
3267.61182	0.92234
3265.55801	0.92223
3263.50420	0.92233
3261.45039	0.92281
3259.39658	0.92347
3257.34277	0.92388
3255.28896	0.92393
3253.23515	0.92389
3251.18134	0.92405
3249.12753	0.92437
3247.07372	0.92475
3245.01991	0.92520
3242.96610	0.92561
3240.91229	0.92586
3238.85848	0.92605
3236.80467	0.92622
3234.75086	0.92642
3232.69705	0.92652
3230.64324	0.92629
3228.58943	0.92599
3226.53562	0.92594
3224.48181	0.92617
3222.42800	0.92646
3220.37419	0.92663
3218.32038	0.92680
3216.26657	0.92711
3214.21276	0.92735
3212.15895	0.92736
3210.10514	0.92729
3208.05133	0.92729
3205.99752	0.92736
3203.94371	0.92740
3201.88990	0.92746
3199.83609	0.92750
3197.78228	0.92760
3195.72847	0.92781
3193.67466	0.92800
3191.62085	0.92812
3189.56704	0.92816
3187.51323	0.92823
3185.45942	0.92833
3183.40561	0.92840
3181.35180	0.92862
3179.29799	0.92898
3177.24418	0.92917
3175.19037	0.92918
3173.13656	0.92923
3171.08275	0.92921
3169.02894	0.92927
3166.97513	0.92949
3164.92132	0.92951
3162.86751	0.92938
3160.81370	0.92940
3158.75989	0.92941
3156.70608	0.92941
3154.65227	0.92951
3152.59846	0.92964
3150.54465	0.92970
3148.49084	0.92989
3146.43703	0.93022
3144.38322	0.93042
3142.32941	0.93050
3140.27560	0.93060
3138.22179	0.93059
3136.16798	0.93058
3134.11417	0.93064
3132.06036	0.93048
3130.00655	0.93029
3127.95274	0.93044
3125.89893	0.93068
3123.84512	0.93082
3121.79131	0.93096
3119.73750	0.93093
3117.68369	0.93098
3115.62988	0.93134
3113.57607	0.93150
3111.52226	0.93146
3109.46845	0.93162
3107.41464	0.93166
3105.36083	0.93136
3103.30702	0.93107
3101.25321	0.93096
3099.19940	0.93083
3097.14559	0.93062
3095.09177	0.93043
3093.03796	0.93046
3090.98415	0.93071
3088.93034	0.93085
3086.87653	0.93076
3084.82272	0.93076
3082.76891	0.93094
3080.71510	0.93105
3078.66129	0.93109
3076.60748	0.93116
3074.55367	0.93132
3072.49986	0.93156
3070.44605	0.93180
3068.39224	0.93181
3066.33843	0.93172
3064.28462	0.93186
3062.23081	0.93202
3060.17700	0.93192
3058.12319	0.93181
3056.06938	0.93185
3054.01557	0.93199
3051.96176	0.93210
3049.90795	0.93214
3047.85414	0.93233
3045.80033	0.93273
3043.74652	0.93295
3041.69271	0.93299
3039.63890	0.93315
3037.58509	0.93345
3035.53128	0.93378
3033.47747	0.93401
3031.42366	0.93401
3029.36985	0.93393
3027.31604	0.93403
3025.26223	0.93428
3023.20842	0.93454
3021.15461	0.93465
3019.10080	0.93467
3017.04699	0.93467
3014.99318	0.93474
3012.93937	0.93507
3010.88556	0.93542
3008.83175	0.93542
3006.77794	0.93507
3004.72413	0.93470
3002.67032	0.93455
3000.61651	0.93461
2998.56270	0.93468
2996.50889	0.93448
2994.45508	0.93398
2992.40127	0.93333
2990.34746	0.93252
2988.29365	0.93155
2986.23984	0.93049
2984.18603	0.92911
2982.13222	0.92712
2980.07841	0.92450
2978.02460	0.92105
2975.97079	0.91616
2973.91698	0.90937
2971.86317	0.90052
2969.80936	0.88931
2967.75555	0.87559
2965.70174	0.85966
2963.64793	0.84321
2961.59412	0.83058
2959.54031	0.82527
2957.48650	0.82425
2955.43269	0.81977
2953.37888	0.80772
2951.32507	0.79266
2949.27126	0.78443
2947.21745	0.78943
2945.16364	0.80555
2943.10983	0.82514
2941.05602	0.84108
2939.00221	0.85033
2936.94840	0.85300
2934.89459	0.84982
2932.84078	0.84125
2930.78697	0.82798
2928.73316	0.81137
2926.67935	0.79356
2924.62554	0.77631
2922.57173	0.75930
2920.51792	0.74233
2918.46411	0.72919
2916.41030	0.72615
2914.35649	0.73552
2912.30268	0.75221
2910.24887	0.76853
2908.19506	0.78106
2906.14125	0.79113
2904.08744	0.80079
2902.03363	0.81077
2899.97982	0.82096
2897.92601	0.83061
2895.87220	0.83844
2893.81839	0.84385
2891.76458	0.84712
2889.71077	0.84864
2887.65696	0.84878
2885.60315	0.84778
2883.54934	0.84568
2881.49553	0.84272
2879.44172	0.83969
2877.38791	0.83788
2875.33410	0.83808
2873.28029	0.83892
2871.22648	0.83784
2869.17267	0.83421
2867.11886	0.83048
2865.06505	0.83114
2863.01124	0.83897
2860.95743	0.85127
2858.90362	0.86270
2856.84981	0.87039
2854.79600	0.87440
2852.74219	0.87585
2850.68838	0.87573
2848.63457	0.87412
2846.58076	0.86999
2844.52695	0.86232
2842.47314	0.85162
2840.41933	0.84110
2838.36552	0.83553
2836.31171	0.83808
2834.25790	0.84826
2832.20409	0.86200
2830.15028	0.87454
2828.09647	0.88398
2826.04266	0.89083
2823.98885	0.89568
2821.93504	0.89913
2819.88123	0.90187
2817.82742	0.90417
2815.77361	0.90625
2813.71980	0.90817
2811.66599	0.90966
2809.61218	0.91081
2807.55837	0.91208
2805.50456	0.91348
2803.45075	0.91482
2801.39693	0.91606
2799.34312	0.91715
2797.28931	0.91796
2795.23550	0.91856
2793.18169	0.91922
2791.12788	0.92011
2789.07407	0.92101
2787.02026	0.92174
2784.96645	0.92251
2782.91264	0.92337
2780.85883	0.92415
2778.80502	0.92484
2776.75121	0.92547
2774.69740	0.92596
2772.64359	0.92631
2770.58978	0.92661
2768.53597	0.92701
2766.48216	0.92751
2764.42835	0.92796
2762.37454	0.92833
2760.32073	0.92862
2758.26692	0.92881
2756.21311	0.92894
2754.15930	0.92911
2752.10549	0.92940
2750.05168	0.92970
2747.99787	0.92984
2745.94406	0.92988
2743.89025	0.92994
2741.83644	0.92999
2739.78263	0.92996
2737.72882	0.92989
2735.67501	0.92996
2733.62120	0.93005
2731.56739	0.93001
2729.51358	0.92986
2727.45977	0.92949
2725.40596	0.92894
2723.35215	0.92856
2721.29834	0.92859
2719.24453	0.92893
2717.19072	0.92938
2715.13691	0.93000
2713.08310	0.93085
2711.02929	0.93171
2708.97548	0.93223
2706.92167	0.93250
2704.86786	0.93280
2702.81405	0.93308
2700.76024	0.93324
2698.70643	0.93331
2696.65262	0.93346
2694.59881	0.93367
2692.54500	0.93372
2690.49119	0.93364
2688.43738	0.93368
2686.38357	0.93380
2684.32976	0.93376
2682.27595	0.93367
2680.22214	0.93372
2678.16833	0.93384
2676.11452	0.93393
2674.06071	0.93395
2672.00690	0.93385
2669.95309	0.93384
2667.89928	0.93403
2665.84547	0.93418
2663.79166	0.93415
2661.73785	0.93406
2659.68404	0.93406
2657.63023	0.93413
2655.57642	0.93423
2653.52261	0.93432
2651.46880	0.93443
2649.41499	0.93455
2647.36118	0.93473
2645.30737	0.93508
2643.25356	0.93538
2641.19975	0.93537
2639.14594	0.93534
2637.09213	0.93560
2635.03832	0.93579
2632.98451	0.93577
2630.93070	0.93584
2628.87689	0.93597
2626.82308	0.93600
2624.76927	0.93603
2622.71546	0.93603
2620.66165	0.93594
2618.60784	0.93586
2616.55403	0.93593
2614.50022	0.93606
2612.44641	0.93615
2610.39260	0.93629
2608.33879	0.93649
2606.28498	0.93652
2604.23117	0.93664
2602.17736	0.93706
2600.12355	0.93730
2598.06974	0.93747
2596.01593	0.93769
2593.96212	0.93746
2591.90831	0.93701
2589.85450	0.93694
2587.80069	0.93730
2585.74688	0.93769
2583.69307	0.93770
2581.63926	0.93714
2579.58545	0.93648
2577.53164	0.93671
2575.47783	0.93744
2573.42402	0.93771
2571.37021	0.93778
2569.31640	0.93810
2567.26259	0.93833
2565.20878	0.93829
2563.15497	0.93829
2561.10116	0.93841
2559.04735	0.93843
2556.99354	0.93831
2554.93973	0.93819
2552.88592	0.93817
2550.83211	0.93837
2548.77830	0.93883
2546.72449	0.93918
2544.67068	0.93930
2542.61687	0.93934
2540.56306	0.93933
2538.50925	0.93936
2536.45544	0.93939
2534.40163	0.93927
2532.34782	0.93921
2530.29401	0.93938
2528.24020	0.93966
2526.18639	0.93988
2524.13258	0.93989
2522.07877	0.93967
2520.02496	0.93951
2517.97115	0.93961
2515.91734	0.93984
2513.86353	0.93989
2511.80972	0.93992
2509.75591	0.94008
2507.70210	0.94044
2505.64828	0.94084
2503.59447	0.94077
2501.54066	0.94044
2499.48685	0.94041
2497.43304	0.94057
2495.37923	0.94070
2493.32542	0.94072
2491.27161	0.94059
2489.21780	0.94054
2487.16399	0.94071
2485.11018	0.94081
2483.05637	0.94068
2481.00256	0.94039
2478.94875	0.94029
2476.89494	0.94058
2474.84113	0.94105
2472.78732	0.94141
2470.73351	0.94165
2468.67970	0.94175
2466.62589	0.94160
2464.57208	0.94131
2462.51827	0.94104
2460.46446	0.94105
2458.41065	0.94126
2456.35684	0.94131
2454.30303	0.94127
2452.24922	0.94133
2450.19541	0.94146
2448.14160	0.94166
2446.08779	0.94195
2444.03398	0.94216
2441.98017	0.94230
2439.92636	0.94264
2437.87255	0.94284
2435.81874	0.94278
2433.76493	0.94289
2431.71112	0.94303
2429.65731	0.94302
2427.60350	0.94286
2425.54969	0.94276
2423.49588	0.94302
2421.44207	0.94335
2419.38826	0.94353
2417.33445	0.94382
2415.28064	0.94406
2413.22683	0.94390
2411.17302	0.94343
2409.11921	0.94304
2407.06540	0.94298
2405.01159	0.94328
2402.95778	0.94373
2400.90397	0.94382
2398.85016	0.94360
2396.79635	0.94353
2394.74254	0.94367
2392.68873	0.94376
2390.63492	0.94372
2388.58111	0.94383
2386.52730	0.94420
2384.47349	0.94435
2382.41968	0.94429
2380.36587	0.94451
2378.31206	0.94482
2376.25825	0.94495
2374.20444	0.94497
2372.15063	0.94491
2370.09682	0.94483
2368.04301	0.94473
2365.98920	0.94453
2363.93539	0.94455
2361.88158	0.94470
2359.82777	0.94469
2357.77396	0.94462
2355.72015	0.94482
2353.66634	0.94548
2351.61253	0.94576
2349.55872	0.94535
2347.50491	0.94492
2345.45110	0.94521
2343.39729	0.94610
2341.34348	0.94638
2339.28967	0.94620
2337.23586	0.94631
2335.18205	0.94646
2333.12824	0.94636
2331.07443	0.94608
2329.02062	0.94548
2326.96681	0.94468
2324.91300	0.94434
2322.85919	0.94485
2320.80538	0.94569
2318.75157	0.94625
2316.69776	0.94644
2314.64395	0.94643
2312.59014	0.94624
2310.53633	0.94606
2308.48252	0.94631
2306.42871	0.94683
2304.37490	0.94716
2302.32109	0.94696
2300.26728	0.94629
2298.21347	0.94581
2296.15966	0.94604
2294.10585	0.94669
2292.05204	0.94685
2289.99823	0.94649
2287.94442	0.94640
2285.89061	0.94671
2283.83680	0.94708
2281.78299	0.94734
2279.72918	0.94736
2277.67537	0.94705
2275.62156	0.94687
2273.56775	0.94734
2271.51394	0.94816
2269.46013	0.94864
2267.40632	0.94859
2265.35251	0.94823
2263.29870	0.94817
2261.24489	0.94854
2259.19108	0.94870
2257.13727	0.94848
2255.08346	0.94793
2253.02965	0.94736
2250.97584	0.94744
2248.92203	0.94765
2246.86822	0.94768
2244.81441	0.94797
2242.76060	0.94819
2240.70679	0.94826
2238.65298	0.94870
2236.59917	0.94928
2234.54536	0.94923
2232.49155	0.94838
2230.43774	0.94808
2228.38393	0.94841
2226.33012	0.94827
2224.27631	0.94842
2222.22250	0.94920
2220.16869	0.94954
2218.11488	0.94945
2216.06107	0.94968
2214.00726	0.94973
2211.95344	0.94935
2209.89963	0.94903
2207.84582	0.94914
2205.79201	0.95003
2203.73820	0.95103
2201.68439	0.95122
2199.63058	0.95032
2197.57677	0.94912
2195.52296	0.94941
2193.46915	0.95138
2191.41534	0.95295
2189.36153	0.95221
2187.30772	0.95001
2185.25391	0.94931
2183.20010	0.95023
2181.14629	0.95082
2179.09248	0.95113
2177.03867	0.95124
2174.98486	0.95143
2172.93105	0.95140
2170.87724	0.95078
2168.82343	0.95115
2166.76962	0.95208
2164.71581	0.95232
2162.66200	0.95257
2160.60819	0.95284
2158.55438	0.95239
2156.50057	0.95084
2154.44676	0.94962
2152.39295	0.95065
2150.33914	0.95257
2148.28533	0.95284
2146.23152	0.95176
2144.17771	0.95120
2142.12390	0.95113
2140.07009	0.95065
2138.01628	0.95060
2135.96247	0.95181
2133.90866	0.95296
2131.85485	0.95284
2129.80104	0.95261
2127.74723	0.95269
2125.69342	0.95242
2123.63961	0.95207
2121.58580	0.95155
2119.53199	0.95082
2117.47818	0.95035
2115.42437	0.95035
2113.37056	0.95050
2111.31675	0.95035
2109.26294	0.95029
2107.20913	0.95009
2105.15532	0.94940
2103.10151	0.94916
2101.04770	0.94953
2098.99389	0.95000
2096.94008	0.95068
2094.88627	0.95132
2092.83246	0.95132
2090.77865	0.95065
2088.72484	0.95010
2086.67103	0.95059
2084.61722	0.95173
2082.56341	0.95235
2080.50960	0.95212
2078.45579	0.95184
2076.40198	0.95203
2074.34817	0.95239
2072.29436	0.95253
2070.24055	0.95223
2068.18674	0.95189
2066.13293	0.95167
2064.07912	0.95113
2062.02531	0.95091
2059.97150	0.95120
2057.91769	0.95101
2055.86388	0.95030
2053.81007	0.95009
2051.75626	0.95069
2049.70245	0.95118
2047.64864	0.95120
2045.59483	0.95189
2043.54102	0.95288
2041.48721	0.95263
2039.43340	0.95217
2037.37959	0.95280
2035.32578	0.95268
2033.27197	0.95087
2031.21816	0.95087
2029.16435	0.95292
2027.11054	0.95362
2025.05673	0.95327
2023.00292	0.95344
2020.94911	0.95414
2018.89530	0.95493
2016.84149	0.95522
2014.78768	0.95518
2012.73387	0.95517
2010.68006	0.95422
2008.62625	0.95236
2006.57244	0.95161
2004.51863	0.95327
2002.46482	0.95571
2000.41101	0.95632
1998.35720	0.95513
1996.30339	0.95392
1994.24958	0.95325
1992.19577	0.95268
1990.14196	0.95257
1988.08815	0.95312
1986.03434	0.95339
1983.98053	0.95278
1981.92672	0.95217
1979.87291	0.95263
1977.81910	0.95322
1975.76529	0.95284
1973.71148	0.95195
1971.65767	0.95140
1969.60386	0.95194
1967.55005	0.95263
1965.49624	0.95253
1963.44243	0.95247
1961.38862	0.95313
1959.33481	0.95409
1957.28100	0.95437
1955.22719	0.95388
1953.17338	0.95372
1951.11957	0.95346
1949.06576	0.95248
1947.01195	0.95174
1944.95814	0.95107
1942.90433	0.95040
1940.85052	0.95053
1938.79671	0.95103
1936.74290	0.95159
1934.68909	0.95203
1932.63528	0.95223
1930.58147	0.95217
1928.52766	0.95185
1926.47385	0.95204
1924.42004	0.95285
1922.36623	0.95334
1920.31242	0.95329
1918.25861	0.95317
1916.20479	0.95267
1914.15098	0.95195
1912.09717	0.95174
1910.04336	0.95175
1907.98955	0.95128
1905.93574	0.95035
1903.88193	0.94991
1901.82812	0.95059
1899.77431	0.95137
1897.72050	0.95130
1895.66669	0.95095
1893.61288	0.95111
1891.55907	0.95140
1889.50526	0.95118
1887.45145	0.95059
1885.39764	0.95027
1883.34383	0.95028
1881.29002	0.95035
1879.23621	0.95040
1877.18240	0.95012
1875.12859	0.94964
1873.07478	0.94963
1871.02097	0.95014
1868.96716	0.95040
1866.91335	0.95016
1864.85954	0.94988
1862.80573	0.94972
1860.75192	0.94980
1858.69811	0.95020
1856.64430	0.95043
1854.59049	0.95014
1852.53668	0.94984
1850.48287	0.94999
1848.42906	0.95028
1846.37525	0.95022
1844.32144	0.94985
1842.26763	0.94943
1840.21382	0.94896
1838.16001	0.94869
1836.10620	0.94883
1834.05239	0.94896
1831.99858	0.94911
1829.94477	0.94968
1827.89096	0.95004
1825.83715	0.94968
1823.78334	0.94897
1821.72953	0.94839
1819.67572	0.94831
1817.62191	0.94850
1815.56810	0.94837
1813.51429	0.94792
1811.46048	0.94759
1809.40667	0.94743
1807.35286	0.94722
1805.29905	0.94690
1803.24524	0.94651
1801.19143	0.94612
1799.13762	0.94573
1797.08381	0.94508
1795.03000	0.94425
1792.97619	0.94355
1790.92238	0.94294
1788.86857	0.94224
1786.81476	0.94136
1784.76095	0.94007
1782.70714	0.93855
1780.65333	0.93711
1778.59952	0.93587
1776.54571	0.93491
1774.49190	0.93418
1772.43809	0.93345
1770.38428	0.93258
1768.33047	0.93144
1766.27666	0.93019
1764.22285	0.92926
1762.16904	0.92830
1760.11523	0.92692
1758.06142	0.92539
1756.00761	0.92381
1753.95380	0.92215
1751.89999	0.91993
1749.84618	0.91710
1747.79237	0.91433
1745.73856	0.91187
1743.68475	0.90973
1741.63094	0.90791
1739.57713	0.90632
1737.52332	0.90517
1735.46951	0.90418
1733.41570	0.90307
1731.36189	0.90247
1729.30808	0.90205
1727.25427	0.90117
1725.20046	0.89959
1723.14665	0.89734
1721.09284	0.89525
1719.03903	0.89345
1716.98522	0.89111
1714.93141	0.88863
1712.87760	0.88666
1710.82379	0.88544
1708.76998	0.88533
1706.71617	0.88638
1704.66236	0.88828
1702.60855	0.89034
1700.55474	0.89259
1698.50093	0.89492
1696.44712	0.89673
1694.39331	0.89813
1692.33950	0.89922
1690.28569	0.89999
1688.23188	0.90050
1686.17807	0.90082
1684.12426	0.90046
1682.07045	0.89986
1680.01664	0.89988
1677.96283	0.89998
1675.90902	0.89960
1673.85521	0.89890
1671.80140	0.89823
1669.74759	0.89724
1667.69378	0.89619
1665.63997	0.89531
1663.58616	0.89388
1661.53235	0.89172
1659.47854	0.88985
1657.42473	0.88864
1655.37092	0.88756
1653.31711	0.88556
1651.26330	0.88452
1649.20949	0.88521
1647.15568	0.88617
1645.10187	0.88735
1643.04806	0.88875
1640.99425	0.89007
1638.94044	0.89119
1636.88663	0.89199
1634.83282	0.89223
1632.77901	0.89242
1630.72520	0.89275
1628.67139	0.89297
1626.61758	0.89330
1624.56377	0.89402
1622.50996	0.89510
1620.45614	0.89654
1618.40233	0.89821
1616.34852	0.90024
1614.29471	0.90253
1612.24090	0.90487
1610.18709	0.90725
1608.13328	0.90942
1606.07947	0.91133
1604.02566	0.91306
1601.97185	0.91475
1599.91804	0.91649
1597.86423	0.91800
1595.81042	0.91920
1593.75661	0.92030
1591.70280	0.92128
1589.64899	0.92206
1587.59518	0.92277
1585.54137	0.92351
1583.48756	0.92412
1581.43375	0.92455
1579.37994	0.92485
1577.32613	0.92490
1575.27232	0.92454
1573.21851	0.92416
1571.16470	0.92363
1569.11089	0.92267
1567.05708	0.92173
1565.00327	0.92081
1562.94946	0.91988
1560.89565	0.91877
1558.84184	0.91621
1556.78803	0.91375
1554.73422	0.91247
1552.68041	0.91122
1550.62660	0.91014
1548.57279	0.90946
1546.51898	0.90919
1544.46517	0.90889
1542.41136	0.90857
1540.35755	0.90861
1538.30374	0.90915
1536.24993	0.90976
1534.19612	0.91022
1532.14231	0.91084
1530.08850	0.91170
1528.03469	0.91250
1525.98088	0.91324
1523.92707	0.91399
1521.87326	0.91448
1519.81945	0.91464
1517.76564	0.91507
1515.71183	0.91617
1513.65802	0.91745
1511.60421	0.91856
1509.55040	0.91964
1507.49659	0.92084
1505.44278	0.92218
1503.38897	0.92338
1501.33516	0.92436
1499.28135	0.92511
1497.22754	0.92588
1495.17373	0.92685
1493.11992	0.92776
1491.06611	0.92839
1489.01230	0.92861
1486.95849	0.92838
1484.90468	0.92801
1482.85087	0.92735
1480.79706	0.92612
1478.74325	0.92424
1476.68944	0.92124
1474.63563	0.91592
1472.58182	0.90604
1470.52801	0.89301
1468.47420	0.88019
1466.42039	0.86560
1464.36658	0.84912
1462.31277	0.83718
1460.25896	0.83097
1458.20515	0.82653
1456.15134	0.82241
1454.09753	0.81994
1452.04372	0.81890
1449.98991	0.82110
1447.93610	0.83025
1445.88229	0.84507
1443.82848	0.85936
1441.77467	0.86994
1439.72086	0.87575
1437.66705	0.87737
1435.61324	0.87791
1433.55943	0.88205
1431.50562	0.88930
1429.45181	0.89633
1427.39800	0.90052
1425.34419	0.90263
1423.29038	0.90396
1421.23657	0.90494
1419.18276	0.90569
1417.12895	0.90620
1415.07514	0.90671
1413.02133	0.90728
1410.96752	0.90790
1408.91371	0.90856
1406.85990	0.90922
1404.80609	0.90985
1402.75228	0.91064
1400.69847	0.91143
1398.64466	0.91190
1396.59085	0.91205
1394.53704	0.91187
1392.48323	0.91113
1390.42942	0.90981
1388.37561	0.90713
1386.32180	0.90162
1384.26799	0.89185
1382.21418	0.87436
1380.16037	0.84331
1378.10656	0.80040
1376.05275	0.76709
1373.99894	0.76937
1371.94513	0.80166
1369.89132	0.83587
1367.83751	0.85918
1365.78370	0.87049
1363.72989	0.87332
1361.67608	0.87081
1359.62227	0.86718
1357.56846	0.86706
1355.51465	0.87178
1353.46084	0.87886
1351.40703	0.88501
1349.35322	0.88926
1347.29941	0.89207
1345.24560	0.89389
1343.19179	0.89510
1341.13798	0.89599
1339.08417	0.89647
1337.03036	0.89648
1334.97655	0.89613
1332.92274	0.89535
1330.86893	0.89423
1328.81512	0.89337
1326.76130	0.89327
1324.70749	0.89373
1322.65368	0.89420
1320.59987	0.89428
1318.54606	0.89399
1316.49225	0.89364
1314.43844	0.89321
1312.38463	0.89242
1310.33082	0.89114
1308.27701	0.88894
1306.22320	0.88590
1304.16939	0.88365
1302.11558	0.88340
1300.06177	0.88394
1298.00796	0.88385
1295.95415	0.88330
1293.90034	0.88296
1291.84653	0.88298
1289.79272	0.88315
1287.73891	0.88322
1285.68510	0.88304
1283.63129	0.88257
1281.57748	0.88186
1279.52367	0.88106
1277.46986	0.88025
1275.41605	0.87935
1273.36224	0.87829
1271.30843	0.87693
1269.25462	0.87530
1267.20081	0.87358
1265.14700	0.87174
1263.09319	0.86970
1261.03938	0.86723
1258.98557	0.86393
1256.93176	0.86003
1254.87795	0.85685
1252.82414	0.85504
1250.77033	0.85369
1248.71652	0.85207
1246.66271	0.85008
1244.60890	0.84771
1242.55509	0.84516
1240.50128	0.84266
1238.44747	0.84009
1236.39366	0.83746
1234.33985	0.83514
1232.28604	0.83311
1230.23223	0.83117
1228.17842	0.82924
1226.12461	0.82713
1224.07080	0.82489
1222.01699	0.82278
1219.96318	0.82090
1217.90937	0.81945
1215.85556	0.81864
1213.80175	0.81827
1211.74794	0.81788
1209.69413	0.81737
1207.64032	0.81689
1205.58651	0.81639
1203.53270	0.81568
1201.47889	0.81486
1199.42508	0.81414
1197.37127	0.81353
1195.31746	0.81278
1193.26365	0.81180
1191.20984	0.81074
1189.15603	0.80972
1187.10222	0.80867
1185.04841	0.80740
1182.99460	0.80584
1180.94079	0.80398
1178.88698	0.80185
1176.83317	0.79931
1174.77936	0.79546
1172.72555	0.78918
1170.67174	0.78068
1168.61793	0.77232
1166.56412	0.76765
1164.51031	0.76801
1162.45650	0.77149
1160.40269	0.77552
1158.34888	0.77861
1156.29507	0.78068
1154.24126	0.78212
1152.18745	0.78333
1150.13364	0.78493
1148.07983	0.78709
1146.02602	0.78937
1143.97221	0.79146
1141.91840	0.79321
1139.86459	0.79455
1137.81078	0.79568
1135.75697	0.79684
1133.70316	0.79807
1131.64935	0.79922
1129.59554	0.80036
1127.54173	0.80160
1125.48792	0.80288
1123.43411	0.80431
1121.38030	0.80602
1119.32649	0.80767
1117.27268	0.80913
1115.21887	0.81060
1113.16506	0.81207
1111.11125	0.81349
1109.05744	0.81471
1107.00363	0.81538
1104.94982	0.81549
1102.89601	0.81576
1100.84220	0.81692
1098.78839	0.81879
1096.73458	0.82072
1094.68077	0.82259
1092.62696	0.82442
1090.57315	0.82585
1088.51934	0.82679
1086.46553	0.82755
1084.41172	0.82826
1082.35791	0.82877
1080.30410	0.82884
1078.25029	0.82828
1076.19648	0.82731
1074.14267	0.82615
1072.08886	0.82448
1070.03505	0.82198
1067.98124	0.81875
1065.92743	0.81488
1063.87362	0.81063
1061.81981	0.80636
1059.76600	0.80232
1057.71219	0.79894
1055.65838	0.79637
1053.60457	0.79416
1051.55076	0.79200
1049.49695	0.79006
1047.44314	0.78877
1045.38933	0.78848
1043.33552	0.78935
1041.28171	0.79106
1039.22790	0.79280
1037.17409	0.79438
1035.12028	0.79621
1033.06647	0.79855
1031.01265	0.80138
1028.95884	0.80439
1026.90503	0.80721
1024.85122	0.80967
1022.79741	0.81176
1020.74360	0.81364
1018.68979	0.81581
1016.63598	0.81880
1014.58217	0.82270
1012.52836	0.82703
1010.47455	0.83094
1008.42074	0.83389
1006.36693	0.83556
1004.31312	0.83499
1002.25931	0.83048
1000.20550	0.82201
998.15169	0.81512
996.09788	0.81681
994.04407	0.82625
991.99026	0.83675
989.93645	0.84442
987.88264	0.84918
985.82883	0.85200
983.77502	0.85355
981.72121	0.85377
979.66740	0.85210
977.61359	0.84751
975.55978	0.83947
973.50597	0.83144
971.45216	0.83061
969.39835	0.83894
967.34454	0.85000
965.29073	0.85810
963.23692	0.86293
961.18311	0.86606
959.12930	0.86836
957.07549	0.87019
955.02168	0.87160
952.96787	0.87241
950.91406	0.87285
948.86025	0.87309
946.80644	0.87326
944.75263	0.87339
942.69882	0.87312
940.64501	0.87269
938.59120	0.87306
936.53739	0.87442
934.48358	0.87595
932.42977	0.87725
930.37596	0.87817
928.32215	0.87865
926.26834	0.87905
924.21453	0.87948
922.16072	0.87961
920.10691	0.87930
918.05310	0.87868
915.99929	0.87787
913.94548	0.87697
911.89167	0.87620
909.83786	0.87545
907.78405	0.87412
905.73024	0.87155
903.67643	0.86741
901.62262	0.86182
899.56881	0.85674
897.51500	0.85509
895.46119	0.85683
893.40738	0.85964
891.35357	0.86152
889.29976	0.86170
887.24595	0.86103
885.19214	0.86020
883.13833	0.85926
881.08452	0.85878
879.03071	0.85872
876.97690	0.85853
874.92309	0.85829
872.86928	0.85837
870.81547	0.85866
868.76166	0.85919
866.70785	0.86039
864.65404	0.86204
862.60023	0.86368
860.54642	0.86512
858.49261	0.86626
856.43880	0.86743
854.38499	0.86889
852.33118	0.87029
850.27737	0.87102
848.22356	0.87031
846.16975	0.86658
844.11594	0.85731
842.06213	0.84517
840.00832	0.84218
837.95451	0.85271
835.90070	0.86554
833.84689	0.87324
831.79308	0.87736
829.73927	0.87974
827.68546	0.88114
825.63165	0.88216
823.57784	0.88305
821.52403	0.88336
819.47022	0.88300
817.41641	0.88255
815.36260	0.88128
813.30879	0.87772
811.25498	0.87265
809.20117	0.86904
807.14736	0.86920
805.09355	0.87252
803.03974	0.87636
800.98593	0.87915
798.93212	0.88121
796.87831	0.88294
794.82450	0.88466
792.77069	0.88670
790.71688	0.88850
788.66307	0.88925
786.60926	0.88903
784.55545	0.88873
782.50164	0.88911
780.44783	0.88995
778.39402	0.89042
776.34021	0.89072
774.28640	0.89165
772.23259	0.89235
770.17878	0.89197
768.12497	0.89152
766.07116	0.89150
764.01735	0.89190
761.96354	0.89249
759.90973	0.89253
757.85592	0.89245
755.80211	0.89307
753.74830	0.89382
751.69449	0.89389
749.64068	0.89358
747.58687	0.89361
745.53306	0.89377
743.47925	0.89387
741.42544	0.89386
739.37163	0.89334
737.31781	0.89247
735.26400	0.89163
733.21019	0.89069
731.15638	0.88982
729.10257	0.88930
727.04876	0.88869
724.99495	0.88786
722.94114	0.88730
720.88733	0.88670
718.83352	0.88609
716.77971	0.88651
714.72590	0.88784
712.67209	0.88872
710.61828	0.88873
708.56447	0.88854
706.51066	0.88825
704.45685	0.88744
702.40304	0.88623
700.34923	0.88524
698.29542	0.88488
696.24161	0.88514
694.18780	0.88595
692.13399	0.88695
690.08018	0.88730
688.02637	0.88678
685.97256	0.88576
683.91875	0.88471
681.86494	0.88399
679.81113	0.88331
677.75732	0.88228
675.70351	0.88079
673.64970	0.87879
671.59589	0.87651
669.54208	0.87441
667.48827	0.87379
665.43446	0.87481
663.38065	0.87599
661.32684	0.87697
659.27303	0.87764
657.21922	0.87794
655.16541	0.87774
653.11160	0.87676
651.05779	0.87534
649.00398	0.87479
646.95017	0.87475
644.89636	0.87417
642.84255	0.87286
640.78874	0.87060
638.73493	0.86822
636.68112	0.86667
634.62731	0.86572
632.57350	0.86531
630.51969	0.86490
628.46588	0.86321
626.41207	0.86097
624.35826	0.85981
622.30445	0.85896
620.25064	0.85694
618.19683	0.85368
616.14302	0.85032
614.08921	0.84788
612.03540	0.84548
609.98159	0.84142
607.92778	0.83659
605.87397	0.83280
603.82016	0.82954
601.76635	0.82655
599.71254	0.82402
597.65873	0.82155
595.60492	0.81936
593.55111	0.81730
591.49730	0.81467
589.44349	0.81182
587.38968	0.80905
585.33587	0.80655
583.28206	0.80522
581.22825	0.80601
579.17444	0.80875
577.12063	0.81257
575.06682	0.81687
573.01301	0.82096
570.95920	0.82536
568.90539	0.83074
566.85158	0.83553
564.79777	0.83814
562.74396	0.84003
560.69015	0.84337
558.63634	0.84690
556.58253	0.84826
554.52872	0.84852
552.47491	0.84954
550.42110	0.85080
548.36729	0.85230
546.31348	0.85402
544.25967	0.85452
542.20586	0.85439
540.15205	0.85439
538.09824	0.85381
536.04443	0.85367
533.99062	0.85478
531.93681	0.85550
529.88300	0.85501
527.82919	0.85455
525.77538	0.85565
523.72157	0.85781
521.66776	0.85915
519.61395	0.85928
517.56014	0.85937
515.50633	0.86023
513.45252	0.86097
511.39871	0.86144
509.34490	0.86215
507.29109	0.86278
505.23728	0.86255
503.18347	0.86218
501.12966	0.86285
499.07585	0.86332
497.02204	0.86284
494.96823	0.86211
492.91442	0.86174
490.86061	0.86198
488.80680	0.86222
486.75299	0.86141
484.69918	0.85923
482.64537	0.85605
480.59156	0.85246
478.53775	0.84986
476.48394	0.84862
474.43013	0.84692
472.37632	0.84305
470.32251	0.83879
468.26870	0.83586
466.21489	0.83297
464.16108	0.83069
462.10727	0.82978
460.05346	0.82905
457.99965	0.82798
455.94584	0.82767
453.89203	0.82959
451.83822	0.83331
449.78441	0.83648
447.73060	0.83853
445.67679	0.84015
443.62298	0.84042
441.56916	0.84120
439.51535	0.84466
437.46154	0.84780
435.40773	0.84754
433.35392	0.84562
431.30011	0.84728
429.24630	0.85291
427.19249	0.85543
425.13868	0.85331
423.08487	0.85237
421.03106	0.85344
418.97725	0.85415
416.92344	0.85502
414.86963	0.85840
412.81582	0.86381
410.76201	0.86802
408.70820	0.87048
406.65439	0.87177
404.60058	0.87277
402.54677	0.87382
400.49296	0.87208
398.43915	0.86909
