3996.70104	0.98112
3994.64724	0.98130
3992.59344	0.98143
3990.53964	0.98103
3988.48583	0.98052
3986.43203	0.98060
3984.37823	0.98121
3982.32442	0.98194
3980.27062	0.98230
3978.21682	0.98220
3976.16301	0.98164
3974.10921	0.98117
3972.05541	0.98160
3970.00160	0.98206
3967.94780	0.98203
3965.89400	0.98230
3963.84019	0.98264
3961.78639	0.98252
3959.73259	0.98235
3957.67878	0.98267
3955.62498	0.98326
3953.57118	0.98317
3951.51737	0.98240
3949.46357	0.98189
3947.40977	0.98201
3945.35596	0.98229
3943.30216	0.98220
3941.24836	0.98183
3939.19455	0.98163
3937.14075	0.98172
3935.08695	0.98213
3933.03315	0.98273
3930.97934	0.98308
3928.92554	0.98322
3926.87174	0.98327
3924.81793	0.98290
3922.76413	0.98235
3920.71033	0.98183
3918.65652	0.98125
3916.60272	0.98127
3914.54892	0.98191
3912.49511	0.98212
3910.44131	0.98197
3908.38751	0.98235
3906.33370	0.98329
3904.27990	0.98397
3902.22610	0.98365
3900.17229	0.98294
3898.11849	0.98290
3896.06469	0.98328
3894.01088	0.98356
3891.95708	0.98335
3889.90328	0.98280
3887.84947	0.98264
3885.79567	0.98256
3883.74187	0.98241
3881.68807	0.98274
3879.63426	0.98299
3877.58046	0.98288
3875.52666	0.98283
3873.47285	0.98243
3871.41905	0.98177
3869.36525	0.98195
3867.31144	0.98306
3865.25764	0.98381
3863.20384	0.98379
3861.15003	0.98383
3859.09623	0.98395
3857.04243	0.98349
3854.98862	0.98292
3852.93482	0.98332
3850.88102	0.98376
3848.82721	0.98368
3846.77341	0.98367
3844.71961	0.98379
3842.66580	0.98379
3840.61200	0.98357
3838.55820	0.98323
3836.50439	0.98328
3834.45059	0.98338
3832.39679	0.98337
3830.34298	0.98358
3828.28918	0.98380
3826.23538	0.98393
3824.18158	0.98393
3822.12777	0.98391
3820.07397	0.98446
3818.02017	0.98526
3815.96636	0.98502
3813.91256	0.98406
3811.85876	0.98375
3809.80495	0.98381
3807.75115	0.98381
3805.69735	0.98397
3803.64354	0.98431
3801.58974	0.98422
3799.53594	0.98414
3797.48213	0.98463
3795.42833	0.98455
3793.37453	0.98387
3791.32072	0.98345
3789.26692	0.98322
3787.21312	0.98316
3785.15931	0.98353
3783.10551	0.98415
3781.05171	0.98453
3778.99790	0.98428
3776.94410	0.98386
3774.89030	0.98363
3772.83650	0.98343
3770.78269	0.98334
3768.72889	0.98332
3766.67509	0.98333
3764.62128	0.98346
3762.56748	0.98361
3760.51368	0.98403
3758.45987	0.98481
3756.40607	0.98518
3754.35227	0.98530
3752.29846	0.98557
3750.24466	0.98578
3748.19086	0.98624
3746.13705	0.98679
3744.08325	0.98686
3742.02945	0.98684
3739.97564	0.98708
3737.92184	0.98679
3735.86804	0.98569
3733.81423	0.98522
3731.76043	0.98513
3729.70663	0.98448
3727.65282	0.98380
3725.59902	0.98336
3723.54522	0.98288
3721.49141	0.98286
3719.43761	0.98366
3717.38381	0.98453
3715.33001	0.98486
3713.27620	0.98460
3711.22240	0.98431
3709.16860	0.98423
3707.11479	0.98396
3705.06099	0.98350
3703.00719	0.98302
3700.95338	0.98275
3698.89958	0.98276
3696.84578	0.98296
3694.79197	0.98333
3692.73817	0.98346
3690.68437	0.98287
3688.63056	0.98226
3686.57676	0.98236
3684.52296	0.98275
3682.46915	0.98292
3680.41535	0.98266
3678.36155	0.98222
3676.30774	0.98189
3674.25394	0.98148
3672.20014	0.98064
3670.14633	0.97975
3668.09253	0.97957
3666.03873	0.97929
3663.98492	0.97847
3661.93112	0.97799
3659.87732	0.97799
3657.82352	0.97821
3655.76971	0.97849
3653.71591	0.97810
3651.66211	0.97689
3649.60830	0.97522
3647.55450	0.97383
3645.50070	0.97354
3643.44689	0.97339
3641.39309	0.97265
3639.33929	0.97173
3637.28548	0.97078
3635.23168	0.96999
3633.17788	0.96953
3631.12407	0.96892
3629.07027	0.96707
3627.01647	0.96468
3624.96266	0.96357
3622.90886	0.96327
3620.85506	0.96335
3618.80125	0.96310
3616.74745	0.96239
3614.69365	0.96169
3612.63984	0.96118
3610.58604	0.96083
3608.53224	0.96012
3606.47844	0.95918
3604.42463	0.95821
3602.37083	0.95680
3600.31703	0.95523
3598.26322	0.95404
3596.20942	0.95306
3594.15562	0.95246
3592.10181	0.95258
3590.04801	0.95288
3587.99421	0.95223
3585.94040	0.95020
3583.88660	0.94835
3581.83280	0.94768
3579.77899	0.94787
3577.72519	0.94773
3575.67139	0.94654
3573.61758	0.94504
3571.56378	0.94433
3569.50998	0.94433
3567.45617	0.94366
3565.40237	0.94145
3563.34857	0.93954
3561.29476	0.93869
3559.24096	0.93852
3557.18716	0.93866
3555.13335	0.93855
3553.07955	0.93781
3551.02575	0.93678
3548.97195	0.93603
3546.91814	0.93527
3544.86434	0.93406
3542.81054	0.93294
3540.75673	0.93220
3538.70293	0.93148
3536.64913	0.93093
3534.59532	0.93075
3532.54152	0.93045
3530.48772	0.92974
3528.43391	0.92883
3526.38011	0.92795
3524.32631	0.92708
3522.27250	0.92613
3520.21870	0.92510
3518.16490	0.92397
3516.11109	0.92272
3514.05729	0.92175
3512.00349	0.92141
3509.94968	0.92123
3507.89588	0.92087
3505.84208	0.92069
3503.78827	0.92012
3501.73447	0.91875
3499.68067	0.91770
3497.62687	0.91743
3495.57306	0.91719
3493.51926	0.91615
3491.46546	0.91484
3489.41165	0.91433
3487.35785	0.91440
3485.30405	0.91400
3483.25024	0.91275
3481.19644	0.91139
3479.14264	0.91075
3477.08883	0.91051
3475.03503	0.90979
3472.98123	0.90867
3470.92742	0.90792
3468.87362	0.90765
3466.81982	0.90757
3464.76601	0.90724
3462.71221	0.90640
3460.65841	0.90539
3458.60460	0.90442
3456.55080	0.90368
3454.49700	0.90338
3452.44319	0.90318
3450.38939	0.90276
3448.33559	0.90209
3446.28178	0.90111
3444.22798	0.90024
3442.17418	0.89952
3440.12038	0.89866
3438.06657	0.89787
3436.01277	0.89737
3433.95897	0.89693
3431.90516	0.89622
3429.85136	0.89546
3427.79756	0.89510
3425.74375	0.89504
3423.68995	0.89469
3421.63615	0.89392
3419.58234	0.89284
3417.52854	0.89158
3415.47474	0.89100
3413.42093	0.89126
3411.36713	0.89152
3409.31333	0.89124
3407.25952	0.89052
3405.20572	0.88980
3403.15192	0.88911
3401.09811	0.88846
3399.04431	0.88817
3396.99051	0.88817
3394.93670	0.88810
3392.88290	0.88769
3390.82910	0.88710
3388.77529	0.88650
3386.72149	0.88568
3384.66769	0.88486
3382.61389	0.88459
3380.56008	0.88455
3378.50628	0.88427
3376.45248	0.88381
3374.39867	0.88324
3372.34487	0.88272
3370.29107	0.88254
3368.23726	0.88276
3366.18346	0.88305
3364.12966	0.88309
3362.07585	0.88310
3360.02205	0.88306
3357.96825	0.88257
3355.91444	0.88190
3353.86064	0.88149
3351.80684	0.88100
3349.75303	0.88021
3347.69923	0.87979
3345.64543	0.88002
3343.59162	0.88024
3341.53782	0.88039
3339.48402	0.88039
3337.43021	0.87995
3335.37641	0.87950
3333.32261	0.87951
3331.26881	0.87969
3329.21500	0.87934
3327.16120	0.87893
3325.10740	0.87894
3323.05359	0.87888
3320.99979	0.87872
3318.94599	0.87881
3316.89218	0.87892
3314.83838	0.87881
3312.78458	0.87878
3310.73077	0.87857
3308.67697	0.87784
3306.62317	0.87758
3304.56936	0.87818
3302.51556	0.87839
3300.46176	0.87768
3298.40795	0.87688
3296.35415	0.87658
3294.30035	0.87648
3292.24654	0.87647
3290.19274	0.87664
3288.13894	0.87647
3286.08513	0.87587
3284.03133	0.87548
3281.97753	0.87541
3279.92372	0.87537
3277.86992	0.87509
3275.81612	0.87463
3273.76232	0.87457
3271.70851	0.87480
3269.65471	0.87480
3267.60091	0.87479
3265.54710	0.87514
3263.49330	0.87580
3261.43950	0.87624
3259.38569	0.87606
3257.33189	0.87579
3255.27809	0.87604
3253.22428	0.87655
3251.17048	0.87665
3249.11668	0.87655
3247.06287	0.87691
3245.00907	0.87721
3242.95527	0.87699
3240.90146	0.87678
3238.84766	0.87697
3236.79386	0.87728
3234.74005	0.87748
3232.68625	0.87782
3230.63245	0.87853
3228.57864	0.87941
3226.52484	0.87993
3224.47104	0.87988
3222.41724	0.87964
3220.36343	0.87968
3218.30963	0.88014
3216.25583	0.88074
3214.20202	0.88089
3212.14822	0.88065
3210.09442	0.88059
3208.04061	0.88111
3205.98681	0.88194
3203.93301	0.88228
3201.87920	0.88260
3199.82540	0.88347
3197.77160	0.88416
3195.71779	0.88449
3193.66399	0.88459
3191.61019	0.88455
3189.55638	0.88489
3187.50258	0.88553
3185.44878	0.88616
3183.39497	0.88683
3181.34117	0.88749
3179.28737	0.88809
3177.23356	0.88853
3175.17976	0.88874
3173.12596	0.88899
3171.07215	0.88943
3169.01835	0.88997
3166.96455	0.89080
3164.91075	0.89176
3162.85694	0.89234
3160.80314	0.89245
3158.74934	0.89253
3156.69553	0.89290
3154.64173	0.89307
3152.58793	0.89314
3150.53412	0.89391
3148.48032	0.89516
3146.42652	0.89624
3144.37271	0.89683
3142.31891	0.89702
3140.26511	0.89739
3138.21130	0.89819
3136.15750	0.89878
3134.10370	0.89905
3132.04989	0.89957
3129.99609	0.90006
3127.94229	0.90034
3125.88848	0.90080
3123.83468	0.90126
3121.78088	0.90134
3119.72707	0.90132
3117.67327	0.90161
3115.61947	0.90212
3113.56566	0.90279
3111.51186	0.90357
3109.45806	0.90396
3107.40426	0.90398
3105.35045	0.90416
3103.29665	0.90424
3101.24285	0.90430
3099.18904	0.90495
3097.13524	0.90579
3095.08144	0.90625
3093.02763	0.90654
3090.97383	0.90690
3088.92003	0.90728
3086.86622	0.90775
3084.81242	0.90842
3082.75862	0.90896
3080.70481	0.90911
3078.65101	0.90919
3076.59721	0.90938
3074.54340	0.90978
3072.48960	0.91046
3070.43580	0.91105
3068.38199	0.91149
3066.32819	0.91205
3064.27439	0.91263
3062.22058	0.91289
3060.16678	0.91305
3058.11298	0.91356
3056.05918	0.91434
3054.00537	0.91477
3051.95157	0.91476
3049.89777	0.91497
3047.84396	0.91564
3045.79016	0.91651
3043.73636	0.91725
3041.68255	0.91763
3039.62875	0.91798
3037.57495	0.91845
3035.52114	0.91890
3033.46734	0.91939
3031.41354	0.92010
3029.35973	0.92092
3027.30593	0.92150
3025.25213	0.92185
3023.19832	0.92249
3021.14452	0.92327
3019.09072	0.92367
3017.03691	0.92372
3014.98311	0.92397
3012.92931	0.92461
3010.87550	0.92526
3008.82170	0.92563
3006.76790	0.92572
3004.71409	0.92588
3002.66029	0.92630
3000.60649	0.92676
2998.55269	0.92700
2996.49888	0.92701
2994.44508	0.92710
2992.39128	0.92755
2990.33747	0.92816
2988.28367	0.92830
2986.22987	0.92799
2984.17606	0.92774
2982.12226	0.92750
2980.06846	0.92695
2978.01465	0.92651
2975.96085	0.92656
2973.90705	0.92672
2971.85324	0.92649
2969.79944	0.92591
2967.74564	0.92545
2965.69183	0.92522
2963.63803	0.92509
2961.58423	0.92507
2959.53042	0.92516
2957.47662	0.92534
2955.42282	0.92537
2953.36901	0.92521
2951.31521	0.92520
2949.26141	0.92545
2947.20761	0.92580
2945.15380	0.92586
2943.10000	0.92540
2941.04620	0.92481
2938.99239	0.92464
2936.93859	0.92471
2934.88479	0.92443
2932.83098	0.92388
2930.77718	0.92371
2928.72338	0.92412
2926.66957	0.92435
2924.61577	0.92409
2922.56197	0.92405
2920.50816	0.92458
2918.45436	0.92514
2916.40056	0.92565
2914.34675	0.92664
2912.29295	0.92784
2910.23915	0.92862
2908.18534	0.92926
2906.13154	0.93009
2904.07774	0.93103
2902.02393	0.93179
2899.97013	0.93245
2897.91633	0.93303
2895.86252	0.93341
2893.80872	0.93393
2891.75492	0.93456
2889.70112	0.93495
2887.64731	0.93531
2885.59351	0.93566
2883.53971	0.93585
2881.48590	0.93589
2879.43210	0.93581
2877.37830	0.93563
2875.32449	0.93545
2873.27069	0.93552
2871.21689	0.93596
2869.16308	0.93652
2867.10928	0.93719
2865.05548	0.93810
2863.00167	0.93877
2860.94787	0.93896
2858.89407	0.93895
2856.84026	0.93882
2854.78646	0.93875
2852.73266	0.93886
2850.67885	0.93897
2848.62505	0.93930
2846.57125	0.94022
2844.51744	0.94154
2842.46364	0.94273
2840.40984	0.94343
2838.35603	0.94384
2836.30223	0.94456
2834.24843	0.94558
2832.19463	0.94633
2830.14082	0.94670
2828.08702	0.94676
2826.03322	0.94662
2823.97941	0.94671
2821.92561	0.94706
2819.87181	0.94733
2817.81800	0.94787
2815.76420	0.94885
2813.71040	0.94940
2811.65659	0.94937
2809.60279	0.94941
2807.54899	0.94963
2805.49518	0.95003
2803.44138	0.95055
2801.38758	0.95084
2799.33377	0.95089
2797.27997	0.95110
2795.22617	0.95145
2793.17236	0.95178
2791.11856	0.95207
2789.06476	0.95230
2787.01095	0.95270
2784.95715	0.95332
2782.90335	0.95344
2780.84955	0.95290
2778.79574	0.95272
2776.74194	0.95327
2774.68814	0.95403
2772.63433	0.95446
2770.58053	0.95444
2768.52673	0.95436
2766.47292	0.95451
2764.41912	0.95487
2762.36532	0.95518
2760.31151	0.95552
2758.25771	0.95592
2756.20391	0.95612
2754.15010	0.95624
2752.09630	0.95644
2750.04250	0.95649
2747.98869	0.95639
2745.93489	0.95644
2743.88109	0.95658
2741.82728	0.95668
2739.77348	0.95695
2737.71968	0.95733
2735.66587	0.95729
2733.61207	0.95693
2731.55827	0.95685
2729.50446	0.95714
2727.45066	0.95749
2725.39686	0.95761
2723.34306	0.95778
2721.28925	0.95820
2719.23545	0.95864
2717.18165	0.95903
2715.12784	0.95923
2713.07404	0.95909
2711.02024	0.95908
2708.96643	0.95936
2706.91263	0.95950
2704.85883	0.95955
2702.80502	0.95963
2700.75122	0.95962
2698.69742	0.95984
2696.64361	0.96025
2694.58981	0.96040
2692.53601	0.96037
2690.48220	0.96056
2688.42840	0.96095
2686.37460	0.96135
2684.32079	0.96151
2682.26699	0.96140
2680.21319	0.96137
2678.15938	0.96152
2676.10558	0.96179
2674.05178	0.96220
2671.99797	0.96238
2669.94417	0.96226
2667.89037	0.96237
2665.83657	0.96249
2663.78276	0.96209
2661.72896	0.96170
2659.67516	0.96175
2657.62135	0.96187
2655.56755	0.96206
2653.51375	0.96262
2651.45994	0.96323
2649.40614	0.96338
2647.35234	0.96313
2645.29853	0.96281
2643.24473	0.96271
2641.19093	0.96290
2639.13712	0.96318
2637.08332	0.96335
2635.02952	0.96331
2632.97571	0.96316
2630.92191	0.96330
2628.86811	0.96382
2626.81430	0.96444
2624.76050	0.96505
2622.70670	0.96542
2620.65289	0.96540
2618.59909	0.96538
2616.54529	0.96552
2614.49149	0.96560
2612.43768	0.96577
2610.38388	0.96602
2608.33008	0.96628
2606.27627	0.96670
2604.22247	0.96716
2602.16867	0.96711
2600.11486	0.96675
2598.06106	0.96690
2596.00726	0.96727
2593.95345	0.96735
2591.89965	0.96754
2589.84585	0.96804
2587.79204	0.96833
2585.73824	0.96828
2583.68444	0.96830
2581.63063	0.96842
2579.57683	0.96859
2577.52303	0.96879
2575.46922	0.96900
2573.41542	0.96898
2571.36162	0.96864
2569.30781	0.96845
2567.25401	0.96845
2565.20021	0.96816
2563.14640	0.96782
2561.09260	0.96780
2559.03880	0.96795
2556.98500	0.96818
2554.93119	0.96865
2552.87739	0.96942
2550.82359	0.96996
2548.76978	0.96954
2546.71598	0.96866
2544.66218	0.96836
2542.60837	0.96854
2540.55457	0.96892
2538.50077	0.96933
2536.44696	0.96954
2534.39316	0.96983
2532.33936	0.97027
2530.28555	0.97073
2528.23175	0.97114
2526.17795	0.97137
2524.12414	0.97128
2522.07034	0.97097
2520.01654	0.97086
2517.96273	0.97094
2515.90893	0.97145
2513.85513	0.97253
2511.80132	0.97287
2509.74752	0.97222
2507.69372	0.97191
2505.63992	0.97194
2503.58611	0.97170
2501.53231	0.97161
2499.47851	0.97159
2497.42470	0.97133
2495.37090	0.97140
2493.31710	0.97222
2491.26329	0.97289
2489.20949	0.97255
2487.15569	0.97150
2485.10188	0.97074
2483.04808	0.97086
2480.99428	0.97144
2478.94047	0.97206
2476.88667	0.97248
2474.83287	0.97280
2472.77906	0.97312
2470.72526	0.97306
2468.67146	0.97286
2466.61765	0.97307
2464.56385	0.97358
2462.51005	0.97374
2460.45624	0.97340
2458.40244	0.97288
2456.34864	0.97255
2454.29483	0.97235
2452.24103	0.97207
2450.18723	0.97229
2448.13343	0.97296
2446.07962	0.97328
2444.02582	0.97325
2441.97202	0.97315
2439.91821	0.97348
2437.86441	0.97413
2435.81061	0.97401
2433.75680	0.97338
2431.70300	0.97360
2429.64920	0.97471
2427.59539	0.97531
2425.54159	0.97434
2423.48779	0.97303
2421.43398	0.97300
2419.38018	0.97350
2417.32638	0.97341
2415.27257	0.97315
2413.21877	0.97299
2411.16497	0.97295
2409.11116	0.97332
2407.05736	0.97412
2405.00356	0.97494
2402.94975	0.97516
2400.89595	0.97471
2398.84215	0.97437
2396.78834	0.97448
2394.73454	0.97441
2392.68074	0.97402
2390.62694	0.97385
2388.57313	0.97403
2386.51933	0.97419
2384.46553	0.97444
2382.41172	0.97489
2380.35792	0.97504
2378.30412	0.97468
2376.25031	0.97425
2374.19651	0.97409
2372.14271	0.97401
2370.08890	0.97399
2368.03510	0.97408
2365.98130	0.97375
2363.92749	0.97297
2361.87369	0.97262
2359.81989	0.97312
2357.76608	0.97389
2355.71228	0.97442
2353.65848	0.97428
2351.60467	0.97377
2349.55087	0.97366
2347.49707	0.97387
2345.44326	0.97378
2343.38946	0.97296
2341.33566	0.97222
2339.28186	0.97174
2337.22805	0.97134
2335.17425	0.97206
2333.12045	0.97347
2331.06664	0.97371
2329.01284	0.97282
2326.95904	0.97187
2324.90523	0.97103
2322.85143	0.97082
2320.79763	0.97163
2318.74382	0.97251
2316.69002	0.97261
2314.63622	0.97238
2312.58241	0.97278
2310.52861	0.97393
2308.47481	0.97477
2306.42100	0.97484
2304.36720	0.97428
2302.31340	0.97337
2300.25959	0.97307
2298.20579	0.97357
2296.15199	0.97375
2294.09818	0.97317
2292.04438	0.97267
2289.99058	0.97321
2287.93677	0.97412
2285.88297	0.97406
2283.82917	0.97341
2281.77537	0.97288
2279.72156	0.97259
2277.66776	0.97263
2275.61396	0.97276
2273.56015	0.97297
2271.50635	0.97279
2269.45255	0.97237
2267.39874	0.97332
2265.34494	0.97545
2263.29114	0.97688
2261.23733	0.97688
2259.18353	0.97631
2257.12973	0.97554
2255.07592	0.97444
2253.02212	0.97387
2250.96832	0.97398
2248.91451	0.97377
2246.86071	0.97334
2244.80691	0.97360
2242.75310	0.97425
2240.69930	0.97427
2238.64550	0.97381
2236.59169	0.97356
2234.53789	0.97313
2232.48409	0.97286
2230.43029	0.97409
2228.37648	0.97600
2226.32268	0.97714
2224.26888	0.97710
2222.21507	0.97600
2220.16127	0.97477
2218.10747	0.97453
2216.05366	0.97539
2213.99986	0.97531
2211.94606	0.97428
2209.89225	0.97410
2207.83845	0.97439
2205.78465	0.97517
2203.73084	0.97659
2201.67704	0.97810
2199.62324	0.97867
2197.56943	0.97767
2195.51563	0.97589
2193.46183	0.97462
2191.40802	0.97495
2189.35422	0.97563
2187.30042	0.97532
2185.24661	0.97500
2183.19281	0.97467
2181.13901	0.97393
2179.08520	0.97479
2177.03140	0.97794
2174.97760	0.97938
2172.92380	0.97693
2170.86999	0.97457
2168.81619	0.97443
2166.76239	0.97525
2164.70858	0.97732
2162.65478	0.97871
2160.60098	0.97750
2158.54717	0.97866
2156.49337	0.98270
2154.43957	0.98422
2152.38576	0.98355
2150.33196	0.98309
2148.27816	0.98282
2146.22435	0.98151
2144.17055	0.98006
2142.11675	0.98021
2140.06294	0.98056
2138.00914	0.97956
2135.95534	0.97864
2133.90153	0.97826
2131.84773	0.97780
2129.79393	0.97805
2127.74012	0.97915
2125.68632	0.98011
2123.63252	0.97974
2121.57871	0.97842
2119.52491	0.97764
2117.47111	0.97724
2115.41731	0.97681
2113.36350	0.97689
2111.30970	0.97719
2109.25590	0.97694
2107.20209	0.97606
2105.14829	0.97552
2103.09449	0.97576
2101.04068	0.97581
2098.98688	0.97590
2096.93308	0.97712
2094.87927	0.97878
2092.82547	0.97976
2090.77167	0.97946
2088.71786	0.97803
2086.66406	0.97672
2084.61026	0.97619
2082.55645	0.97587
2080.50265	0.97587
2078.44885	0.97705
2076.39504	0.97866
2074.34124	0.97879
2072.28744	0.97804
2070.23363	0.97854
2068.17983	0.97938
2066.12603	0.97847
2064.07223	0.97701
2062.01842	0.97666
2059.96462	0.97686
2057.91082	0.97797
2055.85701	0.97988
2053.80321	0.98058
2051.74941	0.97944
2049.69560	0.97750
2047.64180	0.97616
2045.58800	0.97615
2043.53419	0.97842
2041.48039	0.98231
2039.42659	0.98445
2037.37278	0.98397
2035.31898	0.98299
2033.26518	0.98267
2031.21137	0.98081
2029.15757	0.97786
2027.10377	0.97780
2025.04996	0.97947
2022.99616	0.98097
2020.94236	0.98287
2018.88855	0.98354
2016.83475	0.98214
2014.78095	0.98031
2012.72714	0.97983
2010.67334	0.97982
2008.61954	0.97962
2006.56574	0.98142
2004.51193	0.98428
2002.45813	0.98554
2000.40433	0.98551
1998.35052	0.98506
1996.29672	0.98329
1994.24292	0.98038
1992.18911	0.97881
1990.13531	0.97915
1988.08151	0.98067
1986.02770	0.98273
1983.97390	0.98341
1981.92010	0.98197
1979.86629	0.98140
1977.81249	0.98265
1975.75869	0.98215
1973.70488	0.98111
1971.65108	0.98204
1969.59728	0.98256
1967.54347	0.98101
1965.48967	0.97951
1963.43587	0.98100
1961.38206	0.98378
1959.32826	0.98465
1957.27446	0.98411
1955.22066	0.98412
1953.16685	0.98466
1951.11305	0.98417
1949.05925	0.98324
1947.00544	0.98308
1944.95164	0.98239
1942.89784	0.98147
1940.84403	0.98239
1938.79023	0.98353
1936.73643	0.98308
1934.68262	0.98291
1932.62882	0.98339
1930.57502	0.98321
1928.52121	0.98289
1926.46741	0.98291
1924.41361	0.98314
1922.35980	0.98366
1920.30600	0.98413
1918.25220	0.98360
1916.19839	0.98231
1914.14459	0.98240
1912.09079	0.98411
1910.03698	0.98541
1907.98318	0.98525
1905.92938	0.98419
1903.87557	0.98313
1901.82177	0.98276
1899.76797	0.98279
1897.71417	0.98255
1895.66036	0.98218
1893.60656	0.98238
1891.55276	0.98301
1889.49895	0.98346
1887.44515	0.98372
1885.39135	0.98365
1883.33754	0.98340
1881.28374	0.98347
1879.22994	0.98358
1877.17613	0.98348
1875.12233	0.98351
1873.06853	0.98334
1871.01472	0.98285
1868.96092	0.98300
1866.90712	0.98365
1864.85331	0.98369
1862.79951	0.98350
1860.74571	0.98354
1858.69190	0.98365
1856.63810	0.98379
1854.58430	0.98395
1852.53049	0.98406
1850.47669	0.98415
1848.42289	0.98433
1846.36908	0.98448
1844.31528	0.98413
1842.26148	0.98380
1840.20768	0.98395
1838.15387	0.98413
1836.10007	0.98435
1834.04627	0.98451
1831.99246	0.98423
1829.93866	0.98366
1827.88486	0.98336
1825.83105	0.98342
1823.77725	0.98350
1821.72345	0.98359
1819.66964	0.98373
1817.61584	0.98392
1815.56204	0.98383
1813.50823	0.98346
1811.45443	0.98349
1809.40063	0.98371
1807.34682	0.98375
1805.29302	0.98388
1803.23922	0.98383
1801.18541	0.98336
1799.13161	0.98295
1797.07781	0.98256
1795.02400	0.98226
1792.97020	0.98246
1790.91640	0.98250
1788.86260	0.98174
1786.80879	0.98079
1784.75499	0.98041
1782.70119	0.98067
1780.64738	0.98091
1778.59358	0.98073
1776.53978	0.98056
1774.48597	0.98042
1772.43217	0.97958
1770.37837	0.97858
1768.32456	0.97804
1766.27076	0.97751
1764.21696	0.97730
1762.16315	0.97743
1760.10935	0.97690
1758.05555	0.97574
1756.00174	0.97481
1753.94794	0.97441
1751.89414	0.97416
1749.84033	0.97383
1747.78653	0.97331
1745.73273	0.97264
1743.67892	0.97206
1741.62512	0.97134
1739.57132	0.97036
1737.51751	0.96948
1735.46371	0.96851
1733.40991	0.96692
1731.35611	0.96537
1729.30230	0.96411
1727.24850	0.96322
1725.19470	0.96258
1723.14089	0.96160
1721.08709	0.96045
1719.03329	0.95913
1716.97948	0.95740
1714.92568	0.95582
1712.87188	0.95433
1710.81807	0.95245
1708.76427	0.95058
1706.71047	0.94864
1704.65666	0.94650
1702.60286	0.94461
1700.54906	0.94181
1698.49525	0.93843
1696.44145	0.93514
1694.38765	0.93099
1692.33384	0.92789
1690.28004	0.92517
1688.22624	0.92224
1686.17243	0.91946
1684.11863	0.91483
1682.06483	0.91013
1680.01103	0.90741
1677.95722	0.90504
1675.90342	0.90201
1673.84962	0.89867
1671.79581	0.89594
1669.74201	0.89196
1667.68821	0.88745
1665.63440	0.88478
1663.58060	0.88215
1661.52680	0.87856
1659.47299	0.87579
1657.41919	0.87460
1655.36539	0.87401
1653.31158	0.87022
1651.25778	0.86525
1649.20398	0.86360
1647.15017	0.86079
1645.09637	0.85713
1643.04257	0.85532
1640.98876	0.85382
1638.93496	0.85198
1636.88116	0.84867
1634.82735	0.84321
1632.77355	0.83985
1630.71975	0.83797
1628.66594	0.83570
1626.61214	0.83397
1624.55834	0.83299
1622.50454	0.83178
1620.45073	0.83146
1618.39693	0.83163
1616.34313	0.83049
1614.28932	0.82976
1612.23552	0.83013
1610.18172	0.83023
1608.12791	0.82989
1606.07411	0.82945
1604.02031	0.82885
1601.96650	0.82806
1599.91270	0.82747
1597.85890	0.82725
1595.80509	0.82676
1593.75129	0.82575
1591.69749	0.82476
1589.64368	0.82408
1587.58988	0.82370
1585.53608	0.82339
1583.48227	0.82296
1581.42847	0.82272
1579.37467	0.82302
1577.32086	0.82290
1575.26706	0.82149
1573.21326	0.82123
1571.15945	0.82176
1569.10565	0.82104
1567.05185	0.82003
1564.99805	0.81999
1562.94424	0.82105
1560.89044	0.82243
1558.83664	0.82076
1556.78283	0.81905
1554.72903	0.82007
1552.67523	0.82090
1550.62142	0.82113
1548.56762	0.82132
1546.51382	0.82245
1544.46001	0.82417
1542.40621	0.82521
1540.35241	0.82512
1538.29860	0.82598
1536.24480	0.82828
1534.19100	0.83033
1532.13719	0.83175
1530.08339	0.83365
1528.02959	0.83594
1525.97578	0.83813
1523.92198	0.84018
1521.86818	0.84173
1519.81437	0.84300
1517.76057	0.84442
1515.70677	0.84596
1513.65297	0.84814
1511.59916	0.85094
1509.54536	0.85370
1507.49156	0.85548
1505.43775	0.85680
1503.38395	0.85945
1501.33015	0.86232
1499.27634	0.86456
1497.22254	0.86620
1495.16874	0.86798
1493.11493	0.87029
1491.06113	0.87247
1489.00733	0.87371
1486.95352	0.87448
1484.89972	0.87537
1482.84592	0.87601
1480.79211	0.87633
1478.73831	0.87665
1476.68451	0.87678
1474.63070	0.87594
1472.57690	0.87379
1470.52310	0.87218
1468.46929	0.87198
1466.41549	0.87174
1464.36169	0.87059
1462.30788	0.86956
1460.25408	0.86932
1458.20028	0.86844
1456.14648	0.86586
1454.09267	0.86423
1452.03887	0.86360
1449.98507	0.86295
1447.93126	0.86165
1445.87746	0.86007
1443.82366	0.85909
1441.76985	0.85848
1439.71605	0.85804
1437.66225	0.85697
1435.60844	0.85491
1433.55464	0.85387
1431.50084	0.85351
1429.44703	0.85256
1427.39323	0.85130
1425.33943	0.85003
1423.28562	0.84887
1421.23182	0.84818
1419.17802	0.84701
1417.12421	0.84523
1415.07041	0.84445
1413.01661	0.84421
1410.96280	0.84359
1408.90900	0.84267
1406.85520	0.84188
1404.80139	0.84107
1402.74759	0.84055
1400.69379	0.84029
1398.63999	0.83982
1396.58618	0.83924
1394.53238	0.83836
1392.47858	0.83783
1390.42477	0.83822
1388.37097	0.83848
1386.31717	0.83800
1384.26336	0.83762
1382.20956	0.83775
1380.15576	0.83809
1378.10195	0.83854
1376.04815	0.83919
1373.99435	0.84001
1371.94054	0.84103
1369.88674	0.84210
1367.83294	0.84312
1365.77913	0.84443
1363.72533	0.84592
1361.67153	0.84723
1359.61772	0.84882
1357.56392	0.85071
1355.51012	0.85233
1353.45631	0.85369
1351.40251	0.85498
1349.34871	0.85622
1347.29491	0.85738
1345.24110	0.85855
1343.18730	0.86001
1341.13350	0.86145
1339.07969	0.86234
1337.02589	0.86296
1334.97209	0.86365
1332.91828	0.86447
1330.86448	0.86522
1328.81068	0.86586
1326.75687	0.86674
1324.70307	0.86761
1322.64927	0.86786
1320.59546	0.86751
1318.54166	0.86722
1316.48786	0.86766
1314.43405	0.86853
1312.38025	0.86927
1310.32645	0.86984
1308.27264	0.87014
1306.21884	0.87036
1304.16504	0.87078
1302.11123	0.87135
1300.05743	0.87209
1298.00363	0.87283
1295.94982	0.87335
1293.89602	0.87372
1291.84222	0.87389
1289.78842	0.87394
1287.73461	0.87400
1285.68081	0.87397
1283.62701	0.87387
1281.57320	0.87370
1279.51940	0.87341
1277.46560	0.87307
1275.41179	0.87283
1273.35799	0.87275
1271.30419	0.87262
1269.25038	0.87258
1267.19658	0.87286
1265.14278	0.87342
1263.08897	0.87389
1261.03517	0.87391
1258.98137	0.87379
1256.92756	0.87396
1254.87376	0.87426
1252.81996	0.87429
1250.76615	0.87427
1248.71235	0.87466
1246.65855	0.87510
1244.60474	0.87536
1242.55094	0.87561
1240.49714	0.87592
1238.44334	0.87622
1236.38953	0.87659
1234.33573	0.87703
1232.28193	0.87761
1230.22812	0.87844
1228.17432	0.87920
1226.12052	0.87982
1224.06671	0.88063
1222.01291	0.88145
1219.95911	0.88209
1217.90530	0.88285
1215.85150	0.88382
1213.79770	0.88483
1211.74389	0.88591
1209.69009	0.88678
1207.63629	0.88719
1205.58248	0.88750
1203.52868	0.88800
1201.47488	0.88849
1199.42107	0.88887
1197.36727	0.88945
1195.31347	0.89049
1193.25966	0.89158
1191.20586	0.89214
1189.15206	0.89252
1187.09825	0.89326
1185.04445	0.89415
1182.99065	0.89450
1180.93685	0.89397
1178.88304	0.89290
1176.82924	0.89203
1174.77544	0.89155
1172.72163	0.89085
1170.66783	0.88990
1168.61403	0.88900
1166.56022	0.88794
1164.50642	0.88676
1162.45262	0.88555
1160.39881	0.88444
1158.34501	0.88357
1156.29121	0.88293
1154.23740	0.88231
1152.18360	0.88143
1150.12980	0.88046
1148.07599	0.87961
1146.02219	0.87874
1143.96839	0.87790
1141.91458	0.87732
1139.86078	0.87690
1137.80698	0.87622
1135.75317	0.87534
1133.69937	0.87437
1131.64557	0.87293
1129.59176	0.87114
1127.53796	0.86937
1125.48416	0.86747
1123.43036	0.86522
1121.37655	0.86284
1119.32275	0.86043
1117.26895	0.85795
1115.21514	0.85547
1113.16134	0.85298
1111.10754	0.85041
1109.05373	0.84800
1106.99993	0.84601
1104.94613	0.84431
1102.89232	0.84259
1100.83852	0.84058
1098.78472	0.83863
1096.73091	0.83716
1094.67711	0.83615
1092.62331	0.83535
1090.56950	0.83453
1088.51570	0.83369
1086.46190	0.83256
1084.40809	0.83069
1082.35429	0.82866
1080.30049	0.82744
1078.24668	0.82667
1076.19288	0.82553
1074.13908	0.82416
1072.08528	0.82301
1070.03147	0.82193
1067.97767	0.82048
1065.92387	0.81860
1063.87006	0.81681
1061.81626	0.81543
1059.76246	0.81403
1057.70865	0.81221
1055.65485	0.81025
1053.60105	0.80861
1051.54724	0.80744
1049.49344	0.80612
1047.43964	0.80421
1045.38583	0.80218
1043.33203	0.80043
1041.27823	0.79882
1039.22442	0.79699
1037.17062	0.79485
1035.11682	0.79293
1033.06301	0.79187
1031.00921	0.79133
1028.95541	0.79080
1026.90160	0.79097
1024.84780	0.79230
1022.79400	0.79414
1020.74019	0.79597
1018.68639	0.79773
1016.63259	0.79968
1014.57879	0.80179
1012.52498	0.80395
1010.47118	0.80630
1008.41738	0.80904
1006.36357	0.81204
1004.30977	0.81505
1002.25597	0.81811
1000.20216	0.82115
998.14836	0.82412
996.09456	0.82719
994.04075	0.83011
991.98695	0.83262
989.93315	0.83520
987.87934	0.83829
985.82554	0.84154
983.77174	0.84455
981.71793	0.84739
979.66413	0.85039
977.61033	0.85332
975.55652	0.85582
973.50272	0.85822
971.44892	0.86064
969.39511	0.86298
967.34131	0.86505
965.28751	0.86661
963.23371	0.86802
961.17990	0.86961
959.12610	0.87105
957.07230	0.87231
955.01849	0.87387
952.96469	0.87562
950.91089	0.87730
948.85708	0.87912
946.80328	0.88103
944.74948	0.88273
942.69567	0.88413
940.64187	0.88520
938.58807	0.88605
936.53426	0.88668
934.48046	0.88740
932.42666	0.88857
930.37285	0.88963
928.31905	0.89024
926.26525	0.89091
924.21144	0.89155
922.15764	0.89193
920.10384	0.89237
918.05003	0.89287
915.99623	0.89316
913.94243	0.89310
911.88862	0.89295
909.83482	0.89312
907.78102	0.89351
905.72722	0.89372
903.67341	0.89388
901.61961	0.89437
899.56581	0.89468
897.51200	0.89429
895.45820	0.89376
893.40440	0.89378
891.35059	0.89443
889.29679	0.89505
887.24299	0.89464
885.18918	0.89395
883.13538	0.89396
881.08158	0.89389
879.02777	0.89353
876.97397	0.89328
874.92017	0.89299
872.86636	0.89313
870.81256	0.89375
868.75876	0.89356
866.70495	0.89255
864.65115	0.89211
862.59735	0.89240
860.54354	0.89258
858.48974	0.89224
856.43594	0.89155
854.38213	0.89085
852.32833	0.89025
850.27453	0.88981
848.22073	0.88927
846.16692	0.88814
844.11312	0.88673
842.05932	0.88517
840.00551	0.88349
837.95171	0.88225
835.89791	0.88164
833.84410	0.88142
831.79030	0.88076
829.73650	0.87935
827.68269	0.87818
825.62889	0.87753
823.57509	0.87664
821.52128	0.87530
819.46748	0.87406
817.41368	0.87328
815.35987	0.87272
813.30607	0.87191
811.25227	0.87106
809.19846	0.87049
807.14466	0.86968
805.09086	0.86883
803.03705	0.86794
800.98325	0.86623
798.92945	0.86448
796.87565	0.86383
794.82184	0.86387
792.76804	0.86354
790.71424	0.86274
788.66043	0.86188
786.60663	0.86085
784.55283	0.85976
782.49902	0.85886
780.44522	0.85802
778.39142	0.85705
776.33761	0.85586
774.28381	0.85523
772.23001	0.85560
770.17620	0.85601
768.12240	0.85577
766.06860	0.85488
764.01479	0.85396
761.96099	0.85360
759.90719	0.85356
757.85338	0.85319
755.79958	0.85208
753.74578	0.85077
751.69197	0.85012
749.63817	0.84994
747.58437	0.84937
745.53056	0.84837
743.47676	0.84755
741.42296	0.84698
739.36916	0.84636
737.31535	0.84552
735.26155	0.84452
733.20775	0.84372
731.15394	0.84314
729.10014	0.84248
727.04634	0.84191
724.99253	0.84135
722.93873	0.84051
720.88493	0.83933
718.83112	0.83779
716.77732	0.83648
714.72352	0.83580
712.66971	0.83517
710.61591	0.83459
708.56211	0.83427
706.50830	0.83345
704.45450	0.83222
702.40070	0.83131
700.34689	0.83050
698.29309	0.82958
696.23929	0.82834
694.18548	0.82684
692.13168	0.82584
690.07788	0.82533
688.02408	0.82458
685.97027	0.82419
683.91647	0.82495
681.86267	0.82536
679.80886	0.82406
677.75506	0.82217
675.70126	0.82114
673.64745	0.82057
671.59365	0.82005
669.53985	0.81978
667.48604	0.81961
665.43224	0.81924
663.37844	0.81807
661.32463	0.81642
659.27083	0.81522
657.21703	0.81386
655.16322	0.81197
653.10942	0.81076
651.05562	0.81061
649.00181	0.81018
646.94801	0.80856
644.89421	0.80763
642.84040	0.80868
640.78660	0.80938
638.73280	0.80925
636.67899	0.80941
634.62519	0.80932
632.57139	0.80889
630.51759	0.80869
628.46378	0.80844
626.40998	0.80638
624.35618	0.80299
622.30237	0.80124
620.24857	0.80074
618.19477	0.79850
616.14096	0.79473
614.08716	0.79218
612.03336	0.79120
609.97955	0.79004
607.92575	0.78788
605.87195	0.78533
603.81814	0.78300
601.76434	0.78089
599.71054	0.77960
597.65673	0.77999
595.60293	0.78129
593.54913	0.78247
591.49532	0.78366
589.44152	0.78410
587.38772	0.78262
585.33391	0.78108
583.28011	0.78109
581.22631	0.78043
579.17250	0.77826
577.11870	0.77643
575.06490	0.77491
573.01110	0.77300
570.95729	0.77108
568.90349	0.76975
566.84969	0.76901
564.79588	0.76773
562.74208	0.76549
560.68828	0.76419
558.63447	0.76513
556.58067	0.76655
554.52687	0.76607
552.47306	0.76416
550.41926	0.76398
548.36546	0.76588
546.31165	0.76605
544.25785	0.76429
542.20405	0.76342
540.15024	0.76389
538.09644	0.76465
536.04264	0.76580
533.98883	0.76691
531.93503	0.76599
529.88123	0.76463
527.82742	0.76470
525.77362	0.76450
523.71982	0.76375
521.66602	0.76327
519.61221	0.76366
517.55841	0.76440
515.50461	0.76374
513.45080	0.76272
511.39700	0.76215
509.34320	0.76158
507.28939	0.76236
505.23559	0.76416
503.18179	0.76428
501.12798	0.76356
499.07418	0.76438
497.02038	0.76560
494.96657	0.76558
492.91277	0.76452
490.85897	0.76340
488.80516	0.76322
486.75136	0.76324
484.69756	0.76265
482.64375	0.76241
480.58995	0.76081
478.53615	0.75746
476.48234	0.75589
474.42854	0.75491
472.37474	0.75250
470.32093	0.75118
468.26713	0.75125
466.21333	0.75229
464.15953	0.75536
462.10572	0.75909
460.05192	0.76110
457.99812	0.76124
455.94431	0.76086
453.89051	0.76047
451.83671	0.75841
449.78290	0.75575
447.72910	0.75527
445.67530	0.75683
443.62149	0.76032
441.56769	0.76405
439.51389	0.76423
437.46008	0.76134
435.40628	0.75707
433.35248	0.75274
431.29867	0.75066
429.24487	0.75095
427.19107	0.75369
425.13726	0.75980
423.08346	0.76672
421.02966	0.76955
418.97585	0.76233
416.92205	0.75421
414.86825	0.75488
412.81445	0.75570
410.76064	0.75371
408.70684	0.75166
406.65304	0.74991
404.59923	0.74990
402.54543	0.75324
400.49163	0.75884
398.43782	0.76328
