3996.70104	0.99687
3994.64724	0.99736
3992.59344	0.99815
3990.53964	0.99798
3988.48583	0.99733
3986.43203	0.99708
3984.37823	0.99688
3982.32442	0.99680
3980.27062	0.99686
3978.21682	0.99672
3976.16301	0.99676
3974.10921	0.99745
3972.05541	0.99816
3970.00160	0.99809
3967.94780	0.99763
3965.89400	0.99757
3963.84019	0.99769
3961.78639	0.99760
3959.73259	0.99751
3957.67878	0.99739
3955.62498	0.99713
3953.57118	0.99664
3951.51737	0.99621
3949.46357	0.99647
3947.40977	0.99702
3945.35596	0.99733
3943.30216	0.99759
3941.24836	0.99759
3939.19455	0.99746
3937.14075	0.99758
3935.08695	0.99771
3933.03315	0.99767
3930.97934	0.99744
3928.92554	0.99726
3926.87174	0.99727
3924.81793	0.99702
3922.76413	0.99701
3920.71033	0.99745
3918.65652	0.99741
3916.60272	0.99688
3914.54892	0.99662
3912.49511	0.99671
3910.44131	0.99677
3908.38751	0.99655
3906.33370	0.99657
3904.27990	0.99744
3902.22610	0.99827
3900.17229	0.99854
3898.11849	0.99824
3896.06469	0.99752
3894.01088	0.99754
3891.95708	0.99815
3889.90328	0.99856
3887.84947	0.99889
3885.79567	0.99900
3883.74187	0.99890
3881.68807	0.99860
3879.63426	0.99790
3877.58046	0.99755
3875.52666	0.99767
3873.47285	0.99771
3871.41905	0.99750
3869.36525	0.99738
3867.31144	0.99744
3865.25764	0.99733
3863.20384	0.99715
3861.15003	0.99707
3859.09623	0.99691
3857.04243	0.99677
3854.98862	0.99646
3852.93482	0.99642
3850.88102	0.99723
3848.82721	0.99741
3846.77341	0.99697
3844.71961	0.99642
3842.66580	0.99616
3840.61200	0.99683
3838.55820	0.99805
3836.50439	0.99835
3834.45059	0.99797
3832.39679	0.99775
3830.34298	0.99750
3828.28918	0.99733
3826.23538	0.99753
3824.18158	0.99744
3822.12777	0.99667
3820.07397	0.99600
3818.02017	0.99590
3815.96636	0.99658
3813.91256	0.99771
3811.85876	0.99797
3809.80495	0.99774
3807.75115	0.99789
3805.69735	0.99811
3803.64354	0.99801
3801.58974	0.99772
3799.53594	0.99744
3797.48213	0.99744
3795.42833	0.99736
3793.37453	0.99711
3791.32072	0.99690
3789.26692	0.99679
3787.21312	0.99719
3785.15931	0.99806
3783.10551	0.99857
3781.05171	0.99804
3778.99790	0.99698
3776.94410	0.99636
3774.89030	0.99615
3772.83650	0.99616
3770.78269	0.99625
3768.72889	0.99646
3766.67509	0.99717
3764.62128	0.99778
3762.56748	0.99757
3760.51368	0.99715
3758.45987	0.99717
3756.40607	0.99743
3754.35227	0.99747
3752.29846	0.99690
3750.24466	0.99578
3748.19086	0.99505
3746.13705	0.99528
3744.08325	0.99654
3742.02945	0.99750
3739.97564	0.99770
3737.92184	0.99756
3735.86804	0.99746
3733.81423	0.99762
3731.76043	0.99748
3729.70663	0.99771
3727.65282	0.99852
3725.59902	0.99882
3723.54522	0.99836
3721.49141	0.99765
3719.43761	0.99674
3717.38381	0.99595
3715.33001	0.99596
3713.27620	0.99645
3711.22240	0.99640
3709.16860	0.99622
3707.11479	0.99633
3705.06099	0.99622
3703.00719	0.99632
3700.95338	0.99689
3698.89958	0.99680
3696.84578	0.99581
3694.79197	0.99521
3692.73817	0.99531
3690.68437	0.99511
3688.63056	0.99558
3686.57676	0.99709
3684.52296	0.99744
3682.46915	0.99696
3680.41535	0.99703
3678.36155	0.99758
3676.30774	0.99780
3674.25394	0.99732
3672.20014	0.99686
3670.14633	0.99670
3668.09253	0.99634
3666.03873	0.99584
3663.98492	0.99564
3661.93112	0.99596
3659.87732	0.99660
3657.82352	0.99711
3655.76971	0.99738
3653.71591	0.99731
3651.66211	0.99738
3649.60830	0.99825
3647.55450	0.99810
3645.50070	0.99684
3643.44689	0.99640
3641.39309	0.99636
3639.33929	0.99590
3637.28548	0.99539
3635.23168	0.99535
3633.17788	0.99563
3631.12407	0.99612
3629.07027	0.99676
3627.01647	0.99636
3624.96266	0.99552
3622.90886	0.99555
3620.85506	0.99632
3618.80125	0.99650
3616.74745	0.99550
3614.69365	0.99462
3612.63984	0.99487
3610.58604	0.99573
3608.53224	0.99612
3606.47844	0.99605
3604.42463	0.99611
3602.37083	0.99610
3600.31703	0.99568
3598.26322	0.99578
3596.20942	0.99675
3594.15562	0.99736
3592.10181	0.99688
3590.04801	0.99577
3587.99421	0.99503
3585.94040	0.99510
3583.88660	0.99508
3581.83280	0.99509
3579.77899	0.99545
3577.72519	0.99533
3575.67139	0.99462
3573.61758	0.99458
3571.56378	0.99534
3569.50998	0.99554
3567.45617	0.99509
3565.40237	0.99551
3563.34857	0.99574
3561.29476	0.99491
3559.24096	0.99474
3557.18716	0.99569
3555.13335	0.99619
3553.07955	0.99575
3551.02575	0.99516
3548.97195	0.99497
3546.91814	0.99509
3544.86434	0.99531
3542.81054	0.99556
3540.75673	0.99570
3538.70293	0.99588
3536.64913	0.99592
3534.59532	0.99566
3532.54152	0.99575
3530.48772	0.99596
3528.43391	0.99583
3526.38011	0.99587
3524.32631	0.99559
3522.27250	0.99471
3520.21870	0.99449
3518.16490	0.99513
3516.11109	0.99578
3514.05729	0.99581
3512.00349	0.99506
3509.94968	0.99445
3507.89588	0.99487
3505.84208	0.99563
3503.78827	0.99584
3501.73447	0.99554
3499.68067	0.99536
3497.62687	0.99567
3495.57306	0.99596
3493.51926	0.99601
3491.46546	0.99599
3489.41165	0.99554
3487.35785	0.99475
3485.30405	0.99444
3483.25024	0.99482
3481.19644	0.99505
3479.14264	0.99474
3477.08883	0.99451
3475.03503	0.99459
3472.98123	0.99484
3470.92742	0.99516
3468.87362	0.99528
3466.81982	0.99510
3464.76601	0.99501
3462.71221	0.99499
3460.65841	0.99462
3458.60460	0.99411
3456.55080	0.99420
3454.49700	0.99473
3452.44319	0.99498
3450.38939	0.99516
3448.33559	0.99540
3446.28178	0.99536
3444.22798	0.99512
3442.17418	0.99485
3440.12038	0.99463
3438.06657	0.99423
3436.01277	0.99384
3433.95897	0.99389
3431.90516	0.99383
3429.85136	0.99339
3427.79756	0.99339
3425.74375	0.99370
3423.68995	0.99362
3421.63615	0.99373
3419.58234	0.99425
3417.52854	0.99447
3415.47474	0.99432
3413.42093	0.99444
3411.36713	0.99480
3409.31333	0.99460
3407.25952	0.99398
3405.20572	0.99388
3403.15192	0.99445
3401.09811	0.99479
3399.04431	0.99456
3396.99051	0.99442
3394.93670	0.99428
3392.88290	0.99399
3390.82910	0.99406
3388.77529	0.99456
3386.72149	0.99485
3384.66769	0.99461
3382.61389	0.99460
3380.56008	0.99497
3378.50628	0.99479
3376.45248	0.99432
3374.39867	0.99424
3372.34487	0.99415
3370.29107	0.99372
3368.23726	0.99345
3366.18346	0.99350
3364.12966	0.99338
3362.07585	0.99341
3360.02205	0.99407
3357.96825	0.99461
3355.91444	0.99448
3353.86064	0.99418
3351.80684	0.99425
3349.75303	0.99459
3347.69923	0.99500
3345.64543	0.99524
3343.59162	0.99514
3341.53782	0.99491
3339.48402	0.99460
3337.43021	0.99432
3335.37641	0.99437
3333.32261	0.99484
3331.26881	0.99539
3329.21500	0.99539
3327.16120	0.99516
3325.10740	0.99525
3323.05359	0.99541
3320.99979	0.99548
3318.94599	0.99525
3316.89218	0.99469
3314.83838	0.99459
3312.78458	0.99512
3310.73077	0.99544
3308.67697	0.99533
3306.62317	0.99487
3304.56936	0.99444
3302.51556	0.99455
3300.46176	0.99465
3298.40795	0.99433
3296.35415	0.99396
3294.30035	0.99378
3292.24654	0.99394
3290.19274	0.99443
3288.13894	0.99480
3286.08513	0.99472
3284.03133	0.99454
3281.97753	0.99478
3279.92372	0.99514
3277.86992	0.99499
3275.81612	0.99465
3273.76232	0.99466
3271.70851	0.99462
3269.65471	0.99428
3267.60091	0.99418
3265.54710	0.99432
3263.49330	0.99425
3261.43950	0.99429
3259.38569	0.99467
3257.33189	0.99472
3255.27809	0.99427
3253.22428	0.99405
3251.17048	0.99425
3249.11668	0.99444
3247.06287	0.99445
3245.00907	0.99440
3242.95527	0.99440
3240.90146	0.99463
3238.84766	0.99471
3236.79386	0.99426
3234.74005	0.99400
3232.68625	0.99433
3230.63245	0.99475
3228.57864	0.99470
3226.52484	0.99393
3224.47104	0.99360
3222.41724	0.99434
3220.36343	0.99468
3218.30963	0.99446
3216.25583	0.99467
3214.20202	0.99491
3212.14822	0.99457
3210.09442	0.99445
3208.04061	0.99504
3205.98681	0.99563
3203.93301	0.99578
3201.87920	0.99577
3199.82540	0.99558
3197.77160	0.99488
3195.71779	0.99412
3193.66399	0.99428
3191.61019	0.99524
3189.55638	0.99591
3187.50258	0.99599
3185.44878	0.99584
3183.39497	0.99572
3181.34117	0.99569
3179.28737	0.99560
3177.23356	0.99552
3175.17976	0.99569
3173.12596	0.99575
3171.07215	0.99533
3169.01835	0.99490
3166.96455	0.99492
3164.91075	0.99506
3162.85694	0.99497
3160.80314	0.99494
3158.74934	0.99523
3156.69553	0.99558
3154.64173	0.99571
3152.58793	0.99582
3150.53412	0.99598
3148.48032	0.99594
3146.42652	0.99579
3144.37271	0.99598
3142.31891	0.99655
3140.26511	0.99682
3138.21130	0.99665
3136.15750	0.99651
3134.10370	0.99620
3132.04989	0.99552
3129.99609	0.99517
3127.94229	0.99558
3125.88848	0.99589
3123.83468	0.99556
3121.78088	0.99521
3119.72707	0.99524
3117.67327	0.99534
3115.61947	0.99531
3113.56566	0.99543
3111.51186	0.99596
3109.45806	0.99652
3107.40426	0.99655
3105.35045	0.99598
3103.29665	0.99519
3101.24285	0.99492
3099.18904	0.99528
3097.13524	0.99563
3095.08144	0.99583
3093.02763	0.99571
3090.97383	0.99560
3088.92003	0.99567
3086.86622	0.99521
3084.81242	0.99469
3082.75862	0.99498
3080.70481	0.99550
3078.65101	0.99569
3076.59721	0.99585
3074.54340	0.99595
3072.48960	0.99595
3070.43580	0.99580
3068.38199	0.99550
3066.32819	0.99539
3064.27439	0.99539
3062.22058	0.99546
3060.16678	0.99565
3058.11298	0.99596
3056.05918	0.99625
3054.00537	0.99612
3051.95157	0.99577
3049.89777	0.99574
3047.84396	0.99608
3045.79016	0.99645
3043.73636	0.99628
3041.68255	0.99559
3039.62875	0.99533
3037.57495	0.99567
3035.52114	0.99573
3033.46734	0.99539
3031.41354	0.99545
3029.35973	0.99615
3027.30593	0.99658
3025.25213	0.99634
3023.19832	0.99613
3021.14452	0.99602
3019.09072	0.99553
3017.03691	0.99521
3014.98311	0.99543
3012.92931	0.99570
3010.87550	0.99575
3008.82170	0.99578
3006.76790	0.99593
3004.71409	0.99593
3002.66029	0.99592
3000.60649	0.99600
2998.55269	0.99583
2996.49888	0.99559
2994.44508	0.99580
2992.39128	0.99603
2990.33747	0.99569
2988.28367	0.99505
2986.22987	0.99467
2984.17606	0.99453
2982.12226	0.99475
2980.06846	0.99557
2978.01465	0.99624
2975.96085	0.99626
2973.90705	0.99600
2971.85324	0.99578
2969.79944	0.99562
2967.74564	0.99590
2965.69183	0.99653
2963.63803	0.99655
2961.58423	0.99605
2959.53042	0.99600
2957.47662	0.99645
2955.42282	0.99691
2953.36901	0.99727
2951.31521	0.99730
2949.26141	0.99694
2947.20761	0.99638
2945.15380	0.99591
2943.10000	0.99589
2941.04620	0.99594
2938.99239	0.99601
2936.93859	0.99640
2934.88479	0.99697
2932.83098	0.99734
2930.77718	0.99743
2928.72338	0.99756
2926.66957	0.99764
2924.61577	0.99769
2922.56197	0.99785
2920.50816	0.99774
2918.45436	0.99737
2916.40056	0.99700
2914.34675	0.99667
2912.29295	0.99651
2910.23915	0.99660
2908.18534	0.99659
2906.13154	0.99656
2904.07774	0.99683
2902.02393	0.99689
2899.97013	0.99650
2897.91633	0.99613
2895.86252	0.99602
2893.80872	0.99633
2891.75492	0.99682
2889.70112	0.99718
2887.64731	0.99725
2885.59351	0.99708
2883.53971	0.99664
2881.48590	0.99621
2879.43210	0.99644
2877.37830	0.99695
2875.32449	0.99705
2873.27069	0.99706
2871.21689	0.99731
2869.16308	0.99726
2867.10928	0.99677
2865.05548	0.99642
2863.00167	0.99637
2860.94787	0.99650
2858.89407	0.99672
2856.84026	0.99709
2854.78646	0.99747
2852.73266	0.99733
2850.67885	0.99687
2848.62505	0.99671
2846.57125	0.99698
2844.51744	0.99728
2842.46364	0.99719
2840.40984	0.99680
2838.35603	0.99664
2836.30223	0.99677
2834.24843	0.99711
2832.19463	0.99730
2830.14082	0.99704
2828.08702	0.99677
2826.03322	0.99651
2823.97941	0.99614
2821.92561	0.99589
2819.87181	0.99591
2817.81800	0.99607
2815.76420	0.99627
2813.71040	0.99662
2811.65659	0.99681
2809.60279	0.99670
2807.54899	0.99662
2805.49518	0.99672
2803.44138	0.99680
2801.38758	0.99658
2799.33377	0.99632
2797.27997	0.99632
2795.22617	0.99647
2793.17236	0.99684
2791.11856	0.99727
2789.06476	0.99722
2787.01095	0.99691
2784.95715	0.99687
2782.90335	0.99707
2780.84955	0.99726
2778.79574	0.99716
2776.74194	0.99673
2774.68814	0.99644
2772.63433	0.99643
2770.58053	0.99627
2768.52673	0.99599
2766.47292	0.99590
2764.41912	0.99601
2762.36532	0.99623
2760.31151	0.99643
2758.25771	0.99649
2756.20391	0.99640
2754.15010	0.99617
2752.09630	0.99597
2750.04250	0.99584
2747.98869	0.99566
2745.93489	0.99563
2743.88109	0.99597
2741.82728	0.99633
2739.77348	0.99640
2737.71968	0.99638
2735.66587	0.99632
2733.61207	0.99596
2731.55827	0.99586
2729.50446	0.99635
2727.45066	0.99687
2725.39686	0.99716
2723.34306	0.99725
2721.28925	0.99718
2719.23545	0.99695
2717.18165	0.99672
2715.12784	0.99672
2713.07404	0.99665
2711.02024	0.99642
2708.96643	0.99634
2706.91263	0.99638
2704.85883	0.99653
2702.80502	0.99667
2700.75122	0.99652
2698.69742	0.99640
2696.64361	0.99649
2694.58981	0.99657
2692.53601	0.99682
2690.48220	0.99717
2688.42840	0.99711
2686.37460	0.99667
2684.32079	0.99650
2682.26699	0.99691
2680.21319	0.99724
2678.15938	0.99710
2676.10558	0.99683
2674.05178	0.99676
2671.99797	0.99677
2669.94417	0.99650
2667.89037	0.99634
2665.83657	0.99671
2663.78276	0.99693
2661.72896	0.99655
2659.67516	0.99622
2657.62135	0.99614
2655.56755	0.99606
2653.51375	0.99613
2651.45994	0.99643
2649.40614	0.99661
2647.35234	0.99638
2645.29853	0.99615
2643.24473	0.99621
2641.19093	0.99614
2639.13712	0.99580
2637.08332	0.99586
2635.02952	0.99634
2632.97571	0.99661
2630.92191	0.99654
2628.86811	0.99648
2626.81430	0.99643
2624.76050	0.99594
2622.70670	0.99539
2620.65289	0.99542
2618.59909	0.99578
2616.54529	0.99615
2614.49149	0.99635
2612.43768	0.99640
2610.38388	0.99628
2608.33008	0.99602
2606.27627	0.99599
2604.22247	0.99619
2602.16867	0.99620
2600.11486	0.99603
2598.06106	0.99593
2596.00726	0.99569
2593.95345	0.99529
2591.89965	0.99517
2589.84585	0.99540
2587.79204	0.99576
2585.73824	0.99592
2583.68444	0.99595
2581.63063	0.99602
2579.57683	0.99614
2577.52303	0.99618
2575.46922	0.99586
2573.41542	0.99541
2571.36162	0.99542
2569.30781	0.99598
2567.25401	0.99648
2565.20021	0.99644
2563.14640	0.99627
2561.09260	0.99618
2559.03880	0.99598
2556.98500	0.99593
2554.93119	0.99588
2552.87739	0.99594
2550.82359	0.99635
2548.76978	0.99606
2546.71598	0.99513
2544.66218	0.99478
2542.60837	0.99490
2540.55457	0.99498
2538.50077	0.99506
2536.44696	0.99518
2534.39316	0.99537
2532.33936	0.99541
2530.28555	0.99529
2528.23175	0.99550
2526.17795	0.99593
2524.12414	0.99606
2522.07034	0.99549
2520.01654	0.99463
2517.96273	0.99432
2515.90893	0.99485
2513.85513	0.99554
2511.80132	0.99558
2509.74752	0.99549
2507.69372	0.99554
2505.63992	0.99527
2503.58611	0.99500
2501.53231	0.99528
2499.47851	0.99564
2497.42470	0.99555
2495.37090	0.99555
2493.31710	0.99553
2491.26329	0.99481
2489.20949	0.99413
2487.15569	0.99406
2485.10188	0.99448
2483.04808	0.99525
2480.99428	0.99583
2478.94047	0.99586
2476.88667	0.99559
2474.83287	0.99559
2472.77906	0.99606
2470.72526	0.99632
2468.67146	0.99612
2466.61765	0.99619
2464.56385	0.99676
2462.51005	0.99700
2460.45624	0.99662
2458.40244	0.99649
2456.34864	0.99658
2454.29483	0.99620
2452.24103	0.99603
2450.18723	0.99637
2448.13343	0.99672
2446.07962	0.99695
2444.02582	0.99665
2441.97202	0.99602
2439.91821	0.99572
2437.86441	0.99622
2435.81061	0.99722
2433.75680	0.99756
2431.70300	0.99709
2429.64920	0.99677
2427.59539	0.99692
2425.54159	0.99719
2423.48779	0.99739
2421.43398	0.99763
2419.38018	0.99788
2417.32638	0.99789
2415.27257	0.99779
2413.21877	0.99754
2411.16497	0.99689
2409.11116	0.99633
2407.05736	0.99616
2405.00356	0.99622
2402.94975	0.99626
2400.89595	0.99639
2398.84215	0.99677
2396.78834	0.99731
2394.73454	0.99788
2392.68074	0.99804
2390.62694	0.99792
2388.57313	0.99777
2386.51933	0.99721
2384.46553	0.99701
2382.41172	0.99767
2380.35792	0.99821
2378.30412	0.99867
2376.25031	0.99913
2374.19651	0.99845
2372.14271	0.99717
2370.08890	0.99703
2368.03510	0.99754
2365.98130	0.99691
2363.92749	0.99634
2361.87369	0.99718
2359.81989	0.99739
2357.76608	0.99680
2355.71228	0.99648
2353.65848	0.99599
2351.60467	0.99572
2349.55087	0.99592
2347.49707	0.99606
2345.44326	0.99633
2343.38946	0.99682
2341.33566	0.99684
2339.28186	0.99625
2337.22805	0.99577
2335.17425	0.99613
2333.12045	0.99675
2331.06664	0.99687
2329.01284	0.99694
2326.95904	0.99670
2324.90523	0.99591
2322.85143	0.99570
2320.79763	0.99600
2318.74382	0.99605
2316.69002	0.99618
2314.63622	0.99611
2312.58241	0.99597
2310.52861	0.99654
2308.47481	0.99755
2306.42100	0.99826
2304.36720	0.99842
2302.31340	0.99800
2300.25959	0.99741
2298.20579	0.99732
2296.15199	0.99739
2294.09818	0.99719
2292.04438	0.99661
2289.99058	0.99593
2287.93677	0.99576
2285.88297	0.99557
2283.82917	0.99502
2281.77537	0.99504
2279.72156	0.99586
2277.66776	0.99687
2275.61396	0.99755
2273.56015	0.99725
2271.50635	0.99642
2269.45255	0.99618
2267.39874	0.99610
2265.34494	0.99577
2263.29114	0.99605
2261.23733	0.99689
2259.18353	0.99771
2257.12973	0.99833
2255.07592	0.99808
2253.02212	0.99769
2250.96832	0.99839
2248.91451	0.99872
2246.86071	0.99781
2244.80691	0.99674
2242.75310	0.99631
2240.69930	0.99736
2238.64550	0.99901
2236.59169	0.99930
2234.53789	0.99862
2232.48409	0.99781
2230.43029	0.99699
2228.37648	0.99716
2226.32268	0.99867
2224.26888	0.99945
2222.21507	0.99831
2220.16127	0.99728
2218.10747	0.99723
2216.05366	0.99759
2213.99986	0.99823
2211.94606	0.99824
2209.89225	0.99735
2207.83845	0.99605
2205.78465	0.99473
2203.73084	0.99529
2201.67704	0.99810
2199.62324	0.99948
2197.56943	0.99796
2195.51563	0.99609
2193.46183	0.99503
2191.40802	0.99473
2189.35422	0.99573
2187.30042	0.99732
2185.24661	0.99758
2183.19281	0.99781
2181.13901	0.99897
2179.08520	0.99785
2177.03140	0.99656
2174.97760	0.99772
2172.92380	0.99756
2170.86999	0.99525
2168.81619	0.99373
2166.76239	0.99386
2164.70858	0.99437
2162.65478	0.99339
2160.60098	0.99299
2158.54717	0.99704
2156.49337	1.00205
2154.43957	1.00376
2152.38576	1.00289
2150.33196	1.00072
2148.27816	0.99990
2146.22435	1.00144
2144.17055	1.00167
2142.11675	1.00039
2140.06294	1.00022
2138.00914	0.99948
2135.95534	0.99806
2133.90153	0.99820
2131.84773	0.99940
2129.79393	1.00080
2127.74012	1.00173
2125.68632	1.00117
2123.63252	0.99928
2121.57871	0.99788
2119.52491	0.99795
2117.47111	0.99794
2115.41731	0.99774
2113.36350	0.99851
2111.30970	0.99913
2109.25590	0.99851
2107.20209	0.99744
2105.14829	0.99680
2103.09449	0.99693
2101.04068	0.99826
2098.98688	0.99915
2096.93308	0.99821
2094.87927	0.99820
2092.82547	0.99955
2090.77167	0.99960
2088.71786	0.99904
2086.66406	0.99916
2084.61026	0.99915
2082.55645	0.99847
2080.50265	0.99731
2078.44885	0.99626
2076.39504	0.99638
2074.34124	0.99807
2072.28744	1.00000
2070.23363	1.00080
2068.17983	1.00058
2066.12603	0.99970
2064.07223	0.99828
2062.01842	0.99672
2059.96462	0.99674
2057.91082	0.99897
2055.85701	1.00059
2053.80321	0.99967
2051.74941	0.99764
2049.69560	0.99651
2047.64180	0.99656
2045.58800	0.99663
2043.53419	0.99626
2041.48039	0.99586
2039.42659	0.99559
2037.37278	0.99519
2035.31898	0.99582
2033.26518	0.99828
2031.21137	0.99969
2029.15757	0.99957
2027.10377	1.00024
2025.04996	1.00098
2022.99616	0.99981
2020.94236	0.99711
2018.88855	0.99659
2016.83475	0.99987
2014.78095	1.00182
2012.72714	0.99916
2010.67334	0.99615
2008.61954	0.99601
2006.56574	0.99713
2004.51193	0.99774
2002.45813	0.99737
2000.40433	0.99661
1998.35052	0.99760
1996.29672	1.00050
1994.24292	1.00076
1992.18911	0.99777
1990.13531	0.99718
1988.08151	0.99980
1986.02770	1.00151
1983.97390	1.00078
1981.92010	0.99841
1979.86629	0.99535
1977.81249	0.99365
1975.75869	0.99506
1973.70488	0.99798
1971.65108	0.99918
1969.59728	0.99838
1967.54347	0.99832
1965.48967	0.99948
1963.43587	1.00047
1961.38206	1.00086
1959.32826	1.00132
1957.27446	1.00189
1955.22066	1.00061
1953.16685	0.99810
1951.11305	0.99711
1949.05925	0.99732
1947.00544	0.99749
1944.95164	0.99805
1942.89784	0.99881
1940.84403	0.99891
1938.79023	0.99856
1936.73643	0.99860
1934.68262	0.99957
1932.62882	1.00079
1930.57502	1.00111
1928.52121	1.00060
1926.46741	0.99977
1924.41361	0.99902
1922.35980	0.99860
1920.30600	0.99809
1918.25220	0.99769
1916.19839	0.99796
1914.14459	0.99835
1912.09079	0.99823
1910.03698	0.99822
1907.98318	0.99868
1905.92938	0.99841
1903.87557	0.99779
1901.82177	0.99814
1899.76797	0.99919
1897.71417	1.00001
1895.66036	0.99990
1893.60656	0.99911
1891.55276	0.99861
1889.49895	0.99853
1887.44515	0.99900
1885.39135	0.99981
1883.33754	1.00015
1881.28374	0.99995
1879.22994	0.99921
1877.17613	0.99863
1875.12233	0.99882
1873.06853	0.99873
1871.01472	0.99831
1868.96092	0.99875
1866.90712	0.99946
1864.85331	0.99947
1862.79951	0.99936
1860.74571	0.99920
1858.69190	0.99914
1856.63810	0.99936
1854.58430	0.99920
1852.53049	0.99865
1850.47669	0.99835
1848.42289	0.99844
1846.36908	0.99860
1844.31528	0.99866
1842.26148	0.99878
1840.20768	0.99905
1838.15387	0.99925
1836.10007	0.99915
1834.04627	0.99895
1831.99246	0.99902
1829.93866	0.99923
1827.88486	0.99894
1825.83105	0.99840
1823.77725	0.99846
1821.72345	0.99926
1819.66964	0.99993
1817.61584	0.99990
1815.56204	0.99946
1813.50823	0.99899
1811.45443	0.99873
1809.40063	0.99884
1807.34682	0.99893
1805.29302	0.99863
1803.23922	0.99796
1801.18541	0.99734
1799.13161	0.99721
1797.07781	0.99705
1795.02400	0.99670
1792.97020	0.99654
1790.91640	0.99624
1788.86260	0.99569
1786.80879	0.99504
1784.75499	0.99422
1782.70119	0.99383
1780.64738	0.99420
1778.59358	0.99467
1776.53978	0.99533
1774.48597	0.99647
1772.43217	0.99777
1770.37837	0.99848
1768.32456	0.99833
1766.27076	0.99802
1764.21696	0.99811
1762.16315	0.99850
1760.10935	0.99854
1758.05555	0.99808
1756.00174	0.99795
1753.94794	0.99830
1751.89414	0.99861
1749.84033	0.99886
1747.78653	0.99884
1745.73273	0.99848
1743.67892	0.99850
1741.62512	0.99904
1739.57132	0.99923
1737.51751	0.99887
1735.46371	0.99848
1733.40991	0.99840
1731.35611	0.99890
1729.30230	0.99922
1727.24850	0.99887
1725.19470	0.99839
1723.14089	0.99819
1721.08709	0.99815
1719.03329	0.99830
1716.97948	0.99848
1714.92568	0.99825
1712.87188	0.99787
1710.81807	0.99772
1708.76427	0.99771
1706.71047	0.99761
1704.65666	0.99741
1702.60286	0.99725
1700.54906	0.99712
1698.49525	0.99684
1696.44145	0.99658
1694.38765	0.99641
1692.33384	0.99619
1690.28004	0.99614
1688.22624	0.99638
1686.17243	0.99649
1684.11863	0.99603
1682.06483	0.99539
1680.01103	0.99520
1677.95722	0.99549
1675.90342	0.99598
1673.84962	0.99609
1671.79581	0.99609
1669.74201	0.99647
1667.68821	0.99650
1665.63440	0.99602
1663.58060	0.99577
1661.52680	0.99588
1659.47299	0.99609
1657.41919	0.99626
1655.36539	0.99614
1653.31158	0.99564
1651.25778	0.99552
1649.20398	0.99551
1647.15017	0.99529
1645.09637	0.99536
1643.04257	0.99549
1640.98876	0.99538
1638.93496	0.99529
1636.88116	0.99532
1634.82735	0.99485
1632.77355	0.99436
1630.71975	0.99453
1628.66594	0.99494
1626.61214	0.99517
1624.55834	0.99527
1622.50454	0.99527
1620.45073	0.99515
1618.39693	0.99498
1616.34313	0.99468
1614.28932	0.99449
1612.23552	0.99454
1610.18172	0.99482
1608.12791	0.99516
1606.07411	0.99515
1604.02031	0.99496
1601.96650	0.99483
1599.91270	0.99469
1597.85890	0.99444
1595.80509	0.99408
1593.75129	0.99392
1591.69749	0.99388
1589.64368	0.99360
1587.58988	0.99313
1585.53608	0.99265
1583.48227	0.99201
1581.42847	0.99088
1579.37467	0.98960
1577.32086	0.98844
1575.26706	0.98693
1573.21326	0.98542
1571.15945	0.98388
1569.10565	0.98215
1567.05185	0.98086
1564.99805	0.98003
1562.94424	0.97961
1560.89044	0.97941
1558.83664	0.97828
1556.78283	0.97636
1554.72903	0.97515
1552.67523	0.97393
1550.62142	0.97223
1548.56762	0.97020
1546.51382	0.96840
1544.46001	0.96677
1542.40621	0.96486
1540.35241	0.96203
1538.29860	0.95994
1536.24480	0.95934
1534.19100	0.95824
1532.13719	0.95620
1530.08339	0.95431
1528.02959	0.95251
1525.97578	0.95060
1523.92198	0.94904
1521.86818	0.94713
1519.81437	0.94496
1517.76057	0.94329
1515.70677	0.94155
1513.65297	0.93982
1511.59916	0.93827
1509.54536	0.93655
1507.49156	0.93371
1505.43775	0.93080
1503.38395	0.92949
1501.33015	0.92821
1499.27634	0.92649
1497.22254	0.92421
1495.16874	0.92194
1493.11493	0.92051
1491.06113	0.91903
1489.00733	0.91657
1486.95352	0.91406
1484.89972	0.91228
1482.84592	0.91050
1480.79211	0.90830
1478.73831	0.90646
1476.68451	0.90519
1474.63070	0.90365
1472.57690	0.90153
1470.52310	0.90013
1468.46929	0.90000
1466.41549	0.90047
1464.36169	0.90100
1462.30788	0.90141
1460.25408	0.90193
1458.20028	0.90201
1456.14648	0.90109
1454.09267	0.90068
1452.03887	0.90076
1449.98507	0.90076
1447.93126	0.90071
1445.87746	0.90096
1443.82366	0.90159
1441.76985	0.90272
1439.71605	0.90421
1437.66225	0.90575
1435.60844	0.90744
1433.55464	0.90891
1431.50084	0.91011
1429.44703	0.91138
1427.39323	0.91267
1425.33943	0.91385
1423.28562	0.91496
1421.23182	0.91611
1419.17802	0.91731
1417.12421	0.91829
1415.07041	0.91909
1413.01661	0.92015
1410.96280	0.92135
1408.90900	0.92244
1406.85520	0.92360
1404.80139	0.92470
1402.74759	0.92549
1400.69379	0.92615
1398.63999	0.92693
1396.58618	0.92779
1394.53238	0.92872
1392.47858	0.92958
1390.42477	0.93020
1388.37097	0.93079
1386.31717	0.93188
1384.26336	0.93335
1382.20956	0.93444
1380.15576	0.93496
1378.10195	0.93554
1376.04815	0.93650
1373.99435	0.93742
1371.94054	0.93827
1369.88674	0.93936
1367.83294	0.94024
1365.77913	0.94072
1363.72533	0.94141
1361.67153	0.94227
1359.61772	0.94297
1357.56392	0.94356
1355.51012	0.94411
1353.45631	0.94476
1351.40251	0.94554
1349.34871	0.94635
1347.29491	0.94715
1345.24110	0.94799
1343.18730	0.94885
1341.13350	0.94951
1339.07969	0.94996
1337.02589	0.95035
1334.97209	0.95083
1332.91828	0.95144
1330.86448	0.95198
1328.81068	0.95248
1326.75687	0.95318
1324.70307	0.95391
1322.64927	0.95436
1320.59546	0.95447
1318.54166	0.95443
1316.48786	0.95479
1314.43405	0.95590
1312.38025	0.95709
1310.32645	0.95762
1308.27264	0.95752
1306.21884	0.95743
1304.16504	0.95780
1302.11123	0.95835
1300.05743	0.95879
1298.00363	0.95913
1295.94982	0.95949
1293.89602	0.95983
1291.84222	0.96011
1289.78842	0.96044
1287.73461	0.96073
1285.68081	0.96087
1283.62701	0.96110
1281.57320	0.96153
1279.51940	0.96209
1277.46560	0.96267
1275.41179	0.96302
1273.35799	0.96319
1271.30419	0.96343
1269.25038	0.96397
1267.19658	0.96475
1265.14278	0.96523
1263.08897	0.96527
1261.03517	0.96518
1258.98137	0.96519
1256.92756	0.96559
1254.87376	0.96607
1252.81996	0.96624
1250.76615	0.96625
1248.71235	0.96648
1246.65855	0.96703
1244.60474	0.96751
1242.55094	0.96759
1240.49714	0.96754
1238.44334	0.96766
1236.38953	0.96809
1234.33573	0.96858
1232.28193	0.96878
1230.22812	0.96891
1228.17432	0.96932
1226.12052	0.96966
1224.06671	0.96983
1222.01291	0.97001
1219.95911	0.97004
1217.90530	0.97003
1215.85150	0.97016
1213.79770	0.97021
1211.74389	0.97010
1209.69009	0.97018
1207.63629	0.97035
1205.58248	0.97019
1203.52868	0.96987
1201.47488	0.96989
1199.42107	0.97040
1197.36727	0.97087
1195.31347	0.97107
1193.25966	0.97136
1191.20586	0.97143
1189.15206	0.97101
1187.09825	0.97064
1185.04445	0.97050
1182.99065	0.97039
1180.93685	0.97021
1178.88304	0.97003
1176.82924	0.96991
1174.77544	0.96997
1172.72163	0.97035
1170.66783	0.97069
1168.61403	0.97075
1166.56022	0.97076
1164.50642	0.97079
1162.45262	0.97084
1160.39881	0.97116
1158.34501	0.97158
1156.29121	0.97170
1154.23740	0.97156
1152.18360	0.97134
1150.12980	0.97111
1148.07599	0.97102
1146.02219	0.97116
1143.96839	0.97140
1141.91458	0.97161
1139.86078	0.97171
1137.80698	0.97162
1135.75317	0.97138
1133.69937	0.97134
1131.64557	0.97152
1129.59176	0.97159
1127.53796	0.97174
1125.48416	0.97196
1123.43036	0.97208
1121.37655	0.97196
1119.32275	0.97154
1117.26895	0.97121
1115.21514	0.97126
1113.16134	0.97152
1111.10754	0.97163
1109.05373	0.97163
1106.99993	0.97188
1104.94613	0.97229
1102.89232	0.97267
1100.83852	0.97293
1098.78472	0.97279
1096.73091	0.97247
1094.67711	0.97255
1092.62331	0.97264
1090.56950	0.97211
1088.51570	0.97092
1086.46190	0.96828
1084.40809	0.96354
1082.35429	0.96004
1080.30049	0.96135
1078.24668	0.96513
1076.19288	0.96779
1074.13908	0.96869
1072.08528	0.96875
1070.03147	0.96908
1067.97767	0.96977
1065.92387	0.97014
1063.87006	0.97015
1061.81626	0.97019
1059.76246	0.97009
1057.70865	0.96985
1055.65485	0.96966
1053.60105	0.96943
1051.54724	0.96952
1049.49344	0.97015
1047.43964	0.97047
1045.38583	0.96998
1043.33203	0.96945
1041.27823	0.96953
1039.22442	0.96974
1037.17062	0.96967
1035.11682	0.96958
1033.06301	0.96958
1031.00921	0.96964
1028.95541	0.96960
1026.90160	0.96936
1024.84780	0.96928
1022.79400	0.96961
1020.74019	0.97013
1018.68639	0.97051
1016.63259	0.97039
1014.57879	0.97001
1012.52498	0.97000
1010.47118	0.97014
1008.41738	0.97034
1006.36357	0.97077
1004.30977	0.97108
1002.25597	0.97136
1000.20216	0.97177
998.14836	0.97187
996.09456	0.97189
994.04075	0.97218
991.98695	0.97225
989.93315	0.97224
987.87934	0.97267
985.82554	0.97304
983.77174	0.97318
981.71793	0.97362
979.66413	0.97422
977.61033	0.97437
975.55652	0.97427
973.50272	0.97498
971.44892	0.97604
969.39511	0.97631
967.34131	0.97635
965.28751	0.97675
963.23371	0.97730
961.17990	0.97778
959.12610	0.97801
957.07230	0.97823
955.01849	0.97868
952.96469	0.97912
950.91089	0.97937
948.85708	0.97929
946.80328	0.97909
944.74948	0.97921
942.69567	0.97959
940.64187	0.97992
938.58807	0.98012
936.53426	0.98030
934.48046	0.98048
932.42666	0.98040
930.37285	0.98023
928.31905	0.98054
926.26525	0.98123
924.21144	0.98165
922.15764	0.98193
920.10384	0.98224
918.05003	0.98211
915.99623	0.98186
913.94243	0.98214
911.88862	0.98250
909.83482	0.98238
907.78102	0.98214
905.72722	0.98222
903.67341	0.98253
901.61961	0.98291
899.56581	0.98352
897.51200	0.98448
895.45820	0.98521
893.40440	0.98514
891.35059	0.98480
889.29679	0.98499
887.24299	0.98543
885.18918	0.98556
883.13538	0.98551
881.08158	0.98512
879.02777	0.98404
876.97397	0.98235
874.92017	0.97904
872.86636	0.97300
870.81256	0.96456
868.75876	0.95396
866.70495	0.94210
864.65115	0.93117
862.59735	0.92221
860.54354	0.91504
858.48974	0.90987
856.43594	0.90751
854.38213	0.90863
852.32833	0.91309
850.27453	0.91914
848.22073	0.92466
846.16692	0.92900
844.11312	0.93225
842.05932	0.93533
840.00551	0.93915
837.95171	0.94324
835.89791	0.94675
833.84410	0.94962
831.79030	0.95233
829.73650	0.95497
827.68269	0.95717
825.62889	0.95905
823.57509	0.96114
821.52128	0.96308
819.46748	0.96450
817.41368	0.96575
815.35987	0.96697
813.30607	0.96791
811.25227	0.96888
809.19846	0.97020
807.14466	0.97136
805.09086	0.97210
803.03705	0.97222
800.98325	0.97145
798.92945	0.97129
796.87565	0.97248
794.82184	0.97322
792.76804	0.97364
790.71424	0.97486
788.66043	0.97601
786.60663	0.97613
784.55283	0.97605
782.49902	0.97679
780.44522	0.97750
778.39142	0.97727
776.33761	0.97691
774.28381	0.97722
772.23001	0.97823
770.17620	0.97952
768.12240	0.97999
766.06860	0.97955
764.01479	0.97895
761.96099	0.97829
759.90719	0.97797
757.85338	0.97802
755.79958	0.97810
753.74578	0.97854
751.69197	0.97942
749.63817	0.98026
747.58437	0.98060
745.53056	0.98015
743.47676	0.98001
741.42296	0.98105
739.36916	0.98183
737.31535	0.98181
735.26155	0.98241
733.20775	0.98333
731.15394	0.98322
729.10014	0.98254
727.04634	0.98241
724.99253	0.98283
722.93873	0.98307
720.88493	0.98241
718.83112	0.97997
716.77732	0.97300
714.72352	0.96109
712.66971	0.95251
710.61591	0.95492
708.56211	0.96393
706.50830	0.97102
704.45450	0.97232
702.40070	0.96766
700.34689	0.96160
698.29309	0.96118
696.23929	0.96607
694.18548	0.97049
692.13168	0.97247
690.07788	0.97330
688.02408	0.97414
685.97027	0.97513
683.91647	0.97584
681.86267	0.97588
679.80886	0.97545
677.75506	0.97549
675.70126	0.97680
673.64745	0.97845
671.59365	0.97875
669.53985	0.97834
667.48604	0.97916
665.43224	0.98037
663.37844	0.98054
661.32463	0.98008
659.27083	0.97997
657.21703	0.98071
655.16322	0.98130
653.10942	0.98090
651.05562	0.98008
649.00181	0.97945
646.94801	0.97948
644.89421	0.98057
642.84040	0.98177
640.78660	0.98144
638.73280	0.98003
636.67899	0.97892
634.62519	0.97846
632.57139	0.97868
630.51759	0.97929
628.46378	0.98003
626.40998	0.98100
624.35618	0.98144
622.30237	0.98099
620.24857	0.98107
618.19477	0.98198
616.14096	0.98255
614.08716	0.98180
612.03336	0.98051
609.97955	0.98088
607.92575	0.98180
605.87195	0.98152
603.81814	0.98108
601.76434	0.98079
599.71054	0.98084
597.65673	0.98159
595.60293	0.98201
593.54913	0.98175
591.49532	0.98138
589.44152	0.98071
587.38772	0.97949
585.33391	0.97803
583.28011	0.97746
581.22631	0.97862
579.17250	0.98043
577.11870	0.98126
575.06490	0.98058
573.01110	0.97995
570.95729	0.98078
568.90349	0.98264
566.84969	0.98376
564.79588	0.98206
562.74208	0.97936
560.68828	0.97914
558.63447	0.98089
556.58067	0.98226
554.52687	0.98181
552.47306	0.97988
550.41926	0.97915
548.36546	0.98030
546.31165	0.98083
544.25785	0.97952
542.20405	0.97847
540.15024	0.97940
538.09644	0.98079
536.04264	0.98157
533.98883	0.98195
531.93503	0.98173
529.88123	0.98204
527.82742	0.98309
525.77362	0.98346
523.71982	0.98286
521.66602	0.98190
519.61221	0.98044
517.55841	0.97910
515.50461	0.98024
513.45080	0.98348
511.39700	0.98464
509.34320	0.98250
507.28939	0.98095
505.23559	0.98227
503.18179	0.98461
501.12798	0.98494
499.07418	0.98286
497.02038	0.98201
494.96657	0.98270
492.91277	0.98249
490.85897	0.98213
488.80516	0.98153
486.75136	0.97963
484.69756	0.97937
482.64375	0.98117
480.58995	0.98036
478.53615	0.97723
476.48234	0.97511
474.42854	0.97428
472.37474	0.97386
470.32093	0.97435
468.26713	0.97709
466.21333	0.98143
464.15953	0.98436
462.10572	0.98284
460.05192	0.97965
457.99812	0.98055
455.94431	0.98120
453.89051	0.97666
451.83671	0.97222
449.78290	0.97187
447.72910	0.97332
445.67530	0.97456
443.62149	0.97423
441.56769	0.97299
439.51389	0.97515
437.46008	0.97964
435.40628	0.98058
433.35248	0.97752
431.29867	0.97537
429.24487	0.97565
427.19107	0.97909
425.13726	0.98551
423.08346	0.98656
421.02966	0.97810
418.97585	0.97109
416.92205	0.97381
414.86825	0.97444
412.81445	0.97162
410.76064	0.97245
408.70684	0.97634
406.65304	0.97682
404.59923	0.97476
402.54543	0.97658
400.49163	0.98318
398.43782	0.99317
