3996.71440	0.97807
3994.66059	0.97785
3992.60678	0.97777
3990.55297	0.97777
3988.49916	0.97769
3986.44535	0.97784
3984.39154	0.97809
3982.33773	0.97828
3980.28391	0.97842
3978.23010	0.97838
3976.17629	0.97844
3974.12248	0.97855
3972.06867	0.97822
3970.01486	0.97773
3967.96105	0.97777
3965.90724	0.97813
3963.85343	0.97826
3961.79962	0.97828
3959.74581	0.97834
3957.69200	0.97819
3955.63819	0.97776
3953.58438	0.97739
3951.53057	0.97748
3949.47676	0.97784
3947.42295	0.97800
3945.36914	0.97801
3943.31533	0.97824
3941.26152	0.97848
3939.20771	0.97833
3937.15390	0.97805
3935.10009	0.97786
3933.04628	0.97792
3930.99247	0.97819
3928.93866	0.97824
3926.88485	0.97807
3924.83104	0.97810
3922.77723	0.97834
3920.72342	0.97852
3918.66961	0.97857
3916.61580	0.97844
3914.56199	0.97826
3912.50818	0.97827
3910.45437	0.97831
3908.40056	0.97811
3906.34675	0.97766
3904.29294	0.97743
3902.23913	0.97766
3900.18532	0.97805
3898.13151	0.97840
3896.07770	0.97849
3894.02389	0.97823
3891.97008	0.97813
3889.91627	0.97837
3887.86246	0.97818
3885.80865	0.97776
3883.75484	0.97785
3881.70103	0.97842
3879.64722	0.97892
3877.59341	0.97872
3875.53960	0.97801
3873.48579	0.97749
3871.43198	0.97761
3869.37817	0.97804
3867.32436	0.97827
3865.27055	0.97842
3863.21674	0.97855
3861.16293	0.97846
3859.10912	0.97849
3857.05531	0.97853
3855.00150	0.97831
3852.94769	0.97855
3850.89388	0.97906
3848.84007	0.97871
3846.78626	0.97816
3844.73245	0.97835
3842.67864	0.97897
3840.62483	0.97879
3838.57102	0.97790
3836.51721	0.97762
3834.46340	0.97778
3832.40959	0.97785
3830.35578	0.97814
3828.30197	0.97867
3826.24816	0.97901
3824.19435	0.97885
3822.14054	0.97858
3820.08673	0.97864
3818.03292	0.97871
3815.97911	0.97883
3813.92530	0.97899
3811.87149	0.97903
3809.81768	0.97909
3807.76387	0.97925
3805.71006	0.97926
3803.65625	0.97909
3801.60244	0.97909
3799.54863	0.97899
3797.49482	0.97862
3795.44101	0.97851
3793.38720	0.97872
3791.33339	0.97894
3789.27958	0.97921
3787.22577	0.97938
3785.17196	0.97918
3783.11815	0.97878
3781.06434	0.97868
3779.01053	0.97897
3776.95672	0.97902
3774.90291	0.97865
3772.84910	0.97830
3770.79529	0.97822
3768.74148	0.97832
3766.68767	0.97839
3764.63386	0.97858
3762.58005	0.97886
3760.52624	0.97889
3758.47243	0.97886
3756.41862	0.97907
3754.36481	0.97923
3752.31100	0.97930
3750.25719	0.97946
3748.20338	0.97959
3746.14957	0.97963
3744.09576	0.97947
3742.04195	0.97919
3739.98814	0.97897
3737.93433	0.97892
3735.88052	0.97929
3733.82671	0.97958
3731.77290	0.97933
3729.71909	0.97906
3727.66528	0.97905
3725.61147	0.97925
3723.55766	0.97956
3721.50385	0.97945
3719.45004	0.97850
3717.39623	0.97749
3715.34242	0.97701
3713.28861	0.97678
3711.23480	0.97647
3709.18099	0.97560
3707.12718	0.97449
3705.07337	0.97372
3703.01956	0.97322
3700.96575	0.97270
3698.91194	0.97221
3696.85813	0.97185
3694.80432	0.97164
3692.75051	0.97152
3690.69670	0.97164
3688.64289	0.97221
3686.58907	0.97264
3684.53526	0.97266
3682.48145	0.97261
3680.42764	0.97271
3678.37383	0.97276
3676.32002	0.97236
3674.26621	0.97175
3672.21240	0.97135
3670.15859	0.97136
3668.10478	0.97181
3666.05097	0.97186
3663.99716	0.97138
3661.94335	0.97105
3659.88954	0.97097
3657.83573	0.97071
3655.78192	0.97043
3653.72811	0.97031
3651.67430	0.96994
3649.62049	0.96920
3647.56668	0.96880
3645.51287	0.96870
3643.45906	0.96854
3641.40525	0.96841
3639.35144	0.96805
3637.29763	0.96731
3635.24382	0.96653
3633.19001	0.96591
3631.13620	0.96540
3629.08239	0.96468
3627.02858	0.96386
3624.97477	0.96353
3622.92096	0.96345
3620.86715	0.96363
3618.81334	0.96398
3616.75953	0.96401
3614.70572	0.96389
3612.65191	0.96388
3610.59810	0.96372
3608.54429	0.96339
3606.49048	0.96341
3604.43667	0.96365
3602.38286	0.96363
3600.32905	0.96332
3598.27524	0.96330
3596.22143	0.96376
3594.16762	0.96414
3592.11381	0.96416
3590.06000	0.96395
3588.00619	0.96368
3585.95238	0.96359
3583.89857	0.96361
3581.84476	0.96361
3579.79095	0.96379
3577.73714	0.96384
3575.68333	0.96342
3573.62952	0.96287
3571.57571	0.96251
3569.52190	0.96232
3567.46809	0.96244
3565.41428	0.96240
3563.36047	0.96165
3561.30666	0.96109
3559.25285	0.96121
3557.19904	0.96134
3555.14523	0.96102
3553.09142	0.96041
3551.03761	0.96005
3548.98380	0.96021
3546.92999	0.96033
3544.87618	0.96000
3542.82237	0.95971
3540.76856	0.95961
3538.71475	0.95935
3536.66094	0.95884
3534.60713	0.95826
3532.55332	0.95800
3530.49951	0.95788
3528.44570	0.95737
3526.39189	0.95689
3524.33808	0.95705
3522.28427	0.95718
3520.23046	0.95676
3518.17665	0.95635
3516.12284	0.95634
3514.06903	0.95635
3512.01522	0.95620
3509.96141	0.95605
3507.90760	0.95580
3505.85379	0.95561
3503.79998	0.95568
3501.74617	0.95566
3499.69236	0.95550
3497.63855	0.95531
3495.58474	0.95491
3493.53093	0.95454
3491.47712	0.95443
3489.42331	0.95439
3487.36950	0.95426
3485.31569	0.95400
3483.26188	0.95367
3481.20807	0.95340
3479.15426	0.95340
3477.10045	0.95357
3475.04664	0.95344
3472.99283	0.95301
3470.93902	0.95269
3468.88521	0.95238
3466.83140	0.95200
3464.77759	0.95179
3462.72378	0.95173
3460.66997	0.95182
3458.61616	0.95187
3456.56235	0.95162
3454.50854	0.95112
3452.45473	0.95069
3450.40092	0.95057
3448.34711	0.95055
3446.29330	0.95041
3444.23949	0.95033
3442.18568	0.95049
3440.13187	0.95068
3438.07806	0.95068
3436.02425	0.95057
3433.97044	0.95025
3431.91663	0.94994
3429.86282	0.94997
3427.80901	0.95002
3425.75520	0.94979
3423.70139	0.94944
3421.64758	0.94932
3419.59377	0.94933
3417.53996	0.94900
3415.48615	0.94858
3413.43234	0.94851
3411.37853	0.94870
3409.32472	0.94883
3407.27091	0.94846
3405.21710	0.94784
3403.16329	0.94783
3401.10948	0.94831
3399.05567	0.94855
3397.00186	0.94843
3394.94805	0.94824
3392.89424	0.94813
3390.84042	0.94804
3388.78661	0.94797
3386.73280	0.94789
3384.67899	0.94776
3382.62518	0.94763
3380.57137	0.94767
3378.51756	0.94787
3376.46375	0.94814
3374.40994	0.94832
3372.35613	0.94837
3370.30232	0.94842
3368.24851	0.94833
3366.19470	0.94797
3364.14089	0.94758
3362.08708	0.94753
3360.03327	0.94782
3357.97946	0.94812
3355.92565	0.94820
3353.87184	0.94828
3351.81803	0.94832
3349.76422	0.94822
3347.71041	0.94816
3345.65660	0.94814
3343.60279	0.94814
3341.54898	0.94834
3339.49517	0.94863
3337.44136	0.94848
3335.38755	0.94813
3333.33374	0.94844
3331.27993	0.94895
3329.22612	0.94888
3327.17231	0.94875
3325.11850	0.94890
3323.06469	0.94890
3321.01088	0.94867
3318.95707	0.94850
3316.90326	0.94855
3314.84945	0.94874
3312.79564	0.94892
3310.74183	0.94897
3308.68802	0.94891
3306.63421	0.94888
3304.58040	0.94895
3302.52659	0.94916
3300.47278	0.94952
3298.41897	0.94971
3296.36516	0.94957
3294.31135	0.94952
3292.25754	0.94960
3290.20373	0.94956
3288.14992	0.94950
3286.09611	0.94942
3284.04230	0.94943
3281.98849	0.94966
3279.93468	0.94995
3277.88087	0.95023
3275.82706	0.95044
3273.77325	0.95055
3271.71944	0.95058
3269.66563	0.95067
3267.61182	0.95094
3265.55801	0.95128
3263.50420	0.95163
3261.45039	0.95183
3259.39658	0.95187
3257.34277	0.95191
3255.28896	0.95201
3253.23515	0.95225
3251.18134	0.95250
3249.12753	0.95275
3247.07372	0.95322
3245.01991	0.95371
3242.96610	0.95379
3240.91229	0.95357
3238.85848	0.95352
3236.80467	0.95377
3234.75086	0.95423
3232.69705	0.95470
3230.64324	0.95483
3228.58943	0.95500
3226.53562	0.95561
3224.48181	0.95609
3222.42800	0.95620
3220.37419	0.95632
3218.32038	0.95662
3216.26657	0.95689
3214.21276	0.95689
3212.15895	0.95676
3210.10514	0.95692
3208.05133	0.95744
3205.99752	0.95781
3203.94371	0.95784
3201.88990	0.95796
3199.83609	0.95808
3197.78228	0.95801
3195.72847	0.95816
3193.67466	0.95877
3191.62085	0.95940
3189.56704	0.95969
3187.51323	0.95982
3185.45942	0.95982
3183.40561	0.95974
3181.35180	0.95995
3179.29799	0.96033
3177.24418	0.96049
3175.19037	0.96044
3173.13656	0.96061
3171.08275	0.96119
3169.02894	0.96171
3166.97513	0.96183
3164.92132	0.96175
3162.86751	0.96190
3160.81370	0.96226
3158.75989	0.96248
3156.70608	0.96250
3154.65227	0.96249
3152.59846	0.96259
3150.54465	0.96298
3148.49084	0.96350
3146.43703	0.96378
3144.38322	0.96372
3142.32941	0.96365
3140.27560	0.96390
3138.22179	0.96438
3136.16798	0.96474
3134.11417	0.96488
3132.06036	0.96507
3130.00655	0.96545
3127.95274	0.96572
3125.89893	0.96570
3123.84512	0.96567
3121.79131	0.96577
3119.73750	0.96573
3117.68369	0.96569
3115.62988	0.96587
3113.57607	0.96617
3111.52226	0.96638
3109.46845	0.96636
3107.41464	0.96635
3105.36083	0.96657
3103.30702	0.96669
3101.25321	0.96657
3099.19940	0.96647
3097.14559	0.96652
3095.09177	0.96660
3093.03796	0.96659
3090.98415	0.96644
3088.93034	0.96633
3086.87653	0.96639
3084.82272	0.96655
3082.76891	0.96663
3080.71510	0.96659
3078.66129	0.96649
3076.60748	0.96645
3074.55367	0.96651
3072.49986	0.96650
3070.44605	0.96660
3068.39224	0.96710
3066.33843	0.96755
3064.28462	0.96758
3062.23081	0.96748
3060.17700	0.96746
3058.12319	0.96748
3056.06938	0.96759
3054.01557	0.96790
3051.96176	0.96807
3049.90795	0.96800
3047.85414	0.96789
3045.80033	0.96771
3043.74652	0.96765
3041.69271	0.96790
3039.63890	0.96813
3037.58509	0.96803
3035.53128	0.96785
3033.47747	0.96783
3031.42366	0.96789
3029.36985	0.96798
3027.31604	0.96811
3025.26223	0.96811
3023.20842	0.96795
3021.15461	0.96779
3019.10080	0.96774
3017.04699	0.96773
3014.99318	0.96752
3012.93937	0.96726
3010.88556	0.96722
3008.83175	0.96734
3006.77794	0.96760
3004.72413	0.96780
3002.67032	0.96774
3000.61651	0.96745
2998.56270	0.96707
2996.50889	0.96680
2994.45508	0.96645
2992.40127	0.96582
2990.34746	0.96511
2988.29365	0.96442
2986.23984	0.96353
2984.18603	0.96224
2982.13222	0.96073
2980.07841	0.95919
2978.02460	0.95745
2975.97079	0.95537
2973.91698	0.95272
2971.86317	0.94933
2969.80936	0.94544
2967.75555	0.94110
2965.70174	0.93606
2963.64793	0.93059
2961.59412	0.92545
2959.54031	0.92110
2957.48650	0.91752
2955.43269	0.91462
2953.37888	0.91239
2951.32507	0.91035
2949.27126	0.90733
2947.21745	0.90216
2945.16364	0.89418
2943.10983	0.88305
2941.05602	0.86853
2939.00221	0.85054
2936.94840	0.82942
2934.89459	0.80542
2932.84078	0.77817
2930.78697	0.74723
2928.73316	0.71233
2926.67935	0.67281
2924.62554	0.62795
2922.57173	0.57836
2920.51792	0.52722
2918.46411	0.48144
2916.41030	0.45219
2914.35649	0.44976
2912.30268	0.47414
2910.24887	0.51384
2908.19506	0.55590
2906.14125	0.59315
2904.08744	0.62374
2902.03363	0.64848
2899.97982	0.66897
2897.92601	0.68690
2895.87220	0.70356
2893.81839	0.71976
2891.76458	0.73595
2889.71077	0.75233
2887.65696	0.76906
2885.60315	0.78549
2883.54934	0.80073
2881.49553	0.81469
2879.44172	0.82737
2877.38791	0.83823
2875.33410	0.84642
2873.28029	0.85166
2871.22648	0.85445
2869.17267	0.85516
2867.11886	0.85317
2865.06505	0.84681
2863.01124	0.83409
2860.95743	0.81339
2858.90362	0.78284
2856.84981	0.73945
2854.79600	0.68042
2852.74219	0.60835
2850.68838	0.53873
2848.63457	0.49971
2846.58076	0.51123
2844.52695	0.56496
2842.47314	0.63527
2840.41933	0.70179
2838.36552	0.75604
2836.31171	0.79710
2834.25790	0.82742
2832.20409	0.85013
2830.15028	0.86739
2828.09647	0.88045
2826.04266	0.89056
2823.98885	0.89877
2821.93504	0.90544
2819.88123	0.91093
2817.82742	0.91581
2815.77361	0.92024
2813.71980	0.92396
2811.66599	0.92689
2809.61218	0.92940
2807.55837	0.93179
2805.50456	0.93412
2803.45075	0.93634
2801.39693	0.93822
2799.34312	0.93983
2797.28931	0.94147
2795.23550	0.94309
2793.18169	0.94455
2791.12788	0.94591
2789.07407	0.94720
2787.02026	0.94825
2784.96645	0.94919
2782.91264	0.95026
2780.85883	0.95150
2778.80502	0.95267
2776.75121	0.95350
2774.69740	0.95416
2772.64359	0.95488
2770.58978	0.95565
2768.53597	0.95631
2766.48216	0.95675
2764.42835	0.95719
2762.37454	0.95766
2760.32073	0.95797
2758.26692	0.95825
2756.21311	0.95864
2754.15930	0.95918
2752.10549	0.95964
2750.05168	0.95978
2747.99787	0.95980
2745.94406	0.95994
2743.89025	0.96011
2741.83644	0.96023
2739.78263	0.96038
2737.72882	0.96063
2735.67501	0.96089
2733.62120	0.96100
2731.56739	0.96098
2729.51358	0.96105
2727.45977	0.96144
2725.40596	0.96196
2723.35215	0.96232
2721.29834	0.96255
2719.24453	0.96261
2717.19072	0.96262
2715.13691	0.96287
2713.08310	0.96320
2711.02929	0.96336
2708.97548	0.96356
2706.92167	0.96384
2704.86786	0.96405
2702.81405	0.96412
2700.76024	0.96416
2698.70643	0.96427
2696.65262	0.96436
2694.59881	0.96440
2692.54500	0.96460
2690.49119	0.96484
2688.43738	0.96489
2686.38357	0.96491
2684.32976	0.96492
2682.27595	0.96486
2680.22214	0.96478
2678.16833	0.96465
2676.11452	0.96458
2674.06071	0.96463
2672.00690	0.96468
2669.95309	0.96468
2667.89928	0.96459
2665.84547	0.96454
2663.79166	0.96462
2661.73785	0.96469
2659.68404	0.96480
2657.63023	0.96496
2655.57642	0.96502
2653.52261	0.96503
2651.46880	0.96525
2649.41499	0.96554
2647.36118	0.96551
2645.30737	0.96524
2643.25356	0.96525
2641.19975	0.96554
2639.14594	0.96557
2637.09213	0.96549
2635.03832	0.96565
2632.98451	0.96586
2630.93070	0.96607
2628.87689	0.96626
2626.82308	0.96645
2624.76927	0.96666
2622.71546	0.96693
2620.66165	0.96746
2618.60784	0.96806
2616.55403	0.96835
2614.50022	0.96847
2612.44641	0.96871
2610.39260	0.96906
2608.33879	0.96943
2606.28498	0.96962
2604.23117	0.96963
2602.17736	0.96978
2600.12355	0.97019
2598.06974	0.97056
2596.01593	0.97074
2593.96212	0.97074
2591.90831	0.97068
2589.85450	0.97088
2587.80069	0.97130
2585.74688	0.97164
2583.69307	0.97175
2581.63926	0.97180
2579.58545	0.97194
2577.53164	0.97203
2575.47783	0.97209
2573.42402	0.97243
2571.37021	0.97279
2569.31640	0.97272
2567.26259	0.97252
2565.20878	0.97259
2563.15497	0.97281
2561.10116	0.97300
2559.04735	0.97299
2556.99354	0.97278
2554.93973	0.97274
2552.88592	0.97309
2550.83211	0.97334
2548.77830	0.97319
2546.72449	0.97317
2544.67068	0.97336
2542.61687	0.97344
2540.56306	0.97360
2538.50925	0.97392
2536.45544	0.97425
2534.40163	0.97455
2532.34782	0.97495
2530.29401	0.97536
2528.24020	0.97532
2526.18639	0.97500
2524.13258	0.97480
2522.07877	0.97477
2520.02496	0.97474
2517.97115	0.97456
2515.91734	0.97458
2513.86353	0.97492
2511.80972	0.97517
2509.75591	0.97495
2507.70210	0.97467
2505.64828	0.97489
2503.59447	0.97550
2501.54066	0.97600
2499.48685	0.97595
2497.43304	0.97566
2495.37923	0.97578
2493.32542	0.97596
2491.27161	0.97583
2489.21780	0.97580
2487.16399	0.97602
2485.11018	0.97622
2483.05637	0.97616
2481.00256	0.97596
2478.94875	0.97598
2476.89494	0.97615
2474.84113	0.97618
2472.78732	0.97599
2470.73351	0.97567
2468.67970	0.97563
2466.62589	0.97600
2464.57208	0.97625
2462.51827	0.97622
2460.46446	0.97630
2458.41065	0.97647
2456.35684	0.97640
2454.30303	0.97641
2452.24922	0.97688
2450.19541	0.97727
2448.14160	0.97713
2446.08779	0.97676
2444.03398	0.97659
2441.98017	0.97672
2439.92636	0.97690
2437.87255	0.97685
2435.81874	0.97648
2433.76493	0.97604
2431.71112	0.97607
2429.65731	0.97648
2427.60350	0.97676
2425.54969	0.97676
2423.49588	0.97648
2421.44207	0.97626
2419.38826	0.97649
2417.33445	0.97694
2415.28064	0.97719
2413.22683	0.97711
2411.17302	0.97684
2409.11921	0.97664
2407.06540	0.97647
2405.01159	0.97632
2402.95778	0.97639
2400.90397	0.97666
2398.85016	0.97694
2396.79635	0.97721
2394.74254	0.97714
2392.68873	0.97683
2390.63492	0.97678
2388.58111	0.97681
2386.52730	0.97661
2384.47349	0.97642
2382.41968	0.97657
2380.36587	0.97697
2378.31206	0.97731
2376.25825	0.97761
2374.20444	0.97790
2372.15063	0.97774
2370.09682	0.97716
2368.04301	0.97668
2365.98920	0.97642
2363.93539	0.97583
2361.88158	0.97489
2359.82777	0.97509
2357.77396	0.97638
2355.72015	0.97677
2353.66634	0.97606
2351.61253	0.97552
2349.55872	0.97551
2347.50491	0.97570
2345.45110	0.97594
2343.39729	0.97591
2341.34348	0.97538
2339.28967	0.97486
2337.23586	0.97460
2335.18205	0.97460
2333.12824	0.97505
2331.07443	0.97545
2329.02062	0.97503
2326.96681	0.97414
2324.91300	0.97381
2322.85919	0.97439
2320.80538	0.97523
2318.75157	0.97571
2316.69776	0.97568
2314.64395	0.97533
2312.59014	0.97477
2310.53633	0.97424
2308.48252	0.97437
2306.42871	0.97515
2304.37490	0.97565
2302.32109	0.97555
2300.26728	0.97535
2298.21347	0.97511
2296.15966	0.97490
2294.10585	0.97514
2292.05204	0.97597
2289.99823	0.97659
2287.94442	0.97628
2285.89061	0.97564
2283.83680	0.97541
2281.78299	0.97538
2279.72918	0.97567
2277.67537	0.97631
2275.62156	0.97677
2273.56775	0.97695
2271.51394	0.97675
2269.46013	0.97636
2267.40632	0.97647
2265.35251	0.97674
2263.29870	0.97676
2261.24489	0.97729
2259.19108	0.97792
2257.13727	0.97782
2255.08346	0.97759
2253.02965	0.97737
2250.97584	0.97703
2248.92203	0.97715
2246.86822	0.97750
2244.81441	0.97708
2242.76060	0.97584
2240.70679	0.97495
2238.65298	0.97510
2236.59917	0.97590
2234.54536	0.97681
2232.49155	0.97756
2230.43774	0.97803
2228.38393	0.97812
2226.33012	0.97795
2224.27631	0.97813
2222.22250	0.97899
2220.16869	0.97984
2218.11488	0.97948
2216.06107	0.97877
2214.00726	0.97949
2211.95344	0.98014
2209.89963	0.97939
2207.84582	0.97890
2205.79201	0.97895
2203.73820	0.97859
2201.68439	0.97834
2199.63058	0.97867
2197.57677	0.97861
2195.52296	0.97824
2193.46915	0.97841
2191.41534	0.97903
2189.36153	0.97942
2187.30772	0.97908
2185.25391	0.97852
2183.20010	0.97828
2181.14629	0.97837
2179.09248	0.97873
2177.03867	0.97962
2174.98486	0.98051
2172.93105	0.98049
2170.87724	0.98034
2168.82343	0.98075
2166.76962	0.98066
2164.71581	0.97958
2162.66200	0.97878
2160.60819	0.97927
2158.55438	0.98081
2156.50057	0.98223
2154.44676	0.98277
2152.39295	0.98269
2150.33914	0.98211
2148.28533	0.98123
2146.23152	0.98081
2144.17771	0.98119
2142.12390	0.98165
2140.07009	0.98151
2138.01628	0.98092
2135.96247	0.98072
2133.90866	0.98153
2131.85485	0.98229
2129.80104	0.98151
2127.74723	0.98006
2125.69342	0.97961
2123.63961	0.97964
2121.58580	0.97936
2119.53199	0.97933
2117.47818	0.97946
2115.42437	0.97939
2113.37056	0.97891
2111.31675	0.97832
2109.26294	0.97841
2107.20913	0.97867
2105.15532	0.97859
2103.10151	0.97859
2101.04770	0.97889
2098.99389	0.97930
2096.94008	0.97954
2094.88627	0.97980
2092.83246	0.97969
2090.77865	0.97908
2088.72484	0.97899
2086.67103	0.97939
2084.61722	0.97937
2082.56341	0.97893
2080.50960	0.97856
2078.45579	0.97842
2076.40198	0.97840
2074.34817	0.97816
2072.29436	0.97784
2070.24055	0.97811
2068.18674	0.97846
2066.13293	0.97806
2064.07912	0.97767
2062.02531	0.97792
2059.97150	0.97861
2057.91769	0.97920
2055.86388	0.97936
2053.81007	0.97916
2051.75626	0.97871
2049.70245	0.97890
2047.64864	0.97925
2045.59483	0.97871
2043.54102	0.97864
2041.48721	0.97912
2039.43340	0.97955
2037.37959	0.97996
2035.32578	0.97972
2033.27197	0.97975
2031.21816	0.98061
2029.16435	0.98081
2027.11054	0.98005
2025.05673	0.97981
2023.00292	0.98025
2020.94911	0.98052
2018.89530	0.98116
2016.84149	0.98122
2014.78768	0.97991
2012.73387	0.97933
2010.68006	0.98014
2008.62625	0.98148
2006.57244	0.98264
2004.51863	0.98265
2002.46482	0.98187
2000.41101	0.98178
1998.35720	0.98194
1996.30339	0.98134
1994.24958	0.98014
1992.19577	0.97886
1990.14196	0.97883
1988.08815	0.98004
1986.03434	0.98059
1983.98053	0.97956
1981.92672	0.97757
1979.87291	0.97652
1977.81910	0.97808
1975.76529	0.98091
1973.71148	0.98203
1971.65767	0.98129
1969.60386	0.98113
1967.55005	0.98221
1965.49624	0.98228
1963.44243	0.98058
1961.38862	0.97934
1959.33481	0.97975
1957.28100	0.98068
1955.22719	0.98114
1953.17338	0.98097
1951.11957	0.98035
1949.06576	0.97977
1947.01195	0.97922
1944.95814	0.97889
1942.90433	0.97930
1940.85052	0.97969
1938.79671	0.97936
1936.74290	0.97885
1934.68909	0.97861
1932.63528	0.97865
1930.58147	0.97853
1928.52766	0.97800
1926.47385	0.97773
1924.42004	0.97813
1922.36623	0.97862
1920.31242	0.97880
1918.25861	0.97885
1916.20479	0.97932
1914.15098	0.97976
1912.09717	0.97931
1910.04336	0.97843
1907.98955	0.97799
1905.93574	0.97794
1903.88193	0.97783
1901.82812	0.97788
1899.77431	0.97811
1897.72050	0.97814
1895.66669	0.97811
1893.61288	0.97803
1891.55907	0.97793
1889.50526	0.97810
1887.45145	0.97831
1885.39764	0.97833
1883.34383	0.97816
1881.29002	0.97774
1879.23621	0.97752
1877.18240	0.97768
1875.12859	0.97771
1873.07478	0.97761
1871.02097	0.97755
1868.96716	0.97758
1866.91335	0.97788
1864.85954	0.97813
1862.80573	0.97824
1860.75192	0.97827
1858.69811	0.97805
1856.64430	0.97764
1854.59049	0.97744
1852.53668	0.97748
1850.48287	0.97762
1848.42906	0.97804
1846.37525	0.97844
1844.32144	0.97840
1842.26763	0.97810
1840.21382	0.97795
1838.16001	0.97813
1836.10620	0.97816
1834.05239	0.97769
1831.99858	0.97737
1829.94477	0.97755
1827.89096	0.97784
1825.83715	0.97779
1823.78334	0.97738
1821.72953	0.97701
1819.67572	0.97673
1817.62191	0.97660
1815.56810	0.97670
1813.51429	0.97678
1811.46048	0.97668
1809.40667	0.97653
1807.35286	0.97635
1805.29905	0.97627
1803.24524	0.97637
1801.19143	0.97627
1799.13762	0.97581
1797.08381	0.97536
1795.03000	0.97522
1792.97619	0.97547
1790.92238	0.97557
1788.86857	0.97511
1786.81476	0.97459
1784.76095	0.97431
1782.70714	0.97416
1780.65333	0.97382
1778.59952	0.97334
1776.54571	0.97310
1774.49190	0.97297
1772.43809	0.97280
1770.38428	0.97278
1768.33047	0.97290
1766.27666	0.97288
1764.22285	0.97264
1762.16904	0.97212
1760.11523	0.97128
1758.06142	0.97027
1756.00761	0.96926
1753.95380	0.96839
1751.89999	0.96716
1749.84618	0.96467
1747.79237	0.96078
1745.73856	0.95624
1743.68475	0.95170
1741.63094	0.94814
1739.57713	0.94677
1737.52332	0.94746
1735.46951	0.94960
1733.41570	0.95317
1731.36189	0.95574
1729.30808	0.95662
1727.25427	0.95647
1725.20046	0.95542
1723.14665	0.95398
1721.09284	0.95262
1719.03903	0.95148
1716.98522	0.95060
1714.93141	0.94981
1712.87760	0.94928
1710.82379	0.94938
1708.76998	0.94991
1706.71617	0.95044
1704.66236	0.95064
1702.60855	0.95053
1700.55474	0.95036
1698.50093	0.95002
1696.44712	0.94949
1694.39331	0.94868
1692.33950	0.94772
1690.28569	0.94670
1688.23188	0.94560
1686.17807	0.94443
1684.12426	0.94276
1682.07045	0.94102
1680.01664	0.93969
1677.96283	0.93854
1675.90902	0.93723
1673.85521	0.93550
1671.80140	0.93376
1669.74759	0.93209
1667.69378	0.93055
1665.63997	0.92901
1663.58616	0.92719
1661.53235	0.92548
1659.47854	0.92436
1657.42473	0.92372
1655.37092	0.92341
1653.31711	0.92325
1651.26330	0.92304
1649.20949	0.92294
1647.15568	0.92323
1645.10187	0.92375
1643.04806	0.92415
1640.99425	0.92454
1638.94044	0.92484
1636.88663	0.92510
1634.83282	0.92564
1632.77901	0.92608
1630.72520	0.92643
1628.67139	0.92720
1626.61758	0.92846
1624.56377	0.92993
1622.50996	0.93147
1620.45614	0.93265
1618.40233	0.93369
1616.34852	0.93500
1614.29471	0.93601
1612.24090	0.93678
1610.18709	0.93775
1608.13328	0.93862
1606.07947	0.93924
1604.02566	0.93978
1601.97185	0.94021
1599.91804	0.94053
1597.86423	0.94091
1595.81042	0.94140
1593.75661	0.94181
1591.70280	0.94186
1589.64899	0.94159
1587.59518	0.94142
1585.54137	0.94131
1583.48756	0.94105
1581.43375	0.94067
1579.37994	0.94027
1577.32613	0.93989
1575.27232	0.93950
1573.21851	0.93925
1571.16470	0.93898
1569.11089	0.93854
1567.05708	0.93811
1565.00327	0.93767
1562.94946	0.93711
1560.89565	0.93663
1558.84184	0.93631
1556.78803	0.93591
1554.73422	0.93544
1552.68041	0.93492
1550.62660	0.93446
1548.57279	0.93417
1546.51898	0.93392
1544.46517	0.93365
1542.41136	0.93349
1540.35755	0.93375
1538.30374	0.93455
1536.24993	0.93530
1534.19612	0.93633
1532.14231	0.93764
1530.08850	0.93862
1528.03469	0.93941
1525.98088	0.94006
1523.92707	0.94069
1521.87326	0.94178
1519.81945	0.94282
1517.76564	0.94336
1515.71183	0.94392
1513.65802	0.94445
1511.60421	0.94474
1509.55040	0.94479
1507.49659	0.94504
1505.44278	0.94597
1503.38897	0.94652
1501.33516	0.94669
1499.28135	0.94658
1497.22754	0.94627
1495.17373	0.94595
1493.11992	0.94568
1491.06611	0.94531
1489.01230	0.94455
1486.95849	0.94341
1484.90468	0.94202
1482.85087	0.93969
1480.79706	0.93511
1478.74325	0.92534
1476.68944	0.90104
1474.63563	0.85262
1472.58182	0.79683
1470.52801	0.77269
1468.47420	0.77122
1466.42039	0.77016
1464.36658	0.77022
1462.31277	0.78193
1460.25896	0.80352
1458.20515	0.82797
1456.15134	0.84853
1454.09753	0.86147
1452.04372	0.87192
1449.98991	0.88115
1447.93610	0.88813
1445.88229	0.89288
1443.82848	0.89605
1441.77467	0.89849
1439.72086	0.90069
1437.66705	0.90346
1435.61324	0.90704
1433.55943	0.91011
1431.50562	0.91314
1429.45181	0.91667
1427.39800	0.91958
1425.34419	0.92155
1423.29038	0.92315
1421.23657	0.92439
1419.18276	0.92539
1417.12895	0.92601
1415.07514	0.92634
1413.02133	0.92686
1410.96752	0.92775
1408.91371	0.92886
1406.85990	0.92995
1404.80609	0.93111
1402.75228	0.93216
1400.69847	0.93286
1398.64466	0.93354
1396.59085	0.93452
1394.53704	0.93546
1392.48323	0.93585
1390.42942	0.93554
1388.37561	0.93466
1386.32180	0.93322
1384.26799	0.93074
1382.21418	0.92651
1380.16037	0.92112
1378.10656	0.91693
1376.05275	0.91588
1373.99894	0.91736
1371.94513	0.91900
1369.89132	0.92014
1367.83751	0.92147
1365.78370	0.92328
1363.72989	0.92566
1361.67608	0.92833
1359.62227	0.93028
1357.56846	0.93136
1355.51465	0.93201
1353.46084	0.93249
1351.40703	0.93301
1349.35322	0.93390
1347.29941	0.93508
1345.24560	0.93610
1343.19179	0.93682
1341.13798	0.93735
1339.08417	0.93790
1337.03036	0.93857
1334.97655	0.93920
1332.92274	0.93977
1330.86893	0.94032
1328.81512	0.94065
1326.76130	0.94057
1324.70749	0.94031
1322.65368	0.93998
1320.59987	0.93949
1318.54606	0.93894
1316.49225	0.93848
1314.43844	0.93796
1312.38463	0.93738
1310.33082	0.93683
1308.27701	0.93635
1306.22320	0.93606
1304.16939	0.93588
1302.11558	0.93562
1300.06177	0.93532
1298.00796	0.93526
1295.95415	0.93557
1293.90034	0.93605
1291.84653	0.93626
1289.79272	0.93613
1287.73891	0.93601
1285.68510	0.93615
1283.63129	0.93627
1281.57748	0.93611
1279.52367	0.93583
1277.46986	0.93556
1275.41605	0.93522
1273.36224	0.93471
1271.30843	0.93410
1269.25462	0.93342
1267.20081	0.93239
1265.14700	0.93088
1263.09319	0.92892
1261.03938	0.92671
1258.98557	0.92461
1256.93176	0.92261
1254.87795	0.92041
1252.82414	0.91792
1250.77033	0.91516
1248.71652	0.91227
1246.66271	0.90967
1244.60890	0.90763
1242.55509	0.90625
1240.50128	0.90564
1238.44747	0.90584
1236.39366	0.90681
1234.33985	0.90844
1232.28604	0.91032
1230.23223	0.91207
1228.17842	0.91353
1226.12461	0.91462
1224.07080	0.91531
1222.01699	0.91572
1219.96318	0.91600
1217.90937	0.91622
1215.85556	0.91635
1213.80175	0.91629
1211.74794	0.91616
1209.69413	0.91606
1207.64032	0.91583
1205.58651	0.91557
1203.53270	0.91535
1201.47889	0.91493
1199.42508	0.91434
1197.37127	0.91396
1195.31746	0.91367
1193.26365	0.91304
1191.20984	0.91235
1189.15603	0.91181
1187.10222	0.91110
1185.04841	0.91020
1182.99460	0.90907
1180.94079	0.90764
1178.88698	0.90617
1176.83317	0.90480
1174.77936	0.90322
1172.72555	0.90118
1170.67174	0.89883
1168.61793	0.89642
1166.56412	0.89441
1164.51031	0.89314
1162.45650	0.89221
1160.40269	0.89113
1158.34888	0.89004
1156.29507	0.88913
1154.24126	0.88806
1152.18745	0.88658
1150.13364	0.88501
1148.07983	0.88371
1146.02602	0.88250
1143.97221	0.88104
1141.91840	0.87937
1139.86459	0.87750
1137.81078	0.87534
1135.75697	0.87290
1133.70316	0.87005
1131.64935	0.86687
1129.59554	0.86359
1127.54173	0.86029
1125.48792	0.85688
1123.43411	0.85333
1121.38030	0.84989
1119.32649	0.84687
1117.27268	0.84427
1115.21887	0.84173
1113.16506	0.83901
1111.11125	0.83613
1109.05744	0.83311
1107.00363	0.82978
1104.94982	0.82635
1102.89601	0.82310
1100.84220	0.81971
1098.78839	0.81602
1096.73458	0.81206
1094.68077	0.80799
1092.62696	0.80440
1090.57315	0.80128
1088.51934	0.79819
1086.46553	0.79535
1084.41172	0.79289
1082.35791	0.79031
1080.30410	0.78735
1078.25029	0.78442
1076.19648	0.78194
1074.14267	0.77954
1072.08886	0.77688
1070.03505	0.77404
1067.98124	0.77112
1065.92743	0.76816
1063.87362	0.76512
1061.81981	0.76199
1059.76600	0.75878
1057.71219	0.75549
1055.65838	0.75218
1053.60457	0.74865
1051.55076	0.74492
1049.49695	0.74149
1047.44314	0.73867
1045.38933	0.73618
1043.33552	0.73381
1041.28171	0.73195
1039.22790	0.73113
1037.17409	0.73118
1035.12028	0.73167
1033.06647	0.73275
1031.01265	0.73451
1028.95884	0.73675
1026.90503	0.73943
1024.85122	0.74268
1022.79741	0.74643
1020.74360	0.75018
1018.68979	0.75331
1016.63598	0.75576
1014.58217	0.75808
1012.52836	0.76059
1010.47455	0.76348
1008.42074	0.76708
1006.36693	0.77154
1004.31312	0.77679
1002.25931	0.78285
1000.20550	0.78959
998.15169	0.79646
996.09788	0.80314
994.04407	0.80981
991.99026	0.81658
989.93645	0.82319
987.88264	0.82939
985.82883	0.83536
983.77502	0.84120
981.72121	0.84671
979.66740	0.85175
977.61359	0.85640
975.55978	0.86076
973.50597	0.86503
971.45216	0.86923
969.39835	0.87292
967.34454	0.87621
965.29073	0.87958
963.23692	0.88274
961.18311	0.88511
959.12930	0.88678
957.07549	0.88832
955.02168	0.88988
952.96787	0.89127
950.91406	0.89254
948.86025	0.89353
946.80644	0.89402
944.75263	0.89438
942.69882	0.89494
940.64501	0.89549
938.59120	0.89572
936.53739	0.89562
934.48358	0.89545
932.42977	0.89539
930.37596	0.89522
928.32215	0.89502
926.26834	0.89481
924.21453	0.89410
922.16072	0.89291
920.10691	0.89158
918.05310	0.89000
915.99929	0.88816
913.94548	0.88686
911.89167	0.88708
909.83786	0.88881
907.78405	0.89148
905.73024	0.89461
903.67643	0.89777
901.62262	0.90065
899.56881	0.90322
897.51500	0.90572
895.46119	0.90803
893.40738	0.90991
891.35357	0.91176
889.29976	0.91355
887.24595	0.91467
885.19214	0.91533
883.13833	0.91594
881.08452	0.91625
879.03071	0.91639
876.97690	0.91691
874.92309	0.91790
872.86928	0.91933
870.81547	0.92102
868.76166	0.92253
866.70785	0.92355
864.65404	0.92408
862.60023	0.92440
860.54642	0.92477
858.49261	0.92515
856.43880	0.92541
854.38499	0.92596
852.33118	0.92718
850.27737	0.92796
848.22356	0.92782
846.16975	0.92780
844.11594	0.92777
842.06213	0.92721
840.00832	0.92658
837.95451	0.92612
835.90070	0.92572
833.84689	0.92516
831.79308	0.92438
829.73927	0.92383
827.68546	0.92340
825.63165	0.92292
823.57784	0.92256
821.52403	0.92211
819.47022	0.92139
817.41641	0.92044
815.36260	0.91938
813.30879	0.91827
811.25498	0.91691
809.20117	0.91526
807.14736	0.91329
805.09355	0.91072
803.03974	0.90802
800.98593	0.90621
798.93212	0.90539
796.87831	0.90521
794.82450	0.90558
792.77069	0.90613
790.71688	0.90640
788.66307	0.90657
786.60926	0.90661
784.55545	0.90588
782.50164	0.90472
780.44783	0.90399
778.39402	0.90386
776.34021	0.90426
774.28640	0.90517
772.23259	0.90613
770.17878	0.90666
768.12497	0.90648
766.07116	0.90553
764.01735	0.90441
761.96354	0.90367
759.90973	0.90307
757.85592	0.90223
755.80211	0.90106
753.74830	0.89992
751.69449	0.89921
749.64068	0.89876
747.58687	0.89812
745.53306	0.89684
743.47925	0.89524
741.42544	0.89376
739.37163	0.89191
737.31781	0.88859
735.26400	0.88022
733.21019	0.86024
731.15638	0.83169
729.10257	0.81268
727.04876	0.80819
724.99495	0.79964
722.94114	0.77301
720.88733	0.73404
718.83352	0.70756
716.77971	0.71682
714.72590	0.75622
712.67209	0.80023
710.61828	0.83047
708.56447	0.84663
706.51066	0.85531
704.45685	0.86052
702.40304	0.86347
700.34923	0.86501
698.29542	0.86570
696.24161	0.86572
694.18780	0.86613
692.13399	0.86719
690.08018	0.86758
688.02637	0.86760
685.97256	0.86844
683.91875	0.86927
681.86494	0.86946
679.81113	0.86948
677.75732	0.86961
675.70351	0.87003
673.64970	0.87053
671.59589	0.87084
669.54208	0.87104
667.48827	0.87103
665.43446	0.87094
663.38065	0.87063
661.32684	0.87025
659.27303	0.87024
657.21922	0.87049
655.16541	0.87064
653.11160	0.87011
651.05779	0.86894
649.00398	0.86762
646.95017	0.86627
644.89636	0.86527
642.84255	0.86479
640.78874	0.86417
638.73493	0.86359
636.68112	0.86362
634.62731	0.86317
632.57350	0.86173
630.51969	0.86016
628.46588	0.85913
626.41207	0.85870
624.35826	0.85836
622.30445	0.85729
620.25064	0.85540
618.19683	0.85375
616.14302	0.85252
614.08921	0.85106
612.03540	0.84947
609.98159	0.84768
607.92778	0.84582
605.87397	0.84478
603.82016	0.84441
601.76635	0.84322
599.71254	0.84108
597.65873	0.83884
595.60492	0.83665
593.55111	0.83522
591.49730	0.83418
589.44349	0.83166
587.38968	0.82871
585.33587	0.82680
583.28206	0.82469
581.22825	0.82209
579.17444	0.81973
577.12063	0.81760
575.06682	0.81563
573.01301	0.81329
570.95920	0.81083
568.90539	0.80852
566.85158	0.80606
564.79777	0.80471
562.74396	0.80469
560.69015	0.80346
558.63634	0.80078
556.58253	0.79908
554.52872	0.79775
552.47491	0.79522
550.42110	0.79308
548.36729	0.79224
546.31348	0.79121
544.25967	0.78916
542.20586	0.78643
540.15205	0.78390
538.09824	0.78282
536.04443	0.78310
533.99062	0.78326
531.93681	0.78279
529.88300	0.78301
527.82919	0.78482
525.77538	0.78703
523.72157	0.78888
521.66776	0.79077
519.61395	0.79291
517.56014	0.79568
515.50633	0.79831
513.45252	0.80039
511.39871	0.80336
509.34490	0.80746
507.29109	0.81027
505.23728	0.81031
503.18347	0.80933
501.12966	0.80898
499.07585	0.80928
497.02204	0.80947
494.96823	0.80839
492.91442	0.80576
490.86061	0.80332
488.80680	0.80140
486.75299	0.79702
484.69918	0.78914
482.64537	0.78115
480.59156	0.77465
478.53775	0.76705
476.48394	0.75863
474.43013	0.75173
472.37632	0.74658
470.32251	0.74366
468.26870	0.74305
466.21489	0.74458
464.16108	0.74799
462.10727	0.75267
460.05346	0.75825
457.99965	0.76622
455.94584	0.77752
453.89203	0.78737
451.83822	0.79197
449.78441	0.79278
447.73060	0.79402
445.67679	0.79693
443.62298	0.79827
441.56916	0.79695
439.51535	0.79554
437.46154	0.79451
435.40773	0.79335
433.35392	0.79168
431.30011	0.78979
429.24630	0.79000
427.19249	0.79404
425.13868	0.80021
423.08487	0.80569
421.03106	0.81049
418.97725	0.81501
416.92344	0.82041
414.86963	0.82585
412.81582	0.82664
410.76201	0.82529
408.70820	0.82955
406.65439	0.83781
404.60058	0.84426
402.54677	0.84722
400.49296	0.84705
398.43915	0.84695
