3996.71440	0.99231
3994.66059	0.99252
3992.60678	0.99227
3990.55297	0.99194
3988.49916	0.99194
3986.44535	0.99207
3984.39154	0.99203
3982.33773	0.99199
3980.28391	0.99221
3978.23010	0.99270
3976.17629	0.99297
3974.12248	0.99281
3972.06867	0.99268
3970.01486	0.99272
3967.96105	0.99256
3965.90724	0.99235
3963.85343	0.99233
3961.79962	0.99220
3959.74581	0.99210
3957.69200	0.99254
3955.63819	0.99307
3953.58438	0.99316
3951.53057	0.99330
3949.47676	0.99356
3947.42295	0.99356
3945.36914	0.99352
3943.31533	0.99358
3941.26152	0.99351
3939.20771	0.99333
3937.15390	0.99303
3935.10009	0.99273
3933.04628	0.99299
3930.99247	0.99353
3928.93866	0.99341
3926.88485	0.99298
3924.83104	0.99277
3922.77723	0.99261
3920.72342	0.99248
3918.66961	0.99256
3916.61580	0.99275
3914.56199	0.99292
3912.50818	0.99308
3910.45437	0.99324
3908.40056	0.99335
3906.34675	0.99347
3904.29294	0.99367
3902.23913	0.99353
3900.18532	0.99348
3898.13151	0.99372
3896.07770	0.99354
3894.02389	0.99302
3891.97008	0.99295
3889.91627	0.99343
3887.86246	0.99374
3885.80865	0.99376
3883.75484	0.99366
3881.70103	0.99356
3879.64722	0.99340
3877.59341	0.99306
3875.53960	0.99295
3873.48579	0.99335
3871.43198	0.99353
3869.37817	0.99335
3867.32436	0.99352
3865.27055	0.99386
3863.21674	0.99399
3861.16293	0.99373
3859.10912	0.99329
3857.05531	0.99315
3855.00150	0.99337
3852.94769	0.99357
3850.89388	0.99337
3848.84007	0.99301
3846.78626	0.99296
3844.73245	0.99318
3842.67864	0.99318
3840.62483	0.99317
3838.57102	0.99340
3836.51721	0.99349
3834.46340	0.99340
3832.40959	0.99334
3830.35578	0.99349
3828.30197	0.99367
3826.24816	0.99375
3824.19435	0.99385
3822.14054	0.99415
3820.08673	0.99438
3818.03292	0.99418
3815.97911	0.99379
3813.92530	0.99335
3811.87149	0.99311
3809.81768	0.99313
3807.76387	0.99341
3805.71006	0.99380
3803.65625	0.99401
3801.60244	0.99412
3799.54863	0.99397
3797.49482	0.99336
3795.44101	0.99274
3793.38720	0.99271
3791.33339	0.99311
3789.27958	0.99325
3787.22577	0.99304
3785.17196	0.99315
3783.11815	0.99356
3781.06434	0.99365
3779.01053	0.99346
3776.95672	0.99342
3774.90291	0.99355
3772.84910	0.99354
3770.79529	0.99353
3768.74148	0.99346
3766.68767	0.99303
3764.63386	0.99284
3762.58005	0.99321
3760.52624	0.99370
3758.47243	0.99383
3756.41862	0.99357
3754.36481	0.99349
3752.31100	0.99387
3750.25719	0.99405
3748.20338	0.99353
3746.14957	0.99323
3744.09576	0.99375
3742.04195	0.99414
3739.98814	0.99408
3737.93433	0.99441
3735.88052	0.99500
3733.82671	0.99506
3731.77290	0.99485
3729.71909	0.99463
3727.66528	0.99440
3725.61147	0.99431
3723.55766	0.99408
3721.50385	0.99355
3719.45004	0.99325
3717.39623	0.99312
3715.34242	0.99292
3713.28861	0.99291
3711.23480	0.99310
3709.18099	0.99315
3707.12718	0.99307
3705.07337	0.99290
3703.01956	0.99272
3700.96575	0.99274
3698.91194	0.99264
3696.85813	0.99238
3694.80432	0.99247
3692.75051	0.99308
3690.69670	0.99368
3688.64289	0.99371
3686.58907	0.99330
3684.53526	0.99298
3682.48145	0.99301
3680.42764	0.99324
3678.37383	0.99353
3676.32002	0.99378
3674.26621	0.99352
3672.21240	0.99321
3670.15859	0.99308
3668.10478	0.99265
3666.05097	0.99224
3663.99716	0.99216
3661.94335	0.99208
3659.88954	0.99196
3657.83573	0.99216
3655.78192	0.99243
3653.72811	0.99250
3651.67430	0.99254
3649.62049	0.99253
3647.56668	0.99227
3645.51287	0.99164
3643.45906	0.99109
3641.40525	0.99104
3639.35144	0.99131
3637.29763	0.99139
3635.24382	0.99117
3633.19001	0.99068
3631.13620	0.99028
3629.08239	0.99047
3627.02858	0.99059
3624.97477	0.99008
3622.92096	0.98990
3620.86715	0.99043
3618.81334	0.99079
3616.75953	0.99051
3614.70572	0.99014
3612.65191	0.98989
3610.59810	0.98987
3608.54429	0.98988
3606.49048	0.98985
3604.43667	0.98987
3602.38286	0.98962
3600.32905	0.98918
3598.27524	0.98864
3596.22143	0.98802
3594.16762	0.98782
3592.11381	0.98789
3590.06000	0.98791
3588.00619	0.98789
3585.95238	0.98767
3583.89857	0.98732
3581.84476	0.98702
3579.79095	0.98707
3577.73714	0.98720
3575.68333	0.98704
3573.62952	0.98682
3571.57571	0.98654
3569.52190	0.98627
3567.46809	0.98634
3565.41428	0.98617
3563.36047	0.98555
3561.30666	0.98516
3559.25285	0.98495
3557.19904	0.98461
3555.14523	0.98424
3553.09142	0.98400
3551.03761	0.98383
3548.98380	0.98359
3546.92999	0.98322
3544.87618	0.98272
3542.82237	0.98219
3540.76856	0.98182
3538.71475	0.98157
3536.66094	0.98121
3534.60713	0.98095
3532.55332	0.98085
3530.49951	0.98071
3528.44570	0.98060
3526.39189	0.98053
3524.33808	0.98042
3522.28427	0.98044
3520.23046	0.98051
3518.17665	0.98039
3516.12284	0.97997
3514.06903	0.97962
3512.01522	0.97976
3509.96141	0.97984
3507.90760	0.97935
3505.85379	0.97887
3503.79998	0.97877
3501.74617	0.97873
3499.69236	0.97841
3497.63855	0.97818
3495.58474	0.97820
3493.53093	0.97807
3491.47712	0.97766
3489.42331	0.97713
3487.36950	0.97666
3485.31569	0.97646
3483.26188	0.97642
3481.20807	0.97639
3479.15426	0.97646
3477.10045	0.97662
3475.04664	0.97653
3472.99283	0.97614
3470.93902	0.97583
3468.88521	0.97563
3466.83140	0.97562
3464.77759	0.97562
3462.72378	0.97538
3460.66997	0.97512
3458.61616	0.97493
3456.56235	0.97486
3454.50854	0.97489
3452.45473	0.97493
3450.40092	0.97500
3448.34711	0.97509
3446.29330	0.97491
3444.23949	0.97457
3442.18568	0.97442
3440.13187	0.97442
3438.07806	0.97441
3436.02425	0.97440
3433.97044	0.97452
3431.91663	0.97451
3429.86282	0.97405
3427.80901	0.97373
3425.75520	0.97392
3423.70139	0.97392
3421.64758	0.97360
3419.59377	0.97331
3417.53996	0.97308
3415.48615	0.97310
3413.43234	0.97311
3411.37853	0.97278
3409.32472	0.97243
3407.27091	0.97243
3405.21710	0.97283
3403.16329	0.97331
3401.10948	0.97347
3399.05567	0.97326
3397.00186	0.97304
3394.94805	0.97310
3392.89424	0.97319
3390.84042	0.97295
3388.78661	0.97262
3386.73280	0.97255
3384.67899	0.97265
3382.62518	0.97272
3380.57137	0.97272
3378.51756	0.97259
3376.46375	0.97261
3374.40994	0.97308
3372.35613	0.97342
3370.30232	0.97333
3368.24851	0.97325
3366.19470	0.97332
3364.14089	0.97340
3362.08708	0.97335
3360.03327	0.97319
3357.97946	0.97306
3355.92565	0.97311
3353.87184	0.97340
3351.81803	0.97352
3349.76422	0.97341
3347.71041	0.97327
3345.65660	0.97313
3343.60279	0.97329
3341.54898	0.97363
3339.49517	0.97373
3337.44136	0.97370
3335.38755	0.97356
3333.33374	0.97336
3331.27993	0.97351
3329.22612	0.97405
3327.17231	0.97456
3325.11850	0.97485
3323.06469	0.97496
3321.01088	0.97480
3318.95707	0.97469
3316.90326	0.97471
3314.84945	0.97473
3312.79564	0.97496
3310.74183	0.97516
3308.68802	0.97498
3306.63421	0.97471
3304.58040	0.97468
3302.52659	0.97477
3300.47278	0.97485
3298.41897	0.97487
3296.36516	0.97480
3294.31135	0.97478
3292.25754	0.97472
3290.20373	0.97471
3288.14992	0.97477
3286.09611	0.97460
3284.04230	0.97453
3281.98849	0.97494
3279.93468	0.97545
3277.88087	0.97569
3275.82706	0.97577
3273.77325	0.97577
3271.71944	0.97596
3269.66563	0.97629
3267.61182	0.97635
3265.55801	0.97612
3263.50420	0.97601
3261.45039	0.97606
3259.39658	0.97616
3257.34277	0.97633
3255.28896	0.97640
3253.23515	0.97623
3251.18134	0.97608
3249.12753	0.97627
3247.07372	0.97673
3245.01991	0.97698
3242.96610	0.97663
3240.91229	0.97610
3238.85848	0.97616
3236.80467	0.97660
3234.75086	0.97677
3232.69705	0.97672
3230.64324	0.97678
3228.58943	0.97709
3226.53562	0.97754
3224.48181	0.97772
3222.42800	0.97736
3220.37419	0.97693
3218.32038	0.97683
3216.26657	0.97658
3214.21276	0.97618
3212.15895	0.97607
3210.10514	0.97607
3208.05133	0.97614
3205.99752	0.97653
3203.94371	0.97678
3201.88990	0.97663
3199.83609	0.97653
3197.78228	0.97650
3195.72847	0.97638
3193.67466	0.97636
3191.62085	0.97647
3189.56704	0.97663
3187.51323	0.97684
3185.45942	0.97724
3183.40561	0.97770
3181.35180	0.97781
3179.29799	0.97756
3177.24418	0.97745
3175.19037	0.97778
3173.13656	0.97812
3171.08275	0.97811
3169.02894	0.97803
3166.97513	0.97800
3164.92132	0.97810
3162.86751	0.97838
3160.81370	0.97850
3158.75989	0.97840
3156.70608	0.97834
3154.65227	0.97830
3152.59846	0.97825
3150.54465	0.97834
3148.49084	0.97864
3146.43703	0.97912
3144.38322	0.97942
3142.32941	0.97930
3140.27560	0.97903
3138.22179	0.97894
3136.16798	0.97907
3134.11417	0.97927
3132.06036	0.97944
3130.00655	0.97971
3127.95274	0.98001
3125.89893	0.98015
3123.84512	0.98004
3121.79131	0.97993
3119.73750	0.98013
3117.68369	0.98059
3115.62988	0.98099
3113.57607	0.98108
3111.52226	0.98096
3109.46845	0.98078
3107.41464	0.98071
3105.36083	0.98072
3103.30702	0.98070
3101.25321	0.98077
3099.19940	0.98098
3097.14559	0.98130
3095.09177	0.98169
3093.03796	0.98210
3090.98415	0.98219
3088.93034	0.98186
3086.87653	0.98168
3084.82272	0.98178
3082.76891	0.98175
3080.71510	0.98166
3078.66129	0.98175
3076.60748	0.98186
3074.55367	0.98187
3072.49986	0.98207
3070.44605	0.98247
3068.39224	0.98260
3066.33843	0.98246
3064.28462	0.98236
3062.23081	0.98237
3060.17700	0.98241
3058.12319	0.98247
3056.06938	0.98250
3054.01557	0.98235
3051.96176	0.98218
3049.90795	0.98209
3047.85414	0.98200
3045.80033	0.98195
3043.74652	0.98194
3041.69271	0.98196
3039.63890	0.98214
3037.58509	0.98254
3035.53128	0.98276
3033.47747	0.98269
3031.42366	0.98247
3029.36985	0.98189
3027.31604	0.98138
3025.26223	0.98130
3023.20842	0.98115
3021.15461	0.98071
3019.10080	0.98010
3017.04699	0.97950
3014.99318	0.97909
3012.93937	0.97864
3010.88556	0.97791
3008.83175	0.97684
3006.77794	0.97551
3004.72413	0.97425
3002.67032	0.97303
3000.61651	0.97154
2998.56270	0.96976
2996.50889	0.96777
2994.45508	0.96546
2992.40127	0.96253
2990.34746	0.95890
2988.29365	0.95480
2986.23984	0.95025
2984.18603	0.94481
2982.13222	0.93783
2980.07841	0.92894
2978.02460	0.91788
2975.97079	0.90391
2973.91698	0.88608
2971.86317	0.86368
2969.80936	0.83612
2967.75555	0.80354
2965.70174	0.76751
2963.64793	0.73160
2961.59412	0.70126
2959.54031	0.68049
2957.48650	0.66751
2955.43269	0.65574
2953.37888	0.64086
2951.32507	0.62680
2949.27126	0.62419
2947.21745	0.64208
2945.16364	0.67897
2943.10983	0.72227
2941.05602	0.75746
2939.00221	0.77654
2936.94840	0.77889
2934.89459	0.76747
2932.84078	0.74578
2930.78697	0.71751
2928.73316	0.68706
2926.67935	0.65854
2924.62554	0.63381
2922.57173	0.61240
2920.51792	0.59430
2918.46411	0.58357
2916.41030	0.58652
2914.35649	0.60440
2912.30268	0.63028
2910.24887	0.65517
2908.19506	0.67541
2906.14125	0.69314
2904.08744	0.71165
2902.03363	0.73203
2899.97982	0.75320
2897.92601	0.77290
2895.87220	0.78905
2893.81839	0.80057
2891.76458	0.80700
2889.71077	0.80857
2887.65696	0.80620
2885.60315	0.80070
2883.54934	0.79217
2881.49553	0.78082
2879.44172	0.76851
2877.38791	0.75962
2875.33410	0.75740
2873.28029	0.75896
2871.22648	0.75852
2869.17267	0.75503
2867.11886	0.75499
2865.06505	0.76838
2863.01124	0.79867
2860.95743	0.83740
2858.90362	0.87228
2856.84981	0.89741
2854.79600	0.91365
2852.74219	0.92363
2850.68838	0.92732
2848.63457	0.92111
2846.58076	0.90165
2844.52695	0.86994
2842.47314	0.83203
2840.41933	0.79683
2838.36552	0.77428
2836.31171	0.77336
2834.25790	0.79595
2832.20409	0.83239
2830.15028	0.86837
2828.09647	0.89570
2826.04266	0.91416
2823.98885	0.92654
2821.93504	0.93503
2819.88123	0.94100
2817.82742	0.94537
2815.77361	0.94876
2813.71980	0.95145
2811.66599	0.95341
2809.61218	0.95498
2807.55837	0.95708
2805.50456	0.95989
2803.45075	0.96268
2801.39693	0.96496
2799.34312	0.96658
2797.28931	0.96774
2795.23550	0.96886
2793.18169	0.97008
2791.12788	0.97121
2789.07407	0.97232
2787.02026	0.97361
2784.96645	0.97492
2782.91264	0.97600
2780.85883	0.97679
2778.80502	0.97741
2776.75121	0.97800
2774.69740	0.97851
2772.64359	0.97885
2770.58978	0.97914
2768.53597	0.97938
2766.48216	0.97948
2764.42835	0.97955
2762.37454	0.97981
2760.32073	0.98027
2758.26692	0.98069
2756.21311	0.98104
2754.15930	0.98134
2752.10549	0.98145
2750.05168	0.98135
2747.99787	0.98129
2745.94406	0.98118
2743.89025	0.98074
2741.83644	0.98006
2739.78263	0.97933
2737.72882	0.97864
2735.67501	0.97811
2733.62120	0.97768
2731.56739	0.97697
2729.51358	0.97586
2727.45977	0.97455
2725.40596	0.97344
2723.35215	0.97301
2721.29834	0.97344
2719.24453	0.97449
2717.19072	0.97581
2715.13691	0.97697
2713.08310	0.97780
2711.02929	0.97853
2708.97548	0.97936
2706.92167	0.98030
2704.86786	0.98111
2702.81405	0.98149
2700.76024	0.98163
2698.70643	0.98179
2696.65262	0.98195
2694.59881	0.98201
2692.54500	0.98191
2690.49119	0.98186
2688.43738	0.98213
2686.38357	0.98238
2684.32976	0.98228
2682.27595	0.98203
2680.22214	0.98174
2678.16833	0.98163
2676.11452	0.98198
2674.06071	0.98248
2672.00690	0.98268
2669.95309	0.98277
2667.89928	0.98292
2665.84547	0.98288
2663.79166	0.98262
2661.73785	0.98246
2659.68404	0.98234
2657.63023	0.98221
2655.57642	0.98239
2653.52261	0.98286
2651.46880	0.98320
2649.41499	0.98338
2647.36118	0.98371
2645.30737	0.98396
2643.25356	0.98384
2641.19975	0.98386
2639.14594	0.98441
2637.09213	0.98492
2635.03832	0.98488
2632.98451	0.98465
2630.93070	0.98468
2628.87689	0.98488
2626.82308	0.98506
2624.76927	0.98504
2622.71546	0.98474
2620.66165	0.98432
2618.60784	0.98394
2616.55403	0.98357
2614.50022	0.98338
2612.44641	0.98356
2610.39260	0.98397
2608.33879	0.98427
2606.28498	0.98457
2604.23117	0.98501
2602.17736	0.98526
2600.12355	0.98525
2598.06974	0.98527
2596.01593	0.98535
2593.96212	0.98532
2591.90831	0.98512
2589.85450	0.98483
2587.80069	0.98462
2585.74688	0.98446
2583.69307	0.98429
2581.63926	0.98423
2579.58545	0.98434
2577.53164	0.98468
2575.47783	0.98500
2573.42402	0.98510
2571.37021	0.98541
2569.31640	0.98624
2567.26259	0.98708
2565.20878	0.98728
2563.15497	0.98689
2561.10116	0.98674
2559.04735	0.98720
2556.99354	0.98787
2554.93973	0.98823
2552.88592	0.98800
2550.83211	0.98776
2548.77830	0.98810
2546.72449	0.98862
2544.67068	0.98883
2542.61687	0.98869
2540.56306	0.98837
2538.50925	0.98839
2536.45544	0.98887
2534.40163	0.98924
2532.34782	0.98932
2530.29401	0.98934
2528.24020	0.98936
2526.18639	0.98946
2524.13258	0.98970
2522.07877	0.98989
2520.02496	0.98997
2517.97115	0.99022
2515.91734	0.99036
2513.86353	0.98994
2511.80972	0.98942
2509.75591	0.98967
2507.70210	0.99057
2505.64828	0.99106
2503.59447	0.99085
2501.54066	0.99068
2499.48685	0.99092
2497.43304	0.99101
2495.37923	0.99056
2493.32542	0.99027
2491.27161	0.99061
2489.21780	0.99100
2487.16399	0.99118
2485.11018	0.99128
2483.05637	0.99127
2481.00256	0.99124
2478.94875	0.99148
2476.89494	0.99183
2474.84113	0.99171
2472.78732	0.99123
2470.73351	0.99093
2468.67970	0.99103
2466.62589	0.99138
2464.57208	0.99150
2462.51827	0.99138
2460.46446	0.99155
2458.41065	0.99158
2456.35684	0.99103
2454.30303	0.99072
2452.24922	0.99104
2450.19541	0.99126
2448.14160	0.99122
2446.08779	0.99118
2444.03398	0.99103
2441.98017	0.99085
2439.92636	0.99095
2437.87255	0.99117
2435.81874	0.99114
2433.76493	0.99078
2431.71112	0.99054
2429.65731	0.99099
2427.60350	0.99179
2425.54969	0.99222
2423.49588	0.99211
2421.44207	0.99163
2419.38826	0.99134
2417.33445	0.99147
2415.28064	0.99156
2413.22683	0.99141
2411.17302	0.99134
2409.11921	0.99142
2407.06540	0.99146
2405.01159	0.99152
2402.95778	0.99156
2400.90397	0.99156
2398.85016	0.99167
2396.79635	0.99197
2394.74254	0.99223
2392.68873	0.99212
2390.63492	0.99180
2388.58111	0.99157
2386.52730	0.99161
2384.47349	0.99190
2382.41968	0.99234
2380.36587	0.99275
2378.31206	0.99276
2376.25825	0.99244
2374.20444	0.99233
2372.15063	0.99246
2370.09682	0.99239
2368.04301	0.99198
2365.98920	0.99202
2363.93539	0.99263
2361.88158	0.99195
2359.82777	0.99044
2357.77396	0.99022
2355.72015	0.99107
2353.66634	0.99180
2351.61253	0.99212
2349.55872	0.99204
2347.50491	0.99190
2345.45110	0.99215
2343.39729	0.99259
2341.34348	0.99259
2339.28967	0.99210
2337.23586	0.99150
2335.18205	0.99131
2333.12824	0.99134
2331.07443	0.99143
2329.02062	0.99171
2326.96681	0.99163
2324.91300	0.99132
2322.85919	0.99134
2320.80538	0.99122
2318.75157	0.99093
2316.69776	0.99104
2314.64395	0.99147
2312.59014	0.99169
2310.53633	0.99190
2308.48252	0.99240
2306.42871	0.99261
2304.37490	0.99243
2302.32109	0.99254
2300.26728	0.99275
2298.21347	0.99243
2296.15966	0.99202
2294.10585	0.99198
2292.05204	0.99193
2289.99823	0.99177
2287.94442	0.99185
2285.89061	0.99204
2283.83680	0.99212
2281.78299	0.99218
2279.72918	0.99237
2277.67537	0.99256
2275.62156	0.99245
2273.56775	0.99242
2271.51394	0.99267
2269.46013	0.99270
2267.40632	0.99266
2265.35251	0.99279
2263.29870	0.99274
2261.24489	0.99241
2259.19108	0.99223
2257.13727	0.99206
2255.08346	0.99202
2253.02965	0.99262
2250.97584	0.99299
2248.92203	0.99279
2246.86822	0.99254
2244.81441	0.99169
2242.76060	0.99110
2240.70679	0.99238
2238.65298	0.99413
2236.59917	0.99465
2234.54536	0.99440
2232.49155	0.99411
2230.43774	0.99359
2228.38393	0.99287
2226.33012	0.99299
2224.27631	0.99360
2222.22250	0.99357
2220.16869	0.99343
2218.11488	0.99357
2216.06107	0.99295
2214.00726	0.99194
2211.95344	0.99290
2209.89963	0.99513
2207.84582	0.99626
2205.79201	0.99647
2203.73820	0.99563
2201.68439	0.99446
2199.63058	0.99482
2197.57677	0.99540
2195.52296	0.99513
2193.46915	0.99487
2191.41534	0.99459
2189.36153	0.99377
2187.30772	0.99249
2185.25391	0.99232
2183.20010	0.99330
2181.14629	0.99320
2179.09248	0.99221
2177.03867	0.99226
2174.98486	0.99336
2172.93105	0.99386
2170.87724	0.99318
2168.82343	0.99207
2166.76962	0.99136
2164.71581	0.99079
2162.66200	0.98943
2160.60819	0.98914
2158.55438	0.99199
2156.50057	0.99479
2154.44676	0.99594
2152.39295	0.99719
2150.33914	0.99790
2148.28533	0.99677
2146.23152	0.99566
2144.17771	0.99646
2142.12390	0.99706
2140.07009	0.99669
2138.01628	0.99692
2135.96247	0.99701
2133.90866	0.99592
2131.85485	0.99509
2129.80104	0.99530
2127.74723	0.99515
2125.69342	0.99435
2123.63961	0.99403
2121.58580	0.99463
2119.53199	0.99572
2117.47818	0.99631
2115.42437	0.99577
2113.37056	0.99497
2111.31675	0.99483
2109.26294	0.99479
2107.20913	0.99449
2105.15532	0.99418
2103.10151	0.99390
2101.04770	0.99409
2098.99389	0.99471
2096.94008	0.99502
2094.88627	0.99499
2092.83246	0.99482
2090.77865	0.99422
2088.72484	0.99346
2086.67103	0.99368
2084.61722	0.99455
2082.56341	0.99440
2080.50960	0.99342
2078.45579	0.99296
2076.40198	0.99352
2074.34817	0.99444
2072.29436	0.99474
2070.24055	0.99435
2068.18674	0.99368
2066.13293	0.99344
2064.07912	0.99455
2062.02531	0.99556
2059.97150	0.99486
2057.91769	0.99448
2055.86388	0.99523
2053.81007	0.99451
2051.75626	0.99211
2049.70245	0.99110
2047.64864	0.99257
2045.59483	0.99396
2043.54102	0.99412
2041.48721	0.99472
2039.43340	0.99632
2037.37959	0.99696
2035.32578	0.99594
2033.27197	0.99473
2031.21816	0.99385
2029.16435	0.99311
2027.11054	0.99334
2025.05673	0.99405
2023.00292	0.99478
2020.94911	0.99620
2018.89530	0.99732
2016.84149	0.99766
2014.78768	0.99707
2012.73387	0.99582
2010.68006	0.99520
2008.62625	0.99541
2006.57244	0.99667
2004.51863	0.99794
2002.46482	0.99788
2000.41101	0.99699
1998.35720	0.99639
1996.30339	0.99643
1994.24958	0.99634
1992.19577	0.99596
1990.14196	0.99561
1988.08815	0.99524
1986.03434	0.99487
1983.98053	0.99415
1981.92672	0.99343
1979.87291	0.99321
1977.81910	0.99345
1975.76529	0.99471
1973.71148	0.99600
1971.65767	0.99663
1969.60386	0.99755
1967.55005	0.99779
1965.49624	0.99660
1963.44243	0.99661
1961.38862	0.99837
1959.33481	0.99879
1957.28100	0.99806
1955.22719	0.99816
1953.17338	0.99812
1951.11957	0.99720
1949.06576	0.99635
1947.01195	0.99623
1944.95814	0.99647
1942.90433	0.99671
1940.85052	0.99696
1938.79671	0.99687
1936.74290	0.99635
1934.68909	0.99585
1932.63528	0.99559
1930.58147	0.99586
1928.52766	0.99673
1926.47385	0.99698
1924.42004	0.99614
1922.36623	0.99555
1920.31242	0.99569
1918.25861	0.99587
1916.20479	0.99557
1914.15098	0.99457
1912.09717	0.99359
1910.04336	0.99409
1907.98955	0.99550
1905.93574	0.99602
1903.88193	0.99597
1901.82812	0.99603
1899.77431	0.99605
1897.72050	0.99614
1895.66669	0.99624
1893.61288	0.99583
1891.55907	0.99483
1889.50526	0.99423
1887.45145	0.99439
1885.39764	0.99450
1883.34383	0.99443
1881.29002	0.99447
1879.23621	0.99453
1877.18240	0.99445
1875.12859	0.99412
1873.07478	0.99382
1871.02097	0.99408
1868.96716	0.99462
1866.91335	0.99472
1864.85954	0.99448
1862.80573	0.99417
1860.75192	0.99358
1858.69811	0.99299
1856.64430	0.99301
1854.59049	0.99329
1852.53668	0.99330
1850.48287	0.99339
1848.42906	0.99363
1846.37525	0.99358
1844.32144	0.99347
1842.26763	0.99345
1840.21382	0.99333
1838.16001	0.99333
1836.10620	0.99325
1834.05239	0.99289
1831.99858	0.99274
1829.94477	0.99282
1827.89096	0.99280
1825.83715	0.99285
1823.78334	0.99283
1821.72953	0.99252
1819.67572	0.99218
1817.62191	0.99203
1815.56810	0.99181
1813.51429	0.99141
1811.46048	0.99097
1809.40667	0.99047
1807.35286	0.98987
1805.29905	0.98912
1803.24524	0.98816
1801.19143	0.98711
1799.13762	0.98592
1797.08381	0.98456
1795.03000	0.98325
1792.97619	0.98173
1790.92238	0.97961
1788.86857	0.97736
1786.81476	0.97498
1784.76095	0.97213
1782.70714	0.96918
1780.65333	0.96641
1778.59952	0.96407
1776.54571	0.96240
1774.49190	0.96113
1772.43809	0.96003
1770.38428	0.95939
1768.33047	0.95909
1766.27666	0.95858
1764.22285	0.95797
1762.16904	0.95751
1760.11523	0.95700
1758.06142	0.95628
1756.00761	0.95528
1753.95380	0.95420
1751.89999	0.95355
1749.84618	0.95312
1747.79237	0.95236
1745.73856	0.95139
1743.68475	0.95025
1741.63094	0.94905
1739.57713	0.94801
1737.52332	0.94746
1735.46951	0.94729
1733.41570	0.94680
1731.36189	0.94560
1729.30808	0.94407
1727.25427	0.94217
1725.20046	0.93967
1723.14665	0.93675
1721.09284	0.93453
1719.03903	0.93293
1716.98522	0.93069
1714.93141	0.92829
1712.87760	0.92642
1710.82379	0.92520
1708.76998	0.92533
1706.71617	0.92740
1704.66236	0.93090
1702.60855	0.93465
1700.55474	0.93942
1698.50093	0.94415
1696.44712	0.94762
1694.39331	0.95075
1692.33950	0.95317
1690.28569	0.95543
1688.23188	0.95756
1686.17807	0.95943
1684.12426	0.96148
1682.07045	0.96283
1680.01664	0.96342
1677.96283	0.96402
1675.90902	0.96475
1673.85521	0.96544
1671.80140	0.96582
1669.74759	0.96567
1667.69378	0.96495
1665.63997	0.96436
1663.58616	0.96410
1661.53235	0.96381
1659.47854	0.96332
1657.42473	0.96281
1655.37092	0.96261
1653.31711	0.96245
1651.26330	0.96191
1649.20949	0.96175
1647.15568	0.96188
1645.10187	0.96180
1643.04806	0.96178
1640.99425	0.96207
1638.94044	0.96241
1636.88663	0.96270
1634.83282	0.96257
1632.77901	0.96209
1630.72520	0.96193
1628.67139	0.96199
1626.61758	0.96178
1624.56377	0.96154
1622.50996	0.96164
1620.45614	0.96186
1618.40233	0.96214
1616.34852	0.96234
1614.29471	0.96235
1612.24090	0.96241
1610.18709	0.96254
1608.13328	0.96280
1606.07947	0.96334
1604.02566	0.96395
1601.97185	0.96430
1599.91804	0.96451
1597.86423	0.96483
1595.81042	0.96520
1593.75661	0.96571
1591.70280	0.96635
1589.64899	0.96683
1587.59518	0.96719
1585.54137	0.96753
1583.48756	0.96787
1581.43375	0.96833
1579.37994	0.96892
1577.32613	0.96959
1575.27232	0.97011
1573.21851	0.97041
1571.16470	0.97084
1569.11089	0.97154
1567.05708	0.97223
1565.00327	0.97279
1562.94946	0.97330
1560.89565	0.97419
1558.84184	0.97553
1556.78803	0.97575
1554.73422	0.97569
1552.68041	0.97612
1550.62660	0.97670
1548.57279	0.97717
1546.51898	0.97762
1544.46517	0.97824
1542.41136	0.97898
1540.35755	0.97976
1538.30374	0.98037
1536.24993	0.98085
1534.19612	0.98159
1532.14231	0.98212
1530.08850	0.98211
1528.03469	0.98219
1525.98088	0.98259
1523.92707	0.98304
1521.87326	0.98349
1519.81945	0.98387
1517.76564	0.98384
1515.71183	0.98348
1513.65802	0.98323
1511.60421	0.98327
1509.55040	0.98350
1507.49659	0.98352
1505.44278	0.98253
1503.38897	0.98172
1501.33516	0.98152
1499.28135	0.98135
1497.22754	0.98071
1495.17373	0.97940
1493.11992	0.97803
1491.06611	0.97684
1489.01230	0.97501
1486.95849	0.97214
1484.90468	0.96908
1482.85087	0.96588
1480.79706	0.96199
1478.74325	0.95766
1476.68944	0.95379
1474.63563	0.94903
1472.58182	0.93406
1470.52801	0.90611
1468.47420	0.87647
1466.42039	0.84558
1464.36658	0.81344
1462.31277	0.78917
1460.25896	0.77398
1458.20515	0.76259
1456.15134	0.75442
1454.09753	0.75172
1452.04372	0.75430
1449.98991	0.76573
1447.93610	0.79101
1445.88229	0.82422
1443.82848	0.85294
1441.77467	0.87283
1439.72086	0.88286
1437.66705	0.88588
1435.61324	0.89002
1433.55943	0.90159
1431.50562	0.91710
1429.45181	0.93036
1427.39800	0.93753
1425.34419	0.94085
1423.29038	0.94269
1421.23657	0.94390
1419.18276	0.94509
1417.12895	0.94582
1415.07514	0.94594
1413.02133	0.94599
1410.96752	0.94596
1408.91371	0.94570
1406.85990	0.94566
1404.80609	0.94587
1402.75228	0.94590
1400.69847	0.94576
1398.64466	0.94556
1396.59085	0.94467
1394.53704	0.94237
1392.48323	0.93863
1390.42942	0.93317
1388.37561	0.92312
1386.32180	0.90405
1384.26799	0.87307
1382.21418	0.82396
1380.16037	0.75190
1378.10656	0.67468
1376.05275	0.63600
1373.99894	0.66781
1371.94513	0.74230
1369.89132	0.80915
1367.83751	0.85289
1365.78370	0.87415
1363.72989	0.87939
1361.67608	0.87502
1359.62227	0.86990
1357.56846	0.87273
1355.51465	0.88505
1353.46084	0.90113
1351.40703	0.91499
1349.35322	0.92533
1347.29941	0.93260
1345.24560	0.93739
1343.19179	0.94063
1341.13798	0.94295
1339.08417	0.94440
1337.03036	0.94473
1334.97655	0.94379
1332.92274	0.94165
1330.86893	0.93932
1328.81512	0.93842
1326.76130	0.93954
1324.70749	0.94181
1322.65368	0.94393
1320.59987	0.94518
1318.54606	0.94581
1316.49225	0.94647
1314.43844	0.94724
1312.38463	0.94737
1310.33082	0.94609
1308.27701	0.94271
1306.22320	0.93747
1304.16939	0.93349
1302.11558	0.93339
1300.06177	0.93522
1298.00796	0.93616
1295.95415	0.93663
1293.90034	0.93791
1291.84653	0.93986
1289.79272	0.94175
1287.73891	0.94309
1285.68510	0.94374
1283.63129	0.94412
1281.57748	0.94455
1279.52367	0.94476
1277.46986	0.94475
1275.41605	0.94474
1273.36224	0.94451
1271.30843	0.94389
1269.25462	0.94316
1267.20081	0.94236
1265.14700	0.94096
1263.09319	0.93875
1261.03938	0.93561
1258.98557	0.93121
1256.93176	0.92681
1254.87795	0.92514
1252.82414	0.92692
1250.77033	0.92972
1248.71652	0.93139
1246.66271	0.93193
1244.60890	0.93202
1242.55509	0.93184
1240.50128	0.93147
1238.44747	0.93096
1236.39366	0.93041
1234.33985	0.92999
1232.28604	0.92970
1230.23223	0.92923
1228.17842	0.92840
1226.12461	0.92710
1224.07080	0.92551
1222.01699	0.92398
1219.96318	0.92272
1217.90937	0.92201
1215.85556	0.92206
1213.80175	0.92261
1211.74794	0.92317
1209.69413	0.92350
1207.64032	0.92373
1205.58651	0.92394
1203.53270	0.92401
1201.47889	0.92374
1199.42508	0.92337
1197.37127	0.92313
1195.31746	0.92281
1193.26365	0.92216
1191.20984	0.92130
1189.15603	0.92042
1187.10222	0.91934
1185.04841	0.91786
1182.99460	0.91607
1180.94079	0.91384
1178.88698	0.91071
1176.83317	0.90586
1174.77936	0.89759
1172.72555	0.88477
1170.67174	0.86943
1168.61793	0.85737
1166.56412	0.85422
1164.51031	0.85979
1162.45650	0.86894
1160.40269	0.87729
1158.34888	0.88321
1156.29507	0.88651
1154.24126	0.88814
1152.18745	0.88983
1150.13364	0.89293
1148.07983	0.89740
1146.02602	0.90196
1143.97221	0.90540
1141.91840	0.90774
1139.86459	0.90958
1137.81078	0.91107
1135.75697	0.91215
1133.70316	0.91281
1131.64935	0.91316
1129.59554	0.91345
1127.54173	0.91370
1125.48792	0.91373
1123.43411	0.91365
1121.38030	0.91343
1119.32649	0.91296
1117.27268	0.91243
1115.21887	0.91166
1113.16506	0.91049
1111.11125	0.90910
1109.05744	0.90714
1107.00363	0.90421
1104.94982	0.90081
1102.89601	0.89820
1100.84220	0.89753
1098.78839	0.89862
1096.73458	0.90019
1094.68077	0.90138
1092.62696	0.90197
1090.57315	0.90199
1088.51934	0.90170
1086.46553	0.90144
1084.41172	0.90138
1082.35791	0.90147
1080.30410	0.90164
1078.25029	0.90190
1076.19648	0.90234
1074.14267	0.90277
1072.08886	0.90287
1070.03505	0.90267
1067.98124	0.90232
1065.92743	0.90196
1063.87362	0.90142
1061.81981	0.90061
1059.76600	0.89983
1057.71219	0.89909
1055.65838	0.89818
1053.60457	0.89697
1051.55076	0.89544
1049.49695	0.89356
1047.44314	0.89132
1045.38933	0.88934
1043.33552	0.88859
1041.28171	0.88913
1039.22790	0.89019
1037.17409	0.89130
1035.12028	0.89229
1033.06647	0.89322
1031.01265	0.89427
1028.95884	0.89528
1026.90503	0.89616
1024.85122	0.89705
1022.79741	0.89784
1020.74360	0.89847
1018.68979	0.89916
1016.63598	0.89983
1014.58217	0.90038
1012.52836	0.90082
1010.47455	0.90059
1008.42074	0.89916
1006.36693	0.89598
1004.31312	0.88934
1002.25931	0.87673
1000.20550	0.85887
998.15169	0.84584
996.09788	0.84967
994.04407	0.86754
991.99026	0.88621
989.93645	0.89872
987.88264	0.90570
985.82883	0.90895
983.77502	0.90897
981.72121	0.90527
979.66740	0.89655
977.61359	0.88134
975.55978	0.86168
973.50597	0.84803
971.45216	0.85243
969.39835	0.87258
967.34454	0.89406
965.29073	0.90811
963.23692	0.91578
961.18311	0.92036
959.12930	0.92346
957.07549	0.92540
955.02168	0.92659
952.96787	0.92725
950.91406	0.92754
948.86025	0.92762
946.80644	0.92722
944.75263	0.92647
942.69882	0.92592
940.64501	0.92606
938.59120	0.92759
936.53739	0.93050
934.48358	0.93352
932.42977	0.93592
930.37596	0.93796
928.32215	0.93967
926.26834	0.94115
924.21453	0.94253
922.16072	0.94373
920.10691	0.94454
918.05310	0.94484
915.99929	0.94502
913.94548	0.94537
911.89167	0.94568
909.83786	0.94554
907.78405	0.94450
905.73024	0.94166
903.67643	0.93597
901.62262	0.92851
899.56881	0.92408
897.51500	0.92694
895.46119	0.93507
893.40738	0.94261
891.35357	0.94714
889.29976	0.94964
887.24595	0.95062
885.19214	0.95068
883.13833	0.95110
881.08452	0.95181
879.03071	0.95218
876.97690	0.95248
874.92309	0.95276
872.86928	0.95288
870.81547	0.95296
868.76166	0.95296
866.70785	0.95289
864.65404	0.95310
862.60023	0.95366
860.54642	0.95392
858.49261	0.95359
856.43880	0.95329
854.38499	0.95297
852.33118	0.95192
850.27737	0.94966
848.22356	0.94444
846.16975	0.93205
844.11594	0.91050
842.06213	0.89133
840.00832	0.89340
837.95451	0.91414
835.90070	0.93340
833.84689	0.94324
831.79308	0.94798
829.73927	0.95072
827.68546	0.95239
825.63165	0.95322
823.57784	0.95307
821.52403	0.95228
819.47022	0.95089
817.41641	0.94819
815.36260	0.94315
813.30879	0.93550
811.25498	0.92775
809.20117	0.92370
807.14736	0.92505
805.09355	0.93065
803.03974	0.93708
800.98593	0.94187
798.93212	0.94522
796.87831	0.94778
794.82450	0.94970
792.77069	0.95118
790.71688	0.95247
788.66307	0.95387
786.60926	0.95506
784.55545	0.95504
782.50164	0.95398
780.44783	0.95347
778.39402	0.95418
776.34021	0.95540
774.28640	0.95639
772.23259	0.95703
770.17878	0.95744
768.12497	0.95799
766.07116	0.95860
764.01735	0.95873
761.96354	0.95879
759.90973	0.95948
757.85592	0.96064
755.80211	0.96172
753.74830	0.96252
751.69449	0.96305
749.64068	0.96330
747.58687	0.96352
745.53306	0.96377
743.47925	0.96404
741.42544	0.96444
739.37163	0.96465
737.31781	0.96503
735.26400	0.96666
733.21019	0.97000
731.15638	0.97366
729.10257	0.97478
727.04876	0.97298
724.99495	0.97122
722.94114	0.97271
720.88733	0.97784
718.83352	0.98218
716.77971	0.98083
714.72590	0.97506
712.67209	0.96965
710.61828	0.96656
708.56447	0.96464
706.51066	0.96334
704.45685	0.96258
702.40304	0.96192
700.34923	0.96132
698.29542	0.96066
696.24161	0.96002
694.18780	0.95977
692.13399	0.95928
690.08018	0.95834
688.02637	0.95807
685.97256	0.95865
683.91875	0.95919
681.86494	0.95892
679.81113	0.95788
677.75732	0.95693
675.70351	0.95628
673.64970	0.95560
671.59589	0.95515
669.54208	0.95491
667.48827	0.95440
665.43446	0.95374
663.38065	0.95322
661.32684	0.95325
659.27303	0.95324
657.21922	0.95244
655.16541	0.95183
653.11160	0.95148
651.05779	0.95033
649.00398	0.94895
646.95017	0.94807
644.89636	0.94741
642.84255	0.94721
640.78874	0.94726
638.73493	0.94685
636.68112	0.94612
634.62731	0.94553
632.57350	0.94539
630.51969	0.94495
628.46588	0.94376
626.41207	0.94271
624.35826	0.94198
622.30445	0.94139
620.25064	0.94172
618.19683	0.94289
616.14302	0.94299
614.08921	0.94147
612.03540	0.93990
609.98159	0.93877
607.92778	0.93783
605.87397	0.93697
603.82016	0.93610
601.76635	0.93585
599.71254	0.93632
597.65873	0.93714
595.60492	0.93777
593.55111	0.93726
591.49730	0.93636
589.44349	0.93586
587.38968	0.93461
585.33587	0.93286
583.28206	0.93226
581.22825	0.93241
579.17444	0.93218
577.12063	0.93239
575.06682	0.93350
573.01301	0.93385
570.95920	0.93336
568.90539	0.93332
566.85158	0.93325
564.79777	0.93321
562.74396	0.93369
560.69015	0.93316
558.63634	0.93182
556.58253	0.93164
554.52872	0.93234
552.47491	0.93254
550.42110	0.93258
548.36729	0.93238
546.31348	0.93059
544.25967	0.92853
542.20586	0.92812
540.15205	0.92832
538.09824	0.92787
536.04443	0.92698
533.99062	0.92620
531.93681	0.92522
529.88300	0.92398
527.82919	0.92383
525.77538	0.92528
523.72157	0.92710
521.66776	0.92746
519.61395	0.92563
517.56014	0.92358
515.50633	0.92313
513.45252	0.92430
511.39871	0.92681
509.34490	0.92841
507.29109	0.92779
505.23728	0.92770
503.18347	0.92912
501.12966	0.93019
499.07585	0.93029
497.02204	0.92906
494.96823	0.92701
492.91442	0.92562
490.86061	0.92552
488.80680	0.92541
486.75299	0.92423
484.69918	0.92357
482.64537	0.92339
480.59156	0.92185
478.53775	0.91897
476.48394	0.91592
474.43013	0.91428
472.37632	0.91460
470.32251	0.91441
468.26870	0.91175
466.21489	0.90857
464.16108	0.90601
462.10727	0.90373
460.05346	0.90338
457.99965	0.90511
455.94584	0.90590
453.89203	0.90617
451.83822	0.91007
449.78441	0.91703
447.73060	0.92309
445.67679	0.92740
443.62298	0.93060
441.56916	0.93184
439.51535	0.93012
437.46154	0.92848
435.40773	0.92993
433.35392	0.93059
431.30011	0.92751
429.24630	0.92681
427.19249	0.93106
425.13868	0.93503
423.08487	0.93588
421.03106	0.93543
418.97725	0.93625
416.92344	0.93656
414.86963	0.93477
412.81582	0.93414
410.76201	0.93722
408.70820	0.94157
406.65439	0.94341
404.60058	0.94086
402.54677	0.93424
400.49296	0.92907
398.43915	0.93006
