3996.70104	0.95804
3994.64724	0.95804
3992.59344	0.95806
3990.53964	0.95813
3988.48583	0.95823
3986.43203	0.95847
3984.37823	0.95860
3982.32442	0.95815
3980.27062	0.95770
3978.21682	0.95812
3976.16301	0.95876
3974.10921	0.95869
3972.05541	0.95847
3970.00160	0.95866
3967.94780	0.95854
3965.89400	0.95785
3963.84019	0.95745
3961.78639	0.95774
3959.73259	0.95817
3957.67878	0.95837
3955.62498	0.95864
3953.57118	0.95894
3951.51737	0.95889
3949.46357	0.95859
3947.40977	0.95825
3945.35596	0.95794
3943.30216	0.95791
3941.24836	0.95827
3939.19455	0.95862
3937.14075	0.95879
3935.08695	0.95906
3933.03315	0.95914
3930.97934	0.95895
3928.92554	0.95909
3926.87174	0.95894
3924.81793	0.95798
3922.76413	0.95730
3920.71033	0.95781
3918.65652	0.95879
3916.60272	0.95897
3914.54892	0.95857
3912.49511	0.95835
3910.44131	0.95806
3908.38751	0.95779
3906.33370	0.95808
3904.27990	0.95903
3902.22610	0.96020
3900.17229	0.96056
3898.11849	0.96006
3896.06469	0.95973
3894.01088	0.95978
3891.95708	0.95988
3889.90328	0.95955
3887.84947	0.95890
3885.79567	0.95879
3883.74187	0.95924
3881.68807	0.95935
3879.63426	0.95914
3877.58046	0.95889
3875.52666	0.95862
3873.47285	0.95905
3871.41905	0.96039
3869.36525	0.96095
3867.31144	0.96029
3865.25764	0.95987
3863.20384	0.96001
3861.15003	0.96004
3859.09623	0.95996
3857.04243	0.96018
3854.98862	0.96028
3852.93482	0.95942
3850.88102	0.95859
3848.82721	0.95854
3846.77341	0.95873
3844.71961	0.95869
3842.66580	0.95838
3840.61200	0.95832
3838.55820	0.95831
3836.50439	0.95824
3834.45059	0.95893
3832.39679	0.95978
3830.34298	0.96004
3828.28918	0.96005
3826.23538	0.95982
3824.18158	0.95920
3822.12777	0.95885
3820.07397	0.95957
3818.02017	0.96071
3815.96636	0.96122
3813.91256	0.96065
3811.85876	0.95968
3809.80495	0.95908
3807.75115	0.95887
3805.69735	0.95874
3803.64354	0.95872
3801.58974	0.95900
3799.53594	0.95913
3797.48213	0.95893
3795.42833	0.95864
3793.37453	0.95849
3791.32072	0.95867
3789.26692	0.95908
3787.21312	0.95972
3785.15931	0.95985
3783.10551	0.95916
3781.05171	0.95872
3778.99790	0.95903
3776.94410	0.95978
3774.89030	0.96044
3772.83650	0.96067
3770.78269	0.96038
3768.72889	0.96001
3766.67509	0.96023
3764.62128	0.96048
3762.56748	0.95992
3760.51368	0.95915
3758.45987	0.95922
3756.40607	0.96003
3754.35227	0.96075
3752.29846	0.96145
3750.24466	0.96179
3748.19086	0.96079
3746.13705	0.95961
3744.08325	0.95949
3742.02945	0.96031
3739.97564	0.96103
3737.92184	0.96117
3735.86804	0.96082
3733.81423	0.96063
3731.76043	0.96038
3729.70663	0.96036
3727.65282	0.96119
3725.59902	0.96168
3723.54522	0.96082
3721.49141	0.96028
3719.43761	0.96031
3717.38381	0.95974
3715.33001	0.95890
3713.27620	0.95804
3711.22240	0.95708
3709.16860	0.95663
3707.11479	0.95631
3705.06099	0.95559
3703.00719	0.95463
3700.95338	0.95361
3698.89958	0.95259
3696.84578	0.95184
3694.79197	0.95139
3692.73817	0.95143
3690.68437	0.95210
3688.63056	0.95268
3686.57676	0.95284
3684.52296	0.95284
3682.46915	0.95279
3680.41535	0.95292
3678.36155	0.95335
3676.30774	0.95398
3674.25394	0.95417
3672.20014	0.95311
3670.14633	0.95099
3668.09253	0.94954
3666.03873	0.94942
3663.98492	0.94922
3661.93112	0.94877
3659.87732	0.94874
3657.82352	0.94901
3655.76971	0.94881
3653.71591	0.94862
3651.66211	0.94932
3649.60830	0.94997
3647.55450	0.94901
3645.50070	0.94749
3643.44689	0.94645
3641.39309	0.94560
3639.33929	0.94484
3637.28548	0.94424
3635.23168	0.94362
3633.17788	0.94309
3631.12407	0.94281
3629.07027	0.94283
3627.01647	0.94285
3624.96266	0.94247
3622.90886	0.94160
3620.85506	0.94030
3618.80125	0.93925
3616.74745	0.93949
3614.69365	0.94087
3612.63984	0.94217
3610.58604	0.94284
3608.53224	0.94329
3606.47844	0.94294
3604.42463	0.94209
3602.37083	0.94181
3600.31703	0.94214
3598.26322	0.94296
3596.20942	0.94383
3594.15562	0.94344
3592.10181	0.94216
3590.04801	0.94146
3587.99421	0.94173
3585.94040	0.94262
3583.88660	0.94320
3581.83280	0.94293
3579.77899	0.94205
3577.72519	0.94145
3575.67139	0.94149
3573.61758	0.94159
3571.56378	0.94139
3569.50998	0.94126
3567.45617	0.94152
3565.40237	0.94152
3563.34857	0.94146
3561.29476	0.94174
3559.24096	0.94163
3557.18716	0.94091
3555.13335	0.94008
3553.07955	0.93960
3551.02575	0.93964
3548.97195	0.93984
3546.91814	0.93963
3544.86434	0.93890
3542.81054	0.93852
3540.75673	0.93868
3538.70293	0.93922
3536.64913	0.94012
3534.59532	0.94043
3532.54152	0.93997
3530.48772	0.93931
3528.43391	0.93897
3526.38011	0.93943
3524.32631	0.94003
3522.27250	0.94004
3520.21870	0.93956
3518.16490	0.93919
3516.11109	0.93930
3514.05729	0.93958
3512.00349	0.93966
3509.94968	0.93930
3507.89588	0.93878
3505.84208	0.93880
3503.78827	0.93949
3501.73447	0.94011
3499.68067	0.94008
3497.62687	0.93971
3495.57306	0.93920
3493.51926	0.93884
3491.46546	0.93873
3489.41165	0.93859
3487.35785	0.93839
3485.30405	0.93846
3483.25024	0.93887
3481.19644	0.93929
3479.14264	0.93938
3477.08883	0.93910
3475.03503	0.93838
3472.98123	0.93773
3470.92742	0.93769
3468.87362	0.93787
3466.81982	0.93796
3464.76601	0.93801
3462.71221	0.93805
3460.65841	0.93781
3458.60460	0.93744
3456.55080	0.93720
3454.49700	0.93672
3452.44319	0.93622
3450.38939	0.93613
3448.33559	0.93652
3446.28178	0.93717
3444.22798	0.93759
3442.17418	0.93765
3440.12038	0.93734
3438.06657	0.93675
3436.01277	0.93645
3433.95897	0.93660
3431.90516	0.93671
3429.85136	0.93682
3427.79756	0.93721
3425.74375	0.93720
3423.68995	0.93644
3421.63615	0.93577
3419.58234	0.93584
3417.52854	0.93611
3415.47474	0.93583
3413.42093	0.93545
3411.36713	0.93537
3409.31333	0.93508
3407.25952	0.93473
3405.20572	0.93487
3403.15192	0.93533
3401.09811	0.93583
3399.04431	0.93607
3396.99051	0.93593
3394.93670	0.93572
3392.88290	0.93559
3390.82910	0.93553
3388.77529	0.93574
3386.72149	0.93602
3384.66769	0.93596
3382.61389	0.93559
3380.56008	0.93515
3378.50628	0.93506
3376.45248	0.93542
3374.39867	0.93590
3372.34487	0.93622
3370.29107	0.93624
3368.23726	0.93659
3366.18346	0.93716
3364.12966	0.93685
3362.07585	0.93620
3360.02205	0.93635
3357.96825	0.93652
3355.91444	0.93605
3353.86064	0.93608
3351.80684	0.93670
3349.75303	0.93680
3347.69923	0.93676
3345.64543	0.93743
3343.59162	0.93831
3341.53782	0.93874
3339.48402	0.93866
3337.43021	0.93825
3335.37641	0.93793
3333.32261	0.93789
3331.26881	0.93808
3329.21500	0.93818
3327.16120	0.93813
3325.10740	0.93829
3323.05359	0.93867
3320.99979	0.93891
3318.94599	0.93874
3316.89218	0.93866
3314.83838	0.93924
3312.78458	0.93976
3310.73077	0.93959
3308.67697	0.93957
3306.62317	0.93997
3304.56936	0.94007
3302.51556	0.93978
3300.46176	0.93966
3298.40795	0.93994
3296.35415	0.94033
3294.30035	0.94058
3292.24654	0.94073
3290.19274	0.94093
3288.13894	0.94105
3286.08513	0.94097
3284.03133	0.94079
3281.97753	0.94057
3279.92372	0.94050
3277.86992	0.94079
3275.81612	0.94147
3273.76232	0.94212
3271.70851	0.94239
3269.65471	0.94221
3267.60091	0.94174
3265.54710	0.94140
3263.49330	0.94149
3261.43950	0.94187
3259.38569	0.94221
3257.33189	0.94236
3255.27809	0.94249
3253.22428	0.94295
3251.17048	0.94346
3249.11668	0.94322
3247.06287	0.94256
3245.00907	0.94227
3242.95527	0.94229
3240.90146	0.94262
3238.84766	0.94320
3236.79386	0.94350
3234.74005	0.94329
3232.68625	0.94285
3230.63245	0.94272
3228.57864	0.94312
3226.52484	0.94362
3224.47104	0.94409
3222.41724	0.94454
3220.36343	0.94470
3218.30963	0.94468
3216.25583	0.94502
3214.20202	0.94526
3212.14822	0.94478
3210.09442	0.94436
3208.04061	0.94463
3205.98681	0.94518
3203.93301	0.94556
3201.87920	0.94603
3199.82540	0.94650
3197.77160	0.94653
3195.71779	0.94641
3193.66399	0.94642
3191.61019	0.94652
3189.55638	0.94646
3187.50258	0.94616
3185.44878	0.94592
3183.39497	0.94591
3181.34117	0.94622
3179.28737	0.94660
3177.23356	0.94678
3175.17976	0.94700
3173.12596	0.94739
3171.07215	0.94769
3169.01835	0.94765
3166.96455	0.94731
3164.91075	0.94691
3162.85694	0.94687
3160.80314	0.94710
3158.74934	0.94738
3156.69553	0.94770
3154.64173	0.94794
3152.58793	0.94820
3150.53412	0.94844
3148.48032	0.94833
3146.42652	0.94837
3144.37271	0.94886
3142.31891	0.94900
3140.26511	0.94872
3138.21130	0.94875
3136.15750	0.94900
3134.10370	0.94907
3132.04989	0.94934
3129.99609	0.94988
3127.94229	0.95012
3125.88848	0.95002
3123.83468	0.94974
3121.78088	0.94930
3119.72707	0.94891
3117.67327	0.94889
3115.61947	0.94942
3113.56566	0.94978
3111.51186	0.94967
3109.45806	0.94977
3107.40426	0.94989
3105.35045	0.94953
3103.29665	0.94909
3101.24285	0.94896
3099.18904	0.94936
3097.13524	0.94995
3095.08144	0.94985
3093.02763	0.94901
3090.97383	0.94784
3088.92003	0.94649
3086.86622	0.94496
3084.81242	0.94339
3082.75862	0.94250
3080.70481	0.94280
3078.65101	0.94373
3076.59721	0.94467
3074.54340	0.94562
3072.48960	0.94614
3070.43580	0.94593
3068.38199	0.94494
3066.32819	0.94309
3064.27439	0.94076
3062.22058	0.93855
3060.16678	0.93729
3058.11298	0.93799
3056.05918	0.94017
3054.00537	0.94212
3051.95157	0.94337
3049.89777	0.94436
3047.84396	0.94523
3045.79016	0.94594
3043.73636	0.94631
3041.68255	0.94618
3039.62875	0.94568
3037.57495	0.94470
3035.52114	0.94265
3033.46734	0.93925
3031.41354	0.93479
3029.35973	0.92966
3027.30593	0.92477
3025.25213	0.92211
3023.19832	0.92320
3021.14452	0.92774
3019.09072	0.93379
3017.03691	0.93894
3014.98311	0.94241
3012.92931	0.94480
3010.87550	0.94631
3008.82170	0.94708
3006.76790	0.94730
3004.71409	0.94703
3002.66029	0.94653
3000.60649	0.94635
2998.55269	0.94716
2996.49888	0.94856
2994.44508	0.94964
2992.39128	0.95057
2990.33747	0.95168
2988.28367	0.95218
2986.22987	0.95196
2984.17606	0.95201
2982.12226	0.95240
2980.06846	0.95270
2978.01465	0.95276
2975.96085	0.95283
2973.90705	0.95321
2971.85324	0.95336
2969.79944	0.95294
2967.74564	0.95262
2965.69183	0.95276
2963.63803	0.95291
2961.58423	0.95242
2959.53042	0.95163
2957.47662	0.95119
2955.42282	0.95096
2953.36901	0.95045
2951.31521	0.94930
2949.26141	0.94774
2947.20761	0.94619
2945.15380	0.94455
2943.10000	0.94279
2941.04620	0.94093
2938.99239	0.93897
2936.93859	0.93680
2934.88479	0.93405
2932.83098	0.93083
2930.77718	0.92796
2928.72338	0.92572
2926.66957	0.92347
2924.61577	0.92130
2922.56197	0.91996
2920.50816	0.91949
2918.45436	0.91960
2916.40056	0.92008
2914.34675	0.92085
2912.29295	0.92181
2910.23915	0.92302
2908.18534	0.92502
2906.13154	0.92776
2904.07774	0.93023
2902.02393	0.93206
2899.97013	0.93390
2897.91633	0.93587
2895.86252	0.93750
2893.80872	0.93895
2891.75492	0.94031
2889.70112	0.94131
2887.64731	0.94198
2885.59351	0.94266
2883.53971	0.94352
2881.48590	0.94427
2879.43210	0.94488
2877.37830	0.94553
2875.32449	0.94591
2873.27069	0.94616
2871.21689	0.94661
2869.16308	0.94704
2867.10928	0.94716
2865.05548	0.94698
2863.00167	0.94661
2860.94787	0.94610
2858.89407	0.94542
2856.84026	0.94448
2854.78646	0.94334
2852.73266	0.94213
2850.67885	0.94109
2848.62505	0.94042
2846.57125	0.94035
2844.51744	0.94137
2842.46364	0.94353
2840.40984	0.94577
2838.35603	0.94725
2836.30223	0.94832
2834.24843	0.94942
2832.19463	0.95053
2830.14082	0.95145
2828.08702	0.95212
2826.03322	0.95256
2823.97941	0.95291
2821.92561	0.95329
2819.87181	0.95368
2817.81800	0.95384
2815.76420	0.95370
2813.71040	0.95365
2811.65659	0.95384
2809.60279	0.95420
2807.54899	0.95452
2805.49518	0.95467
2803.44138	0.95484
2801.38758	0.95484
2799.33377	0.95462
2797.27997	0.95454
2795.22617	0.95463
2793.17236	0.95482
2791.11856	0.95508
2789.06476	0.95512
2787.01095	0.95496
2784.95715	0.95489
2782.90335	0.95499
2780.84955	0.95506
2778.79574	0.95518
2776.74194	0.95547
2774.68814	0.95556
2772.63433	0.95542
2770.58053	0.95541
2768.52673	0.95556
2766.47292	0.95572
2764.41912	0.95586
2762.36532	0.95601
2760.31151	0.95616
2758.25771	0.95626
2756.20391	0.95628
2754.15010	0.95619
2752.09630	0.95610
2750.04250	0.95606
2747.98869	0.95610
2745.93489	0.95638
2743.88109	0.95674
2741.82728	0.95681
2739.77348	0.95645
2737.71968	0.95611
2735.66587	0.95622
2733.61207	0.95652
2731.55827	0.95658
2729.50446	0.95645
2727.45066	0.95643
2725.39686	0.95646
2723.34306	0.95654
2721.28925	0.95667
2719.23545	0.95677
2717.18165	0.95676
2715.12784	0.95660
2713.07404	0.95653
2711.02024	0.95679
2708.96643	0.95703
2706.91263	0.95687
2704.85883	0.95660
2702.80502	0.95663
2700.75122	0.95683
2698.69742	0.95710
2696.64361	0.95753
2694.58981	0.95778
2692.53601	0.95777
2690.48220	0.95777
2688.42840	0.95776
2686.37460	0.95783
2684.32079	0.95780
2682.26699	0.95744
2680.21319	0.95715
2678.15938	0.95717
2676.10558	0.95737
2674.05178	0.95752
2671.99797	0.95752
2669.94417	0.95758
2667.89037	0.95770
2665.83657	0.95769
2663.78276	0.95772
2661.72896	0.95780
2659.67516	0.95771
2657.62135	0.95759
2655.56755	0.95735
2653.51375	0.95701
2651.45994	0.95706
2649.40614	0.95745
2647.35234	0.95766
2645.29853	0.95755
2643.24473	0.95744
2641.19093	0.95761
2639.13712	0.95776
2637.08332	0.95768
2635.02952	0.95773
2632.97571	0.95779
2630.92191	0.95743
2628.86811	0.95722
2626.81430	0.95743
2624.76050	0.95751
2622.70670	0.95767
2620.65289	0.95812
2618.59909	0.95848
2616.54529	0.95859
2614.49149	0.95854
2612.43768	0.95858
2610.38388	0.95881
2608.33008	0.95892
2606.27627	0.95882
2604.22247	0.95894
2602.16867	0.95944
2600.11486	0.95974
2598.06106	0.95976
2596.00726	0.95979
2593.95345	0.95982
2591.89965	0.95992
2589.84585	0.96004
2587.79204	0.95992
2585.73824	0.95961
2583.68444	0.95953
2581.63063	0.95978
2579.57683	0.95971
2577.52303	0.95911
2575.46922	0.95867
2573.41542	0.95883
2571.36162	0.95954
2569.30781	0.96043
2567.25401	0.96089
2565.20021	0.96057
2563.14640	0.95983
2561.09260	0.95944
2559.03880	0.95924
2556.98500	0.95906
2554.93119	0.95925
2552.87739	0.95962
2550.82359	0.95978
2548.76978	0.95951
2546.71598	0.95952
2544.66218	0.96036
2542.60837	0.96106
2540.55457	0.96119
2538.50077	0.96121
2536.44696	0.96132
2534.39316	0.96130
2532.33936	0.96099
2530.28555	0.96043
2528.23175	0.95981
2526.17795	0.95994
2524.12414	0.96091
2522.07034	0.96156
2520.01654	0.96168
2517.96273	0.96167
2515.90893	0.96121
2513.85513	0.96050
2511.80132	0.96026
2509.74752	0.95998
2507.69372	0.95948
2505.63992	0.95937
2503.58611	0.95964
2501.53231	0.96048
2499.47851	0.96150
2497.42470	0.96160
2495.37090	0.96113
2493.31710	0.96064
2491.26329	0.96015
2489.20949	0.96018
2487.15569	0.96042
2485.10188	0.96031
2483.04808	0.96033
2480.99428	0.96064
2478.94047	0.96086
2476.88667	0.96099
2474.83287	0.96062
2472.77906	0.95992
2470.72526	0.96015
2468.67146	0.96117
2466.61765	0.96163
2464.56385	0.96148
2462.51005	0.96148
2460.45624	0.96159
2458.40244	0.96166
2456.34864	0.96159
2454.29483	0.96136
2452.24103	0.96126
2450.18723	0.96120
2448.13343	0.96091
2446.07962	0.96084
2444.02582	0.96130
2441.97202	0.96151
2439.91821	0.96099
2437.86441	0.96066
2435.81061	0.96129
2433.75680	0.96218
2431.70300	0.96244
2429.64920	0.96209
2427.59539	0.96156
2425.54159	0.96144
2423.48779	0.96183
2421.43398	0.96215
2419.38018	0.96198
2417.32638	0.96174
2415.27257	0.96153
2413.21877	0.96117
2411.16497	0.96087
2409.11116	0.96092
2407.05736	0.96150
2405.00356	0.96184
2402.94975	0.96144
2400.89595	0.96118
2398.84215	0.96133
2396.78834	0.96132
2394.73454	0.96152
2392.68074	0.96181
2390.62694	0.96190
2388.57313	0.96219
2386.51933	0.96231
2384.46553	0.96202
2382.41172	0.96146
2380.35792	0.96078
2378.30412	0.96068
2376.25031	0.96138
2374.19651	0.96231
2372.14271	0.96240
2370.08890	0.96121
2368.03510	0.96047
2365.98130	0.96095
2363.92749	0.96147
2361.87369	0.96164
2359.81989	0.96106
2357.76608	0.96012
2355.71228	0.96044
2353.65848	0.96160
2351.60467	0.96238
2349.55087	0.96252
2347.49707	0.96229
2345.44326	0.96191
2343.38946	0.96144
2341.33566	0.96131
2339.28186	0.96109
2337.22805	0.96038
2335.17425	0.96009
2333.12045	0.96017
2331.06664	0.95997
2329.01284	0.96017
2326.95904	0.96087
2324.90523	0.96095
2322.85143	0.96047
2320.79763	0.96034
2318.74382	0.96075
2316.69002	0.96113
2314.63622	0.96105
2312.58241	0.96095
2310.52861	0.96095
2308.47481	0.96059
2306.42100	0.96027
2304.36720	0.96048
2302.31340	0.96061
2300.25959	0.96034
2298.20579	0.96001
2296.15199	0.95988
2294.09818	0.96063
2292.04438	0.96193
2289.99058	0.96214
2287.93677	0.96138
2285.88297	0.96083
2283.82917	0.96097
2281.77537	0.96180
2279.72156	0.96248
2277.66776	0.96262
2275.61396	0.96312
2273.56015	0.96393
2271.50635	0.96392
2269.45255	0.96316
2267.39874	0.96237
2265.34494	0.96216
2263.29114	0.96235
2261.23733	0.96265
2259.18353	0.96361
2257.12973	0.96484
2255.07592	0.96511
2253.02212	0.96452
2250.96832	0.96387
2248.91451	0.96319
2246.86071	0.96260
2244.80691	0.96251
2242.75310	0.96271
2240.69930	0.96314
2238.64550	0.96397
2236.59169	0.96456
2234.53789	0.96436
2232.48409	0.96396
2230.43029	0.96357
2228.37648	0.96293
2226.32268	0.96224
2224.26888	0.96211
2222.21507	0.96246
2220.16127	0.96277
2218.10747	0.96361
2216.05366	0.96387
2213.99986	0.96292
2211.94606	0.96415
2209.89225	0.96637
2207.83845	0.96602
2205.78465	0.96443
2203.73084	0.96196
2201.67704	0.96003
2199.62324	0.96178
2197.56943	0.96507
2195.51563	0.96710
2193.46183	0.96827
2191.40802	0.96796
2189.35422	0.96622
2187.30042	0.96467
2185.24661	0.96321
2183.19281	0.96241
2181.13901	0.96265
2179.08520	0.96251
2177.03140	0.96253
2174.97760	0.96409
2172.92380	0.96599
2170.86999	0.96635
2168.81619	0.96671
2166.76239	0.96932
2164.70858	0.97158
2162.65478	0.97058
2160.60098	0.96930
2158.54717	0.97004
2156.49337	0.96906
2154.43957	0.96702
2152.38576	0.96825
2150.33196	0.97029
2148.27816	0.97008
2146.22435	0.96915
2144.17055	0.96819
2142.11675	0.96744
2140.06294	0.96675
2138.00914	0.96624
2135.95534	0.96702
2133.90153	0.96779
2131.84773	0.96687
2129.79393	0.96560
2127.74012	0.96613
2125.68632	0.96782
2123.63252	0.96771
2121.57871	0.96593
2119.52491	0.96468
2117.47111	0.96393
2115.41731	0.96382
2113.36350	0.96486
2111.30970	0.96575
2109.25590	0.96589
2107.20209	0.96575
2105.14829	0.96532
2103.09449	0.96486
2101.04068	0.96415
2098.98688	0.96334
2096.93308	0.96363
2094.87927	0.96492
2092.82547	0.96566
2090.77167	0.96488
2088.71786	0.96336
2086.66406	0.96271
2084.61026	0.96337
2082.55645	0.96463
2080.50265	0.96618
2078.44885	0.96709
2076.39504	0.96629
2074.34124	0.96493
2072.28744	0.96475
2070.23363	0.96560
2068.17983	0.96595
2066.12603	0.96525
2064.07223	0.96472
2062.01842	0.96454
2059.96462	0.96431
2057.91082	0.96546
2055.85701	0.96696
2053.80321	0.96623
2051.74941	0.96578
2049.69560	0.96804
2047.64180	0.96982
2045.58800	0.96894
2043.53419	0.96765
2041.48039	0.96635
2039.42659	0.96451
2037.37278	0.96383
2035.31898	0.96406
2033.26518	0.96397
2031.21137	0.96480
2029.15757	0.96680
2027.10377	0.96788
2025.04996	0.96715
2022.99616	0.96679
2020.94236	0.96711
2018.88855	0.96532
2016.83475	0.96294
2014.78095	0.96447
2012.72714	0.96829
2010.67334	0.96965
2008.61954	0.96971
2006.56574	0.97076
2004.51193	0.97050
2002.45813	0.96872
2000.40433	0.96816
1998.35052	0.96864
1996.29672	0.96872
1994.24292	0.96891
1992.18911	0.96918
1990.13531	0.96891
1988.08151	0.96816
1986.02770	0.96653
1983.97390	0.96445
1981.92010	0.96461
1979.86629	0.96724
1977.81249	0.96734
1975.75869	0.96366
1973.70488	0.96218
1971.65108	0.96492
1969.59728	0.96852
1967.54347	0.97063
1965.48967	0.97105
1963.43587	0.97063
1961.38206	0.97006
1959.32826	0.96937
1957.27446	0.96816
1955.22066	0.96723
1953.16685	0.96692
1951.11305	0.96634
1949.05925	0.96606
1947.00544	0.96602
1944.95164	0.96510
1942.89784	0.96341
1940.84403	0.96225
1938.79023	0.96196
1936.73643	0.96278
1934.68262	0.96543
1932.62882	0.96755
1930.57502	0.96697
1928.52121	0.96574
1926.46741	0.96614
1924.41361	0.96708
1922.35980	0.96681
1920.30600	0.96570
1918.25220	0.96511
1916.19839	0.96578
1914.14459	0.96644
1912.09079	0.96645
1910.03698	0.96685
1907.98318	0.96737
1905.92938	0.96683
1903.87557	0.96584
1901.82177	0.96539
1899.76797	0.96528
1897.71417	0.96468
1895.66036	0.96361
1893.60656	0.96357
1891.55276	0.96492
1889.49895	0.96573
1887.44515	0.96497
1885.39135	0.96401
1883.33754	0.96346
1881.28374	0.96315
1879.22994	0.96324
1877.17613	0.96353
1875.12233	0.96339
1873.06853	0.96324
1871.01472	0.96362
1868.96092	0.96385
1866.90712	0.96384
1864.85331	0.96382
1862.79951	0.96352
1860.74571	0.96351
1858.69190	0.96416
1856.63810	0.96486
1854.58430	0.96531
1852.53049	0.96575
1850.47669	0.96592
1848.42289	0.96564
1846.36908	0.96596
1844.31528	0.96695
1842.26148	0.96682
1840.20768	0.96591
1838.15387	0.96528
1836.10007	0.96517
1834.04627	0.96550
1831.99246	0.96571
1829.93866	0.96555
1827.88486	0.96563
1825.83105	0.96582
1823.77725	0.96562
1821.72345	0.96529
1819.66964	0.96490
1817.61584	0.96456
1815.56204	0.96440
1813.50823	0.96431
1811.45443	0.96430
1809.40063	0.96426
1807.34682	0.96392
1805.29302	0.96339
1803.23922	0.96327
1801.18541	0.96364
1799.13161	0.96384
1797.07781	0.96371
1795.02400	0.96344
1792.97020	0.96309
1790.91640	0.96331
1788.86260	0.96389
1786.80879	0.96398
1784.75499	0.96396
1782.70119	0.96427
1780.64738	0.96454
1778.59358	0.96451
1776.53978	0.96422
1774.48597	0.96425
1772.43217	0.96485
1770.37837	0.96509
1768.32456	0.96500
1766.27076	0.96484
1764.21696	0.96432
1762.16315	0.96403
1760.10935	0.96425
1758.05555	0.96436
1756.00174	0.96447
1753.94794	0.96472
1751.89414	0.96463
1749.84033	0.96401
1747.78653	0.96342
1745.73273	0.96326
1743.67892	0.96324
1741.62512	0.96297
1739.57132	0.96278
1737.51751	0.96315
1735.46371	0.96347
1733.40991	0.96309
1731.35611	0.96292
1729.30230	0.96308
1727.24850	0.96311
1725.19470	0.96338
1723.14089	0.96383
1721.08709	0.96407
1719.03329	0.96428
1716.97948	0.96449
1714.92568	0.96419
1712.87188	0.96370
1710.81807	0.96354
1708.76427	0.96372
1706.71047	0.96367
1704.65666	0.96309
1702.60286	0.96257
1700.54906	0.96248
1698.49525	0.96212
1696.44145	0.96137
1694.38765	0.96092
1692.33384	0.96057
1690.28004	0.95987
1688.22624	0.95897
1686.17243	0.95835
1684.11863	0.95791
1682.06483	0.95756
1680.01103	0.95754
1677.95722	0.95729
1675.90342	0.95660
1673.84962	0.95615
1671.79581	0.95610
1669.74201	0.95580
1667.68821	0.95506
1665.63440	0.95445
1663.58060	0.95408
1661.52680	0.95378
1659.47299	0.95367
1657.41919	0.95369
1655.36539	0.95365
1653.31158	0.95346
1651.25778	0.95307
1649.20398	0.95297
1647.15017	0.95313
1645.09637	0.95324
1643.04257	0.95332
1640.98876	0.95360
1638.93496	0.95395
1636.88116	0.95412
1634.82735	0.95403
1632.77355	0.95388
1630.71975	0.95398
1628.66594	0.95412
1626.61214	0.95379
1624.55834	0.95333
1622.50454	0.95344
1620.45073	0.95377
1618.39693	0.95428
1616.34313	0.95507
1614.28932	0.95509
1612.23552	0.95418
1610.18172	0.95256
1608.12791	0.94969
1606.07411	0.94482
1604.02031	0.93870
1601.96650	0.93422
1599.91270	0.93435
1597.85890	0.93866
1595.80509	0.94399
1593.75129	0.94797
1591.69749	0.95067
1589.64368	0.95225
1587.58988	0.95220
1585.53608	0.95122
1583.48227	0.95063
1581.42847	0.95142
1579.37467	0.95328
1577.32086	0.95537
1575.26706	0.95706
1573.21326	0.95794
1571.15945	0.95856
1569.10565	0.95921
1567.05185	0.95950
1564.99805	0.95939
1562.94424	0.95926
1560.89044	0.95963
1558.83664	0.96077
1556.78283	0.96098
1554.72903	0.96048
1552.67523	0.96002
1550.62142	0.95954
1548.56762	0.95908
1546.51382	0.95881
1544.46001	0.95883
1542.40621	0.95912
1540.35241	0.95909
1538.29860	0.95864
1536.24480	0.95842
1534.19100	0.95845
1532.13719	0.95884
1530.08339	0.95923
1528.02959	0.95942
1525.97578	0.95961
1523.92198	0.95996
1521.86818	0.96064
1519.81437	0.96134
1517.76057	0.96140
1515.70677	0.96088
1513.65297	0.96034
1511.59916	0.96014
1509.54536	0.96011
1507.49156	0.95963
1505.43775	0.95830
1503.38395	0.95714
1501.33015	0.95529
1499.27634	0.94977
1497.22254	0.93371
1495.16874	0.90893
1493.11493	0.89365
1491.06113	0.89714
1489.00733	0.91620
1486.95352	0.93256
1484.89972	0.94038
1482.84592	0.94475
1480.79211	0.94783
1478.73831	0.94982
1476.68451	0.95114
1474.63070	0.95204
1472.57690	0.95221
1470.52310	0.95188
1468.46929	0.95162
1466.41549	0.95154
1464.36169	0.95123
1462.30788	0.95031
1460.25408	0.94842
1458.20028	0.94044
1456.14648	0.91794
1454.09267	0.89674
1452.03887	0.88832
1449.98507	0.89217
1447.93126	0.90289
1445.87746	0.91275
1443.82366	0.92008
1441.76985	0.92620
1439.71605	0.93101
1437.66225	0.93509
1435.60844	0.93929
1433.55464	0.94258
1431.50084	0.94491
1429.44703	0.94661
1427.39323	0.94779
1425.33943	0.94901
1423.28562	0.95024
1421.23182	0.95099
1419.17802	0.95154
1417.12421	0.95219
1415.07041	0.95252
1413.01661	0.95269
1410.96280	0.95307
1408.90900	0.95376
1406.85520	0.95468
1404.80139	0.95558
1402.74759	0.95619
1400.69379	0.95657
1398.63999	0.95683
1396.58618	0.95709
1394.53238	0.95726
1392.47858	0.95699
1390.42477	0.95656
1388.37097	0.95607
1386.31717	0.95527
1384.26336	0.95439
1382.20956	0.95371
1380.15576	0.95331
1378.10195	0.95287
1376.04815	0.95213
1373.99435	0.95131
1371.94054	0.95067
1369.88674	0.95048
1367.83294	0.95093
1365.77913	0.95168
1363.72533	0.95224
1361.67153	0.95259
1359.61772	0.95308
1357.56392	0.95373
1355.51012	0.95429
1353.45631	0.95471
1351.40251	0.95505
1349.34871	0.95521
1347.29491	0.95513
1345.24110	0.95520
1343.18730	0.95567
1341.13350	0.95616
1339.07969	0.95644
1337.02589	0.95664
1334.97209	0.95651
1332.91828	0.95604
1330.86448	0.95573
1328.81068	0.95568
1326.75687	0.95576
1324.70307	0.95611
1322.64927	0.95662
1320.59546	0.95680
1318.54166	0.95649
1316.48786	0.95627
1314.43405	0.95651
1312.38025	0.95680
1310.32645	0.95682
1308.27264	0.95669
1306.21884	0.95672
1304.16504	0.95711
1302.11123	0.95756
1300.05743	0.95784
1298.00363	0.95819
1295.94982	0.95866
1293.89602	0.95898
1291.84222	0.95892
1289.78842	0.95876
1287.73461	0.95864
1285.68081	0.95838
1283.62701	0.95808
1281.57320	0.95786
1279.51940	0.95775
1277.46560	0.95788
1275.41179	0.95798
1273.35799	0.95798
1271.30419	0.95825
1269.25038	0.95864
1267.19658	0.95881
1265.14278	0.95874
1263.08897	0.95875
1261.03517	0.95893
1258.98137	0.95878
1256.92756	0.95836
1254.87376	0.95792
1252.81996	0.95736
1250.76615	0.95693
1248.71235	0.95678
1246.65855	0.95668
1244.60474	0.95651
1242.55094	0.95623
1240.49714	0.95589
1238.44334	0.95568
1236.38953	0.95552
1234.33573	0.95507
1232.28193	0.95453
1230.22812	0.95391
1228.17432	0.95307
1226.12052	0.95217
1224.06671	0.95143
1222.01291	0.95074
1219.95911	0.94976
1217.90530	0.94835
1215.85150	0.94658
1213.79770	0.94472
1211.74389	0.94279
1209.69009	0.94043
1207.63629	0.93783
1205.58248	0.93524
1203.52868	0.93255
1201.47488	0.92970
1199.42107	0.92670
1197.36727	0.92365
1195.31347	0.92084
1193.25966	0.91802
1191.20586	0.91477
1189.15206	0.91127
1187.09825	0.90745
1185.04445	0.90304
1182.99065	0.89847
1180.93685	0.89470
1178.88304	0.89223
1176.82924	0.89041
1174.77544	0.88823
1172.72163	0.88539
1170.66783	0.88218
1168.61403	0.87897
1166.56022	0.87613
1164.50642	0.87366
1162.45262	0.87143
1160.39881	0.86957
1158.34501	0.86759
1156.29121	0.86512
1154.23740	0.86283
1152.18360	0.86132
1150.12980	0.86043
1148.07599	0.85970
1146.02219	0.85860
1143.96839	0.85705
1141.91458	0.85535
1139.86078	0.85384
1137.80698	0.85274
1135.75317	0.85153
1133.69937	0.84962
1131.64557	0.84728
1129.59176	0.84489
1127.53796	0.84226
1125.48416	0.83904
1123.43036	0.83545
1121.37655	0.83165
1119.32275	0.82716
1117.26895	0.82208
1115.21514	0.81710
1113.16134	0.81222
1111.10754	0.80714
1109.05373	0.80226
1106.99993	0.79833
1104.94613	0.79538
1102.89232	0.79279
1100.83852	0.79014
1098.78472	0.78718
1096.73091	0.78425
1094.67711	0.78183
1092.62331	0.77977
1090.56950	0.77799
1088.51570	0.77638
1086.46190	0.77481
1084.40809	0.77352
1082.35429	0.77202
1080.30049	0.76979
1078.24668	0.76721
1076.19288	0.76459
1074.13908	0.76200
1072.08528	0.75921
1070.03147	0.75595
1067.97767	0.75237
1065.92387	0.74872
1063.87006	0.74500
1061.81626	0.74133
1059.76246	0.73767
1057.70865	0.73359
1055.65485	0.72905
1053.60105	0.72465
1051.54724	0.72023
1049.49344	0.71467
1047.43964	0.70784
1045.38583	0.70033
1043.33203	0.69234
1041.27823	0.68386
1039.22442	0.67501
1037.17062	0.66635
1035.11682	0.65792
1033.06301	0.64893
1031.00921	0.63961
1028.95541	0.63133
1026.90160	0.62532
1024.84780	0.62192
1022.79400	0.62015
1020.74019	0.61853
1018.68639	0.61617
1016.63259	0.61324
1014.57879	0.61037
1012.52498	0.60752
1010.47118	0.60435
1008.41738	0.60118
1006.36357	0.59849
1004.30977	0.59648
1002.25597	0.59542
1000.20216	0.59559
998.14836	0.59695
996.09456	0.59923
994.04075	0.60197
991.98695	0.60497
989.93315	0.60834
987.87934	0.61218
985.82554	0.61660
983.77174	0.62164
981.71793	0.62726
979.66413	0.63374
977.61033	0.64131
975.55652	0.64997
973.50272	0.65934
971.44892	0.66871
969.39511	0.67792
967.34131	0.68708
965.28751	0.69559
963.23371	0.70317
961.17990	0.71079
959.12610	0.71898
957.07230	0.72692
955.01849	0.73394
952.96469	0.74027
950.91089	0.74597
948.85708	0.75085
946.80328	0.75511
944.74948	0.75929
942.69567	0.76354
940.64187	0.76732
938.58807	0.77056
936.53426	0.77403
934.48046	0.77814
932.42666	0.78221
930.37285	0.78578
928.31905	0.78896
926.26525	0.79151
924.21144	0.79320
922.15764	0.79415
920.10384	0.79458
918.05003	0.79425
915.99623	0.79310
913.94243	0.79178
911.88862	0.79115
909.83482	0.79131
907.78102	0.79209
905.72722	0.79468
903.67341	0.80044
901.61961	0.80876
899.56581	0.81755
897.51200	0.82544
895.45820	0.83225
893.40440	0.83796
891.35059	0.84281
889.29679	0.84704
887.24299	0.85057
885.18918	0.85368
883.13538	0.85642
881.08158	0.85861
879.02777	0.86050
876.97397	0.86244
874.92017	0.86493
872.86636	0.86821
870.81256	0.87195
868.75876	0.87568
866.70495	0.87876
864.65115	0.88121
862.59735	0.88417
860.54354	0.88762
858.48974	0.89053
856.43594	0.89266
854.38213	0.89418
852.32833	0.89497
850.27453	0.89527
848.22073	0.89540
846.16692	0.89500
844.11312	0.89390
842.05932	0.89255
840.00551	0.89153
837.95171	0.89140
835.89791	0.89189
833.84410	0.89206
831.79030	0.89142
829.73650	0.89074
827.68269	0.89149
825.62889	0.89373
823.57509	0.89622
821.52128	0.89754
819.46748	0.89769
817.41368	0.89803
815.35987	0.89851
813.30607	0.89802
811.25227	0.89576
809.19846	0.89166
807.14466	0.88566
805.09086	0.87806
803.03705	0.87049
800.98325	0.86485
798.92945	0.86229
796.87565	0.86289
794.82184	0.86567
792.76804	0.86842
790.71424	0.86943
788.66043	0.86888
786.60663	0.86715
784.55283	0.86428
782.49902	0.86044
780.44522	0.85669
778.39142	0.85446
776.33761	0.85307
774.28381	0.85028
772.23001	0.84485
770.17620	0.83668
768.12240	0.82690
766.06860	0.81683
764.01479	0.80649
761.96099	0.79548
759.90719	0.78472
757.85338	0.77641
755.79958	0.77169
753.74578	0.77061
751.69197	0.77229
749.63817	0.77482
747.58437	0.77822
745.53056	0.78484
743.47676	0.79555
741.42296	0.80820
739.36916	0.82041
737.31535	0.83181
735.26155	0.84250
733.20775	0.85154
731.15394	0.85834
729.10014	0.86286
727.04634	0.86547
724.99253	0.86788
722.93873	0.87120
720.88493	0.87483
718.83112	0.87817
716.77732	0.88011
714.72352	0.87954
712.66971	0.87642
710.61591	0.86865
708.56211	0.85131
706.50830	0.82025
704.45450	0.77378
702.40070	0.71445
700.34689	0.64835
698.29309	0.58689
696.23929	0.55542
694.18548	0.57789
692.13168	0.64142
690.07788	0.70687
688.02408	0.75186
685.97027	0.77855
683.91647	0.79420
681.86267	0.80342
679.80886	0.80941
677.75506	0.81347
675.70126	0.81630
673.64745	0.81946
671.59365	0.82222
669.53985	0.82326
667.48604	0.82456
665.43224	0.82650
663.37844	0.82746
661.32463	0.82761
659.27083	0.82700
657.21703	0.82607
655.16322	0.82502
653.10942	0.82315
651.05562	0.82076
649.00181	0.81931
646.94801	0.81948
644.89421	0.82143
642.84040	0.82476
640.78660	0.82800
638.73280	0.83004
636.67899	0.83094
634.62519	0.83155
632.57139	0.83218
630.51759	0.83241
628.46378	0.83216
626.40998	0.83216
624.35618	0.83255
622.30237	0.83140
620.24857	0.82796
618.19477	0.82483
616.14096	0.82308
614.08716	0.82036
612.03336	0.81615
609.97955	0.81166
607.92575	0.80781
605.87195	0.80581
603.81814	0.80438
601.76434	0.80073
599.71054	0.79635
597.65673	0.79363
595.60293	0.79106
593.54913	0.78750
591.49532	0.78434
589.44152	0.78242
587.38772	0.78136
585.33391	0.78073
583.28011	0.78020
581.22631	0.77949
579.17250	0.77795
577.11870	0.77581
575.06490	0.77318
573.01110	0.76885
570.95729	0.76401
568.90349	0.76050
566.84969	0.75702
564.79588	0.75226
562.74208	0.74693
560.68828	0.74101
558.63447	0.73367
556.58067	0.72518
554.52687	0.71641
552.47306	0.70828
550.41926	0.70105
548.36546	0.69327
546.31165	0.68372
544.25785	0.67267
542.20405	0.66012
540.15024	0.64668
538.09644	0.63496
536.04264	0.62731
533.98883	0.62399
531.93503	0.62338
529.88123	0.62387
527.82742	0.62587
525.77362	0.63083
523.71982	0.63823
521.66602	0.64497
519.61221	0.64908
517.55841	0.65246
515.50461	0.65710
513.45080	0.66103
511.39700	0.66497
509.34320	0.67169
507.28939	0.67926
505.23559	0.68446
503.18179	0.68646
501.12798	0.68535
499.07418	0.68403
497.02038	0.68425
494.96657	0.68356
492.91277	0.67970
490.85897	0.67287
488.80516	0.66453
486.75136	0.65404
484.69756	0.63941
482.64375	0.62322
480.58995	0.60787
478.53615	0.59222
476.48234	0.57721
474.42854	0.56327
472.37474	0.54962
470.32093	0.53864
468.26713	0.53189
466.21333	0.52885
464.15953	0.52966
462.10572	0.53300
460.05192	0.53650
457.99812	0.54153
455.94431	0.54863
453.89051	0.55451
451.83671	0.55952
449.78290	0.56456
447.72910	0.56768
445.67530	0.56876
443.62149	0.57141
441.56769	0.57532
439.51389	0.57718
437.46008	0.57634
435.40628	0.57298
433.35248	0.56771
431.29867	0.56317
429.24487	0.56379
427.19107	0.56681
425.13726	0.56659
423.08346	0.56370
421.02966	0.55901
418.97585	0.55692
416.92205	0.56485
414.86825	0.57489
412.81445	0.58169
410.76064	0.58663
408.70684	0.59145
406.65304	0.59759
404.59923	0.60298
402.54543	0.60499
400.49163	0.60460
398.43782	0.60085
