3996.70104	0.99107
3994.64724	0.99116
3992.59344	0.99137
3990.53964	0.99103
3988.48583	0.99054
3986.43203	0.99071
3984.37823	0.99125
3982.32442	0.99143
3980.27062	0.99105
3978.21682	0.99083
3976.16301	0.99144
3974.10921	0.99202
3972.05541	0.99188
3970.00160	0.99147
3967.94780	0.99131
3965.89400	0.99146
3963.84019	0.99125
3961.78639	0.99051
3959.73259	0.99025
3957.67878	0.99086
3955.62498	0.99137
3953.57118	0.99137
3951.51737	0.99137
3949.46357	0.99133
3947.40977	0.99118
3945.35596	0.99122
3943.30216	0.99133
3941.24836	0.99135
3939.19455	0.99125
3937.14075	0.99126
3935.08695	0.99126
3933.03315	0.99122
3930.97934	0.99128
3928.92554	0.99117
3926.87174	0.99094
3924.81793	0.99071
3922.76413	0.99047
3920.71033	0.99049
3918.65652	0.99091
3916.60272	0.99133
3914.54892	0.99146
3912.49511	0.99156
3910.44131	0.99144
3908.38751	0.99097
3906.33370	0.99075
3904.27990	0.99131
3902.22610	0.99186
3900.17229	0.99168
3898.11849	0.99113
3896.06469	0.99042
3894.01088	0.99008
3891.95708	0.99051
3889.90328	0.99140
3887.84947	0.99214
3885.79567	0.99247
3883.74187	0.99200
3881.68807	0.99129
3879.63426	0.99125
3877.58046	0.99144
3875.52666	0.99182
3873.47285	0.99268
3871.41905	0.99277
3869.36525	0.99189
3867.31144	0.99153
3865.25764	0.99207
3863.20384	0.99247
3861.15003	0.99211
3859.09623	0.99197
3857.04243	0.99237
3854.98862	0.99279
3852.93482	0.99284
3850.88102	0.99256
3848.82721	0.99200
3846.77341	0.99131
3844.71961	0.99081
3842.66580	0.99088
3840.61200	0.99128
3838.55820	0.99131
3836.50439	0.99110
3834.45059	0.99135
3832.39679	0.99180
3830.34298	0.99182
3828.28918	0.99161
3826.23538	0.99172
3824.18158	0.99192
3822.12777	0.99172
3820.07397	0.99143
3818.02017	0.99138
3815.96636	0.99162
3813.91256	0.99179
3811.85876	0.99161
3809.80495	0.99146
3807.75115	0.99143
3805.69735	0.99134
3803.64354	0.99100
3801.58974	0.99101
3799.53594	0.99151
3797.48213	0.99126
3795.42833	0.99038
3793.37453	0.99005
3791.32072	0.99072
3789.26692	0.99155
3787.21312	0.99130
3785.15931	0.99042
3783.10551	0.99009
3781.05171	0.99022
3778.99790	0.99077
3776.94410	0.99147
3774.89030	0.99155
3772.83650	0.99129
3770.78269	0.99092
3768.72889	0.99024
3766.67509	0.99024
3764.62128	0.99112
3762.56748	0.99135
3760.51368	0.99075
3758.45987	0.99037
3756.40607	0.99022
3754.35227	0.98982
3752.29846	0.98958
3750.24466	0.99050
3748.19086	0.99191
3746.13705	0.99263
3744.08325	0.99228
3742.02945	0.99101
3739.97564	0.99034
3737.92184	0.99066
3735.86804	0.99135
3733.81423	0.99088
3731.76043	0.99001
3729.70663	0.99006
3727.65282	0.99009
3725.59902	0.98915
3723.54522	0.98763
3721.49141	0.98620
3719.43761	0.98419
3717.38381	0.98161
3715.33001	0.97912
3713.27620	0.97588
3711.22240	0.97096
3709.16860	0.96627
3707.11479	0.96180
3705.06099	0.95637
3703.00719	0.95035
3700.95338	0.94480
3698.89958	0.94144
3696.84578	0.94058
3694.79197	0.94164
3692.73817	0.94357
3690.68437	0.94597
3688.63056	0.94985
3686.57676	0.95405
3684.52296	0.95655
3682.46915	0.95741
3680.41535	0.95761
3678.36155	0.95775
3676.30774	0.95779
3674.25394	0.95805
3672.20014	0.95812
3670.14633	0.95720
3668.09253	0.95549
3666.03873	0.95411
3663.98492	0.95272
3661.93112	0.95102
3659.87732	0.94928
3657.82352	0.94735
3655.76971	0.94534
3653.71591	0.94418
3651.66211	0.94358
3649.60830	0.94262
3647.55450	0.94173
3645.50070	0.94188
3643.44689	0.94213
3641.39309	0.94175
3639.33929	0.94072
3637.28548	0.93934
3635.23168	0.93788
3633.17788	0.93617
3631.12407	0.93463
3629.07027	0.93335
3627.01647	0.93174
3624.96266	0.93045
3622.90886	0.92952
3620.85506	0.92897
3618.80125	0.92958
3616.74745	0.93096
3614.69365	0.93200
3612.63984	0.93282
3610.58604	0.93287
3608.53224	0.93219
3606.47844	0.93217
3604.42463	0.93278
3602.37083	0.93269
3600.31703	0.93216
3598.26322	0.93253
3596.20942	0.93318
3594.15562	0.93300
3592.10181	0.93236
3590.04801	0.93188
3587.99421	0.93145
3585.94040	0.93076
3583.88660	0.93015
3581.83280	0.92956
3579.77899	0.92865
3577.72519	0.92786
3575.67139	0.92729
3573.61758	0.92676
3571.56378	0.92657
3569.50998	0.92629
3567.45617	0.92499
3565.40237	0.92320
3563.34857	0.92186
3561.29476	0.92068
3559.24096	0.91941
3557.18716	0.91814
3555.13335	0.91711
3553.07955	0.91623
3551.02575	0.91545
3548.97195	0.91491
3546.91814	0.91443
3544.86434	0.91392
3542.81054	0.91341
3540.75673	0.91309
3538.70293	0.91299
3536.64913	0.91292
3534.59532	0.91295
3532.54152	0.91308
3530.48772	0.91349
3528.43391	0.91431
3526.38011	0.91479
3524.32631	0.91480
3522.27250	0.91537
3520.21870	0.91617
3518.16490	0.91623
3516.11109	0.91601
3514.05729	0.91648
3512.00349	0.91742
3509.94968	0.91792
3507.89588	0.91815
3505.84208	0.91863
3503.78827	0.91879
3501.73447	0.91843
3499.68067	0.91802
3497.62687	0.91770
3495.57306	0.91745
3493.51926	0.91730
3491.46546	0.91760
3489.41165	0.91815
3487.35785	0.91805
3485.30405	0.91739
3483.25024	0.91704
3481.19644	0.91699
3479.14264	0.91679
3477.08883	0.91640
3475.03503	0.91584
3472.98123	0.91541
3470.92742	0.91526
3468.87362	0.91522
3466.81982	0.91514
3464.76601	0.91486
3462.71221	0.91442
3460.65841	0.91394
3458.60460	0.91335
3456.55080	0.91283
3454.49700	0.91255
3452.44319	0.91236
3450.38939	0.91202
3448.33559	0.91173
3446.28178	0.91145
3444.22798	0.91088
3442.17418	0.91010
3440.12038	0.90923
3438.06657	0.90853
3436.01277	0.90826
3433.95897	0.90792
3431.90516	0.90710
3429.85136	0.90635
3427.79756	0.90567
3425.74375	0.90474
3423.68995	0.90386
3421.63615	0.90301
3419.58234	0.90191
3417.52854	0.90077
3415.47474	0.89991
3413.42093	0.89928
3411.36713	0.89865
3409.31333	0.89824
3407.25952	0.89837
3405.20572	0.89837
3403.15192	0.89741
3401.09811	0.89641
3399.04431	0.89634
3396.99051	0.89684
3394.93670	0.89757
3392.88290	0.89812
3390.82910	0.89838
3388.77529	0.89891
3386.72149	0.89989
3384.66769	0.90101
3382.61389	0.90172
3380.56008	0.90215
3378.50628	0.90283
3376.45248	0.90376
3374.39867	0.90466
3372.34487	0.90492
3370.29107	0.90458
3368.23726	0.90461
3366.18346	0.90510
3364.12966	0.90550
3362.07585	0.90595
3360.02205	0.90665
3357.96825	0.90721
3355.91444	0.90765
3353.86064	0.90804
3351.80684	0.90833
3349.75303	0.90873
3347.69923	0.90874
3345.64543	0.90842
3343.59162	0.90863
3341.53782	0.90931
3339.48402	0.91011
3337.43021	0.91068
3335.37641	0.91053
3333.32261	0.91010
3331.26881	0.91076
3329.21500	0.91234
3327.16120	0.91338
3325.10740	0.91364
3323.05359	0.91374
3320.99979	0.91382
3318.94599	0.91395
3316.89218	0.91421
3314.83838	0.91419
3312.78458	0.91403
3310.73077	0.91421
3308.67697	0.91463
3306.62317	0.91507
3304.56936	0.91545
3302.51556	0.91574
3300.46176	0.91617
3298.40795	0.91670
3296.35415	0.91692
3294.30035	0.91692
3292.24654	0.91720
3290.19274	0.91781
3288.13894	0.91806
3286.08513	0.91801
3284.03133	0.91843
3281.97753	0.91910
3279.92372	0.91944
3277.86992	0.91960
3275.81612	0.91981
3273.76232	0.92023
3271.70851	0.92104
3269.65471	0.92170
3267.60091	0.92171
3265.54710	0.92178
3263.49330	0.92245
3261.43950	0.92301
3259.38569	0.92326
3257.33189	0.92353
3255.27809	0.92363
3253.22428	0.92377
3251.17048	0.92418
3249.11668	0.92473
3247.06287	0.92549
3245.00907	0.92598
3242.95527	0.92575
3240.90146	0.92570
3238.84766	0.92635
3236.79386	0.92717
3234.74005	0.92786
3232.68625	0.92847
3230.63245	0.92907
3228.57864	0.92977
3226.52484	0.93044
3224.47104	0.93098
3222.41724	0.93110
3220.36343	0.93083
3218.30963	0.93102
3216.25583	0.93181
3214.20202	0.93283
3212.14822	0.93410
3210.09442	0.93488
3208.04061	0.93490
3205.98681	0.93508
3203.93301	0.93587
3201.87920	0.93693
3199.82540	0.93803
3197.77160	0.93894
3195.71779	0.93934
3193.66399	0.93922
3191.61019	0.93897
3189.55638	0.93915
3187.50258	0.93996
3185.44878	0.94093
3183.39497	0.94154
3181.34117	0.94196
3179.28737	0.94254
3177.23356	0.94291
3175.17976	0.94283
3173.12596	0.94305
3171.07215	0.94404
3169.01835	0.94508
3166.96455	0.94591
3164.91075	0.94661
3162.85694	0.94735
3160.80314	0.94824
3158.74934	0.94858
3156.69553	0.94825
3154.64173	0.94824
3152.58793	0.94885
3150.53412	0.94953
3148.48032	0.95025
3146.42652	0.95102
3144.37271	0.95166
3142.31891	0.95208
3140.26511	0.95228
3138.21130	0.95274
3136.15750	0.95333
3134.10370	0.95355
3132.04989	0.95370
3129.99609	0.95419
3127.94229	0.95495
3125.88848	0.95545
3123.83468	0.95569
3121.78088	0.95615
3119.72707	0.95651
3117.67327	0.95659
3115.61947	0.95684
3113.56566	0.95734
3111.51186	0.95785
3109.45806	0.95817
3107.40426	0.95838
3105.35045	0.95865
3103.29665	0.95902
3101.24285	0.95954
3099.18904	0.95999
3097.13524	0.96023
3095.08144	0.96043
3093.02763	0.96072
3090.97383	0.96067
3088.92003	0.96020
3086.86622	0.95984
3084.81242	0.95963
3082.75862	0.95984
3080.70481	0.96038
3078.65101	0.96067
3076.59721	0.96091
3074.54340	0.96152
3072.48960	0.96220
3070.43580	0.96246
3068.38199	0.96247
3066.32819	0.96263
3064.27439	0.96282
3062.22058	0.96265
3060.16678	0.96247
3058.11298	0.96298
3056.05918	0.96388
3054.00537	0.96438
3051.95157	0.96448
3049.89777	0.96461
3047.84396	0.96490
3045.79016	0.96524
3043.73636	0.96557
3041.68255	0.96580
3039.62875	0.96573
3037.57495	0.96572
3035.52114	0.96593
3033.46734	0.96594
3031.41354	0.96607
3029.35973	0.96666
3027.30593	0.96724
3025.25213	0.96757
3023.19832	0.96772
3021.14452	0.96777
3019.09072	0.96794
3017.03691	0.96810
3014.98311	0.96793
3012.92931	0.96763
3010.87550	0.96768
3008.82170	0.96761
3006.76790	0.96706
3004.71409	0.96661
3002.66029	0.96665
3000.60649	0.96680
2998.55269	0.96667
2996.49888	0.96635
2994.44508	0.96601
2992.39128	0.96567
2990.33747	0.96511
2988.28367	0.96421
2986.22987	0.96325
2984.17606	0.96234
2982.12226	0.96125
2980.06846	0.95964
2978.01465	0.95769
2975.96085	0.95600
2973.90705	0.95427
2971.85324	0.95205
2969.79944	0.94945
2967.74564	0.94626
2965.69183	0.94273
2963.63803	0.93963
2961.58423	0.93674
2959.53042	0.93364
2957.47662	0.93042
2955.42282	0.92725
2953.36901	0.92445
2951.31521	0.92189
2949.26141	0.91832
2947.20761	0.91288
2945.15380	0.90548
2943.10000	0.89603
2941.04620	0.88409
2938.99239	0.86901
2936.93859	0.85085
2934.88479	0.82992
2932.83098	0.80603
2930.77718	0.77862
2928.72338	0.74678
2926.66957	0.70970
2924.61577	0.66702
2922.56197	0.61918
2920.50816	0.56871
2918.45436	0.52167
2916.40056	0.48814
2914.34675	0.47839
2912.29295	0.49437
2910.23915	0.52679
2908.18534	0.56366
2906.13154	0.59813
2904.07774	0.62795
2902.02393	0.65268
2899.97013	0.67297
2897.91633	0.69037
2895.86252	0.70613
2893.80872	0.72136
2891.75492	0.73722
2889.70112	0.75386
2887.64731	0.77072
2885.59351	0.78747
2883.53971	0.80393
2881.48590	0.81981
2879.43210	0.83521
2877.37830	0.84976
2875.32449	0.86202
2873.27069	0.87128
2871.21689	0.87759
2869.16308	0.88065
2867.10928	0.87989
2865.05548	0.87469
2863.00167	0.86411
2860.94787	0.84618
2858.89407	0.81791
2856.84026	0.77583
2854.78646	0.71750
2852.73266	0.64533
2850.67885	0.57330
2848.62505	0.52717
2846.57125	0.52652
2844.51744	0.56712
2842.46364	0.62858
2840.40984	0.69178
2838.35603	0.74627
2836.30223	0.78954
2834.24843	0.82310
2832.19463	0.84900
2830.14082	0.86903
2828.08702	0.88475
2826.03322	0.89725
2823.97941	0.90737
2821.92561	0.91578
2819.87181	0.92283
2817.81800	0.92865
2815.76420	0.93341
2813.71040	0.93738
2811.65659	0.94091
2809.60279	0.94417
2807.54899	0.94692
2805.49518	0.94935
2803.44138	0.95192
2801.38758	0.95409
2799.33377	0.95551
2797.27997	0.95679
2795.22617	0.95821
2793.17236	0.95998
2791.11856	0.96201
2789.06476	0.96356
2787.01095	0.96461
2784.95715	0.96571
2782.90335	0.96672
2780.84955	0.96757
2778.79574	0.96859
2776.74194	0.96972
2774.68814	0.97062
2772.63433	0.97119
2770.58053	0.97164
2768.52673	0.97219
2766.47292	0.97279
2764.41912	0.97349
2762.36532	0.97416
2760.31151	0.97463
2758.25771	0.97501
2756.20391	0.97533
2754.15010	0.97563
2752.09630	0.97579
2750.04250	0.97591
2747.98869	0.97628
2745.93489	0.97675
2743.88109	0.97693
2741.82728	0.97677
2739.77348	0.97672
2737.71968	0.97683
2735.66587	0.97694
2733.61207	0.97738
2731.55827	0.97797
2729.50446	0.97837
2727.45066	0.97867
2725.39686	0.97878
2723.34306	0.97872
2721.28925	0.97893
2719.23545	0.97938
2717.18165	0.97962
2715.12784	0.97966
2713.07404	0.97970
2711.02024	0.97998
2708.96643	0.98059
2706.91263	0.98100
2704.85883	0.98089
2702.80502	0.98073
2700.75122	0.98075
2698.69742	0.98106
2696.64361	0.98152
2694.58981	0.98168
2692.53601	0.98143
2690.48220	0.98115
2688.42840	0.98127
2686.37460	0.98153
2684.32079	0.98156
2682.26699	0.98166
2680.21319	0.98204
2678.15938	0.98228
2676.10558	0.98214
2674.05178	0.98185
2671.99797	0.98138
2669.94417	0.98084
2667.89037	0.98075
2665.83657	0.98087
2663.78276	0.98068
2661.72896	0.98043
2659.67516	0.98046
2657.62135	0.98072
2655.56755	0.98095
2653.51375	0.98098
2651.45994	0.98089
2649.40614	0.98101
2647.35234	0.98113
2645.29853	0.98097
2643.24473	0.98085
2641.19093	0.98091
2639.13712	0.98103
2637.08332	0.98123
2635.02952	0.98135
2632.97571	0.98137
2630.92191	0.98131
2628.86811	0.98129
2626.81430	0.98173
2624.76050	0.98241
2622.70670	0.98291
2620.65289	0.98338
2618.59909	0.98376
2616.54529	0.98373
2614.49149	0.98360
2612.43768	0.98400
2610.38388	0.98473
2608.33008	0.98530
2606.27627	0.98548
2604.22247	0.98547
2602.16867	0.98590
2600.11486	0.98653
2598.06106	0.98687
2596.00726	0.98729
2593.95345	0.98764
2591.89965	0.98756
2589.84585	0.98731
2587.79204	0.98713
2585.73824	0.98742
2583.68444	0.98802
2581.63063	0.98796
2579.57683	0.98736
2577.52303	0.98725
2575.46922	0.98804
2573.41542	0.98879
2571.36162	0.98869
2569.30781	0.98869
2567.25401	0.98913
2565.20021	0.98905
2563.14640	0.98866
2561.09260	0.98897
2559.03880	0.98986
2556.98500	0.99029
2554.93119	0.99024
2552.87739	0.99022
2550.82359	0.99024
2548.76978	0.99021
2546.71598	0.99017
2544.66218	0.99008
2542.60837	0.98976
2540.55457	0.98977
2538.50077	0.99017
2536.44696	0.99019
2534.39316	0.99025
2532.33936	0.99054
2530.28555	0.99044
2528.23175	0.99017
2526.17795	0.99042
2524.12414	0.99106
2522.07034	0.99133
2520.01654	0.99108
2517.96273	0.99062
2515.90893	0.99031
2513.85513	0.99065
2511.80132	0.99128
2509.74752	0.99172
2507.69372	0.99206
2505.63992	0.99187
2503.58611	0.99110
2501.53231	0.99068
2499.47851	0.99092
2497.42470	0.99115
2495.37090	0.99114
2493.31710	0.99120
2491.26329	0.99101
2489.20949	0.99080
2487.15569	0.99148
2485.10188	0.99249
2483.04808	0.99262
2480.99428	0.99190
2478.94047	0.99148
2476.88667	0.99158
2474.83287	0.99181
2472.77906	0.99201
2470.72526	0.99190
2468.67146	0.99196
2466.61765	0.99222
2464.56385	0.99224
2462.51005	0.99185
2460.45624	0.99085
2458.40244	0.99026
2456.34864	0.99078
2454.29483	0.99152
2452.24103	0.99198
2450.18723	0.99214
2448.13343	0.99202
2446.07962	0.99193
2444.02582	0.99221
2441.97202	0.99287
2439.91821	0.99335
2437.86441	0.99317
2435.81061	0.99224
2433.75680	0.99147
2431.70300	0.99154
2429.64920	0.99173
2427.59539	0.99189
2425.54159	0.99227
2423.48779	0.99263
2421.43398	0.99292
2419.38018	0.99282
2417.32638	0.99207
2415.27257	0.99165
2413.21877	0.99210
2411.16497	0.99262
2409.11116	0.99291
2407.05736	0.99310
2405.00356	0.99302
2402.94975	0.99300
2400.89595	0.99300
2398.84215	0.99268
2396.78834	0.99290
2394.73454	0.99368
2392.68074	0.99356
2390.62694	0.99277
2388.57313	0.99242
2386.51933	0.99246
2384.46553	0.99252
2382.41172	0.99247
2380.35792	0.99221
2378.30412	0.99175
2376.25031	0.99178
2374.19651	0.99237
2372.14271	0.99241
2370.08890	0.99225
2368.03510	0.99278
2365.98130	0.99276
2363.92749	0.99159
2361.87369	0.99029
2359.81989	0.98965
2357.76608	0.98958
2355.71228	0.98967
2353.65848	0.99016
2351.60467	0.99061
2349.55087	0.99063
2347.49707	0.99037
2345.44326	0.99001
2343.38946	0.99025
2341.33566	0.99085
2339.28186	0.99065
2337.22805	0.99004
2335.17425	0.98932
2333.12045	0.98858
2331.06664	0.98883
2329.01284	0.98964
2326.95904	0.98950
2324.90523	0.98877
2322.85143	0.98819
2320.79763	0.98750
2318.74382	0.98774
2316.69002	0.98927
2314.63622	0.99024
2312.58241	0.99012
2310.52861	0.99014
2308.47481	0.99050
2306.42100	0.99027
2304.36720	0.98977
2302.31340	0.98954
2300.25959	0.98960
2298.20579	0.98995
2296.15199	0.99011
2294.09818	0.99003
2292.04438	0.99000
2289.99058	0.98990
2287.93677	0.98974
2285.88297	0.99002
2283.82917	0.99053
2281.77537	0.99063
2279.72156	0.99063
2277.66776	0.99085
2275.61396	0.99094
2273.56015	0.99097
2271.50635	0.99112
2269.45255	0.99087
2267.39874	0.99057
2265.34494	0.99131
2263.29114	0.99247
2261.23733	0.99273
2259.18353	0.99212
2257.12973	0.99188
2255.07592	0.99221
2253.02212	0.99232
2250.96832	0.99198
2248.91451	0.99193
2246.86071	0.99248
2244.80691	0.99221
2242.75310	0.99116
2240.69930	0.99132
2238.64550	0.99266
2236.59169	0.99313
2234.53789	0.99278
2232.48409	0.99312
2230.43029	0.99366
2228.37648	0.99335
2226.32268	0.99265
2224.26888	0.99202
2222.21507	0.99132
2220.16127	0.99139
2218.10747	0.99188
2216.05366	0.99077
2213.99986	0.98901
2211.94606	0.98920
2209.89225	0.99164
2207.83845	0.99401
2205.78465	0.99492
2203.73084	0.99478
2201.67704	0.99422
2199.62324	0.99443
2197.56943	0.99478
2195.51563	0.99424
2193.46183	0.99391
2191.40802	0.99371
2189.35422	0.99289
2187.30042	0.99273
2185.24661	0.99430
2183.19281	0.99567
2181.13901	0.99479
2179.08520	0.99207
2177.03140	0.98960
2174.97760	0.99039
2172.92380	0.99353
2170.86999	0.99572
2168.81619	0.99649
2166.76239	0.99647
2164.70858	0.99545
2162.65478	0.99358
2160.60098	0.99454
2158.54717	0.99876
2156.49337	1.00034
2154.43957	0.99873
2152.38576	0.99668
2150.33196	0.99595
2148.27816	0.99777
2146.22435	0.99906
2144.17055	0.99742
2142.11675	0.99624
2140.06294	0.99605
2138.00914	0.99487
2135.95534	0.99451
2133.90153	0.99499
2131.84773	0.99419
2129.79393	0.99355
2127.74012	0.99425
2125.68632	0.99451
2123.63252	0.99346
2121.57871	0.99254
2119.52491	0.99273
2117.47111	0.99310
2115.41731	0.99289
2113.36350	0.99335
2111.30970	0.99449
2109.25590	0.99390
2107.20209	0.99230
2105.14829	0.99231
2103.09449	0.99348
2101.04068	0.99409
2098.98688	0.99425
2096.93308	0.99504
2094.87927	0.99553
2092.82547	0.99558
2090.77167	0.99625
2088.71786	0.99607
2086.66406	0.99481
2084.61026	0.99468
2082.55645	0.99466
2080.50265	0.99337
2078.44885	0.99259
2076.39504	0.99299
2074.34124	0.99363
2072.28744	0.99433
2070.23363	0.99523
2068.17983	0.99655
2066.12603	0.99821
2064.07223	0.99844
2062.01842	0.99633
2059.96462	0.99398
2057.91082	0.99335
2055.85701	0.99404
2053.80321	0.99305
2051.74941	0.99017
2049.69560	0.98992
2047.64180	0.99278
2045.58800	0.99399
2043.53419	0.99337
2041.48039	0.99269
2039.42659	0.99296
2037.37278	0.99572
2035.31898	0.99728
2033.26518	0.99513
2031.21137	0.99394
2029.15757	0.99474
2027.10377	0.99426
2025.04996	0.99316
2022.99616	0.99308
2020.94236	0.99450
2018.88855	0.99690
2016.83475	0.99799
2014.78095	0.99798
2012.72714	0.99677
2010.67334	0.99353
2008.61954	0.99168
2006.56574	0.99307
2004.51193	0.99401
2002.45813	0.99315
2000.40433	0.99282
1998.35052	0.99373
1996.29672	0.99522
1994.24292	0.99642
1992.18911	0.99656
1990.13531	0.99521
1988.08151	0.99380
1986.02770	0.99363
1983.97390	0.99382
1981.92010	0.99358
1979.86629	0.99323
1977.81249	0.99325
1975.75869	0.99404
1973.70488	0.99589
1971.65108	0.99825
1969.59728	0.99918
1967.54347	0.99696
1965.48967	0.99427
1963.43587	0.99408
1961.38206	0.99487
1959.32826	0.99496
1957.27446	0.99386
1955.22066	0.99199
1953.16685	0.99178
1951.11305	0.99397
1949.05925	0.99513
1947.00544	0.99388
1944.95164	0.99293
1942.89784	0.99358
1940.84403	0.99417
1938.79023	0.99404
1936.73643	0.99370
1934.68262	0.99260
1932.62882	0.99163
1930.57502	0.99190
1928.52121	0.99266
1926.46741	0.99352
1924.41361	0.99395
1922.35980	0.99339
1920.30600	0.99341
1918.25220	0.99386
1916.19839	0.99262
1914.14459	0.99138
1912.09079	0.99197
1910.03698	0.99261
1907.98318	0.99209
1905.92938	0.99202
1903.87557	0.99262
1901.82177	0.99239
1899.76797	0.99177
1897.71417	0.99175
1895.66036	0.99153
1893.60656	0.99098
1891.55276	0.99102
1889.49895	0.99149
1887.44515	0.99197
1885.39135	0.99254
1883.33754	0.99299
1881.28374	0.99300
1879.22994	0.99252
1877.17613	0.99185
1875.12233	0.99193
1873.06853	0.99268
1871.01472	0.99288
1868.96092	0.99253
1866.90712	0.99205
1864.85331	0.99142
1862.79951	0.99092
1860.74571	0.99061
1858.69190	0.99056
1856.63810	0.99062
1854.58430	0.99100
1852.53049	0.99176
1850.47669	0.99195
1848.42289	0.99151
1846.36908	0.99104
1844.31528	0.99072
1842.26148	0.99110
1840.20768	0.99170
1838.15387	0.99169
1836.10007	0.99153
1834.04627	0.99160
1831.99246	0.99171
1829.93866	0.99188
1827.88486	0.99156
1825.83105	0.99064
1823.77725	0.99015
1821.72345	0.99008
1819.66964	0.99006
1817.61584	0.99041
1815.56204	0.99082
1813.50823	0.99087
1811.45443	0.99045
1809.40063	0.98982
1807.34682	0.98959
1805.29302	0.98954
1803.23922	0.98939
1801.18541	0.98933
1799.13161	0.98927
1797.07781	0.98903
1795.02400	0.98879
1792.97020	0.98847
1790.91640	0.98803
1788.86260	0.98803
1786.80879	0.98829
1784.75499	0.98839
1782.70119	0.98822
1780.64738	0.98784
1778.59358	0.98745
1776.53978	0.98715
1774.48597	0.98675
1772.43217	0.98603
1770.37837	0.98515
1768.32456	0.98469
1766.27076	0.98472
1764.21696	0.98469
1762.16315	0.98439
1760.10935	0.98425
1758.05555	0.98405
1756.00174	0.98310
1753.94794	0.98215
1751.89414	0.98169
1749.84033	0.98066
1747.78653	0.97900
1745.73273	0.97741
1743.67892	0.97588
1741.62512	0.97467
1739.57132	0.97355
1737.51751	0.97222
1735.46371	0.97113
1733.40991	0.97047
1731.35611	0.97011
1729.30230	0.96982
1727.24850	0.96960
1725.19470	0.96933
1723.14089	0.96870
1721.08709	0.96786
1719.03329	0.96720
1716.97948	0.96635
1714.92568	0.96523
1712.87188	0.96443
1710.81807	0.96365
1708.76427	0.96278
1706.71047	0.96202
1704.65666	0.96129
1702.60286	0.96028
1700.54906	0.95879
1698.49525	0.95761
1696.44145	0.95676
1694.38765	0.95488
1692.33384	0.95257
1690.28004	0.95007
1688.22624	0.94761
1686.17243	0.94557
1684.11863	0.94291
1682.06483	0.94077
1680.01103	0.93967
1677.95722	0.93858
1675.90342	0.93742
1673.84962	0.93622
1671.79581	0.93486
1669.74201	0.93275
1667.68821	0.93069
1665.63440	0.92965
1663.58060	0.92858
1661.52680	0.92717
1659.47299	0.92599
1657.41919	0.92504
1655.36539	0.92447
1653.31158	0.92375
1651.25778	0.92256
1649.20398	0.92214
1647.15017	0.92150
1645.09637	0.92035
1643.04257	0.91969
1640.98876	0.91934
1638.93496	0.91927
1636.88116	0.91956
1634.82735	0.91985
1632.77355	0.91990
1630.71975	0.91984
1628.66594	0.91950
1626.61214	0.91918
1624.55834	0.91914
1622.50454	0.91928
1620.45073	0.92002
1618.39693	0.92172
1616.34313	0.92454
1614.28932	0.92725
1612.23552	0.92919
1610.18172	0.93077
1608.12791	0.93207
1606.07411	0.93334
1604.02031	0.93461
1601.96650	0.93558
1599.91270	0.93631
1597.85890	0.93727
1595.80509	0.93828
1593.75129	0.93894
1591.69749	0.93952
1589.64368	0.94044
1587.58988	0.94168
1585.53608	0.94277
1583.48227	0.94350
1581.42847	0.94412
1579.37467	0.94501
1577.32086	0.94630
1575.26706	0.94736
1573.21326	0.94764
1571.15945	0.94765
1569.10565	0.94791
1567.05185	0.94869
1564.99805	0.94947
1562.94424	0.94992
1560.89044	0.95028
1558.83664	0.95052
1556.78283	0.95021
1554.72903	0.95015
1552.67523	0.95029
1550.62142	0.95043
1548.56762	0.95068
1546.51382	0.95142
1544.46001	0.95282
1542.40621	0.95409
1540.35241	0.95429
1538.29860	0.95434
1536.24480	0.95472
1534.19100	0.95548
1532.13719	0.95693
1530.08339	0.95843
1528.02959	0.95968
1525.97578	0.96082
1523.92198	0.96165
1521.86818	0.96167
1519.81437	0.96148
1517.76057	0.96229
1515.70677	0.96357
1513.65297	0.96429
1511.59916	0.96459
1509.54536	0.96507
1507.49156	0.96589
1505.43775	0.96631
1503.38395	0.96621
1501.33015	0.96613
1499.27634	0.96589
1497.22254	0.96545
1495.16874	0.96512
1493.11493	0.96484
1491.06113	0.96395
1489.00733	0.96236
1486.95352	0.96051
1484.89972	0.95815
1482.84592	0.95450
1480.79211	0.94800
1478.73831	0.93487
1476.68451	0.90314
1474.63070	0.84137
1472.57690	0.77430
1470.52310	0.75753
1468.46929	0.77209
1466.41549	0.78492
1464.36169	0.78938
1462.30788	0.79829
1460.25408	0.82135
1458.20028	0.85520
1456.14648	0.88418
1454.09267	0.89628
1452.03887	0.90377
1449.98507	0.91032
1447.93126	0.91544
1445.87746	0.91903
1443.82366	0.92122
1441.76985	0.92299
1439.71605	0.92504
1437.66225	0.92736
1435.60844	0.92954
1433.55464	0.93161
1431.50084	0.93410
1429.44703	0.93688
1427.39323	0.93937
1425.33943	0.94136
1423.28562	0.94300
1421.23182	0.94413
1419.17802	0.94500
1417.12421	0.94582
1415.07041	0.94639
1413.01661	0.94681
1410.96280	0.94746
1408.90900	0.94829
1406.85520	0.94894
1404.80139	0.94945
1402.74759	0.94990
1400.69379	0.95041
1398.63999	0.95099
1396.58618	0.95139
1394.53238	0.95163
1392.47858	0.95160
1390.42477	0.95101
1388.37097	0.94999
1386.31717	0.94915
1384.26336	0.94854
1382.20956	0.94719
1380.15576	0.94508
1378.10195	0.94359
1376.04815	0.94321
1373.99435	0.94332
1371.94054	0.94335
1369.88674	0.94332
1367.83294	0.94362
1365.77913	0.94458
1363.72533	0.94627
1361.67153	0.94834
1359.61772	0.94975
1357.56392	0.95040
1355.51012	0.95102
1353.45631	0.95173
1351.40251	0.95217
1349.34871	0.95245
1347.29491	0.95286
1345.24110	0.95341
1343.18730	0.95419
1341.13350	0.95514
1339.07969	0.95582
1337.02589	0.95616
1334.97209	0.95638
1332.91828	0.95655
1330.86448	0.95665
1328.81068	0.95642
1326.75687	0.95595
1324.70307	0.95553
1322.64927	0.95528
1320.59546	0.95514
1318.54166	0.95469
1316.48786	0.95395
1314.43405	0.95346
1312.38025	0.95313
1310.32645	0.95269
1308.27264	0.95261
1306.21884	0.95303
1304.16504	0.95327
1302.11123	0.95301
1300.05743	0.95258
1298.00363	0.95233
1295.94982	0.95233
1293.89602	0.95253
1291.84222	0.95269
1289.78842	0.95255
1287.73461	0.95205
1285.68081	0.95152
1283.62701	0.95144
1281.57320	0.95155
1279.51940	0.95131
1277.46560	0.95070
1275.41179	0.94990
1273.35799	0.94920
1271.30419	0.94888
1269.25038	0.94869
1267.19658	0.94812
1265.14278	0.94712
1263.08897	0.94605
1261.03517	0.94535
1258.98137	0.94506
1256.92756	0.94493
1254.87376	0.94479
1252.81996	0.94435
1250.76615	0.94361
1248.71235	0.94288
1246.65855	0.94218
1244.60474	0.94158
1242.55094	0.94099
1240.49714	0.94033
1238.44334	0.93993
1236.38953	0.93961
1234.33573	0.93887
1232.28193	0.93784
1230.22812	0.93695
1228.17432	0.93627
1226.12052	0.93547
1224.06671	0.93436
1222.01291	0.93311
1219.95911	0.93195
1217.90530	0.93084
1215.85150	0.92955
1213.79770	0.92816
1211.74389	0.92681
1209.69009	0.92539
1207.63629	0.92381
1205.58248	0.92196
1203.52868	0.91976
1201.47488	0.91718
1199.42107	0.91438
1197.36727	0.91169
1195.31347	0.90925
1193.25966	0.90670
1191.20586	0.90353
1189.15206	0.89969
1187.09825	0.89544
1185.04445	0.89103
1182.99065	0.88640
1180.93685	0.88133
1178.88304	0.87588
1176.82924	0.87019
1174.77544	0.86439
1172.72163	0.85858
1170.66783	0.85265
1168.61403	0.84690
1166.56022	0.84180
1164.50642	0.83730
1162.45262	0.83334
1160.39881	0.82980
1158.34501	0.82634
1156.29121	0.82277
1154.23740	0.81922
1152.18360	0.81603
1150.12980	0.81341
1148.07599	0.81086
1146.02219	0.80814
1143.96839	0.80562
1141.91458	0.80341
1139.86078	0.80133
1137.80698	0.79892
1135.75317	0.79602
1133.69937	0.79275
1131.64557	0.78884
1129.59176	0.78390
1127.53796	0.77804
1125.48416	0.77148
1123.43036	0.76421
1121.37655	0.75623
1119.32275	0.74810
1117.26895	0.74058
1115.21514	0.73406
1113.16134	0.72858
1111.10754	0.72353
1109.05373	0.71841
1106.99993	0.71331
1104.94613	0.70880
1102.89232	0.70523
1100.83852	0.70237
1098.78472	0.69974
1096.73091	0.69726
1094.67711	0.69533
1092.62331	0.69377
1090.56950	0.69226
1088.51570	0.69079
1086.46190	0.68935
1084.40809	0.68802
1082.35429	0.68654
1080.30049	0.68463
1078.24668	0.68255
1076.19288	0.68032
1074.13908	0.67782
1072.08528	0.67488
1070.03147	0.67095
1067.97767	0.66624
1065.92387	0.66137
1063.87006	0.65607
1061.81626	0.64995
1059.76246	0.64323
1057.70865	0.63605
1055.65485	0.62866
1053.60105	0.62141
1051.54724	0.61369
1049.49344	0.60485
1047.43964	0.59574
1045.38583	0.58732
1043.33203	0.57938
1041.27823	0.57151
1039.22442	0.56429
1037.17062	0.55825
1035.11682	0.55331
1033.06301	0.54979
1031.00921	0.54817
1028.95541	0.54840
1026.90160	0.54979
1024.84780	0.55182
1022.79400	0.55436
1020.74019	0.55679
1018.68639	0.55853
1016.63259	0.55947
1014.57879	0.55964
1012.52498	0.55947
1010.47118	0.55983
1008.41738	0.56149
1006.36357	0.56487
1004.30977	0.56989
1002.25597	0.57639
1000.20216	0.58433
998.14836	0.59371
996.09456	0.60468
994.04075	0.61702
991.98695	0.62960
989.93315	0.64184
987.87934	0.65424
985.82554	0.66693
983.77174	0.67980
981.71793	0.69259
979.66413	0.70489
977.61033	0.71665
975.55652	0.72814
973.50272	0.73934
971.44892	0.74974
969.39511	0.75908
967.34131	0.76764
965.28751	0.77572
963.23371	0.78327
961.17990	0.78987
959.12610	0.79549
957.07230	0.80042
955.01849	0.80481
952.96469	0.80895
950.91089	0.81277
948.85708	0.81584
946.80328	0.81832
944.74948	0.82066
942.69567	0.82289
940.64187	0.82447
938.58807	0.82550
936.53426	0.82699
934.48046	0.82896
932.42666	0.83058
930.37285	0.83164
928.31905	0.83221
926.26525	0.83220
924.21144	0.83165
922.15764	0.83038
920.10384	0.82810
918.05003	0.82489
915.99623	0.82154
913.94243	0.81930
911.88862	0.81905
909.83482	0.82173
907.78102	0.82791
905.72722	0.83655
903.67341	0.84563
901.61961	0.85374
899.56581	0.86082
897.51200	0.86697
895.45820	0.87178
893.40440	0.87574
891.35059	0.87925
889.29679	0.88220
887.24299	0.88484
885.18918	0.88696
883.13538	0.88875
881.08158	0.89064
879.02777	0.89220
876.97397	0.89356
874.92017	0.89533
872.86636	0.89731
870.81256	0.89926
868.75876	0.90096
866.70495	0.90205
864.65115	0.90339
862.59735	0.90545
860.54354	0.90742
858.48974	0.90955
856.43594	0.91192
854.38213	0.91363
852.32833	0.91492
850.27453	0.91613
848.22073	0.91678
846.16692	0.91696
844.11312	0.91717
842.05932	0.91716
840.00551	0.91644
837.95171	0.91578
835.89791	0.91597
833.84410	0.91574
831.79030	0.91424
829.73650	0.91260
827.68269	0.91132
825.62889	0.91047
823.57509	0.91025
821.52128	0.90989
819.46748	0.90928
817.41368	0.90874
815.35987	0.90778
813.30607	0.90599
811.25227	0.90381
809.19846	0.90163
807.14466	0.89909
805.09086	0.89607
803.03705	0.89258
800.98325	0.88848
798.92945	0.88511
796.87565	0.88435
794.82184	0.88532
792.76804	0.88588
790.71424	0.88567
788.66043	0.88538
786.60663	0.88525
784.55283	0.88475
782.49902	0.88379
780.44522	0.88280
778.39142	0.88204
776.33761	0.88191
774.28381	0.88253
772.23001	0.88333
770.17620	0.88330
768.12240	0.88220
766.06860	0.88074
764.01479	0.87899
761.96099	0.87708
759.90719	0.87577
757.85338	0.87470
755.79958	0.87311
753.74578	0.87104
751.69197	0.86965
749.63817	0.86943
747.58437	0.86886
745.53056	0.86824
743.47676	0.86860
741.42296	0.86883
739.36916	0.86812
737.31535	0.86582
735.26155	0.85637
733.20775	0.83186
731.15394	0.80220
729.10014	0.79056
727.04634	0.79419
724.99253	0.78930
722.93873	0.76192
720.88493	0.71323
718.83112	0.66621
716.77732	0.65368
714.72352	0.68484
712.66971	0.73647
710.61591	0.77746
708.56211	0.79945
706.50830	0.81049
704.45450	0.81585
702.40070	0.81717
700.34689	0.81665
698.29309	0.81559
696.23929	0.81430
694.18548	0.81375
692.13168	0.81416
690.07788	0.81528
688.02408	0.81758
685.97027	0.82032
683.91647	0.82232
681.86267	0.82352
679.80886	0.82394
677.75506	0.82345
675.70126	0.82239
673.64745	0.82150
671.59365	0.82133
669.53985	0.82249
667.48604	0.82583
665.43224	0.82969
663.37844	0.83292
661.32463	0.83535
659.27083	0.83635
657.21703	0.83543
655.16322	0.83282
653.10942	0.83061
651.05562	0.83031
649.00181	0.83087
646.94801	0.83144
644.89421	0.83175
642.84040	0.83180
640.78660	0.83258
638.73280	0.83359
636.67899	0.83368
634.62519	0.83293
632.57139	0.83154
630.51759	0.82992
628.46378	0.82912
626.40998	0.82887
624.35618	0.82852
622.30237	0.82852
620.24857	0.82782
618.19477	0.82527
616.14096	0.82240
614.08716	0.82013
612.03336	0.81712
609.97955	0.81274
607.92575	0.80802
605.87195	0.80462
603.81814	0.80280
601.76434	0.80129
599.71054	0.79977
597.65673	0.79842
595.60293	0.79711
593.54913	0.79600
591.49532	0.79497
589.44152	0.79329
587.38772	0.79080
585.33391	0.78837
583.28011	0.78675
581.22631	0.78555
579.17250	0.78411
577.11870	0.78295
575.06490	0.78185
573.01110	0.77967
570.95729	0.77690
568.90349	0.77424
566.84969	0.77041
564.79588	0.76527
562.74208	0.76158
560.68828	0.75980
558.63447	0.75712
556.58067	0.75279
554.52687	0.74930
552.47306	0.74775
550.41926	0.74588
548.36546	0.74135
546.31165	0.73445
544.25785	0.72737
542.20405	0.72156
540.15024	0.71704
538.09644	0.71251
536.04264	0.70791
533.98883	0.70492
531.93503	0.70439
529.88123	0.70647
527.82742	0.70928
525.77362	0.71117
523.71982	0.71369
521.66602	0.71776
519.61221	0.72219
517.55841	0.72705
515.50461	0.73300
513.45080	0.73842
511.39700	0.74234
509.34320	0.74499
507.28939	0.74752
505.23559	0.75129
503.18179	0.75502
501.12798	0.75602
499.07418	0.75452
497.02038	0.75285
494.96657	0.75194
492.91277	0.75148
490.85897	0.74933
488.80516	0.74509
486.75136	0.74045
484.69756	0.73352
482.64375	0.72331
480.58995	0.71179
478.53615	0.69889
476.48234	0.68640
474.42854	0.67614
472.37474	0.66538
470.32093	0.65501
468.26713	0.64878
466.21333	0.64750
464.15953	0.65135
462.10572	0.65840
460.05192	0.66522
457.99812	0.67284
455.94431	0.68208
453.89051	0.68957
451.83671	0.69652
449.78290	0.70333
447.72910	0.70783
445.67530	0.70851
443.62149	0.70889
441.56769	0.71447
439.51389	0.71892
437.46008	0.71662
435.40628	0.71290
433.35248	0.71166
431.29867	0.70940
429.24487	0.70726
427.19107	0.71154
425.13726	0.71952
423.08346	0.72251
421.02966	0.72010
418.97585	0.72257
416.92205	0.73265
414.86825	0.74172
412.81445	0.75045
410.76064	0.75655
408.70684	0.76111
406.65304	0.77209
404.59923	0.78805
402.54543	0.79764
400.49163	0.79632
398.43782	0.79112
