3996.71440	0.98052
3994.66059	0.97994
3992.60678	0.97960
3990.55297	0.97957
3988.49916	0.97992
3986.44535	0.98049
3984.39154	0.98050
3982.33773	0.97966
3980.28391	0.97904
3978.23010	0.97930
3976.17629	0.97989
3974.12248	0.98008
3972.06867	0.97987
3970.01486	0.97983
3967.96105	0.98011
3965.90724	0.98035
3963.85343	0.98003
3961.79962	0.97934
3959.74581	0.97915
3957.69200	0.97945
3955.63819	0.97954
3953.58438	0.97945
3951.53057	0.97965
3949.47676	0.97975
3947.42295	0.97949
3945.36914	0.97910
3943.31533	0.97899
3941.26152	0.97970
3939.20771	0.98039
3937.15390	0.98027
3935.10009	0.97978
3933.04628	0.97977
3930.99247	0.98031
3928.93866	0.98037
3926.88485	0.97991
3924.83104	0.97970
3922.77723	0.98010
3920.72342	0.98053
3918.66961	0.98041
3916.61580	0.97998
3914.56199	0.97971
3912.50818	0.97967
3910.45437	0.97983
3908.40056	0.97973
3906.34675	0.97856
3904.29294	0.97700
3902.23913	0.97682
3900.18532	0.97759
3898.13151	0.97865
3896.07770	0.97961
3894.02389	0.97947
3891.97008	0.97889
3889.91627	0.97942
3887.86246	0.97994
3885.80865	0.97951
3883.75484	0.97916
3881.70103	0.97898
3879.64722	0.97872
3877.59341	0.97890
3875.53960	0.97887
3873.48579	0.97864
3871.43198	0.97872
3869.37817	0.97905
3867.32436	0.97936
3865.27055	0.97916
3863.21674	0.97891
3861.16293	0.97924
3859.10912	0.97955
3857.05531	0.97938
3855.00150	0.97820
3852.94769	0.97708
3850.89388	0.97831
3848.84007	0.97970
3846.78626	0.98003
3844.73245	0.97960
3842.67864	0.97902
3840.62483	0.97862
3838.57102	0.97835
3836.51721	0.97821
3834.46340	0.97822
3832.40959	0.97866
3830.35578	0.97938
3828.30197	0.97958
3826.24816	0.97951
3824.19435	0.97960
3822.14054	0.97892
3820.08673	0.97807
3818.03292	0.97847
3815.97911	0.97934
3813.92530	0.98019
3811.87149	0.98083
3809.81768	0.98095
3807.76387	0.98050
3805.71006	0.98049
3803.65625	0.98061
3801.60244	0.97992
3799.54863	0.97989
3797.49482	0.98080
3795.44101	0.98120
3793.38720	0.98068
3791.33339	0.98010
3789.27958	0.98039
3787.22577	0.98107
3785.17196	0.98108
3783.11815	0.98093
3781.06434	0.98119
3779.01053	0.98136
3776.95672	0.98141
3774.90291	0.98138
3772.84910	0.98078
3770.79529	0.97959
3768.74148	0.97897
3766.68767	0.97942
3764.63386	0.98021
3762.58005	0.98081
3760.52624	0.98073
3758.47243	0.98003
3756.41862	0.97948
3754.36481	0.97892
3752.31100	0.97773
3750.25719	0.97720
3748.20338	0.97823
3746.14957	0.97909
3744.09576	0.98002
3742.04195	0.98087
3739.98814	0.98080
3737.93433	0.97989
3735.88052	0.97874
3733.82671	0.97863
3731.77290	0.97937
3729.71909	0.98018
3727.66528	0.98032
3725.61147	0.97961
3723.55766	0.97920
3721.50385	0.97906
3719.45004	0.97886
3717.39623	0.97891
3715.34242	0.97885
3713.28861	0.97771
3711.23480	0.97568
3709.18099	0.97515
3707.12718	0.97582
3705.07337	0.97580
3703.01956	0.97471
3700.96575	0.97346
3698.91194	0.97303
3696.85813	0.97309
3694.80432	0.97318
3692.75051	0.97270
3690.69670	0.97168
3688.64289	0.97170
3686.58907	0.97296
3684.53526	0.97399
3682.48145	0.97448
3680.42764	0.97431
3678.37383	0.97295
3676.32002	0.97059
3674.26621	0.97008
3672.21240	0.97124
3670.15859	0.97202
3668.10478	0.97325
3666.05097	0.97425
3663.99716	0.97407
3661.94335	0.97343
3659.88954	0.97303
3657.83573	0.97256
3655.78192	0.97163
3653.72811	0.97065
3651.67430	0.96971
3649.62049	0.96893
3647.56668	0.96927
3645.51287	0.97033
3643.45906	0.97081
3641.40525	0.97075
3639.35144	0.97075
3637.29763	0.97052
3635.24382	0.96952
3633.19001	0.96833
3631.13620	0.96733
3629.08239	0.96651
3627.02858	0.96724
3624.97477	0.96840
3622.92096	0.96856
3620.86715	0.96823
3618.81334	0.96802
3616.75953	0.96783
3614.70572	0.96741
3612.65191	0.96715
3610.59810	0.96751
3608.54429	0.96810
3606.49048	0.96847
3604.43667	0.96854
3602.38286	0.96869
3600.32905	0.96902
3598.27524	0.96897
3596.22143	0.96862
3594.16762	0.96832
3592.11381	0.96813
3590.06000	0.96804
3588.00619	0.96800
3585.95238	0.96855
3583.89857	0.96923
3581.84476	0.96932
3579.79095	0.96927
3577.73714	0.96899
3575.68333	0.96824
3573.62952	0.96785
3571.57571	0.96797
3569.52190	0.96781
3567.46809	0.96741
3565.41428	0.96771
3563.36047	0.96855
3561.30666	0.96886
3559.25285	0.96874
3557.19904	0.96906
3555.14523	0.96948
3553.09142	0.96927
3551.03761	0.96875
3548.98380	0.96799
3546.92999	0.96697
3544.87618	0.96655
3542.82237	0.96678
3540.76856	0.96709
3538.71475	0.96747
3536.66094	0.96749
3534.60713	0.96712
3532.55332	0.96663
3530.49951	0.96611
3528.44570	0.96593
3526.39189	0.96587
3524.33808	0.96576
3522.28427	0.96579
3520.23046	0.96596
3518.17665	0.96600
3516.12284	0.96586
3514.06903	0.96601
3512.01522	0.96619
3509.96141	0.96569
3507.90760	0.96491
3505.85379	0.96451
3503.79998	0.96469
3501.74617	0.96491
3499.69236	0.96455
3497.63855	0.96423
3495.58474	0.96444
3493.53093	0.96447
3491.47712	0.96399
3489.42331	0.96365
3487.36950	0.96379
3485.31569	0.96391
3483.26188	0.96348
3481.20807	0.96297
3479.15426	0.96317
3477.10045	0.96325
3475.04664	0.96257
3472.99283	0.96202
3470.93902	0.96186
3468.88521	0.96187
3466.83140	0.96226
3464.77759	0.96259
3462.72378	0.96239
3460.66997	0.96211
3458.61616	0.96176
3456.56235	0.96125
3454.50854	0.96109
3452.45473	0.96119
3450.40092	0.96112
3448.34711	0.96088
3446.29330	0.96069
3444.23949	0.96047
3442.18568	0.96032
3440.13187	0.96047
3438.07806	0.96058
3436.02425	0.96053
3433.97044	0.96042
3431.91663	0.96024
3429.86282	0.95999
3427.80901	0.95982
3425.75520	0.95983
3423.70139	0.95980
3421.64758	0.95954
3419.59377	0.95954
3417.53996	0.96007
3415.48615	0.96035
3413.43234	0.96001
3411.37853	0.96005
3409.32472	0.96064
3407.27091	0.96058
3405.21710	0.96007
3403.16329	0.95977
3401.10948	0.95952
3399.05567	0.95938
3397.00186	0.95941
3394.94805	0.95955
3392.89424	0.95971
3390.84042	0.95977
3388.78661	0.95958
3386.73280	0.95909
3384.67899	0.95870
3382.62518	0.95861
3380.57137	0.95826
3378.51756	0.95776
3376.46375	0.95788
3374.40994	0.95838
3372.35613	0.95878
3370.30232	0.95900
3368.24851	0.95864
3366.19470	0.95798
3364.14089	0.95784
3362.08708	0.95795
3360.03327	0.95776
3357.97946	0.95757
3355.92565	0.95773
3353.87184	0.95828
3351.81803	0.95859
3349.76422	0.95817
3347.71041	0.95769
3345.65660	0.95785
3343.60279	0.95852
3341.54898	0.95889
3339.49517	0.95835
3337.44136	0.95766
3335.38755	0.95758
3333.33374	0.95801
3331.27993	0.95849
3329.22612	0.95836
3327.17231	0.95797
3325.11850	0.95796
3323.06469	0.95790
3321.01088	0.95780
3318.95707	0.95814
3316.90326	0.95848
3314.84945	0.95823
3312.79564	0.95751
3310.74183	0.95682
3308.68802	0.95659
3306.63421	0.95678
3304.58040	0.95687
3302.52659	0.95677
3300.47278	0.95687
3298.41897	0.95706
3296.36516	0.95710
3294.31135	0.95717
3292.25754	0.95741
3290.20373	0.95775
3288.14992	0.95776
3286.09611	0.95744
3284.04230	0.95744
3281.98849	0.95770
3279.93468	0.95783
3277.88087	0.95822
3275.82706	0.95873
3273.77325	0.95862
3271.71944	0.95815
3269.66563	0.95799
3267.61182	0.95811
3265.55801	0.95846
3263.50420	0.95908
3261.45039	0.95950
3259.39658	0.95935
3257.34277	0.95877
3255.28896	0.95843
3253.23515	0.95915
3251.18134	0.96039
3249.12753	0.96091
3247.07372	0.96057
3245.01991	0.95999
3242.96610	0.95966
3240.91229	0.95966
3238.85848	0.95996
3236.80467	0.96037
3234.75086	0.96067
3232.69705	0.96082
3230.64324	0.96074
3228.58943	0.96054
3226.53562	0.96079
3224.48181	0.96172
3222.42800	0.96249
3220.37419	0.96251
3218.32038	0.96212
3216.26657	0.96166
3214.21276	0.96142
3212.15895	0.96163
3210.10514	0.96207
3208.05133	0.96230
3205.99752	0.96233
3203.94371	0.96239
3201.88990	0.96243
3199.83609	0.96237
3197.78228	0.96228
3195.72847	0.96227
3193.67466	0.96249
3191.62085	0.96309
3189.56704	0.96376
3187.51323	0.96406
3185.45942	0.96380
3183.40561	0.96320
3181.35180	0.96275
3179.29799	0.96273
3177.24418	0.96334
3175.19037	0.96409
3173.13656	0.96432
3171.08275	0.96446
3169.02894	0.96476
3166.97513	0.96480
3164.92132	0.96483
3162.86751	0.96506
3160.81370	0.96517
3158.75989	0.96523
3156.70608	0.96539
3154.65227	0.96565
3152.59846	0.96600
3150.54465	0.96601
3148.49084	0.96589
3146.43703	0.96617
3144.38322	0.96644
3142.32941	0.96648
3140.27560	0.96659
3138.22179	0.96650
3136.16798	0.96587
3134.11417	0.96528
3132.06036	0.96550
3130.00655	0.96644
3127.95274	0.96719
3125.89893	0.96748
3123.84512	0.96761
3121.79131	0.96761
3119.73750	0.96741
3117.68369	0.96719
3115.62988	0.96716
3113.57607	0.96705
3111.52226	0.96674
3109.46845	0.96662
3107.41464	0.96664
3105.36083	0.96646
3103.30702	0.96626
3101.25321	0.96620
3099.19940	0.96602
3097.14559	0.96574
3095.09177	0.96580
3093.03796	0.96596
3090.98415	0.96572
3088.93034	0.96550
3086.87653	0.96536
3084.82272	0.96490
3082.76891	0.96458
3080.71510	0.96483
3078.66129	0.96507
3076.60748	0.96507
3074.55367	0.96515
3072.49986	0.96516
3070.44605	0.96508
3068.39224	0.96522
3066.33843	0.96548
3064.28462	0.96573
3062.23081	0.96600
3060.17700	0.96610
3058.12319	0.96583
3056.06938	0.96531
3054.01557	0.96489
3051.96176	0.96474
3049.90795	0.96450
3047.85414	0.96415
3045.80033	0.96412
3043.74652	0.96446
3041.69271	0.96477
3039.63890	0.96464
3037.58509	0.96431
3035.53128	0.96413
3033.47747	0.96369
3031.42366	0.96310
3029.36985	0.96317
3027.31604	0.96349
3025.26223	0.96348
3023.20842	0.96323
3021.15461	0.96273
3019.10080	0.96215
3017.04699	0.96174
3014.99318	0.96139
3012.93937	0.96104
3010.88556	0.96089
3008.83175	0.96084
3006.77794	0.96069
3004.72413	0.96041
3002.67032	0.96003
3000.61651	0.95992
2998.56270	0.96007
2996.50889	0.96011
2994.45508	0.95982
2992.40127	0.95898
2990.34746	0.95796
2988.29365	0.95733
2986.23984	0.95679
2984.18603	0.95564
2982.13222	0.95389
2980.07841	0.95191
2978.02460	0.94980
2975.97079	0.94752
2973.91698	0.94492
2971.86317	0.94158
2969.80936	0.93733
2967.75555	0.93274
2965.70174	0.92791
2963.64793	0.92299
2961.59412	0.91853
2959.54031	0.91439
2957.48650	0.91040
2955.43269	0.90687
2953.37888	0.90391
2951.32507	0.90095
2949.27126	0.89717
2947.21745	0.89177
2945.16364	0.88382
2943.10983	0.87241
2941.05602	0.85722
2939.00221	0.83859
2936.94840	0.81687
2934.89459	0.79202
2932.84078	0.76389
2930.78697	0.73201
2928.73316	0.69580
2926.67935	0.65473
2924.62554	0.60758
2922.57173	0.55389
2920.51792	0.49582
2918.46411	0.43963
2916.41030	0.39794
2914.35649	0.38497
2912.30268	0.40415
2910.24887	0.44408
2908.19506	0.48920
2906.14125	0.53002
2904.08744	0.56357
2902.03363	0.59039
2899.97982	0.61257
2897.92601	0.63195
2895.87220	0.64956
2893.81839	0.66624
2891.76458	0.68302
2889.71077	0.70048
2887.65696	0.71854
2885.60315	0.73708
2883.54934	0.75568
2881.49553	0.77379
2879.44172	0.79140
2877.38791	0.80799
2875.33410	0.82196
2873.28029	0.83247
2871.22648	0.83974
2869.17267	0.84336
2867.11886	0.84233
2865.06505	0.83608
2863.01124	0.82356
2860.95743	0.80257
2858.90362	0.77058
2856.84981	0.72448
2854.79600	0.66079
2852.74219	0.58066
2850.68838	0.49841
2848.63457	0.44225
2846.58076	0.43562
2844.52695	0.47643
2842.47314	0.54286
2840.41933	0.61336
2838.36552	0.67576
2836.31171	0.72622
2834.25790	0.76544
2832.20409	0.79566
2830.15028	0.81936
2828.09647	0.83848
2826.04266	0.85411
2823.98885	0.86682
2821.93504	0.87733
2819.88123	0.88633
2817.82742	0.89382
2815.77361	0.89982
2813.71980	0.90494
2811.66599	0.90975
2809.61218	0.91408
2807.55837	0.91776
2805.50456	0.92103
2803.45075	0.92418
2801.39693	0.92718
2799.34312	0.92975
2797.28931	0.93190
2795.23550	0.93402
2793.18169	0.93619
2791.12788	0.93823
2789.07407	0.94023
2787.02026	0.94226
2784.96645	0.94413
2782.91264	0.94569
2780.85883	0.94693
2778.80502	0.94814
2776.75121	0.94948
2774.69740	0.95061
2772.64359	0.95147
2770.58978	0.95238
2768.53597	0.95322
2766.48216	0.95387
2764.42835	0.95463
2762.37454	0.95550
2760.32073	0.95620
2758.26692	0.95668
2756.21311	0.95693
2754.15930	0.95696
2752.10549	0.95714
2750.05168	0.95757
2747.99787	0.95781
2745.94406	0.95770
2743.89025	0.95762
2741.83644	0.95778
2739.78263	0.95817
2737.72882	0.95867
2735.67501	0.95916
2733.62120	0.95958
2731.56739	0.95981
2729.51358	0.95973
2727.45977	0.95975
2725.40596	0.96021
2723.35215	0.96065
2721.29834	0.96064
2719.24453	0.96052
2717.19072	0.96101
2715.13691	0.96181
2713.08310	0.96214
2711.02929	0.96213
2708.97548	0.96213
2706.92167	0.96218
2704.86786	0.96245
2702.81405	0.96289
2700.76024	0.96324
2698.70643	0.96359
2696.65262	0.96404
2694.59881	0.96440
2692.54500	0.96436
2690.49119	0.96397
2688.43738	0.96358
2686.38357	0.96351
2684.32976	0.96379
2682.27595	0.96390
2680.22214	0.96376
2678.16833	0.96368
2676.11452	0.96368
2674.06071	0.96364
2672.00690	0.96366
2669.95309	0.96361
2667.89928	0.96334
2665.84547	0.96305
2663.79166	0.96279
2661.73785	0.96245
2659.68404	0.96233
2657.63023	0.96267
2655.57642	0.96286
2653.52261	0.96276
2651.46880	0.96278
2649.41499	0.96280
2647.36118	0.96297
2645.30737	0.96345
2643.25356	0.96372
2641.19975	0.96346
2639.14594	0.96315
2637.09213	0.96320
2635.03832	0.96314
2632.98451	0.96289
2630.93070	0.96312
2628.87689	0.96388
2626.82308	0.96471
2624.76927	0.96520
2622.71546	0.96538
2620.66165	0.96568
2618.60784	0.96614
2616.55403	0.96671
2614.50022	0.96724
2612.44641	0.96762
2610.39260	0.96798
2608.33879	0.96822
2606.28498	0.96842
2604.23117	0.96881
2602.17736	0.96915
2600.12355	0.96937
2598.06974	0.96963
2596.01593	0.96985
2593.96212	0.97016
2591.90831	0.97069
2589.85450	0.97108
2587.80069	0.97117
2585.74688	0.97109
2583.69307	0.97107
2581.63926	0.97129
2579.58545	0.97153
2577.53164	0.97141
2575.47783	0.97107
2573.42402	0.97149
2571.37021	0.97282
2569.31640	0.97376
2567.26259	0.97372
2565.20878	0.97321
2563.15497	0.97300
2561.10116	0.97336
2559.04735	0.97396
2556.99354	0.97422
2554.93973	0.97412
2552.88592	0.97409
2550.83211	0.97384
2548.77830	0.97351
2546.72449	0.97366
2544.67068	0.97367
2542.61687	0.97335
2540.56306	0.97357
2538.50925	0.97422
2536.45544	0.97476
2534.40163	0.97520
2532.34782	0.97531
2530.29401	0.97505
2528.24020	0.97485
2526.18639	0.97464
2524.13258	0.97420
2522.07877	0.97398
2520.02496	0.97441
2517.97115	0.97526
2515.91734	0.97584
2513.86353	0.97595
2511.80972	0.97595
2509.75591	0.97611
2507.70210	0.97653
2505.64828	0.97687
2503.59447	0.97672
2501.54066	0.97645
2499.48685	0.97644
2497.43304	0.97672
2495.37923	0.97685
2493.32542	0.97657
2491.27161	0.97658
2489.21780	0.97691
2487.16399	0.97699
2485.11018	0.97666
2483.05637	0.97648
2481.00256	0.97697
2478.94875	0.97733
2476.89494	0.97705
2474.84113	0.97689
2472.78732	0.97726
2470.73351	0.97789
2468.67970	0.97849
2466.62589	0.97871
2464.57208	0.97866
2462.51827	0.97849
2460.46446	0.97837
2458.41065	0.97844
2456.35684	0.97836
2454.30303	0.97825
2452.24922	0.97826
2450.19541	0.97807
2448.14160	0.97790
2446.08779	0.97829
2444.03398	0.97916
2441.98017	0.97968
2439.92636	0.97938
2437.87255	0.97880
2435.81874	0.97851
2433.76493	0.97864
2431.71112	0.97880
2429.65731	0.97884
2427.60350	0.97934
2425.54969	0.97962
2423.49588	0.97873
2421.44207	0.97785
2419.38826	0.97836
2417.33445	0.97920
2415.28064	0.97908
2413.22683	0.97883
2411.17302	0.97883
2409.11921	0.97834
2407.06540	0.97765
2405.01159	0.97778
2402.95778	0.97841
2400.90397	0.97859
2398.85016	0.97873
2396.79635	0.97896
2394.74254	0.97878
2392.68873	0.97865
2390.63492	0.97854
2388.58111	0.97829
2386.52730	0.97857
2384.47349	0.97934
2382.41968	0.97963
2380.36587	0.97910
2378.31206	0.97862
2376.25825	0.97873
2374.20444	0.97926
2372.15063	0.97947
2370.09682	0.97950
2368.04301	0.98045
2365.98920	0.98163
2363.93539	0.98207
2361.88158	0.98190
2359.82777	0.98130
2357.77396	0.98011
2355.72015	0.97899
2353.66634	0.97830
2351.61253	0.97784
2349.55872	0.97794
2347.50491	0.97825
2345.45110	0.97805
2343.39729	0.97724
2341.34348	0.97701
2339.28967	0.97766
2337.23586	0.97763
2335.18205	0.97679
2333.12824	0.97660
2331.07443	0.97710
2329.02062	0.97759
2326.96681	0.97755
2324.91300	0.97664
2322.85919	0.97600
2320.80538	0.97646
2318.75157	0.97723
2316.69776	0.97777
2314.64395	0.97763
2312.59014	0.97738
2310.53633	0.97769
2308.48252	0.97774
2306.42871	0.97752
2304.37490	0.97757
2302.32109	0.97754
2300.26728	0.97764
2298.21347	0.97815
2296.15966	0.97825
2294.10585	0.97815
2292.05204	0.97858
2289.99823	0.97887
2287.94442	0.97843
2285.89061	0.97805
2283.83680	0.97836
2281.78299	0.97901
2279.72918	0.97979
2277.67537	0.98073
2275.62156	0.98092
2273.56775	0.98006
2271.51394	0.97952
2269.46013	0.97964
2267.40632	0.97986
2265.35251	0.98071
2263.29870	0.98156
2261.24489	0.98110
2259.19108	0.98013
2257.13727	0.97970
2255.08346	0.98043
2253.02965	0.98204
2250.97584	0.98281
2248.92203	0.98276
2246.86822	0.98278
2244.81441	0.98265
2242.76060	0.98271
2240.70679	0.98287
2238.65298	0.98210
2236.59917	0.98092
2234.54536	0.98072
2232.49155	0.98163
2230.43774	0.98261
2228.38393	0.98321
2226.33012	0.98272
2224.27631	0.98106
2222.22250	0.98040
2220.16869	0.98090
2218.11488	0.98213
2216.06107	0.98430
2214.00726	0.98562
2211.95344	0.98550
2209.89963	0.98466
2207.84582	0.98371
2205.79201	0.98381
2203.73820	0.98357
2201.68439	0.98223
2199.63058	0.98190
2197.57677	0.98170
2195.52296	0.98146
2193.46915	0.98228
2191.41534	0.98211
2189.36153	0.98080
2187.30772	0.98074
2185.25391	0.98263
2183.20010	0.98481
2181.14629	0.98591
2179.09248	0.98696
2177.03867	0.98801
2174.98486	0.98759
2172.93105	0.98651
2170.87724	0.98561
2168.82343	0.98335
2166.76962	0.98077
2164.71581	0.98088
2162.66200	0.98280
2160.60819	0.98405
2158.55438	0.98579
2156.50057	0.98833
2154.44676	0.98795
2152.39295	0.98585
2150.33914	0.98646
2148.28533	0.98795
2146.23152	0.98646
2144.17771	0.98407
2142.12390	0.98484
2140.07009	0.98751
2138.01628	0.98718
2135.96247	0.98457
2133.90866	0.98424
2131.85485	0.98538
2129.80104	0.98561
2127.74723	0.98537
2125.69342	0.98503
2123.63961	0.98445
2121.58580	0.98402
2119.53199	0.98380
2117.47818	0.98345
2115.42437	0.98308
2113.37056	0.98332
2111.31675	0.98444
2109.26294	0.98540
2107.20913	0.98489
2105.15532	0.98323
2103.10151	0.98233
2101.04770	0.98279
2098.99389	0.98312
2096.94008	0.98282
2094.88627	0.98258
2092.83246	0.98297
2090.77865	0.98382
2088.72484	0.98395
2086.67103	0.98349
2084.61722	0.98330
2082.56341	0.98335
2080.50960	0.98381
2078.45579	0.98456
2076.40198	0.98483
2074.34817	0.98430
2072.29436	0.98372
2070.24055	0.98381
2068.18674	0.98399
2066.13293	0.98343
2064.07912	0.98241
2062.02531	0.98182
2059.97150	0.98178
2057.91769	0.98114
2055.86388	0.97981
2053.81007	0.97981
2051.75626	0.98127
2049.70245	0.98269
2047.64864	0.98386
2045.59483	0.98530
2043.54102	0.98647
2041.48721	0.98516
2039.43340	0.98186
2037.37959	0.97965
2035.32578	0.97937
2033.27197	0.98105
2031.21816	0.98354
2029.16435	0.98429
2027.11054	0.98425
2025.05673	0.98502
2023.00292	0.98474
2020.94911	0.98283
2018.89530	0.98234
2016.84149	0.98302
2014.78768	0.98281
2012.73387	0.98261
2010.68006	0.98141
2008.62625	0.97995
2006.57244	0.98163
2004.51863	0.98602
2002.46482	0.98989
2000.41101	0.99073
1998.35720	0.98859
1996.30339	0.98610
1994.24958	0.98486
1992.19577	0.98477
1990.14196	0.98657
1988.08815	0.98869
1986.03434	0.98862
1983.98053	0.98687
1981.92672	0.98575
1979.87291	0.98586
1977.81910	0.98490
1975.76529	0.98301
1973.71148	0.98125
1971.65767	0.97941
1969.60386	0.97975
1967.55005	0.98259
1965.49624	0.98432
1963.44243	0.98366
1961.38862	0.98349
1959.33481	0.98454
1957.28100	0.98425
1955.22719	0.98237
1953.17338	0.98063
1951.11957	0.98034
1949.06576	0.98162
1947.01195	0.98254
1944.95814	0.98230
1942.90433	0.98184
1940.85052	0.98164
1938.79671	0.98223
1936.74290	0.98389
1934.68909	0.98552
1932.63528	0.98542
1930.58147	0.98394
1928.52766	0.98258
1926.47385	0.98177
1924.42004	0.98222
1922.36623	0.98330
1920.31242	0.98303
1918.25861	0.98204
1916.20479	0.98189
1914.15098	0.98246
1912.09717	0.98292
1910.04336	0.98292
1907.98955	0.98225
1905.93574	0.98088
1903.88193	0.98044
1901.82812	0.98122
1899.77431	0.98112
1897.72050	0.98039
1895.66669	0.98097
1893.61288	0.98179
1891.55907	0.98098
1889.50526	0.97997
1887.45145	0.98043
1885.39764	0.98143
1883.34383	0.98183
1881.29002	0.98157
1879.23621	0.98129
1877.18240	0.98133
1875.12859	0.98171
1873.07478	0.98164
1871.02097	0.98066
1868.96716	0.98024
1866.91335	0.98113
1864.85954	0.98194
1862.80573	0.98210
1860.75192	0.98178
1858.69811	0.98110
1856.64430	0.98089
1854.59049	0.98159
1852.53668	0.98193
1850.48287	0.98115
1848.42906	0.98027
1846.37525	0.98022
1844.32144	0.98074
1842.26763	0.98118
1840.21382	0.98143
1838.16001	0.98148
1836.10620	0.98132
1834.05239	0.98117
1831.99858	0.98088
1829.94477	0.98060
1827.89096	0.98109
1825.83715	0.98148
1823.78334	0.98083
1821.72953	0.98020
1819.67572	0.98036
1817.62191	0.98082
1815.56810	0.98095
1813.51429	0.98039
1811.46048	0.97937
1809.40667	0.97864
1807.35286	0.97839
1805.29905	0.97843
1803.24524	0.97850
1801.19143	0.97828
1799.13762	0.97804
1797.08381	0.97775
1795.03000	0.97709
1792.97619	0.97600
1790.92238	0.97549
1788.86857	0.97600
1786.81476	0.97602
1784.76095	0.97531
1782.70714	0.97455
1780.65333	0.97396
1778.59952	0.97386
1776.54571	0.97393
1774.49190	0.97323
1772.43809	0.97169
1770.38428	0.97078
1768.33047	0.97078
1766.27666	0.97053
1764.22285	0.96955
1762.16904	0.96785
1760.11523	0.96607
1758.06142	0.96386
1756.00761	0.96063
1753.95380	0.95708
1751.89999	0.95257
1749.84618	0.94706
1747.79237	0.94304
1745.73856	0.94070
1743.68475	0.93892
1741.63094	0.93756
1739.57713	0.93702
1737.52332	0.93753
1735.46951	0.93850
1733.41570	0.93990
1731.36189	0.94116
1729.30808	0.94125
1727.25427	0.93970
1725.20046	0.93625
1723.14665	0.93153
1721.09284	0.92727
1719.03903	0.92335
1716.98522	0.91913
1714.93141	0.91673
1712.87760	0.91687
1710.82379	0.91896
1708.76998	0.92218
1706.71617	0.92573
1704.66236	0.92914
1702.60855	0.93146
1700.55474	0.93360
1698.50093	0.93647
1696.44712	0.93943
1694.39331	0.94265
1692.33950	0.94456
1690.28569	0.94493
1688.23188	0.94468
1686.17807	0.94415
1684.12426	0.94340
1682.07045	0.94322
1680.01664	0.94315
1677.96283	0.94255
1675.90902	0.94136
1673.85521	0.94041
1671.80140	0.93990
1669.74759	0.93919
1667.69378	0.93862
1665.63997	0.93812
1663.58616	0.93720
1661.53235	0.93639
1659.47854	0.93590
1657.42473	0.93492
1655.37092	0.93329
1653.31711	0.93174
1651.26330	0.93222
1649.20949	0.93295
1647.15568	0.93338
1645.10187	0.93453
1643.04806	0.93552
1640.99425	0.93577
1638.94044	0.93546
1636.88663	0.93494
1634.83282	0.93513
1632.77901	0.93609
1630.72520	0.93672
1628.67139	0.93681
1626.61758	0.93669
1624.56377	0.93653
1622.50996	0.93714
1620.45614	0.93845
1618.40233	0.93917
1616.34852	0.93969
1614.29471	0.94083
1612.24090	0.94164
1610.18709	0.94171
1608.13328	0.94176
1606.07947	0.94203
1604.02566	0.94228
1601.97185	0.94279
1599.91804	0.94330
1597.86423	0.94339
1595.81042	0.94345
1593.75661	0.94369
1591.70280	0.94376
1589.64899	0.94379
1587.59518	0.94415
1585.54137	0.94454
1583.48756	0.94467
1581.43375	0.94472
1579.37994	0.94478
1577.32613	0.94490
1575.27232	0.94540
1573.21851	0.94600
1571.16470	0.94606
1569.11089	0.94629
1567.05708	0.94711
1565.00327	0.94758
1562.94946	0.94714
1560.89565	0.94545
1558.84184	0.94361
1556.78803	0.94444
1554.73422	0.94559
1552.68041	0.94598
1550.62660	0.94592
1548.57279	0.94587
1546.51898	0.94553
1544.46517	0.94441
1542.41136	0.94361
1540.35755	0.94452
1538.30374	0.94686
1536.24993	0.94816
1534.19612	0.94862
1532.14231	0.94975
1530.08850	0.95103
1528.03469	0.95152
1525.98088	0.95147
1523.92707	0.95106
1521.87326	0.95082
1519.81945	0.95136
1517.76564	0.95201
1515.71183	0.95317
1513.65802	0.95467
1511.60421	0.95519
1509.55040	0.95414
1507.49659	0.95295
1505.44278	0.95506
1503.38897	0.95729
1501.33516	0.95773
1499.28135	0.95723
1497.22754	0.95658
1495.17373	0.95642
1493.11992	0.95596
1491.06611	0.95418
1489.01230	0.95212
1486.95849	0.95117
1484.90468	0.94986
1482.85087	0.94634
1480.79706	0.93923
1478.74325	0.92384
1476.68944	0.88453
1474.63563	0.81127
1472.58182	0.74547
1470.52801	0.74223
1468.47420	0.76376
1466.42039	0.76675
1464.36658	0.74455
1462.31277	0.73423
1460.25896	0.76054
1458.20515	0.80967
1456.15134	0.85272
1454.09753	0.87275
1452.04372	0.88402
1449.98991	0.89253
1447.93610	0.89872
1445.88229	0.90328
1443.82848	0.90634
1441.77467	0.90857
1439.72086	0.91049
1437.66705	0.91259
1435.61324	0.91552
1433.55943	0.91842
1431.50562	0.92114
1429.45181	0.92430
1427.39800	0.92691
1425.34419	0.92821
1423.29038	0.92909
1421.23657	0.92949
1419.18276	0.92922
1417.12895	0.92952
1415.07514	0.93010
1413.02133	0.93036
1410.96752	0.93100
1408.91371	0.93230
1406.85990	0.93391
1404.80609	0.93591
1402.75228	0.93782
1400.69847	0.93871
1398.64466	0.93879
1396.59085	0.93922
1394.53704	0.94065
1392.48323	0.94221
1390.42942	0.94276
1388.37561	0.94222
1386.32180	0.94109
1384.26799	0.93968
1382.21418	0.93752
1380.16037	0.93459
1378.10656	0.93217
1376.05275	0.93133
1373.99894	0.93171
1371.94513	0.93237
1369.89132	0.93291
1367.83751	0.93353
1365.78370	0.93432
1363.72989	0.93518
1361.67608	0.93660
1359.62227	0.93836
1357.56846	0.93953
1355.51465	0.94006
1353.46084	0.94040
1351.40703	0.94083
1349.35322	0.94151
1347.29941	0.94240
1345.24560	0.94341
1343.19179	0.94428
1341.13798	0.94469
1339.08417	0.94523
1337.03036	0.94627
1334.97655	0.94713
1332.92274	0.94756
1330.86893	0.94767
1328.81512	0.94761
1326.76130	0.94727
1324.70749	0.94669
1322.65368	0.94583
1320.59987	0.94456
1318.54606	0.94332
1316.49225	0.94248
1314.43844	0.94180
1312.38463	0.94135
1310.33082	0.94124
1308.27701	0.94119
1306.22320	0.94106
1304.16939	0.94062
1302.11558	0.93988
1300.06177	0.93948
1298.00796	0.93951
1295.95415	0.93938
1293.90034	0.93904
1291.84653	0.93877
1289.79272	0.93859
1287.73891	0.93835
1285.68510	0.93803
1283.63129	0.93776
1281.57748	0.93743
1279.52367	0.93689
1277.46986	0.93641
1275.41605	0.93588
1273.36224	0.93491
1271.30843	0.93380
1269.25462	0.93274
1267.20081	0.93128
1265.14700	0.92954
1263.09319	0.92826
1261.03938	0.92777
1258.98557	0.92807
1256.93176	0.92881
1254.87795	0.92926
1252.82414	0.92921
1250.77033	0.92891
1248.71652	0.92863
1246.66271	0.92851
1244.60890	0.92834
1242.55509	0.92805
1240.50128	0.92776
1238.44747	0.92745
1236.39366	0.92706
1234.33985	0.92663
1232.28604	0.92620
1230.23223	0.92594
1228.17842	0.92586
1226.12461	0.92554
1224.07080	0.92478
1222.01699	0.92396
1219.96318	0.92332
1217.90937	0.92246
1215.85556	0.92136
1213.80175	0.92045
1211.74794	0.91960
1209.69413	0.91845
1207.64032	0.91714
1205.58651	0.91582
1203.53270	0.91434
1201.47889	0.91269
1199.42508	0.91115
1197.37127	0.90998
1195.31746	0.90908
1193.26365	0.90797
1191.20984	0.90635
1189.15603	0.90441
1187.10222	0.90239
1185.04841	0.90010
1182.99460	0.89737
1180.94079	0.89466
1178.88698	0.89211
1176.83317	0.88944
1174.77936	0.88676
1172.72555	0.88415
1170.67174	0.88158
1168.61793	0.87925
1166.56412	0.87732
1164.51031	0.87572
1162.45650	0.87459
1160.40269	0.87412
1158.34888	0.87384
1156.29507	0.87302
1154.24126	0.87158
1152.18745	0.86994
1150.13364	0.86832
1148.07983	0.86694
1146.02602	0.86573
1143.97221	0.86429
1141.91840	0.86280
1139.86459	0.86138
1137.81078	0.85950
1135.75697	0.85711
1133.70316	0.85464
1131.64935	0.85186
1129.59554	0.84839
1127.54173	0.84468
1125.48792	0.84089
1123.43411	0.83675
1121.38030	0.83250
1119.32649	0.82850
1117.27268	0.82478
1115.21887	0.82123
1113.16506	0.81734
1111.11125	0.81309
1109.05744	0.80899
1107.00363	0.80500
1104.94982	0.80101
1102.89601	0.79730
1100.84220	0.79407
1098.78839	0.79130
1096.73458	0.78910
1094.68077	0.78769
1092.62696	0.78664
1090.57315	0.78587
1088.51934	0.78615
1086.46553	0.78731
1084.41172	0.78852
1082.35791	0.78967
1080.30410	0.79083
1078.25029	0.79194
1076.19648	0.79300
1074.14267	0.79434
1072.08886	0.79605
1070.03505	0.79716
1067.98124	0.79681
1065.92743	0.79558
1063.87362	0.79420
1061.81981	0.79247
1059.76600	0.79006
1057.71219	0.78733
1055.65838	0.78488
1053.60457	0.78247
1051.55076	0.77983
1049.49695	0.77735
1047.44314	0.77498
1045.38933	0.77262
1043.33552	0.77061
1041.28171	0.76911
1039.22790	0.76814
1037.17409	0.76750
1035.12028	0.76712
1033.06647	0.76741
1031.01265	0.76854
1028.95884	0.77052
1026.90503	0.77283
1024.85122	0.77468
1022.79741	0.77615
1020.74360	0.77778
1018.68979	0.77995
1016.63598	0.78263
1014.58217	0.78546
1012.52836	0.78845
1010.47455	0.79175
1008.42074	0.79540
1006.36693	0.79960
1004.31312	0.80475
1002.25931	0.81052
1000.20550	0.81612
998.15169	0.82147
996.09788	0.82682
994.04407	0.83235
991.99026	0.83792
989.93645	0.84316
987.88264	0.84808
985.82883	0.85292
983.77502	0.85784
981.72121	0.86260
979.66740	0.86680
977.61359	0.87063
975.55978	0.87433
973.50597	0.87786
971.45216	0.88118
969.39835	0.88408
967.34454	0.88667
965.29073	0.88944
963.23692	0.89252
961.18311	0.89551
959.12930	0.89797
957.07549	0.89976
955.02168	0.90120
952.96787	0.90293
950.91406	0.90482
948.86025	0.90650
946.80644	0.90813
944.75263	0.90949
942.69882	0.91075
940.64501	0.91228
938.59120	0.91378
936.53739	0.91492
934.48358	0.91576
932.42977	0.91659
930.37596	0.91722
928.32215	0.91751
926.26834	0.91792
924.21453	0.91837
922.16072	0.91867
920.10691	0.91901
918.05310	0.91938
915.99929	0.91952
913.94548	0.91932
911.89167	0.91928
909.83786	0.92028
907.78405	0.92234
905.73024	0.92504
903.67643	0.92814
901.62262	0.93098
899.56881	0.93303
897.51500	0.93458
895.46119	0.93621
893.40738	0.93767
891.35357	0.93849
889.29976	0.93936
887.24595	0.94072
885.19214	0.94159
883.13833	0.94159
881.08452	0.94103
879.03071	0.94028
876.97690	0.94027
874.92309	0.94141
872.86928	0.94297
870.81547	0.94428
868.76166	0.94533
866.70785	0.94603
864.65404	0.94624
862.60023	0.94652
860.54642	0.94697
858.49261	0.94733
856.43880	0.94763
854.38499	0.94835
852.33118	0.94955
850.27737	0.95033
848.22356	0.95036
846.16975	0.95017
844.11594	0.95030
842.06213	0.95067
840.00832	0.95105
837.95451	0.95137
835.90070	0.95113
833.84689	0.95043
831.79308	0.95011
829.73927	0.94981
827.68546	0.94920
825.63165	0.94887
823.57784	0.94829
821.52403	0.94697
819.47022	0.94523
817.41641	0.94339
815.36260	0.94179
813.30879	0.94050
811.25498	0.93900
809.20117	0.93630
807.14736	0.93257
805.09355	0.92830
803.03974	0.92317
800.98593	0.91881
798.93212	0.91711
796.87831	0.91797
794.82450	0.92038
792.77069	0.92312
790.71688	0.92542
788.66307	0.92656
786.60926	0.92644
784.55545	0.92620
782.50164	0.92613
780.44783	0.92612
778.39402	0.92686
776.34021	0.92850
774.28640	0.93088
772.23259	0.93314
770.17878	0.93414
768.12497	0.93414
766.07116	0.93464
764.01735	0.93615
761.96354	0.93718
759.90973	0.93671
757.85592	0.93551
755.80211	0.93438
753.74830	0.93316
751.69449	0.93203
749.64068	0.93141
747.58687	0.93076
745.53306	0.92922
743.47925	0.92720
741.42544	0.92529
739.37163	0.92194
737.31781	0.91376
735.26400	0.89292
733.21019	0.84750
731.15638	0.79222
729.10257	0.77213
727.04876	0.79115
724.99495	0.80249
722.94114	0.77233
720.88733	0.70718
718.83352	0.66103
716.77971	0.68107
714.72590	0.74643
712.67209	0.81125
710.61828	0.85406
708.56447	0.87763
706.51066	0.89029
704.45685	0.89705
702.40304	0.90032
700.34923	0.90234
698.29542	0.90401
696.24161	0.90499
694.18780	0.90640
692.13399	0.90883
690.08018	0.91063
688.02637	0.91164
685.97256	0.91302
683.91875	0.91432
681.86494	0.91544
679.81113	0.91642
677.75732	0.91692
675.70351	0.91703
673.64970	0.91655
671.59589	0.91585
669.54208	0.91579
667.48827	0.91758
665.43446	0.91958
663.38065	0.92047
661.32684	0.92094
659.27303	0.92106
657.21922	0.92105
655.16541	0.92098
653.11160	0.92009
651.05779	0.91892
649.00398	0.91828
646.95017	0.91764
644.89636	0.91689
642.84255	0.91594
640.78874	0.91430
638.73493	0.91266
636.68112	0.91185
634.62731	0.91141
632.57350	0.91135
630.51969	0.91206
628.46588	0.91243
626.41207	0.91164
624.35826	0.91042
622.30445	0.90953
620.25064	0.90972
618.19683	0.90985
616.14302	0.90858
614.08921	0.90768
612.03540	0.90828
609.98159	0.90820
607.92778	0.90603
605.87397	0.90331
603.82016	0.90110
601.76635	0.90033
599.71254	0.90135
597.65873	0.90167
595.60492	0.89955
593.55111	0.89576
591.49730	0.89273
589.44349	0.89158
587.38968	0.89055
585.33587	0.88907
583.28206	0.88783
581.22825	0.88632
579.17444	0.88487
577.12063	0.88407
575.06682	0.88431
573.01301	0.88651
570.95920	0.88904
568.90539	0.89055
566.85158	0.89210
564.79777	0.89295
562.74396	0.89280
560.69015	0.89250
558.63634	0.89054
556.58253	0.88768
554.52872	0.88720
552.47491	0.88791
550.42110	0.88678
548.36729	0.88475
546.31348	0.88335
544.25967	0.88172
542.20586	0.87936
540.15205	0.87718
538.09824	0.87666
536.04443	0.87782
533.99062	0.87906
531.93681	0.87916
529.88300	0.87771
527.82919	0.87522
525.77538	0.87275
523.72157	0.87148
521.66776	0.87109
519.61395	0.87156
517.56014	0.87335
515.50633	0.87489
513.45252	0.87461
511.39871	0.87281
509.34490	0.87056
507.29109	0.86922
505.23728	0.87018
503.18347	0.87186
501.12966	0.87314
499.07585	0.87419
497.02204	0.87513
494.96823	0.87654
492.91442	0.87613
490.86061	0.87344
488.80680	0.87113
486.75299	0.86943
484.69918	0.86552
482.64537	0.85831
480.59156	0.85150
478.53775	0.84647
476.48394	0.84059
474.43013	0.83242
472.37632	0.82549
470.32251	0.82468
468.26870	0.82711
466.21489	0.82826
464.16108	0.82866
462.10727	0.82940
460.05346	0.83259
457.99965	0.84118
455.94584	0.85011
453.89203	0.85418
451.83822	0.85659
449.78441	0.86008
447.73060	0.86305
445.67679	0.86423
443.62298	0.86551
441.56916	0.86782
439.51535	0.86836
437.46154	0.86511
435.40773	0.86186
433.35392	0.86088
431.30011	0.86098
429.24630	0.86382
427.19249	0.86775
425.13868	0.87027
423.08487	0.87291
421.03106	0.87663
418.97725	0.88073
416.92344	0.88181
414.86963	0.88080
412.81582	0.88249
410.76201	0.88729
408.70820	0.89052
406.65439	0.89129
404.60058	0.89327
402.54677	0.89457
400.49296	0.88989
398.43915	0.88159
