3996.70104	0.98268
3994.64724	0.98280
3992.59344	0.98343
3990.53964	0.98425
3988.48583	0.98419
3986.43203	0.98372
3984.37823	0.98376
3982.32442	0.98394
3980.27062	0.98370
3978.21682	0.98332
3976.16301	0.98316
3974.10921	0.98314
3972.05541	0.98310
3970.00160	0.98309
3967.94780	0.98331
3965.89400	0.98350
3963.84019	0.98318
3961.78639	0.98266
3959.73259	0.98270
3957.67878	0.98337
3955.62498	0.98401
3953.57118	0.98406
3951.51737	0.98366
3949.46357	0.98339
3947.40977	0.98326
3945.35596	0.98294
3943.30216	0.98289
3941.24836	0.98324
3939.19455	0.98344
3937.14075	0.98374
3935.08695	0.98442
3933.03315	0.98507
3930.97934	0.98510
3928.92554	0.98477
3926.87174	0.98465
3924.81793	0.98425
3922.76413	0.98360
3920.71033	0.98379
3918.65652	0.98464
3916.60272	0.98496
3914.54892	0.98466
3912.49511	0.98403
3910.44131	0.98311
3908.38751	0.98262
3906.33370	0.98273
3904.27990	0.98277
3902.22610	0.98282
3900.17229	0.98344
3898.11849	0.98415
3896.06469	0.98398
3894.01088	0.98345
3891.95708	0.98378
3889.90328	0.98449
3887.84947	0.98420
3885.79567	0.98310
3883.74187	0.98243
3881.68807	0.98289
3879.63426	0.98360
3877.58046	0.98349
3875.52666	0.98278
3873.47285	0.98232
3871.41905	0.98293
3869.36525	0.98401
3867.31144	0.98428
3865.25764	0.98374
3863.20384	0.98289
3861.15003	0.98247
3859.09623	0.98262
3857.04243	0.98312
3854.98862	0.98369
3852.93482	0.98377
3850.88102	0.98313
3848.82721	0.98270
3846.77341	0.98278
3844.71961	0.98308
3842.66580	0.98322
3840.61200	0.98304
3838.55820	0.98305
3836.50439	0.98342
3834.45059	0.98348
3832.39679	0.98344
3830.34298	0.98350
3828.28918	0.98356
3826.23538	0.98373
3824.18158	0.98397
3822.12777	0.98435
3820.07397	0.98491
3818.02017	0.98509
3815.96636	0.98495
3813.91256	0.98505
3811.85876	0.98511
3809.80495	0.98456
3807.75115	0.98364
3805.69735	0.98307
3803.64354	0.98297
3801.58974	0.98331
3799.53594	0.98376
3797.48213	0.98386
3795.42833	0.98394
3793.37453	0.98397
3791.32072	0.98389
3789.26692	0.98403
3787.21312	0.98427
3785.15931	0.98452
3783.10551	0.98449
3781.05171	0.98404
3778.99790	0.98411
3776.94410	0.98427
3774.89030	0.98397
3772.83650	0.98399
3770.78269	0.98387
3768.72889	0.98316
3766.67509	0.98306
3764.62128	0.98355
3762.56748	0.98382
3760.51368	0.98405
3758.45987	0.98416
3756.40607	0.98395
3754.35227	0.98389
3752.29846	0.98418
3750.24466	0.98450
3748.19086	0.98449
3746.13705	0.98403
3744.08325	0.98344
3742.02945	0.98348
3739.97564	0.98381
3737.92184	0.98474
3735.86804	0.98567
3733.81423	0.98462
3731.76043	0.98367
3729.70663	0.98388
3727.65282	0.98377
3725.59902	0.98311
3723.54522	0.98257
3721.49141	0.98143
3719.43761	0.97933
3717.38381	0.97731
3715.33001	0.97541
3713.27620	0.97321
3711.22240	0.97014
3709.16860	0.96571
3707.11479	0.96156
3705.06099	0.95805
3703.00719	0.95387
3700.95338	0.94945
3698.89958	0.94700
3696.84578	0.94642
3694.79197	0.94693
3692.73817	0.94817
3690.68437	0.94998
3688.63056	0.95271
3686.57676	0.95505
3684.52296	0.95628
3682.46915	0.95756
3680.41535	0.95889
3678.36155	0.95929
3676.30774	0.95900
3674.25394	0.95901
3672.20014	0.95885
3670.14633	0.95788
3668.09253	0.95638
3666.03873	0.95544
3663.98492	0.95485
3661.93112	0.95387
3659.87732	0.95283
3657.82352	0.95225
3655.76971	0.95163
3653.71591	0.95086
3651.66211	0.95024
3649.60830	0.94964
3647.55450	0.94960
3645.50070	0.94945
3643.44689	0.94823
3641.39309	0.94666
3639.33929	0.94560
3637.28548	0.94491
3635.23168	0.94416
3633.17788	0.94323
3631.12407	0.94157
3629.07027	0.93810
3627.01647	0.93528
3624.96266	0.93491
3622.90886	0.93498
3620.85506	0.93487
3618.80125	0.93523
3616.74745	0.93670
3614.69365	0.93812
3612.63984	0.93909
3610.58604	0.93967
3608.53224	0.93959
3606.47844	0.93942
3604.42463	0.93955
3602.37083	0.94003
3600.31703	0.94061
3598.26322	0.94054
3596.20942	0.94005
3594.15562	0.93981
3592.10181	0.94024
3590.04801	0.94081
3587.99421	0.94030
3585.94040	0.93906
3583.88660	0.93878
3581.83280	0.93912
3579.77899	0.93922
3577.72519	0.93876
3575.67139	0.93770
3573.61758	0.93666
3571.56378	0.93673
3569.50998	0.93746
3567.45617	0.93715
3565.40237	0.93578
3563.34857	0.93496
3561.29476	0.93449
3559.24096	0.93410
3557.18716	0.93376
3555.13335	0.93330
3553.07955	0.93249
3551.02575	0.93154
3548.97195	0.93131
3546.91814	0.93153
3544.86434	0.93136
3542.81054	0.93083
3540.75673	0.93058
3538.70293	0.93072
3536.64913	0.93063
3534.59532	0.93034
3532.54152	0.93025
3530.48772	0.92989
3528.43391	0.92938
3526.38011	0.92950
3524.32631	0.93016
3522.27250	0.93078
3520.21870	0.93105
3518.16490	0.93109
3516.11109	0.93101
3514.05729	0.93072
3512.00349	0.93071
3509.94968	0.93131
3507.89588	0.93174
3505.84208	0.93145
3503.78827	0.93107
3501.73447	0.93128
3499.68067	0.93176
3497.62687	0.93158
3495.57306	0.93063
3493.51926	0.92976
3491.46546	0.92953
3489.41165	0.92956
3487.35785	0.92940
3485.30405	0.92907
3483.25024	0.92862
3481.19644	0.92795
3479.14264	0.92733
3477.08883	0.92707
3475.03503	0.92711
3472.98123	0.92740
3470.92742	0.92777
3468.87362	0.92776
3466.81982	0.92756
3464.76601	0.92734
3462.71221	0.92673
3460.65841	0.92592
3458.60460	0.92528
3456.55080	0.92454
3454.49700	0.92398
3452.44319	0.92387
3450.38939	0.92350
3448.33559	0.92290
3446.28178	0.92295
3444.22798	0.92328
3442.17418	0.92312
3440.12038	0.92297
3438.06657	0.92312
3436.01277	0.92285
3433.95897	0.92209
3431.90516	0.92152
3429.85136	0.92104
3427.79756	0.92010
3425.74375	0.91907
3423.68995	0.91862
3421.63615	0.91821
3419.58234	0.91724
3417.52854	0.91649
3415.47474	0.91651
3413.42093	0.91667
3411.36713	0.91635
3409.31333	0.91562
3407.25952	0.91528
3405.20572	0.91544
3403.15192	0.91570
3401.09811	0.91606
3399.04431	0.91603
3396.99051	0.91550
3394.93670	0.91528
3392.88290	0.91549
3390.82910	0.91592
3388.77529	0.91648
3386.72149	0.91674
3384.66769	0.91672
3382.61389	0.91712
3380.56008	0.91787
3378.50628	0.91798
3376.45248	0.91740
3374.39867	0.91725
3372.34487	0.91800
3370.29107	0.91883
3368.23726	0.91929
3366.18346	0.91983
3364.12966	0.92053
3362.07585	0.92080
3360.02205	0.92047
3357.96825	0.92006
3355.91444	0.91998
3353.86064	0.92051
3351.80684	0.92127
3349.75303	0.92155
3347.69923	0.92156
3345.64543	0.92159
3343.59162	0.92136
3341.53782	0.92115
3339.48402	0.92146
3337.43021	0.92189
3335.37641	0.92199
3333.32261	0.92196
3331.26881	0.92191
3329.21500	0.92193
3327.16120	0.92229
3325.10740	0.92300
3323.05359	0.92345
3320.99979	0.92335
3318.94599	0.92347
3316.89218	0.92409
3314.83838	0.92462
3312.78458	0.92497
3310.73077	0.92525
3308.67697	0.92520
3306.62317	0.92507
3304.56936	0.92524
3302.51556	0.92570
3300.46176	0.92616
3298.40795	0.92620
3296.35415	0.92614
3294.30035	0.92641
3292.24654	0.92669
3290.19274	0.92699
3288.13894	0.92727
3286.08513	0.92744
3284.03133	0.92763
3281.97753	0.92791
3279.92372	0.92843
3277.86992	0.92884
3275.81612	0.92876
3273.76232	0.92870
3271.70851	0.92900
3269.65471	0.92916
3267.60091	0.92905
3265.54710	0.92924
3263.49330	0.92989
3261.43950	0.93042
3259.38569	0.93065
3257.33189	0.93111
3255.27809	0.93140
3253.22428	0.93105
3251.17048	0.93088
3249.11668	0.93106
3247.06287	0.93102
3245.00907	0.93123
3242.95527	0.93200
3240.90146	0.93273
3238.84766	0.93310
3236.79386	0.93343
3234.74005	0.93389
3232.68625	0.93448
3230.63245	0.93523
3228.57864	0.93571
3226.52484	0.93577
3224.47104	0.93548
3222.41724	0.93517
3220.36343	0.93540
3218.30963	0.93618
3216.25583	0.93712
3214.20202	0.93778
3212.14822	0.93788
3210.09442	0.93779
3208.04061	0.93804
3205.98681	0.93852
3203.93301	0.93915
3201.87920	0.93997
3199.82540	0.94049
3197.77160	0.94076
3195.71779	0.94127
3193.66399	0.94189
3191.61019	0.94232
3189.55638	0.94271
3187.50258	0.94304
3185.44878	0.94316
3183.39497	0.94343
3181.34117	0.94398
3179.28737	0.94441
3177.23356	0.94463
3175.17976	0.94491
3173.12596	0.94571
3171.07215	0.94666
3169.01835	0.94681
3166.96455	0.94641
3164.91075	0.94624
3162.85694	0.94662
3160.80314	0.94760
3158.74934	0.94859
3156.69553	0.94890
3154.64173	0.94885
3152.58793	0.94905
3150.53412	0.94968
3148.48032	0.95042
3146.42652	0.95062
3144.37271	0.95022
3142.31891	0.94997
3140.26511	0.95014
3138.21130	0.95061
3136.15750	0.95145
3134.10370	0.95247
3132.04989	0.95318
3129.99609	0.95357
3127.94229	0.95398
3125.88848	0.95448
3123.83468	0.95474
3121.78088	0.95458
3119.72707	0.95449
3117.67327	0.95476
3115.61947	0.95519
3113.56566	0.95564
3111.51186	0.95614
3109.45806	0.95643
3107.40426	0.95645
3105.35045	0.95637
3103.29665	0.95628
3101.24285	0.95646
3099.18904	0.95686
3097.13524	0.95704
3095.08144	0.95718
3093.02763	0.95730
3090.97383	0.95733
3088.92003	0.95789
3086.86622	0.95853
3084.81242	0.95830
3082.75862	0.95800
3080.70481	0.95822
3078.65101	0.95835
3076.59721	0.95815
3074.54340	0.95799
3072.48960	0.95837
3070.43580	0.95940
3068.38199	0.95998
3066.32819	0.95957
3064.27439	0.95908
3062.22058	0.95902
3060.16678	0.95903
3058.11298	0.95917
3056.05918	0.95982
3054.00537	0.96050
3051.95157	0.96072
3049.89777	0.96092
3047.84396	0.96148
3045.79016	0.96182
3043.73636	0.96157
3041.68255	0.96131
3039.62875	0.96146
3037.57495	0.96214
3035.52114	0.96292
3033.46734	0.96280
3031.41354	0.96215
3029.35973	0.96235
3027.30593	0.96315
3025.25213	0.96355
3023.19832	0.96359
3021.14452	0.96363
3019.09072	0.96363
3017.03691	0.96322
3014.98311	0.96274
3012.92931	0.96310
3010.87550	0.96379
3008.82170	0.96391
3006.76790	0.96371
3004.71409	0.96369
3002.66029	0.96380
3000.60649	0.96386
2998.55269	0.96374
2996.49888	0.96334
2994.44508	0.96288
2992.39128	0.96253
2990.33747	0.96207
2988.28367	0.96154
2986.22987	0.96113
2984.17606	0.96050
2982.12226	0.95974
2980.06846	0.95910
2978.01465	0.95828
2975.96085	0.95729
2973.90705	0.95643
2971.85324	0.95558
2969.79944	0.95428
2967.74564	0.95228
2965.69183	0.95020
2963.63803	0.94835
2961.58423	0.94635
2959.53042	0.94427
2957.47662	0.94233
2955.42282	0.94033
2953.36901	0.93812
2951.31521	0.93597
2949.26141	0.93361
2947.20761	0.93003
2945.15380	0.92462
2943.10000	0.91758
2941.04620	0.90909
2938.99239	0.89835
2936.93859	0.88518
2934.88479	0.86978
2932.83098	0.85164
2930.77718	0.83060
2928.72338	0.80646
2926.66957	0.77837
2924.61577	0.74558
2922.56197	0.70892
2920.50816	0.67207
2918.45436	0.64121
2916.40056	0.62393
2914.34675	0.62435
2912.29295	0.63896
2910.23915	0.66044
2908.18534	0.68326
2906.13154	0.70457
2904.07774	0.72314
2902.02393	0.73871
2899.97013	0.75198
2897.91633	0.76400
2895.86252	0.77500
2893.80872	0.78538
2891.75492	0.79617
2889.70112	0.80755
2887.64731	0.81910
2885.59351	0.83090
2883.53971	0.84279
2881.48590	0.85442
2879.43210	0.86579
2877.37830	0.87650
2875.32449	0.88590
2873.27069	0.89360
2871.21689	0.89918
2869.16308	0.90214
2867.10928	0.90205
2865.05548	0.89851
2863.00167	0.89069
2860.94787	0.87714
2858.89407	0.85602
2856.84026	0.82503
2854.78646	0.78231
2852.73266	0.73077
2850.67885	0.68278
2848.62505	0.65574
2846.57125	0.65849
2844.51744	0.68558
2842.46364	0.72512
2840.40984	0.76647
2838.35603	0.80298
2836.30223	0.83235
2834.24843	0.85543
2832.19463	0.87359
2830.14082	0.88778
2828.08702	0.89891
2826.03322	0.90785
2823.97941	0.91535
2821.92561	0.92169
2819.87181	0.92675
2817.81800	0.93091
2815.76420	0.93481
2813.71040	0.93840
2811.65659	0.94133
2809.60279	0.94354
2807.54899	0.94539
2805.49518	0.94733
2803.44138	0.94926
2801.38758	0.95077
2799.33377	0.95209
2797.27997	0.95371
2795.22617	0.95554
2793.17236	0.95703
2791.11856	0.95786
2789.06476	0.95852
2787.01095	0.95934
2784.95715	0.96025
2782.90335	0.96138
2780.84955	0.96252
2778.79574	0.96338
2776.74194	0.96399
2774.68814	0.96444
2772.63433	0.96501
2770.58053	0.96574
2768.52673	0.96615
2766.47292	0.96629
2764.41912	0.96671
2762.36532	0.96729
2760.31151	0.96774
2758.25771	0.96811
2756.20391	0.96846
2754.15010	0.96879
2752.09630	0.96903
2750.04250	0.96935
2747.98869	0.96973
2745.93489	0.96982
2743.88109	0.96968
2741.82728	0.96973
2739.77348	0.96998
2737.71968	0.97024
2735.66587	0.97046
2733.61207	0.97043
2731.55827	0.97027
2729.50446	0.97045
2727.45066	0.97085
2725.39686	0.97122
2723.34306	0.97158
2721.28925	0.97200
2719.23545	0.97243
2717.18165	0.97262
2715.12784	0.97263
2713.07404	0.97271
2711.02024	0.97272
2708.96643	0.97268
2706.91263	0.97293
2704.85883	0.97350
2702.80502	0.97390
2700.75122	0.97380
2698.69742	0.97362
2696.64361	0.97363
2694.58981	0.97365
2692.53601	0.97383
2690.48220	0.97436
2688.42840	0.97477
2686.37460	0.97461
2684.32079	0.97425
2682.26699	0.97405
2680.21319	0.97405
2678.15938	0.97422
2676.10558	0.97430
2674.05178	0.97399
2671.99797	0.97352
2669.94417	0.97327
2667.89037	0.97319
2665.83657	0.97333
2663.78276	0.97371
2661.72896	0.97384
2659.67516	0.97360
2657.62135	0.97329
2655.56755	0.97313
2653.51375	0.97314
2651.45994	0.97309
2649.40614	0.97300
2647.35234	0.97341
2645.29853	0.97417
2643.24473	0.97478
2641.19093	0.97504
2639.13712	0.97469
2637.08332	0.97404
2635.02952	0.97405
2632.97571	0.97442
2630.92191	0.97436
2628.86811	0.97454
2626.81430	0.97535
2624.76050	0.97571
2622.70670	0.97538
2620.65289	0.97519
2618.59909	0.97538
2616.54529	0.97579
2614.49149	0.97623
2612.43768	0.97668
2610.38388	0.97725
2608.33008	0.97765
2606.27627	0.97778
2604.22247	0.97788
2602.16867	0.97794
2600.11486	0.97789
2598.06106	0.97786
2596.00726	0.97824
2593.95345	0.97882
2591.89965	0.97893
2589.84585	0.97914
2587.79204	0.97985
2585.73824	0.98014
2583.68444	0.97982
2581.63063	0.97961
2579.57683	0.97980
2577.52303	0.98022
2575.46922	0.98051
2573.41542	0.98055
2571.36162	0.98091
2569.30781	0.98162
2567.25401	0.98194
2565.20021	0.98166
2563.14640	0.98095
2561.09260	0.98039
2559.03880	0.98049
2556.98500	0.98080
2554.93119	0.98107
2552.87739	0.98134
2550.82359	0.98161
2548.76978	0.98195
2546.71598	0.98195
2544.66218	0.98178
2542.60837	0.98186
2540.55457	0.98197
2538.50077	0.98180
2536.44696	0.98131
2534.39316	0.98104
2532.33936	0.98122
2530.28555	0.98135
2528.23175	0.98156
2526.17795	0.98207
2524.12414	0.98226
2522.07034	0.98221
2520.01654	0.98210
2517.96273	0.98183
2515.90893	0.98198
2513.85513	0.98225
2511.80132	0.98221
2509.74752	0.98260
2507.69372	0.98318
2505.63992	0.98322
2503.58611	0.98303
2501.53231	0.98291
2499.47851	0.98306
2497.42470	0.98324
2495.37090	0.98322
2493.31710	0.98324
2491.26329	0.98304
2489.20949	0.98251
2487.15569	0.98238
2485.10188	0.98292
2483.04808	0.98326
2480.99428	0.98307
2478.94047	0.98280
2476.88667	0.98227
2474.83287	0.98191
2472.77906	0.98244
2470.72526	0.98315
2468.67146	0.98359
2466.61765	0.98380
2464.56385	0.98364
2462.51005	0.98375
2460.45624	0.98413
2458.40244	0.98399
2456.34864	0.98356
2454.29483	0.98327
2452.24103	0.98320
2450.18723	0.98331
2448.13343	0.98339
2446.07962	0.98311
2444.02582	0.98269
2441.97202	0.98282
2439.91821	0.98352
2437.86441	0.98417
2435.81061	0.98432
2433.75680	0.98403
2431.70300	0.98371
2429.64920	0.98383
2427.59539	0.98420
2425.54159	0.98432
2423.48779	0.98424
2421.43398	0.98409
2419.38018	0.98427
2417.32638	0.98447
2415.27257	0.98396
2413.21877	0.98354
2411.16497	0.98387
2409.11116	0.98426
2407.05736	0.98448
2405.00356	0.98483
2402.94975	0.98463
2400.89595	0.98372
2398.84215	0.98337
2396.78834	0.98364
2394.73454	0.98360
2392.68074	0.98349
2390.62694	0.98389
2388.57313	0.98458
2386.51933	0.98468
2384.46553	0.98393
2382.41172	0.98307
2380.35792	0.98301
2378.30412	0.98380
2376.25031	0.98432
2374.19651	0.98337
2372.14271	0.98150
2370.08890	0.98028
2368.03510	0.97985
2365.98130	0.98019
2363.92749	0.98128
2361.87369	0.98152
2359.81989	0.98135
2357.76608	0.98219
2355.71228	0.98280
2353.65848	0.98247
2351.60467	0.98217
2349.55087	0.98206
2347.49707	0.98189
2345.44326	0.98189
2343.38946	0.98203
2341.33566	0.98217
2339.28186	0.98230
2337.22805	0.98224
2335.17425	0.98211
2333.12045	0.98223
2331.06664	0.98224
2329.01284	0.98143
2326.95904	0.98020
2324.90523	0.97948
2322.85143	0.97998
2320.79763	0.98117
2318.74382	0.98160
2316.69002	0.98161
2314.63622	0.98175
2312.58241	0.98173
2310.52861	0.98183
2308.47481	0.98226
2306.42100	0.98263
2304.36720	0.98294
2302.31340	0.98313
2300.25959	0.98261
2298.20579	0.98185
2296.15199	0.98186
2294.09818	0.98223
2292.04438	0.98228
2289.99058	0.98218
2287.93677	0.98225
2285.88297	0.98205
2283.82917	0.98119
2281.77537	0.98050
2279.72156	0.98065
2277.66776	0.98154
2275.61396	0.98258
2273.56015	0.98317
2271.50635	0.98313
2269.45255	0.98266
2267.39874	0.98273
2265.34494	0.98372
2263.29114	0.98457
2261.23733	0.98458
2259.18353	0.98435
2257.12973	0.98447
2255.07592	0.98453
2253.02212	0.98427
2250.96832	0.98435
2248.91451	0.98508
2246.86071	0.98568
2244.80691	0.98582
2242.75310	0.98582
2240.69930	0.98546
2238.64550	0.98504
2236.59169	0.98593
2234.53789	0.98736
2232.48409	0.98715
2230.43029	0.98500
2228.37648	0.98299
2226.32268	0.98299
2224.26888	0.98387
2222.21507	0.98406
2220.16127	0.98414
2218.10747	0.98454
2216.05366	0.98462
2213.99986	0.98498
2211.94606	0.98720
2209.89225	0.98976
2207.83845	0.98917
2205.78465	0.98662
2203.73084	0.98567
2201.67704	0.98602
2199.62324	0.98511
2197.56943	0.98255
2195.51563	0.98066
2193.46183	0.98111
2191.40802	0.98374
2189.35422	0.98608
2187.30042	0.98579
2185.24661	0.98401
2183.19281	0.98361
2181.13901	0.98633
2179.08520	0.98970
2177.03140	0.99031
2174.97760	0.98911
2172.92380	0.98910
2170.86999	0.98910
2168.81619	0.98815
2166.76239	0.98942
2164.70858	0.99087
2162.65478	0.98825
2160.60098	0.98608
2158.54717	0.98840
2156.49337	0.99179
2154.43957	0.99424
2152.38576	0.99505
2150.33196	0.99322
2148.27816	0.98992
2146.22435	0.98681
2144.17055	0.98478
2142.11675	0.98439
2140.06294	0.98475
2138.00914	0.98540
2135.95534	0.98727
2133.90153	0.98898
2131.84773	0.98859
2129.79393	0.98728
2127.74012	0.98713
2125.68632	0.98760
2123.63252	0.98655
2121.57871	0.98529
2119.52491	0.98602
2117.47111	0.98725
2115.41731	0.98793
2113.36350	0.98811
2111.30970	0.98721
2109.25590	0.98635
2107.20209	0.98662
2105.14829	0.98727
2103.09449	0.98769
2101.04068	0.98780
2098.98688	0.98719
2096.93308	0.98603
2094.87927	0.98469
2092.82547	0.98361
2090.77167	0.98398
2088.71786	0.98546
2086.66406	0.98612
2084.61026	0.98529
2082.55645	0.98424
2080.50265	0.98434
2078.44885	0.98536
2076.39504	0.98618
2074.34124	0.98637
2072.28744	0.98706
2070.23363	0.98825
2068.17983	0.98811
2066.12603	0.98737
2064.07223	0.98774
2062.01842	0.98784
2059.96462	0.98659
2057.91082	0.98567
2055.85701	0.98690
2053.80321	0.98958
2051.74941	0.99088
2049.69560	0.98912
2047.64180	0.98578
2045.58800	0.98470
2043.53419	0.98655
2041.48039	0.98802
2039.42659	0.98734
2037.37278	0.98652
2035.31898	0.98853
2033.26518	0.99251
2031.21137	0.99377
2029.15757	0.99014
2027.10377	0.98627
2025.04996	0.98581
2022.99616	0.98687
2020.94236	0.98738
2018.88855	0.98760
2016.83475	0.98846
2014.78095	0.98897
2012.72714	0.98815
2010.67334	0.98779
2008.61954	0.99022
2006.56574	0.99220
2004.51193	0.98967
2002.45813	0.98588
2000.40433	0.98391
1998.35052	0.98395
1996.29672	0.98578
1994.24292	0.98820
1992.18911	0.98932
1990.13531	0.98793
1988.08151	0.98542
1986.02770	0.98441
1983.97390	0.98687
1981.92010	0.99029
1979.86629	0.99107
1977.81249	0.99025
1975.75869	0.99043
1973.70488	0.99135
1971.65108	0.99073
1969.59728	0.98952
1967.54347	0.98936
1965.48967	0.98801
1963.43587	0.98482
1961.38206	0.98364
1959.32826	0.98646
1957.27446	0.99068
1955.22066	0.99235
1953.16685	0.98988
1951.11305	0.98684
1949.05925	0.98658
1947.00544	0.98802
1944.95164	0.98864
1942.89784	0.98774
1940.84403	0.98660
1938.79023	0.98578
1936.73643	0.98555
1934.68262	0.98673
1932.62882	0.98839
1930.57502	0.98894
1928.52121	0.98844
1926.46741	0.98763
1924.41361	0.98680
1922.35980	0.98594
1920.30600	0.98555
1918.25220	0.98548
1916.19839	0.98546
1914.14459	0.98583
1912.09079	0.98565
1910.03698	0.98480
1907.98318	0.98465
1905.92938	0.98510
1903.87557	0.98545
1901.82177	0.98546
1899.76797	0.98505
1897.71417	0.98503
1895.66036	0.98520
1893.60656	0.98474
1891.55276	0.98448
1889.49895	0.98507
1887.44515	0.98575
1885.39135	0.98565
1883.33754	0.98505
1881.28374	0.98491
1879.22994	0.98529
1877.17613	0.98541
1875.12233	0.98530
1873.06853	0.98518
1871.01472	0.98470
1868.96092	0.98431
1866.90712	0.98503
1864.85331	0.98581
1862.79951	0.98547
1860.74571	0.98456
1858.69190	0.98415
1856.63810	0.98441
1854.58430	0.98478
1852.53049	0.98495
1850.47669	0.98512
1848.42289	0.98550
1846.36908	0.98569
1844.31528	0.98514
1842.26148	0.98436
1840.20768	0.98427
1838.15387	0.98487
1836.10007	0.98533
1834.04627	0.98531
1831.99246	0.98568
1829.93866	0.98640
1827.88486	0.98602
1825.83105	0.98521
1823.77725	0.98481
1821.72345	0.98415
1819.66964	0.98357
1817.61584	0.98393
1815.56204	0.98459
1813.50823	0.98480
1811.45443	0.98481
1809.40063	0.98474
1807.34682	0.98442
1805.29302	0.98399
1803.23922	0.98378
1801.18541	0.98384
1799.13161	0.98373
1797.07781	0.98342
1795.02400	0.98351
1792.97020	0.98397
1790.91640	0.98400
1788.86260	0.98368
1786.80879	0.98359
1784.75499	0.98356
1782.70119	0.98340
1780.64738	0.98340
1778.59358	0.98333
1776.53978	0.98305
1774.48597	0.98305
1772.43217	0.98327
1770.37837	0.98292
1768.32456	0.98223
1766.27076	0.98178
1764.21696	0.98148
1762.16315	0.98104
1760.10935	0.98053
1758.05555	0.98023
1756.00174	0.98002
1753.94794	0.97959
1751.89414	0.97870
1749.84033	0.97736
1747.78653	0.97594
1745.73273	0.97446
1743.67892	0.97284
1741.62512	0.97117
1739.57132	0.96930
1737.51751	0.96767
1735.46371	0.96679
1733.40991	0.96671
1731.35611	0.96707
1729.30230	0.96732
1727.24850	0.96766
1725.19470	0.96804
1723.14089	0.96833
1721.08709	0.96852
1719.03329	0.96864
1716.97948	0.96911
1714.92568	0.96960
1712.87188	0.96912
1710.81807	0.96818
1708.76427	0.96766
1706.71047	0.96751
1704.65666	0.96722
1702.60286	0.96676
1700.54906	0.96557
1698.49525	0.96360
1696.44145	0.96177
1694.38765	0.95979
1692.33384	0.95832
1690.28004	0.95707
1688.22624	0.95564
1686.17243	0.95399
1684.11863	0.95131
1682.06483	0.94923
1680.01103	0.94830
1677.95722	0.94728
1675.90342	0.94593
1673.84962	0.94452
1671.79581	0.94344
1669.74201	0.94184
1667.68821	0.93976
1665.63440	0.93848
1663.58060	0.93744
1661.52680	0.93603
1659.47299	0.93478
1657.41919	0.93386
1655.36539	0.93302
1653.31158	0.93192
1651.25778	0.93139
1649.20398	0.93119
1647.15017	0.93062
1645.09637	0.93003
1643.04257	0.92956
1640.98876	0.92939
1638.93496	0.92959
1636.88116	0.92966
1634.82735	0.92952
1632.77355	0.92960
1630.71975	0.92984
1628.66594	0.93001
1626.61214	0.93008
1624.55834	0.93011
1622.50454	0.93034
1620.45073	0.93129
1618.39693	0.93301
1616.34313	0.93537
1614.28932	0.93718
1612.23552	0.93825
1610.18172	0.93925
1608.12791	0.94014
1606.07411	0.94061
1604.02031	0.94110
1601.96650	0.94215
1599.91270	0.94335
1597.85890	0.94418
1595.80509	0.94500
1593.75129	0.94581
1591.69749	0.94620
1589.64368	0.94639
1587.58988	0.94672
1585.53608	0.94725
1583.48227	0.94788
1581.42847	0.94849
1579.37467	0.94909
1577.32086	0.94983
1575.26706	0.95040
1573.21326	0.95054
1571.15945	0.95059
1569.10565	0.95080
1567.05185	0.95119
1564.99805	0.95150
1562.94424	0.95165
1560.89044	0.95179
1558.83664	0.95221
1556.78283	0.95256
1554.72903	0.95263
1552.67523	0.95282
1550.62142	0.95307
1548.56762	0.95314
1546.51382	0.95321
1544.46001	0.95335
1542.40621	0.95358
1540.35241	0.95437
1538.29860	0.95524
1536.24480	0.95556
1534.19100	0.95582
1532.13719	0.95642
1530.08339	0.95727
1528.02959	0.95820
1525.97578	0.95910
1523.92198	0.95990
1521.86818	0.96055
1519.81437	0.96098
1517.76057	0.96125
1515.70677	0.96160
1513.65297	0.96201
1511.59916	0.96224
1509.54536	0.96232
1507.49156	0.96264
1505.43775	0.96338
1503.38395	0.96368
1501.33015	0.96367
1499.27634	0.96353
1497.22254	0.96323
1495.16874	0.96257
1493.11493	0.96201
1491.06113	0.96142
1489.00733	0.96009
1486.95352	0.95857
1484.89972	0.95718
1482.84592	0.95485
1480.79211	0.95022
1478.73831	0.94014
1476.68451	0.91554
1474.63070	0.86952
1472.57690	0.82248
1470.52310	0.81229
1468.46929	0.82288
1466.41549	0.83040
1464.36169	0.83039
1462.30788	0.83550
1460.25408	0.85395
1458.20028	0.88123
1456.14648	0.90468
1454.09267	0.91523
1452.03887	0.92119
1449.98507	0.92543
1447.93126	0.92836
1445.87746	0.93056
1443.82366	0.93203
1441.76985	0.93310
1439.71605	0.93414
1437.66225	0.93525
1435.60844	0.93649
1433.55464	0.93791
1431.50084	0.93964
1429.44703	0.94155
1427.39323	0.94322
1425.33943	0.94467
1423.28562	0.94609
1421.23182	0.94716
1419.17802	0.94777
1417.12421	0.94821
1415.07041	0.94876
1413.01661	0.94919
1410.96280	0.94963
1408.90900	0.95032
1406.85520	0.95105
1404.80139	0.95185
1402.74759	0.95267
1400.69379	0.95316
1398.63999	0.95289
1396.58618	0.95226
1394.53238	0.95240
1392.47858	0.95323
1390.42477	0.95387
1388.37097	0.95420
1386.31717	0.95426
1384.26336	0.95395
1382.20956	0.95339
1380.15576	0.95260
1378.10195	0.95173
1376.04815	0.95110
1373.99435	0.95066
1371.94054	0.95016
1369.88674	0.94968
1367.83294	0.94953
1365.77913	0.95011
1363.72533	0.95151
1361.67153	0.95315
1359.61772	0.95425
1357.56392	0.95479
1355.51012	0.95477
1353.45631	0.95474
1351.40251	0.95526
1349.34871	0.95599
1347.29491	0.95667
1345.24110	0.95741
1343.18730	0.95820
1341.13350	0.95860
1339.07969	0.95867
1337.02589	0.95883
1334.97209	0.95894
1332.91828	0.95916
1330.86448	0.95950
1328.81068	0.95945
1326.75687	0.95912
1324.70307	0.95903
1322.64927	0.95900
1320.59546	0.95872
1318.54166	0.95825
1316.48786	0.95783
1314.43405	0.95779
1312.38025	0.95794
1310.32645	0.95784
1308.27264	0.95765
1306.21884	0.95755
1304.16504	0.95722
1302.11123	0.95684
1300.05743	0.95681
1298.00363	0.95677
1295.94982	0.95664
1293.89602	0.95689
1291.84222	0.95727
1289.78842	0.95723
1287.73461	0.95689
1285.68081	0.95651
1283.62701	0.95612
1281.57320	0.95566
1279.51940	0.95512
1277.46560	0.95462
1275.41179	0.95420
1273.35799	0.95365
1271.30419	0.95286
1269.25038	0.95206
1267.19658	0.95145
1265.14278	0.95069
1263.08897	0.94988
1261.03517	0.94952
1258.98137	0.94930
1256.92756	0.94882
1254.87376	0.94840
1252.81996	0.94812
1250.76615	0.94775
1248.71235	0.94747
1246.65855	0.94724
1244.60474	0.94677
1242.55094	0.94631
1240.49714	0.94606
1238.44334	0.94576
1236.38953	0.94529
1234.33573	0.94483
1232.28193	0.94440
1230.22812	0.94393
1228.17432	0.94348
1226.12052	0.94312
1224.06671	0.94261
1222.01291	0.94172
1219.95911	0.94078
1217.90530	0.94012
1215.85150	0.93962
1213.79770	0.93895
1211.74389	0.93783
1209.69009	0.93650
1207.63629	0.93534
1205.58248	0.93419
1203.52868	0.93275
1201.47488	0.93119
1199.42107	0.92970
1197.36727	0.92793
1195.31347	0.92587
1193.25966	0.92371
1191.20586	0.92143
1189.15206	0.91887
1187.09825	0.91587
1185.04445	0.91277
1182.99065	0.90977
1180.93685	0.90647
1178.88304	0.90275
1176.82924	0.89891
1174.77544	0.89516
1172.72163	0.89151
1170.66783	0.88793
1168.61403	0.88452
1166.56022	0.88142
1164.50642	0.87876
1162.45262	0.87648
1160.39881	0.87444
1158.34501	0.87242
1156.29121	0.87012
1154.23740	0.86765
1152.18360	0.86534
1150.12980	0.86328
1148.07599	0.86133
1146.02219	0.85938
1143.96839	0.85721
1141.91458	0.85487
1139.86078	0.85259
1137.80698	0.85034
1135.75317	0.84783
1133.69937	0.84473
1131.64557	0.84121
1129.59176	0.83726
1127.53796	0.83244
1125.48416	0.82685
1123.43036	0.82086
1121.37655	0.81467
1119.32275	0.80840
1117.26895	0.80227
1115.21514	0.79667
1113.16134	0.79154
1111.10754	0.78695
1109.05373	0.78318
1106.99993	0.77987
1104.94613	0.77644
1102.89232	0.77296
1100.83852	0.77002
1098.78472	0.76772
1096.73091	0.76564
1094.67711	0.76406
1092.62331	0.76297
1090.56950	0.76140
1088.51570	0.75934
1086.46190	0.75761
1084.40809	0.75631
1082.35429	0.75539
1080.30049	0.75421
1078.24668	0.75220
1076.19288	0.75019
1074.13908	0.74848
1072.08528	0.74606
1070.03147	0.74254
1067.97767	0.73869
1065.92387	0.73497
1063.87006	0.73098
1061.81626	0.72636
1059.76246	0.72111
1057.70865	0.71518
1055.65485	0.70854
1053.60105	0.70130
1051.54724	0.69366
1049.49344	0.68599
1047.43964	0.67848
1045.38583	0.67087
1043.33203	0.66301
1041.27823	0.65543
1039.22442	0.64861
1037.17062	0.64244
1035.11682	0.63684
1033.06301	0.63254
1031.00921	0.63002
1028.95541	0.62872
1026.90160	0.62805
1024.84780	0.62804
1022.79400	0.62853
1020.74019	0.62900
1018.68639	0.62910
1016.63259	0.62871
1014.57879	0.62799
1012.52498	0.62719
1010.47118	0.62640
1008.41738	0.62592
1006.36357	0.62643
1004.30977	0.62837
1002.25597	0.63183
1000.20216	0.63687
998.14836	0.64329
996.09456	0.65066
994.04075	0.65890
991.98695	0.66767
989.93315	0.67640
987.87934	0.68539
985.82554	0.69470
983.77174	0.70394
981.71793	0.71335
979.66413	0.72300
977.61033	0.73223
975.55652	0.74072
973.50272	0.74871
971.44892	0.75642
969.39511	0.76416
967.34131	0.77195
965.28751	0.77926
963.23371	0.78569
961.17990	0.79113
959.12610	0.79598
957.07230	0.80055
955.01849	0.80458
952.96469	0.80821
950.91089	0.81152
948.85708	0.81432
946.80328	0.81675
944.74948	0.81876
942.69567	0.82032
940.64187	0.82169
938.58807	0.82299
936.53426	0.82445
934.48046	0.82620
932.42666	0.82785
930.37285	0.82904
928.31905	0.82955
926.26525	0.82957
924.21144	0.82903
922.15764	0.82733
920.10384	0.82453
918.05003	0.82093
915.99623	0.81693
913.94243	0.81376
911.88862	0.81253
909.83482	0.81406
907.78102	0.81887
905.72722	0.82631
903.67341	0.83472
901.61961	0.84287
899.56581	0.84991
897.51200	0.85568
895.45820	0.86071
893.40440	0.86521
891.35059	0.86897
889.29679	0.87172
887.24299	0.87352
885.18918	0.87500
883.13538	0.87674
881.08158	0.87816
879.02777	0.87904
876.97397	0.88010
874.92017	0.88155
872.86636	0.88368
870.81256	0.88670
868.75876	0.89019
866.70495	0.89322
864.65115	0.89555
862.59735	0.89769
860.54354	0.89949
858.48974	0.90117
856.43594	0.90336
854.38213	0.90559
852.32833	0.90725
850.27453	0.90819
848.22073	0.90878
846.16692	0.90936
844.11312	0.90974
842.05932	0.90976
840.00551	0.90962
837.95171	0.90939
835.89791	0.90886
833.84410	0.90812
831.79030	0.90755
829.73650	0.90697
827.68269	0.90635
825.62889	0.90573
823.57509	0.90479
821.52128	0.90437
819.46748	0.90477
817.41368	0.90413
815.35987	0.90258
813.30607	0.90178
811.25227	0.90133
809.19846	0.90042
807.14466	0.89867
805.09086	0.89550
803.03705	0.89160
800.98325	0.88835
798.92945	0.88634
796.87565	0.88595
794.82184	0.88638
792.76804	0.88599
790.71424	0.88517
788.66043	0.88496
786.60663	0.88488
784.55283	0.88493
782.49902	0.88522
780.44522	0.88504
778.39142	0.88461
776.33761	0.88473
774.28381	0.88502
772.23001	0.88449
770.17620	0.88315
768.12240	0.88158
766.06860	0.88010
764.01479	0.87811
761.96099	0.87549
759.90719	0.87388
757.85338	0.87354
755.79958	0.87273
753.74578	0.87091
751.69197	0.86881
749.63817	0.86691
747.58437	0.86591
745.53056	0.86616
743.47676	0.86669
741.42296	0.86653
739.36916	0.86583
737.31535	0.86367
735.26155	0.85504
733.20775	0.83411
731.15394	0.80869
729.10014	0.79840
727.04634	0.80322
724.99253	0.80258
722.93873	0.78421
720.88493	0.75118
718.83112	0.72061
716.77732	0.71281
714.72352	0.73232
712.66971	0.76544
710.61591	0.79333
708.56211	0.80908
706.50830	0.81601
704.45450	0.81772
702.40070	0.81708
700.34689	0.81632
698.29309	0.81522
696.23929	0.81340
694.18548	0.81211
692.13168	0.81202
690.07788	0.81257
688.02408	0.81311
685.97027	0.81348
683.91647	0.81425
681.86267	0.81531
679.80886	0.81606
677.75506	0.81651
675.70126	0.81689
673.64745	0.81686
671.59365	0.81539
669.53985	0.81372
667.48604	0.81635
665.43224	0.82123
663.37844	0.82440
661.32463	0.82619
659.27083	0.82669
657.21703	0.82623
655.16322	0.82521
653.10942	0.82439
651.05562	0.82473
649.00181	0.82542
646.94801	0.82613
644.89421	0.82749
642.84040	0.82848
640.78660	0.82818
638.73280	0.82711
636.67899	0.82559
634.62519	0.82467
632.57139	0.82562
630.51759	0.82681
628.46378	0.82666
626.40998	0.82617
624.35618	0.82618
622.30237	0.82641
620.24857	0.82560
618.19477	0.82235
616.14096	0.81791
614.08716	0.81523
612.03336	0.81470
609.97955	0.81479
607.92575	0.81327
605.87195	0.80970
603.81814	0.80661
601.76434	0.80522
599.71054	0.80483
597.65673	0.80440
595.60293	0.80305
593.54913	0.80052
591.49532	0.79766
589.44152	0.79572
587.38772	0.79445
585.33391	0.79326
583.28011	0.79147
581.22631	0.78914
579.17250	0.78683
577.11870	0.78433
575.06490	0.78214
573.01110	0.78039
570.95729	0.77840
568.90349	0.77552
566.84969	0.77189
564.79588	0.76832
562.74208	0.76453
560.68828	0.76047
558.63447	0.75679
556.58067	0.75334
554.52687	0.74974
552.47306	0.74596
550.41926	0.74141
548.36546	0.73583
546.31165	0.73001
544.25785	0.72336
542.20405	0.71632
540.15024	0.71050
538.09644	0.70556
536.04264	0.70170
533.98883	0.69975
531.93503	0.69954
529.88123	0.70129
527.82742	0.70367
525.77362	0.70585
523.71982	0.70923
521.66602	0.71271
519.61221	0.71491
517.55841	0.71714
515.50461	0.72107
513.45080	0.72604
511.39700	0.73011
509.34320	0.73373
507.28939	0.73734
505.23559	0.73960
503.18179	0.74154
501.12798	0.74354
499.07418	0.74404
497.02038	0.74397
494.96657	0.74411
492.91277	0.74316
490.85897	0.74005
488.80516	0.73656
486.75136	0.73394
484.69756	0.72960
482.64375	0.72157
480.58995	0.71109
478.53615	0.70031
476.48234	0.68988
474.42854	0.67834
472.37474	0.66641
470.32093	0.65736
468.26713	0.65149
466.21333	0.64865
464.15953	0.64837
462.10572	0.65161
460.05192	0.66010
457.99812	0.67067
455.94431	0.67809
453.89051	0.68181
451.83671	0.68391
449.78290	0.68573
447.72910	0.68956
445.67530	0.69474
443.62149	0.69619
441.56769	0.69338
439.51389	0.68988
437.46008	0.68648
435.40628	0.68231
433.35248	0.67911
431.29867	0.67797
429.24487	0.67833
427.19107	0.67962
425.13726	0.68071
423.08346	0.68478
421.02966	0.69313
418.97585	0.70258
416.92205	0.70822
414.86825	0.71030
412.81445	0.71385
410.76064	0.71988
408.70684	0.72525
406.65304	0.73007
404.59923	0.73844
402.54543	0.75150
400.49163	0.76455
398.43782	0.76898
