3996.70104	0.97722
3994.64724	0.97729
3992.59344	0.97741
3990.53964	0.97720
3988.48583	0.97689
3986.43203	0.97705
3984.37823	0.97749
3982.32442	0.97787
3980.27062	0.97805
3978.21682	0.97794
3976.16301	0.97761
3974.10921	0.97735
3972.05541	0.97750
3970.00160	0.97782
3967.94780	0.97809
3965.89400	0.97819
3963.84019	0.97781
3961.78639	0.97755
3959.73259	0.97790
3957.67878	0.97809
3955.62498	0.97782
3953.57118	0.97743
3951.51737	0.97728
3949.46357	0.97770
3947.40977	0.97838
3945.35596	0.97842
3943.30216	0.97782
3941.24836	0.97758
3939.19455	0.97770
3937.14075	0.97763
3935.08695	0.97776
3933.03315	0.97833
3930.97934	0.97885
3928.92554	0.97896
3926.87174	0.97844
3924.81793	0.97760
3922.76413	0.97717
3920.71033	0.97719
3918.65652	0.97728
3916.60272	0.97710
3914.54892	0.97701
3912.49511	0.97729
3910.44131	0.97763
3908.38751	0.97780
3906.33370	0.97773
3904.27990	0.97740
3902.22610	0.97737
3900.17229	0.97801
3898.11849	0.97813
3896.06469	0.97761
3894.01088	0.97733
3891.95708	0.97750
3889.90328	0.97764
3887.84947	0.97761
3885.79567	0.97803
3883.74187	0.97857
3881.68807	0.97851
3879.63426	0.97821
3877.58046	0.97789
3875.52666	0.97753
3873.47285	0.97728
3871.41905	0.97734
3869.36525	0.97782
3867.31144	0.97777
3865.25764	0.97733
3863.20384	0.97740
3861.15003	0.97751
3859.09623	0.97757
3857.04243	0.97746
3854.98862	0.97624
3852.93482	0.97510
3850.88102	0.97664
3848.82721	0.97818
3846.77341	0.97841
3844.71961	0.97762
3842.66580	0.97696
3840.61200	0.97678
3838.55820	0.97656
3836.50439	0.97704
3834.45059	0.97800
3832.39679	0.97842
3830.34298	0.97817
3828.28918	0.97783
3826.23538	0.97795
3824.18158	0.97868
3822.12777	0.97974
3820.07397	0.97960
3818.02017	0.97830
3815.96636	0.97787
3813.91256	0.97839
3811.85876	0.97850
3809.80495	0.97795
3807.75115	0.97758
3805.69735	0.97814
3803.64354	0.97885
3801.58974	0.97913
3799.53594	0.97871
3797.48213	0.97780
3795.42833	0.97702
3793.37453	0.97696
3791.32072	0.97752
3789.26692	0.97822
3787.21312	0.97863
3785.15931	0.97864
3783.10551	0.97856
3781.05171	0.97867
3778.99790	0.97895
3776.94410	0.97904
3774.89030	0.97851
3772.83650	0.97799
3770.78269	0.97804
3768.72889	0.97793
3766.67509	0.97767
3764.62128	0.97785
3762.56748	0.97809
3760.51368	0.97815
3758.45987	0.97845
3756.40607	0.97912
3754.35227	0.97970
3752.29846	0.98014
3750.24466	0.98044
3748.19086	0.98018
3746.13705	0.97962
3744.08325	0.97924
3742.02945	0.97869
3739.97564	0.97823
3737.92184	0.97857
3735.86804	0.97924
3733.81423	0.97907
3731.76043	0.97858
3729.70663	0.97857
3727.65282	0.97920
3725.59902	0.98020
3723.54522	0.98041
3721.49141	0.97945
3719.43761	0.97848
3717.38381	0.97806
3715.33001	0.97777
3713.27620	0.97726
3711.22240	0.97618
3709.16860	0.97505
3707.11479	0.97474
3705.06099	0.97499
3703.00719	0.97483
3700.95338	0.97367
3698.89958	0.97267
3696.84578	0.97276
3694.79197	0.97331
3692.73817	0.97363
3690.68437	0.97396
3688.63056	0.97459
3686.57676	0.97492
3684.52296	0.97465
3682.46915	0.97411
3680.41535	0.97347
3678.36155	0.97295
3676.30774	0.97334
3674.25394	0.97438
3672.20014	0.97455
3670.14633	0.97424
3668.09253	0.97428
3666.03873	0.97445
3663.98492	0.97402
3661.93112	0.97301
3659.87732	0.97246
3657.82352	0.97281
3655.76971	0.97311
3653.71591	0.97304
3651.66211	0.97233
3649.60830	0.97043
3647.55450	0.96965
3645.50070	0.97049
3643.44689	0.97105
3641.39309	0.97117
3639.33929	0.97123
3637.28548	0.97153
3635.23168	0.97157
3633.17788	0.97101
3631.12407	0.97066
3629.07027	0.97118
3627.01647	0.97141
3624.96266	0.97029
3622.90886	0.96901
3620.85506	0.96837
3618.80125	0.96871
3616.74745	0.96941
3614.69365	0.96905
3612.63984	0.96809
3610.58604	0.96772
3608.53224	0.96788
3606.47844	0.96809
3604.42463	0.96793
3602.37083	0.96750
3600.31703	0.96698
3598.26322	0.96652
3596.20942	0.96639
3594.15562	0.96670
3592.10181	0.96691
3590.04801	0.96662
3587.99421	0.96642
3585.94040	0.96679
3583.88660	0.96697
3581.83280	0.96685
3579.77899	0.96633
3577.72519	0.96537
3575.67139	0.96451
3573.61758	0.96381
3571.56378	0.96350
3569.50998	0.96369
3567.45617	0.96345
3565.40237	0.96239
3563.34857	0.96198
3561.29476	0.96228
3559.24096	0.96237
3557.18716	0.96187
3555.13335	0.96104
3553.07955	0.96020
3551.02575	0.95970
3548.97195	0.95944
3546.91814	0.95899
3544.86434	0.95857
3542.81054	0.95842
3540.75673	0.95805
3538.70293	0.95734
3536.64913	0.95705
3534.59532	0.95766
3532.54152	0.95832
3530.48772	0.95816
3528.43391	0.95795
3526.38011	0.95805
3524.32631	0.95781
3522.27250	0.95759
3520.21870	0.95771
3518.16490	0.95759
3516.11109	0.95707
3514.05729	0.95675
3512.00349	0.95686
3509.94968	0.95717
3507.89588	0.95730
3505.84208	0.95715
3503.78827	0.95713
3501.73447	0.95715
3499.68067	0.95725
3497.62687	0.95749
3495.57306	0.95731
3493.51926	0.95689
3491.46546	0.95676
3489.41165	0.95627
3487.35785	0.95529
3485.30405	0.95495
3483.25024	0.95527
3481.19644	0.95531
3479.14264	0.95498
3477.08883	0.95473
3475.03503	0.95492
3472.98123	0.95547
3470.92742	0.95568
3468.87362	0.95533
3466.81982	0.95499
3464.76601	0.95483
3462.71221	0.95427
3460.65841	0.95326
3458.60460	0.95284
3456.55080	0.95317
3454.49700	0.95312
3452.44319	0.95272
3450.38939	0.95280
3448.33559	0.95316
3446.28178	0.95311
3444.22798	0.95255
3442.17418	0.95221
3440.12038	0.95239
3438.06657	0.95234
3436.01277	0.95208
3433.95897	0.95231
3431.90516	0.95238
3429.85136	0.95171
3427.79756	0.95107
3425.74375	0.95059
3423.68995	0.95013
3421.63615	0.94999
3419.58234	0.94971
3417.52854	0.94899
3415.47474	0.94862
3413.42093	0.94888
3411.36713	0.94911
3409.31333	0.94903
3407.25952	0.94874
3405.20572	0.94838
3403.15192	0.94808
3401.09811	0.94783
3399.04431	0.94769
3396.99051	0.94779
3394.93670	0.94812
3392.88290	0.94806
3390.82910	0.94731
3388.77529	0.94672
3386.72149	0.94678
3384.66769	0.94728
3382.61389	0.94795
3380.56008	0.94841
3378.50628	0.94886
3376.45248	0.94937
3374.39867	0.94943
3372.34487	0.94914
3370.29107	0.94889
3368.23726	0.94885
3366.18346	0.94889
3364.12966	0.94879
3362.07585	0.94892
3360.02205	0.94957
3357.96825	0.95010
3355.91444	0.94999
3353.86064	0.94963
3351.80684	0.94981
3349.75303	0.95038
3347.69923	0.95053
3345.64543	0.95039
3343.59162	0.95039
3341.53782	0.95054
3339.48402	0.95081
3337.43021	0.95111
3335.37641	0.95127
3333.32261	0.95108
3331.26881	0.95091
3329.21500	0.95121
3327.16120	0.95142
3325.10740	0.95139
3323.05359	0.95166
3320.99979	0.95182
3318.94599	0.95145
3316.89218	0.95098
3314.83838	0.95070
3312.78458	0.95066
3310.73077	0.95087
3308.67697	0.95114
3306.62317	0.95158
3304.56936	0.95215
3302.51556	0.95240
3300.46176	0.95235
3298.40795	0.95215
3296.35415	0.95239
3294.30035	0.95319
3292.24654	0.95331
3290.19274	0.95247
3288.13894	0.95182
3286.08513	0.95173
3284.03133	0.95165
3281.97753	0.95183
3279.92372	0.95233
3277.86992	0.95248
3275.81612	0.95252
3273.76232	0.95284
3271.70851	0.95318
3269.65471	0.95332
3267.60091	0.95327
3265.54710	0.95318
3263.49330	0.95310
3261.43950	0.95318
3259.38569	0.95345
3257.33189	0.95372
3255.27809	0.95361
3253.22428	0.95309
3251.17048	0.95298
3249.11668	0.95363
3247.06287	0.95421
3245.00907	0.95421
3242.95527	0.95429
3240.90146	0.95476
3238.84766	0.95510
3236.79386	0.95495
3234.74005	0.95470
3232.68625	0.95487
3230.63245	0.95529
3228.57864	0.95559
3226.52484	0.95572
3224.47104	0.95579
3222.41724	0.95580
3220.36343	0.95580
3218.30963	0.95578
3216.25583	0.95551
3214.20202	0.95512
3212.14822	0.95501
3210.09442	0.95528
3208.04061	0.95560
3205.98681	0.95603
3203.93301	0.95686
3201.87920	0.95729
3199.82540	0.95696
3197.77160	0.95702
3195.71779	0.95740
3193.66399	0.95735
3191.61019	0.95745
3189.55638	0.95787
3187.50258	0.95787
3185.44878	0.95761
3183.39497	0.95759
3181.34117	0.95785
3179.28737	0.95798
3177.23356	0.95780
3175.17976	0.95784
3173.12596	0.95827
3171.07215	0.95859
3169.01835	0.95874
3166.96455	0.95887
3164.91075	0.95899
3162.85694	0.95919
3160.80314	0.95939
3158.74934	0.95945
3156.69553	0.95968
3154.64173	0.96023
3152.58793	0.96070
3150.53412	0.96103
3148.48032	0.96132
3146.42652	0.96126
3144.37271	0.96086
3142.31891	0.96071
3140.26511	0.96093
3138.21130	0.96137
3136.15750	0.96213
3134.10370	0.96240
3132.04989	0.96179
3129.99609	0.96134
3127.94229	0.96147
3125.88848	0.96171
3123.83468	0.96172
3121.78088	0.96179
3119.72707	0.96225
3117.67327	0.96289
3115.61947	0.96337
3113.56566	0.96373
3111.51186	0.96389
3109.45806	0.96385
3107.40426	0.96406
3105.35045	0.96425
3103.29665	0.96377
3101.24285	0.96319
3099.18904	0.96330
3097.13524	0.96376
3095.08144	0.96409
3093.02763	0.96447
3090.97383	0.96476
3088.92003	0.96477
3086.86622	0.96488
3084.81242	0.96509
3082.75862	0.96522
3080.70481	0.96532
3078.65101	0.96549
3076.59721	0.96557
3074.54340	0.96533
3072.48960	0.96520
3070.43580	0.96560
3068.38199	0.96592
3066.32819	0.96570
3064.27439	0.96551
3062.22058	0.96565
3060.16678	0.96606
3058.11298	0.96657
3056.05918	0.96656
3054.00537	0.96608
3051.95157	0.96605
3049.89777	0.96660
3047.84396	0.96696
3045.79016	0.96708
3043.73636	0.96718
3041.68255	0.96729
3039.62875	0.96754
3037.57495	0.96782
3035.52114	0.96794
3033.46734	0.96791
3031.41354	0.96798
3029.35973	0.96803
3027.30593	0.96808
3025.25213	0.96841
3023.19832	0.96856
3021.14452	0.96804
3019.09072	0.96741
3017.03691	0.96735
3014.98311	0.96753
3012.92931	0.96744
3010.87550	0.96733
3008.82170	0.96704
3006.76790	0.96661
3004.71409	0.96645
3002.66029	0.96614
3000.60649	0.96531
2998.55269	0.96416
2996.49888	0.96310
2994.44508	0.96228
2992.39128	0.96134
2990.33747	0.96005
2988.28367	0.95829
2986.22987	0.95590
2984.17606	0.95279
2982.12226	0.94940
2980.06846	0.94560
2978.01465	0.94026
2975.96085	0.93287
2973.90705	0.92323
2971.85324	0.91002
2969.79944	0.89229
2967.74564	0.87077
2965.69183	0.84634
2963.63803	0.82129
2961.58423	0.80124
2959.53042	0.79113
2957.47662	0.78843
2955.42282	0.78374
2953.36901	0.77105
2951.31521	0.75597
2949.26141	0.75111
2947.20761	0.76354
2945.15380	0.78892
2943.10000	0.81708
2941.04620	0.83960
2938.99239	0.85243
2936.93859	0.85513
2934.88479	0.84903
2932.83098	0.83571
2930.77718	0.81650
2928.72338	0.79403
2926.66957	0.77203
2924.61577	0.75225
2922.56197	0.73397
2920.50816	0.71744
2918.45436	0.70673
2916.40056	0.70774
2914.34675	0.72137
2912.29295	0.74043
2910.23915	0.75716
2908.18534	0.77000
2906.13154	0.78143
2904.07774	0.79363
2902.02393	0.80700
2899.97013	0.82044
2897.91633	0.83267
2895.86252	0.84296
2893.80872	0.85058
2891.75492	0.85480
2889.70112	0.85571
2887.64731	0.85448
2885.59351	0.85235
2883.53971	0.84920
2881.48590	0.84458
2879.43210	0.83983
2877.37830	0.83755
2875.32449	0.83831
2873.27069	0.83965
2871.21689	0.83877
2869.16308	0.83520
2867.10928	0.83242
2865.05548	0.83683
2863.00167	0.85146
2860.94787	0.87159
2858.89407	0.88989
2856.84026	0.90270
2854.78646	0.90987
2852.73266	0.91208
2850.67885	0.90994
2848.62505	0.90341
2846.57125	0.89184
2844.51744	0.87547
2842.46364	0.85692
2840.40984	0.84090
2838.35603	0.83290
2836.30223	0.83725
2834.24843	0.85342
2832.19463	0.87503
2830.14082	0.89478
2828.08702	0.90939
2826.03322	0.91910
2823.97941	0.92547
2821.92561	0.93041
2819.87181	0.93459
2817.81800	0.93760
2815.76420	0.93948
2813.71040	0.94084
2811.65659	0.94222
2809.60279	0.94390
2807.54899	0.94593
2805.49518	0.94794
2803.44138	0.94946
2801.38758	0.95037
2799.33377	0.95119
2797.27997	0.95221
2795.22617	0.95311
2793.17236	0.95401
2791.11856	0.95504
2789.06476	0.95602
2787.01095	0.95723
2784.95715	0.95847
2782.90335	0.95918
2780.84955	0.95952
2778.79574	0.95991
2776.74194	0.96029
2774.68814	0.96053
2772.63433	0.96093
2770.58053	0.96141
2768.52673	0.96161
2766.47292	0.96199
2764.41912	0.96252
2762.36532	0.96271
2760.31151	0.96300
2758.25771	0.96348
2756.20391	0.96379
2754.15010	0.96407
2752.09630	0.96429
2750.04250	0.96431
2747.98869	0.96416
2745.93489	0.96371
2743.88109	0.96324
2741.82728	0.96314
2739.77348	0.96326
2737.71968	0.96323
2735.66587	0.96292
2733.61207	0.96259
2731.55827	0.96233
2729.50446	0.96187
2727.45066	0.96110
2725.39686	0.96044
2723.34306	0.96016
2721.28925	0.95989
2719.23545	0.95990
2717.18165	0.96068
2715.12784	0.96167
2713.07404	0.96248
2711.02024	0.96321
2708.96643	0.96385
2706.91263	0.96437
2704.85883	0.96473
2702.80502	0.96506
2700.75122	0.96550
2698.69742	0.96559
2696.64361	0.96528
2694.58981	0.96533
2692.53601	0.96571
2690.48220	0.96580
2688.42840	0.96573
2686.37460	0.96583
2684.32079	0.96623
2682.26699	0.96663
2680.21319	0.96661
2678.15938	0.96639
2676.10558	0.96617
2674.05178	0.96595
2671.99797	0.96603
2669.94417	0.96649
2667.89037	0.96675
2665.83657	0.96639
2663.78276	0.96591
2661.72896	0.96591
2659.67516	0.96634
2657.62135	0.96656
2655.56755	0.96625
2653.51375	0.96626
2651.45994	0.96699
2649.40614	0.96757
2647.35234	0.96763
2645.29853	0.96751
2643.24473	0.96739
2641.19093	0.96727
2639.13712	0.96706
2637.08332	0.96675
2635.02952	0.96662
2632.97571	0.96683
2630.92191	0.96722
2628.86811	0.96739
2626.81430	0.96731
2624.76050	0.96755
2622.70670	0.96796
2620.65289	0.96792
2618.59909	0.96764
2616.54529	0.96757
2614.49149	0.96780
2612.43768	0.96817
2610.38388	0.96859
2608.33008	0.96877
2606.27627	0.96852
2604.22247	0.96846
2602.16867	0.96890
2600.11486	0.96934
2598.06106	0.96933
2596.00726	0.96914
2593.95345	0.96918
2591.89965	0.96931
2589.84585	0.96959
2587.79204	0.96993
2585.73824	0.96971
2583.68444	0.96923
2581.63063	0.96921
2579.57683	0.96919
2577.52303	0.96928
2575.46922	0.96992
2573.41542	0.97041
2571.36162	0.97063
2569.30781	0.97099
2567.25401	0.97125
2565.20021	0.97104
2563.14640	0.97081
2561.09260	0.97091
2559.03880	0.97110
2556.98500	0.97103
2554.93119	0.97082
2552.87739	0.97091
2550.82359	0.97127
2548.76978	0.97143
2546.71598	0.97164
2544.66218	0.97230
2542.60837	0.97258
2540.55457	0.97238
2538.50077	0.97240
2536.44696	0.97213
2534.39316	0.97135
2532.33936	0.97102
2530.28555	0.97140
2528.23175	0.97178
2526.17795	0.97176
2524.12414	0.97156
2522.07034	0.97158
2520.01654	0.97189
2517.96273	0.97217
2515.90893	0.97264
2513.85513	0.97337
2511.80132	0.97367
2509.74752	0.97354
2507.69372	0.97347
2505.63992	0.97351
2503.58611	0.97346
2501.53231	0.97334
2499.47851	0.97329
2497.42470	0.97343
2495.37090	0.97365
2493.31710	0.97362
2491.26329	0.97382
2489.20949	0.97439
2487.15569	0.97452
2485.10188	0.97412
2483.04808	0.97382
2480.99428	0.97370
2478.94047	0.97373
2476.88667	0.97415
2474.83287	0.97451
2472.77906	0.97445
2470.72526	0.97429
2468.67146	0.97422
2466.61765	0.97428
2464.56385	0.97437
2462.51005	0.97415
2460.45624	0.97378
2458.40244	0.97385
2456.34864	0.97411
2454.29483	0.97436
2452.24103	0.97425
2450.18723	0.97342
2448.13343	0.97294
2446.07962	0.97334
2444.02582	0.97417
2441.97202	0.97483
2439.91821	0.97480
2437.86441	0.97452
2435.81061	0.97434
2433.75680	0.97418
2431.70300	0.97393
2429.64920	0.97345
2427.59539	0.97339
2425.54159	0.97413
2423.48779	0.97508
2421.43398	0.97555
2419.38018	0.97533
2417.32638	0.97480
2415.27257	0.97456
2413.21877	0.97477
2411.16497	0.97489
2409.11116	0.97468
2407.05736	0.97472
2405.00356	0.97502
2402.94975	0.97505
2400.89595	0.97440
2398.84215	0.97371
2396.78834	0.97388
2394.73454	0.97435
2392.68074	0.97474
2390.62694	0.97492
2388.57313	0.97473
2386.51933	0.97468
2384.46553	0.97514
2382.41172	0.97577
2380.35792	0.97584
2378.30412	0.97520
2376.25031	0.97416
2374.19651	0.97319
2372.14271	0.97307
2370.08890	0.97329
2368.03510	0.97289
2365.98130	0.97275
2363.92749	0.97304
2361.87369	0.97320
2359.81989	0.97365
2357.76608	0.97399
2355.71228	0.97353
2353.65848	0.97287
2351.60467	0.97331
2349.55087	0.97429
2347.49707	0.97465
2345.44326	0.97417
2343.38946	0.97282
2341.33566	0.97209
2339.28186	0.97330
2337.22805	0.97468
2335.17425	0.97471
2333.12045	0.97409
2331.06664	0.97352
2329.01284	0.97322
2326.95904	0.97297
2324.90523	0.97225
2322.85143	0.97174
2320.79763	0.97237
2318.74382	0.97326
2316.69002	0.97340
2314.63622	0.97317
2312.58241	0.97317
2310.52861	0.97349
2308.47481	0.97388
2306.42100	0.97440
2304.36720	0.97517
2302.31340	0.97587
2300.25959	0.97621
2298.20579	0.97601
2296.15199	0.97520
2294.09818	0.97413
2292.04438	0.97368
2289.99058	0.97435
2287.93677	0.97484
2285.88297	0.97414
2283.82917	0.97350
2281.77537	0.97399
2279.72156	0.97483
2277.66776	0.97509
2275.61396	0.97501
2273.56015	0.97536
2271.50635	0.97593
2269.45255	0.97550
2267.39874	0.97463
2265.34494	0.97490
2263.29114	0.97634
2261.23733	0.97733
2259.18353	0.97655
2257.12973	0.97539
2255.07592	0.97542
2253.02212	0.97574
2250.96832	0.97567
2248.91451	0.97582
2246.86071	0.97613
2244.80691	0.97571
2242.75310	0.97528
2240.69930	0.97509
2238.64550	0.97405
2236.59169	0.97334
2234.53789	0.97344
2232.48409	0.97381
2230.43029	0.97487
2228.37648	0.97573
2226.32268	0.97589
2224.26888	0.97588
2222.21507	0.97602
2220.16127	0.97724
2218.10747	0.97840
2216.05366	0.97760
2213.99986	0.97614
2211.94606	0.97577
2209.89225	0.97647
2207.83845	0.97690
2205.78465	0.97722
2203.73084	0.97815
2201.67704	0.97807
2199.62324	0.97743
2197.56943	0.97877
2195.51563	0.98080
2193.46183	0.98029
2191.40802	0.97684
2189.35422	0.97272
2187.30042	0.97067
2185.24661	0.97116
2183.19281	0.97254
2181.13901	0.97326
2179.08520	0.97385
2177.03140	0.97501
2174.97760	0.97591
2172.92380	0.97730
2170.86999	0.97808
2168.81619	0.97728
2166.76239	0.97633
2164.70858	0.97512
2162.65478	0.97504
2160.60098	0.97684
2158.54717	0.97903
2156.49337	0.98084
2154.43957	0.98132
2152.38576	0.98022
2150.33196	0.97814
2148.27816	0.97739
2146.22435	0.97923
2144.17055	0.98047
2142.11675	0.97911
2140.06294	0.97726
2138.00914	0.97759
2135.95534	0.98015
2133.90153	0.98182
2131.84773	0.98126
2129.79393	0.98012
2127.74012	0.97919
2125.68632	0.97853
2123.63252	0.97836
2121.57871	0.97851
2119.52491	0.97860
2117.47111	0.97827
2115.41731	0.97803
2113.36350	0.97842
2111.30970	0.97886
2109.25590	0.97896
2107.20209	0.97841
2105.14829	0.97791
2103.09449	0.97856
2101.04068	0.97934
2098.98688	0.97924
2096.93308	0.97853
2094.87927	0.97803
2092.82547	0.97822
2090.77167	0.97883
2088.71786	0.97955
2086.66406	0.97919
2084.61026	0.97773
2082.55645	0.97736
2080.50265	0.97769
2078.44885	0.97720
2076.39504	0.97700
2074.34124	0.97761
2072.28744	0.97799
2070.23363	0.97748
2068.17983	0.97676
2066.12603	0.97702
2064.07223	0.97852
2062.01842	0.98002
2059.96462	0.97968
2057.91082	0.97863
2055.85701	0.97891
2053.80321	0.97912
2051.74941	0.97773
2049.69560	0.97685
2047.64180	0.97793
2045.58800	0.97861
2043.53419	0.97771
2041.48039	0.97796
2039.42659	0.98122
2037.37278	0.98354
2035.31898	0.98213
2033.26518	0.98062
2031.21137	0.98108
2029.15757	0.98129
2027.10377	0.98115
2025.04996	0.98191
2022.99616	0.98239
2020.94236	0.98254
2018.88855	0.98288
2016.83475	0.98238
2014.78095	0.98072
2012.72714	0.97895
2010.67334	0.97769
2008.61954	0.97644
2006.56574	0.97631
2004.51193	0.97850
2002.45813	0.98146
2000.40433	0.98328
1998.35052	0.98168
1996.29672	0.97765
1994.24292	0.97603
1992.18911	0.97770
1990.13531	0.97990
1988.08151	0.98039
1986.02770	0.97937
1983.97390	0.97934
1981.92010	0.97994
1979.86629	0.97845
1977.81249	0.97608
1975.75869	0.97593
1973.70488	0.97822
1971.65108	0.98052
1969.59728	0.98019
1967.54347	0.97945
1965.48967	0.98055
1963.43587	0.97959
1961.38206	0.97664
1959.32826	0.97657
1957.27446	0.97852
1955.22066	0.97906
1953.16685	0.97923
1951.11305	0.98045
1949.05925	0.98136
1947.00544	0.98092
1944.95164	0.98009
1942.89784	0.97945
1940.84403	0.97862
1938.79023	0.97880
1936.73643	0.97998
1934.68262	0.98013
1932.62882	0.97946
1930.57502	0.97884
1928.52121	0.97873
1926.46741	0.97953
1924.41361	0.97983
1922.35980	0.97965
1920.30600	0.97998
1918.25220	0.98042
1916.19839	0.98069
1914.14459	0.98023
1912.09079	0.97890
1910.03698	0.97758
1907.98318	0.97768
1905.92938	0.97900
1903.87557	0.97949
1901.82177	0.97918
1899.76797	0.97884
1897.71417	0.97794
1895.66036	0.97706
1893.60656	0.97729
1891.55276	0.97752
1889.49895	0.97712
1887.44515	0.97734
1885.39135	0.97796
1883.33754	0.97841
1881.28374	0.97883
1879.22994	0.97917
1877.17613	0.97919
1875.12233	0.97868
1873.06853	0.97845
1871.01472	0.97871
1868.96092	0.97825
1866.90712	0.97721
1864.85331	0.97717
1862.79951	0.97807
1860.74571	0.97848
1858.69190	0.97793
1856.63810	0.97757
1854.58430	0.97806
1852.53049	0.97906
1850.47669	0.97964
1848.42289	0.97903
1846.36908	0.97797
1844.31528	0.97801
1842.26148	0.97859
1840.20768	0.97836
1838.15387	0.97762
1836.10007	0.97710
1834.04627	0.97710
1831.99246	0.97750
1829.93866	0.97808
1827.88486	0.97827
1825.83105	0.97791
1823.77725	0.97739
1821.72345	0.97715
1819.66964	0.97728
1817.61584	0.97746
1815.56204	0.97734
1813.50823	0.97718
1811.45443	0.97699
1809.40063	0.97634
1807.34682	0.97553
1805.29302	0.97494
1803.23922	0.97453
1801.18541	0.97406
1799.13161	0.97321
1797.07781	0.97214
1795.02400	0.97130
1792.97020	0.97061
1790.91640	0.96977
1788.86260	0.96897
1786.80879	0.96795
1784.75499	0.96667
1782.70119	0.96564
1780.64738	0.96481
1778.59358	0.96362
1776.53978	0.96220
1774.48597	0.96141
1772.43217	0.96144
1770.37837	0.96102
1768.32456	0.95985
1766.27076	0.95893
1764.21696	0.95855
1762.16315	0.95811
1760.10935	0.95732
1758.05555	0.95690
1756.00174	0.95699
1753.94794	0.95694
1751.89414	0.95623
1749.84033	0.95507
1747.78653	0.95415
1745.73273	0.95329
1743.67892	0.95228
1741.62512	0.95137
1739.57132	0.95066
1737.51751	0.95022
1735.46371	0.94974
1733.40991	0.94888
1731.35611	0.94837
1729.30230	0.94811
1727.24850	0.94759
1725.19470	0.94694
1723.14089	0.94617
1721.08709	0.94532
1719.03329	0.94457
1716.97948	0.94424
1714.92568	0.94408
1712.87188	0.94367
1710.81807	0.94350
1708.76427	0.94373
1706.71047	0.94429
1704.65666	0.94528
1702.60286	0.94660
1700.54906	0.94799
1698.49525	0.94889
1696.44145	0.94938
1694.38765	0.94978
1692.33384	0.95003
1690.28004	0.95026
1688.22624	0.95058
1686.17243	0.95098
1684.11863	0.95094
1682.06483	0.95028
1680.01103	0.94990
1677.95722	0.94982
1675.90342	0.94996
1673.84962	0.95015
1671.79581	0.95014
1669.74201	0.94972
1667.68821	0.94906
1665.63440	0.94865
1663.58060	0.94804
1661.52680	0.94705
1659.47299	0.94653
1657.41919	0.94639
1655.36539	0.94617
1653.31158	0.94548
1651.25778	0.94492
1649.20398	0.94484
1647.15017	0.94467
1645.09637	0.94475
1643.04257	0.94512
1640.98876	0.94526
1638.93496	0.94503
1636.88116	0.94467
1634.82735	0.94461
1632.77355	0.94497
1630.71975	0.94521
1628.66594	0.94475
1626.61214	0.94401
1624.55834	0.94393
1622.50454	0.94449
1620.45073	0.94519
1618.39693	0.94566
1616.34313	0.94624
1614.28932	0.94745
1612.23552	0.94860
1610.18172	0.94930
1608.12791	0.94972
1606.07411	0.95007
1604.02031	0.95037
1601.96650	0.95061
1599.91270	0.95095
1597.85890	0.95150
1595.80509	0.95203
1593.75129	0.95247
1591.69749	0.95274
1589.64368	0.95302
1587.58988	0.95345
1585.53608	0.95369
1583.48227	0.95370
1581.42847	0.95394
1579.37467	0.95462
1577.32086	0.95536
1575.26706	0.95561
1573.21326	0.95551
1571.15945	0.95540
1569.10565	0.95569
1567.05185	0.95648
1564.99805	0.95717
1562.94424	0.95750
1560.89044	0.95735
1558.83664	0.95662
1556.78283	0.95669
1554.72903	0.95745
1552.67523	0.95806
1550.62142	0.95834
1548.56762	0.95866
1546.51382	0.95920
1544.46001	0.95980
1542.40621	0.96015
1540.35241	0.95977
1538.29860	0.95971
1536.24480	0.96015
1534.19100	0.96023
1532.13719	0.96008
1530.08339	0.96020
1528.02959	0.96034
1525.97578	0.96031
1523.92198	0.96020
1521.86818	0.95998
1519.81437	0.95995
1517.76057	0.96033
1515.70677	0.96093
1513.65297	0.96129
1511.59916	0.96133
1509.54536	0.96135
1507.49156	0.96117
1505.43775	0.96077
1503.38395	0.96077
1501.33015	0.96069
1499.27634	0.96027
1497.22254	0.95963
1495.16874	0.95911
1493.11493	0.95866
1491.06113	0.95779
1489.00733	0.95641
1486.95352	0.95492
1484.89972	0.95356
1482.84592	0.95200
1480.79211	0.94962
1478.73831	0.94646
1476.68451	0.94232
1474.63070	0.93583
1472.57690	0.92393
1470.52310	0.90895
1468.46929	0.89483
1466.41549	0.87766
1464.36169	0.85692
1462.30788	0.84234
1460.25408	0.83526
1458.20028	0.82946
1456.14648	0.82319
1454.09267	0.82031
1452.03887	0.82001
1449.98507	0.82383
1447.93126	0.83653
1445.87746	0.85632
1443.82366	0.87477
1441.76985	0.88827
1439.71605	0.89554
1437.66225	0.89745
1435.60844	0.89883
1433.55464	0.90532
1431.50084	0.91484
1429.44703	0.92327
1427.39323	0.92790
1425.33943	0.93008
1423.28562	0.93149
1421.23182	0.93242
1419.17802	0.93298
1417.12421	0.93349
1415.07041	0.93397
1413.01661	0.93430
1410.96280	0.93466
1408.90900	0.93508
1406.85520	0.93554
1404.80139	0.93609
1402.74759	0.93669
1400.69379	0.93703
1398.63999	0.93739
1396.58618	0.93793
1394.53238	0.93789
1392.47858	0.93672
1390.42477	0.93436
1388.37097	0.93003
1386.31717	0.92186
1384.26336	0.90806
1382.20956	0.88443
1380.15576	0.84452
1378.10195	0.79313
1376.04815	0.75815
1373.99435	0.76950
1371.94054	0.81471
1369.88674	0.85774
1367.83294	0.88679
1365.77913	0.90101
1363.72533	0.90469
1361.67153	0.90194
1359.61772	0.89854
1357.56392	0.90020
1355.51012	0.90788
1353.45631	0.91784
1351.40251	0.92596
1349.34871	0.93133
1347.29491	0.93485
1345.24110	0.93751
1343.18730	0.93965
1341.13350	0.94122
1339.07969	0.94212
1337.02589	0.94239
1334.97209	0.94204
1332.91828	0.94111
1330.86448	0.94016
1328.81068	0.93984
1326.75687	0.94022
1324.70307	0.94123
1322.64927	0.94247
1320.59546	0.94339
1318.54166	0.94376
1316.48786	0.94392
1314.43405	0.94421
1312.38025	0.94429
1310.32645	0.94342
1308.27264	0.94088
1306.21884	0.93721
1304.16504	0.93504
1302.11123	0.93574
1300.05743	0.93731
1298.00363	0.93811
1295.94982	0.93847
1293.89602	0.93897
1291.84222	0.93977
1289.78842	0.94079
1287.73461	0.94179
1285.68081	0.94240
1283.62701	0.94256
1281.57320	0.94247
1279.51940	0.94234
1277.46560	0.94210
1275.41179	0.94169
1273.35799	0.94137
1271.30419	0.94096
1269.25038	0.94003
1267.19658	0.93898
1265.14278	0.93826
1263.08897	0.93730
1261.03517	0.93549
1258.98137	0.93282
1256.92756	0.93015
1254.87376	0.92904
1252.81996	0.93009
1250.76615	0.93199
1248.71235	0.93333
1246.65855	0.93384
1244.60474	0.93374
1242.55094	0.93333
1240.49714	0.93275
1238.44334	0.93224
1236.38953	0.93199
1234.33573	0.93182
1232.28193	0.93157
1230.22812	0.93125
1228.17432	0.93058
1226.12052	0.92965
1224.06671	0.92870
1222.01291	0.92778
1219.95911	0.92705
1217.90530	0.92662
1215.85150	0.92656
1213.79770	0.92689
1211.74389	0.92744
1209.69009	0.92776
1207.63629	0.92760
1205.58248	0.92711
1203.52868	0.92656
1201.47488	0.92641
1199.42107	0.92652
1197.36727	0.92615
1195.31347	0.92537
1193.25966	0.92452
1191.20586	0.92322
1189.15206	0.92161
1187.09825	0.92034
1185.04445	0.91927
1182.99065	0.91778
1180.93685	0.91565
1178.88304	0.91284
1176.82924	0.90910
1174.77544	0.90344
1172.72163	0.89443
1170.66783	0.88251
1168.61403	0.87216
1166.56022	0.86868
1164.50642	0.87212
1162.45262	0.87802
1160.39881	0.88294
1158.34501	0.88577
1156.29121	0.88683
1154.23740	0.88704
1152.18360	0.88737
1150.12980	0.88854
1148.07599	0.89012
1146.02219	0.89152
1143.96839	0.89276
1141.91458	0.89370
1139.86078	0.89448
1137.80698	0.89513
1135.75317	0.89523
1133.69937	0.89481
1131.64557	0.89412
1129.59176	0.89325
1127.53796	0.89231
1125.48416	0.89124
1123.43036	0.88981
1121.37655	0.88800
1119.32275	0.88611
1117.26895	0.88448
1115.21514	0.88307
1113.16134	0.88164
1111.10754	0.88032
1109.05373	0.87880
1106.99993	0.87654
1104.94613	0.87406
1102.89232	0.87225
1100.83852	0.87193
1098.78472	0.87311
1096.73091	0.87441
1094.67711	0.87495
1092.62331	0.87518
1090.56950	0.87563
1088.51570	0.87619
1086.46190	0.87634
1084.40809	0.87604
1082.35429	0.87585
1080.30049	0.87603
1078.24668	0.87620
1076.19288	0.87619
1074.13908	0.87598
1072.08528	0.87543
1070.03147	0.87493
1067.97767	0.87472
1065.92387	0.87412
1063.87006	0.87293
1061.81626	0.87148
1059.76246	0.86999
1057.70865	0.86847
1055.65485	0.86631
1053.60105	0.86367
1051.54724	0.86135
1049.49344	0.85870
1047.43964	0.85501
1045.38583	0.85165
1043.33203	0.85023
1041.27823	0.85010
1039.22442	0.84978
1037.17062	0.84912
1035.11682	0.84902
1033.06301	0.84980
1031.00921	0.85077
1028.95541	0.85170
1026.90160	0.85301
1024.84780	0.85481
1022.79400	0.85679
1020.74019	0.85825
1018.68639	0.85888
1016.63259	0.85911
1014.57879	0.85944
1012.52498	0.85989
1010.47118	0.85999
1008.41738	0.85973
1006.36357	0.85884
1004.30977	0.85565
1002.25597	0.84803
1000.20216	0.83668
998.14836	0.82912
996.09456	0.83379
994.04075	0.84816
991.98695	0.86265
989.93315	0.87293
987.87934	0.88007
985.82554	0.88498
983.77174	0.88762
981.71793	0.88816
979.66413	0.88590
977.61033	0.87912
975.55652	0.86814
973.50272	0.85904
971.44892	0.86103
969.39511	0.87444
967.34131	0.88949
965.28751	0.89953
963.23371	0.90513
961.17990	0.90874
959.12610	0.91173
957.07230	0.91404
955.01849	0.91539
952.96469	0.91619
950.91089	0.91680
948.85708	0.91733
946.80328	0.91762
944.74948	0.91718
942.69567	0.91631
940.64187	0.91610
938.58807	0.91702
936.53426	0.91887
934.48046	0.92101
932.42666	0.92248
930.37285	0.92329
928.31905	0.92415
926.26525	0.92507
924.21144	0.92549
922.15764	0.92531
920.10384	0.92477
918.05003	0.92402
915.99623	0.92370
913.94243	0.92371
911.88862	0.92364
909.83482	0.92376
907.78102	0.92433
905.72722	0.92445
903.67341	0.92216
901.61961	0.91800
899.56581	0.91581
897.51200	0.91805
895.45820	0.92330
893.40440	0.92850
891.35059	0.93196
889.29679	0.93394
887.24299	0.93533
885.18918	0.93644
883.13538	0.93694
881.08158	0.93688
879.02777	0.93650
876.97397	0.93574
874.92017	0.93467
872.86636	0.93378
870.81256	0.93418
868.75876	0.93616
866.70495	0.93834
864.65115	0.93949
862.59735	0.93970
860.54354	0.93985
858.48974	0.94045
856.43594	0.94111
854.38213	0.94103
852.32833	0.94027
850.27453	0.93916
848.22073	0.93640
846.16692	0.92956
844.11312	0.91549
842.05932	0.89841
840.00551	0.89483
837.95171	0.90912
835.89791	0.92499
833.84410	0.93272
831.79030	0.93584
829.73650	0.93765
827.68269	0.93819
825.62889	0.93814
823.57509	0.93849
821.52128	0.93862
819.46748	0.93820
817.41368	0.93706
815.35987	0.93426
813.30607	0.92929
811.25227	0.92322
809.19846	0.91899
807.14466	0.91953
805.09086	0.92383
803.03705	0.92802
800.98325	0.93076
798.92945	0.93296
796.87565	0.93464
794.82184	0.93539
792.76804	0.93562
790.71424	0.93586
788.66043	0.93657
786.60663	0.93742
784.55283	0.93757
782.49902	0.93727
780.44522	0.93721
778.39142	0.93761
776.33761	0.93817
774.28381	0.93823
772.23001	0.93799
770.17620	0.93814
768.12240	0.93823
766.06860	0.93768
764.01479	0.93721
761.96099	0.93729
759.90719	0.93744
757.85338	0.93742
755.79958	0.93701
753.74578	0.93637
751.69197	0.93640
749.63817	0.93743
747.58437	0.93858
745.53056	0.93899
743.47676	0.93874
741.42296	0.93785
739.36916	0.93695
737.31535	0.93682
735.26155	0.93729
733.20775	0.93808
731.15394	0.93858
729.10014	0.93843
727.04634	0.93811
724.99253	0.93754
722.93873	0.93669
720.88493	0.93623
718.83112	0.93640
716.77732	0.93655
714.72352	0.93628
712.66971	0.93572
710.61591	0.93485
708.56211	0.93394
706.50830	0.93332
704.45450	0.93259
702.40070	0.93113
700.34689	0.92899
698.29309	0.92788
696.23929	0.92798
694.18548	0.92740
692.13168	0.92648
690.07788	0.92668
688.02408	0.92761
685.97027	0.92840
683.91647	0.92915
681.86267	0.92908
679.80886	0.92742
677.75506	0.92584
675.70126	0.92525
673.64745	0.92479
671.59365	0.92426
669.53985	0.92359
667.48604	0.92298
665.43224	0.92344
663.37844	0.92427
661.32463	0.92522
659.27083	0.92652
657.21703	0.92721
655.16322	0.92640
653.10942	0.92450
651.05562	0.92294
649.00181	0.92245
646.94801	0.92196
644.89421	0.92124
642.84040	0.92141
640.78660	0.92241
638.73280	0.92234
636.67899	0.92052
634.62519	0.91878
632.57139	0.91862
630.51759	0.91939
628.46378	0.91928
626.40998	0.91805
624.35618	0.91747
622.30237	0.91825
620.24857	0.91865
618.19477	0.91751
616.14096	0.91585
614.08716	0.91470
612.03336	0.91405
609.97955	0.91341
607.92575	0.91272
605.87195	0.91178
603.81814	0.91041
601.76434	0.90977
599.71054	0.91067
597.65673	0.91152
595.60293	0.91130
593.54913	0.91088
591.49532	0.91039
589.44152	0.90966
587.38772	0.90934
585.33391	0.90905
583.28011	0.90775
581.22631	0.90587
579.17250	0.90483
577.11870	0.90600
575.06490	0.90774
573.01110	0.90713
570.95729	0.90560
568.90349	0.90467
566.84969	0.90366
564.79588	0.90213
562.74208	0.90102
560.68828	0.90057
558.63447	0.89952
556.58067	0.89889
554.52687	0.89933
552.47306	0.89876
550.41926	0.89668
548.36546	0.89519
546.31165	0.89423
544.25785	0.89231
542.20405	0.89026
540.15024	0.88850
538.09644	0.88698
536.04264	0.88621
533.98883	0.88631
531.93503	0.88692
529.88123	0.88748
527.82742	0.88790
525.77362	0.88778
523.71982	0.88750
521.66602	0.88859
519.61221	0.89084
517.55841	0.89282
515.50461	0.89362
513.45080	0.89394
511.39700	0.89540
509.34320	0.89803
507.28939	0.89998
505.23559	0.90044
503.18179	0.90047
501.12798	0.90052
499.07418	0.90006
497.02038	0.89891
494.96657	0.89694
492.91277	0.89443
490.85897	0.89147
488.80516	0.88956
486.75136	0.89098
484.69756	0.89226
482.64375	0.88927
480.58995	0.88437
478.53615	0.87946
476.48234	0.87486
474.42854	0.87185
472.37474	0.87093
470.32093	0.87038
468.26713	0.86873
466.21333	0.86607
464.15953	0.86320
462.10572	0.86183
460.05192	0.86326
457.99812	0.86645
455.94431	0.86915
453.89051	0.87192
451.83671	0.87620
449.78290	0.88019
447.72910	0.88185
445.67530	0.88380
443.62149	0.88841
441.56769	0.89105
439.51389	0.88882
437.46008	0.88589
435.40628	0.88469
433.35248	0.88347
431.29867	0.88177
429.24487	0.88304
427.19107	0.88588
425.13726	0.88465
423.08346	0.88132
421.02966	0.88283
418.97585	0.89486
416.92205	0.90338
414.86825	0.89987
412.81445	0.89869
410.76064	0.90406
408.70684	0.90746
406.65304	0.90505
404.59923	0.90526
402.54543	0.91145
400.49163	0.91440
398.43782	0.90899
