3996.70104	0.99045
3994.64724	0.99083
3992.59344	0.99134
3990.53964	0.99126
3988.48583	0.99139
3986.43203	0.99189
3984.37823	0.99177
3982.32442	0.99129
3980.27062	0.99138
3978.21682	0.99152
3976.16301	0.99118
3974.10921	0.99110
3972.05541	0.99107
3970.00160	0.99071
3967.94780	0.99084
3965.89400	0.99118
3963.84019	0.99078
3961.78639	0.99040
3959.73259	0.99084
3957.67878	0.99133
3955.62498	0.99146
3953.57118	0.99152
3951.51737	0.99129
3949.46357	0.99102
3947.40977	0.99107
3945.35596	0.99115
3943.30216	0.99135
3941.24836	0.99135
3939.19455	0.99115
3937.14075	0.99149
3935.08695	0.99209
3933.03315	0.99204
3930.97934	0.99168
3928.92554	0.99180
3926.87174	0.99221
3924.81793	0.99247
3922.76413	0.99195
3920.71033	0.99108
3918.65652	0.99070
3916.60272	0.99078
3914.54892	0.99100
3912.49511	0.99085
3910.44131	0.99024
3908.38751	0.99008
3906.33370	0.99052
3904.27990	0.99091
3902.22610	0.99151
3900.17229	0.99219
3898.11849	0.99188
3896.06469	0.99068
3894.01088	0.98976
3891.95708	0.98990
3889.90328	0.99040
3887.84947	0.99049
3885.79567	0.99070
3883.74187	0.99116
3881.68807	0.99164
3879.63426	0.99197
3877.58046	0.99181
3875.52666	0.99149
3873.47285	0.99121
3871.41905	0.99083
3869.36525	0.99065
3867.31144	0.99088
3865.25764	0.99115
3863.20384	0.99137
3861.15003	0.99142
3859.09623	0.99138
3857.04243	0.99153
3854.98862	0.99136
3852.93482	0.99048
3850.88102	0.99048
3848.82721	0.99080
3846.77341	0.99093
3844.71961	0.99104
3842.66580	0.99103
3840.61200	0.99139
3838.55820	0.99198
3836.50439	0.99186
3834.45059	0.99176
3832.39679	0.99188
3830.34298	0.99181
3828.28918	0.99178
3826.23538	0.99177
3824.18158	0.99161
3822.12777	0.99139
3820.07397	0.99124
3818.02017	0.99119
3815.96636	0.99152
3813.91256	0.99227
3811.85876	0.99252
3809.80495	0.99207
3807.75115	0.99133
3805.69735	0.99103
3803.64354	0.99102
3801.58974	0.99066
3799.53594	0.99021
3797.48213	0.98986
3795.42833	0.98984
3793.37453	0.99030
3791.32072	0.99074
3789.26692	0.99092
3787.21312	0.99090
3785.15931	0.99087
3783.10551	0.99116
3781.05171	0.99153
3778.99790	0.99114
3776.94410	0.99042
3774.89030	0.99041
3772.83650	0.99080
3770.78269	0.99108
3768.72889	0.99084
3766.67509	0.98992
3764.62128	0.98973
3762.56748	0.99089
3760.51368	0.99165
3758.45987	0.99117
3756.40607	0.99066
3754.35227	0.99059
3752.29846	0.99102
3750.24466	0.99227
3748.19086	0.99291
3746.13705	0.99233
3744.08325	0.99138
3742.02945	0.99058
3739.97564	0.99012
3737.92184	0.98993
3735.86804	0.98948
3733.81423	0.98898
3731.76043	0.98942
3729.70663	0.99006
3727.65282	0.98968
3725.59902	0.98861
3723.54522	0.98849
3721.49141	0.98918
3719.43761	0.98872
3717.38381	0.98630
3715.33001	0.98336
3713.27620	0.98090
3711.22240	0.97745
3709.16860	0.97295
3707.11479	0.96930
3705.06099	0.96619
3703.00719	0.96245
3700.95338	0.95772
3698.89958	0.95433
3696.84578	0.95354
3694.79197	0.95457
3692.73817	0.95640
3690.68437	0.95861
3688.63056	0.96134
3686.57676	0.96418
3684.52296	0.96656
3682.46915	0.96807
3680.41535	0.96858
3678.36155	0.96861
3676.30774	0.96784
3674.25394	0.96622
3672.20014	0.96575
3670.14633	0.96603
3668.09253	0.96577
3666.03873	0.96510
3663.98492	0.96417
3661.93112	0.96308
3659.87732	0.96194
3657.82352	0.96077
3655.76971	0.95991
3653.71591	0.95971
3651.66211	0.95975
3649.60830	0.95939
3647.55450	0.95867
3645.50070	0.95812
3643.44689	0.95809
3641.39309	0.95817
3639.33929	0.95750
3637.28548	0.95657
3635.23168	0.95611
3633.17788	0.95536
3631.12407	0.95346
3629.07027	0.95062
3627.01647	0.94876
3624.96266	0.94803
3622.90886	0.94735
3620.85506	0.94706
3618.80125	0.94768
3616.74745	0.94936
3614.69365	0.95126
3612.63984	0.95186
3610.58604	0.95146
3608.53224	0.95164
3606.47844	0.95253
3604.42463	0.95358
3602.37083	0.95416
3600.31703	0.95414
3598.26322	0.95407
3596.20942	0.95373
3594.15562	0.95290
3592.10181	0.95253
3590.04801	0.95269
3587.99421	0.95229
3585.94040	0.95148
3583.88660	0.95181
3581.83280	0.95254
3579.77899	0.95236
3577.72519	0.95167
3575.67139	0.95133
3573.61758	0.95097
3571.56378	0.95052
3569.50998	0.95077
3567.45617	0.95138
3565.40237	0.95103
3563.34857	0.94980
3561.29476	0.94842
3559.24096	0.94743
3557.18716	0.94688
3555.13335	0.94644
3553.07955	0.94589
3551.02575	0.94546
3548.97195	0.94571
3546.91814	0.94573
3544.86434	0.94465
3542.81054	0.94408
3540.75673	0.94463
3538.70293	0.94475
3536.64913	0.94397
3534.59532	0.94333
3532.54152	0.94334
3530.48772	0.94367
3528.43391	0.94386
3526.38011	0.94380
3524.32631	0.94357
3522.27250	0.94350
3520.21870	0.94366
3518.16490	0.94401
3516.11109	0.94466
3514.05729	0.94529
3512.00349	0.94559
3509.94968	0.94557
3507.89588	0.94539
3505.84208	0.94550
3503.78827	0.94594
3501.73447	0.94609
3499.68067	0.94586
3497.62687	0.94551
3495.57306	0.94522
3493.51926	0.94534
3491.46546	0.94572
3489.41165	0.94583
3487.35785	0.94561
3485.30405	0.94522
3483.25024	0.94487
3481.19644	0.94455
3479.14264	0.94385
3477.08883	0.94346
3475.03503	0.94393
3472.98123	0.94416
3470.92742	0.94370
3468.87362	0.94343
3466.81982	0.94348
3464.76601	0.94316
3462.71221	0.94233
3460.65841	0.94175
3458.60460	0.94168
3456.55080	0.94172
3454.49700	0.94172
3452.44319	0.94157
3450.38939	0.94109
3448.33559	0.94040
3446.28178	0.94022
3444.22798	0.94063
3442.17418	0.94062
3440.12038	0.94011
3438.06657	0.93969
3436.01277	0.93947
3433.95897	0.93908
3431.90516	0.93835
3429.85136	0.93794
3427.79756	0.93800
3425.74375	0.93778
3423.68995	0.93681
3421.63615	0.93564
3419.58234	0.93504
3417.52854	0.93474
3415.47474	0.93422
3413.42093	0.93377
3411.36713	0.93367
3409.31333	0.93354
3407.25952	0.93311
3405.20572	0.93266
3403.15192	0.93226
3401.09811	0.93193
3399.04431	0.93190
3396.99051	0.93186
3394.93670	0.93169
3392.88290	0.93176
3390.82910	0.93196
3388.77529	0.93232
3386.72149	0.93312
3384.66769	0.93377
3382.61389	0.93363
3380.56008	0.93348
3378.50628	0.93379
3376.45248	0.93415
3374.39867	0.93459
3372.34487	0.93519
3370.29107	0.93565
3368.23726	0.93571
3366.18346	0.93539
3364.12966	0.93524
3362.07585	0.93556
3360.02205	0.93562
3357.96825	0.93533
3355.91444	0.93557
3353.86064	0.93609
3351.80684	0.93623
3349.75303	0.93609
3347.69923	0.93622
3345.64543	0.93701
3343.59162	0.93767
3341.53782	0.93755
3339.48402	0.93717
3337.43021	0.93715
3335.37641	0.93768
3333.32261	0.93842
3331.26881	0.93896
3329.21500	0.93936
3327.16120	0.93949
3325.10740	0.93896
3323.05359	0.93814
3320.99979	0.93786
3318.94599	0.93807
3316.89218	0.93824
3314.83838	0.93841
3312.78458	0.93875
3310.73077	0.93907
3308.67697	0.93902
3306.62317	0.93902
3304.56936	0.93933
3302.51556	0.93950
3300.46176	0.93962
3298.40795	0.93998
3296.35415	0.94027
3294.30035	0.94049
3292.24654	0.94103
3290.19274	0.94160
3288.13894	0.94192
3286.08513	0.94225
3284.03133	0.94240
3281.97753	0.94198
3279.92372	0.94155
3277.86992	0.94158
3275.81612	0.94170
3273.76232	0.94216
3271.70851	0.94281
3269.65471	0.94299
3267.60091	0.94295
3265.54710	0.94303
3263.49330	0.94330
3261.43950	0.94390
3259.38569	0.94445
3257.33189	0.94455
3255.27809	0.94461
3253.22428	0.94478
3251.17048	0.94478
3249.11668	0.94481
3247.06287	0.94499
3245.00907	0.94536
3242.95527	0.94594
3240.90146	0.94639
3238.84766	0.94661
3236.79386	0.94668
3234.74005	0.94673
3232.68625	0.94713
3230.63245	0.94802
3228.57864	0.94888
3226.52484	0.94927
3224.47104	0.94967
3222.41724	0.95065
3220.36343	0.95171
3218.30963	0.95168
3216.25583	0.95075
3214.20202	0.95042
3212.14822	0.95092
3210.09442	0.95126
3208.04061	0.95139
3205.98681	0.95188
3203.93301	0.95278
3201.87920	0.95347
3199.82540	0.95358
3197.77160	0.95370
3195.71779	0.95418
3193.66399	0.95450
3191.61019	0.95441
3189.55638	0.95444
3187.50258	0.95517
3185.44878	0.95628
3183.39497	0.95690
3181.34117	0.95685
3179.28737	0.95672
3177.23356	0.95695
3175.17976	0.95745
3173.12596	0.95803
3171.07215	0.95851
3169.01835	0.95879
3166.96455	0.95920
3164.91075	0.95954
3162.85694	0.95973
3160.80314	0.96014
3158.74934	0.96052
3156.69553	0.96073
3154.64173	0.96115
3152.58793	0.96168
3150.53412	0.96220
3148.48032	0.96279
3146.42652	0.96288
3144.37271	0.96270
3142.31891	0.96324
3140.26511	0.96419
3138.21130	0.96485
3136.15750	0.96519
3134.10370	0.96521
3132.04989	0.96513
3129.99609	0.96536
3127.94229	0.96578
3125.88848	0.96608
3123.83468	0.96617
3121.78088	0.96644
3119.72707	0.96692
3117.67327	0.96717
3115.61947	0.96741
3113.56566	0.96778
3111.51186	0.96793
3109.45806	0.96806
3107.40426	0.96834
3105.35045	0.96837
3103.29665	0.96826
3101.24285	0.96846
3099.18904	0.96880
3097.13524	0.96893
3095.08144	0.96898
3093.02763	0.96893
3090.97383	0.96847
3088.92003	0.96799
3086.86622	0.96799
3084.81242	0.96839
3082.75862	0.96895
3080.70481	0.96944
3078.65101	0.96962
3076.59721	0.96956
3074.54340	0.96976
3072.48960	0.97043
3070.43580	0.97097
3068.38199	0.97096
3066.32819	0.97094
3064.27439	0.97121
3062.22058	0.97126
3060.16678	0.97088
3058.11298	0.97079
3056.05918	0.97139
3054.00537	0.97209
3051.95157	0.97232
3049.89777	0.97237
3047.84396	0.97276
3045.79016	0.97306
3043.73636	0.97276
3041.68255	0.97254
3039.62875	0.97292
3037.57495	0.97325
3035.52114	0.97326
3033.46734	0.97351
3031.41354	0.97398
3029.35973	0.97433
3027.30593	0.97448
3025.25213	0.97452
3023.19832	0.97458
3021.14452	0.97455
3019.09072	0.97426
3017.03691	0.97396
3014.98311	0.97393
3012.92931	0.97409
3010.87550	0.97409
3008.82170	0.97379
3006.76790	0.97357
3004.71409	0.97383
3002.66029	0.97415
3000.60649	0.97403
2998.55269	0.97371
2996.49888	0.97342
2994.44508	0.97329
2992.39128	0.97305
2990.33747	0.97238
2988.28367	0.97148
2986.22987	0.97049
2984.17606	0.96949
2982.12226	0.96860
2980.06846	0.96798
2978.01465	0.96742
2975.96085	0.96630
2973.90705	0.96445
2971.85324	0.96182
2969.79944	0.95854
2967.74564	0.95529
2965.69183	0.95247
2963.63803	0.94992
2961.58423	0.94742
2959.53042	0.94491
2957.47662	0.94300
2955.42282	0.94194
2953.36901	0.94078
2951.31521	0.93887
2949.26141	0.93636
2947.20761	0.93286
2945.15380	0.92760
2943.10000	0.92004
2941.04620	0.90988
2938.99239	0.89765
2936.93859	0.88409
2934.88479	0.86886
2932.83098	0.85137
2930.77718	0.83146
2928.72338	0.80874
2926.66957	0.78293
2924.61577	0.75436
2922.56197	0.72332
2920.50816	0.69117
2918.45436	0.66249
2916.40056	0.64465
2914.34675	0.64391
2912.29295	0.65997
2910.23915	0.68577
2908.18534	0.71309
2906.13154	0.73710
2904.07774	0.75665
2902.02393	0.77261
2899.97013	0.78622
2897.91633	0.79807
2895.86252	0.80879
2893.80872	0.81962
2891.75492	0.83089
2889.70112	0.84223
2887.64731	0.85352
2885.59351	0.86443
2883.53971	0.87458
2881.48590	0.88386
2879.43210	0.89219
2877.37830	0.89942
2875.32449	0.90513
2873.27069	0.90883
2871.21689	0.91064
2869.16308	0.91101
2867.10928	0.90976
2865.05548	0.90545
2863.00167	0.89647
2860.94787	0.88200
2858.89407	0.86105
2856.84026	0.83192
2854.78646	0.79325
2852.73266	0.74638
2850.67885	0.69998
2848.62505	0.67183
2846.57125	0.67672
2844.51744	0.71119
2842.46364	0.75857
2840.40984	0.80451
2838.35603	0.84256
2836.30223	0.87160
2834.24843	0.89305
2832.19463	0.90878
2830.14082	0.92032
2828.08702	0.92907
2826.03322	0.93602
2823.97941	0.94167
2821.92561	0.94654
2819.87181	0.95080
2817.81800	0.95408
2815.76420	0.95641
2813.71040	0.95837
2811.65659	0.96026
2809.60279	0.96197
2807.54899	0.96357
2805.49518	0.96514
2803.44138	0.96635
2801.38758	0.96726
2799.33377	0.96822
2797.27997	0.96922
2795.22617	0.97017
2793.17236	0.97097
2791.11856	0.97162
2789.06476	0.97236
2787.01095	0.97324
2784.95715	0.97399
2782.90335	0.97490
2780.84955	0.97610
2778.79574	0.97695
2776.74194	0.97738
2774.68814	0.97792
2772.63433	0.97847
2770.58053	0.97880
2768.52673	0.97909
2766.47292	0.97918
2764.41912	0.97904
2762.36532	0.97902
2760.31151	0.97932
2758.25771	0.97981
2756.20391	0.97995
2754.15010	0.97964
2752.09630	0.97948
2750.04250	0.97987
2747.98869	0.98056
2745.93489	0.98090
2743.88109	0.98089
2741.82728	0.98105
2739.77348	0.98134
2737.71968	0.98150
2735.66587	0.98170
2733.61207	0.98181
2731.55827	0.98161
2729.50446	0.98158
2727.45066	0.98192
2725.39686	0.98227
2723.34306	0.98250
2721.28925	0.98278
2719.23545	0.98297
2717.18165	0.98309
2715.12784	0.98316
2713.07404	0.98317
2711.02024	0.98340
2708.96643	0.98361
2706.91263	0.98342
2704.85883	0.98325
2702.80502	0.98354
2700.75122	0.98390
2698.69742	0.98388
2696.64361	0.98366
2694.58981	0.98369
2692.53601	0.98401
2690.48220	0.98428
2688.42840	0.98442
2686.37460	0.98437
2684.32079	0.98425
2682.26699	0.98421
2680.21319	0.98415
2678.15938	0.98405
2676.10558	0.98407
2674.05178	0.98430
2671.99797	0.98440
2669.94417	0.98425
2667.89037	0.98416
2665.83657	0.98425
2663.78276	0.98430
2661.72896	0.98398
2659.67516	0.98339
2657.62135	0.98321
2655.56755	0.98362
2653.51375	0.98409
2651.45994	0.98425
2649.40614	0.98411
2647.35234	0.98400
2645.29853	0.98401
2643.24473	0.98407
2641.19093	0.98440
2639.13712	0.98474
2637.08332	0.98442
2635.02952	0.98375
2632.97571	0.98359
2630.92191	0.98416
2628.86811	0.98520
2626.81430	0.98615
2624.76050	0.98664
2622.70670	0.98669
2620.65289	0.98647
2618.59909	0.98651
2616.54529	0.98695
2614.49149	0.98731
2612.43768	0.98732
2610.38388	0.98731
2608.33008	0.98758
2606.27627	0.98746
2604.22247	0.98665
2602.16867	0.98628
2600.11486	0.98685
2598.06106	0.98753
2596.00726	0.98802
2593.95345	0.98839
2591.89965	0.98849
2589.84585	0.98877
2587.79204	0.98916
2585.73824	0.98900
2583.68444	0.98824
2581.63063	0.98782
2579.57683	0.98834
2577.52303	0.98895
2575.46922	0.98913
2573.41542	0.98920
2571.36162	0.98937
2569.30781	0.98956
2567.25401	0.98950
2565.20021	0.98953
2563.14640	0.99010
2561.09260	0.99040
2559.03880	0.99029
2556.98500	0.99049
2554.93119	0.99091
2552.87739	0.99139
2550.82359	0.99141
2548.76978	0.99046
2546.71598	0.98950
2544.66218	0.98950
2542.60837	0.99022
2540.55457	0.99072
2538.50077	0.99081
2536.44696	0.99072
2534.39316	0.99025
2532.33936	0.98981
2530.28555	0.98997
2528.23175	0.99041
2526.17795	0.99097
2524.12414	0.99156
2522.07034	0.99189
2520.01654	0.99183
2517.96273	0.99139
2515.90893	0.99098
2513.85513	0.99125
2511.80132	0.99191
2509.74752	0.99214
2507.69372	0.99205
2505.63992	0.99197
2503.58611	0.99218
2501.53231	0.99295
2499.47851	0.99361
2497.42470	0.99334
2495.37090	0.99261
2493.31710	0.99268
2491.26329	0.99349
2489.20949	0.99375
2487.15569	0.99323
2485.10188	0.99265
2483.04808	0.99224
2480.99428	0.99202
2478.94047	0.99230
2476.88667	0.99288
2474.83287	0.99301
2472.77906	0.99259
2470.72526	0.99198
2468.67146	0.99186
2466.61765	0.99276
2464.56385	0.99345
2462.51005	0.99311
2460.45624	0.99280
2458.40244	0.99280
2456.34864	0.99270
2454.29483	0.99274
2452.24103	0.99297
2450.18723	0.99313
2448.13343	0.99334
2446.07962	0.99373
2444.02582	0.99404
2441.97202	0.99360
2439.91821	0.99265
2437.86441	0.99255
2435.81061	0.99324
2433.75680	0.99374
2431.70300	0.99360
2429.64920	0.99291
2427.59539	0.99251
2425.54159	0.99291
2423.48779	0.99368
2421.43398	0.99379
2419.38018	0.99290
2417.32638	0.99214
2415.27257	0.99229
2413.21877	0.99254
2411.16497	0.99233
2409.11116	0.99219
2407.05736	0.99236
2405.00356	0.99275
2402.94975	0.99334
2400.89595	0.99343
2398.84215	0.99283
2396.78834	0.99253
2394.73454	0.99279
2392.68074	0.99312
2390.62694	0.99340
2388.57313	0.99348
2386.51933	0.99311
2384.46553	0.99280
2382.41172	0.99288
2380.35792	0.99295
2378.30412	0.99295
2376.25031	0.99339
2374.19651	0.99439
2372.14271	0.99489
2370.08890	0.99489
2368.03510	0.99547
2365.98130	0.99580
2363.92749	0.99529
2361.87369	0.99487
2359.81989	0.99473
2357.76608	0.99442
2355.71228	0.99348
2353.65848	0.99210
2351.60467	0.99140
2349.55087	0.99166
2347.49707	0.99201
2345.44326	0.99151
2343.38946	0.99054
2341.33566	0.99067
2339.28186	0.99114
2337.22805	0.99092
2335.17425	0.99102
2333.12045	0.99122
2331.06664	0.99040
2329.01284	0.98966
2326.95904	0.99024
2324.90523	0.99126
2322.85143	0.99139
2320.79763	0.99067
2318.74382	0.99030
2316.69002	0.99063
2314.63622	0.99096
2312.58241	0.99118
2310.52861	0.99173
2308.47481	0.99217
2306.42100	0.99205
2304.36720	0.99163
2302.31340	0.99154
2300.25959	0.99205
2298.20579	0.99206
2296.15199	0.99145
2294.09818	0.99122
2292.04438	0.99111
2289.99058	0.99097
2287.93677	0.99109
2285.88297	0.99100
2283.82917	0.99076
2281.77537	0.99101
2279.72156	0.99144
2277.66776	0.99189
2275.61396	0.99234
2273.56015	0.99238
2271.50635	0.99222
2269.45255	0.99185
2267.39874	0.99162
2265.34494	0.99192
2263.29114	0.99215
2261.23733	0.99272
2259.18353	0.99441
2257.12973	0.99578
2255.07592	0.99500
2253.02212	0.99291
2250.96832	0.99159
2248.91451	0.99191
2246.86071	0.99308
2244.80691	0.99354
2242.75310	0.99245
2240.69930	0.99127
2238.64550	0.99191
2236.59169	0.99395
2234.53789	0.99580
2232.48409	0.99601
2230.43029	0.99440
2228.37648	0.99269
2226.32268	0.99233
2224.26888	0.99300
2222.21507	0.99411
2220.16127	0.99473
2218.10747	0.99412
2216.05366	0.99345
2213.99986	0.99438
2211.94606	0.99706
2209.89225	0.99861
2207.83845	0.99654
2205.78465	0.99369
2203.73084	0.99336
2201.67704	0.99369
2199.62324	0.99306
2197.56943	0.99442
2195.51563	0.99711
2193.46183	0.99750
2191.40802	0.99583
2189.35422	0.99379
2187.30042	0.99301
2185.24661	0.99350
2183.19281	0.99443
2181.13901	0.99553
2179.08520	0.99638
2177.03140	0.99774
2174.97760	0.99924
2172.92380	0.99839
2170.86999	0.99520
2168.81619	0.99244
2166.76239	0.99108
2164.70858	0.99053
2162.65478	0.98957
2160.60098	0.98985
2158.54717	0.99479
2156.49337	0.99881
2154.43957	0.99800
2152.38576	0.99747
2150.33196	0.99870
2148.27816	0.99931
2146.22435	0.99891
2144.17055	0.99830
2142.11675	0.99779
2140.06294	0.99733
2138.00914	0.99776
2135.95534	0.99868
2133.90153	0.99808
2131.84773	0.99717
2129.79393	0.99740
2127.74012	0.99715
2125.68632	0.99597
2123.63252	0.99482
2121.57871	0.99388
2119.52491	0.99314
2117.47111	0.99283
2115.41731	0.99319
2113.36350	0.99366
2111.30970	0.99373
2109.25590	0.99402
2107.20209	0.99482
2105.14829	0.99544
2103.09449	0.99547
2101.04068	0.99507
2098.98688	0.99468
2096.93308	0.99464
2094.87927	0.99502
2092.82547	0.99547
2090.77167	0.99564
2088.71786	0.99592
2086.66406	0.99581
2084.61026	0.99505
2082.55645	0.99401
2080.50265	0.99289
2078.44885	0.99237
2076.39504	0.99229
2074.34124	0.99268
2072.28744	0.99320
2070.23363	0.99336
2068.17983	0.99428
2066.12603	0.99561
2064.07223	0.99687
2062.01842	0.99792
2059.96462	0.99725
2057.91082	0.99566
2055.85701	0.99480
2053.80321	0.99361
2051.74941	0.99201
2049.69560	0.99184
2047.64180	0.99242
2045.58800	0.99104
2043.53419	0.98950
2041.48039	0.99089
2039.42659	0.99299
2037.37278	0.99334
2035.31898	0.99318
2033.26518	0.99414
2031.21137	0.99550
2029.15757	0.99560
2027.10377	0.99543
2025.04996	0.99616
2022.99616	0.99698
2020.94236	0.99623
2018.88855	0.99260
2016.83475	0.99036
2014.78095	0.99304
2012.72714	0.99631
2010.67334	0.99745
2008.61954	0.99764
2006.56574	0.99775
2004.51193	0.99727
2002.45813	0.99620
2000.40433	0.99487
1998.35052	0.99429
1996.29672	0.99504
1994.24292	0.99573
1992.18911	0.99638
1990.13531	0.99640
1988.08151	0.99524
1986.02770	0.99494
1983.97390	0.99441
1981.92010	0.99197
1979.86629	0.99034
1977.81249	0.99113
1975.75869	0.99353
1973.70488	0.99603
1971.65108	0.99646
1969.59728	0.99564
1967.54347	0.99484
1965.48967	0.99390
1963.43587	0.99455
1961.38206	0.99687
1959.32826	0.99726
1957.27446	0.99562
1955.22066	0.99501
1953.16685	0.99477
1951.11305	0.99438
1949.05925	0.99510
1947.00544	0.99624
1944.95164	0.99741
1942.89784	0.99749
1940.84403	0.99545
1938.79023	0.99411
1936.73643	0.99516
1934.68262	0.99668
1932.62882	0.99630
1930.57502	0.99497
1928.52121	0.99480
1926.46741	0.99533
1924.41361	0.99567
1922.35980	0.99546
1920.30600	0.99483
1918.25220	0.99439
1916.19839	0.99389
1914.14459	0.99338
1912.09079	0.99340
1910.03698	0.99369
1907.98318	0.99374
1905.92938	0.99341
1903.87557	0.99318
1901.82177	0.99336
1899.76797	0.99356
1897.71417	0.99341
1895.66036	0.99328
1893.60656	0.99362
1891.55276	0.99379
1889.49895	0.99346
1887.44515	0.99306
1885.39135	0.99287
1883.33754	0.99311
1881.28374	0.99329
1879.22994	0.99323
1877.17613	0.99349
1875.12233	0.99413
1873.06853	0.99507
1871.01472	0.99591
1868.96092	0.99568
1866.90712	0.99515
1864.85331	0.99499
1862.79951	0.99467
1860.74571	0.99473
1858.69190	0.99522
1856.63810	0.99529
1854.58430	0.99493
1852.53049	0.99471
1850.47669	0.99467
1848.42289	0.99430
1846.36908	0.99341
1844.31528	0.99302
1842.26148	0.99358
1840.20768	0.99348
1838.15387	0.99273
1836.10007	0.99277
1834.04627	0.99365
1831.99246	0.99403
1829.93866	0.99321
1827.88486	0.99241
1825.83105	0.99274
1823.77725	0.99320
1821.72345	0.99314
1819.66964	0.99317
1817.61584	0.99377
1815.56204	0.99419
1813.50823	0.99381
1811.45443	0.99320
1809.40063	0.99272
1807.34682	0.99257
1805.29302	0.99272
1803.23922	0.99287
1801.18541	0.99298
1799.13161	0.99296
1797.07781	0.99255
1795.02400	0.99214
1792.97020	0.99210
1790.91640	0.99190
1788.86260	0.99150
1786.80879	0.99116
1784.75499	0.99099
1782.70119	0.99124
1780.64738	0.99145
1778.59358	0.99122
1776.53978	0.99091
1774.48597	0.99052
1772.43217	0.99025
1770.37837	0.99027
1768.32456	0.98998
1766.27076	0.98946
1764.21696	0.98903
1762.16315	0.98861
1760.10935	0.98826
1758.05555	0.98786
1756.00174	0.98744
1753.94794	0.98706
1751.89414	0.98594
1749.84033	0.98315
1747.78653	0.97895
1745.73273	0.97388
1743.67892	0.96819
1741.62512	0.96301
1739.57132	0.95971
1737.51751	0.95942
1735.46371	0.96168
1733.40991	0.96518
1731.35611	0.96799
1729.30230	0.97025
1727.24850	0.97230
1725.19470	0.97392
1723.14089	0.97485
1721.08709	0.97516
1719.03329	0.97548
1716.97948	0.97581
1714.92568	0.97561
1712.87188	0.97523
1710.81807	0.97503
1708.76427	0.97494
1706.71047	0.97436
1704.65666	0.97317
1702.60286	0.97228
1700.54906	0.97159
1698.49525	0.97062
1696.44145	0.96917
1694.38765	0.96719
1692.33384	0.96537
1690.28004	0.96339
1688.22624	0.96152
1686.17243	0.96018
1684.11863	0.95787
1682.06483	0.95536
1680.01103	0.95415
1677.95722	0.95346
1675.90342	0.95257
1673.84962	0.95125
1671.79581	0.94987
1669.74201	0.94804
1667.68821	0.94654
1665.63440	0.94573
1663.58060	0.94440
1661.52680	0.94277
1659.47299	0.94173
1657.41919	0.94122
1655.36539	0.94126
1653.31158	0.94087
1651.25778	0.93949
1649.20398	0.93908
1647.15017	0.93903
1645.09637	0.93916
1643.04257	0.93967
1640.98876	0.94021
1638.93496	0.94063
1636.88116	0.94085
1634.82735	0.94063
1632.77355	0.94087
1630.71975	0.94152
1628.66594	0.94172
1626.61214	0.94157
1624.55834	0.94183
1622.50454	0.94268
1620.45073	0.94385
1618.39693	0.94526
1616.34313	0.94712
1614.28932	0.94904
1612.23552	0.95074
1610.18172	0.95223
1608.12791	0.95341
1606.07411	0.95430
1604.02031	0.95511
1601.96650	0.95599
1599.91270	0.95690
1597.85890	0.95793
1595.80509	0.95906
1593.75129	0.95999
1591.69749	0.96063
1589.64368	0.96109
1587.58988	0.96154
1585.53608	0.96225
1583.48227	0.96320
1581.42847	0.96405
1579.37467	0.96463
1577.32086	0.96495
1575.26706	0.96499
1573.21326	0.96519
1571.15945	0.96548
1569.10565	0.96561
1567.05185	0.96593
1564.99805	0.96637
1562.94424	0.96645
1560.89044	0.96632
1558.83664	0.96624
1556.78283	0.96568
1554.72903	0.96483
1552.67523	0.96439
1550.62142	0.96447
1548.56762	0.96423
1546.51382	0.96386
1544.46001	0.96412
1542.40621	0.96475
1540.35241	0.96488
1538.29860	0.96507
1536.24480	0.96580
1534.19100	0.96680
1532.13719	0.96765
1530.08339	0.96800
1528.02959	0.96809
1525.97578	0.96840
1523.92198	0.96902
1521.86818	0.96955
1519.81437	0.97017
1517.76057	0.97085
1515.70677	0.97142
1513.65297	0.97197
1511.59916	0.97258
1509.54536	0.97307
1507.49156	0.97348
1505.43775	0.97424
1503.38395	0.97477
1501.33015	0.97504
1499.27634	0.97492
1497.22254	0.97424
1495.16874	0.97365
1493.11493	0.97361
1491.06113	0.97356
1489.00733	0.97295
1486.95352	0.97168
1484.89972	0.97020
1482.84592	0.96846
1480.79211	0.96538
1478.73831	0.95859
1476.68451	0.94155
1474.63070	0.90885
1472.57690	0.87490
1470.52310	0.86445
1468.46929	0.86545
1466.41549	0.86210
1464.36169	0.85368
1462.30788	0.85366
1460.25408	0.86675
1458.20028	0.88699
1456.14648	0.90517
1454.09267	0.91498
1452.03887	0.92212
1449.98507	0.92818
1447.93126	0.93251
1445.87746	0.93534
1443.82366	0.93738
1441.76985	0.93911
1439.71605	0.94055
1437.66225	0.94190
1435.60844	0.94344
1433.55464	0.94527
1431.50084	0.94773
1429.44703	0.95088
1427.39323	0.95379
1425.33943	0.95612
1423.28562	0.95809
1421.23182	0.95933
1419.17802	0.95991
1417.12421	0.96005
1415.07041	0.96041
1413.01661	0.96121
1410.96280	0.96191
1408.90900	0.96226
1406.85520	0.96265
1404.80139	0.96314
1402.74759	0.96363
1400.69379	0.96435
1398.63999	0.96529
1396.58618	0.96588
1394.53238	0.96558
1392.47858	0.96504
1390.42477	0.96492
1388.37097	0.96469
1386.31717	0.96368
1384.26336	0.96176
1382.20956	0.95879
1380.15576	0.95550
1378.10195	0.95381
1376.04815	0.95450
1373.99435	0.95612
1371.94054	0.95687
1369.88674	0.95686
1367.83294	0.95705
1365.77913	0.95791
1363.72533	0.95925
1361.67153	0.96078
1359.61772	0.96200
1357.56392	0.96268
1355.51012	0.96300
1353.45631	0.96339
1351.40251	0.96400
1349.34871	0.96457
1347.29491	0.96512
1345.24110	0.96567
1343.18730	0.96602
1341.13350	0.96625
1339.07969	0.96664
1337.02589	0.96725
1334.97209	0.96810
1332.91828	0.96881
1330.86448	0.96895
1328.81068	0.96875
1326.75687	0.96855
1324.70307	0.96825
1322.64927	0.96773
1320.59546	0.96744
1318.54166	0.96737
1316.48786	0.96687
1314.43405	0.96608
1312.38025	0.96566
1310.32645	0.96556
1308.27264	0.96538
1306.21884	0.96505
1304.16504	0.96479
1302.11123	0.96485
1300.05743	0.96500
1298.00363	0.96499
1295.94982	0.96507
1293.89602	0.96536
1291.84222	0.96547
1289.78842	0.96521
1287.73461	0.96491
1285.68081	0.96469
1283.62701	0.96427
1281.57320	0.96360
1279.51940	0.96295
1277.46560	0.96243
1275.41179	0.96200
1273.35799	0.96155
1271.30419	0.96084
1269.25038	0.95995
1267.19658	0.95920
1265.14278	0.95849
1263.08897	0.95773
1261.03517	0.95698
1258.98137	0.95619
1256.92756	0.95584
1254.87376	0.95580
1252.81996	0.95545
1250.76615	0.95485
1248.71235	0.95411
1246.65855	0.95326
1244.60474	0.95254
1242.55094	0.95201
1240.49714	0.95165
1238.44334	0.95122
1236.38953	0.95057
1234.33573	0.94992
1232.28193	0.94925
1230.22812	0.94852
1228.17432	0.94803
1226.12052	0.94783
1224.06671	0.94745
1222.01291	0.94674
1219.95911	0.94583
1217.90530	0.94478
1215.85150	0.94386
1213.79770	0.94293
1211.74389	0.94172
1209.69009	0.94052
1207.63629	0.93956
1205.58248	0.93826
1203.52868	0.93629
1201.47488	0.93432
1199.42107	0.93274
1197.36727	0.93131
1195.31347	0.92975
1193.25966	0.92811
1191.20586	0.92662
1189.15206	0.92508
1187.09825	0.92319
1185.04445	0.92097
1182.99065	0.91838
1180.93685	0.91537
1178.88304	0.91216
1176.82924	0.90880
1174.77544	0.90481
1172.72163	0.90036
1170.66783	0.89618
1168.61403	0.89233
1166.56022	0.88877
1164.50642	0.88569
1162.45262	0.88307
1160.39881	0.88068
1158.34501	0.87846
1156.29121	0.87643
1154.23740	0.87451
1152.18360	0.87268
1150.12980	0.87081
1148.07599	0.86890
1146.02219	0.86703
1143.96839	0.86509
1141.91458	0.86329
1139.86078	0.86165
1137.80698	0.85984
1135.75317	0.85788
1133.69937	0.85553
1131.64557	0.85236
1129.59176	0.84852
1127.53796	0.84411
1125.48416	0.83911
1123.43036	0.83360
1121.37655	0.82768
1119.32275	0.82181
1117.26895	0.81638
1115.21514	0.81132
1113.16134	0.80656
1111.10754	0.80224
1109.05373	0.79859
1106.99993	0.79534
1104.94613	0.79209
1102.89232	0.78896
1100.83852	0.78617
1098.78472	0.78383
1096.73091	0.78201
1094.67711	0.78062
1092.62331	0.77951
1090.56950	0.77854
1088.51570	0.77755
1086.46190	0.77655
1084.40809	0.77568
1082.35429	0.77470
1080.30049	0.77322
1078.24668	0.77124
1076.19288	0.76916
1074.13908	0.76736
1072.08528	0.76556
1070.03147	0.76325
1067.97767	0.76039
1065.92387	0.75693
1063.87006	0.75276
1061.81626	0.74811
1059.76246	0.74318
1057.70865	0.73794
1055.65485	0.73204
1053.60105	0.72505
1051.54724	0.71738
1049.49344	0.71007
1047.43964	0.70357
1045.38583	0.69718
1043.33203	0.69057
1041.27823	0.68450
1039.22442	0.67932
1037.17062	0.67459
1035.11682	0.67038
1033.06301	0.66751
1031.00921	0.66633
1028.95541	0.66634
1026.90160	0.66698
1024.84780	0.66805
1022.79400	0.66947
1020.74019	0.67089
1018.68639	0.67204
1016.63259	0.67290
1014.57879	0.67380
1012.52498	0.67493
1010.47118	0.67635
1008.41738	0.67836
1006.36357	0.68121
1004.30977	0.68529
1002.25597	0.69133
1000.20216	0.69907
998.14836	0.70740
996.09456	0.71587
994.04075	0.72487
991.98695	0.73470
989.93315	0.74506
987.87934	0.75527
985.82554	0.76506
983.77174	0.77456
981.71793	0.78343
979.66413	0.79160
977.61033	0.79989
975.55652	0.80835
973.50272	0.81634
971.44892	0.82367
969.39511	0.83028
967.34131	0.83623
965.28751	0.84185
963.23371	0.84721
961.17990	0.85205
959.12610	0.85644
957.07230	0.86024
955.01849	0.86335
952.96469	0.86636
950.91089	0.86941
948.85708	0.87191
946.80328	0.87362
944.74948	0.87484
942.69567	0.87577
940.64187	0.87685
938.58807	0.87829
936.53426	0.87950
934.48046	0.88025
932.42666	0.88086
930.37285	0.88138
928.31905	0.88165
926.26525	0.88160
924.21144	0.88104
922.15764	0.87966
920.10384	0.87764
918.05003	0.87529
915.99623	0.87288
913.94243	0.87153
911.88862	0.87245
909.83482	0.87579
907.78102	0.88082
905.72722	0.88656
903.67341	0.89227
901.61961	0.89740
899.56581	0.90195
897.51200	0.90644
895.45820	0.91085
893.40440	0.91466
891.35059	0.91731
889.29679	0.91849
887.24299	0.91893
885.18918	0.91986
883.13538	0.92135
881.08158	0.92241
879.02777	0.92262
876.97397	0.92257
874.92017	0.92299
872.86636	0.92442
870.81256	0.92683
868.75876	0.92941
866.70495	0.93180
864.65115	0.93395
862.59735	0.93582
860.54354	0.93763
858.48974	0.93919
856.43594	0.94022
854.38213	0.94117
852.32833	0.94230
850.27453	0.94321
848.22073	0.94358
846.16692	0.94367
844.11312	0.94402
842.05932	0.94450
840.00551	0.94433
837.95171	0.94360
835.89791	0.94287
833.84410	0.94207
831.79030	0.94079
829.73650	0.93908
827.68269	0.93805
825.62889	0.93803
823.57509	0.93805
821.52128	0.93790
819.46748	0.93771
817.41368	0.93768
815.35987	0.93787
813.30607	0.93744
811.25227	0.93611
809.19846	0.93457
807.14466	0.93293
805.09086	0.93087
803.03705	0.92854
800.98325	0.92650
798.92945	0.92486
796.87565	0.92358
794.82184	0.92348
792.76804	0.92456
790.71424	0.92479
788.66043	0.92352
786.60663	0.92223
784.55283	0.92134
782.49902	0.92061
780.44522	0.92054
778.39142	0.92118
776.33761	0.92137
774.28381	0.92093
772.23001	0.92083
770.17620	0.92096
768.12240	0.92056
766.06860	0.91945
764.01479	0.91846
761.96099	0.91829
759.90719	0.91818
757.85338	0.91746
755.79958	0.91651
753.74578	0.91569
751.69197	0.91490
749.63817	0.91402
747.58437	0.91332
745.53056	0.91301
743.47676	0.91271
741.42296	0.91212
739.36916	0.91109
737.31535	0.90868
735.26155	0.90127
733.20775	0.88311
731.15394	0.86043
729.10014	0.85109
727.04634	0.85518
724.99253	0.85462
722.93873	0.83764
720.88493	0.80870
718.83112	0.79107
716.77732	0.80241
714.72352	0.83142
712.66971	0.85831
710.61591	0.87510
708.56211	0.88352
706.50830	0.88676
704.45450	0.88696
702.40070	0.88587
700.34689	0.88483
698.29309	0.88392
696.23929	0.88275
694.18548	0.88191
692.13168	0.88230
690.07788	0.88326
688.02408	0.88364
685.97027	0.88390
683.91647	0.88501
681.86267	0.88679
679.80886	0.88804
677.75506	0.88831
675.70126	0.88739
673.64745	0.88537
671.59365	0.88437
669.53985	0.88626
667.48604	0.88977
665.43224	0.89163
663.37844	0.89319
661.32463	0.89545
659.27083	0.89695
657.21703	0.89690
655.16322	0.89662
653.10942	0.89670
651.05562	0.89666
649.00181	0.89609
646.94801	0.89566
644.89421	0.89616
642.84040	0.89697
640.78660	0.89769
638.73280	0.89805
636.67899	0.89820
634.62519	0.89838
632.57139	0.89764
630.51759	0.89628
628.46378	0.89570
626.40998	0.89546
624.35618	0.89521
622.30237	0.89427
620.24857	0.89235
618.19477	0.89074
616.14096	0.88907
614.08716	0.88697
612.03336	0.88509
609.97955	0.88277
607.92575	0.87932
605.87195	0.87625
603.81814	0.87482
601.76434	0.87366
599.71054	0.87229
597.65673	0.87237
595.60293	0.87337
593.54913	0.87300
591.49532	0.87112
589.44152	0.86964
587.38772	0.86895
585.33391	0.86779
583.28011	0.86642
581.22631	0.86563
579.17250	0.86473
577.11870	0.86249
575.06490	0.85956
573.01110	0.85694
570.95729	0.85321
568.90349	0.84912
566.84969	0.84671
564.79588	0.84435
562.74208	0.84037
560.68828	0.83654
558.63447	0.83469
556.58067	0.83340
554.52687	0.83049
552.47306	0.82612
550.41926	0.82200
548.36546	0.81873
546.31165	0.81534
544.25785	0.81128
542.20405	0.80668
540.15024	0.80151
538.09644	0.79641
536.04264	0.79230
533.98883	0.78986
531.93503	0.78990
529.88123	0.79193
527.82742	0.79509
525.77362	0.79924
523.71982	0.80287
521.66602	0.80521
519.61221	0.80751
517.55841	0.81022
515.50461	0.81306
513.45080	0.81620
511.39700	0.81894
509.34320	0.82019
507.28939	0.82111
505.23559	0.82272
503.18179	0.82491
501.12798	0.82778
499.07418	0.82975
497.02038	0.82971
494.96657	0.82899
492.91277	0.82850
490.85897	0.82697
488.80516	0.82327
486.75136	0.81739
484.69756	0.81065
482.64375	0.80366
480.58995	0.79559
478.53615	0.78712
476.48234	0.77820
474.42854	0.76751
472.37474	0.75370
470.32093	0.74136
468.26713	0.73759
466.21333	0.74057
464.15953	0.74580
462.10572	0.75153
460.05192	0.75641
457.99812	0.76247
455.94431	0.76936
453.89051	0.77174
451.83671	0.77184
449.78290	0.77613
447.72910	0.78549
445.67530	0.79439
443.62149	0.79859
441.56769	0.79914
439.51389	0.79767
437.46008	0.79608
435.40628	0.79517
433.35248	0.79240
431.29867	0.79059
429.24487	0.79579
427.19107	0.80164
425.13726	0.80210
423.08346	0.80362
421.02966	0.80849
418.97585	0.81163
416.92205	0.81376
414.86825	0.81945
412.81445	0.82642
410.76064	0.83218
408.70684	0.83638
406.65304	0.83943
404.59923	0.84606
402.54543	0.85784
400.49163	0.86917
398.43782	0.87330
