3996.70104	0.98742
3994.64724	0.98731
3992.59344	0.98775
3990.53964	0.98773
3988.48583	0.98739
3986.43203	0.98710
3984.37823	0.98677
3982.32442	0.98684
3980.27062	0.98739
3978.21682	0.98789
3976.16301	0.98804
3974.10921	0.98789
3972.05541	0.98766
3970.00160	0.98742
3967.94780	0.98721
3965.89400	0.98735
3963.84019	0.98788
3961.78639	0.98827
3959.73259	0.98806
3957.67878	0.98745
3955.62498	0.98733
3953.57118	0.98783
3951.51737	0.98831
3949.46357	0.98867
3947.40977	0.98885
3945.35596	0.98861
3943.30216	0.98769
3941.24836	0.98667
3939.19455	0.98700
3937.14075	0.98811
3935.08695	0.98854
3933.03315	0.98829
3930.97934	0.98806
3928.92554	0.98792
3926.87174	0.98765
3924.81793	0.98733
3922.76413	0.98740
3920.71033	0.98750
3918.65652	0.98670
3916.60272	0.98593
3914.54892	0.98653
3912.49511	0.98763
3910.44131	0.98827
3908.38751	0.98868
3906.33370	0.98899
3904.27990	0.98855
3902.22610	0.98793
3900.17229	0.98808
3898.11849	0.98827
3896.06469	0.98802
3894.01088	0.98787
3891.95708	0.98802
3889.90328	0.98784
3887.84947	0.98776
3885.79567	0.98804
3883.74187	0.98779
3881.68807	0.98694
3879.63426	0.98649
3877.58046	0.98695
3875.52666	0.98738
3873.47285	0.98676
3871.41905	0.98610
3869.36525	0.98683
3867.31144	0.98759
3865.25764	0.98782
3863.20384	0.98809
3861.15003	0.98806
3859.09623	0.98792
3857.04243	0.98797
3854.98862	0.98844
3852.93482	0.98925
3850.88102	0.98903
3848.82721	0.98885
3846.77341	0.98925
3844.71961	0.98931
3842.66580	0.98866
3840.61200	0.98811
3838.55820	0.98840
3836.50439	0.98910
3834.45059	0.98949
3832.39679	0.98968
3830.34298	0.98958
3828.28918	0.98942
3826.23538	0.98962
3824.18158	0.98990
3822.12777	0.99012
3820.07397	0.99007
3818.02017	0.98919
3815.96636	0.98804
3813.91256	0.98780
3811.85876	0.98814
3809.80495	0.98843
3807.75115	0.98877
3805.69735	0.98878
3803.64354	0.98839
3801.58974	0.98805
3799.53594	0.98817
3797.48213	0.98868
3795.42833	0.98900
3793.37453	0.98926
3791.32072	0.98929
3789.26692	0.98893
3787.21312	0.98870
3785.15931	0.98839
3783.10551	0.98802
3781.05171	0.98801
3778.99790	0.98800
3776.94410	0.98778
3774.89030	0.98765
3772.83650	0.98789
3770.78269	0.98852
3768.72889	0.98872
3766.67509	0.98845
3764.62128	0.98844
3762.56748	0.98849
3760.51368	0.98855
3758.45987	0.98855
3756.40607	0.98845
3754.35227	0.98843
3752.29846	0.98803
3750.24466	0.98707
3748.19086	0.98707
3746.13705	0.98836
3744.08325	0.99002
3742.02945	0.98991
3739.97564	0.98870
3737.92184	0.98788
3735.86804	0.98857
3733.81423	0.99003
3731.76043	0.98975
3729.70663	0.98890
3727.65282	0.98835
3725.59902	0.98786
3723.54522	0.98739
3721.49141	0.98672
3719.43761	0.98636
3717.38381	0.98668
3715.33001	0.98673
3713.27620	0.98551
3711.22240	0.98263
3709.16860	0.97995
3707.11479	0.97875
3705.06099	0.97759
3703.00719	0.97602
3700.95338	0.97497
3698.89958	0.97431
3696.84578	0.97375
3694.79197	0.97424
3692.73817	0.97568
3690.68437	0.97671
3688.63056	0.97702
3686.57676	0.97755
3684.52296	0.97850
3682.46915	0.97970
3680.41535	0.98034
3678.36155	0.97985
3676.30774	0.97900
3674.25394	0.97833
3672.20014	0.97793
3670.14633	0.97766
3668.09253	0.97719
3666.03873	0.97699
3663.98492	0.97735
3661.93112	0.97771
3659.87732	0.97734
3657.82352	0.97642
3655.76971	0.97553
3653.71591	0.97538
3651.66211	0.97587
3649.60830	0.97557
3647.55450	0.97396
3645.50070	0.97319
3643.44689	0.97289
3641.39309	0.97250
3639.33929	0.97253
3637.28548	0.97259
3635.23168	0.97163
3633.17788	0.97040
3631.12407	0.96974
3629.07027	0.96858
3627.01647	0.96765
3624.96266	0.96790
3622.90886	0.96804
3620.85506	0.96790
3618.80125	0.96819
3616.74745	0.96875
3614.69365	0.96944
3612.63984	0.97043
3610.58604	0.97073
3608.53224	0.96983
3606.47844	0.96891
3604.42463	0.96888
3602.37083	0.96874
3600.31703	0.96807
3598.26322	0.96786
3596.20942	0.96841
3594.15562	0.96888
3592.10181	0.96858
3590.04801	0.96805
3587.99421	0.96787
3585.94040	0.96789
3583.88660	0.96800
3581.83280	0.96838
3579.77899	0.96862
3577.72519	0.96826
3575.67139	0.96758
3573.61758	0.96693
3571.56378	0.96606
3569.50998	0.96522
3567.45617	0.96481
3565.40237	0.96427
3563.34857	0.96414
3561.29476	0.96415
3559.24096	0.96305
3557.18716	0.96186
3555.13335	0.96190
3553.07955	0.96228
3551.02575	0.96213
3548.97195	0.96188
3546.91814	0.96124
3544.86434	0.95989
3542.81054	0.95900
3540.75673	0.95903
3538.70293	0.95949
3536.64913	0.96005
3534.59532	0.96034
3532.54152	0.96019
3530.48772	0.96022
3528.43391	0.96067
3526.38011	0.96123
3524.32631	0.96175
3522.27250	0.96206
3520.21870	0.96232
3518.16490	0.96209
3516.11109	0.96117
3514.05729	0.96087
3512.00349	0.96161
3509.94968	0.96244
3507.89588	0.96248
3505.84208	0.96175
3503.78827	0.96125
3501.73447	0.96162
3499.68067	0.96217
3497.62687	0.96248
3495.57306	0.96271
3493.51926	0.96254
3491.46546	0.96191
3489.41165	0.96145
3487.35785	0.96152
3485.30405	0.96180
3483.25024	0.96180
3481.19644	0.96176
3479.14264	0.96213
3477.08883	0.96223
3475.03503	0.96186
3472.98123	0.96173
3470.92742	0.96167
3468.87362	0.96120
3466.81982	0.96041
3464.76601	0.96003
3462.71221	0.96035
3460.65841	0.96047
3458.60460	0.96010
3456.55080	0.96001
3454.49700	0.96054
3452.44319	0.96094
3450.38939	0.96016
3448.33559	0.95886
3446.28178	0.95834
3444.22798	0.95818
3442.17418	0.95805
3440.12038	0.95842
3438.06657	0.95889
3436.01277	0.95900
3433.95897	0.95875
3431.90516	0.95852
3429.85136	0.95841
3427.79756	0.95806
3425.74375	0.95740
3423.68995	0.95660
3421.63615	0.95640
3419.58234	0.95690
3417.52854	0.95706
3415.47474	0.95648
3413.42093	0.95547
3411.36713	0.95460
3409.31333	0.95415
3407.25952	0.95388
3405.20572	0.95384
3403.15192	0.95409
3401.09811	0.95414
3399.04431	0.95382
3396.99051	0.95353
3394.93670	0.95336
3392.88290	0.95338
3390.82910	0.95395
3388.77529	0.95478
3386.72149	0.95498
3384.66769	0.95487
3382.61389	0.95535
3380.56008	0.95618
3378.50628	0.95693
3376.45248	0.95742
3374.39867	0.95747
3372.34487	0.95721
3370.29107	0.95696
3368.23726	0.95701
3366.18346	0.95760
3364.12966	0.95820
3362.07585	0.95810
3360.02205	0.95783
3357.96825	0.95802
3355.91444	0.95823
3353.86064	0.95858
3351.80684	0.95914
3349.75303	0.95924
3347.69923	0.95889
3345.64543	0.95854
3343.59162	0.95866
3341.53782	0.95925
3339.48402	0.95954
3337.43021	0.95921
3335.37641	0.95878
3333.32261	0.95896
3331.26881	0.95967
3329.21500	0.96005
3327.16120	0.95993
3325.10740	0.95985
3323.05359	0.95983
3320.99979	0.95997
3318.94599	0.96020
3316.89218	0.96011
3314.83838	0.96006
3312.78458	0.96033
3310.73077	0.96106
3308.67697	0.96183
3306.62317	0.96167
3304.56936	0.96115
3302.51556	0.96143
3300.46176	0.96201
3298.40795	0.96219
3296.35415	0.96235
3294.30035	0.96274
3292.24654	0.96313
3290.19274	0.96310
3288.13894	0.96242
3286.08513	0.96174
3284.03133	0.96164
3281.97753	0.96207
3279.92372	0.96278
3277.86992	0.96355
3275.81612	0.96407
3273.76232	0.96434
3271.70851	0.96465
3269.65471	0.96456
3267.60091	0.96377
3265.54710	0.96312
3263.49330	0.96316
3261.43950	0.96370
3259.38569	0.96421
3257.33189	0.96444
3255.27809	0.96436
3253.22428	0.96414
3251.17048	0.96433
3249.11668	0.96491
3247.06287	0.96503
3245.00907	0.96458
3242.95527	0.96457
3240.90146	0.96530
3238.84766	0.96620
3236.79386	0.96672
3234.74005	0.96655
3232.68625	0.96634
3230.63245	0.96661
3228.57864	0.96703
3226.52484	0.96756
3224.47104	0.96817
3222.41724	0.96839
3220.36343	0.96802
3218.30963	0.96745
3216.25583	0.96736
3214.20202	0.96794
3212.14822	0.96859
3210.09442	0.96894
3208.04061	0.96914
3205.98681	0.96915
3203.93301	0.96884
3201.87920	0.96861
3199.82540	0.96884
3197.77160	0.96942
3195.71779	0.96992
3193.66399	0.97007
3191.61019	0.97003
3189.55638	0.96979
3187.50258	0.96994
3185.44878	0.97096
3183.39497	0.97170
3181.34117	0.97165
3179.28737	0.97148
3177.23356	0.97136
3175.17976	0.97117
3173.12596	0.97130
3171.07215	0.97196
3169.01835	0.97244
3166.96455	0.97231
3164.91075	0.97208
3162.85694	0.97244
3160.80314	0.97331
3158.74934	0.97404
3156.69553	0.97440
3154.64173	0.97438
3152.58793	0.97409
3150.53412	0.97404
3148.48032	0.97423
3146.42652	0.97425
3144.37271	0.97412
3142.31891	0.97423
3140.26511	0.97458
3138.21130	0.97473
3136.15750	0.97500
3134.10370	0.97552
3132.04989	0.97586
3129.99609	0.97587
3127.94229	0.97569
3125.88848	0.97561
3123.83468	0.97592
3121.78088	0.97647
3119.72707	0.97662
3117.67327	0.97651
3115.61947	0.97671
3113.56566	0.97703
3111.51186	0.97713
3109.45806	0.97670
3107.40426	0.97623
3105.35045	0.97651
3103.29665	0.97700
3101.24285	0.97736
3099.18904	0.97779
3097.13524	0.97800
3095.08144	0.97774
3093.02763	0.97735
3090.97383	0.97730
3088.92003	0.97748
3086.86622	0.97780
3084.81242	0.97824
3082.75862	0.97823
3080.70481	0.97783
3078.65101	0.97780
3076.59721	0.97795
3074.54340	0.97796
3072.48960	0.97839
3070.43580	0.97886
3068.38199	0.97874
3066.32819	0.97877
3064.27439	0.97908
3062.22058	0.97904
3060.16678	0.97906
3058.11298	0.97955
3056.05918	0.98000
3054.00537	0.97987
3051.95157	0.97944
3049.89777	0.97911
3047.84396	0.97910
3045.79016	0.97958
3043.73636	0.98010
3041.68255	0.98012
3039.62875	0.97988
3037.57495	0.97976
3035.52114	0.97992
3033.46734	0.98046
3031.41354	0.98086
3029.35973	0.98064
3027.30593	0.98017
3025.25213	0.97986
3023.19832	0.98001
3021.14452	0.98053
3019.09072	0.98078
3017.03691	0.98056
3014.98311	0.98008
3012.92931	0.97974
3010.87550	0.98017
3008.82170	0.98082
3006.76790	0.98086
3004.71409	0.98067
3002.66029	0.98053
3000.60649	0.98052
2998.55269	0.98077
2996.49888	0.98099
2994.44508	0.98096
2992.39128	0.98072
2990.33747	0.98038
2988.28367	0.98014
2986.22987	0.98012
2984.17606	0.98025
2982.12226	0.98025
2980.06846	0.97991
2978.01465	0.97924
2975.96085	0.97847
2973.90705	0.97772
2971.85324	0.97687
2969.79944	0.97598
2967.74564	0.97508
2965.69183	0.97408
2963.63803	0.97324
2961.58423	0.97257
2959.53042	0.97163
2957.47662	0.97043
2955.42282	0.96913
2953.36901	0.96775
2951.31521	0.96651
2949.26141	0.96517
2947.20761	0.96305
2945.15380	0.96001
2943.10000	0.95596
2941.04620	0.95036
2938.99239	0.94327
2936.93859	0.93511
2934.88479	0.92572
2932.83098	0.91455
2930.77718	0.90125
2928.72338	0.88560
2926.66957	0.86715
2924.61577	0.84545
2922.56197	0.82041
2920.50816	0.79261
2918.45436	0.76487
2916.40056	0.74315
2914.34675	0.73417
2912.29295	0.74018
2910.23915	0.75670
2908.18534	0.77683
2906.13154	0.79586
2904.07774	0.81168
2902.02393	0.82430
2899.97013	0.83456
2897.91633	0.84322
2895.86252	0.85111
2893.80872	0.85861
2891.75492	0.86580
2889.70112	0.87324
2887.64731	0.88132
2885.59351	0.88979
2883.53971	0.89816
2881.48590	0.90665
2879.43210	0.91544
2877.37830	0.92359
2875.32449	0.93037
2873.27069	0.93590
2871.21689	0.93975
2869.16308	0.94157
2867.10928	0.94176
2865.05548	0.94003
2863.00167	0.93553
2860.94787	0.92735
2858.89407	0.91415
2856.84026	0.89426
2854.78646	0.86577
2852.73266	0.82831
2850.67885	0.78742
2848.62505	0.75674
2846.57125	0.74968
2844.51744	0.76702
2842.46364	0.79798
2840.40984	0.83101
2838.35603	0.85952
2836.30223	0.88190
2834.24843	0.89909
2832.19463	0.91218
2830.14082	0.92219
2828.08702	0.93003
2826.03322	0.93636
2823.97941	0.94151
2821.92561	0.94567
2819.87181	0.94923
2817.81800	0.95251
2815.76420	0.95526
2813.71040	0.95749
2811.65659	0.95961
2809.60279	0.96159
2807.54899	0.96316
2805.49518	0.96444
2803.44138	0.96562
2801.38758	0.96674
2799.33377	0.96765
2797.27997	0.96829
2795.22617	0.96908
2793.17236	0.97012
2791.11856	0.97095
2789.06476	0.97161
2787.01095	0.97233
2784.95715	0.97303
2782.90335	0.97368
2780.84955	0.97426
2778.79574	0.97476
2776.74194	0.97529
2774.68814	0.97584
2772.63433	0.97635
2770.58053	0.97676
2768.52673	0.97687
2766.47292	0.97691
2764.41912	0.97740
2762.36532	0.97809
2760.31151	0.97843
2758.25771	0.97856
2756.20391	0.97861
2754.15010	0.97858
2752.09630	0.97869
2750.04250	0.97902
2747.98869	0.97936
2745.93489	0.97943
2743.88109	0.97941
2741.82728	0.97948
2739.77348	0.97968
2737.71968	0.98008
2735.66587	0.98039
2733.61207	0.98035
2731.55827	0.98036
2729.50446	0.98064
2727.45066	0.98083
2725.39686	0.98089
2723.34306	0.98110
2721.28925	0.98135
2719.23545	0.98131
2717.18165	0.98106
2715.12784	0.98104
2713.07404	0.98133
2711.02024	0.98152
2708.96643	0.98154
2706.91263	0.98166
2704.85883	0.98197
2702.80502	0.98230
2700.75122	0.98249
2698.69742	0.98245
2696.64361	0.98225
2694.58981	0.98217
2692.53601	0.98219
2690.48220	0.98231
2688.42840	0.98264
2686.37460	0.98279
2684.32079	0.98256
2682.26699	0.98236
2680.21319	0.98255
2678.15938	0.98291
2676.10558	0.98295
2674.05178	0.98274
2671.99797	0.98258
2669.94417	0.98260
2667.89037	0.98276
2665.83657	0.98271
2663.78276	0.98234
2661.72896	0.98197
2659.67516	0.98199
2657.62135	0.98241
2655.56755	0.98272
2653.51375	0.98271
2651.45994	0.98257
2649.40614	0.98255
2647.35234	0.98262
2645.29853	0.98252
2643.24473	0.98246
2641.19093	0.98261
2639.13712	0.98265
2637.08332	0.98262
2635.02952	0.98268
2632.97571	0.98252
2630.92191	0.98214
2628.86811	0.98201
2626.81430	0.98237
2624.76050	0.98306
2622.70670	0.98347
2620.65289	0.98336
2618.59909	0.98314
2616.54529	0.98318
2614.49149	0.98366
2612.43768	0.98445
2610.38388	0.98478
2608.33008	0.98451
2606.27627	0.98447
2604.22247	0.98502
2602.16867	0.98546
2600.11486	0.98550
2598.06106	0.98570
2596.00726	0.98599
2593.95345	0.98579
2591.89965	0.98558
2589.84585	0.98571
2587.79204	0.98594
2585.73824	0.98652
2583.68444	0.98680
2581.63063	0.98626
2579.57683	0.98569
2577.52303	0.98540
2575.46922	0.98525
2573.41542	0.98526
2571.36162	0.98542
2569.30781	0.98571
2567.25401	0.98612
2565.20021	0.98661
2563.14640	0.98712
2561.09260	0.98760
2559.03880	0.98774
2556.98500	0.98752
2554.93119	0.98724
2552.87739	0.98701
2550.82359	0.98707
2548.76978	0.98703
2546.71598	0.98661
2544.66218	0.98657
2542.60837	0.98708
2540.55457	0.98747
2538.50077	0.98757
2536.44696	0.98799
2534.39316	0.98853
2532.33936	0.98856
2530.28555	0.98857
2528.23175	0.98843
2526.17795	0.98774
2524.12414	0.98713
2522.07034	0.98696
2520.01654	0.98710
2517.96273	0.98743
2515.90893	0.98786
2513.85513	0.98846
2511.80132	0.98888
2509.74752	0.98841
2507.69372	0.98743
2505.63992	0.98709
2503.58611	0.98754
2501.53231	0.98814
2499.47851	0.98833
2497.42470	0.98814
2495.37090	0.98815
2493.31710	0.98841
2491.26329	0.98840
2489.20949	0.98823
2487.15569	0.98849
2485.10188	0.98897
2483.04808	0.98897
2480.99428	0.98874
2478.94047	0.98866
2476.88667	0.98836
2474.83287	0.98807
2472.77906	0.98818
2470.72526	0.98839
2468.67146	0.98862
2466.61765	0.98878
2464.56385	0.98901
2462.51005	0.98950
2460.45624	0.98948
2458.40244	0.98854
2456.34864	0.98758
2454.29483	0.98730
2452.24103	0.98764
2450.18723	0.98816
2448.13343	0.98848
2446.07962	0.98869
2444.02582	0.98897
2441.97202	0.98914
2439.91821	0.98872
2437.86441	0.98809
2435.81061	0.98826
2433.75680	0.98919
2431.70300	0.98992
2429.64920	0.98989
2427.59539	0.98916
2425.54159	0.98835
2423.48779	0.98818
2421.43398	0.98817
2419.38018	0.98791
2417.32638	0.98803
2415.27257	0.98846
2413.21877	0.98845
2411.16497	0.98801
2409.11116	0.98795
2407.05736	0.98842
2405.00356	0.98838
2402.94975	0.98802
2400.89595	0.98857
2398.84215	0.98935
2396.78834	0.98921
2394.73454	0.98869
2392.68074	0.98856
2390.62694	0.98883
2388.57313	0.98910
2386.51933	0.98918
2384.46553	0.98903
2382.41172	0.98897
2380.35792	0.98926
2378.30412	0.98965
2376.25031	0.98994
2374.19651	0.98958
2372.14271	0.98900
2370.08890	0.98950
2368.03510	0.98998
2365.98130	0.98931
2363.92749	0.98793
2361.87369	0.98609
2359.81989	0.98550
2357.76608	0.98703
2355.71228	0.98872
2353.65848	0.98919
2351.60467	0.98868
2349.55087	0.98812
2347.49707	0.98815
2345.44326	0.98833
2343.38946	0.98763
2341.33566	0.98674
2339.28186	0.98634
2337.22805	0.98589
2335.17425	0.98594
2333.12045	0.98671
2331.06664	0.98703
2329.01284	0.98701
2326.95904	0.98717
2324.90523	0.98687
2322.85143	0.98650
2320.79763	0.98667
2318.74382	0.98675
2316.69002	0.98653
2314.63622	0.98658
2312.58241	0.98705
2310.52861	0.98750
2308.47481	0.98784
2306.42100	0.98836
2304.36720	0.98906
2302.31340	0.98936
2300.25959	0.98891
2298.20579	0.98814
2296.15199	0.98799
2294.09818	0.98865
2292.04438	0.98904
2289.99058	0.98887
2287.93677	0.98867
2285.88297	0.98858
2283.82917	0.98870
2281.77537	0.98904
2279.72156	0.98903
2277.66776	0.98898
2275.61396	0.98954
2273.56015	0.98943
2271.50635	0.98826
2269.45255	0.98783
2267.39874	0.98822
2265.34494	0.98821
2263.29114	0.98803
2261.23733	0.98856
2259.18353	0.98931
2257.12973	0.98902
2255.07592	0.98860
2253.02212	0.98916
2250.96832	0.98962
2248.91451	0.98965
2246.86071	0.98988
2244.80691	0.98999
2242.75310	0.98949
2240.69930	0.98902
2238.64550	0.98945
2236.59169	0.99011
2234.53789	0.98937
2232.48409	0.98763
2230.43029	0.98716
2228.37648	0.98822
2226.32268	0.98899
2224.26888	0.98937
2222.21507	0.98977
2220.16127	0.98891
2218.10747	0.98794
2216.05366	0.98899
2213.99986	0.99063
2211.94606	0.99048
2209.89225	0.98935
2207.83845	0.98937
2205.78465	0.99063
2203.73084	0.99169
2201.67704	0.99123
2199.62324	0.99019
2197.56943	0.99016
2195.51563	0.98998
2193.46183	0.98914
2191.40802	0.98884
2189.35422	0.98874
2187.30042	0.98872
2185.24661	0.98951
2183.19281	0.99057
2181.13901	0.99195
2179.08520	0.99281
2177.03140	0.99155
2174.97760	0.99080
2172.92380	0.99177
2170.86999	0.99214
2168.81619	0.99227
2166.76239	0.99335
2164.70858	0.99407
2162.65478	0.99263
2160.60098	0.99114
2158.54717	0.99208
2156.49337	0.99362
2154.43957	0.99396
2152.38576	0.99394
2150.33196	0.99442
2148.27816	0.99438
2146.22435	0.99330
2144.17055	0.99173
2142.11675	0.99026
2140.06294	0.99009
2138.00914	0.99110
2135.95534	0.99173
2133.90153	0.99280
2131.84773	0.99381
2129.79393	0.99297
2127.74012	0.99225
2125.68632	0.99261
2123.63252	0.99233
2121.57871	0.99129
2119.52491	0.99058
2117.47111	0.99007
2115.41731	0.98933
2113.36350	0.98914
2111.30970	0.98972
2109.25590	0.98961
2107.20209	0.98900
2105.14829	0.98957
2103.09449	0.99054
2101.04068	0.99053
2098.98688	0.98950
2096.93308	0.98911
2094.87927	0.99061
2092.82547	0.99173
2090.77167	0.99120
2088.71786	0.99069
2086.66406	0.99083
2084.61026	0.99125
2082.55645	0.99166
2080.50265	0.99109
2078.44885	0.99002
2076.39504	0.98990
2074.34124	0.98946
2072.28744	0.98844
2070.23363	0.98856
2068.17983	0.98925
2066.12603	0.99016
2064.07223	0.99123
2062.01842	0.99048
2059.96462	0.98832
2057.91082	0.98728
2055.85701	0.98807
2053.80321	0.98981
2051.74941	0.99062
2049.69560	0.99033
2047.64180	0.99066
2045.58800	0.99070
2043.53419	0.98945
2041.48039	0.98915
2039.42659	0.99041
2037.37278	0.99054
2035.31898	0.98962
2033.26518	0.98945
2031.21137	0.98949
2029.15757	0.99025
2027.10377	0.99121
2025.04996	0.99068
2022.99616	0.99037
2020.94236	0.99113
2018.88855	0.99096
2016.83475	0.99044
2014.78095	0.99004
2012.72714	0.98974
2010.67334	0.99074
2008.61954	0.99095
2006.56574	0.98896
2004.51193	0.98804
2002.45813	0.98983
2000.40433	0.99233
1998.35052	0.99350
1996.29672	0.99327
1994.24292	0.99329
1992.18911	0.99433
1990.13531	0.99384
1988.08151	0.99065
1986.02770	0.98941
1983.97390	0.99239
1981.92010	0.99417
1979.86629	0.99268
1977.81249	0.99280
1975.75869	0.99439
1973.70488	0.99288
1971.65108	0.99158
1969.59728	0.99366
1967.54347	0.99557
1965.48967	0.99520
1963.43587	0.99369
1961.38206	0.99305
1959.32826	0.99369
1957.27446	0.99433
1955.22066	0.99416
1953.16685	0.99323
1951.11305	0.99211
1949.05925	0.99118
1947.00544	0.99081
1944.95164	0.99029
1942.89784	0.98893
1940.84403	0.98803
1938.79023	0.98891
1936.73643	0.99082
1934.68262	0.99203
1932.62882	0.99123
1930.57502	0.98988
1928.52121	0.99058
1926.46741	0.99228
1924.41361	0.99213
1922.35980	0.99032
1920.30600	0.98933
1918.25220	0.99010
1916.19839	0.99092
1914.14459	0.99021
1912.09079	0.98881
1910.03698	0.98809
1907.98318	0.98909
1905.92938	0.99056
1903.87557	0.99052
1901.82177	0.98958
1899.76797	0.98880
1897.71417	0.98849
1895.66036	0.98897
1893.60656	0.98986
1891.55276	0.99029
1889.49895	0.99037
1887.44515	0.99041
1885.39135	0.99023
1883.33754	0.99030
1881.28374	0.99077
1879.22994	0.99101
1877.17613	0.99074
1875.12233	0.99040
1873.06853	0.99039
1871.01472	0.99049
1868.96092	0.99059
1866.90712	0.99041
1864.85331	0.99020
1862.79951	0.99053
1860.74571	0.99076
1858.69190	0.99013
1856.63810	0.98934
1854.58430	0.98945
1852.53049	0.99002
1850.47669	0.99012
1848.42289	0.99026
1846.36908	0.99084
1844.31528	0.99114
1842.26148	0.99085
1840.20768	0.99038
1838.15387	0.99006
1836.10007	0.98998
1834.04627	0.99004
1831.99246	0.99042
1829.93866	0.99088
1827.88486	0.99078
1825.83105	0.99054
1823.77725	0.99041
1821.72345	0.99019
1819.66964	0.99008
1817.61584	0.99020
1815.56204	0.98995
1813.50823	0.98930
1811.45443	0.98915
1809.40063	0.98937
1807.34682	0.98918
1805.29302	0.98898
1803.23922	0.98931
1801.18541	0.98953
1799.13161	0.98932
1797.07781	0.98926
1795.02400	0.98955
1792.97020	0.98985
1790.91640	0.98944
1788.86260	0.98894
1786.80879	0.98893
1784.75499	0.98903
1782.70119	0.98909
1780.64738	0.98896
1778.59358	0.98850
1776.53978	0.98831
1774.48597	0.98842
1772.43217	0.98812
1770.37837	0.98778
1768.32456	0.98770
1766.27076	0.98723
1764.21696	0.98689
1762.16315	0.98714
1760.10935	0.98733
1758.05555	0.98724
1756.00174	0.98694
1753.94794	0.98615
1751.89414	0.98511
1749.84033	0.98464
1747.78653	0.98453
1745.73273	0.98395
1743.67892	0.98342
1741.62512	0.98284
1739.57132	0.98173
1737.51751	0.98074
1735.46371	0.98053
1733.40991	0.98083
1731.35611	0.98071
1729.30230	0.98056
1727.24850	0.98068
1725.19470	0.98055
1723.14089	0.98025
1721.08709	0.98036
1719.03329	0.98066
1716.97948	0.98036
1714.92568	0.97921
1712.87188	0.97835
1710.81807	0.97817
1708.76427	0.97821
1706.71047	0.97806
1704.65666	0.97758
1702.60286	0.97714
1700.54906	0.97689
1698.49525	0.97627
1696.44145	0.97526
1694.38765	0.97472
1692.33384	0.97462
1690.28004	0.97400
1688.22624	0.97281
1686.17243	0.97189
1684.11863	0.97134
1682.06483	0.97086
1680.01103	0.97018
1677.95722	0.96949
1675.90342	0.96898
1673.84962	0.96844
1671.79581	0.96780
1669.74201	0.96691
1667.68821	0.96622
1665.63440	0.96594
1663.58060	0.96547
1661.52680	0.96491
1659.47299	0.96467
1657.41919	0.96446
1655.36539	0.96428
1653.31158	0.96405
1651.25778	0.96326
1649.20398	0.96258
1647.15017	0.96208
1645.09637	0.96173
1643.04257	0.96167
1640.98876	0.96186
1638.93496	0.96204
1636.88116	0.96200
1634.82735	0.96195
1632.77355	0.96179
1630.71975	0.96141
1628.66594	0.96099
1626.61214	0.96090
1624.55834	0.96124
1622.50454	0.96157
1620.45073	0.96174
1618.39693	0.96236
1616.34313	0.96363
1614.28932	0.96484
1612.23552	0.96586
1610.18172	0.96679
1608.12791	0.96749
1606.07411	0.96815
1604.02031	0.96899
1601.96650	0.96964
1599.91270	0.96987
1597.85890	0.97003
1595.80509	0.97025
1593.75129	0.97044
1591.69749	0.97066
1589.64368	0.97080
1587.58988	0.97077
1585.53608	0.97078
1583.48227	0.97103
1581.42847	0.97136
1579.37467	0.97145
1577.32086	0.97141
1575.26706	0.97165
1573.21326	0.97200
1571.15945	0.97208
1569.10565	0.97199
1567.05185	0.97227
1564.99805	0.97273
1562.94424	0.97273
1560.89044	0.97236
1558.83664	0.97242
1556.78283	0.97289
1554.72903	0.97288
1552.67523	0.97292
1550.62142	0.97306
1548.56762	0.97295
1546.51382	0.97287
1544.46001	0.97317
1542.40621	0.97381
1540.35241	0.97417
1538.29860	0.97394
1536.24480	0.97394
1534.19100	0.97468
1532.13719	0.97584
1530.08339	0.97632
1528.02959	0.97658
1525.97578	0.97723
1523.92198	0.97800
1521.86818	0.97866
1519.81437	0.97886
1517.76057	0.97839
1515.70677	0.97787
1513.65297	0.97801
1511.59916	0.97852
1509.54536	0.97885
1507.49156	0.97900
1505.43775	0.97924
1503.38395	0.97933
1501.33015	0.97943
1499.27634	0.97944
1497.22254	0.97939
1495.16874	0.97921
1493.11493	0.97891
1491.06113	0.97876
1489.00733	0.97840
1486.95352	0.97750
1484.89972	0.97651
1482.84592	0.97509
1480.79211	0.97245
1478.73831	0.96660
1476.68451	0.95068
1474.63070	0.91884
1472.57690	0.88852
1470.52310	0.88792
1468.46929	0.89919
1466.41549	0.90259
1464.36169	0.89282
1462.30788	0.88639
1460.25408	0.89676
1458.20028	0.91971
1456.14648	0.94104
1454.09267	0.94924
1452.03887	0.95315
1449.98507	0.95625
1447.93126	0.95860
1445.87746	0.96014
1443.82366	0.96107
1441.76985	0.96165
1439.71605	0.96218
1437.66225	0.96303
1435.60844	0.96420
1433.55464	0.96516
1431.50084	0.96613
1429.44703	0.96732
1427.39323	0.96841
1425.33943	0.96928
1423.28562	0.96997
1421.23182	0.97024
1419.17802	0.97018
1417.12421	0.97021
1415.07041	0.97042
1413.01661	0.97068
1410.96280	0.97103
1408.90900	0.97148
1406.85520	0.97205
1404.80139	0.97271
1402.74759	0.97305
1400.69379	0.97305
1398.63999	0.97299
1396.58618	0.97305
1394.53238	0.97343
1392.47858	0.97385
1390.42477	0.97406
1388.37097	0.97414
1386.31717	0.97383
1384.26336	0.97332
1382.20956	0.97296
1380.15576	0.97267
1378.10195	0.97240
1376.04815	0.97198
1373.99435	0.97152
1371.94054	0.97143
1369.88674	0.97132
1367.83294	0.97081
1365.77913	0.97047
1363.72533	0.97084
1361.67153	0.97174
1359.61772	0.97235
1357.56392	0.97239
1355.51012	0.97243
1353.45631	0.97280
1351.40251	0.97319
1349.34871	0.97348
1347.29491	0.97380
1345.24110	0.97409
1343.18730	0.97456
1341.13350	0.97503
1339.07969	0.97500
1337.02589	0.97475
1334.97209	0.97490
1332.91828	0.97513
1330.86448	0.97498
1328.81068	0.97494
1326.75687	0.97519
1324.70307	0.97516
1322.64927	0.97476
1320.59546	0.97433
1318.54166	0.97423
1316.48786	0.97439
1314.43405	0.97446
1312.38025	0.97434
1310.32645	0.97400
1308.27264	0.97362
1306.21884	0.97348
1304.16504	0.97342
1302.11123	0.97327
1300.05743	0.97326
1298.00363	0.97334
1295.94982	0.97332
1293.89602	0.97332
1291.84222	0.97329
1289.78842	0.97344
1287.73461	0.97378
1285.68081	0.97378
1283.62701	0.97345
1281.57320	0.97326
1279.51940	0.97304
1277.46560	0.97254
1275.41179	0.97208
1273.35799	0.97191
1271.30419	0.97176
1269.25038	0.97133
1267.19658	0.97077
1265.14278	0.97040
1263.08897	0.97012
1261.03517	0.96975
1258.98137	0.96955
1256.92756	0.96954
1254.87376	0.96930
1252.81996	0.96865
1250.76615	0.96799
1248.71235	0.96765
1246.65855	0.96737
1244.60474	0.96691
1242.55094	0.96642
1240.49714	0.96599
1238.44334	0.96556
1236.38953	0.96520
1234.33573	0.96505
1232.28193	0.96482
1230.22812	0.96432
1228.17432	0.96380
1226.12052	0.96339
1224.06671	0.96299
1222.01291	0.96257
1219.95911	0.96205
1217.90530	0.96146
1215.85150	0.96092
1213.79770	0.96025
1211.74389	0.95932
1209.69009	0.95852
1207.63629	0.95814
1205.58248	0.95756
1203.52868	0.95644
1201.47488	0.95534
1199.42107	0.95432
1197.36727	0.95296
1195.31347	0.95148
1193.25966	0.95007
1191.20586	0.94842
1189.15206	0.94662
1187.09825	0.94500
1185.04445	0.94324
1182.99065	0.94080
1180.93685	0.93820
1178.88304	0.93597
1176.82924	0.93362
1174.77544	0.93084
1172.72163	0.92803
1170.66783	0.92571
1168.61403	0.92369
1166.56022	0.92140
1164.50642	0.91898
1162.45262	0.91690
1160.39881	0.91529
1158.34501	0.91399
1156.29121	0.91273
1154.23740	0.91128
1152.18360	0.90969
1150.12980	0.90811
1148.07599	0.90646
1146.02219	0.90487
1143.96839	0.90383
1141.91458	0.90331
1139.86078	0.90271
1137.80698	0.90173
1135.75317	0.90039
1133.69937	0.89876
1131.64557	0.89694
1129.59176	0.89489
1127.53796	0.89261
1125.48416	0.88991
1123.43036	0.88660
1121.37655	0.88297
1119.32275	0.87934
1117.26895	0.87595
1115.21514	0.87305
1113.16134	0.87067
1111.10754	0.86856
1109.05373	0.86630
1106.99993	0.86404
1104.94613	0.86225
1102.89232	0.86101
1100.83852	0.86011
1098.78472	0.85938
1096.73091	0.85925
1094.67711	0.85955
1092.62331	0.85967
1090.56950	0.85969
1088.51570	0.85959
1086.46190	0.85917
1084.40809	0.85893
1082.35429	0.85905
1080.30049	0.85885
1078.24668	0.85835
1076.19288	0.85789
1074.13908	0.85698
1072.08528	0.85560
1070.03147	0.85418
1067.97767	0.85266
1065.92387	0.85067
1063.87006	0.84807
1061.81626	0.84534
1059.76246	0.84314
1057.70865	0.84093
1055.65485	0.83776
1053.60105	0.83375
1051.54724	0.82961
1049.49344	0.82597
1047.43964	0.82289
1045.38583	0.81997
1043.33203	0.81694
1041.27823	0.81387
1039.22442	0.81090
1037.17062	0.80823
1035.11682	0.80653
1033.06301	0.80599
1031.00921	0.80581
1028.95541	0.80608
1026.90160	0.80741
1024.84780	0.80916
1022.79400	0.81056
1020.74019	0.81162
1018.68639	0.81242
1016.63259	0.81324
1014.57879	0.81408
1012.52498	0.81451
1010.47118	0.81493
1008.41738	0.81586
1006.36357	0.81741
1004.30977	0.81991
1002.25597	0.82358
1000.20216	0.82819
998.14836	0.83340
996.09456	0.83877
994.04075	0.84419
991.98695	0.84995
989.93315	0.85603
987.87934	0.86210
985.82554	0.86754
983.77174	0.87235
981.71793	0.87716
979.66413	0.88216
977.61033	0.88718
975.55652	0.89188
973.50272	0.89608
971.44892	0.89985
969.39511	0.90351
967.34131	0.90709
965.28751	0.91027
963.23371	0.91333
961.17990	0.91624
959.12610	0.91841
957.07230	0.92009
955.01849	0.92148
952.96469	0.92250
950.91089	0.92380
948.85708	0.92557
946.80328	0.92704
944.74948	0.92780
942.69567	0.92805
940.64187	0.92841
938.58807	0.92914
936.53426	0.92992
934.48046	0.93063
932.42666	0.93138
930.37285	0.93211
928.31905	0.93225
926.26525	0.93155
924.21144	0.93087
922.15764	0.93057
920.10384	0.93003
918.05003	0.92902
915.99623	0.92788
913.94243	0.92694
911.88862	0.92642
909.83482	0.92682
907.78102	0.92907
905.72722	0.93307
903.67341	0.93719
901.61961	0.94021
899.56581	0.94226
897.51200	0.94422
895.45820	0.94650
893.40440	0.94826
891.35059	0.94925
889.29679	0.95013
887.24299	0.95085
885.18918	0.95140
883.13538	0.95228
881.08158	0.95326
879.02777	0.95383
876.97397	0.95429
874.92017	0.95517
872.86636	0.95631
870.81256	0.95691
868.75876	0.95712
866.70495	0.95790
864.65115	0.95872
862.59735	0.95925
860.54354	0.96008
858.48974	0.96092
856.43594	0.96175
854.38213	0.96287
852.32833	0.96369
850.27453	0.96375
848.22073	0.96361
846.16692	0.96365
844.11312	0.96334
842.05932	0.96269
840.00551	0.96251
837.95171	0.96249
835.89791	0.96212
833.84410	0.96206
831.79030	0.96236
829.73650	0.96197
827.68269	0.96077
825.62889	0.95997
823.57509	0.95988
821.52128	0.95944
819.46748	0.95853
817.41368	0.95824
815.35987	0.95821
813.30607	0.95751
811.25227	0.95644
809.19846	0.95549
807.14466	0.95440
805.09086	0.95307
803.03705	0.95160
800.98325	0.95013
798.92945	0.94903
796.87565	0.94814
794.82184	0.94791
792.76804	0.94863
790.71424	0.94930
788.66043	0.94947
786.60663	0.94927
784.55283	0.94864
782.49902	0.94789
780.44522	0.94776
778.39142	0.94810
776.33761	0.94886
774.28381	0.94983
772.23001	0.94983
770.17620	0.94910
768.12240	0.94870
766.06860	0.94860
764.01479	0.94808
761.96099	0.94683
759.90719	0.94553
757.85338	0.94468
755.79958	0.94419
753.74578	0.94358
751.69197	0.94260
749.63817	0.94236
747.58437	0.94303
745.53056	0.94311
743.47676	0.94282
741.42296	0.94274
739.36916	0.94221
737.31535	0.93998
735.26155	0.93085
733.20775	0.90917
731.15394	0.88455
729.10014	0.87803
727.04634	0.88874
724.99253	0.89442
722.93873	0.88126
720.88493	0.85233
718.83112	0.82985
716.77732	0.83478
714.72352	0.86051
712.66971	0.88819
710.61591	0.90699
708.56211	0.91673
706.50830	0.92063
704.45450	0.92139
702.40070	0.92179
700.34689	0.92250
698.29309	0.92254
696.23929	0.92205
694.18548	0.92223
692.13168	0.92349
690.07788	0.92446
688.02408	0.92417
685.97027	0.92380
683.91647	0.92455
681.86267	0.92545
679.80886	0.92515
677.75506	0.92370
675.70126	0.92187
673.64745	0.92061
671.59365	0.91999
669.53985	0.92030
667.48604	0.92312
665.43224	0.92599
663.37844	0.92760
661.32463	0.92899
659.27083	0.93022
657.21703	0.93125
655.16322	0.93159
653.10942	0.93058
651.05562	0.92959
649.00181	0.92993
646.94801	0.93061
644.89421	0.93063
642.84040	0.92989
640.78660	0.92891
638.73280	0.92844
636.67899	0.92825
634.62519	0.92772
632.57139	0.92738
630.51759	0.92742
628.46378	0.92701
626.40998	0.92585
624.35618	0.92422
622.30237	0.92312
620.24857	0.92297
618.19477	0.92249
616.14096	0.92132
614.08716	0.92051
612.03336	0.91965
609.97955	0.91759
607.92575	0.91467
605.87195	0.91207
603.81814	0.91085
601.76434	0.91090
599.71054	0.91110
597.65673	0.91096
595.60293	0.91014
593.54913	0.90861
591.49532	0.90767
589.44152	0.90800
587.38772	0.90842
585.33391	0.90819
583.28011	0.90719
581.22631	0.90568
579.17250	0.90539
577.11870	0.90625
575.06490	0.90566
573.01110	0.90398
570.95729	0.90232
568.90349	0.89958
566.84969	0.89741
564.79588	0.89798
562.74208	0.89918
560.68828	0.89875
558.63447	0.89719
556.58067	0.89501
554.52687	0.89229
552.47306	0.88988
550.41926	0.88827
548.36546	0.88759
546.31165	0.88621
544.25785	0.88150
542.20405	0.87542
540.15024	0.87225
538.09644	0.87225
536.04264	0.87235
533.98883	0.87101
531.93503	0.86902
529.88123	0.86838
527.82742	0.87072
525.77362	0.87404
523.71982	0.87595
521.66602	0.87694
519.61221	0.87852
517.55841	0.88189
515.50461	0.88465
513.45080	0.88658
511.39700	0.88950
509.34320	0.89084
507.28939	0.89004
505.23559	0.88951
503.18179	0.89066
501.12798	0.89409
499.07418	0.89588
497.02038	0.89512
494.96657	0.89591
492.91277	0.89669
490.85897	0.89424
488.80516	0.88981
486.75136	0.88468
484.69756	0.87959
482.64375	0.87584
480.58995	0.87259
478.53615	0.86758
476.48234	0.86094
474.42854	0.85358
472.37474	0.84632
470.32093	0.84168
468.26713	0.84024
466.21333	0.84116
464.15953	0.84404
462.10572	0.84760
460.05192	0.85081
457.99812	0.85394
455.94431	0.85722
453.89051	0.86164
451.83671	0.86622
449.78290	0.86812
447.72910	0.86851
445.67530	0.86869
443.62149	0.87035
441.56769	0.87431
439.51389	0.87471
437.46008	0.87050
435.40628	0.86834
433.35248	0.87108
431.29867	0.87499
429.24487	0.87738
427.19107	0.87742
425.13726	0.87598
423.08346	0.87469
421.02966	0.87546
418.97585	0.88166
416.92205	0.88534
414.86825	0.88297
412.81445	0.88278
410.76064	0.88897
408.70684	0.89773
406.65304	0.90073
404.59923	0.90054
402.54543	0.90479
400.49163	0.91187
398.43782	0.91820
