3996.70104	0.93491
3994.64724	0.93452
3992.59344	0.93380
3990.53964	0.93374
3988.48583	0.93430
3986.43203	0.93467
3984.37823	0.93464
3982.32442	0.93426
3980.27062	0.93385
3978.21682	0.93403
3976.16301	0.93465
3974.10921	0.93457
3972.05541	0.93360
3970.00160	0.93318
3967.94780	0.93360
3965.89400	0.93399
3963.84019	0.93414
3961.78639	0.93429
3959.73259	0.93442
3957.67878	0.93457
3955.62498	0.93487
3953.57118	0.93507
3951.51737	0.93501
3949.46357	0.93478
3947.40977	0.93428
3945.35596	0.93395
3943.30216	0.93448
3941.24836	0.93529
3939.19455	0.93545
3937.14075	0.93521
3935.08695	0.93512
3933.03315	0.93560
3930.97934	0.93612
3928.92554	0.93603
3926.87174	0.93551
3924.81793	0.93482
3922.76413	0.93431
3920.71033	0.93416
3918.65652	0.93459
3916.60272	0.93510
3914.54892	0.93503
3912.49511	0.93486
3910.44131	0.93470
3908.38751	0.93462
3906.33370	0.93489
3904.27990	0.93557
3902.22610	0.93615
3900.17229	0.93613
3898.11849	0.93603
3896.06469	0.93605
3894.01088	0.93597
3891.95708	0.93570
3889.90328	0.93512
3887.84947	0.93457
3885.79567	0.93463
3883.74187	0.93528
3881.68807	0.93560
3879.63426	0.93566
3877.58046	0.93591
3875.52666	0.93623
3873.47285	0.93644
3871.41905	0.93624
3869.36525	0.93552
3867.31144	0.93476
3865.25764	0.93454
3863.20384	0.93494
3861.15003	0.93522
3859.09623	0.93522
3857.04243	0.93560
3854.98862	0.93619
3852.93482	0.93595
3850.88102	0.93541
3848.82721	0.93547
3846.77341	0.93597
3844.71961	0.93632
3842.66580	0.93554
3840.61200	0.93422
3838.55820	0.93395
3836.50439	0.93483
3834.45059	0.93555
3832.39679	0.93538
3830.34298	0.93488
3828.28918	0.93479
3826.23538	0.93495
3824.18158	0.93527
3822.12777	0.93574
3820.07397	0.93578
3818.02017	0.93544
3815.96636	0.93539
3813.91256	0.93571
3811.85876	0.93615
3809.80495	0.93638
3807.75115	0.93636
3805.69735	0.93655
3803.64354	0.93694
3801.58974	0.93712
3799.53594	0.93671
3797.48213	0.93599
3795.42833	0.93564
3793.37453	0.93577
3791.32072	0.93609
3789.26692	0.93659
3787.21312	0.93711
3785.15931	0.93728
3783.10551	0.93692
3781.05171	0.93666
3778.99790	0.93701
3776.94410	0.93724
3774.89030	0.93691
3772.83650	0.93625
3770.78269	0.93609
3768.72889	0.93682
3766.67509	0.93733
3764.62128	0.93730
3762.56748	0.93740
3760.51368	0.93760
3758.45987	0.93730
3756.40607	0.93659
3754.35227	0.93609
3752.29846	0.93584
3750.24466	0.93580
3748.19086	0.93616
3746.13705	0.93662
3744.08325	0.93711
3742.02945	0.93777
3739.97564	0.93846
3737.92184	0.93920
3735.86804	0.93958
3733.81423	0.93923
3731.76043	0.93862
3729.70663	0.93855
3727.65282	0.93902
3725.59902	0.93907
3723.54522	0.93849
3721.49141	0.93795
3719.43761	0.93737
3717.38381	0.93646
3715.33001	0.93549
3713.27620	0.93476
3711.22240	0.93382
3709.16860	0.93256
3707.11479	0.93128
3705.06099	0.92992
3703.00719	0.92866
3700.95338	0.92720
3698.89958	0.92577
3696.84578	0.92538
3694.79197	0.92574
3692.73817	0.92584
3690.68437	0.92616
3688.63056	0.92730
3686.57676	0.92763
3684.52296	0.92689
3682.46915	0.92627
3680.41535	0.92624
3678.36155	0.92620
3676.30774	0.92593
3674.25394	0.92550
3672.20014	0.92435
3670.14633	0.92323
3668.09253	0.92347
3666.03873	0.92444
3663.98492	0.92480
3661.93112	0.92403
3659.87732	0.92298
3657.82352	0.92250
3655.76971	0.92242
3653.71591	0.92266
3651.66211	0.92296
3649.60830	0.92222
3647.55450	0.92079
3645.50070	0.92058
3643.44689	0.92042
3641.39309	0.91933
3639.33929	0.91786
3637.28548	0.91727
3635.23168	0.91772
3633.17788	0.91786
3631.12407	0.91693
3629.07027	0.91532
3627.01647	0.91424
3624.96266	0.91383
3622.90886	0.91371
3620.85506	0.91401
3618.80125	0.91449
3616.74745	0.91485
3614.69365	0.91516
3612.63984	0.91520
3610.58604	0.91504
3608.53224	0.91519
3606.47844	0.91521
3604.42463	0.91507
3602.37083	0.91486
3600.31703	0.91394
3598.26322	0.91320
3596.20942	0.91351
3594.15562	0.91388
3592.10181	0.91395
3590.04801	0.91403
3587.99421	0.91413
3585.94040	0.91420
3583.88660	0.91422
3581.83280	0.91425
3579.77899	0.91435
3577.72519	0.91419
3575.67139	0.91370
3573.61758	0.91331
3571.56378	0.91338
3569.50998	0.91353
3567.45617	0.91309
3565.40237	0.91262
3563.34857	0.91250
3561.29476	0.91227
3559.24096	0.91200
3557.18716	0.91181
3555.13335	0.91163
3553.07955	0.91140
3551.02575	0.91136
3548.97195	0.91172
3546.91814	0.91188
3544.86434	0.91128
3542.81054	0.91079
3540.75673	0.91060
3538.70293	0.91017
3536.64913	0.90992
3534.59532	0.91015
3532.54152	0.91042
3530.48772	0.91043
3528.43391	0.91020
3526.38011	0.91012
3524.32631	0.91058
3522.27250	0.91084
3520.21870	0.91053
3518.16490	0.91036
3516.11109	0.91017
3514.05729	0.90955
3512.00349	0.90909
3509.94968	0.90939
3507.89588	0.90986
3505.84208	0.90993
3503.78827	0.90964
3501.73447	0.90905
3499.68067	0.90877
3497.62687	0.90894
3495.57306	0.90898
3493.51926	0.90880
3491.46546	0.90864
3489.41165	0.90843
3487.35785	0.90819
3485.30405	0.90797
3483.25024	0.90767
3481.19644	0.90765
3479.14264	0.90812
3477.08883	0.90853
3475.03503	0.90852
3472.98123	0.90797
3470.92742	0.90699
3468.87362	0.90619
3466.81982	0.90594
3464.76601	0.90609
3462.71221	0.90646
3460.65841	0.90689
3458.60460	0.90698
3456.55080	0.90649
3454.49700	0.90571
3452.44319	0.90529
3450.38939	0.90552
3448.33559	0.90582
3446.28178	0.90577
3444.22798	0.90578
3442.17418	0.90582
3440.12038	0.90541
3438.06657	0.90465
3436.01277	0.90418
3433.95897	0.90428
3431.90516	0.90475
3429.85136	0.90499
3427.79756	0.90487
3425.74375	0.90488
3423.68995	0.90485
3421.63615	0.90433
3419.58234	0.90364
3417.52854	0.90321
3415.47474	0.90309
3413.42093	0.90326
3411.36713	0.90360
3409.31333	0.90380
3407.25952	0.90362
3405.20572	0.90286
3403.15192	0.90187
3401.09811	0.90162
3399.04431	0.90238
3396.99051	0.90299
3394.93670	0.90272
3392.88290	0.90247
3390.82910	0.90297
3388.77529	0.90353
3386.72149	0.90355
3384.66769	0.90324
3382.61389	0.90292
3380.56008	0.90285
3378.50628	0.90318
3376.45248	0.90336
3374.39867	0.90295
3372.34487	0.90247
3370.29107	0.90245
3368.23726	0.90276
3366.18346	0.90299
3364.12966	0.90290
3362.07585	0.90288
3360.02205	0.90325
3357.96825	0.90360
3355.91444	0.90369
3353.86064	0.90383
3351.80684	0.90423
3349.75303	0.90445
3347.69923	0.90423
3345.64543	0.90369
3343.59162	0.90333
3341.53782	0.90358
3339.48402	0.90389
3337.43021	0.90379
3335.37641	0.90350
3333.32261	0.90341
3331.26881	0.90351
3329.21500	0.90353
3327.16120	0.90379
3325.10740	0.90429
3323.05359	0.90449
3320.99979	0.90450
3318.94599	0.90465
3316.89218	0.90463
3314.83838	0.90445
3312.78458	0.90449
3310.73077	0.90467
3308.67697	0.90474
3306.62317	0.90472
3304.56936	0.90493
3302.51556	0.90572
3300.46176	0.90664
3298.40795	0.90675
3296.35415	0.90632
3294.30035	0.90623
3292.24654	0.90629
3290.19274	0.90588
3288.13894	0.90541
3286.08513	0.90546
3284.03133	0.90565
3281.97753	0.90583
3279.92372	0.90644
3277.86992	0.90710
3275.81612	0.90717
3273.76232	0.90686
3271.70851	0.90681
3269.65471	0.90704
3267.60091	0.90716
3265.54710	0.90719
3263.49330	0.90732
3261.43950	0.90746
3259.38569	0.90770
3257.33189	0.90812
3255.27809	0.90858
3253.22428	0.90888
3251.17048	0.90883
3249.11668	0.90880
3247.06287	0.90896
3245.00907	0.90891
3242.95527	0.90869
3240.90146	0.90871
3238.84766	0.90917
3236.79386	0.90980
3234.74005	0.91005
3232.68625	0.90997
3230.63245	0.90983
3228.57864	0.90957
3226.52484	0.90950
3224.47104	0.91000
3222.41724	0.91059
3220.36343	0.91082
3218.30963	0.91093
3216.25583	0.91106
3214.20202	0.91094
3212.14822	0.91089
3210.09442	0.91170
3208.04061	0.91269
3205.98681	0.91296
3203.93301	0.91292
3201.87920	0.91291
3199.82540	0.91303
3197.77160	0.91344
3195.71779	0.91389
3193.66399	0.91372
3191.61019	0.91310
3189.55638	0.91283
3187.50258	0.91301
3185.44878	0.91333
3183.39497	0.91383
3181.34117	0.91437
3179.28737	0.91451
3177.23356	0.91444
3175.17976	0.91462
3173.12596	0.91495
3171.07215	0.91511
3169.01835	0.91500
3166.96455	0.91508
3164.91075	0.91541
3162.85694	0.91589
3160.80314	0.91656
3158.74934	0.91703
3156.69553	0.91702
3154.64173	0.91677
3152.58793	0.91686
3150.53412	0.91782
3148.48032	0.91888
3146.42652	0.91907
3144.37271	0.91878
3142.31891	0.91861
3140.26511	0.91845
3138.21130	0.91851
3136.15750	0.91893
3134.10370	0.91946
3132.04989	0.91981
3129.99609	0.91981
3127.94229	0.91972
3125.88848	0.92003
3123.83468	0.92072
3121.78088	0.92122
3119.72707	0.92114
3117.67327	0.92085
3115.61947	0.92075
3113.56566	0.92060
3111.51186	0.92019
3109.45806	0.91962
3107.40426	0.91903
3105.35045	0.91876
3103.29665	0.91874
3101.24285	0.91876
3099.18904	0.91914
3097.13524	0.91961
3095.08144	0.91943
3093.02763	0.91892
3090.97383	0.91827
3088.92003	0.91703
3086.86622	0.91522
3084.81242	0.91321
3082.75862	0.91158
3080.70481	0.91119
3078.65101	0.91224
3076.59721	0.91371
3074.54340	0.91466
3072.48960	0.91497
3070.43580	0.91458
3068.38199	0.91348
3066.32819	0.91192
3064.27439	0.91013
3062.22058	0.90795
3060.16678	0.90569
3058.11298	0.90485
3056.05918	0.90636
3054.00537	0.90936
3051.95157	0.91229
3049.89777	0.91412
3047.84396	0.91514
3045.79016	0.91613
3043.73636	0.91680
3041.68255	0.91660
3039.62875	0.91574
3037.57495	0.91443
3035.52114	0.91207
3033.46734	0.90812
3031.41354	0.90259
3029.35973	0.89603
3027.30593	0.89016
3025.25213	0.88729
3023.19832	0.88855
3021.14452	0.89316
3019.09072	0.89912
3017.03691	0.90486
3014.98311	0.90946
3012.92931	0.91266
3010.87550	0.91498
3008.82170	0.91633
3006.76790	0.91641
3004.71409	0.91586
3002.66029	0.91533
3000.60649	0.91537
2998.55269	0.91642
2996.49888	0.91801
2994.44508	0.91935
2992.39128	0.92060
2990.33747	0.92178
2988.28367	0.92245
2986.22987	0.92275
2984.17606	0.92314
2982.12226	0.92355
2980.06846	0.92371
2978.01465	0.92397
2975.96085	0.92424
2973.90705	0.92392
2971.85324	0.92344
2969.79944	0.92351
2967.74564	0.92375
2965.69183	0.92345
2963.63803	0.92253
2961.58423	0.92142
2959.53042	0.92072
2957.47662	0.92057
2955.42282	0.92056
2953.36901	0.92011
2951.31521	0.91905
2949.26141	0.91778
2947.20761	0.91641
2945.15380	0.91485
2943.10000	0.91302
2941.04620	0.91055
2938.99239	0.90732
2936.93859	0.90369
2934.88479	0.90006
2932.83098	0.89642
2930.77718	0.89237
2928.72338	0.88811
2926.66957	0.88449
2924.61577	0.88197
2922.56197	0.88023
2920.50816	0.87915
2918.45436	0.87906
2916.40056	0.87996
2914.34675	0.88143
2912.29295	0.88317
2910.23915	0.88517
2908.18534	0.88748
2906.13154	0.89018
2904.07774	0.89290
2902.02393	0.89538
2899.97013	0.89796
2897.91633	0.90055
2895.86252	0.90276
2893.80872	0.90473
2891.75492	0.90635
2889.70112	0.90747
2887.64731	0.90834
2885.59351	0.90904
2883.53971	0.90967
2881.48590	0.91063
2879.43210	0.91184
2877.37830	0.91281
2875.32449	0.91343
2873.27069	0.91396
2871.21689	0.91465
2869.16308	0.91535
2867.10928	0.91564
2865.05548	0.91525
2863.00167	0.91421
2860.94787	0.91285
2858.89407	0.91184
2856.84026	0.91106
2854.78646	0.90971
2852.73266	0.90791
2850.67885	0.90655
2848.62505	0.90634
2846.57125	0.90685
2844.51744	0.90758
2842.46364	0.90918
2840.40984	0.91181
2838.35603	0.91457
2836.30223	0.91661
2834.24843	0.91795
2832.19463	0.91911
2830.14082	0.92011
2828.08702	0.92073
2826.03322	0.92122
2823.97941	0.92190
2821.92561	0.92260
2819.87181	0.92303
2817.81800	0.92327
2815.76420	0.92360
2813.71040	0.92394
2811.65659	0.92406
2809.60279	0.92424
2807.54899	0.92452
2805.49518	0.92463
2803.44138	0.92468
2801.38758	0.92502
2799.33377	0.92542
2797.27997	0.92559
2795.22617	0.92580
2793.17236	0.92605
2791.11856	0.92609
2789.06476	0.92604
2787.01095	0.92611
2784.95715	0.92617
2782.90335	0.92637
2780.84955	0.92682
2778.79574	0.92705
2776.74194	0.92697
2774.68814	0.92685
2772.63433	0.92695
2770.58053	0.92725
2768.52673	0.92732
2766.47292	0.92710
2764.41912	0.92711
2762.36532	0.92738
2760.31151	0.92763
2758.25771	0.92792
2756.20391	0.92811
2754.15010	0.92812
2752.09630	0.92815
2750.04250	0.92798
2747.98869	0.92782
2745.93489	0.92804
2743.88109	0.92820
2741.82728	0.92804
2739.77348	0.92794
2737.71968	0.92812
2735.66587	0.92835
2733.61207	0.92839
2731.55827	0.92836
2729.50446	0.92857
2727.45066	0.92891
2725.39686	0.92897
2723.34306	0.92877
2721.28925	0.92875
2719.23545	0.92885
2717.18165	0.92876
2715.12784	0.92859
2713.07404	0.92871
2711.02024	0.92915
2708.96643	0.92940
2706.91263	0.92927
2704.85883	0.92926
2702.80502	0.92951
2700.75122	0.92971
2698.69742	0.92959
2696.64361	0.92946
2694.58981	0.92946
2692.53601	0.92911
2690.48220	0.92873
2688.42840	0.92893
2686.37460	0.92939
2684.32079	0.92963
2682.26699	0.92968
2680.21319	0.92982
2678.15938	0.93015
2676.10558	0.93027
2674.05178	0.93005
2671.99797	0.93005
2669.94417	0.93033
2667.89037	0.93051
2665.83657	0.93061
2663.78276	0.93058
2661.72896	0.93010
2659.67516	0.92933
2657.62135	0.92890
2655.56755	0.92918
2653.51375	0.92974
2651.45994	0.93018
2649.40614	0.93063
2647.35234	0.93092
2645.29853	0.93078
2643.24473	0.93048
2641.19093	0.93030
2639.13712	0.93006
2637.08332	0.92988
2635.02952	0.92992
2632.97571	0.92983
2630.92191	0.92972
2628.86811	0.93019
2626.81430	0.93082
2624.76050	0.93103
2622.70670	0.93127
2620.65289	0.93172
2618.59909	0.93183
2616.54529	0.93156
2614.49149	0.93154
2612.43768	0.93174
2610.38388	0.93162
2608.33008	0.93134
2606.27627	0.93139
2604.22247	0.93159
2602.16867	0.93160
2600.11486	0.93151
2598.06106	0.93147
2596.00726	0.93185
2593.95345	0.93253
2591.89965	0.93261
2589.84585	0.93208
2587.79204	0.93178
2585.73824	0.93200
2583.68444	0.93234
2581.63063	0.93264
2579.57683	0.93289
2577.52303	0.93270
2575.46922	0.93218
2573.41542	0.93197
2571.36162	0.93244
2569.30781	0.93319
2567.25401	0.93356
2565.20021	0.93344
2563.14640	0.93315
2561.09260	0.93314
2559.03880	0.93325
2556.98500	0.93313
2554.93119	0.93316
2552.87739	0.93311
2550.82359	0.93273
2548.76978	0.93270
2546.71598	0.93341
2544.66218	0.93398
2542.60837	0.93362
2540.55457	0.93309
2538.50077	0.93324
2536.44696	0.93381
2534.39316	0.93399
2532.33936	0.93366
2530.28555	0.93351
2528.23175	0.93370
2526.17795	0.93384
2524.12414	0.93393
2522.07034	0.93402
2520.01654	0.93446
2517.96273	0.93493
2515.90893	0.93458
2513.85513	0.93414
2511.80132	0.93410
2509.74752	0.93397
2507.69372	0.93414
2505.63992	0.93408
2503.58611	0.93293
2501.53231	0.93210
2499.47851	0.93222
2497.42470	0.93264
2495.37090	0.93360
2493.31710	0.93452
2491.26329	0.93460
2489.20949	0.93418
2487.15569	0.93388
2485.10188	0.93375
2483.04808	0.93389
2480.99428	0.93437
2478.94047	0.93477
2476.88667	0.93512
2474.83287	0.93537
2472.77906	0.93518
2470.72526	0.93489
2468.67146	0.93482
2466.61765	0.93478
2464.56385	0.93491
2462.51005	0.93510
2460.45624	0.93502
2458.40244	0.93506
2456.34864	0.93510
2454.29483	0.93464
2452.24103	0.93415
2450.18723	0.93400
2448.13343	0.93418
2446.07962	0.93490
2444.02582	0.93572
2441.97202	0.93604
2439.91821	0.93608
2437.86441	0.93612
2435.81061	0.93589
2433.75680	0.93541
2431.70300	0.93525
2429.64920	0.93537
2427.59539	0.93529
2425.54159	0.93528
2423.48779	0.93539
2421.43398	0.93509
2419.38018	0.93462
2417.32638	0.93467
2415.27257	0.93538
2413.21877	0.93608
2411.16497	0.93580
2409.11116	0.93489
2407.05736	0.93478
2405.00356	0.93537
2402.94975	0.93565
2400.89595	0.93576
2398.84215	0.93604
2396.78834	0.93619
2394.73454	0.93598
2392.68074	0.93568
2390.62694	0.93571
2388.57313	0.93591
2386.51933	0.93583
2384.46553	0.93538
2382.41172	0.93490
2380.35792	0.93477
2378.30412	0.93538
2376.25031	0.93623
2374.19651	0.93604
2372.14271	0.93516
2370.08890	0.93467
2368.03510	0.93450
2365.98130	0.93428
2363.92749	0.93419
2361.87369	0.93505
2359.81989	0.93612
2357.76608	0.93648
2355.71228	0.93677
2353.65848	0.93641
2351.60467	0.93517
2349.55087	0.93452
2347.49707	0.93490
2345.44326	0.93549
2343.38946	0.93551
2341.33566	0.93516
2339.28186	0.93458
2337.22805	0.93403
2335.17425	0.93396
2333.12045	0.93394
2331.06664	0.93417
2329.01284	0.93486
2326.95904	0.93482
2324.90523	0.93379
2322.85143	0.93336
2320.79763	0.93442
2318.74382	0.93557
2316.69002	0.93559
2314.63622	0.93517
2312.58241	0.93525
2310.52861	0.93554
2308.47481	0.93575
2306.42100	0.93581
2304.36720	0.93551
2302.31340	0.93538
2300.25959	0.93544
2298.20579	0.93509
2296.15199	0.93473
2294.09818	0.93500
2292.04438	0.93576
2289.99058	0.93631
2287.93677	0.93587
2285.88297	0.93518
2283.82917	0.93525
2281.77537	0.93555
2279.72156	0.93582
2277.66776	0.93634
2275.61396	0.93693
2273.56015	0.93728
2271.50635	0.93766
2269.45255	0.93844
2267.39874	0.93887
2265.34494	0.93788
2263.29114	0.93676
2261.23733	0.93678
2259.18353	0.93742
2257.12973	0.93807
2255.07592	0.93765
2253.02212	0.93663
2250.96832	0.93648
2248.91451	0.93676
2246.86071	0.93696
2244.80691	0.93794
2242.75310	0.93930
2240.69930	0.93893
2238.64550	0.93714
2236.59169	0.93667
2234.53789	0.93753
2232.48409	0.93776
2230.43029	0.93811
2228.37648	0.93919
2226.32268	0.93914
2224.26888	0.93851
2222.21507	0.93914
2220.16127	0.93944
2218.10747	0.93922
2216.05366	0.94035
2213.99986	0.94166
2211.94606	0.94195
2209.89225	0.94151
2207.83845	0.94039
2205.78465	0.93950
2203.73084	0.93971
2201.67704	0.94069
2199.62324	0.94171
2197.56943	0.94125
2195.51563	0.93936
2193.46183	0.93905
2191.40802	0.94042
2189.35422	0.94067
2187.30042	0.93927
2185.24661	0.93803
2183.19281	0.93818
2181.13901	0.93931
2179.08520	0.94080
2177.03140	0.94212
2174.97760	0.94204
2172.92380	0.94036
2170.86999	0.93876
2168.81619	0.93821
2166.76239	0.93799
2164.70858	0.93562
2162.65478	0.93143
2160.60098	0.93245
2158.54717	0.93938
2156.49337	0.94338
2154.43957	0.94434
2152.38576	0.94622
2150.33196	0.94690
2148.27816	0.94517
2146.22435	0.94399
2144.17055	0.94520
2142.11675	0.94672
2140.06294	0.94594
2138.00914	0.94386
2135.95534	0.94270
2133.90153	0.94295
2131.84773	0.94289
2129.79393	0.94109
2127.74012	0.93890
2125.68632	0.93848
2123.63252	0.94035
2121.57871	0.94234
2119.52491	0.94267
2117.47111	0.94218
2115.41731	0.94216
2113.36350	0.94217
2111.30970	0.94142
2109.25590	0.94103
2107.20209	0.94101
2105.14829	0.94000
2103.09449	0.93911
2101.04068	0.93934
2098.98688	0.93963
2096.93308	0.94041
2094.87927	0.94162
2092.82547	0.94127
2090.77167	0.93962
2088.71786	0.93879
2086.66406	0.93947
2084.61026	0.94039
2082.55645	0.94006
2080.50265	0.93875
2078.44885	0.93800
2076.39504	0.93809
2074.34124	0.93862
2072.28744	0.93944
2070.23363	0.93994
2068.17983	0.93976
2066.12603	0.93892
2064.07223	0.93836
2062.01842	0.93939
2059.96462	0.94119
2057.91082	0.94234
2055.85701	0.94260
2053.80321	0.94187
2051.74941	0.94120
2049.69560	0.94211
2047.64180	0.94273
2045.58800	0.94140
2043.53419	0.94104
2041.48039	0.94311
2039.42659	0.94485
2037.37278	0.94522
2035.31898	0.94567
2033.26518	0.94620
2031.21137	0.94559
2029.15757	0.94342
2027.10377	0.94158
2025.04996	0.94168
2022.99616	0.94295
2020.94236	0.94336
2018.88855	0.94219
2016.83475	0.94208
2014.78095	0.94319
2012.72714	0.94339
2010.67334	0.94308
2008.61954	0.94353
2006.56574	0.94484
2004.51193	0.94566
2002.45813	0.94559
2000.40433	0.94650
1998.35052	0.94880
1996.29672	0.94837
1994.24292	0.94478
1992.18911	0.94340
1990.13531	0.94441
1988.08151	0.94385
1986.02770	0.94335
1983.97390	0.94462
1981.92010	0.94418
1979.86629	0.94212
1977.81249	0.94230
1975.75869	0.94399
1973.70488	0.94379
1971.65108	0.94310
1969.59728	0.94368
1967.54347	0.94283
1965.48967	0.94251
1963.43587	0.94549
1961.38206	0.94674
1959.32826	0.94401
1957.27446	0.94152
1955.22066	0.94147
1953.16685	0.94254
1951.11305	0.94264
1949.05925	0.94123
1947.00544	0.93978
1944.95164	0.93894
1942.89784	0.93776
1940.84403	0.93716
1938.79023	0.93821
1936.73643	0.93935
1934.68262	0.93979
1932.62882	0.93960
1930.57502	0.93901
1928.52121	0.93895
1926.46741	0.93976
1924.41361	0.94103
1922.35980	0.94225
1920.30600	0.94246
1918.25220	0.94145
1916.19839	0.94096
1914.14459	0.94145
1912.09079	0.94186
1910.03698	0.94195
1907.98318	0.94173
1905.92938	0.94164
1903.87557	0.94229
1901.82177	0.94301
1899.76797	0.94300
1897.71417	0.94267
1895.66036	0.94212
1893.60656	0.94139
1891.55276	0.94105
1889.49895	0.94137
1887.44515	0.94174
1885.39135	0.94126
1883.33754	0.94021
1881.28374	0.93940
1879.22994	0.93899
1877.17613	0.93860
1875.12233	0.93814
1873.06853	0.93800
1871.01472	0.93826
1868.96092	0.93801
1866.90712	0.93670
1864.85331	0.93639
1862.79951	0.93767
1860.74571	0.93863
1858.69190	0.93921
1856.63810	0.94032
1854.58430	0.94097
1852.53049	0.94103
1850.47669	0.94118
1848.42289	0.94121
1846.36908	0.94112
1844.31528	0.94122
1842.26148	0.94150
1840.20768	0.94176
1838.15387	0.94197
1836.10007	0.94221
1834.04627	0.94259
1831.99246	0.94289
1829.93866	0.94236
1827.88486	0.94143
1825.83105	0.94094
1823.77725	0.94073
1821.72345	0.94066
1819.66964	0.94050
1817.61584	0.94029
1815.56204	0.94012
1813.50823	0.93959
1811.45443	0.93864
1809.40063	0.93805
1807.34682	0.93796
1805.29302	0.93767
1803.23922	0.93733
1801.18541	0.93735
1799.13161	0.93762
1797.07781	0.93772
1795.02400	0.93753
1792.97020	0.93766
1790.91640	0.93844
1788.86260	0.93919
1786.80879	0.93962
1784.75499	0.93957
1782.70119	0.93922
1780.64738	0.93928
1778.59358	0.93961
1776.53978	0.93972
1774.48597	0.93941
1772.43217	0.93886
1770.37837	0.93886
1768.32456	0.93926
1766.27076	0.93952
1764.21696	0.93978
1762.16315	0.93986
1760.10935	0.93959
1758.05555	0.93925
1756.00174	0.93865
1753.94794	0.93811
1751.89414	0.93800
1749.84033	0.93750
1747.78653	0.93622
1745.73273	0.93521
1743.67892	0.93477
1741.62512	0.93458
1739.57132	0.93470
1737.51751	0.93502
1735.46371	0.93541
1733.40991	0.93577
1731.35611	0.93584
1729.30230	0.93570
1727.24850	0.93538
1725.19470	0.93513
1723.14089	0.93511
1721.08709	0.93513
1719.03329	0.93520
1716.97948	0.93545
1714.92568	0.93532
1712.87188	0.93493
1710.81807	0.93487
1708.76427	0.93500
1706.71047	0.93509
1704.65666	0.93489
1702.60286	0.93443
1700.54906	0.93398
1698.49525	0.93383
1696.44145	0.93357
1694.38765	0.93270
1692.33384	0.93162
1690.28004	0.93064
1688.22624	0.92986
1686.17243	0.92921
1684.11863	0.92800
1682.06483	0.92687
1680.01103	0.92629
1677.95722	0.92550
1675.90342	0.92428
1673.84962	0.92322
1671.79581	0.92283
1669.74201	0.92235
1667.68821	0.92143
1665.63440	0.92074
1663.58060	0.92024
1661.52680	0.91955
1659.47299	0.91871
1657.41919	0.91827
1655.36539	0.91830
1653.31158	0.91794
1651.25778	0.91732
1649.20398	0.91747
1647.15017	0.91763
1645.09637	0.91732
1643.04257	0.91729
1640.98876	0.91770
1638.93496	0.91820
1636.88116	0.91838
1634.82735	0.91820
1632.77355	0.91792
1630.71975	0.91767
1628.66594	0.91795
1626.61214	0.91867
1624.55834	0.91895
1622.50454	0.91912
1620.45073	0.91958
1618.39693	0.91983
1616.34313	0.91989
1614.28932	0.91982
1612.23552	0.91915
1610.18172	0.91737
1608.12791	0.91395
1606.07411	0.90794
1604.02031	0.89973
1601.96650	0.89294
1599.91270	0.89192
1597.85890	0.89660
1595.80509	0.90347
1593.75129	0.90930
1591.69749	0.91311
1589.64368	0.91541
1587.58988	0.91615
1585.53608	0.91523
1583.48227	0.91407
1581.42847	0.91491
1579.37467	0.91774
1577.32086	0.92088
1575.26706	0.92330
1573.21326	0.92491
1571.15945	0.92610
1569.10565	0.92683
1567.05185	0.92749
1564.99805	0.92836
1562.94424	0.92881
1560.89044	0.92867
1558.83664	0.92821
1556.78283	0.92840
1554.72903	0.92871
1552.67523	0.92847
1550.62142	0.92802
1548.56762	0.92776
1546.51382	0.92768
1544.46001	0.92775
1542.40621	0.92817
1540.35241	0.92896
1538.29860	0.92937
1536.24480	0.92929
1534.19100	0.92949
1532.13719	0.93045
1530.08339	0.93158
1528.02959	0.93240
1525.97578	0.93284
1523.92198	0.93330
1521.86818	0.93423
1519.81437	0.93528
1517.76057	0.93585
1515.70677	0.93603
1513.65297	0.93613
1511.59916	0.93637
1509.54536	0.93684
1507.49156	0.93721
1505.43775	0.93689
1503.38395	0.93622
1501.33015	0.93427
1499.27634	0.92725
1497.22254	0.90614
1495.16874	0.87335
1493.11493	0.85228
1491.06113	0.85494
1489.00733	0.87904
1486.95352	0.90158
1484.89972	0.91310
1482.84592	0.91972
1480.79211	0.92454
1478.73831	0.92769
1476.68451	0.92941
1474.63070	0.93069
1472.57690	0.93188
1470.52310	0.93195
1468.46929	0.93142
1466.41549	0.93123
1464.36169	0.93101
1462.30788	0.93024
1460.25408	0.92837
1458.20028	0.91871
1456.14648	0.88964
1454.09267	0.86112
1452.03887	0.84795
1449.98507	0.85039
1447.93126	0.86301
1445.87746	0.87562
1443.82366	0.88507
1441.76985	0.89316
1439.71605	0.89980
1437.66225	0.90567
1435.60844	0.91159
1433.55464	0.91598
1431.50084	0.91935
1429.44703	0.92244
1427.39323	0.92453
1425.33943	0.92567
1423.28562	0.92640
1421.23182	0.92689
1419.17802	0.92730
1417.12421	0.92777
1415.07041	0.92832
1413.01661	0.92879
1410.96280	0.92922
1408.90900	0.92979
1406.85520	0.93038
1404.80139	0.93048
1402.74759	0.93021
1400.69379	0.93024
1398.63999	0.93055
1396.58618	0.93078
1394.53238	0.93072
1392.47858	0.93028
1390.42477	0.92961
1388.37097	0.92877
1386.31717	0.92764
1384.26336	0.92647
1382.20956	0.92545
1380.15576	0.92423
1378.10195	0.92314
1376.04815	0.92258
1373.99435	0.92202
1371.94054	0.92146
1369.88674	0.92134
1367.83294	0.92154
1365.77913	0.92198
1363.72533	0.92263
1361.67153	0.92316
1359.61772	0.92350
1357.56392	0.92399
1355.51012	0.92472
1353.45631	0.92544
1351.40251	0.92590
1349.34871	0.92610
1347.29491	0.92618
1345.24110	0.92640
1343.18730	0.92701
1341.13350	0.92755
1339.07969	0.92775
1337.02589	0.92803
1334.97209	0.92812
1332.91828	0.92748
1330.86448	0.92656
1328.81068	0.92602
1326.75687	0.92589
1324.70307	0.92606
1322.64927	0.92634
1320.59546	0.92653
1318.54166	0.92671
1316.48786	0.92674
1314.43405	0.92658
1312.38025	0.92667
1310.32645	0.92681
1308.27264	0.92690
1306.21884	0.92729
1304.16504	0.92783
1302.11123	0.92823
1300.05743	0.92862
1298.00363	0.92900
1295.94982	0.92919
1293.89602	0.92917
1291.84222	0.92917
1289.78842	0.92936
1287.73461	0.92959
1285.68081	0.92972
1283.62701	0.92969
1281.57320	0.92950
1279.51940	0.92925
1277.46560	0.92912
1275.41179	0.92915
1273.35799	0.92911
1271.30419	0.92908
1269.25038	0.92933
1267.19658	0.92967
1265.14278	0.92979
1263.08897	0.92971
1261.03517	0.92978
1258.98137	0.92980
1256.92756	0.92928
1254.87376	0.92863
1252.81996	0.92821
1250.76615	0.92776
1248.71235	0.92740
1246.65855	0.92725
1244.60474	0.92692
1242.55094	0.92616
1240.49714	0.92537
1238.44334	0.92481
1236.38953	0.92432
1234.33573	0.92363
1232.28193	0.92265
1230.22812	0.92176
1228.17432	0.92104
1226.12052	0.92015
1224.06671	0.91893
1222.01291	0.91752
1219.95911	0.91602
1217.90530	0.91414
1215.85150	0.91157
1213.79770	0.90877
1211.74389	0.90604
1209.69009	0.90300
1207.63629	0.89970
1205.58248	0.89650
1203.52868	0.89311
1201.47488	0.88937
1199.42107	0.88562
1197.36727	0.88177
1195.31347	0.87772
1193.25966	0.87362
1191.20586	0.86928
1189.15206	0.86446
1187.09825	0.85922
1185.04445	0.85371
1182.99065	0.84792
1180.93685	0.84231
1178.88304	0.83772
1176.82924	0.83424
1174.77544	0.83091
1172.72163	0.82714
1170.66783	0.82303
1168.61403	0.81885
1166.56022	0.81486
1164.50642	0.81124
1162.45262	0.80824
1160.39881	0.80562
1158.34501	0.80249
1156.29121	0.79851
1154.23740	0.79469
1152.18360	0.79181
1150.12980	0.78976
1148.07599	0.78827
1146.02219	0.78691
1143.96839	0.78525
1141.91458	0.78331
1139.86078	0.78117
1137.80698	0.77906
1135.75317	0.77725
1133.69937	0.77532
1131.64557	0.77273
1129.59176	0.76971
1127.53796	0.76649
1125.48416	0.76241
1123.43036	0.75722
1121.37655	0.75156
1119.32275	0.74593
1117.26895	0.74044
1115.21514	0.73463
1113.16134	0.72841
1111.10754	0.72241
1109.05373	0.71687
1106.99993	0.71173
1104.94613	0.70749
1102.89232	0.70398
1100.83852	0.70057
1098.78472	0.69749
1096.73091	0.69470
1094.67711	0.69191
1092.62331	0.68959
1090.56950	0.68795
1088.51570	0.68649
1086.46190	0.68517
1084.40809	0.68403
1082.35429	0.68292
1080.30049	0.68192
1078.24668	0.68078
1076.19288	0.67898
1074.13908	0.67619
1072.08528	0.67253
1070.03147	0.66854
1067.97767	0.66430
1065.92387	0.65981
1063.87006	0.65534
1061.81626	0.65062
1059.76246	0.64581
1057.70865	0.64128
1055.65485	0.63643
1053.60105	0.63071
1051.54724	0.62431
1049.49344	0.61719
1047.43964	0.60926
1045.38583	0.60112
1043.33203	0.59320
1041.27823	0.58528
1039.22442	0.57746
1037.17062	0.56974
1035.11682	0.56131
1033.06301	0.55182
1031.00921	0.54221
1028.95541	0.53407
1026.90160	0.52887
1024.84780	0.52706
1022.79400	0.52696
1020.74019	0.52632
1018.68639	0.52478
1016.63259	0.52289
1014.57879	0.52060
1012.52498	0.51823
1010.47118	0.51640
1008.41738	0.51492
1006.36357	0.51350
1004.30977	0.51249
1002.25597	0.51282
1000.20216	0.51536
998.14836	0.51982
996.09456	0.52504
994.04075	0.53035
991.98695	0.53583
989.93315	0.54166
987.87934	0.54815
985.82554	0.55550
983.77174	0.56371
981.71793	0.57273
979.66413	0.58266
977.61033	0.59351
975.55652	0.60478
973.50272	0.61602
971.44892	0.62709
969.39511	0.63765
967.34131	0.64738
965.28751	0.65634
963.23371	0.66483
961.17990	0.67358
959.12610	0.68274
957.07230	0.69152
955.01849	0.69941
952.96469	0.70626
950.91089	0.71231
948.85708	0.71791
946.80328	0.72322
944.74948	0.72823
942.69567	0.73304
940.64187	0.73812
938.58807	0.74353
936.53426	0.74911
934.48046	0.75474
932.42666	0.75974
930.37285	0.76384
928.31905	0.76778
926.26525	0.77126
924.21144	0.77339
922.15764	0.77440
920.10384	0.77478
918.05003	0.77412
915.99623	0.77189
913.94243	0.76910
911.88862	0.76723
909.83482	0.76648
907.78102	0.76741
905.72722	0.77125
903.67341	0.77795
901.61961	0.78661
899.56581	0.79636
897.51200	0.80607
895.45820	0.81457
893.40440	0.82122
891.35059	0.82623
889.29679	0.83045
887.24299	0.83425
885.18918	0.83733
883.13538	0.83995
881.08158	0.84264
879.02777	0.84548
876.97397	0.84830
874.92017	0.85079
872.86636	0.85315
870.81256	0.85548
868.75876	0.85782
866.70495	0.86054
864.65115	0.86384
862.59735	0.86701
860.54354	0.86908
858.48974	0.87028
856.43594	0.87151
854.38213	0.87278
852.32833	0.87358
850.27453	0.87386
848.22073	0.87352
846.16692	0.87244
844.11312	0.87139
842.05932	0.87085
840.00551	0.87076
837.95171	0.87138
835.89791	0.87241
833.84410	0.87327
831.79030	0.87428
829.73650	0.87565
827.68269	0.87653
825.62889	0.87686
823.57509	0.87775
821.52128	0.87896
819.46748	0.87956
817.41368	0.87940
815.35987	0.87821
813.30607	0.87638
811.25227	0.87381
809.19846	0.86898
807.14466	0.86211
805.09086	0.85425
803.03705	0.84565
800.98325	0.83798
798.92945	0.83444
796.87565	0.83577
794.82184	0.83867
792.76804	0.83983
790.71424	0.83932
788.66043	0.83830
786.60663	0.83608
784.55283	0.83204
782.49902	0.82718
780.44522	0.82246
778.39142	0.81867
776.33761	0.81562
774.28381	0.81146
772.23001	0.80458
770.17620	0.79449
768.12240	0.78197
766.06860	0.76791
764.01479	0.75288
761.96099	0.73797
759.90719	0.72445
757.85338	0.71340
755.79958	0.70601
753.74578	0.70301
751.69197	0.70342
749.63817	0.70520
747.58437	0.70826
745.53056	0.71571
743.47676	0.72972
741.42296	0.74768
739.36916	0.76605
737.31535	0.78339
735.26155	0.79865
733.20775	0.81097
731.15394	0.82025
729.10014	0.82680
727.04634	0.83105
724.99253	0.83458
722.93873	0.83922
720.88493	0.84439
718.83112	0.84818
716.77732	0.85029
714.72352	0.85081
712.66971	0.84771
710.61591	0.83677
708.56211	0.81294
706.50830	0.77164
704.45450	0.71088
702.40070	0.63428
700.34689	0.54941
698.29309	0.46848
696.23929	0.41606
694.18548	0.42169
692.13168	0.48495
690.07788	0.56772
688.02408	0.63527
685.97027	0.68035
683.91647	0.70915
681.86267	0.72780
679.80886	0.73986
677.75506	0.74832
675.70126	0.75505
673.64745	0.76038
671.59365	0.76458
669.53985	0.76824
667.48604	0.77127
665.43224	0.77307
663.37844	0.77432
661.32463	0.77543
659.27083	0.77663
657.21703	0.77687
655.16322	0.77532
653.10942	0.77252
651.05562	0.76965
649.00181	0.76774
646.94801	0.76701
644.89421	0.76800
642.84040	0.77070
640.78660	0.77397
638.73280	0.77671
636.67899	0.77813
634.62519	0.77864
632.57139	0.77960
630.51759	0.78117
628.46378	0.78238
626.40998	0.78237
624.35618	0.78067
622.30237	0.77776
620.24857	0.77433
618.19477	0.77035
616.14096	0.76589
614.08716	0.76222
612.03336	0.75930
609.97955	0.75622
607.92575	0.75303
605.87195	0.74933
603.81814	0.74491
601.76434	0.74015
599.71054	0.73456
597.65673	0.72764
595.60293	0.72164
593.54913	0.71874
591.49532	0.71648
589.44152	0.71338
587.38772	0.71205
585.33391	0.71296
583.28011	0.71366
581.22631	0.71296
579.17250	0.71246
577.11870	0.71324
575.06490	0.71377
573.01110	0.71274
570.95729	0.70955
568.90349	0.70470
566.84969	0.70061
564.79588	0.69694
562.74208	0.69131
560.68828	0.68478
558.63447	0.67908
556.58067	0.67350
554.52687	0.66694
552.47306	0.65849
550.41926	0.64808
548.36546	0.63703
546.31165	0.62535
544.25785	0.61071
542.20405	0.59313
540.15024	0.57760
538.09644	0.56834
536.04264	0.56413
533.98883	0.56268
531.93503	0.56406
529.88123	0.56913
527.82742	0.57733
525.77362	0.58610
523.71982	0.59338
521.66602	0.59950
519.61221	0.60459
517.55841	0.60948
515.50461	0.61597
513.45080	0.62335
511.39700	0.63072
509.34320	0.63744
507.28939	0.64274
505.23559	0.64709
503.18179	0.65104
501.12798	0.65393
499.07418	0.65439
497.02038	0.65323
494.96657	0.65154
492.91277	0.64843
490.85897	0.64322
488.80516	0.63524
486.75136	0.62362
484.69756	0.60951
482.64375	0.59333
480.58995	0.57460
478.53615	0.55524
476.48234	0.53845
474.42854	0.52649
472.37474	0.51577
470.32093	0.50222
468.26713	0.49002
466.21333	0.48473
464.15953	0.48677
462.10572	0.49101
460.05192	0.49475
457.99812	0.50139
455.94431	0.51240
453.89051	0.52355
451.83671	0.53193
449.78290	0.53654
447.72910	0.53966
445.67530	0.54225
443.62149	0.54218
441.56769	0.54022
439.51389	0.53944
437.46008	0.53930
435.40628	0.53698
433.35248	0.53045
431.29867	0.52129
429.24487	0.51603
427.19107	0.51608
425.13726	0.51712
423.08346	0.52018
421.02966	0.52566
418.97585	0.52977
416.92205	0.53493
414.86825	0.54456
412.81445	0.55653
410.76064	0.56796
408.70684	0.57641
406.65304	0.58254
404.59923	0.58988
402.54543	0.59382
400.49163	0.58256
398.43782	0.56348
