3996.71440	0.98792
3994.66059	0.98768
3992.60678	0.98773
3990.55297	0.98786
3988.49916	0.98779
3986.44535	0.98783
3984.39154	0.98811
3982.33773	0.98824
3980.28391	0.98803
3978.23010	0.98788
3976.17629	0.98797
3974.12248	0.98797
3972.06867	0.98792
3970.01486	0.98797
3967.96105	0.98787
3965.90724	0.98788
3963.85343	0.98826
3961.79962	0.98833
3959.74581	0.98803
3957.69200	0.98793
3955.63819	0.98790
3953.58438	0.98775
3951.53057	0.98751
3949.47676	0.98722
3947.42295	0.98720
3945.36914	0.98745
3943.31533	0.98738
3941.26152	0.98705
3939.20771	0.98710
3937.15390	0.98745
3935.10009	0.98752
3933.04628	0.98748
3930.99247	0.98765
3928.93866	0.98757
3926.88485	0.98736
3924.83104	0.98736
3922.77723	0.98742
3920.72342	0.98753
3918.66961	0.98775
3916.61580	0.98793
3914.56199	0.98808
3912.50818	0.98818
3910.45437	0.98790
3908.40056	0.98721
3906.34675	0.98677
3904.29294	0.98697
3902.23913	0.98728
3900.18532	0.98748
3898.13151	0.98771
3896.07770	0.98768
3894.02389	0.98742
3891.97008	0.98734
3889.91627	0.98749
3887.86246	0.98726
3885.80865	0.98689
3883.75484	0.98704
3881.70103	0.98733
3879.64722	0.98756
3877.59341	0.98782
3875.53960	0.98777
3873.48579	0.98757
3871.43198	0.98770
3869.37817	0.98791
3867.32436	0.98779
3865.27055	0.98748
3863.21674	0.98752
3861.16293	0.98790
3859.10912	0.98809
3857.05531	0.98783
3855.00150	0.98737
3852.94769	0.98743
3850.89388	0.98765
3848.84007	0.98746
3846.78626	0.98727
3844.73245	0.98723
3842.67864	0.98726
3840.62483	0.98747
3838.57102	0.98779
3836.51721	0.98797
3834.46340	0.98810
3832.40959	0.98803
3830.35578	0.98779
3828.30197	0.98769
3826.24816	0.98757
3824.19435	0.98734
3822.14054	0.98751
3820.08673	0.98822
3818.03292	0.98856
3815.97911	0.98834
3813.92530	0.98795
3811.87149	0.98777
3809.81768	0.98771
3807.76387	0.98754
3805.71006	0.98745
3803.65625	0.98755
3801.60244	0.98775
3799.54863	0.98801
3797.49482	0.98803
3795.44101	0.98785
3793.38720	0.98771
3791.33339	0.98755
3789.27958	0.98743
3787.22577	0.98765
3785.17196	0.98814
3783.11815	0.98833
3781.06434	0.98795
3779.01053	0.98754
3776.95672	0.98766
3774.90291	0.98796
3772.84910	0.98794
3770.79529	0.98768
3768.74148	0.98751
3766.68767	0.98767
3764.63386	0.98810
3762.58005	0.98831
3760.52624	0.98833
3758.47243	0.98838
3756.41862	0.98824
3754.36481	0.98797
3752.31100	0.98793
3750.25719	0.98792
3748.20338	0.98783
3746.14957	0.98777
3744.09576	0.98750
3742.04195	0.98732
3739.98814	0.98744
3737.93433	0.98758
3735.88052	0.98790
3733.82671	0.98826
3731.77290	0.98801
3729.71909	0.98741
3727.66528	0.98708
3725.61147	0.98734
3723.55766	0.98764
3721.50385	0.98754
3719.45004	0.98744
3717.39623	0.98747
3715.34242	0.98742
3713.28861	0.98726
3711.23480	0.98723
3709.18099	0.98711
3707.12718	0.98664
3705.07337	0.98655
3703.01956	0.98716
3700.96575	0.98780
3698.91194	0.98790
3696.85813	0.98768
3694.80432	0.98728
3692.75051	0.98701
3690.69670	0.98713
3688.64289	0.98723
3686.58907	0.98686
3684.53526	0.98654
3682.48145	0.98656
3680.42764	0.98667
3678.37383	0.98647
3676.32002	0.98610
3674.26621	0.98583
3672.21240	0.98590
3670.15859	0.98664
3668.10478	0.98716
3666.05097	0.98666
3663.99716	0.98606
3661.94335	0.98584
3659.88954	0.98563
3657.83573	0.98529
3655.78192	0.98521
3653.72811	0.98524
3651.67430	0.98501
3649.62049	0.98455
3647.56668	0.98411
3645.51287	0.98370
3643.45906	0.98312
3641.40525	0.98266
3639.35144	0.98264
3637.29763	0.98267
3635.24382	0.98240
3633.19001	0.98222
3631.13620	0.98210
3629.08239	0.98143
3627.02858	0.98084
3624.97477	0.98082
3622.92096	0.98066
3620.86715	0.98030
3618.81334	0.98023
3616.75953	0.98034
3614.70572	0.98017
3612.65191	0.97985
3610.59810	0.97940
3608.54429	0.97867
3606.49048	0.97804
3604.43667	0.97774
3602.38286	0.97760
3600.32905	0.97741
3598.27524	0.97693
3596.22143	0.97640
3594.16762	0.97617
3592.11381	0.97606
3590.06000	0.97597
3588.00619	0.97573
3585.95238	0.97512
3583.89857	0.97444
3581.84476	0.97414
3579.79095	0.97406
3577.73714	0.97359
3575.68333	0.97298
3573.62952	0.97273
3571.57571	0.97245
3569.52190	0.97189
3567.46809	0.97137
3565.41428	0.97098
3563.36047	0.97068
3561.30666	0.97047
3559.25285	0.97026
3557.19904	0.97000
3555.14523	0.96973
3553.09142	0.96939
3551.03761	0.96895
3548.98380	0.96861
3546.92999	0.96837
3544.87618	0.96784
3542.82237	0.96726
3540.76856	0.96693
3538.71475	0.96627
3536.66094	0.96558
3534.60713	0.96548
3532.55332	0.96561
3530.49951	0.96552
3528.44570	0.96510
3526.39189	0.96467
3524.33808	0.96441
3522.28427	0.96417
3520.23046	0.96377
3518.17665	0.96324
3516.12284	0.96283
3514.06903	0.96258
3512.01522	0.96221
3509.96141	0.96166
3507.90760	0.96128
3505.85379	0.96094
3503.79998	0.96044
3501.74617	0.95995
3499.69236	0.95965
3497.63855	0.95957
3495.58474	0.95957
3493.53093	0.95935
3491.47712	0.95879
3489.42331	0.95815
3487.36950	0.95794
3485.31569	0.95819
3483.26188	0.95810
3481.20807	0.95745
3479.15426	0.95684
3477.10045	0.95632
3475.04664	0.95589
3472.99283	0.95557
3470.93902	0.95532
3468.88521	0.95534
3466.83140	0.95544
3464.77759	0.95516
3462.72378	0.95468
3460.66997	0.95407
3458.61616	0.95327
3456.56235	0.95284
3454.50854	0.95308
3452.45473	0.95322
3450.40092	0.95286
3448.34711	0.95253
3446.29330	0.95231
3444.23949	0.95202
3442.18568	0.95184
3440.13187	0.95167
3438.07806	0.95142
3436.02425	0.95131
3433.97044	0.95141
3431.91663	0.95134
3429.86282	0.95090
3427.80901	0.95052
3425.75520	0.95025
3423.70139	0.95005
3421.64758	0.95002
3419.59377	0.95014
3417.53996	0.95030
3415.48615	0.95024
3413.43234	0.94990
3411.37853	0.94955
3409.32472	0.94928
3407.27091	0.94892
3405.21710	0.94864
3403.16329	0.94878
3401.10948	0.94908
3399.05567	0.94916
3397.00186	0.94899
3394.94805	0.94874
3392.89424	0.94866
3390.84042	0.94870
3388.78661	0.94872
3386.73280	0.94883
3384.67899	0.94882
3382.62518	0.94846
3380.57137	0.94836
3378.51756	0.94872
3376.46375	0.94891
3374.40994	0.94897
3372.35613	0.94919
3370.30232	0.94920
3368.24851	0.94895
3366.19470	0.94884
3364.14089	0.94886
3362.08708	0.94895
3360.03327	0.94936
3357.97946	0.94997
3355.92565	0.95038
3353.87184	0.95053
3351.81803	0.95049
3349.76422	0.95040
3347.71041	0.95048
3345.65660	0.95076
3343.60279	0.95110
3341.54898	0.95131
3339.49517	0.95147
3337.44136	0.95180
3335.38755	0.95207
3333.33374	0.95217
3331.27993	0.95227
3329.22612	0.95241
3327.17231	0.95250
3325.11850	0.95260
3323.06469	0.95280
3321.01088	0.95306
3318.95707	0.95344
3316.90326	0.95384
3314.84945	0.95402
3312.79564	0.95406
3310.74183	0.95440
3308.68802	0.95504
3306.63421	0.95528
3304.58040	0.95521
3302.52659	0.95536
3300.47278	0.95558
3298.41897	0.95583
3296.36516	0.95629
3294.31135	0.95667
3292.25754	0.95681
3290.20373	0.95687
3288.14992	0.95684
3286.09611	0.95687
3284.04230	0.95704
3281.98849	0.95730
3279.93468	0.95782
3277.88087	0.95846
3275.82706	0.95885
3273.77325	0.95898
3271.71944	0.95882
3269.66563	0.95868
3267.61182	0.95890
3265.55801	0.95918
3263.50420	0.95925
3261.45039	0.95911
3259.39658	0.95904
3257.34277	0.95929
3255.28896	0.95958
3253.23515	0.95966
3251.18134	0.95991
3249.12753	0.96049
3247.07372	0.96073
3245.01991	0.96054
3242.96610	0.96053
3240.91229	0.96071
3238.85848	0.96091
3236.80467	0.96125
3234.75086	0.96143
3232.69705	0.96132
3230.64324	0.96144
3228.58943	0.96174
3226.53562	0.96187
3224.48181	0.96203
3222.42800	0.96240
3220.37419	0.96293
3218.32038	0.96331
3216.26657	0.96335
3214.21276	0.96325
3212.15895	0.96321
3210.10514	0.96349
3208.05133	0.96402
3205.99752	0.96431
3203.94371	0.96413
3201.88990	0.96395
3199.83609	0.96441
3197.78228	0.96520
3195.72847	0.96574
3193.67466	0.96600
3191.62085	0.96600
3189.56704	0.96598
3187.51323	0.96622
3185.45942	0.96659
3183.40561	0.96681
3181.35180	0.96703
3179.29799	0.96757
3177.24418	0.96818
3175.19037	0.96839
3173.13656	0.96839
3171.08275	0.96845
3169.02894	0.96872
3166.97513	0.96918
3164.92132	0.96956
3162.86751	0.96957
3160.81370	0.96934
3158.75989	0.96933
3156.70608	0.96964
3154.65227	0.97018
3152.59846	0.97087
3150.54465	0.97150
3148.49084	0.97179
3146.43703	0.97174
3144.38322	0.97170
3142.32941	0.97183
3140.27560	0.97216
3138.22179	0.97245
3136.16798	0.97228
3134.11417	0.97201
3132.06036	0.97220
3130.00655	0.97260
3127.95274	0.97293
3125.89893	0.97324
3123.84512	0.97349
3121.79131	0.97374
3119.73750	0.97398
3117.68369	0.97417
3115.62988	0.97433
3113.57607	0.97443
3111.52226	0.97462
3109.46845	0.97496
3107.41464	0.97519
3105.36083	0.97527
3103.30702	0.97540
3101.25321	0.97545
3099.19940	0.97553
3097.14559	0.97597
3095.09177	0.97636
3093.03796	0.97622
3090.98415	0.97611
3088.93034	0.97633
3086.87653	0.97652
3084.82272	0.97663
3082.76891	0.97678
3080.71510	0.97686
3078.66129	0.97679
3076.60748	0.97670
3074.55367	0.97669
3072.49986	0.97680
3070.44605	0.97701
3068.39224	0.97731
3066.33843	0.97776
3064.28462	0.97812
3062.23081	0.97811
3060.17700	0.97793
3058.12319	0.97786
3056.06938	0.97789
3054.01557	0.97793
3051.96176	0.97800
3049.90795	0.97817
3047.85414	0.97827
3045.80033	0.97837
3043.74652	0.97882
3041.69271	0.97924
3039.63890	0.97919
3037.58509	0.97892
3035.53128	0.97896
3033.47747	0.97922
3031.42366	0.97929
3029.36985	0.97927
3027.31604	0.97916
3025.26223	0.97902
3023.20842	0.97903
3021.15461	0.97909
3019.10080	0.97917
3017.04699	0.97928
3014.99318	0.97938
3012.93937	0.97948
3010.88556	0.97952
3008.83175	0.97936
3006.77794	0.97905
3004.72413	0.97873
3002.67032	0.97850
3000.61651	0.97835
2998.56270	0.97808
2996.50889	0.97762
2994.45508	0.97717
2992.40127	0.97672
2990.34746	0.97612
2988.29365	0.97521
2986.23984	0.97378
2984.18603	0.97180
2982.13222	0.96947
2980.07841	0.96713
2978.02460	0.96489
2975.97079	0.96202
2973.91698	0.95769
2971.86317	0.95163
2969.80936	0.94391
2967.75555	0.93476
2965.70174	0.92427
2963.64793	0.91333
2961.59412	0.90401
2959.54031	0.89783
2957.48650	0.89435
2955.43269	0.89162
2953.37888	0.88814
2951.32507	0.88484
2949.27126	0.88472
2947.21745	0.88980
2945.16364	0.89904
2943.10983	0.90883
2941.05602	0.91609
2939.00221	0.92029
2936.94840	0.92141
2934.89459	0.91902
2932.84078	0.91318
2930.78697	0.90443
2928.73316	0.89386
2926.67935	0.88257
2924.62554	0.87070
2922.57173	0.85754
2920.51792	0.84422
2918.46411	0.83532
2916.41030	0.83550
2914.35649	0.84472
2912.30268	0.85808
2910.24887	0.87027
2908.19506	0.87936
2906.14125	0.88640
2904.08744	0.89298
2902.03363	0.89963
2899.97982	0.90608
2897.92601	0.91210
2895.87220	0.91733
2893.81839	0.92132
2891.76458	0.92380
2889.71077	0.92481
2887.65696	0.92482
2885.60315	0.92445
2883.54934	0.92354
2881.49553	0.92175
2879.44172	0.91954
2877.38791	0.91798
2875.33410	0.91749
2873.28029	0.91732
2871.22648	0.91657
2869.17267	0.91533
2867.11886	0.91478
2865.06505	0.91694
2863.01124	0.92283
2860.95743	0.93049
2858.90362	0.93661
2856.84981	0.93927
2854.79600	0.93833
2852.74219	0.93519
2850.68838	0.93237
2848.63457	0.93141
2846.58076	0.93117
2844.52695	0.92928
2842.47314	0.92500
2840.41933	0.92003
2838.36552	0.91731
2836.31171	0.91931
2834.25790	0.92628
2832.20409	0.93581
2830.15028	0.94479
2828.09647	0.95156
2826.04266	0.95613
2823.98885	0.95928
2821.93504	0.96171
2819.88123	0.96356
2817.82742	0.96476
2815.77361	0.96564
2813.71980	0.96656
2811.66599	0.96758
2809.61218	0.96851
2807.55837	0.96926
2805.50456	0.97001
2803.45075	0.97089
2801.39693	0.97182
2799.34312	0.97252
2797.28931	0.97285
2795.23550	0.97308
2793.18169	0.97343
2791.12788	0.97371
2789.07407	0.97393
2787.02026	0.97449
2784.96645	0.97522
2782.91264	0.97564
2780.85883	0.97608
2778.80502	0.97663
2776.75121	0.97678
2774.69740	0.97665
2772.64359	0.97673
2770.58978	0.97702
2768.53597	0.97729
2766.48216	0.97760
2764.42835	0.97778
2762.37454	0.97770
2760.32073	0.97776
2758.26692	0.97808
2756.21311	0.97851
2754.15930	0.97878
2752.10549	0.97874
2750.05168	0.97860
2747.99787	0.97865
2745.94406	0.97873
2743.89025	0.97855
2741.83644	0.97814
2739.78263	0.97781
2737.72882	0.97779
2735.67501	0.97776
2733.62120	0.97743
2731.56739	0.97712
2729.51358	0.97705
2727.45977	0.97707
2725.40596	0.97693
2723.35215	0.97673
2721.29834	0.97678
2719.24453	0.97717
2717.19072	0.97769
2715.13691	0.97809
2713.08310	0.97824
2711.02929	0.97833
2708.97548	0.97849
2706.92167	0.97864
2704.86786	0.97866
2702.81405	0.97866
2700.76024	0.97888
2698.70643	0.97924
2696.65262	0.97946
2694.59881	0.97948
2692.54500	0.97935
2690.49119	0.97918
2688.43738	0.97924
2686.38357	0.97939
2684.32976	0.97940
2682.27595	0.97954
2680.22214	0.97969
2678.16833	0.97954
2676.11452	0.97942
2674.06071	0.97952
2672.00690	0.97962
2669.95309	0.97957
2667.89928	0.97933
2665.84547	0.97903
2663.79166	0.97879
2661.73785	0.97874
2659.68404	0.97892
2657.63023	0.97911
2655.57642	0.97924
2653.52261	0.97930
2651.46880	0.97931
2649.41499	0.97953
2647.36118	0.97989
2645.30737	0.98000
2643.25356	0.97988
2641.19975	0.97969
2639.14594	0.97947
2637.09213	0.97938
2635.03832	0.97949
2632.98451	0.97974
2630.93070	0.97994
2628.87689	0.97985
2626.82308	0.97966
2624.76927	0.97962
2622.71546	0.97974
2620.66165	0.97987
2618.60784	0.97988
2616.55403	0.97996
2614.50022	0.98011
2612.44641	0.98006
2610.39260	0.97998
2608.33879	0.98017
2606.28498	0.98053
2604.23117	0.98094
2602.17736	0.98129
2600.12355	0.98135
2598.06974	0.98129
2596.01593	0.98134
2593.96212	0.98127
2591.90831	0.98097
2589.85450	0.98075
2587.80069	0.98084
2585.74688	0.98075
2583.69307	0.98034
2581.63926	0.98012
2579.58545	0.98020
2577.53164	0.98049
2575.47783	0.98093
2573.42402	0.98132
2571.37021	0.98150
2569.31640	0.98158
2567.26259	0.98154
2565.20878	0.98135
2563.15497	0.98128
2561.10116	0.98138
2559.04735	0.98138
2556.99354	0.98139
2554.93973	0.98159
2552.88592	0.98174
2550.83211	0.98171
2548.77830	0.98159
2546.72449	0.98162
2544.67068	0.98192
2542.61687	0.98195
2540.56306	0.98167
2538.50925	0.98170
2536.45544	0.98201
2534.40163	0.98213
2532.34782	0.98205
2530.29401	0.98196
2528.24020	0.98206
2526.18639	0.98214
2524.13258	0.98211
2522.07877	0.98223
2520.02496	0.98245
2517.97115	0.98262
2515.91734	0.98265
2513.86353	0.98278
2511.80972	0.98314
2509.75591	0.98342
2507.70210	0.98355
2505.64828	0.98345
2503.59447	0.98303
2501.54066	0.98285
2499.48685	0.98324
2497.43304	0.98359
2495.37923	0.98335
2493.32542	0.98295
2491.27161	0.98306
2489.21780	0.98334
2487.16399	0.98330
2485.11018	0.98315
2483.05637	0.98317
2481.00256	0.98326
2478.94875	0.98299
2476.89494	0.98261
2474.84113	0.98285
2472.78732	0.98343
2470.73351	0.98356
2468.67970	0.98343
2466.62589	0.98330
2464.57208	0.98295
2462.51827	0.98262
2460.46446	0.98264
2458.41065	0.98264
2456.35684	0.98246
2454.30303	0.98251
2452.24922	0.98269
2450.19541	0.98261
2448.14160	0.98230
2446.08779	0.98212
2444.03398	0.98226
2441.98017	0.98262
2439.92636	0.98291
2437.87255	0.98277
2435.81874	0.98262
2433.76493	0.98267
2431.71112	0.98276
2429.65731	0.98299
2427.60350	0.98319
2425.54969	0.98336
2423.49588	0.98353
2421.44207	0.98359
2419.38826	0.98366
2417.33445	0.98362
2415.28064	0.98352
2413.22683	0.98354
2411.17302	0.98330
2409.11921	0.98278
2407.06540	0.98267
2405.01159	0.98293
2402.95778	0.98290
2400.90397	0.98257
2398.85016	0.98223
2396.79635	0.98231
2394.74254	0.98282
2392.68873	0.98316
2390.63492	0.98316
2388.58111	0.98302
2386.52730	0.98281
2384.47349	0.98273
2382.41968	0.98302
2380.36587	0.98348
2378.31206	0.98365
2376.25825	0.98346
2374.20444	0.98301
2372.15063	0.98266
2370.09682	0.98295
2368.04301	0.98363
2365.98920	0.98381
2363.93539	0.98348
2361.88158	0.98316
2359.82777	0.98245
2357.77396	0.98177
2355.72015	0.98195
2353.66634	0.98228
2351.61253	0.98240
2349.55872	0.98264
2347.50491	0.98285
2345.45110	0.98269
2343.39729	0.98226
2341.34348	0.98201
2339.28967	0.98181
2337.23586	0.98160
2335.18205	0.98183
2333.12824	0.98219
2331.07443	0.98208
2329.02062	0.98167
2326.96681	0.98125
2324.91300	0.98094
2322.85919	0.98080
2320.80538	0.98068
2318.75157	0.98097
2316.69776	0.98170
2314.64395	0.98219
2312.59014	0.98246
2310.53633	0.98234
2308.48252	0.98182
2306.42871	0.98153
2304.37490	0.98158
2302.32109	0.98183
2300.26728	0.98220
2298.21347	0.98229
2296.15966	0.98193
2294.10585	0.98159
2292.05204	0.98174
2289.99823	0.98204
2287.94442	0.98185
2285.89061	0.98155
2283.83680	0.98185
2281.78299	0.98223
2279.72918	0.98182
2277.67537	0.98159
2275.62156	0.98188
2273.56775	0.98169
2271.51394	0.98180
2269.46013	0.98271
2267.40632	0.98338
2265.35251	0.98328
2263.29870	0.98266
2261.24489	0.98206
2259.19108	0.98197
2257.13727	0.98233
2255.08346	0.98288
2253.02965	0.98353
2250.97584	0.98384
2248.92203	0.98376
2246.86822	0.98394
2244.81441	0.98415
2242.76060	0.98368
2240.70679	0.98247
2238.65298	0.98119
2236.59917	0.98119
2234.54536	0.98253
2232.49155	0.98325
2230.43774	0.98312
2228.38393	0.98356
2226.33012	0.98388
2224.27631	0.98299
2222.22250	0.98220
2220.16869	0.98238
2218.11488	0.98207
2216.06107	0.98133
2214.00726	0.98189
2211.95344	0.98286
2209.89963	0.98305
2207.84582	0.98304
2205.79201	0.98280
2203.73820	0.98296
2201.68439	0.98402
2199.63058	0.98417
2197.57677	0.98276
2195.52296	0.98152
2193.46915	0.98145
2191.41534	0.98175
2189.36153	0.98203
2187.30772	0.98320
2185.25391	0.98463
2183.20010	0.98452
2181.14629	0.98330
2179.09248	0.98240
2177.03867	0.98202
2174.98486	0.98150
2172.93105	0.98132
2170.87724	0.98261
2168.82343	0.98378
2166.76962	0.98296
2164.71581	0.98189
2162.66200	0.98204
2160.60819	0.98279
2158.55438	0.98515
2156.50057	0.98762
2154.44676	0.98704
2152.39295	0.98528
2150.33914	0.98416
2148.28533	0.98327
2146.23152	0.98296
2144.17771	0.98339
2142.12390	0.98333
2140.07009	0.98257
2138.01628	0.98251
2135.96247	0.98330
2133.90866	0.98427
2131.85485	0.98471
2129.80104	0.98405
2127.74723	0.98303
2125.69342	0.98257
2123.63961	0.98279
2121.58580	0.98340
2119.53199	0.98378
2117.47818	0.98344
2115.42437	0.98265
2113.37056	0.98174
2111.31675	0.98089
2109.26294	0.98063
2107.20913	0.98116
2105.15532	0.98236
2103.10151	0.98379
2101.04770	0.98437
2098.99389	0.98379
2096.94008	0.98300
2094.88627	0.98270
2092.83246	0.98288
2090.77865	0.98306
2088.72484	0.98299
2086.67103	0.98315
2084.61722	0.98379
2082.56341	0.98396
2080.50960	0.98312
2078.45579	0.98250
2076.40198	0.98274
2074.34817	0.98332
2072.29436	0.98366
2070.24055	0.98343
2068.18674	0.98307
2066.13293	0.98278
2064.07912	0.98256
2062.02531	0.98246
2059.97150	0.98203
2057.91769	0.98173
2055.86388	0.98197
2053.81007	0.98178
2051.75626	0.98065
2049.70245	0.98010
2047.64864	0.98139
2045.59483	0.98296
2043.54102	0.98371
2041.48721	0.98382
2039.43340	0.98310
2037.37959	0.98203
2035.32578	0.98068
2033.27197	0.97932
2031.21816	0.97990
2029.16435	0.98240
2027.11054	0.98370
2025.05673	0.98317
2023.00292	0.98255
2020.94911	0.98258
2018.89530	0.98373
2016.84149	0.98496
2014.78768	0.98434
2012.73387	0.98343
2010.68006	0.98437
2008.62625	0.98515
2006.57244	0.98432
2004.51863	0.98323
2002.46482	0.98272
2000.41101	0.98258
1998.35720	0.98267
1996.30339	0.98305
1994.24958	0.98357
1992.19577	0.98356
1990.14196	0.98305
1988.08815	0.98263
1986.03434	0.98210
1983.98053	0.98187
1981.92672	0.98191
1979.87291	0.98210
1977.81910	0.98308
1975.76529	0.98417
1973.71148	0.98414
1971.65767	0.98333
1969.60386	0.98348
1967.55005	0.98490
1965.49624	0.98614
1963.44243	0.98676
1961.38862	0.98665
1959.33481	0.98525
1957.28100	0.98343
1955.22719	0.98221
1953.17338	0.98177
1951.11957	0.98277
1949.06576	0.98456
1947.01195	0.98521
1944.95814	0.98495
1942.90433	0.98492
1940.85052	0.98460
1938.79671	0.98408
1936.74290	0.98381
1934.68909	0.98326
1932.63528	0.98258
1930.58147	0.98233
1928.52766	0.98236
1926.47385	0.98269
1924.42004	0.98341
1922.36623	0.98405
1920.31242	0.98449
1918.25861	0.98452
1916.20479	0.98408
1914.15098	0.98373
1912.09717	0.98344
1910.04336	0.98331
1907.98955	0.98364
1905.93574	0.98414
1903.88193	0.98448
1901.82812	0.98447
1899.77431	0.98423
1897.72050	0.98396
1895.66669	0.98407
1893.61288	0.98445
1891.55907	0.98429
1889.50526	0.98366
1887.45145	0.98302
1885.39764	0.98280
1883.34383	0.98297
1881.29002	0.98290
1879.23621	0.98258
1877.18240	0.98255
1875.12859	0.98287
1873.07478	0.98310
1871.02097	0.98319
1868.96716	0.98357
1866.91335	0.98374
1864.85954	0.98313
1862.80573	0.98249
1860.75192	0.98235
1858.69811	0.98256
1856.64430	0.98290
1854.59049	0.98330
1852.53668	0.98328
1850.48287	0.98267
1848.42906	0.98211
1846.37525	0.98208
1844.32144	0.98260
1842.26763	0.98323
1840.21382	0.98351
1838.16001	0.98324
1836.10620	0.98282
1834.05239	0.98269
1831.99858	0.98264
1829.94477	0.98274
1827.89096	0.98270
1825.83715	0.98225
1823.78334	0.98201
1821.72953	0.98223
1819.67572	0.98245
1817.62191	0.98243
1815.56810	0.98225
1813.51429	0.98206
1811.46048	0.98190
1809.40667	0.98170
1807.35286	0.98146
1805.29905	0.98122
1803.24524	0.98099
1801.19143	0.98081
1799.13762	0.98063
1797.08381	0.98023
1795.03000	0.97963
1792.97619	0.97900
1790.92238	0.97843
1788.86857	0.97779
1786.81476	0.97710
1784.76095	0.97644
1782.70714	0.97590
1780.65333	0.97541
1778.59952	0.97487
1776.54571	0.97447
1774.49190	0.97428
1772.43809	0.97385
1770.38428	0.97312
1768.33047	0.97251
1766.27666	0.97212
1764.22285	0.97183
1762.16904	0.97143
1760.11523	0.97108
1758.06142	0.97079
1756.00761	0.97031
1753.95380	0.96988
1751.89999	0.96935
1749.84618	0.96850
1747.79237	0.96789
1745.73856	0.96746
1743.68475	0.96688
1741.63094	0.96633
1739.57713	0.96589
1737.52332	0.96566
1735.46951	0.96578
1733.41570	0.96590
1731.36189	0.96550
1729.30808	0.96474
1727.25427	0.96410
1725.20046	0.96361
1723.14665	0.96290
1721.09284	0.96208
1719.03903	0.96142
1716.98522	0.96082
1714.93141	0.96022
1712.87760	0.95977
1710.82379	0.95941
1708.76998	0.95907
1706.71617	0.95913
1704.66236	0.95993
1702.60855	0.96081
1700.55474	0.96161
1698.50093	0.96268
1696.44712	0.96389
1694.39331	0.96486
1692.33950	0.96527
1690.28569	0.96544
1688.23188	0.96558
1686.17807	0.96576
1684.12426	0.96604
1682.07045	0.96629
1680.01664	0.96630
1677.96283	0.96626
1675.90902	0.96621
1673.85521	0.96587
1671.80140	0.96539
1669.74759	0.96506
1667.69378	0.96447
1665.63997	0.96370
1663.58616	0.96305
1661.53235	0.96241
1659.47854	0.96183
1657.42473	0.96144
1655.37092	0.96124
1653.31711	0.96043
1651.26330	0.95882
1649.20949	0.95792
1647.15568	0.95734
1645.10187	0.95674
1643.04806	0.95631
1640.99425	0.95614
1638.94044	0.95617
1636.88663	0.95624
1634.83282	0.95621
1632.77901	0.95631
1630.72520	0.95663
1628.67139	0.95702
1626.61758	0.95749
1624.56377	0.95805
1622.50996	0.95876
1620.45614	0.95954
1618.40233	0.96030
1616.34852	0.96114
1614.29471	0.96194
1612.24090	0.96277
1610.18709	0.96376
1608.13328	0.96475
1606.07947	0.96562
1604.02566	0.96630
1601.97185	0.96677
1599.91804	0.96717
1597.86423	0.96776
1595.81042	0.96855
1593.75661	0.96923
1591.70280	0.96970
1589.64899	0.97002
1587.59518	0.97013
1585.54137	0.97034
1583.48756	0.97088
1581.43375	0.97139
1579.37994	0.97167
1577.32613	0.97197
1575.27232	0.97245
1573.21851	0.97285
1571.16470	0.97313
1569.11089	0.97326
1567.05708	0.97336
1565.00327	0.97363
1562.94946	0.97398
1560.89565	0.97427
1558.84184	0.97468
1556.78803	0.97501
1554.73422	0.97503
1552.68041	0.97490
1550.62660	0.97493
1548.57279	0.97516
1546.51898	0.97527
1544.46517	0.97528
1542.41136	0.97544
1540.35755	0.97580
1538.30374	0.97610
1536.24993	0.97615
1534.19612	0.97599
1532.14231	0.97578
1530.08850	0.97581
1528.03469	0.97603
1525.98088	0.97629
1523.92707	0.97653
1521.87326	0.97667
1519.81945	0.97669
1517.76564	0.97664
1515.71183	0.97648
1513.65802	0.97642
1511.60421	0.97665
1509.55040	0.97712
1507.49659	0.97759
1505.44278	0.97761
1503.38897	0.97718
1501.33516	0.97677
1499.28135	0.97656
1497.22754	0.97644
1495.17373	0.97622
1493.11992	0.97599
1491.06611	0.97563
1489.01230	0.97498
1486.95849	0.97437
1484.90468	0.97386
1482.85087	0.97299
1480.79706	0.97146
1478.74325	0.96899
1476.68944	0.96458
1474.63563	0.95707
1472.58182	0.94817
1470.52801	0.94292
1468.47420	0.94006
1466.42039	0.93514
1464.36658	0.92758
1462.31277	0.92143
1460.25896	0.91804
1458.20515	0.91522
1456.15134	0.91208
1454.09753	0.91029
1452.04372	0.90982
1449.98991	0.91136
1447.93610	0.91697
1445.88229	0.92599
1443.82848	0.93487
1441.77467	0.94166
1439.72086	0.94550
1437.66705	0.94664
1435.61324	0.94724
1433.55943	0.95000
1431.50562	0.95426
1429.45181	0.95812
1427.39800	0.96039
1425.34419	0.96156
1423.29038	0.96237
1421.23657	0.96309
1419.18276	0.96372
1417.12895	0.96407
1415.07514	0.96428
1413.02133	0.96457
1410.96752	0.96481
1408.91371	0.96480
1406.85990	0.96468
1404.80609	0.96467
1402.75228	0.96473
1400.69847	0.96477
1398.64466	0.96486
1396.59085	0.96495
1394.53704	0.96478
1392.48323	0.96427
1390.42942	0.96341
1388.37561	0.96149
1386.32180	0.95747
1384.26799	0.95068
1382.21418	0.93926
1380.16037	0.92047
1378.10656	0.89656
1376.05275	0.87996
1373.99894	0.88334
1371.94513	0.90168
1369.89132	0.92044
1367.83751	0.93390
1365.78370	0.94111
1363.72989	0.94352
1361.67608	0.94275
1359.62227	0.94112
1357.56846	0.94147
1355.51465	0.94470
1353.46084	0.94918
1351.40703	0.95307
1349.35322	0.95605
1347.29941	0.95828
1345.24560	0.95983
1343.19179	0.96088
1341.13798	0.96153
1339.08417	0.96181
1337.03036	0.96185
1334.97655	0.96184
1332.92274	0.96171
1330.86893	0.96126
1328.81512	0.96079
1326.76130	0.96077
1324.70749	0.96135
1322.65368	0.96214
1320.59987	0.96261
1318.54606	0.96274
1316.49225	0.96292
1314.43844	0.96306
1312.38463	0.96277
1310.33082	0.96202
1308.27701	0.96076
1306.22320	0.95912
1304.16939	0.95797
1302.11558	0.95793
1300.06177	0.95834
1298.00796	0.95845
1295.95415	0.95844
1293.90034	0.95879
1291.84653	0.95935
1289.79272	0.95974
1287.73891	0.95985
1285.68510	0.95983
1283.63129	0.95983
1281.57748	0.95983
1279.52367	0.95974
1277.46986	0.95957
1275.41605	0.95937
1273.36224	0.95908
1271.30843	0.95850
1269.25462	0.95767
1267.20081	0.95669
1265.14700	0.95537
1263.09319	0.95349
1261.03938	0.95091
1258.98557	0.94722
1256.93176	0.94237
1254.87795	0.93675
1252.82414	0.92972
1250.77033	0.91957
1248.71652	0.90670
1246.66271	0.89569
1244.60890	0.89181
1242.55509	0.89592
1240.50128	0.90452
1238.44747	0.91375
1236.39366	0.92156
1234.33985	0.92750
1232.28604	0.93159
1230.23223	0.93389
1228.17842	0.93437
1226.12461	0.93278
1224.07080	0.92916
1222.01699	0.92351
1219.96318	0.91557
1217.90937	0.90571
1215.85556	0.89671
1213.80175	0.89322
1211.74794	0.89689
1209.69413	0.90384
1207.64032	0.91012
1205.58651	0.91612
1203.53270	0.92290
1201.47889	0.92937
1199.42508	0.93432
1197.37127	0.93771
1195.31746	0.93989
1193.26365	0.94116
1191.20984	0.94186
1189.15603	0.94230
1187.10222	0.94242
1185.04841	0.94223
1182.99460	0.94193
1180.94079	0.94174
1178.88698	0.94150
1176.83317	0.94075
1174.77936	0.93898
1172.72555	0.93552
1170.67174	0.93039
1168.61793	0.92524
1166.56412	0.92243
1164.51031	0.92315
1162.45650	0.92668
1160.40269	0.93090
1158.34888	0.93392
1156.29507	0.93537
1154.24126	0.93600
1152.18745	0.93659
1150.13364	0.93751
1148.07983	0.93866
1146.02602	0.93972
1143.97221	0.94059
1141.91840	0.94126
1139.86459	0.94164
1137.81078	0.94176
1135.75697	0.94144
1133.70316	0.94085
1131.64935	0.94050
1129.59554	0.94063
1127.54173	0.94094
1125.48792	0.94091
1123.43411	0.94044
1121.38030	0.93997
1119.32649	0.93933
1117.27268	0.93783
1115.21887	0.93470
1113.16506	0.92858
1111.11125	0.91786
1109.05744	0.90381
1107.00363	0.89319
1104.94982	0.89240
1102.89601	0.90001
1100.84220	0.90926
1098.78839	0.91559
1096.73458	0.91928
1094.68077	0.92241
1092.62696	0.92551
1090.57315	0.92798
1088.51934	0.92962
1086.46553	0.93074
1084.41172	0.93166
1082.35791	0.93248
1080.30410	0.93311
1078.25029	0.93351
1076.19648	0.93397
1074.14267	0.93460
1072.08886	0.93503
1070.03505	0.93514
1067.98124	0.93501
1065.92743	0.93463
1063.87362	0.93404
1061.81981	0.93357
1059.76600	0.93360
1057.71219	0.93409
1055.65838	0.93471
1053.60457	0.93518
1051.55076	0.93503
1049.49695	0.93384
1047.44314	0.93211
1045.38933	0.93104
1043.33552	0.93144
1041.28171	0.93303
1039.22790	0.93476
1037.17409	0.93584
1035.12028	0.93617
1033.06647	0.93612
1031.01265	0.93627
1028.95884	0.93689
1026.90503	0.93752
1024.85122	0.93776
1022.79741	0.93774
1020.74360	0.93753
1018.68979	0.93687
1016.63598	0.93559
1014.58217	0.93431
1012.52836	0.93438
1010.47455	0.93582
1008.42074	0.93714
1006.36693	0.93717
1004.31312	0.93545
1002.25931	0.93124
1000.20550	0.92418
998.15169	0.91744
996.09788	0.91628
994.04407	0.92078
991.99026	0.92577
989.93645	0.92890
987.88264	0.93152
985.82883	0.93346
983.77502	0.93311
981.72121	0.93070
979.66740	0.92796
977.61359	0.92467
975.55978	0.91851
973.50597	0.90944
971.45216	0.89961
969.39835	0.89022
967.34454	0.88424
965.29073	0.88679
963.23692	0.89782
961.18311	0.91149
959.12930	0.92289
957.07549	0.93039
955.02168	0.93463
952.96787	0.93704
950.91406	0.93846
948.86025	0.93920
946.80644	0.93950
944.75263	0.93965
942.69882	0.94005
940.64501	0.94090
938.59120	0.94223
936.53739	0.94370
934.48358	0.94483
932.42977	0.94577
930.37596	0.94666
928.32215	0.94733
926.26834	0.94780
924.21453	0.94811
922.16072	0.94838
920.10691	0.94875
918.05310	0.94917
915.99929	0.94955
913.94548	0.94981
911.89167	0.94999
909.83786	0.95005
907.78405	0.94977
905.73024	0.94917
903.67643	0.94784
901.62262	0.94569
899.56881	0.94396
897.51500	0.94394
895.46119	0.94562
893.40738	0.94768
891.35357	0.94901
889.29976	0.94964
887.24595	0.95007
885.19214	0.95063
883.13833	0.95115
881.08452	0.95136
879.03071	0.95161
876.97690	0.95189
874.92309	0.95191
872.86928	0.95191
870.81547	0.95208
868.76166	0.95194
866.70785	0.95113
864.65404	0.94976
862.60023	0.94722
860.54642	0.94154
858.49261	0.93209
856.43880	0.92345
854.38499	0.92210
852.33118	0.92806
850.27737	0.93539
848.22356	0.93971
846.16975	0.93947
844.11594	0.93355
842.06213	0.92470
840.00832	0.92183
837.95451	0.92850
835.90070	0.93739
833.84689	0.94241
831.79308	0.94439
829.73927	0.94574
827.68546	0.94680
825.63165	0.94730
823.57784	0.94770
821.52403	0.94763
819.47022	0.94697
817.41641	0.94659
815.36260	0.94578
813.30879	0.94337
811.25498	0.94040
809.20117	0.93854
807.14736	0.93875
805.09355	0.94058
803.03974	0.94229
800.98593	0.94330
798.93212	0.94394
796.87831	0.94428
794.82450	0.94448
792.77069	0.94467
790.71688	0.94501
788.66307	0.94590
786.60926	0.94674
784.55545	0.94673
782.50164	0.94634
780.44783	0.94600
778.39402	0.94563
776.34021	0.94530
774.28640	0.94528
772.23259	0.94545
770.17878	0.94516
768.12497	0.94445
766.07116	0.94436
764.01735	0.94478
761.96354	0.94475
759.90973	0.94471
757.85592	0.94527
755.80211	0.94590
753.74830	0.94613
751.69449	0.94590
749.64068	0.94556
747.58687	0.94564
745.53306	0.94557
743.47925	0.94464
741.42544	0.94371
739.37163	0.94336
737.31781	0.94304
735.26400	0.94280
733.21019	0.94275
731.15638	0.94267
729.10257	0.94248
727.04876	0.94200
724.99495	0.94087
722.94114	0.93897
720.88733	0.93655
718.83352	0.93470
716.77971	0.93514
714.72590	0.93702
712.67209	0.93803
710.61828	0.93834
708.56447	0.93850
706.51066	0.93824
704.45685	0.93824
702.40304	0.93881
700.34923	0.93884
698.29542	0.93749
696.24161	0.93594
694.18780	0.93566
692.13399	0.93599
690.08018	0.93589
688.02637	0.93549
685.97256	0.93541
683.91875	0.93565
681.86494	0.93571
679.81113	0.93550
677.75732	0.93466
675.70351	0.93348
673.64970	0.93306
671.59589	0.93288
669.54208	0.93165
667.48827	0.93049
665.43446	0.93086
663.38065	0.93092
661.32684	0.93031
659.27303	0.92954
657.21922	0.92840
655.16541	0.92731
653.11160	0.92755
651.05779	0.92813
649.00398	0.92765
646.95017	0.92720
644.89636	0.92734
642.84255	0.92689
640.78874	0.92570
638.73493	0.92469
636.68112	0.92374
634.62731	0.92305
632.57350	0.92232
630.51969	0.91956
628.46588	0.91338
626.41207	0.90590
624.35826	0.90269
622.30445	0.90510
620.25064	0.90860
618.19683	0.91021
616.14302	0.90990
614.08921	0.90935
612.03540	0.91041
609.98159	0.91254
607.92778	0.91383
605.87397	0.91373
603.82016	0.91331
601.76635	0.91369
599.71254	0.91421
597.65873	0.91377
595.60492	0.91274
593.55111	0.91098
591.49730	0.90727
589.44349	0.90232
587.38968	0.89973
585.33587	0.90215
583.28206	0.90639
581.22825	0.90860
579.17444	0.90998
577.12063	0.91119
575.06682	0.91075
573.01301	0.90909
570.95920	0.90854
568.90539	0.90998
566.85158	0.91086
564.79777	0.90978
562.74396	0.90862
560.69015	0.90845
558.63634	0.90882
556.58253	0.90937
554.52872	0.90911
552.47491	0.90766
550.42110	0.90665
548.36729	0.90628
546.31348	0.90637
544.25967	0.90716
542.20586	0.90672
540.15205	0.90523
538.09824	0.90535
536.04443	0.90541
533.99062	0.90361
531.93681	0.90284
529.88300	0.90374
527.82919	0.90480
525.77538	0.90584
523.72157	0.90606
521.66776	0.90500
519.61395	0.90314
517.56014	0.90139
515.50633	0.90134
513.45252	0.90246
511.39871	0.90253
509.34490	0.90184
507.29109	0.90181
505.23728	0.90184
503.18347	0.90126
501.12966	0.90117
499.07585	0.90185
497.02204	0.90245
494.96823	0.90391
492.91442	0.90505
490.86061	0.90406
488.80680	0.90360
486.75299	0.90453
484.69918	0.90474
482.64537	0.90378
480.59156	0.90244
478.53775	0.90109
476.48394	0.89963
474.43013	0.89807
472.37632	0.89665
470.32251	0.89599
468.26870	0.89520
466.21489	0.89313
464.16108	0.89106
462.10727	0.89107
460.05346	0.89143
457.99965	0.88987
455.94584	0.88952
453.89203	0.89177
451.83822	0.89461
449.78441	0.89675
447.73060	0.89819
445.67679	0.89865
443.62298	0.89859
441.56916	0.90010
439.51535	0.90140
437.46154	0.90012
435.40773	0.89838
433.35392	0.89819
431.30011	0.89867
429.24630	0.89917
427.19249	0.89959
425.13868	0.90101
423.08487	0.90356
421.03106	0.90416
418.97725	0.90043
416.92344	0.89846
414.86963	0.90164
412.81582	0.90277
410.76201	0.90057
408.70820	0.89970
406.65439	0.90014
404.60058	0.90105
402.54677	0.90278
400.49296	0.90345
398.43915	0.90115
