3996.70104	0.97038
3994.64724	0.96967
3992.59344	0.96923
3990.53964	0.96908
3988.48583	0.96908
3986.43203	0.96927
3984.37823	0.96967
3982.32442	0.96990
3980.27062	0.96958
3978.21682	0.96907
3976.16301	0.96896
3974.10921	0.96933
3972.05541	0.96966
3970.00160	0.96951
3967.94780	0.96927
3965.89400	0.96919
3963.84019	0.96910
3961.78639	0.96903
3959.73259	0.96916
3957.67878	0.96936
3955.62498	0.96973
3953.57118	0.97017
3951.51737	0.97008
3949.46357	0.96956
3947.40977	0.96912
3945.35596	0.96894
3943.30216	0.96917
3941.24836	0.96977
3939.19455	0.97032
3937.14075	0.97027
3935.08695	0.96979
3933.03315	0.96972
3930.97934	0.97022
3928.92554	0.97019
3926.87174	0.96947
3924.81793	0.96916
3922.76413	0.96951
3920.71033	0.96975
3918.65652	0.96991
3916.60272	0.97004
3914.54892	0.97013
3912.49511	0.97035
3910.44131	0.97047
3908.38751	0.97040
3906.33370	0.97027
3904.27990	0.97016
3902.22610	0.96981
3900.17229	0.96915
3898.11849	0.96935
3896.06469	0.96995
3894.01088	0.96974
3891.95708	0.96922
3889.90328	0.96968
3887.84947	0.97032
3885.79567	0.97042
3883.74187	0.97066
3881.68807	0.97107
3879.63426	0.97128
3877.58046	0.97097
3875.52666	0.97039
3873.47285	0.97027
3871.41905	0.97044
3869.36525	0.97065
3867.31144	0.97082
3865.25764	0.97068
3863.20384	0.97046
3861.15003	0.97029
3859.09623	0.97016
3857.04243	0.97028
3854.98862	0.97091
3852.93482	0.97126
3850.88102	0.97066
3848.82721	0.97044
3846.77341	0.97066
3844.71961	0.97077
3842.66580	0.97038
3840.61200	0.96961
3838.55820	0.96921
3836.50439	0.96950
3834.45059	0.96973
3832.39679	0.96978
3830.34298	0.97007
3828.28918	0.97056
3826.23538	0.97075
3824.18158	0.97075
3822.12777	0.97129
3820.07397	0.97217
3818.02017	0.97239
3815.96636	0.97219
3813.91256	0.97160
3811.85876	0.97104
3809.80495	0.97123
3807.75115	0.97200
3805.69735	0.97247
3803.64354	0.97226
3801.58974	0.97183
3799.53594	0.97155
3797.48213	0.97137
3795.42833	0.97099
3793.37453	0.97082
3791.32072	0.97110
3789.26692	0.97098
3787.21312	0.97075
3785.15931	0.97125
3783.10551	0.97180
3781.05171	0.97195
3778.99790	0.97201
3776.94410	0.97173
3774.89030	0.97112
3772.83650	0.97058
3770.78269	0.97036
3768.72889	0.97062
3766.67509	0.97106
3764.62128	0.97125
3762.56748	0.97069
3760.51368	0.97002
3758.45987	0.97051
3756.40607	0.97172
3754.35227	0.97263
3752.29846	0.97343
3750.24466	0.97378
3748.19086	0.97335
3746.13705	0.97315
3744.08325	0.97270
3742.02945	0.97189
3739.97564	0.97145
3737.92184	0.97137
3735.86804	0.97129
3733.81423	0.97075
3731.76043	0.97055
3729.70663	0.97060
3727.65282	0.97030
3725.59902	0.96953
3723.54522	0.96827
3721.49141	0.96726
3719.43761	0.96675
3717.38381	0.96601
3715.33001	0.96473
3713.27620	0.96228
3711.22240	0.95785
3709.16860	0.95246
3707.11479	0.94728
3705.06099	0.94244
3703.00719	0.93747
3700.95338	0.93239
3698.89958	0.92894
3696.84578	0.92725
3694.79197	0.92710
3692.73817	0.92915
3690.68437	0.93298
3688.63056	0.93718
3686.57676	0.94004
3684.52296	0.94147
3682.46915	0.94200
3680.41535	0.94168
3678.36155	0.94094
3676.30774	0.94022
3674.25394	0.93987
3672.20014	0.93974
3670.14633	0.93918
3668.09253	0.93861
3666.03873	0.93824
3663.98492	0.93742
3661.93112	0.93591
3659.87732	0.93412
3657.82352	0.93283
3655.76971	0.93209
3653.71591	0.93112
3651.66211	0.92931
3649.60830	0.92688
3647.55450	0.92622
3645.50070	0.92658
3643.44689	0.92615
3641.39309	0.92531
3639.33929	0.92447
3637.28548	0.92340
3635.23168	0.92195
3633.17788	0.92061
3631.12407	0.91934
3629.07027	0.91651
3627.01647	0.91285
3624.96266	0.91102
3622.90886	0.91004
3620.85506	0.90938
3618.80125	0.90942
3616.74745	0.90994
3614.69365	0.91054
3612.63984	0.91147
3610.58604	0.91212
3608.53224	0.91177
3606.47844	0.91117
3604.42463	0.91118
3602.37083	0.91119
3600.31703	0.91052
3598.26322	0.90975
3596.20942	0.90941
3594.15562	0.90915
3592.10181	0.90886
3590.04801	0.90814
3587.99421	0.90686
3585.94040	0.90638
3583.88660	0.90661
3581.83280	0.90638
3579.77899	0.90545
3577.72519	0.90438
3575.67139	0.90360
3573.61758	0.90263
3571.56378	0.90156
3569.50998	0.90067
3567.45617	0.89972
3565.40237	0.89890
3563.34857	0.89806
3561.29476	0.89704
3559.24096	0.89613
3557.18716	0.89534
3555.13335	0.89439
3553.07955	0.89304
3551.02575	0.89175
3548.97195	0.89108
3546.91814	0.89072
3544.86434	0.88959
3542.81054	0.88755
3540.75673	0.88603
3538.70293	0.88578
3536.64913	0.88593
3534.59532	0.88523
3532.54152	0.88394
3530.48772	0.88281
3528.43391	0.88165
3526.38011	0.88065
3524.32631	0.88016
3522.27250	0.87962
3520.21870	0.87860
3518.16490	0.87724
3516.11109	0.87587
3514.05729	0.87465
3512.00349	0.87365
3509.94968	0.87285
3507.89588	0.87219
3505.84208	0.87155
3503.78827	0.87033
3501.73447	0.86869
3499.68067	0.86726
3497.62687	0.86602
3495.57306	0.86498
3493.51926	0.86406
3491.46546	0.86321
3489.41165	0.86219
3487.35785	0.86052
3485.30405	0.85895
3483.25024	0.85820
3481.19644	0.85748
3479.14264	0.85655
3477.08883	0.85564
3475.03503	0.85441
3472.98123	0.85308
3470.92742	0.85227
3468.87362	0.85193
3466.81982	0.85146
3464.76601	0.85030
3462.71221	0.84892
3460.65841	0.84811
3458.60460	0.84751
3456.55080	0.84653
3454.49700	0.84520
3452.44319	0.84409
3450.38939	0.84349
3448.33559	0.84303
3446.28178	0.84207
3444.22798	0.84064
3442.17418	0.83941
3440.12038	0.83868
3438.06657	0.83825
3436.01277	0.83782
3433.95897	0.83708
3431.90516	0.83575
3429.85136	0.83422
3427.79756	0.83304
3425.74375	0.83206
3423.68995	0.83092
3421.63615	0.82996
3419.58234	0.82945
3417.52854	0.82907
3415.47474	0.82874
3413.42093	0.82830
3411.36713	0.82755
3409.31333	0.82672
3407.25952	0.82580
3405.20572	0.82464
3403.15192	0.82335
3401.09811	0.82229
3399.04431	0.82170
3396.99051	0.82143
3394.93670	0.82142
3392.88290	0.82139
3390.82910	0.82094
3388.77529	0.82016
3386.72149	0.81957
3384.66769	0.81940
3382.61389	0.81925
3380.56008	0.81907
3378.50628	0.81871
3376.45248	0.81789
3374.39867	0.81745
3372.34487	0.81774
3370.29107	0.81788
3368.23726	0.81777
3366.18346	0.81777
3364.12966	0.81787
3362.07585	0.81813
3360.02205	0.81853
3357.96825	0.81865
3355.91444	0.81872
3353.86064	0.81932
3351.80684	0.81974
3349.75303	0.81950
3347.69923	0.81943
3345.64543	0.81989
3343.59162	0.82046
3341.53782	0.82076
3339.48402	0.82097
3337.43021	0.82139
3335.37641	0.82173
3333.32261	0.82192
3331.26881	0.82230
3329.21500	0.82261
3327.16120	0.82267
3325.10740	0.82297
3323.05359	0.82338
3320.99979	0.82335
3318.94599	0.82314
3316.89218	0.82344
3314.83838	0.82432
3312.78458	0.82527
3310.73077	0.82595
3308.67697	0.82663
3306.62317	0.82761
3304.56936	0.82852
3302.51556	0.82891
3300.46176	0.82899
3298.40795	0.82917
3296.35415	0.82956
3294.30035	0.82989
3292.24654	0.83021
3290.19274	0.83081
3288.13894	0.83141
3286.08513	0.83171
3284.03133	0.83215
3281.97753	0.83274
3279.92372	0.83289
3277.86992	0.83304
3275.81612	0.83372
3273.76232	0.83415
3271.70851	0.83426
3269.65471	0.83488
3267.60091	0.83583
3265.54710	0.83652
3263.49330	0.83709
3261.43950	0.83754
3259.38569	0.83786
3257.33189	0.83839
3255.27809	0.83926
3253.22428	0.84039
3251.17048	0.84134
3249.11668	0.84197
3247.06287	0.84243
3245.00907	0.84255
3242.95527	0.84282
3240.90146	0.84369
3238.84766	0.84479
3236.79386	0.84570
3234.74005	0.84622
3232.68625	0.84661
3230.63245	0.84742
3228.57864	0.84859
3226.52484	0.84972
3224.47104	0.85086
3222.41724	0.85200
3220.36343	0.85278
3218.30963	0.85345
3216.25583	0.85448
3214.20202	0.85549
3212.14822	0.85621
3210.09442	0.85697
3208.04061	0.85784
3205.98681	0.85888
3203.93301	0.86015
3201.87920	0.86146
3199.82540	0.86250
3197.77160	0.86333
3195.71779	0.86434
3193.66399	0.86549
3191.61019	0.86667
3189.55638	0.86796
3187.50258	0.86914
3185.44878	0.87042
3183.39497	0.87173
3181.34117	0.87243
3179.28737	0.87309
3177.23356	0.87453
3175.17976	0.87621
3173.12596	0.87737
3171.07215	0.87804
3169.01835	0.87882
3166.96455	0.87982
3164.91075	0.88077
3162.85694	0.88188
3160.80314	0.88339
3158.74934	0.88493
3156.69553	0.88595
3154.64173	0.88648
3152.58793	0.88746
3150.53412	0.88914
3148.48032	0.89052
3146.42652	0.89114
3144.37271	0.89142
3142.31891	0.89185
3140.26511	0.89281
3138.21130	0.89432
3136.15750	0.89571
3134.10370	0.89630
3132.04989	0.89665
3129.99609	0.89741
3127.94229	0.89825
3125.88848	0.89929
3123.83468	0.90072
3121.78088	0.90173
3119.72707	0.90219
3117.67327	0.90263
3115.61947	0.90313
3113.56566	0.90382
3111.51186	0.90437
3109.45806	0.90467
3107.40426	0.90559
3105.35045	0.90709
3103.29665	0.90809
3101.24285	0.90814
3099.18904	0.90808
3097.13524	0.90853
3095.08144	0.90926
3093.02763	0.90997
3090.97383	0.91016
3088.92003	0.91023
3086.86622	0.91104
3084.81242	0.91209
3082.75862	0.91293
3080.70481	0.91382
3078.65101	0.91478
3076.59721	0.91536
3074.54340	0.91540
3072.48960	0.91558
3070.43580	0.91621
3068.38199	0.91685
3066.32819	0.91739
3064.27439	0.91790
3062.22058	0.91833
3060.16678	0.91896
3058.11298	0.91995
3056.05918	0.92094
3054.00537	0.92149
3051.95157	0.92156
3049.89777	0.92174
3047.84396	0.92233
3045.79016	0.92297
3043.73636	0.92348
3041.68255	0.92410
3039.62875	0.92503
3037.57495	0.92592
3035.52114	0.92636
3033.46734	0.92663
3031.41354	0.92713
3029.35973	0.92770
3027.30593	0.92827
3025.25213	0.92892
3023.19832	0.92948
3021.14452	0.92998
3019.09072	0.93047
3017.03691	0.93076
3014.98311	0.93108
3012.92931	0.93168
3010.87550	0.93230
3008.82170	0.93247
3006.76790	0.93230
3004.71409	0.93243
3002.66029	0.93284
3000.60649	0.93296
2998.55269	0.93274
2996.49888	0.93285
2994.44508	0.93341
2992.39128	0.93353
2990.33747	0.93317
2988.28367	0.93303
2986.22987	0.93281
2984.17606	0.93213
2982.12226	0.93134
2980.06846	0.93044
2978.01465	0.92930
2975.96085	0.92827
2973.90705	0.92751
2971.85324	0.92653
2969.79944	0.92476
2967.74564	0.92223
2965.69183	0.91948
2963.63803	0.91700
2961.58423	0.91501
2959.53042	0.91346
2957.47662	0.91198
2955.42282	0.91033
2953.36901	0.90886
2951.31521	0.90769
2949.26141	0.90615
2947.20761	0.90334
2945.15380	0.89865
2943.10000	0.89210
2941.04620	0.88390
2938.99239	0.87335
2936.93859	0.86009
2934.88479	0.84449
2932.83098	0.82643
2930.77718	0.80513
2928.72338	0.77984
2926.66957	0.74991
2924.61577	0.71423
2922.56197	0.67249
2920.50816	0.62712
2918.45436	0.58417
2916.40056	0.55323
2914.34675	0.54442
2912.29295	0.56011
2910.23915	0.59122
2908.18534	0.62563
2906.13154	0.65615
2904.07774	0.68084
2902.02393	0.70048
2899.97013	0.71659
2897.91633	0.73022
2895.86252	0.74236
2893.80872	0.75440
2891.75492	0.76658
2889.70112	0.77852
2887.64731	0.79061
2885.59351	0.80307
2883.53971	0.81563
2881.48590	0.82809
2879.43210	0.84011
2877.37830	0.85131
2875.32449	0.86135
2873.27069	0.86941
2871.21689	0.87494
2869.16308	0.87801
2867.10928	0.87874
2865.05548	0.87653
2863.00167	0.86995
2860.94787	0.85764
2858.89407	0.83781
2856.84026	0.80750
2854.78646	0.76337
2852.73266	0.70407
2850.67885	0.63822
2848.62505	0.58957
2846.57125	0.58096
2844.51744	0.61199
2842.46364	0.66288
2840.40984	0.71464
2838.35603	0.75812
2836.30223	0.79194
2834.24843	0.81782
2832.19463	0.83774
2830.14082	0.85360
2828.08702	0.86650
2826.03322	0.87672
2823.97941	0.88493
2821.92561	0.89200
2819.87181	0.89806
2817.81800	0.90306
2815.76420	0.90738
2813.71040	0.91116
2811.65659	0.91420
2809.60279	0.91684
2807.54899	0.91950
2805.49518	0.92192
2803.44138	0.92394
2801.38758	0.92584
2799.33377	0.92779
2797.27997	0.92960
2795.22617	0.93106
2793.17236	0.93229
2791.11856	0.93341
2789.06476	0.93470
2787.01095	0.93636
2784.95715	0.93789
2782.90335	0.93890
2780.84955	0.93982
2778.79574	0.94096
2776.74194	0.94194
2774.68814	0.94277
2772.63433	0.94377
2770.58053	0.94471
2768.52673	0.94535
2766.47292	0.94577
2764.41912	0.94615
2762.36532	0.94666
2760.31151	0.94717
2758.25771	0.94760
2756.20391	0.94811
2754.15010	0.94857
2752.09630	0.94873
2750.04250	0.94872
2747.98869	0.94895
2745.93489	0.94948
2743.88109	0.94990
2741.82728	0.95023
2739.77348	0.95078
2737.71968	0.95136
2735.66587	0.95162
2733.61207	0.95170
2731.55827	0.95175
2729.50446	0.95171
2727.45066	0.95185
2725.39686	0.95233
2723.34306	0.95277
2721.28925	0.95292
2719.23545	0.95298
2717.18165	0.95322
2715.12784	0.95359
2713.07404	0.95392
2711.02024	0.95434
2708.96643	0.95469
2706.91263	0.95473
2704.85883	0.95484
2702.80502	0.95521
2700.75122	0.95558
2698.69742	0.95575
2696.64361	0.95580
2694.58981	0.95602
2692.53601	0.95641
2690.48220	0.95671
2688.42840	0.95668
2686.37460	0.95652
2684.32079	0.95657
2682.26699	0.95678
2680.21319	0.95697
2678.15938	0.95712
2676.10558	0.95728
2674.05178	0.95726
2671.99797	0.95685
2669.94417	0.95657
2667.89037	0.95657
2665.83657	0.95658
2663.78276	0.95658
2661.72896	0.95657
2659.67516	0.95663
2657.62135	0.95666
2655.56755	0.95663
2653.51375	0.95671
2651.45994	0.95702
2649.40614	0.95740
2647.35234	0.95750
2645.29853	0.95735
2643.24473	0.95759
2641.19093	0.95802
2639.13712	0.95796
2637.08332	0.95788
2635.02952	0.95836
2632.97571	0.95882
2630.92191	0.95889
2628.86811	0.95882
2626.81430	0.95896
2624.76050	0.95963
2622.70670	0.96033
2620.65289	0.96031
2618.59909	0.96014
2616.54529	0.96069
2614.49149	0.96155
2612.43768	0.96210
2610.38388	0.96208
2608.33008	0.96168
2606.27627	0.96165
2604.22247	0.96226
2602.16867	0.96299
2600.11486	0.96319
2598.06106	0.96327
2596.00726	0.96362
2593.95345	0.96367
2591.89965	0.96347
2589.84585	0.96359
2587.79204	0.96409
2585.73824	0.96461
2583.68444	0.96473
2581.63063	0.96466
2579.57683	0.96527
2577.52303	0.96599
2575.46922	0.96579
2573.41542	0.96538
2571.36162	0.96526
2569.30781	0.96520
2567.25401	0.96520
2565.20021	0.96528
2563.14640	0.96532
2561.09260	0.96544
2559.03880	0.96588
2556.98500	0.96644
2554.93119	0.96682
2552.87739	0.96680
2550.82359	0.96642
2548.76978	0.96626
2546.71598	0.96684
2544.66218	0.96762
2542.60837	0.96781
2540.55457	0.96745
2538.50077	0.96719
2536.44696	0.96738
2534.39316	0.96774
2532.33936	0.96789
2530.28555	0.96768
2528.23175	0.96726
2526.17795	0.96694
2524.12414	0.96726
2522.07034	0.96766
2520.01654	0.96730
2517.96273	0.96704
2515.90893	0.96741
2513.85513	0.96770
2511.80132	0.96794
2509.74752	0.96824
2507.69372	0.96790
2505.63992	0.96707
2503.58611	0.96686
2501.53231	0.96769
2499.47851	0.96835
2497.42470	0.96789
2495.37090	0.96783
2493.31710	0.96891
2491.26329	0.96944
2489.20949	0.96894
2487.15569	0.96866
2485.10188	0.96922
2483.04808	0.96983
2480.99428	0.96946
2478.94047	0.96854
2476.88667	0.96845
2474.83287	0.96895
2472.77906	0.96898
2470.72526	0.96891
2468.67146	0.96904
2466.61765	0.96885
2464.56385	0.96842
2462.51005	0.96825
2460.45624	0.96849
2458.40244	0.96892
2456.34864	0.96929
2454.29483	0.96961
2452.24103	0.96972
2450.18723	0.96963
2448.13343	0.96988
2446.07962	0.96999
2444.02582	0.96920
2441.97202	0.96851
2439.91821	0.96875
2437.86441	0.96934
2435.81061	0.96939
2433.75680	0.96888
2431.70300	0.96888
2429.64920	0.96962
2427.59539	0.96997
2425.54159	0.96974
2423.48779	0.96978
2421.43398	0.96984
2419.38018	0.96955
2417.32638	0.96947
2415.27257	0.96949
2413.21877	0.96941
2411.16497	0.96940
2409.11116	0.96944
2407.05736	0.96934
2405.00356	0.96927
2402.94975	0.96944
2400.89595	0.96943
2398.84215	0.96906
2396.78834	0.96871
2394.73454	0.96878
2392.68074	0.96917
2390.62694	0.96947
2388.57313	0.96955
2386.51933	0.96955
2384.46553	0.96938
2382.41172	0.96901
2380.35792	0.96871
2378.30412	0.96841
2376.25031	0.96803
2374.19651	0.96778
2372.14271	0.96793
2370.08890	0.96809
2368.03510	0.96785
2365.98130	0.96793
2363.92749	0.96826
2361.87369	0.96817
2359.81989	0.96781
2357.76608	0.96796
2355.71228	0.96871
2353.65848	0.96844
2351.60467	0.96737
2349.55087	0.96676
2347.49707	0.96675
2345.44326	0.96718
2343.38946	0.96762
2341.33566	0.96773
2339.28186	0.96762
2337.22805	0.96710
2335.17425	0.96658
2333.12045	0.96722
2331.06664	0.96880
2329.01284	0.96912
2326.95904	0.96751
2324.90523	0.96581
2322.85143	0.96550
2320.79763	0.96634
2318.74382	0.96739
2316.69002	0.96801
2314.63622	0.96768
2312.58241	0.96716
2310.52861	0.96771
2308.47481	0.96856
2306.42100	0.96878
2304.36720	0.96860
2302.31340	0.96792
2300.25959	0.96741
2298.20579	0.96814
2296.15199	0.96909
2294.09818	0.96870
2292.04438	0.96748
2289.99058	0.96661
2287.93677	0.96640
2285.88297	0.96671
2283.82917	0.96719
2281.77537	0.96694
2279.72156	0.96636
2277.66776	0.96703
2275.61396	0.96832
2273.56015	0.96900
2271.50635	0.96942
2269.45255	0.96932
2267.39874	0.96849
2265.34494	0.96815
2263.29114	0.96863
2261.23733	0.96919
2259.18353	0.96964
2257.12973	0.96973
2255.07592	0.96957
2253.02212	0.96975
2250.96832	0.96970
2248.91451	0.96901
2246.86071	0.96939
2244.80691	0.97116
2242.75310	0.97175
2240.69930	0.97051
2238.64550	0.96968
2236.59169	0.97038
2234.53789	0.97142
2232.48409	0.97172
2230.43029	0.97146
2228.37648	0.97203
2226.32268	0.97362
2224.26888	0.97367
2222.21507	0.97211
2220.16127	0.97162
2218.10747	0.97237
2216.05366	0.97265
2213.99986	0.97223
2211.94606	0.97169
2209.89225	0.97142
2207.83845	0.97134
2205.78465	0.97089
2203.73084	0.97005
2201.67704	0.96955
2199.62324	0.97028
2197.56943	0.97215
2195.51563	0.97291
2193.46183	0.97098
2191.40802	0.96931
2189.35422	0.97043
2187.30042	0.97231
2185.24661	0.97259
2183.19281	0.97151
2181.13901	0.97113
2179.08520	0.97160
2177.03140	0.97184
2174.97760	0.97224
2172.92380	0.97210
2170.86999	0.97194
2168.81619	0.97393
2166.76239	0.97647
2164.70858	0.97697
2162.65478	0.97630
2160.60098	0.97654
2158.54717	0.97894
2156.49337	0.98264
2154.43957	0.98394
2152.38576	0.98039
2150.33196	0.97525
2148.27816	0.97339
2146.22435	0.97408
2144.17055	0.97528
2142.11675	0.97686
2140.06294	0.97691
2138.00914	0.97520
2135.95534	0.97320
2133.90153	0.97206
2131.84773	0.97293
2129.79393	0.97433
2127.74012	0.97396
2125.68632	0.97278
2123.63252	0.97313
2121.57871	0.97442
2119.52491	0.97494
2117.47111	0.97484
2115.41731	0.97422
2113.36350	0.97288
2111.30970	0.97218
2109.25590	0.97254
2107.20209	0.97248
2105.14829	0.97190
2103.09449	0.97148
2101.04068	0.97141
2098.98688	0.97196
2096.93308	0.97279
2094.87927	0.97333
2092.82547	0.97395
2090.77167	0.97506
2088.71786	0.97605
2086.66406	0.97571
2084.61026	0.97455
2082.55645	0.97440
2080.50265	0.97502
2078.44885	0.97539
2076.39504	0.97509
2074.34124	0.97429
2072.28744	0.97390
2070.23363	0.97441
2068.17983	0.97597
2066.12603	0.97701
2064.07223	0.97545
2062.01842	0.97310
2059.96462	0.97387
2057.91082	0.97631
2055.85701	0.97612
2053.80321	0.97443
2051.74941	0.97385
2049.69560	0.97415
2047.64180	0.97436
2045.58800	0.97411
2043.53419	0.97510
2041.48039	0.97706
2039.42659	0.97804
2037.37278	0.97904
2035.31898	0.98036
2033.26518	0.97947
2031.21137	0.97519
2029.15757	0.97098
2027.10377	0.97047
2025.04996	0.97270
2022.99616	0.97430
2020.94236	0.97453
2018.88855	0.97501
2016.83475	0.97572
2014.78095	0.97640
2012.72714	0.97718
2010.67334	0.97774
2008.61954	0.97747
2006.56574	0.97747
2004.51193	0.97765
2002.45813	0.97504
2000.40433	0.97262
1998.35052	0.97371
1996.29672	0.97561
1994.24292	0.97724
1992.18911	0.97974
1990.13531	0.98225
1988.08151	0.98177
1986.02770	0.97762
1983.97390	0.97430
1981.92010	0.97359
1979.86629	0.97283
1977.81249	0.97338
1975.75869	0.97618
1973.70488	0.97745
1971.65108	0.97643
1969.59728	0.97522
1967.54347	0.97440
1965.48967	0.97341
1963.43587	0.97304
1961.38206	0.97363
1959.32826	0.97557
1957.27446	0.97823
1955.22066	0.97898
1953.16685	0.97809
1951.11305	0.97722
1949.05925	0.97606
1947.00544	0.97450
1944.95164	0.97408
1942.89784	0.97502
1940.84403	0.97529
1938.79023	0.97478
1936.73643	0.97473
1934.68262	0.97528
1932.62882	0.97587
1930.57502	0.97648
1928.52121	0.97666
1926.46741	0.97606
1924.41361	0.97537
1922.35980	0.97465
1920.30600	0.97406
1918.25220	0.97399
1916.19839	0.97399
1914.14459	0.97402
1912.09079	0.97425
1910.03698	0.97400
1907.98318	0.97337
1905.92938	0.97308
1903.87557	0.97324
1901.82177	0.97391
1899.76797	0.97478
1897.71417	0.97505
1895.66036	0.97476
1893.60656	0.97462
1891.55276	0.97429
1889.49895	0.97361
1887.44515	0.97357
1885.39135	0.97416
1883.33754	0.97475
1881.28374	0.97525
1879.22994	0.97543
1877.17613	0.97489
1875.12233	0.97449
1873.06853	0.97501
1871.01472	0.97594
1868.96092	0.97653
1866.90712	0.97613
1864.85331	0.97491
1862.79951	0.97381
1860.74571	0.97357
1858.69190	0.97391
1856.63810	0.97401
1854.58430	0.97383
1852.53049	0.97381
1850.47669	0.97390
1848.42289	0.97401
1846.36908	0.97417
1844.31528	0.97395
1842.26148	0.97325
1840.20768	0.97316
1838.15387	0.97383
1836.10007	0.97417
1834.04627	0.97369
1831.99246	0.97323
1829.93866	0.97353
1827.88486	0.97366
1825.83105	0.97300
1823.77725	0.97280
1821.72345	0.97348
1819.66964	0.97406
1817.61584	0.97410
1815.56204	0.97378
1813.50823	0.97335
1811.45443	0.97310
1809.40063	0.97278
1807.34682	0.97219
1805.29302	0.97175
1803.23922	0.97198
1801.18541	0.97271
1799.13161	0.97305
1797.07781	0.97272
1795.02400	0.97222
1792.97020	0.97171
1790.91640	0.97116
1788.86260	0.97115
1786.80879	0.97152
1784.75499	0.97147
1782.70119	0.97111
1780.64738	0.97114
1778.59358	0.97102
1776.53978	0.97066
1774.48597	0.97068
1772.43217	0.97085
1770.37837	0.97014
1768.32456	0.96897
1766.27076	0.96841
1764.21696	0.96824
1762.16315	0.96794
1760.10935	0.96749
1758.05555	0.96693
1756.00174	0.96604
1753.94794	0.96483
1751.89414	0.96311
1749.84033	0.96076
1747.78653	0.95845
1745.73273	0.95612
1743.67892	0.95333
1741.62512	0.95061
1739.57132	0.94875
1737.51751	0.94768
1735.46371	0.94691
1733.40991	0.94603
1731.35611	0.94536
1729.30230	0.94510
1727.24850	0.94526
1725.19470	0.94549
1723.14089	0.94540
1721.08709	0.94509
1719.03329	0.94471
1716.97948	0.94413
1714.92568	0.94327
1712.87188	0.94244
1710.81807	0.94145
1708.76427	0.94004
1706.71047	0.93817
1704.65666	0.93624
1702.60286	0.93434
1700.54906	0.93111
1698.49525	0.92665
1696.44145	0.92227
1694.38765	0.91771
1692.33384	0.91381
1690.28004	0.90974
1688.22624	0.90530
1686.17243	0.90079
1684.11863	0.89399
1682.06483	0.88758
1680.01103	0.88372
1677.95722	0.88014
1675.90342	0.87580
1673.84962	0.87095
1671.79581	0.86717
1669.74201	0.86317
1667.68821	0.85850
1665.63440	0.85503
1663.58060	0.85171
1661.52680	0.84783
1659.47299	0.84473
1657.41919	0.84291
1655.36539	0.84196
1653.31158	0.84064
1651.25778	0.83931
1649.20398	0.83899
1647.15017	0.83853
1645.09637	0.83794
1643.04257	0.83772
1640.98876	0.83777
1638.93496	0.83820
1636.88116	0.83851
1634.82735	0.83807
1632.77355	0.83775
1630.71975	0.83819
1628.66594	0.83927
1626.61214	0.84058
1624.55834	0.84234
1622.50454	0.84520
1620.45073	0.84813
1618.39693	0.85121
1616.34313	0.85602
1614.28932	0.86089
1612.23552	0.86444
1610.18172	0.86771
1608.12791	0.87097
1606.07411	0.87394
1604.02031	0.87653
1601.96650	0.87876
1599.91270	0.88055
1597.85890	0.88220
1595.80509	0.88396
1593.75129	0.88561
1591.69749	0.88684
1589.64368	0.88778
1587.58988	0.88856
1585.53608	0.88894
1583.48227	0.88881
1581.42847	0.88850
1579.37467	0.88830
1577.32086	0.88840
1575.26706	0.88898
1573.21326	0.88988
1571.15945	0.89104
1569.10565	0.89249
1567.05185	0.89383
1564.99805	0.89491
1562.94424	0.89568
1560.89044	0.89608
1558.83664	0.89661
1556.78283	0.89737
1554.72903	0.89792
1552.67523	0.89839
1550.62142	0.89857
1548.56762	0.89840
1546.51382	0.89813
1544.46001	0.89799
1542.40621	0.89848
1540.35241	0.89996
1538.29860	0.90214
1536.24480	0.90454
1534.19100	0.90800
1532.13719	0.91196
1530.08339	0.91458
1528.02959	0.91672
1525.97578	0.91887
1523.92198	0.92058
1521.86818	0.92223
1519.81437	0.92402
1517.76057	0.92573
1515.70677	0.92736
1513.65297	0.92846
1511.59916	0.92936
1509.54536	0.93053
1507.49156	0.93216
1505.43775	0.93360
1503.38395	0.93392
1501.33015	0.93388
1499.27634	0.93368
1497.22254	0.93342
1495.16874	0.93301
1493.11493	0.93241
1491.06113	0.93164
1489.00733	0.93040
1486.95352	0.92858
1484.89972	0.92645
1482.84592	0.92346
1480.79211	0.91835
1478.73831	0.90823
1476.68451	0.88305
1474.63070	0.83448
1472.57690	0.78953
1470.52310	0.78767
1468.46929	0.80136
1466.41549	0.80186
1464.36169	0.78078
1462.30788	0.76524
1460.25408	0.77948
1458.20028	0.81679
1456.14648	0.85170
1454.09267	0.86511
1452.03887	0.87203
1449.98507	0.87800
1447.93126	0.88287
1445.87746	0.88633
1443.82366	0.88860
1441.76985	0.89053
1439.71605	0.89230
1437.66225	0.89412
1435.60844	0.89646
1433.55464	0.89856
1431.50084	0.90040
1429.44703	0.90259
1427.39323	0.90486
1425.33943	0.90657
1423.28562	0.90756
1421.23182	0.90817
1419.17802	0.90923
1417.12421	0.91048
1415.07041	0.91134
1413.01661	0.91216
1410.96280	0.91308
1408.90900	0.91417
1406.85520	0.91564
1404.80139	0.91761
1402.74759	0.91937
1400.69379	0.92062
1398.63999	0.92160
1396.58618	0.92198
1394.53238	0.92174
1392.47858	0.92160
1390.42477	0.92163
1388.37097	0.92149
1386.31717	0.92113
1384.26336	0.92032
1382.20956	0.91883
1380.15576	0.91675
1378.10195	0.91480
1376.04815	0.91406
1373.99435	0.91488
1371.94054	0.91596
1369.88674	0.91663
1367.83294	0.91735
1365.77913	0.91842
1363.72533	0.92010
1361.67153	0.92216
1359.61772	0.92378
1357.56392	0.92476
1355.51012	0.92527
1353.45631	0.92570
1351.40251	0.92637
1349.34871	0.92717
1347.29491	0.92797
1345.24110	0.92875
1343.18730	0.92930
1341.13350	0.92955
1339.07969	0.92989
1337.02589	0.93038
1334.97209	0.93083
1332.91828	0.93107
1330.86448	0.93085
1328.81068	0.93027
1326.75687	0.92985
1324.70307	0.92966
1322.64927	0.92930
1320.59546	0.92873
1318.54166	0.92829
1316.48786	0.92818
1314.43405	0.92824
1312.38025	0.92827
1310.32645	0.92833
1308.27264	0.92845
1306.21884	0.92849
1304.16504	0.92830
1302.11123	0.92794
1300.05743	0.92768
1298.00363	0.92794
1295.94982	0.92838
1293.89602	0.92848
1291.84222	0.92855
1289.78842	0.92871
1287.73461	0.92847
1285.68081	0.92781
1283.62701	0.92706
1281.57320	0.92640
1279.51940	0.92578
1277.46560	0.92513
1275.41179	0.92460
1273.35799	0.92372
1271.30419	0.92228
1269.25038	0.92063
1267.19658	0.91882
1265.14278	0.91697
1263.08897	0.91539
1261.03517	0.91440
1258.98137	0.91395
1256.92756	0.91354
1254.87376	0.91302
1252.81996	0.91251
1250.76615	0.91176
1248.71235	0.91060
1246.65855	0.90941
1244.60474	0.90861
1242.55094	0.90804
1240.49714	0.90724
1238.44334	0.90606
1236.38953	0.90459
1234.33573	0.90336
1232.28193	0.90273
1230.22812	0.90227
1228.17432	0.90141
1226.12052	0.89999
1224.06671	0.89854
1222.01291	0.89747
1219.95911	0.89624
1217.90530	0.89460
1215.85150	0.89306
1213.79770	0.89175
1211.74389	0.89023
1209.69009	0.88836
1207.63629	0.88626
1205.58248	0.88393
1203.52868	0.88145
1201.47488	0.87905
1199.42107	0.87659
1197.36727	0.87369
1195.31347	0.87052
1193.25966	0.86737
1191.20586	0.86392
1189.15206	0.85997
1187.09825	0.85600
1185.04445	0.85222
1182.99065	0.84839
1180.93685	0.84441
1178.88304	0.84017
1176.82924	0.83556
1174.77544	0.83099
1172.72163	0.82701
1170.66783	0.82312
1168.61403	0.81897
1166.56022	0.81486
1164.50642	0.81097
1162.45262	0.80749
1160.39881	0.80460
1158.34501	0.80206
1156.29121	0.79936
1154.23740	0.79640
1152.18360	0.79357
1150.12980	0.79075
1148.07599	0.78782
1146.02219	0.78519
1143.96839	0.78270
1141.91458	0.77995
1139.86078	0.77684
1137.80698	0.77318
1135.75317	0.76913
1133.69937	0.76476
1131.64557	0.75988
1129.59176	0.75450
1127.53796	0.74840
1125.48416	0.74130
1123.43036	0.73317
1121.37655	0.72407
1119.32275	0.71448
1117.26895	0.70479
1115.21514	0.69516
1113.16134	0.68587
1111.10754	0.67723
1109.05373	0.66964
1106.99993	0.66319
1104.94613	0.65723
1102.89232	0.65175
1100.83852	0.64737
1098.78472	0.64403
1096.73091	0.64137
1094.67711	0.63942
1092.62331	0.63810
1090.56950	0.63691
1088.51570	0.63558
1086.46190	0.63441
1084.40809	0.63322
1082.35429	0.63151
1080.30049	0.62943
1078.24668	0.62747
1076.19288	0.62556
1074.13908	0.62311
1072.08528	0.61990
1070.03147	0.61606
1067.97767	0.61181
1065.92387	0.60727
1063.87006	0.60219
1061.81626	0.59612
1059.76246	0.58915
1057.70865	0.58147
1055.65485	0.57300
1053.60105	0.56366
1051.54724	0.55354
1049.49344	0.54282
1047.43964	0.53188
1045.38583	0.52126
1043.33203	0.51148
1041.27823	0.50244
1039.22442	0.49369
1037.17062	0.48558
1035.11682	0.47899
1033.06301	0.47449
1031.00921	0.47221
1028.95541	0.47196
1026.90160	0.47356
1024.84780	0.47642
1022.79400	0.47962
1020.74019	0.48272
1018.68639	0.48549
1016.63259	0.48736
1014.57879	0.48837
1012.52498	0.48929
1010.47118	0.49039
1008.41738	0.49195
1006.36357	0.49512
1004.30977	0.50067
1002.25597	0.50874
1000.20216	0.51942
998.14836	0.53244
996.09456	0.54735
994.04075	0.56346
991.98695	0.57973
989.93315	0.59570
987.87934	0.61140
985.82554	0.62699
983.77174	0.64258
981.71793	0.65767
979.66413	0.67171
977.61033	0.68474
975.55652	0.69716
973.50272	0.70895
971.44892	0.72002
969.39511	0.73019
967.34131	0.73885
965.28751	0.74665
963.23371	0.75460
961.17990	0.76194
959.12610	0.76772
957.07230	0.77241
955.01849	0.77697
952.96469	0.78117
950.91089	0.78439
948.85708	0.78724
946.80328	0.79030
944.74948	0.79305
942.69567	0.79507
940.64187	0.79661
938.58807	0.79818
936.53426	0.80008
934.48046	0.80177
932.42666	0.80285
930.37285	0.80366
928.31905	0.80405
926.26525	0.80379
924.21144	0.80295
922.15764	0.80124
920.10384	0.79823
918.05003	0.79426
915.99623	0.79060
913.94243	0.78844
911.88862	0.78885
909.83482	0.79261
907.78102	0.79954
905.72722	0.80847
903.67341	0.81785
901.61961	0.82637
899.56581	0.83348
897.51200	0.83942
895.45820	0.84456
893.40440	0.84876
891.35059	0.85195
889.29679	0.85445
887.24299	0.85640
885.18918	0.85807
883.13538	0.85978
881.08158	0.86123
879.02777	0.86199
876.97397	0.86259
874.92017	0.86355
872.86636	0.86471
870.81256	0.86653
868.75876	0.86922
866.70495	0.87158
864.65115	0.87262
862.59735	0.87306
860.54354	0.87402
858.48974	0.87557
856.43594	0.87734
854.38213	0.87896
852.32833	0.88022
850.27453	0.88131
848.22073	0.88214
846.16692	0.88252
844.11312	0.88244
842.05932	0.88180
840.00551	0.88078
837.95171	0.87973
835.89791	0.87858
833.84410	0.87725
831.79030	0.87579
829.73650	0.87460
827.68269	0.87335
825.62889	0.87124
823.57509	0.86924
821.52128	0.86825
819.46748	0.86735
817.41368	0.86608
815.35987	0.86466
813.30607	0.86305
811.25227	0.86160
809.19846	0.86011
807.14466	0.85747
805.09086	0.85387
803.03705	0.85041
800.98325	0.84707
798.92945	0.84431
796.87565	0.84280
794.82184	0.84196
792.76804	0.84123
790.71424	0.84085
788.66043	0.84117
786.60663	0.84162
784.55283	0.84104
782.49902	0.83944
780.44522	0.83794
778.39142	0.83706
776.33761	0.83641
774.28381	0.83589
772.23001	0.83531
770.17620	0.83421
768.12240	0.83277
766.06860	0.83120
764.01479	0.82933
761.96099	0.82723
759.90719	0.82518
757.85338	0.82326
755.79958	0.82124
753.74578	0.81897
751.69197	0.81689
749.63817	0.81546
747.58437	0.81465
745.53056	0.81436
743.47676	0.81446
741.42296	0.81426
739.36916	0.81255
737.31535	0.80777
735.26155	0.79343
733.20775	0.75881
731.15394	0.71731
729.10014	0.70565
727.04634	0.72422
724.99253	0.73551
722.93873	0.71419
720.88493	0.66342
718.83112	0.62352
716.77732	0.63244
714.72352	0.67448
712.66971	0.71479
710.61591	0.73834
708.56211	0.74768
706.50830	0.74984
704.45450	0.74929
702.40070	0.74800
700.34689	0.74639
698.29309	0.74423
696.23929	0.74273
694.18548	0.74301
692.13168	0.74366
690.07788	0.74381
688.02408	0.74456
685.97027	0.74632
683.91647	0.74797
681.86267	0.74884
679.80886	0.74900
677.75506	0.74842
675.70126	0.74772
673.64745	0.74711
671.59365	0.74632
669.53985	0.74585
667.48604	0.74713
665.43224	0.74931
663.37844	0.75104
661.32463	0.75284
659.27083	0.75440
657.21703	0.75473
655.16322	0.75407
653.10942	0.75332
651.05562	0.75277
649.00181	0.75230
646.94801	0.75222
644.89421	0.75337
642.84040	0.75445
640.78660	0.75398
638.73280	0.75333
636.67899	0.75351
634.62519	0.75318
632.57139	0.75186
630.51759	0.75031
628.46378	0.74868
626.40998	0.74716
624.35618	0.74575
622.30237	0.74451
620.24857	0.74343
618.19477	0.74173
616.14096	0.73898
614.08716	0.73594
612.03336	0.73287
609.97955	0.72907
607.92575	0.72503
605.87195	0.72153
603.81814	0.71824
601.76434	0.71483
599.71054	0.71205
597.65673	0.71054
595.60293	0.71040
593.54913	0.71133
591.49532	0.71177
589.44152	0.71140
587.38772	0.71061
585.33391	0.70802
583.28011	0.70450
581.22631	0.70252
579.17250	0.70125
577.11870	0.69908
575.06490	0.69589
573.01110	0.69275
570.95729	0.69044
568.90349	0.68831
566.84969	0.68549
564.79588	0.68227
562.74208	0.67968
560.68828	0.67699
558.63447	0.67339
556.58067	0.66938
554.52687	0.66545
552.47306	0.66117
550.41926	0.65554
548.36546	0.64902
546.31165	0.64167
544.25785	0.63447
542.20405	0.62862
540.15024	0.62252
538.09644	0.61576
536.04264	0.61079
533.98883	0.61009
531.93503	0.61233
529.88123	0.61374
527.82742	0.61421
525.77362	0.61669
523.71982	0.62242
521.66602	0.62951
519.61221	0.63496
517.55841	0.63899
515.50461	0.64394
513.45080	0.64915
511.39700	0.65352
509.34320	0.65707
507.28939	0.66021
505.23559	0.66284
503.18179	0.66532
501.12798	0.66802
499.07418	0.66997
497.02038	0.67150
494.96657	0.67295
492.91277	0.67218
490.85897	0.66832
488.80516	0.66352
486.75136	0.65832
484.69756	0.65183
482.64375	0.64236
480.58995	0.62936
478.53615	0.61444
476.48234	0.59953
474.42854	0.58506
472.37474	0.56968
470.32093	0.55603
468.26713	0.54776
466.21333	0.54637
464.15953	0.55227
462.10572	0.56373
460.05192	0.57586
457.99812	0.58498
455.94431	0.59238
453.89051	0.60101
451.83671	0.61013
449.78290	0.61584
447.72910	0.61935
445.67530	0.62276
443.62149	0.62545
441.56769	0.62613
439.51389	0.62378
437.46008	0.62157
435.40628	0.62132
433.35248	0.62137
431.29867	0.62247
429.24487	0.62384
427.19107	0.62138
425.13726	0.61798
423.08346	0.61878
421.02966	0.62291
418.97585	0.63287
416.92205	0.64845
414.86825	0.66136
412.81445	0.67038
410.76064	0.67639
408.70684	0.67969
406.65304	0.68222
404.59923	0.69096
402.54543	0.70488
400.49163	0.71469
398.43782	0.71528
