3996.70104	0.99434
3994.64724	0.99526
3992.59344	0.99540
3990.53964	0.99467
3988.48583	0.99394
3986.43203	0.99360
3984.37823	0.99358
3982.32442	0.99407
3980.27062	0.99483
3978.21682	0.99501
3976.16301	0.99490
3974.10921	0.99516
3972.05541	0.99534
3970.00160	0.99486
3967.94780	0.99415
3965.89400	0.99368
3963.84019	0.99347
3961.78639	0.99353
3959.73259	0.99384
3957.67878	0.99417
3955.62498	0.99420
3953.57118	0.99416
3951.51737	0.99458
3949.46357	0.99499
3947.40977	0.99472
3945.35596	0.99441
3943.30216	0.99451
3941.24836	0.99464
3939.19455	0.99458
3937.14075	0.99449
3935.08695	0.99422
3933.03315	0.99359
3930.97934	0.99333
3928.92554	0.99382
3926.87174	0.99424
3924.81793	0.99407
3922.76413	0.99391
3920.71033	0.99417
3918.65652	0.99429
3916.60272	0.99418
3914.54892	0.99431
3912.49511	0.99430
3910.44131	0.99389
3908.38751	0.99355
3906.33370	0.99364
3904.27990	0.99410
3902.22610	0.99408
3900.17229	0.99381
3898.11849	0.99418
3896.06469	0.99438
3894.01088	0.99430
3891.95708	0.99456
3889.90328	0.99466
3887.84947	0.99432
3885.79567	0.99439
3883.74187	0.99489
3881.68807	0.99525
3879.63426	0.99546
3877.58046	0.99493
3875.52666	0.99429
3873.47285	0.99430
3871.41905	0.99430
3869.36525	0.99440
3867.31144	0.99459
3865.25764	0.99456
3863.20384	0.99497
3861.15003	0.99541
3859.09623	0.99537
3857.04243	0.99532
3854.98862	0.99537
3852.93482	0.99573
3850.88102	0.99598
3848.82721	0.99531
3846.77341	0.99418
3844.71961	0.99353
3842.66580	0.99397
3840.61200	0.99513
3838.55820	0.99652
3836.50439	0.99737
3834.45059	0.99676
3832.39679	0.99550
3830.34298	0.99472
3828.28918	0.99415
3826.23538	0.99341
3824.18158	0.99335
3822.12777	0.99397
3820.07397	0.99403
3818.02017	0.99366
3815.96636	0.99395
3813.91256	0.99439
3811.85876	0.99434
3809.80495	0.99412
3807.75115	0.99413
3805.69735	0.99435
3803.64354	0.99435
3801.58974	0.99450
3799.53594	0.99499
3797.48213	0.99520
3795.42833	0.99499
3793.37453	0.99465
3791.32072	0.99436
3789.26692	0.99417
3787.21312	0.99404
3785.15931	0.99402
3783.10551	0.99434
3781.05171	0.99451
3778.99790	0.99428
3776.94410	0.99391
3774.89030	0.99360
3772.83650	0.99340
3770.78269	0.99354
3768.72889	0.99441
3766.67509	0.99473
3764.62128	0.99420
3762.56748	0.99435
3760.51368	0.99516
3758.45987	0.99540
3756.40607	0.99468
3754.35227	0.99380
3752.29846	0.99394
3750.24466	0.99544
3748.19086	0.99587
3746.13705	0.99509
3744.08325	0.99482
3742.02945	0.99496
3739.97564	0.99455
3737.92184	0.99387
3735.86804	0.99329
3733.81423	0.99350
3731.76043	0.99451
3729.70663	0.99509
3727.65282	0.99517
3725.59902	0.99542
3723.54522	0.99563
3721.49141	0.99530
3719.43761	0.99505
3717.38381	0.99499
3715.33001	0.99445
3713.27620	0.99417
3711.22240	0.99502
3709.16860	0.99543
3707.11479	0.99465
3705.06099	0.99315
3703.00719	0.99178
3700.95338	0.99181
3698.89958	0.99260
3696.84578	0.99326
3694.79197	0.99384
3692.73817	0.99395
3690.68437	0.99345
3688.63056	0.99347
3686.57676	0.99419
3684.52296	0.99468
3682.46915	0.99473
3680.41535	0.99446
3678.36155	0.99425
3676.30774	0.99424
3674.25394	0.99405
3672.20014	0.99304
3670.14633	0.99227
3668.09253	0.99276
3666.03873	0.99312
3663.98492	0.99305
3661.93112	0.99317
3659.87732	0.99315
3657.82352	0.99277
3655.76971	0.99272
3653.71591	0.99246
3651.66211	0.99147
3649.60830	0.99079
3647.55450	0.99146
3645.50070	0.99220
3643.44689	0.99246
3641.39309	0.99224
3639.33929	0.99148
3637.28548	0.99090
3635.23168	0.99080
3633.17788	0.99106
3631.12407	0.99187
3629.07027	0.99243
3627.01647	0.99158
3624.96266	0.99079
3622.90886	0.99113
3620.85506	0.99233
3618.80125	0.99314
3616.74745	0.99279
3614.69365	0.99213
3612.63984	0.99205
3610.58604	0.99222
3608.53224	0.99194
3606.47844	0.99150
3604.42463	0.99140
3602.37083	0.99158
3600.31703	0.99164
3598.26322	0.99166
3596.20942	0.99201
3594.15562	0.99234
3592.10181	0.99239
3590.04801	0.99253
3587.99421	0.99278
3585.94040	0.99266
3583.88660	0.99214
3581.83280	0.99169
3579.77899	0.99146
3577.72519	0.99111
3575.67139	0.99082
3573.61758	0.99102
3571.56378	0.99148
3569.50998	0.99178
3567.45617	0.99199
3565.40237	0.99189
3563.34857	0.99114
3561.29476	0.99077
3559.24096	0.99125
3557.18716	0.99160
3555.13335	0.99145
3553.07955	0.99133
3551.02575	0.99141
3548.97195	0.99162
3546.91814	0.99161
3544.86434	0.99090
3542.81054	0.99073
3540.75673	0.99143
3538.70293	0.99178
3536.64913	0.99168
3534.59532	0.99147
3532.54152	0.99114
3530.48772	0.99092
3528.43391	0.99083
3526.38011	0.99073
3524.32631	0.99071
3522.27250	0.99121
3520.21870	0.99206
3518.16490	0.99248
3516.11109	0.99217
3514.05729	0.99136
3512.00349	0.99070
3509.94968	0.99081
3507.89588	0.99132
3505.84208	0.99153
3503.78827	0.99164
3501.73447	0.99177
3499.68067	0.99165
3497.62687	0.99174
3495.57306	0.99208
3493.51926	0.99182
3491.46546	0.99114
3489.41165	0.99108
3487.35785	0.99142
3485.30405	0.99124
3483.25024	0.99095
3481.19644	0.99134
3479.14264	0.99203
3477.08883	0.99225
3475.03503	0.99199
3472.98123	0.99158
3470.92742	0.99104
3468.87362	0.99089
3466.81982	0.99133
3464.76601	0.99143
3462.71221	0.99111
3460.65841	0.99094
3458.60460	0.99035
3456.55080	0.98951
3454.49700	0.98949
3452.44319	0.99007
3450.38939	0.99050
3448.33559	0.99046
3446.28178	0.99016
3444.22798	0.99002
3442.17418	0.98993
3440.12038	0.98985
3438.06657	0.98996
3436.01277	0.99017
3433.95897	0.99036
3431.90516	0.99050
3429.85136	0.99043
3427.79756	0.99026
3425.74375	0.99020
3423.68995	0.99004
3421.63615	0.98968
3419.58234	0.98929
3417.52854	0.98913
3415.47474	0.98931
3413.42093	0.98949
3411.36713	0.98964
3409.31333	0.99000
3407.25952	0.99030
3405.20572	0.99016
3403.15192	0.99007
3401.09811	0.99034
3399.04431	0.99031
3396.99051	0.99017
3394.93670	0.99033
3392.88290	0.99046
3390.82910	0.99052
3388.77529	0.99060
3386.72149	0.99095
3384.66769	0.99146
3382.61389	0.99135
3380.56008	0.99068
3378.50628	0.99038
3376.45248	0.99054
3374.39867	0.99041
3372.34487	0.98994
3370.29107	0.98973
3368.23726	0.99010
3366.18346	0.99081
3364.12966	0.99139
3362.07585	0.99154
3360.02205	0.99127
3357.96825	0.99082
3355.91444	0.99057
3353.86064	0.99069
3351.80684	0.99069
3349.75303	0.99041
3347.69923	0.99052
3345.64543	0.99089
3343.59162	0.99089
3341.53782	0.99087
3339.48402	0.99094
3337.43021	0.99043
3335.37641	0.98962
3333.32261	0.98935
3331.26881	0.98969
3329.21500	0.99022
3327.16120	0.99056
3325.10740	0.99062
3323.05359	0.99067
3320.99979	0.99073
3318.94599	0.99070
3316.89218	0.99057
3314.83838	0.99049
3312.78458	0.99068
3310.73077	0.99087
3308.67697	0.99081
3306.62317	0.99065
3304.56936	0.99080
3302.51556	0.99129
3300.46176	0.99158
3298.40795	0.99149
3296.35415	0.99132
3294.30035	0.99089
3292.24654	0.99043
3290.19274	0.99086
3288.13894	0.99175
3286.08513	0.99185
3284.03133	0.99133
3281.97753	0.99099
3279.92372	0.99089
3277.86992	0.99084
3275.81612	0.99101
3273.76232	0.99157
3271.70851	0.99209
3269.65471	0.99213
3267.60091	0.99173
3265.54710	0.99144
3263.49330	0.99154
3261.43950	0.99136
3259.38569	0.99063
3257.33189	0.99021
3255.27809	0.99065
3253.22428	0.99117
3251.17048	0.99111
3249.11668	0.99085
3247.06287	0.99108
3245.00907	0.99189
3242.95527	0.99235
3240.90146	0.99179
3238.84766	0.99096
3236.79386	0.99074
3234.74005	0.99102
3232.68625	0.99153
3230.63245	0.99186
3228.57864	0.99188
3226.52484	0.99167
3224.47104	0.99131
3222.41724	0.99118
3220.36343	0.99115
3218.30963	0.99101
3216.25583	0.99104
3214.20202	0.99109
3212.14822	0.99083
3210.09442	0.99067
3208.04061	0.99089
3205.98681	0.99099
3203.93301	0.99099
3201.87920	0.99133
3199.82540	0.99168
3197.77160	0.99162
3195.71779	0.99145
3193.66399	0.99155
3191.61019	0.99171
3189.55638	0.99174
3187.50258	0.99192
3185.44878	0.99210
3183.39497	0.99214
3181.34117	0.99220
3179.28737	0.99212
3177.23356	0.99173
3175.17976	0.99129
3173.12596	0.99116
3171.07215	0.99146
3169.01835	0.99191
3166.96455	0.99209
3164.91075	0.99198
3162.85694	0.99175
3160.80314	0.99153
3158.74934	0.99120
3156.69553	0.99081
3154.64173	0.99091
3152.58793	0.99156
3150.53412	0.99210
3148.48032	0.99211
3146.42652	0.99190
3144.37271	0.99184
3142.31891	0.99193
3140.26511	0.99192
3138.21130	0.99173
3136.15750	0.99164
3134.10370	0.99187
3132.04989	0.99203
3129.99609	0.99186
3127.94229	0.99180
3125.88848	0.99191
3123.83468	0.99202
3121.78088	0.99221
3119.72707	0.99242
3117.67327	0.99253
3115.61947	0.99234
3113.56566	0.99216
3111.51186	0.99220
3109.45806	0.99202
3107.40426	0.99178
3105.35045	0.99162
3103.29665	0.99140
3101.24285	0.99142
3099.18904	0.99156
3097.13524	0.99142
3095.08144	0.99127
3093.02763	0.99109
3090.97383	0.99073
3088.92003	0.99088
3086.86622	0.99131
3084.81242	0.99109
3082.75862	0.99039
3080.70481	0.99010
3078.65101	0.99041
3076.59721	0.99086
3074.54340	0.99116
3072.48960	0.99109
3070.43580	0.99099
3068.38199	0.99134
3066.32819	0.99160
3064.27439	0.99137
3062.22058	0.99100
3060.16678	0.99054
3058.11298	0.99008
3056.05918	0.99022
3054.00537	0.99077
3051.95157	0.99087
3049.89777	0.99066
3047.84396	0.99073
3045.79016	0.99100
3043.73636	0.99111
3041.68255	0.99151
3039.62875	0.99209
3037.57495	0.99191
3035.52114	0.99119
3033.46734	0.99097
3031.41354	0.99154
3029.35973	0.99212
3027.30593	0.99202
3025.25213	0.99167
3023.19832	0.99168
3021.14452	0.99164
3019.09072	0.99096
3017.03691	0.99012
3014.98311	0.99002
3012.92931	0.99052
3010.87550	0.99089
3008.82170	0.99077
3006.76790	0.99034
3004.71409	0.99011
3002.66029	0.99028
3000.60649	0.99056
2998.55269	0.99072
2996.49888	0.99059
2994.44508	0.99032
2992.39128	0.99004
2990.33747	0.98983
2988.28367	0.98963
2986.22987	0.98914
2984.17606	0.98851
2982.12226	0.98812
2980.06846	0.98802
2978.01465	0.98801
2975.96085	0.98802
2973.90705	0.98800
2971.85324	0.98764
2969.79944	0.98693
2967.74564	0.98628
2965.69183	0.98588
2963.63803	0.98577
2961.58423	0.98607
2959.53042	0.98652
2957.47662	0.98675
2955.42282	0.98681
2953.36901	0.98708
2951.31521	0.98753
2949.26141	0.98786
2947.20761	0.98822
2945.15380	0.98888
2943.10000	0.98976
2941.04620	0.99038
2938.99239	0.99038
2936.93859	0.99007
2934.88479	0.99023
2932.83098	0.99074
2930.77718	0.99084
2928.72338	0.99061
2926.66957	0.99044
2924.61577	0.99017
2922.56197	0.98999
2920.50816	0.99021
2918.45436	0.99054
2916.40056	0.99063
2914.34675	0.99019
2912.29295	0.98953
2910.23915	0.98904
2908.18534	0.98872
2906.13154	0.98879
2904.07774	0.98938
2902.02393	0.99014
2899.97013	0.99044
2897.91633	0.98997
2895.86252	0.98946
2893.80872	0.98968
2891.75492	0.99007
2889.70112	0.98996
2887.64731	0.98987
2885.59351	0.99021
2883.53971	0.99041
2881.48590	0.99033
2879.43210	0.99026
2877.37830	0.99022
2875.32449	0.99015
2873.27069	0.99005
2871.21689	0.99020
2869.16308	0.99078
2867.10928	0.99140
2865.05548	0.99154
2863.00167	0.99105
2860.94787	0.99041
2858.89407	0.99010
2856.84026	0.99010
2854.78646	0.99009
2852.73266	0.99022
2850.67885	0.99074
2848.62505	0.99133
2846.57125	0.99171
2844.51744	0.99214
2842.46364	0.99257
2840.40984	0.99253
2838.35603	0.99217
2836.30223	0.99200
2834.24843	0.99229
2832.19463	0.99277
2830.14082	0.99287
2828.08702	0.99263
2826.03322	0.99242
2823.97941	0.99233
2821.92561	0.99231
2819.87181	0.99235
2817.81800	0.99240
2815.76420	0.99249
2813.71040	0.99259
2811.65659	0.99273
2809.60279	0.99276
2807.54899	0.99254
2805.49518	0.99228
2803.44138	0.99229
2801.38758	0.99246
2799.33377	0.99254
2797.27997	0.99252
2795.22617	0.99249
2793.17236	0.99268
2791.11856	0.99299
2789.06476	0.99300
2787.01095	0.99294
2784.95715	0.99302
2782.90335	0.99293
2780.84955	0.99297
2778.79574	0.99330
2776.74194	0.99330
2774.68814	0.99295
2772.63433	0.99276
2770.58053	0.99286
2768.52673	0.99302
2766.47292	0.99305
2764.41912	0.99323
2762.36532	0.99356
2760.31151	0.99350
2758.25771	0.99318
2756.20391	0.99303
2754.15010	0.99294
2752.09630	0.99282
2750.04250	0.99279
2747.98869	0.99285
2745.93489	0.99287
2743.88109	0.99291
2741.82728	0.99312
2739.77348	0.99347
2737.71968	0.99371
2735.66587	0.99366
2733.61207	0.99356
2731.55827	0.99352
2729.50446	0.99332
2727.45066	0.99328
2725.39686	0.99362
2723.34306	0.99381
2721.28925	0.99376
2719.23545	0.99380
2717.18165	0.99367
2715.12784	0.99344
2713.07404	0.99349
2711.02024	0.99365
2708.96643	0.99365
2706.91263	0.99349
2704.85883	0.99340
2702.80502	0.99335
2700.75122	0.99299
2698.69742	0.99279
2696.64361	0.99318
2694.58981	0.99332
2692.53601	0.99287
2690.48220	0.99273
2688.42840	0.99322
2686.37460	0.99370
2684.32079	0.99376
2682.26699	0.99362
2680.21319	0.99353
2678.15938	0.99338
2676.10558	0.99327
2674.05178	0.99350
2671.99797	0.99375
2669.94417	0.99357
2667.89037	0.99334
2665.83657	0.99348
2663.78276	0.99353
2661.72896	0.99324
2659.67516	0.99316
2657.62135	0.99338
2655.56755	0.99353
2653.51375	0.99351
2651.45994	0.99327
2649.40614	0.99302
2647.35234	0.99295
2645.29853	0.99300
2643.24473	0.99306
2641.19093	0.99306
2639.13712	0.99303
2637.08332	0.99296
2635.02952	0.99282
2632.97571	0.99279
2630.92191	0.99287
2628.86811	0.99282
2626.81430	0.99275
2624.76050	0.99283
2622.70670	0.99294
2620.65289	0.99289
2618.59909	0.99295
2616.54529	0.99337
2614.49149	0.99379
2612.43768	0.99378
2610.38388	0.99347
2608.33008	0.99321
2606.27627	0.99309
2604.22247	0.99334
2602.16867	0.99396
2600.11486	0.99417
2598.06106	0.99384
2596.00726	0.99328
2593.95345	0.99246
2591.89965	0.99169
2589.84585	0.99188
2587.79204	0.99299
2585.73824	0.99381
2583.68444	0.99410
2581.63063	0.99446
2579.57683	0.99478
2577.52303	0.99465
2575.46922	0.99384
2573.41542	0.99291
2571.36162	0.99269
2569.30781	0.99303
2567.25401	0.99340
2565.20021	0.99328
2563.14640	0.99294
2561.09260	0.99341
2559.03880	0.99443
2556.98500	0.99491
2554.93119	0.99520
2552.87739	0.99535
2550.82359	0.99460
2548.76978	0.99384
2546.71598	0.99407
2544.66218	0.99443
2542.60837	0.99437
2540.55457	0.99425
2538.50077	0.99411
2536.44696	0.99416
2534.39316	0.99420
2532.33936	0.99387
2530.28555	0.99368
2528.23175	0.99396
2526.17795	0.99422
2524.12414	0.99422
2522.07034	0.99412
2520.01654	0.99415
2517.96273	0.99458
2515.90893	0.99492
2513.85513	0.99443
2511.80132	0.99400
2509.74752	0.99469
2507.69372	0.99547
2505.63992	0.99538
2503.58611	0.99529
2501.53231	0.99567
2499.47851	0.99574
2497.42470	0.99510
2495.37090	0.99430
2493.31710	0.99407
2491.26329	0.99425
2489.20949	0.99439
2487.15569	0.99424
2485.10188	0.99362
2483.04808	0.99333
2480.99428	0.99392
2478.94047	0.99438
2476.88667	0.99443
2474.83287	0.99459
2472.77906	0.99447
2470.72526	0.99419
2468.67146	0.99432
2466.61765	0.99459
2464.56385	0.99493
2462.51005	0.99571
2460.45624	0.99652
2458.40244	0.99663
2456.34864	0.99626
2454.29483	0.99579
2452.24103	0.99549
2450.18723	0.99565
2448.13343	0.99545
2446.07962	0.99471
2444.02582	0.99443
2441.97202	0.99474
2439.91821	0.99529
2437.86441	0.99573
2435.81061	0.99555
2433.75680	0.99486
2431.70300	0.99434
2429.64920	0.99439
2427.59539	0.99484
2425.54159	0.99529
2423.48779	0.99527
2421.43398	0.99481
2419.38018	0.99439
2417.32638	0.99430
2415.27257	0.99443
2413.21877	0.99459
2411.16497	0.99484
2409.11116	0.99503
2407.05736	0.99503
2405.00356	0.99469
2402.94975	0.99414
2400.89595	0.99392
2398.84215	0.99400
2396.78834	0.99437
2394.73454	0.99521
2392.68074	0.99581
2390.62694	0.99557
2388.57313	0.99496
2386.51933	0.99434
2384.46553	0.99387
2382.41172	0.99382
2380.35792	0.99373
2378.30412	0.99329
2376.25031	0.99304
2374.19651	0.99351
2372.14271	0.99425
2370.08890	0.99455
2368.03510	0.99505
2365.98130	0.99664
2363.92749	0.99824
2361.87369	0.99781
2359.81989	0.99594
2357.76608	0.99425
2355.71228	0.99342
2353.65848	0.99401
2351.60467	0.99517
2349.55087	0.99551
2347.49707	0.99532
2345.44326	0.99530
2343.38946	0.99521
2341.33566	0.99460
2339.28186	0.99383
2337.22805	0.99343
2335.17425	0.99335
2333.12045	0.99330
2331.06664	0.99370
2329.01284	0.99414
2326.95904	0.99349
2324.90523	0.99220
2322.85143	0.99185
2320.79763	0.99272
2318.74382	0.99366
2316.69002	0.99393
2314.63622	0.99335
2312.58241	0.99297
2310.52861	0.99364
2308.47481	0.99430
2306.42100	0.99449
2304.36720	0.99452
2302.31340	0.99423
2300.25959	0.99367
2298.20579	0.99324
2296.15199	0.99300
2294.09818	0.99289
2292.04438	0.99263
2289.99058	0.99223
2287.93677	0.99210
2285.88297	0.99216
2283.82917	0.99226
2281.77537	0.99266
2279.72156	0.99366
2277.66776	0.99474
2275.61396	0.99522
2273.56015	0.99525
2271.50635	0.99486
2269.45255	0.99473
2267.39874	0.99553
2265.34494	0.99624
2263.29114	0.99544
2261.23733	0.99385
2259.18353	0.99319
2257.12973	0.99360
2255.07592	0.99445
2253.02212	0.99470
2250.96832	0.99395
2248.91451	0.99383
2246.86071	0.99442
2244.80691	0.99445
2242.75310	0.99419
2240.69930	0.99379
2238.64550	0.99303
2236.59169	0.99289
2234.53789	0.99394
2232.48409	0.99469
2230.43029	0.99420
2228.37648	0.99304
2226.32268	0.99193
2224.26888	0.99158
2222.21507	0.99227
2220.16127	0.99389
2218.10747	0.99537
2216.05366	0.99561
2213.99986	0.99509
2211.94606	0.99432
2209.89225	0.99418
2207.83845	0.99604
2205.78465	0.99856
2203.73084	0.99980
2201.67704	1.00013
2199.62324	0.99910
2197.56943	0.99688
2195.51563	0.99625
2193.46183	0.99698
2191.40802	0.99761
2189.35422	0.99869
2187.30042	0.99884
2185.24661	0.99746
2183.19281	0.99645
2181.13901	0.99601
2179.08520	0.99579
2177.03140	0.99560
2174.97760	0.99445
2172.92380	0.99314
2170.86999	0.99287
2168.81619	0.99304
2166.76239	0.99387
2164.70858	0.99585
2162.65478	0.99784
2160.60098	0.99826
2158.54717	0.99717
2156.49337	0.99747
2154.43957	0.99877
2152.38576	0.99748
2150.33196	0.99550
2148.27816	0.99637
2146.22435	0.99794
2144.17055	0.99864
2142.11675	0.99959
2140.06294	0.99888
2138.00914	0.99631
2135.95534	0.99505
2133.90153	0.99580
2131.84773	0.99705
2129.79393	0.99761
2127.74012	0.99765
2125.68632	0.99740
2123.63252	0.99648
2121.57871	0.99556
2119.52491	0.99529
2117.47111	0.99506
2115.41731	0.99470
2113.36350	0.99452
2111.30970	0.99451
2109.25590	0.99493
2107.20209	0.99484
2105.14829	0.99383
2103.09449	0.99327
2101.04068	0.99342
2098.98688	0.99402
2096.93308	0.99549
2094.87927	0.99698
2092.82547	0.99677
2090.77167	0.99538
2088.71786	0.99434
2086.66406	0.99479
2084.61026	0.99604
2082.55645	0.99613
2080.50265	0.99477
2078.44885	0.99296
2076.39504	0.99273
2074.34124	0.99425
2072.28744	0.99495
2070.23363	0.99476
2068.17983	0.99545
2066.12603	0.99614
2064.07223	0.99579
2062.01842	0.99622
2059.96462	0.99739
2057.91082	0.99715
2055.85701	0.99593
2053.80321	0.99491
2051.74941	0.99417
2049.69560	0.99466
2047.64180	0.99597
2045.58800	0.99582
2043.53419	0.99613
2041.48039	0.99851
2039.42659	0.99831
2037.37278	0.99464
2035.31898	0.99352
2033.26518	0.99680
2031.21137	1.00027
2029.15757	1.00140
2027.10377	1.00054
2025.04996	0.99773
2022.99616	0.99467
2020.94236	0.99502
2018.88855	0.99735
2016.83475	0.99821
2014.78095	0.99876
2012.72714	0.99959
2010.67334	0.99974
2008.61954	0.99911
2006.56574	0.99798
2004.51193	0.99667
2002.45813	0.99594
2000.40433	0.99575
1998.35052	0.99538
1996.29672	0.99454
1994.24292	0.99341
1992.18911	0.99367
1990.13531	0.99494
1988.08151	0.99520
1986.02770	0.99499
1983.97390	0.99494
1981.92010	0.99456
1979.86629	0.99411
1977.81249	0.99507
1975.75869	0.99591
1973.70488	0.99447
1971.65108	0.99311
1969.59728	0.99280
1967.54347	0.99235
1965.48967	0.99290
1963.43587	0.99458
1961.38206	0.99493
1959.32826	0.99384
1957.27446	0.99396
1955.22066	0.99552
1953.16685	0.99638
1951.11305	0.99566
1949.05925	0.99444
1947.00544	0.99414
1944.95164	0.99428
1942.89784	0.99383
1940.84403	0.99348
1938.79023	0.99437
1936.73643	0.99633
1934.68262	0.99764
1932.62882	0.99808
1930.57502	0.99832
1928.52121	0.99767
1926.46741	0.99675
1924.41361	0.99646
1922.35980	0.99676
1920.30600	0.99713
1918.25220	0.99702
1916.19839	0.99704
1914.14459	0.99720
1912.09079	0.99739
1910.03698	0.99786
1907.98318	0.99804
1905.92938	0.99779
1903.87557	0.99791
1901.82177	0.99861
1899.76797	0.99868
1897.71417	0.99774
1895.66036	0.99737
1893.60656	0.99777
1891.55276	0.99793
1889.49895	0.99788
1887.44515	0.99722
1885.39135	0.99607
1883.33754	0.99585
1881.28374	0.99662
1879.22994	0.99680
1877.17613	0.99634
1875.12233	0.99679
1873.06853	0.99760
1871.01472	0.99711
1868.96092	0.99628
1866.90712	0.99675
1864.85331	0.99717
1862.79951	0.99725
1860.74571	0.99742
1858.69190	0.99718
1856.63810	0.99685
1854.58430	0.99680
1852.53049	0.99693
1850.47669	0.99731
1848.42289	0.99751
1846.36908	0.99761
1844.31528	0.99815
1842.26148	0.99786
1840.20768	0.99663
1838.15387	0.99582
1836.10007	0.99550
1834.04627	0.99491
1831.99246	0.99443
1829.93866	0.99480
1827.88486	0.99527
1825.83105	0.99514
1823.77725	0.99487
1821.72345	0.99453
1819.66964	0.99449
1817.61584	0.99526
1815.56204	0.99609
1813.50823	0.99616
1811.45443	0.99576
1809.40063	0.99545
1807.34682	0.99523
1805.29302	0.99495
1803.23922	0.99481
1801.18541	0.99472
1799.13161	0.99421
1797.07781	0.99371
1795.02400	0.99365
1792.97020	0.99402
1790.91640	0.99489
1788.86260	0.99556
1786.80879	0.99552
1784.75499	0.99506
1782.70119	0.99481
1780.64738	0.99482
1778.59358	0.99479
1776.53978	0.99465
1774.48597	0.99464
1772.43217	0.99477
1770.37837	0.99467
1768.32456	0.99440
1766.27076	0.99398
1764.21696	0.99364
1762.16315	0.99328
1760.10935	0.99230
1758.05555	0.99108
1756.00174	0.99028
1753.94794	0.98954
1751.89414	0.98818
1749.84033	0.98595
1747.78653	0.98286
1745.73273	0.97857
1743.67892	0.97290
1741.62512	0.96606
1739.57132	0.95810
1737.51751	0.95050
1735.46371	0.94271
1733.40991	0.93229
1731.35611	0.92289
1729.30230	0.91530
1727.24850	0.90801
1725.19470	0.90118
1723.14089	0.89457
1721.08709	0.88832
1719.03329	0.88218
1716.97948	0.87593
1714.92568	0.87142
1712.87188	0.86916
1710.81807	0.86935
1708.76427	0.87213
1706.71047	0.87772
1704.65666	0.88496
1702.60286	0.89069
1700.54906	0.89834
1698.49525	0.90797
1696.44145	0.91535
1694.38765	0.92197
1692.33384	0.92610
1690.28004	0.92947
1688.22624	0.93282
1686.17243	0.93537
1684.11863	0.93904
1682.06483	0.94255
1680.01103	0.94441
1677.95722	0.94649
1675.90342	0.94943
1673.84962	0.95229
1671.79581	0.95420
1669.74201	0.95655
1667.68821	0.95926
1665.63440	0.96124
1663.58060	0.96320
1661.52680	0.96524
1659.47299	0.96679
1657.41919	0.96785
1655.36539	0.96864
1653.31158	0.97038
1651.25778	0.97220
1649.20398	0.97261
1647.15017	0.97341
1645.09637	0.97417
1643.04257	0.97425
1640.98876	0.97464
1638.93496	0.97526
1636.88116	0.97605
1634.82735	0.97733
1632.77355	0.97796
1630.71975	0.97817
1628.66594	0.97861
1626.61214	0.97896
1624.55834	0.97931
1622.50454	0.98000
1620.45073	0.98016
1618.39693	0.97962
1616.34313	0.97913
1614.28932	0.97932
1612.23552	0.97998
1610.18172	0.98092
1608.12791	0.98196
1606.07411	0.98274
1604.02031	0.98328
1601.96650	0.98391
1599.91270	0.98469
1597.85890	0.98542
1595.80509	0.98597
1593.75129	0.98624
1591.69749	0.98607
1589.64368	0.98570
1587.58988	0.98555
1585.53608	0.98514
1583.48227	0.98395
1581.42847	0.98243
1579.37467	0.98119
1577.32086	0.98067
1575.26706	0.98141
1573.21326	0.98266
1571.15945	0.98406
1569.10565	0.98551
1567.05185	0.98607
1564.99805	0.98617
1562.94424	0.98653
1560.89044	0.98703
1558.83664	0.98754
1556.78283	0.98788
1554.72903	0.98848
1552.67523	0.98918
1550.62142	0.98920
1548.56762	0.98878
1546.51382	0.98872
1544.46001	0.98920
1542.40621	0.98946
1540.35241	0.98927
1538.29860	0.98935
1536.24480	0.98926
1534.19100	0.98938
1532.13719	0.98962
1530.08339	0.98941
1528.02959	0.98918
1525.97578	0.98903
1523.92198	0.98867
1521.86818	0.98864
1519.81437	0.98909
1517.76057	0.98930
1515.70677	0.98917
1513.65297	0.98861
1511.59916	0.98720
1509.54536	0.98444
1507.49156	0.97918
1505.43775	0.97471
1503.38395	0.97558
1501.33015	0.97910
1499.27634	0.98384
1497.22254	0.98786
1495.16874	0.98967
1493.11493	0.99018
1491.06113	0.99048
1489.00733	0.99050
1486.95352	0.98980
1484.89972	0.98879
1482.84592	0.98769
1480.79211	0.98638
1478.73831	0.98492
1476.68451	0.98302
1474.63070	0.98022
1472.57690	0.97716
1470.52310	0.97638
1468.46929	0.97777
1466.41549	0.97957
1464.36169	0.98068
1462.30788	0.98059
1460.25408	0.97990
1458.20028	0.97938
1456.14648	0.97880
1454.09267	0.97816
1452.03887	0.97814
1449.98507	0.97859
1447.93126	0.97926
1445.87746	0.97985
1443.82366	0.98020
1441.76985	0.98056
1439.71605	0.98118
1437.66225	0.98236
1435.60844	0.98386
1433.55464	0.98475
1431.50084	0.98542
1429.44703	0.98618
1427.39323	0.98667
1425.33943	0.98661
1423.28562	0.98591
1421.23182	0.98442
1419.17802	0.98085
1417.12421	0.97418
1415.07041	0.96558
1413.01661	0.95557
1410.96280	0.94643
1408.90900	0.94191
1406.85520	0.94354
1404.80139	0.95039
1402.74759	0.95841
1400.69379	0.96452
1398.63999	0.96914
1396.58618	0.97217
1394.53238	0.97404
1392.47858	0.97510
1390.42477	0.97532
1388.37097	0.97501
1386.31717	0.97463
1384.26336	0.97491
1382.20956	0.97585
1380.15576	0.97656
1378.10195	0.97641
1376.04815	0.97565
1373.99435	0.97474
1371.94054	0.97417
1369.88674	0.97435
1367.83294	0.97539
1365.77913	0.97690
1363.72533	0.97867
1361.67153	0.98060
1359.61772	0.98185
1357.56392	0.98223
1355.51012	0.98172
1353.45631	0.98023
1351.40251	0.97758
1349.34871	0.97291
1347.29491	0.96509
1345.24110	0.95399
1343.18730	0.94166
1341.13350	0.93186
1339.07969	0.92891
1337.02589	0.93480
1334.97209	0.94605
1332.91828	0.95806
1330.86448	0.96765
1328.81068	0.97370
1326.75687	0.97660
1324.70307	0.97738
1322.64927	0.97708
1320.59546	0.97633
1318.54166	0.97526
1316.48786	0.97396
1314.43405	0.97252
1312.38025	0.97078
1310.32645	0.96879
1308.27264	0.96678
1306.21884	0.96449
1304.16504	0.96163
1302.11123	0.95810
1300.05743	0.95401
1298.00363	0.94933
1295.94982	0.94414
1293.89602	0.93898
1291.84222	0.93413
1289.78842	0.92975
1287.73461	0.92559
1285.68081	0.92126
1283.62701	0.91682
1281.57320	0.91230
1279.51940	0.90762
1277.46560	0.90290
1275.41179	0.89810
1273.35799	0.89312
1271.30419	0.88799
1269.25038	0.88267
1267.19658	0.87735
1265.14278	0.87261
1263.08897	0.86863
1261.03517	0.86518
1258.98137	0.86227
1256.92756	0.85988
1254.87376	0.85754
1252.81996	0.85472
1250.76615	0.85122
1248.71235	0.84711
1246.65855	0.84290
1244.60474	0.83931
1242.55094	0.83630
1240.49714	0.83421
1238.44334	0.83368
1236.38953	0.83473
1234.33573	0.83735
1232.28193	0.84135
1230.22812	0.84587
1228.17432	0.84997
1226.12052	0.85357
1224.06671	0.85719
1222.01291	0.86086
1219.95911	0.86464
1217.90530	0.86905
1215.85150	0.87390
1213.79770	0.87851
1211.74389	0.88256
1209.69009	0.88619
1207.63629	0.88977
1205.58248	0.89333
1203.52868	0.89671
1201.47488	0.90016
1199.42107	0.90419
1197.36727	0.90907
1195.31347	0.91448
1193.25966	0.91982
1191.20586	0.92449
1189.15206	0.92837
1187.09825	0.93181
1185.04445	0.93457
1182.99065	0.93648
1180.93685	0.93796
1178.88304	0.93913
1176.82924	0.94011
1174.77544	0.94141
1172.72163	0.94346
1170.66783	0.94646
1168.61403	0.95014
1166.56022	0.95360
1164.50642	0.95599
1162.45262	0.95721
1160.39881	0.95777
1158.34501	0.95806
1156.29121	0.95779
1154.23740	0.95656
1152.18360	0.95447
1150.12980	0.95186
1148.07599	0.94875
1146.02219	0.94498
1143.96839	0.94029
1141.91458	0.93432
1139.86078	0.92713
1137.80698	0.91912
1135.75317	0.91030
1133.69937	0.90051
1131.64557	0.89041
1129.59176	0.88103
1127.53796	0.87269
1125.48416	0.86512
1123.43036	0.85837
1121.37655	0.85291
1119.32275	0.84915
1117.26895	0.84748
1115.21514	0.84755
1113.16134	0.84748
1111.10754	0.84566
1109.05373	0.84236
1106.99993	0.83797
1104.94613	0.83271
1102.89232	0.82731
1100.83852	0.82226
1098.78472	0.81808
1096.73091	0.81492
1094.67711	0.81269
1092.62331	0.81155
1090.56950	0.81113
1088.51570	0.81107
1086.46190	0.81179
1084.40809	0.81336
1082.35429	0.81529
1080.30049	0.81761
1078.24668	0.82102
1076.19288	0.82580
1074.13908	0.83117
1072.08528	0.83622
1070.03147	0.84071
1067.97767	0.84446
1065.92387	0.84721
1063.87006	0.84918
1061.81626	0.85106
1059.76246	0.85323
1057.70865	0.85531
1055.65485	0.85664
1053.60105	0.85720
1051.54724	0.85791
1049.49344	0.85888
1047.43964	0.85945
1045.38583	0.85978
1043.33203	0.86025
1041.27823	0.86120
1039.22442	0.86302
1037.17062	0.86557
1035.11682	0.86899
1033.06301	0.87382
1031.00921	0.87941
1028.95541	0.88336
1026.90160	0.88114
1024.84780	0.86998
1022.79400	0.85421
1020.74019	0.84008
1018.68639	0.82954
1016.63259	0.82380
1014.57879	0.82450
1012.52498	0.83026
1010.47118	0.83757
1008.41738	0.84411
1006.36357	0.84952
1004.30977	0.85434
1002.25597	0.85898
1000.20216	0.86320
998.14836	0.86673
996.09456	0.86973
994.04075	0.87223
991.98695	0.87404
989.93315	0.87509
987.87934	0.87596
985.82554	0.87757
983.77174	0.87973
981.71793	0.88143
979.66413	0.88203
977.61033	0.88130
975.55652	0.87930
973.50272	0.87631
971.44892	0.87295
969.39511	0.87072
967.34131	0.87068
965.28751	0.87271
963.23371	0.87605
961.17990	0.87987
959.12610	0.88387
957.07230	0.88763
955.01849	0.89055
952.96469	0.89303
950.91089	0.89575
948.85708	0.89847
946.80328	0.90043
944.74948	0.90157
942.69567	0.90251
940.64187	0.90347
938.58807	0.90433
936.53426	0.90534
934.48046	0.90634
932.42666	0.90724
930.37285	0.90842
928.31905	0.90966
926.26525	0.91036
924.21144	0.91059
922.15764	0.91083
920.10384	0.91124
918.05003	0.91148
915.99623	0.91145
913.94243	0.91136
911.88862	0.91098
909.83482	0.91008
907.78102	0.90926
905.72722	0.90842
903.67341	0.90704
901.61961	0.90566
899.56581	0.90496
897.51200	0.90500
895.45820	0.90538
893.40440	0.90606
891.35059	0.90719
889.29679	0.90819
887.24299	0.90884
885.18918	0.90877
883.13538	0.90649
881.08158	0.90168
879.02777	0.89512
876.97397	0.88556
874.92017	0.87072
872.86636	0.85434
870.81256	0.84808
868.75876	0.85672
866.70495	0.87157
864.65115	0.88392
862.59735	0.89149
860.54354	0.89526
858.48974	0.89654
856.43594	0.89580
854.38213	0.89396
852.32833	0.89149
850.27453	0.88766
848.22073	0.88305
846.16692	0.87954
844.11312	0.87813
842.05932	0.87863
840.00551	0.88048
837.95171	0.88323
835.89791	0.88647
833.84410	0.88994
831.79030	0.89364
829.73650	0.89731
827.68269	0.90081
825.62889	0.90413
823.57509	0.90657
821.52128	0.90748
819.46748	0.90763
817.41368	0.90848
815.35987	0.91011
813.30607	0.91132
811.25227	0.91172
809.19846	0.91187
807.14466	0.91211
805.09086	0.91254
803.03705	0.91283
800.98325	0.91257
798.92945	0.91135
796.87565	0.90770
794.82184	0.90203
792.76804	0.89820
790.71424	0.89877
788.66043	0.90266
786.60663	0.90755
784.55283	0.91166
782.49902	0.91459
780.44522	0.91722
778.39142	0.92001
776.33761	0.92269
774.28381	0.92462
772.23001	0.92557
770.17620	0.92701
768.12240	0.93025
766.06860	0.93354
764.01479	0.93502
761.96099	0.93570
759.90719	0.93681
757.85338	0.93803
755.79958	0.93884
753.74578	0.93965
751.69197	0.94103
749.63817	0.94304
747.58437	0.94495
745.53056	0.94568
743.47676	0.94352
741.42296	0.93618
739.36916	0.92200
737.31535	0.90027
735.26155	0.87153
733.20775	0.83858
731.15394	0.80589
729.10014	0.77614
727.04634	0.75015
724.99253	0.73095
722.93873	0.72208
720.88493	0.72392
718.83112	0.73440
716.77732	0.74761
714.72352	0.75742
712.66971	0.76453
710.61591	0.77263
708.56211	0.78277
706.50830	0.79404
704.45450	0.80523
702.40070	0.81581
700.34689	0.82632
698.29309	0.83711
696.23929	0.84729
694.18548	0.85627
692.13168	0.86351
690.07788	0.86902
688.02408	0.87354
685.97027	0.87605
683.91647	0.87613
681.86267	0.87590
679.80886	0.87744
677.75506	0.88178
675.70126	0.88815
673.64745	0.89362
671.59365	0.89709
669.53985	0.90034
667.48604	0.90406
665.43224	0.90638
663.37844	0.90805
661.32463	0.90981
659.27083	0.91150
657.21703	0.91317
655.16322	0.91400
653.10942	0.91416
651.05562	0.91485
649.00181	0.91594
646.94801	0.91742
644.89421	0.91865
642.84040	0.91833
640.78660	0.91730
638.73280	0.91657
636.67899	0.91395
634.62519	0.90801
632.57139	0.90341
630.51759	0.90546
628.46378	0.91143
626.40998	0.91589
624.35618	0.91864
622.30237	0.92034
620.24857	0.92011
618.19477	0.91817
616.14096	0.91674
614.08716	0.91686
612.03336	0.91725
609.97955	0.91743
607.92575	0.91716
605.87195	0.91619
603.81814	0.91517
601.76434	0.91512
599.71054	0.91586
597.65673	0.91651
595.60293	0.91649
593.54913	0.91557
591.49532	0.91454
589.44152	0.91324
587.38772	0.91169
585.33391	0.91196
583.28011	0.91348
581.22631	0.91295
579.17250	0.91056
577.11870	0.90851
575.06490	0.90731
573.01110	0.90579
570.95729	0.90359
568.90349	0.90353
566.84969	0.90542
564.79588	0.90572
562.74208	0.90441
560.68828	0.90253
558.63447	0.90003
556.58067	0.89781
554.52687	0.89726
552.47306	0.89804
550.41926	0.89813
548.36546	0.89678
546.31165	0.89483
544.25785	0.89195
542.20405	0.88925
540.15024	0.88887
538.09644	0.88898
536.04264	0.88735
533.98883	0.88529
531.93503	0.88384
529.88123	0.88207
527.82742	0.87974
525.77362	0.87894
523.71982	0.88074
521.66602	0.88191
519.61221	0.88069
517.55841	0.87985
515.50461	0.88193
513.45080	0.88352
511.39700	0.87944
509.34320	0.86902
507.28939	0.85578
505.23559	0.84587
503.18179	0.84229
501.12798	0.84247
499.07418	0.84461
497.02038	0.84881
494.96657	0.85352
492.91277	0.85820
490.85897	0.86310
488.80516	0.86566
486.75136	0.86604
484.69756	0.86674
482.64375	0.86748
480.58995	0.86670
478.53615	0.86668
476.48234	0.86907
474.42854	0.87023
472.37474	0.86991
470.32093	0.86973
468.26713	0.86910
466.21333	0.86959
464.15953	0.87164
462.10572	0.87433
460.05192	0.87626
457.99812	0.87726
455.94431	0.87895
453.89051	0.87982
451.83671	0.87921
449.78290	0.88031
447.72910	0.88220
445.67530	0.87853
443.62149	0.86670
441.56769	0.84942
439.51389	0.83017
437.46008	0.81176
435.40628	0.80066
433.35248	0.79728
431.29867	0.79412
429.24487	0.79539
427.19107	0.80337
425.13726	0.81019
423.08346	0.81479
421.02966	0.81995
418.97585	0.82926
416.92205	0.84288
414.86825	0.85265
412.81445	0.85776
410.76064	0.85971
408.70684	0.86153
406.65304	0.86374
404.59923	0.86190
402.54543	0.85892
400.49163	0.86513
398.43782	0.87369
