3996.70104	0.93733
3994.64724	0.93692
3992.59344	0.93688
3990.53964	0.93687
3988.48583	0.93683
3986.43203	0.93737
3984.37823	0.93794
3982.32442	0.93776
3980.27062	0.93774
3978.21682	0.93842
3976.16301	0.93899
3974.10921	0.93898
3972.05541	0.93871
3970.00160	0.93833
3967.94780	0.93793
3965.89400	0.93772
3963.84019	0.93777
3961.78639	0.93815
3959.73259	0.93859
3957.67878	0.93856
3955.62498	0.93811
3953.57118	0.93780
3951.51737	0.93795
3949.46357	0.93845
3947.40977	0.93873
3945.35596	0.93860
3943.30216	0.93829
3941.24836	0.93778
3939.19455	0.93759
3937.14075	0.93808
3935.08695	0.93844
3933.03315	0.93849
3930.97934	0.93884
3928.92554	0.93887
3926.87174	0.93826
3924.81793	0.93776
3922.76413	0.93780
3920.71033	0.93814
3918.65652	0.93843
3916.60272	0.93811
3914.54892	0.93729
3912.49511	0.93718
3910.44131	0.93806
3908.38751	0.93908
3906.33370	0.93971
3904.27990	0.93989
3902.22610	0.94006
3900.17229	0.94033
3898.11849	0.94017
3896.06469	0.93987
3894.01088	0.93947
3891.95708	0.93913
3889.90328	0.93902
3887.84947	0.93885
3885.79567	0.93903
3883.74187	0.93982
3881.68807	0.94063
3879.63426	0.94065
3877.58046	0.93985
3875.52666	0.93918
3873.47285	0.93918
3871.41905	0.93986
3869.36525	0.94020
3867.31144	0.93996
3865.25764	0.93967
3863.20384	0.93865
3861.15003	0.93766
3859.09623	0.93781
3857.04243	0.93833
3854.98862	0.93871
3852.93482	0.93950
3850.88102	0.94011
3848.82721	0.94029
3846.77341	0.94043
3844.71961	0.94021
3842.66580	0.93979
3840.61200	0.93995
3838.55820	0.94036
3836.50439	0.94046
3834.45059	0.93994
3832.39679	0.93913
3830.34298	0.93891
3828.28918	0.93922
3826.23538	0.93984
3824.18158	0.94060
3822.12777	0.94095
3820.07397	0.94045
3818.02017	0.93970
3815.96636	0.93945
3813.91256	0.93966
3811.85876	0.94010
3809.80495	0.94047
3807.75115	0.94037
3805.69735	0.94000
3803.64354	0.93977
3801.58974	0.93953
3799.53594	0.93915
3797.48213	0.93896
3795.42833	0.93920
3793.37453	0.93972
3791.32072	0.94003
3789.26692	0.94005
3787.21312	0.94004
3785.15931	0.93999
3783.10551	0.93991
3781.05171	0.93988
3778.99790	0.93961
3776.94410	0.93942
3774.89030	0.93972
3772.83650	0.94028
3770.78269	0.94079
3768.72889	0.94106
3766.67509	0.94114
3764.62128	0.94051
3762.56748	0.93926
3760.51368	0.93898
3758.45987	0.94035
3756.40607	0.94159
3754.35227	0.94179
3752.29846	0.94194
3750.24466	0.94248
3748.19086	0.94274
3746.13705	0.94237
3744.08325	0.94178
3742.02945	0.94191
3739.97564	0.94206
3737.92184	0.94187
3735.86804	0.94180
3733.81423	0.94252
3731.76043	0.94340
3729.70663	0.94323
3727.65282	0.94251
3725.59902	0.94236
3723.54522	0.94251
3721.49141	0.94179
3719.43761	0.94048
3717.38381	0.93953
3715.33001	0.93877
3713.27620	0.93771
3711.22240	0.93677
3709.16860	0.93606
3707.11479	0.93500
3705.06099	0.93382
3703.00719	0.93236
3700.95338	0.93008
3698.89958	0.92848
3696.84578	0.92860
3694.79197	0.92909
3692.73817	0.92894
3690.68437	0.92862
3688.63056	0.92911
3686.57676	0.93000
3684.52296	0.93022
3682.46915	0.93016
3680.41535	0.93034
3678.36155	0.93039
3676.30774	0.93020
3674.25394	0.93048
3672.20014	0.93098
3670.14633	0.93081
3668.09253	0.92943
3666.03873	0.92824
3663.98492	0.92747
3661.93112	0.92635
3659.87732	0.92519
3657.82352	0.92483
3655.76971	0.92519
3653.71591	0.92532
3651.66211	0.92486
3649.60830	0.92414
3647.55450	0.92403
3645.50070	0.92426
3643.44689	0.92406
3641.39309	0.92331
3639.33929	0.92248
3637.28548	0.92195
3635.23168	0.92148
3633.17788	0.92087
3631.12407	0.92013
3629.07027	0.91923
3627.01647	0.91872
3624.96266	0.91839
3622.90886	0.91743
3620.85506	0.91576
3618.80125	0.91478
3616.74745	0.91559
3614.69365	0.91685
3612.63984	0.91762
3610.58604	0.91796
3608.53224	0.91838
3606.47844	0.91877
3604.42463	0.91862
3602.37083	0.91837
3600.31703	0.91825
3598.26322	0.91813
3596.20942	0.91812
3594.15562	0.91825
3592.10181	0.91836
3590.04801	0.91822
3587.99421	0.91847
3585.94040	0.91943
3583.88660	0.91981
3581.83280	0.91986
3579.77899	0.91981
3577.72519	0.91922
3575.67139	0.91841
3573.61758	0.91785
3571.56378	0.91789
3569.50998	0.91834
3567.45617	0.91859
3565.40237	0.91817
3563.34857	0.91729
3561.29476	0.91667
3559.24096	0.91642
3557.18716	0.91589
3555.13335	0.91537
3553.07955	0.91553
3551.02575	0.91593
3548.97195	0.91581
3546.91814	0.91547
3544.86434	0.91547
3542.81054	0.91590
3540.75673	0.91649
3538.70293	0.91679
3536.64913	0.91680
3534.59532	0.91655
3532.54152	0.91586
3530.48772	0.91509
3528.43391	0.91508
3526.38011	0.91572
3524.32631	0.91593
3522.27250	0.91548
3520.21870	0.91460
3518.16490	0.91397
3516.11109	0.91428
3514.05729	0.91489
3512.00349	0.91506
3509.94968	0.91479
3507.89588	0.91435
3505.84208	0.91432
3503.78827	0.91455
3501.73447	0.91440
3499.68067	0.91425
3497.62687	0.91406
3495.57306	0.91352
3493.51926	0.91297
3491.46546	0.91266
3489.41165	0.91252
3487.35785	0.91236
3485.30405	0.91255
3483.25024	0.91314
3481.19644	0.91316
3479.14264	0.91263
3477.08883	0.91260
3475.03503	0.91291
3472.98123	0.91291
3470.92742	0.91245
3468.87362	0.91179
3466.81982	0.91157
3464.76601	0.91185
3462.71221	0.91189
3460.65841	0.91143
3458.60460	0.91098
3456.55080	0.91072
3454.49700	0.91036
3452.44319	0.90985
3450.38939	0.90958
3448.33559	0.90958
3446.28178	0.90953
3444.22798	0.90928
3442.17418	0.90898
3440.12038	0.90903
3438.06657	0.90922
3436.01277	0.90908
3433.95897	0.90893
3431.90516	0.90892
3429.85136	0.90876
3427.79756	0.90861
3425.74375	0.90868
3423.68995	0.90871
3421.63615	0.90839
3419.58234	0.90770
3417.52854	0.90700
3415.47474	0.90683
3413.42093	0.90709
3411.36713	0.90702
3409.31333	0.90657
3407.25952	0.90641
3405.20572	0.90665
3403.15192	0.90703
3401.09811	0.90741
3399.04431	0.90764
3396.99051	0.90758
3394.93670	0.90725
3392.88290	0.90696
3390.82910	0.90658
3388.77529	0.90633
3386.72149	0.90676
3384.66769	0.90718
3382.61389	0.90695
3380.56008	0.90642
3378.50628	0.90625
3376.45248	0.90673
3374.39867	0.90728
3372.34487	0.90735
3370.29107	0.90726
3368.23726	0.90725
3366.18346	0.90703
3364.12966	0.90669
3362.07585	0.90668
3360.02205	0.90702
3357.96825	0.90726
3355.91444	0.90733
3353.86064	0.90736
3351.80684	0.90726
3349.75303	0.90714
3347.69923	0.90684
3345.64543	0.90655
3343.59162	0.90667
3341.53782	0.90692
3339.48402	0.90697
3337.43021	0.90697
3335.37641	0.90714
3333.32261	0.90730
3331.26881	0.90712
3329.21500	0.90700
3327.16120	0.90729
3325.10740	0.90728
3323.05359	0.90681
3320.99979	0.90666
3318.94599	0.90684
3316.89218	0.90689
3314.83838	0.90702
3312.78458	0.90736
3310.73077	0.90741
3308.67697	0.90727
3306.62317	0.90756
3304.56936	0.90799
3302.51556	0.90807
3300.46176	0.90806
3298.40795	0.90812
3296.35415	0.90788
3294.30035	0.90751
3292.24654	0.90750
3290.19274	0.90754
3288.13894	0.90733
3286.08513	0.90742
3284.03133	0.90804
3281.97753	0.90853
3279.92372	0.90868
3277.86992	0.90883
3275.81612	0.90892
3273.76232	0.90874
3271.70851	0.90872
3269.65471	0.90924
3267.60091	0.90979
3265.54710	0.90987
3263.49330	0.90981
3261.43950	0.90978
3259.38569	0.90917
3257.33189	0.90855
3255.27809	0.90917
3253.22428	0.91028
3251.17048	0.91055
3249.11668	0.91035
3247.06287	0.91025
3245.00907	0.91026
3242.95527	0.91063
3240.90146	0.91125
3238.84766	0.91151
3236.79386	0.91140
3234.74005	0.91140
3232.68625	0.91174
3230.63245	0.91201
3228.57864	0.91214
3226.52484	0.91239
3224.47104	0.91267
3222.41724	0.91308
3220.36343	0.91345
3218.30963	0.91319
3216.25583	0.91273
3214.20202	0.91267
3212.14822	0.91270
3210.09442	0.91284
3208.04061	0.91321
3205.98681	0.91361
3203.93301	0.91416
3201.87920	0.91456
3199.82540	0.91466
3197.77160	0.91477
3195.71779	0.91485
3193.66399	0.91493
3191.61019	0.91499
3189.55638	0.91496
3187.50258	0.91534
3185.44878	0.91608
3183.39497	0.91620
3181.34117	0.91587
3179.28737	0.91620
3177.23356	0.91717
3175.17976	0.91759
3173.12596	0.91714
3171.07215	0.91700
3169.01835	0.91756
3166.96455	0.91788
3164.91075	0.91787
3162.85694	0.91798
3160.80314	0.91809
3158.74934	0.91809
3156.69553	0.91825
3154.64173	0.91874
3152.58793	0.91911
3150.53412	0.91921
3148.48032	0.91957
3146.42652	0.92023
3144.37271	0.92039
3142.31891	0.92009
3140.26511	0.92025
3138.21130	0.92097
3136.15750	0.92183
3134.10370	0.92214
3132.04989	0.92145
3129.99609	0.92067
3127.94229	0.92087
3125.88848	0.92175
3123.83468	0.92242
3121.78088	0.92266
3119.72707	0.92251
3117.67327	0.92213
3115.61947	0.92193
3113.56566	0.92188
3111.51186	0.92182
3109.45806	0.92165
3107.40426	0.92132
3105.35045	0.92098
3103.29665	0.92070
3101.24285	0.92086
3099.18904	0.92161
3097.13524	0.92206
3095.08144	0.92157
3093.02763	0.92077
3090.97383	0.92009
3088.92003	0.91882
3086.86622	0.91682
3084.81242	0.91513
3082.75862	0.91439
3080.70481	0.91442
3078.65101	0.91513
3076.59721	0.91623
3074.54340	0.91723
3072.48960	0.91780
3070.43580	0.91802
3068.38199	0.91760
3066.32819	0.91568
3064.27439	0.91277
3062.22058	0.91047
3060.16678	0.90956
3058.11298	0.91008
3056.05918	0.91161
3054.00537	0.91339
3051.95157	0.91517
3049.89777	0.91706
3047.84396	0.91858
3045.79016	0.91930
3043.73636	0.91957
3041.68255	0.91969
3039.62875	0.91931
3037.57495	0.91801
3035.52114	0.91543
3033.46734	0.91160
3031.41354	0.90670
3029.35973	0.90116
3027.30593	0.89585
3025.25213	0.89266
3023.19832	0.89369
3021.14452	0.89855
3019.09072	0.90471
3017.03691	0.90993
3014.98311	0.91349
3012.92931	0.91587
3010.87550	0.91775
3008.82170	0.91917
3006.76790	0.91975
3004.71409	0.91964
3002.66029	0.91926
3000.60649	0.91918
2998.55269	0.91967
2996.49888	0.92057
2994.44508	0.92182
2992.39128	0.92325
2990.33747	0.92445
2988.28367	0.92500
2986.22987	0.92512
2984.17606	0.92540
2982.12226	0.92569
2980.06846	0.92560
2978.01465	0.92509
2975.96085	0.92443
2973.90705	0.92386
2971.85324	0.92337
2969.79944	0.92288
2967.74564	0.92235
2965.69183	0.92147
2963.63803	0.92045
2961.58423	0.91991
2959.53042	0.91940
2957.47662	0.91849
2955.42282	0.91752
2953.36901	0.91664
2951.31521	0.91593
2949.26141	0.91502
2947.20761	0.91352
2945.15380	0.91164
2943.10000	0.90919
2941.04620	0.90594
2938.99239	0.90233
2936.93859	0.89851
2934.88479	0.89428
2932.83098	0.88972
2930.77718	0.88510
2928.72338	0.88049
2926.66957	0.87605
2924.61577	0.87237
2922.56197	0.86993
2920.50816	0.86857
2918.45436	0.86825
2916.40056	0.86962
2914.34675	0.87263
2912.29295	0.87645
2910.23915	0.88049
2908.18534	0.88425
2906.13154	0.88752
2904.07774	0.89041
2902.02393	0.89319
2899.97013	0.89601
2897.91633	0.89881
2895.86252	0.90124
2893.80872	0.90322
2891.75492	0.90526
2889.70112	0.90723
2887.64731	0.90867
2885.59351	0.90978
2883.53971	0.91090
2881.48590	0.91191
2879.43210	0.91256
2877.37830	0.91290
2875.32449	0.91312
2873.27069	0.91337
2871.21689	0.91379
2869.16308	0.91407
2867.10928	0.91397
2865.05548	0.91366
2863.00167	0.91279
2860.94787	0.91115
2858.89407	0.90937
2856.84026	0.90739
2854.78646	0.90475
2852.73266	0.90202
2850.67885	0.90049
2848.62505	0.90090
2846.57125	0.90284
2844.51744	0.90538
2842.46364	0.90816
2840.40984	0.91142
2838.35603	0.91493
2836.30223	0.91786
2834.24843	0.92000
2832.19463	0.92166
2830.14082	0.92300
2828.08702	0.92404
2826.03322	0.92452
2823.97941	0.92460
2821.92561	0.92493
2819.87181	0.92555
2817.81800	0.92614
2815.76420	0.92664
2813.71040	0.92702
2811.65659	0.92728
2809.60279	0.92741
2807.54899	0.92748
2805.49518	0.92777
2803.44138	0.92819
2801.38758	0.92851
2799.33377	0.92873
2797.27997	0.92873
2795.22617	0.92838
2793.17236	0.92812
2791.11856	0.92830
2789.06476	0.92882
2787.01095	0.92925
2784.95715	0.92929
2782.90335	0.92947
2780.84955	0.93002
2778.79574	0.93038
2776.74194	0.93047
2774.68814	0.93048
2772.63433	0.93034
2770.58053	0.93017
2768.52673	0.93023
2766.47292	0.93045
2764.41912	0.93070
2762.36532	0.93094
2760.31151	0.93121
2758.25771	0.93169
2756.20391	0.93218
2754.15010	0.93224
2752.09630	0.93191
2750.04250	0.93163
2747.98869	0.93157
2745.93489	0.93159
2743.88109	0.93147
2741.82728	0.93136
2739.77348	0.93168
2737.71968	0.93201
2735.66587	0.93200
2733.61207	0.93193
2731.55827	0.93188
2729.50446	0.93196
2727.45066	0.93211
2725.39686	0.93216
2723.34306	0.93235
2721.28925	0.93257
2719.23545	0.93251
2717.18165	0.93233
2715.12784	0.93235
2713.07404	0.93262
2711.02024	0.93280
2708.96643	0.93288
2706.91263	0.93308
2704.85883	0.93316
2702.80502	0.93313
2700.75122	0.93332
2698.69742	0.93364
2696.64361	0.93347
2694.58981	0.93283
2692.53601	0.93257
2690.48220	0.93268
2688.42840	0.93274
2686.37460	0.93302
2684.32079	0.93340
2682.26699	0.93357
2680.21319	0.93368
2678.15938	0.93373
2676.10558	0.93371
2674.05178	0.93385
2671.99797	0.93392
2669.94417	0.93374
2667.89037	0.93380
2665.83657	0.93399
2663.78276	0.93396
2661.72896	0.93387
2659.67516	0.93375
2657.62135	0.93354
2655.56755	0.93347
2653.51375	0.93375
2651.45994	0.93383
2649.40614	0.93362
2647.35234	0.93374
2645.29853	0.93409
2643.24473	0.93420
2641.19093	0.93399
2639.13712	0.93373
2637.08332	0.93355
2635.02952	0.93327
2632.97571	0.93322
2630.92191	0.93341
2628.86811	0.93369
2626.81430	0.93433
2624.76050	0.93504
2622.70670	0.93545
2620.65289	0.93584
2618.59909	0.93616
2616.54529	0.93613
2614.49149	0.93587
2612.43768	0.93569
2610.38388	0.93582
2608.33008	0.93582
2606.27627	0.93542
2604.22247	0.93513
2602.16867	0.93525
2600.11486	0.93561
2598.06106	0.93599
2596.00726	0.93649
2593.95345	0.93710
2591.89965	0.93760
2589.84585	0.93759
2587.79204	0.93712
2585.73824	0.93709
2583.68444	0.93761
2581.63063	0.93785
2579.57683	0.93764
2577.52303	0.93732
2575.46922	0.93709
2573.41542	0.93705
2571.36162	0.93728
2569.30781	0.93775
2567.25401	0.93833
2565.20021	0.93855
2563.14640	0.93786
2561.09260	0.93706
2559.03880	0.93720
2556.98500	0.93766
2554.93119	0.93781
2552.87739	0.93796
2550.82359	0.93814
2548.76978	0.93800
2546.71598	0.93797
2544.66218	0.93797
2542.60837	0.93745
2540.55457	0.93746
2538.50077	0.93820
2536.44696	0.93833
2534.39316	0.93790
2532.33936	0.93758
2530.28555	0.93734
2528.23175	0.93738
2526.17795	0.93808
2524.12414	0.93898
2522.07034	0.93940
2520.01654	0.93936
2517.96273	0.93902
2515.90893	0.93856
2513.85513	0.93841
2511.80132	0.93850
2509.74752	0.93873
2507.69372	0.93907
2505.63992	0.93906
2503.58611	0.93862
2501.53231	0.93845
2499.47851	0.93890
2497.42470	0.93944
2495.37090	0.93962
2493.31710	0.93949
2491.26329	0.93922
2489.20949	0.93908
2487.15569	0.93929
2485.10188	0.93928
2483.04808	0.93874
2480.99428	0.93836
2478.94047	0.93828
2476.88667	0.93820
2474.83287	0.93853
2472.77906	0.93953
2470.72526	0.94020
2468.67146	0.94003
2466.61765	0.93977
2464.56385	0.93969
2462.51005	0.93968
2460.45624	0.93946
2458.40244	0.93900
2456.34864	0.93892
2454.29483	0.93903
2452.24103	0.93878
2450.18723	0.93866
2448.13343	0.93876
2446.07962	0.93883
2444.02582	0.93928
2441.97202	0.93997
2439.91821	0.94015
2437.86441	0.94002
2435.81061	0.94052
2433.75680	0.94105
2431.70300	0.94069
2429.64920	0.94030
2427.59539	0.94040
2425.54159	0.94065
2423.48779	0.94068
2421.43398	0.94036
2419.38018	0.94020
2417.32638	0.94025
2415.27257	0.94005
2413.21877	0.94004
2411.16497	0.94060
2409.11116	0.94072
2407.05736	0.94023
2405.00356	0.94039
2402.94975	0.94127
2400.89595	0.94166
2398.84215	0.94121
2396.78834	0.94060
2394.73454	0.94030
2392.68074	0.94028
2390.62694	0.94040
2388.57313	0.94051
2386.51933	0.94068
2384.46553	0.94091
2382.41172	0.94102
2380.35792	0.94102
2378.30412	0.94083
2376.25031	0.94050
2374.19651	0.94020
2372.14271	0.93974
2370.08890	0.93949
2368.03510	0.94066
2365.98130	0.94232
2363.92749	0.94211
2361.87369	0.94031
2359.81989	0.93852
2357.76608	0.93841
2355.71228	0.93944
2353.65848	0.93982
2351.60467	0.93978
2349.55087	0.93950
2347.49707	0.93887
2345.44326	0.93850
2343.38946	0.93893
2341.33566	0.93952
2339.28186	0.93995
2337.22805	0.93974
2335.17425	0.93906
2333.12045	0.93914
2331.06664	0.93985
2329.01284	0.94061
2326.95904	0.94095
2324.90523	0.94041
2322.85143	0.94001
2320.79763	0.94055
2318.74382	0.94097
2316.69002	0.94092
2314.63622	0.94104
2312.58241	0.94104
2310.52861	0.94072
2308.47481	0.94087
2306.42100	0.94175
2304.36720	0.94279
2302.31340	0.94288
2300.25959	0.94172
2298.20579	0.94050
2296.15199	0.94008
2294.09818	0.94043
2292.04438	0.94080
2289.99058	0.94073
2287.93677	0.94102
2285.88297	0.94181
2283.82917	0.94192
2281.77537	0.94144
2279.72156	0.94131
2277.66776	0.94143
2275.61396	0.94164
2273.56015	0.94235
2271.50635	0.94295
2269.45255	0.94306
2267.39874	0.94347
2265.34494	0.94350
2263.29114	0.94294
2261.23733	0.94247
2259.18353	0.94198
2257.12973	0.94201
2255.07592	0.94269
2253.02212	0.94318
2250.96832	0.94318
2248.91451	0.94320
2246.86071	0.94312
2244.80691	0.94236
2242.75310	0.94203
2240.69930	0.94278
2238.64550	0.94305
2236.59169	0.94247
2234.53789	0.94206
2232.48409	0.94186
2230.43029	0.94241
2228.37648	0.94377
2226.32268	0.94487
2224.26888	0.94525
2222.21507	0.94532
2220.16127	0.94525
2218.10747	0.94461
2216.05366	0.94460
2213.99986	0.94596
2211.94606	0.94678
2209.89225	0.94690
2207.83845	0.94715
2205.78465	0.94673
2203.73084	0.94624
2201.67704	0.94677
2199.62324	0.94717
2197.56943	0.94691
2195.51563	0.94626
2193.46183	0.94447
2191.40802	0.94263
2189.35422	0.94309
2187.30042	0.94445
2185.24661	0.94387
2183.19281	0.94297
2181.13901	0.94336
2179.08520	0.94410
2177.03140	0.94532
2174.97760	0.94674
2172.92380	0.94778
2170.86999	0.94805
2168.81619	0.94808
2166.76239	0.94945
2164.70858	0.95035
2162.65478	0.94871
2160.60098	0.94774
2158.54717	0.94910
2156.49337	0.95095
2154.43957	0.95297
2152.38576	0.95393
2150.33196	0.95182
2148.27816	0.94836
2146.22435	0.94730
2144.17055	0.94881
2142.11675	0.95018
2140.06294	0.94931
2138.00914	0.94721
2135.95534	0.94665
2133.90153	0.94801
2131.84773	0.94874
2129.79393	0.94724
2127.74012	0.94532
2125.68632	0.94484
2123.63252	0.94464
2121.57871	0.94370
2119.52491	0.94311
2117.47111	0.94311
2115.41731	0.94335
2113.36350	0.94421
2111.30970	0.94501
2109.25590	0.94498
2107.20209	0.94468
2105.14829	0.94476
2103.09449	0.94549
2101.04068	0.94663
2098.98688	0.94708
2096.93308	0.94685
2094.87927	0.94665
2092.82547	0.94655
2090.77167	0.94663
2088.71786	0.94679
2086.66406	0.94694
2084.61026	0.94712
2082.55645	0.94767
2080.50265	0.94834
2078.44885	0.94885
2076.39504	0.94954
2074.34124	0.94982
2072.28744	0.94919
2070.23363	0.94804
2068.17983	0.94650
2066.12603	0.94530
2064.07223	0.94596
2062.01842	0.94682
2059.96462	0.94608
2057.91082	0.94604
2055.85701	0.94679
2053.80321	0.94771
2051.74941	0.94935
2049.69560	0.95017
2047.64180	0.94991
2045.58800	0.94921
2043.53419	0.94805
2041.48039	0.94650
2039.42659	0.94537
2037.37278	0.94637
2035.31898	0.94850
2033.26518	0.95016
2031.21137	0.95170
2029.15757	0.95284
2027.10377	0.95251
2025.04996	0.95088
2022.99616	0.95020
2020.94236	0.95180
2018.88855	0.95437
2016.83475	0.95554
2014.78095	0.95411
2012.72714	0.95217
2010.67334	0.95134
2008.61954	0.95096
2006.56574	0.95059
2004.51193	0.95001
2002.45813	0.94966
2000.40433	0.94880
1998.35052	0.94765
1996.29672	0.94781
1994.24292	0.94808
1992.18911	0.94832
1990.13531	0.94958
1988.08151	0.95091
1986.02770	0.95147
1983.97390	0.95142
1981.92010	0.95106
1979.86629	0.95142
1977.81249	0.95332
1975.75869	0.95379
1973.70488	0.95094
1971.65108	0.94759
1969.59728	0.94686
1967.54347	0.94934
1965.48967	0.95181
1963.43587	0.95094
1961.38206	0.94826
1959.32826	0.94700
1957.27446	0.94740
1955.22066	0.94816
1953.16685	0.94820
1951.11305	0.94666
1949.05925	0.94502
1947.00544	0.94509
1944.95164	0.94547
1942.89784	0.94452
1940.84403	0.94345
1938.79023	0.94346
1936.73643	0.94424
1934.68262	0.94519
1932.62882	0.94550
1930.57502	0.94562
1928.52121	0.94632
1926.46741	0.94685
1924.41361	0.94701
1922.35980	0.94717
1920.30600	0.94731
1918.25220	0.94720
1916.19839	0.94649
1914.14459	0.94578
1912.09079	0.94597
1910.03698	0.94707
1907.98318	0.94815
1905.92938	0.94842
1903.87557	0.94780
1901.82177	0.94707
1899.76797	0.94683
1897.71417	0.94667
1895.66036	0.94635
1893.60656	0.94610
1891.55276	0.94610
1889.49895	0.94599
1887.44515	0.94569
1885.39135	0.94555
1883.33754	0.94513
1881.28374	0.94451
1879.22994	0.94444
1877.17613	0.94445
1875.12233	0.94429
1873.06853	0.94455
1871.01472	0.94518
1868.96092	0.94548
1866.90712	0.94486
1864.85331	0.94435
1862.79951	0.94431
1860.74571	0.94389
1858.69190	0.94365
1856.63810	0.94443
1854.58430	0.94555
1852.53049	0.94641
1850.47669	0.94695
1848.42289	0.94726
1846.36908	0.94796
1844.31528	0.94912
1842.26148	0.94941
1840.20768	0.94854
1838.15387	0.94760
1836.10007	0.94725
1834.04627	0.94727
1831.99246	0.94726
1829.93866	0.94708
1827.88486	0.94703
1825.83105	0.94719
1823.77725	0.94691
1821.72345	0.94636
1819.66964	0.94613
1817.61584	0.94601
1815.56204	0.94582
1813.50823	0.94548
1811.45443	0.94508
1809.40063	0.94483
1807.34682	0.94435
1805.29302	0.94358
1803.23922	0.94324
1801.18541	0.94366
1799.13161	0.94428
1797.07781	0.94472
1795.02400	0.94512
1792.97020	0.94548
1790.91640	0.94586
1788.86260	0.94632
1786.80879	0.94654
1784.75499	0.94626
1782.70119	0.94591
1780.64738	0.94610
1778.59358	0.94654
1776.53978	0.94671
1774.48597	0.94647
1772.43217	0.94624
1770.37837	0.94649
1768.32456	0.94675
1766.27076	0.94674
1764.21696	0.94638
1762.16315	0.94540
1760.10935	0.94420
1758.05555	0.94354
1756.00174	0.94283
1753.94794	0.94179
1751.89414	0.94098
1749.84033	0.94009
1747.78653	0.93848
1745.73273	0.93696
1743.67892	0.93611
1741.62512	0.93562
1739.57132	0.93547
1737.51751	0.93573
1735.46371	0.93621
1733.40991	0.93668
1731.35611	0.93692
1729.30230	0.93712
1727.24850	0.93732
1725.19470	0.93743
1723.14089	0.93761
1721.08709	0.93788
1719.03329	0.93815
1716.97948	0.93877
1714.92568	0.93944
1712.87188	0.93962
1710.81807	0.93928
1708.76427	0.93871
1706.71047	0.93815
1704.65666	0.93756
1702.60286	0.93714
1700.54906	0.93698
1698.49525	0.93655
1696.44145	0.93539
1694.38765	0.93396
1692.33384	0.93287
1690.28004	0.93188
1688.22624	0.93085
1686.17243	0.92982
1684.11863	0.92819
1682.06483	0.92638
1680.01103	0.92521
1677.95722	0.92414
1675.90342	0.92268
1673.84962	0.92115
1671.79581	0.91994
1669.74201	0.91818
1667.68821	0.91615
1665.63440	0.91488
1663.58060	0.91392
1661.52680	0.91284
1659.47299	0.91184
1657.41919	0.91142
1655.36539	0.91139
1653.31158	0.91104
1651.25778	0.91090
1649.20398	0.91113
1647.15017	0.91111
1645.09637	0.91094
1643.04257	0.91085
1640.98876	0.91077
1638.93496	0.91075
1636.88116	0.91075
1634.82735	0.91106
1632.77355	0.91153
1630.71975	0.91165
1628.66594	0.91154
1626.61214	0.91175
1624.55834	0.91249
1622.50454	0.91310
1620.45073	0.91341
1618.39693	0.91401
1616.34313	0.91474
1614.28932	0.91493
1612.23552	0.91459
1610.18172	0.91343
1608.12791	0.91065
1606.07411	0.90547
1604.02031	0.89847
1601.96650	0.89268
1599.91270	0.89197
1597.85890	0.89647
1595.80509	0.90271
1593.75129	0.90785
1591.69749	0.91150
1589.64368	0.91382
1587.58988	0.91440
1585.53608	0.91334
1583.48227	0.91211
1581.42847	0.91271
1579.37467	0.91509
1577.32086	0.91757
1575.26706	0.91914
1573.21326	0.92015
1571.15945	0.92110
1569.10565	0.92180
1567.05185	0.92215
1564.99805	0.92245
1562.94424	0.92285
1560.89044	0.92336
1558.83664	0.92358
1556.78283	0.92324
1554.72903	0.92275
1552.67523	0.92194
1550.62142	0.92136
1548.56762	0.92120
1546.51382	0.92097
1544.46001	0.92056
1542.40621	0.92003
1540.35241	0.91941
1538.29860	0.91968
1536.24480	0.92067
1534.19100	0.92202
1532.13719	0.92354
1530.08339	0.92452
1528.02959	0.92514
1525.97578	0.92571
1523.92198	0.92643
1521.86818	0.92702
1519.81437	0.92696
1517.76057	0.92701
1515.70677	0.92809
1513.65297	0.92932
1511.59916	0.92984
1509.54536	0.92992
1507.49156	0.92979
1505.43775	0.92948
1503.38395	0.92902
1501.33015	0.92742
1499.27634	0.92130
1497.22254	0.90241
1495.16874	0.87311
1493.11493	0.85455
1491.06113	0.85724
1489.00733	0.87866
1486.95352	0.89807
1484.89972	0.90762
1482.84592	0.91275
1480.79211	0.91580
1478.73831	0.91752
1476.68451	0.91873
1474.63070	0.91922
1472.57690	0.91836
1470.52310	0.91683
1468.46929	0.91568
1466.41549	0.91508
1464.36169	0.91469
1462.30788	0.91398
1460.25408	0.91217
1458.20028	0.90353
1456.14648	0.87839
1454.09267	0.85354
1452.03887	0.84198
1449.98507	0.84429
1447.93126	0.85565
1445.87746	0.86706
1443.82366	0.87550
1441.76985	0.88237
1439.71605	0.88804
1437.66225	0.89335
1435.60844	0.89850
1433.55464	0.90206
1431.50084	0.90496
1429.44703	0.90787
1427.39323	0.90992
1425.33943	0.91126
1423.28562	0.91256
1421.23182	0.91345
1419.17802	0.91393
1417.12421	0.91439
1415.07041	0.91480
1413.01661	0.91547
1410.96280	0.91665
1408.90900	0.91800
1406.85520	0.91931
1404.80139	0.92060
1402.74759	0.92158
1400.69379	0.92232
1398.63999	0.92331
1396.58618	0.92444
1394.53238	0.92503
1392.47858	0.92476
1390.42477	0.92409
1388.37097	0.92350
1386.31717	0.92297
1384.26336	0.92225
1382.20956	0.92134
1380.15576	0.92037
1378.10195	0.91966
1376.04815	0.91938
1373.99435	0.91921
1371.94054	0.91908
1369.88674	0.91933
1367.83294	0.92003
1365.77913	0.92082
1363.72533	0.92148
1361.67153	0.92207
1359.61772	0.92272
1357.56392	0.92339
1355.51012	0.92396
1353.45631	0.92443
1351.40251	0.92487
1349.34871	0.92531
1347.29491	0.92573
1345.24110	0.92613
1343.18730	0.92672
1341.13350	0.92753
1339.07969	0.92815
1337.02589	0.92830
1334.97209	0.92813
1332.91828	0.92754
1330.86448	0.92676
1328.81068	0.92635
1326.75687	0.92631
1324.70307	0.92640
1322.64927	0.92660
1320.59546	0.92691
1318.54166	0.92711
1316.48786	0.92691
1314.43405	0.92646
1312.38025	0.92627
1310.32645	0.92661
1308.27264	0.92725
1306.21884	0.92780
1304.16504	0.92805
1302.11123	0.92830
1300.05743	0.92900
1298.00363	0.92969
1295.94982	0.92979
1293.89602	0.92972
1291.84222	0.92979
1289.78842	0.92978
1287.73461	0.92960
1285.68081	0.92932
1283.62701	0.92905
1281.57320	0.92875
1279.51940	0.92843
1277.46560	0.92832
1275.41179	0.92826
1273.35799	0.92807
1271.30419	0.92785
1269.25038	0.92774
1267.19658	0.92784
1265.14278	0.92787
1263.08897	0.92763
1261.03517	0.92753
1258.98137	0.92764
1256.92756	0.92764
1254.87376	0.92747
1252.81996	0.92719
1250.76615	0.92665
1248.71235	0.92606
1246.65855	0.92584
1244.60474	0.92570
1242.55094	0.92517
1240.49714	0.92460
1238.44334	0.92436
1236.38953	0.92401
1234.33573	0.92330
1232.28193	0.92267
1230.22812	0.92236
1228.17432	0.92219
1226.12052	0.92192
1224.06671	0.92126
1222.01291	0.92020
1219.95911	0.91913
1217.90530	0.91823
1215.85150	0.91713
1213.79770	0.91562
1211.74389	0.91392
1209.69009	0.91228
1207.63629	0.91061
1205.58248	0.90854
1203.52868	0.90604
1201.47488	0.90333
1199.42107	0.90057
1197.36727	0.89776
1195.31347	0.89484
1193.25966	0.89205
1191.20586	0.88957
1189.15206	0.88694
1187.09825	0.88349
1185.04445	0.87912
1182.99065	0.87491
1180.93685	0.87184
1178.88304	0.86966
1176.82924	0.86777
1174.77544	0.86601
1172.72163	0.86393
1170.66783	0.86133
1168.61403	0.85869
1166.56022	0.85602
1164.50642	0.85336
1162.45262	0.85115
1160.39881	0.84923
1158.34501	0.84708
1156.29121	0.84460
1154.23740	0.84224
1152.18360	0.84061
1150.12980	0.83977
1148.07599	0.83908
1146.02219	0.83809
1143.96839	0.83682
1141.91458	0.83550
1139.86078	0.83417
1137.80698	0.83252
1135.75317	0.83057
1133.69937	0.82829
1131.64557	0.82560
1129.59176	0.82252
1127.53796	0.81873
1125.48416	0.81400
1123.43036	0.80859
1121.37655	0.80295
1119.32275	0.79696
1117.26895	0.79018
1115.21514	0.78300
1113.16134	0.77603
1111.10754	0.76977
1109.05373	0.76454
1106.99993	0.75978
1104.94613	0.75505
1102.89232	0.75079
1100.83852	0.74717
1098.78472	0.74381
1096.73091	0.74065
1094.67711	0.73779
1092.62331	0.73512
1090.56950	0.73254
1088.51570	0.73012
1086.46190	0.72795
1084.40809	0.72602
1082.35429	0.72381
1080.30049	0.72095
1078.24668	0.71807
1076.19288	0.71547
1074.13908	0.71245
1072.08528	0.70864
1070.03147	0.70459
1067.97767	0.70060
1065.92387	0.69631
1063.87006	0.69197
1061.81626	0.68798
1059.76246	0.68385
1057.70865	0.67904
1055.65485	0.67349
1053.60105	0.66735
1051.54724	0.66068
1049.49344	0.65303
1047.43964	0.64436
1045.38583	0.63522
1043.33203	0.62553
1041.27823	0.61516
1039.22442	0.60465
1037.17062	0.59428
1035.11682	0.58384
1033.06301	0.57287
1031.00921	0.56164
1028.95541	0.55193
1026.90160	0.54549
1024.84780	0.54250
1022.79400	0.54155
1020.74019	0.54069
1018.68639	0.53919
1016.63259	0.53729
1014.57879	0.53490
1012.52498	0.53195
1010.47118	0.52856
1008.41738	0.52503
1006.36357	0.52185
1004.30977	0.51985
1002.25597	0.51969
1000.20216	0.52144
998.14836	0.52481
996.09456	0.52934
994.04075	0.53430
991.98695	0.53937
989.93315	0.54501
987.87934	0.55165
985.82554	0.55886
983.77174	0.56618
981.71793	0.57414
979.66413	0.58325
977.61033	0.59343
975.55652	0.60479
973.50272	0.61680
971.44892	0.62848
969.39511	0.63941
967.34131	0.64953
965.28751	0.65923
963.23371	0.66876
961.17990	0.67793
959.12610	0.68695
957.07230	0.69600
955.01849	0.70400
952.96469	0.71034
950.91089	0.71589
948.85708	0.72110
946.80328	0.72561
944.74948	0.72942
942.69567	0.73285
940.64187	0.73634
938.58807	0.74021
936.53426	0.74416
934.48046	0.74783
932.42666	0.75129
930.37285	0.75471
928.31905	0.75774
926.26525	0.75990
924.21144	0.76123
922.15764	0.76150
920.10384	0.76037
918.05003	0.75811
915.99623	0.75540
913.94243	0.75250
911.88862	0.74985
909.83482	0.74884
907.78102	0.75053
905.72722	0.75520
903.67341	0.76295
901.61961	0.77296
899.56581	0.78366
897.51200	0.79384
895.45820	0.80295
893.40440	0.81051
891.35059	0.81646
889.29679	0.82126
887.24299	0.82514
885.18918	0.82803
883.13538	0.82998
881.08158	0.83176
879.02777	0.83343
876.97397	0.83512
874.92017	0.83787
872.86636	0.84171
870.81256	0.84624
868.75876	0.85070
866.70495	0.85422
864.65115	0.85723
862.59735	0.85960
860.54354	0.86101
858.48974	0.86273
856.43594	0.86503
854.38213	0.86699
852.32833	0.86881
850.27453	0.87015
848.22073	0.87000
846.16692	0.86876
844.11312	0.86738
842.05932	0.86622
840.00551	0.86515
837.95171	0.86434
835.89791	0.86447
833.84410	0.86512
831.79030	0.86545
829.73650	0.86545
827.68269	0.86562
825.62889	0.86634
823.57509	0.86742
821.52128	0.86852
819.46748	0.86948
817.41368	0.87001
815.35987	0.86984
813.30607	0.86910
811.25227	0.86750
809.19846	0.86435
807.14466	0.85936
805.09086	0.85309
803.03705	0.84647
800.98325	0.84055
798.92945	0.83730
796.87565	0.83768
794.82184	0.84009
792.76804	0.84223
790.71424	0.84287
788.66043	0.84210
786.60663	0.84048
784.55283	0.83781
782.49902	0.83364
780.44522	0.82870
778.39142	0.82414
776.33761	0.81997
774.28381	0.81547
772.23001	0.80958
770.17620	0.80118
768.12240	0.78997
766.06860	0.77692
764.01479	0.76382
761.96099	0.75116
759.90719	0.73885
757.85338	0.72856
755.79958	0.72222
753.74578	0.71988
751.69197	0.72004
749.63817	0.72105
747.58437	0.72392
745.53056	0.73190
743.47676	0.74582
741.42296	0.76252
739.36916	0.77826
737.31535	0.79162
735.26155	0.80336
733.20775	0.81450
731.15394	0.82427
729.10014	0.83073
727.04634	0.83396
724.99253	0.83628
722.93873	0.83914
720.88493	0.84253
718.83112	0.84590
716.77732	0.84831
714.72352	0.84908
712.66971	0.84638
710.61591	0.83629
708.56211	0.81419
706.50830	0.77641
704.45450	0.72176
702.40070	0.65267
700.34689	0.57510
698.29309	0.50131
696.23929	0.45754
694.18548	0.47178
692.13168	0.53674
690.07788	0.61175
688.02408	0.66689
685.97027	0.70004
683.91647	0.72041
681.86267	0.73476
679.80886	0.74524
677.75506	0.75244
675.70126	0.75715
673.64745	0.76085
671.59365	0.76428
669.53985	0.76716
667.48604	0.77040
665.43224	0.77353
663.37844	0.77534
661.32463	0.77665
659.27083	0.77841
657.21703	0.77898
655.16322	0.77707
653.10942	0.77427
651.05562	0.77217
649.00181	0.77162
646.94801	0.77285
644.89421	0.77535
642.84040	0.77805
640.78660	0.78033
638.73280	0.78269
636.67899	0.78487
634.62519	0.78596
632.57139	0.78619
630.51759	0.78648
628.46378	0.78669
626.40998	0.78630
624.35618	0.78518
622.30237	0.78371
620.24857	0.78252
618.19477	0.78118
616.14096	0.77913
614.08716	0.77638
612.03336	0.77351
609.97955	0.77168
607.92575	0.77051
605.87195	0.76780
603.81814	0.76242
601.76434	0.75612
599.71054	0.75179
597.65673	0.74986
595.60293	0.74754
593.54913	0.74354
591.49532	0.73977
589.44152	0.73720
587.38772	0.73531
585.33391	0.73358
583.28011	0.73151
581.22631	0.72901
579.17250	0.72622
577.11870	0.72298
575.06490	0.71890
573.01110	0.71519
570.95729	0.71181
568.90349	0.70659
566.84969	0.69890
564.79588	0.68950
562.74208	0.68004
560.68828	0.67082
558.63447	0.66161
556.58067	0.65406
554.52687	0.64717
552.47306	0.63820
550.41926	0.62761
548.36546	0.61632
546.31165	0.60306
544.25785	0.58763
542.20405	0.57273
540.15024	0.55892
538.09644	0.54562
536.04264	0.53576
533.98883	0.53201
531.93503	0.53306
529.88123	0.53640
527.82742	0.54264
525.77362	0.55235
523.71982	0.56060
521.66602	0.56547
519.61221	0.57103
517.55841	0.57870
515.50461	0.58625
513.45080	0.59338
511.39700	0.60164
509.34320	0.61038
507.28939	0.61668
505.23559	0.61935
503.18179	0.62093
501.12798	0.62301
499.07418	0.62463
497.02038	0.62573
494.96657	0.62565
492.91277	0.62253
490.85897	0.61546
488.80516	0.60440
486.75136	0.59065
484.69756	0.57536
482.64375	0.55820
480.58995	0.53982
478.53615	0.52228
476.48234	0.50593
474.42854	0.49009
472.37474	0.47515
470.32093	0.46304
468.26713	0.45445
466.21333	0.44866
464.15953	0.44618
462.10572	0.44829
460.05192	0.45570
457.99812	0.46715
455.94431	0.47789
453.89051	0.48483
451.83671	0.49054
449.78290	0.49832
447.72910	0.50794
445.67530	0.51587
443.62149	0.51869
441.56769	0.51684
439.51389	0.51456
437.46008	0.51307
435.40628	0.50963
433.35248	0.50346
431.29867	0.49737
429.24487	0.49329
427.19107	0.49104
425.13726	0.49147
423.08346	0.49583
421.02966	0.50185
418.97585	0.50747
416.92205	0.51335
414.86825	0.51986
412.81445	0.52738
410.76064	0.53478
408.70684	0.54147
406.65304	0.55122
404.59923	0.56118
402.54543	0.56338
400.49163	0.56078
398.43782	0.56248
