3996.71440	0.99364
3994.66059	0.99353
3992.60678	0.99326
3990.55297	0.99322
3988.49916	0.99341
3986.44535	0.99349
3984.39154	0.99336
3982.33773	0.99309
3980.28391	0.99318
3978.23010	0.99354
3976.17629	0.99363
3974.12248	0.99355
3972.06867	0.99332
3970.01486	0.99297
3967.96105	0.99278
3965.90724	0.99290
3963.85343	0.99299
3961.79962	0.99275
3959.74581	0.99291
3957.69200	0.99371
3955.63819	0.99414
3953.58438	0.99387
3951.53057	0.99362
3949.47676	0.99358
3947.42295	0.99339
3945.36914	0.99312
3943.31533	0.99307
3941.26152	0.99335
3939.20771	0.99367
3937.15390	0.99380
3935.10009	0.99377
3933.04628	0.99385
3930.99247	0.99402
3928.93866	0.99388
3926.88485	0.99358
3924.83104	0.99355
3922.77723	0.99382
3920.72342	0.99384
3918.66961	0.99335
3916.61580	0.99285
3914.56199	0.99279
3912.50818	0.99311
3910.45437	0.99363
3908.40056	0.99393
3906.34675	0.99353
3904.29294	0.99276
3902.23913	0.99268
3900.18532	0.99314
3898.13151	0.99349
3896.07770	0.99358
3894.02389	0.99354
3891.97008	0.99378
3889.91627	0.99417
3887.86246	0.99418
3885.80865	0.99396
3883.75484	0.99361
3881.70103	0.99306
3879.64722	0.99283
3877.59341	0.99310
3875.53960	0.99312
3873.48579	0.99307
3871.43198	0.99368
3869.37817	0.99465
3867.32436	0.99452
3865.27055	0.99339
3863.21674	0.99318
3861.16293	0.99391
3859.10912	0.99396
3857.05531	0.99317
3855.00150	0.99216
3852.94769	0.99259
3850.89388	0.99370
3848.84007	0.99369
3846.78626	0.99335
3844.73245	0.99323
3842.67864	0.99366
3840.62483	0.99486
3838.57102	0.99590
3836.51721	0.99536
3834.46340	0.99413
3832.40959	0.99357
3830.35578	0.99372
3828.30197	0.99401
3826.24816	0.99421
3824.19435	0.99433
3822.14054	0.99399
3820.08673	0.99306
3818.03292	0.99246
3815.97911	0.99278
3813.92530	0.99372
3811.87149	0.99445
3809.81768	0.99452
3807.76387	0.99397
3805.71006	0.99396
3803.65625	0.99455
3801.60244	0.99475
3799.54863	0.99476
3797.49482	0.99480
3795.44101	0.99482
3793.38720	0.99483
3791.33339	0.99466
3789.27958	0.99460
3787.22577	0.99502
3785.17196	0.99530
3783.11815	0.99510
3781.06434	0.99484
3779.01053	0.99460
3776.95672	0.99448
3774.90291	0.99438
3772.84910	0.99401
3770.79529	0.99351
3768.74148	0.99375
3766.68767	0.99481
3764.63386	0.99526
3762.58005	0.99475
3760.52624	0.99422
3758.47243	0.99418
3756.41862	0.99453
3754.36481	0.99499
3752.31100	0.99541
3750.25719	0.99541
3748.20338	0.99487
3746.14957	0.99467
3744.09576	0.99539
3742.04195	0.99550
3739.98814	0.99473
3737.93433	0.99421
3735.88052	0.99387
3733.82671	0.99357
3731.77290	0.99363
3729.71909	0.99373
3727.66528	0.99369
3725.61147	0.99404
3723.55766	0.99477
3721.50385	0.99489
3719.45004	0.99455
3717.39623	0.99447
3715.34242	0.99416
3713.28861	0.99285
3711.23480	0.99121
3709.18099	0.99102
3707.12718	0.99154
3705.07337	0.99119
3703.01956	0.98988
3700.96575	0.98898
3698.91194	0.98909
3696.85813	0.98919
3694.80432	0.98892
3692.75051	0.98843
3690.69670	0.98824
3688.64289	0.98880
3686.58907	0.98947
3684.53526	0.98980
3682.48145	0.98972
3680.42764	0.98924
3678.37383	0.98847
3676.32002	0.98746
3674.26621	0.98766
3672.21240	0.98891
3670.15859	0.98975
3668.10478	0.99016
3666.05097	0.99025
3663.99716	0.98996
3661.94335	0.98923
3659.88954	0.98827
3657.83573	0.98773
3655.78192	0.98746
3653.72811	0.98710
3651.67430	0.98734
3649.62049	0.98807
3647.56668	0.98776
3645.51287	0.98712
3643.45906	0.98693
3641.40525	0.98658
3639.35144	0.98605
3637.29763	0.98555
3635.24382	0.98479
3633.19001	0.98389
3631.13620	0.98327
3629.08239	0.98309
3627.02858	0.98334
3624.97477	0.98346
3622.92096	0.98336
3620.86715	0.98338
3618.81334	0.98385
3616.75953	0.98425
3614.70572	0.98378
3612.65191	0.98290
3610.59810	0.98257
3608.54429	0.98314
3606.49048	0.98380
3604.43667	0.98355
3602.38286	0.98294
3600.32905	0.98265
3598.27524	0.98259
3596.22143	0.98247
3594.16762	0.98200
3592.11381	0.98139
3590.06000	0.98126
3588.00619	0.98169
3585.95238	0.98214
3583.89857	0.98203
3581.84476	0.98145
3579.79095	0.98090
3577.73714	0.98049
3575.68333	0.98008
3573.62952	0.97987
3571.57571	0.97998
3569.52190	0.98035
3567.46809	0.98079
3565.41428	0.98096
3563.36047	0.98070
3561.30666	0.98013
3559.25285	0.97961
3557.19904	0.97926
3555.14523	0.97869
3553.09142	0.97810
3551.03761	0.97797
3548.98380	0.97763
3546.92999	0.97688
3544.87618	0.97636
3542.82237	0.97611
3540.76856	0.97627
3538.71475	0.97655
3536.66094	0.97638
3534.60713	0.97629
3532.55332	0.97631
3530.49951	0.97583
3528.44570	0.97525
3526.39189	0.97492
3524.33808	0.97486
3522.28427	0.97496
3520.23046	0.97478
3518.17665	0.97426
3516.12284	0.97387
3514.06903	0.97392
3512.01522	0.97368
3509.96141	0.97276
3507.90760	0.97235
3505.85379	0.97281
3503.79998	0.97298
3501.74617	0.97246
3499.69236	0.97173
3497.63855	0.97135
3495.58474	0.97118
3493.53093	0.97076
3491.47712	0.97047
3489.42331	0.97046
3487.36950	0.97047
3485.31569	0.97041
3483.26188	0.96993
3481.20807	0.96935
3479.15426	0.96948
3477.10045	0.96972
3475.04664	0.96893
3472.99283	0.96761
3470.93902	0.96698
3468.88521	0.96706
3466.83140	0.96717
3464.77759	0.96705
3462.72378	0.96664
3460.66997	0.96608
3458.61616	0.96561
3456.56235	0.96515
3454.50854	0.96481
3452.45473	0.96464
3450.40092	0.96462
3448.34711	0.96506
3446.29330	0.96558
3444.23949	0.96558
3442.18568	0.96528
3440.13187	0.96496
3438.07806	0.96477
3436.02425	0.96488
3433.97044	0.96483
3431.91663	0.96435
3429.86282	0.96406
3427.80901	0.96393
3425.75520	0.96360
3423.70139	0.96343
3421.64758	0.96361
3419.59377	0.96403
3417.53996	0.96446
3415.48615	0.96429
3413.43234	0.96357
3411.37853	0.96350
3409.32472	0.96408
3407.27091	0.96412
3405.21710	0.96367
3403.16329	0.96336
3401.10948	0.96329
3399.05567	0.96329
3397.00186	0.96294
3394.94805	0.96243
3392.89424	0.96217
3390.84042	0.96219
3388.78661	0.96246
3386.73280	0.96244
3384.67899	0.96180
3382.62518	0.96150
3380.57137	0.96179
3378.51756	0.96175
3376.46375	0.96160
3374.40994	0.96159
3372.35613	0.96147
3370.30232	0.96126
3368.24851	0.96078
3366.19470	0.96026
3364.14089	0.96009
3362.08708	0.96007
3360.03327	0.96004
3357.97946	0.96002
3355.92565	0.96014
3353.87184	0.96052
3351.81803	0.96053
3349.76422	0.95978
3347.71041	0.95905
3345.65660	0.95925
3343.60279	0.96011
3341.54898	0.96023
3339.49517	0.95941
3337.44136	0.95896
3335.38755	0.95925
3333.33374	0.95940
3331.27993	0.95925
3329.22612	0.95930
3327.17231	0.95957
3325.11850	0.95972
3323.06469	0.95950
3321.01088	0.95920
3318.95707	0.95937
3316.90326	0.95967
3314.84945	0.95964
3312.79564	0.95948
3310.74183	0.95923
3308.68802	0.95889
3306.63421	0.95864
3304.58040	0.95837
3302.52659	0.95802
3300.47278	0.95783
3298.41897	0.95773
3296.36516	0.95760
3294.31135	0.95760
3292.25754	0.95795
3290.20373	0.95861
3288.14992	0.95892
3286.09611	0.95870
3284.04230	0.95862
3281.98849	0.95877
3279.93468	0.95910
3277.88087	0.95967
3275.82706	0.96005
3273.77325	0.95997
3271.71944	0.95984
3269.66563	0.95982
3267.61182	0.95998
3265.55801	0.96064
3263.50420	0.96161
3261.45039	0.96220
3259.39658	0.96216
3257.34277	0.96186
3255.28896	0.96190
3253.23515	0.96261
3251.18134	0.96341
3249.12753	0.96376
3247.07372	0.96393
3245.01991	0.96420
3242.96610	0.96459
3240.91229	0.96465
3238.85848	0.96427
3236.80467	0.96398
3234.75086	0.96418
3232.69705	0.96471
3230.64324	0.96504
3228.58943	0.96506
3226.53562	0.96495
3224.48181	0.96517
3222.42800	0.96553
3220.37419	0.96531
3218.32038	0.96506
3216.26657	0.96547
3214.21276	0.96621
3212.15895	0.96668
3210.10514	0.96678
3208.05133	0.96676
3205.99752	0.96674
3203.94371	0.96665
3201.88990	0.96675
3199.83609	0.96717
3197.78228	0.96746
3195.72847	0.96750
3193.67466	0.96770
3191.62085	0.96827
3189.56704	0.96886
3187.51323	0.96896
3185.45942	0.96861
3183.40561	0.96844
3181.35180	0.96875
3179.29799	0.96922
3177.24418	0.96971
3175.19037	0.97014
3173.13656	0.97007
3171.08275	0.96987
3169.02894	0.97005
3166.97513	0.97048
3164.92132	0.97099
3162.86751	0.97138
3160.81370	0.97140
3158.75989	0.97146
3156.70608	0.97185
3154.65227	0.97220
3152.59846	0.97255
3150.54465	0.97298
3148.49084	0.97346
3146.43703	0.97400
3144.38322	0.97410
3142.32941	0.97379
3140.27560	0.97364
3138.22179	0.97342
3136.16798	0.97292
3134.11417	0.97270
3132.06036	0.97298
3130.00655	0.97340
3127.95274	0.97366
3125.89893	0.97387
3123.84512	0.97415
3121.79131	0.97443
3119.73750	0.97456
3117.68369	0.97448
3115.62988	0.97438
3113.57607	0.97454
3111.52226	0.97462
3109.46845	0.97451
3107.41464	0.97451
3105.36083	0.97452
3103.30702	0.97458
3101.25321	0.97478
3099.19940	0.97465
3097.14559	0.97418
3095.09177	0.97398
3093.03796	0.97393
3090.98415	0.97372
3088.93034	0.97374
3086.87653	0.97370
3084.82272	0.97319
3082.76891	0.97299
3080.71510	0.97347
3078.66129	0.97402
3076.60748	0.97433
3074.55367	0.97426
3072.49986	0.97386
3070.44605	0.97354
3068.39224	0.97353
3066.33843	0.97374
3064.28462	0.97396
3062.23081	0.97413
3060.17700	0.97403
3058.12319	0.97360
3056.06938	0.97347
3054.01557	0.97380
3051.96176	0.97406
3049.90795	0.97378
3047.85414	0.97309
3045.80033	0.97275
3043.74652	0.97318
3041.69271	0.97361
3039.63890	0.97322
3037.58509	0.97266
3035.53128	0.97257
3033.47747	0.97245
3031.42366	0.97231
3029.36985	0.97256
3027.31604	0.97260
3025.26223	0.97189
3023.20842	0.97101
3021.15461	0.97045
3019.10080	0.97022
3017.04699	0.97037
3014.99318	0.97043
3012.93937	0.96993
3010.88556	0.96914
3008.83175	0.96845
3006.77794	0.96818
3004.72413	0.96833
3002.67032	0.96830
3000.61651	0.96797
2998.56270	0.96759
2996.50889	0.96725
2994.45508	0.96665
2992.40127	0.96551
2990.34746	0.96423
2988.29365	0.96316
2986.23984	0.96206
2984.18603	0.96053
2982.13222	0.95830
2980.07841	0.95550
2978.02460	0.95257
2975.97079	0.94963
2973.91698	0.94615
2971.86317	0.94165
2969.80936	0.93633
2967.75555	0.93058
2965.70174	0.92438
2963.64793	0.91793
2961.59412	0.91170
2959.54031	0.90569
2957.48650	0.89958
2955.43269	0.89336
2953.37888	0.88711
2951.32507	0.88050
2949.27126	0.87305
2947.21745	0.86396
2945.16364	0.85235
2943.10983	0.83802
2941.05602	0.82080
2939.00221	0.80025
2936.94840	0.77637
2934.89459	0.74936
2932.84078	0.71936
2930.78697	0.68623
2928.73316	0.64963
2926.67935	0.60961
2924.62554	0.56603
2922.57173	0.51925
2920.51792	0.47196
2918.46411	0.43096
2916.41030	0.40773
2914.35649	0.41202
2912.30268	0.44263
2910.24887	0.48745
2908.19506	0.53335
2906.14125	0.57337
2904.08744	0.60631
2902.03363	0.63353
2899.97982	0.65675
2897.92601	0.67740
2895.87220	0.69671
2893.81839	0.71549
2891.76458	0.73404
2889.71077	0.75251
2887.65696	0.77076
2885.60315	0.78812
2883.54934	0.80401
2881.49553	0.81812
2879.44172	0.83029
2877.38791	0.83998
2875.33410	0.84664
2873.28029	0.85023
2871.22648	0.85089
2869.17267	0.84834
2867.11886	0.84145
2865.06505	0.82917
2863.01124	0.81054
2860.95743	0.78385
2858.90362	0.74756
2856.84981	0.70035
2854.79600	0.64055
2852.74219	0.57065
2850.68838	0.50508
2848.63457	0.47082
2846.58076	0.48855
2844.52695	0.55108
2842.47314	0.63166
2840.41933	0.70742
2838.36552	0.76858
2836.31171	0.81470
2834.25790	0.84874
2832.20409	0.87364
2830.15028	0.89187
2828.09647	0.90525
2826.04266	0.91512
2823.98885	0.92276
2821.93504	0.92930
2819.88123	0.93505
2817.82742	0.93950
2815.77361	0.94268
2813.71980	0.94527
2811.66599	0.94784
2809.61218	0.95054
2807.55837	0.95294
2805.50456	0.95483
2803.45075	0.95665
2801.39693	0.95854
2799.34312	0.96024
2797.28931	0.96179
2795.23550	0.96309
2793.18169	0.96409
2791.12788	0.96537
2789.07407	0.96695
2787.02026	0.96820
2784.96645	0.96895
2782.91264	0.96949
2780.85883	0.97017
2778.80502	0.97106
2776.75121	0.97212
2774.69740	0.97314
2772.64359	0.97375
2770.58978	0.97414
2768.53597	0.97456
2766.48216	0.97487
2764.42835	0.97523
2762.37454	0.97580
2760.32073	0.97625
2758.26692	0.97645
2756.21311	0.97657
2754.15930	0.97670
2752.10549	0.97697
2750.05168	0.97729
2747.99787	0.97734
2745.94406	0.97708
2743.89025	0.97688
2741.83644	0.97712
2739.78263	0.97782
2737.72882	0.97856
2735.67501	0.97865
2733.62120	0.97810
2731.56739	0.97783
2729.51358	0.97800
2727.45977	0.97829
2725.40596	0.97885
2723.35215	0.97948
2721.29834	0.97946
2719.24453	0.97886
2717.19072	0.97879
2715.13691	0.97930
2713.08310	0.97959
2711.02929	0.97972
2708.97548	0.97983
2706.92167	0.97985
2704.86786	0.97994
2702.81405	0.98024
2700.76024	0.98051
2698.70643	0.98066
2696.65262	0.98078
2694.59881	0.98077
2692.54500	0.98064
2690.49119	0.98056
2688.43738	0.98046
2686.38357	0.98045
2684.32976	0.98069
2682.27595	0.98079
2680.22214	0.98056
2678.16833	0.98053
2676.11452	0.98080
2674.06071	0.98085
2672.00690	0.98067
2669.95309	0.98068
2667.89928	0.98086
2665.84547	0.98098
2663.79166	0.98094
2661.73785	0.98082
2659.68404	0.98091
2657.63023	0.98104
2655.57642	0.98094
2653.52261	0.98101
2651.46880	0.98141
2649.41499	0.98156
2647.36118	0.98144
2645.30737	0.98153
2643.25356	0.98173
2641.19975	0.98162
2639.14594	0.98157
2637.09213	0.98189
2635.03832	0.98186
2632.98451	0.98133
2630.93070	0.98121
2628.87689	0.98167
2626.82308	0.98222
2624.76927	0.98290
2622.71546	0.98363
2620.66165	0.98398
2618.60784	0.98401
2616.55403	0.98432
2614.50022	0.98490
2612.44641	0.98528
2610.39260	0.98540
2608.33879	0.98558
2606.28498	0.98585
2604.23117	0.98615
2602.17736	0.98653
2600.12355	0.98673
2598.06974	0.98690
2596.01593	0.98715
2593.96212	0.98726
2591.90831	0.98730
2589.85450	0.98712
2587.80069	0.98678
2585.74688	0.98673
2583.69307	0.98700
2581.63926	0.98724
2579.58545	0.98748
2577.53164	0.98783
2575.47783	0.98808
2573.42402	0.98831
2571.37021	0.98893
2569.31640	0.98966
2567.26259	0.98951
2565.20878	0.98892
2563.15497	0.98881
2561.10116	0.98878
2559.04735	0.98880
2556.99354	0.98923
2554.93973	0.98984
2552.88592	0.99038
2550.83211	0.99060
2548.77830	0.99036
2546.72449	0.99000
2544.67068	0.98996
2542.61687	0.99010
2540.56306	0.99018
2538.50925	0.99037
2536.45544	0.99054
2534.40163	0.99051
2532.34782	0.99061
2530.29401	0.99089
2528.24020	0.99087
2526.18639	0.99048
2524.13258	0.99002
2522.07877	0.98974
2520.02496	0.99016
2517.97115	0.99078
2515.91734	0.99079
2513.86353	0.99086
2511.80972	0.99139
2509.75591	0.99210
2507.70210	0.99263
2505.64828	0.99241
2503.59447	0.99189
2501.54066	0.99196
2499.48685	0.99240
2497.43304	0.99301
2495.37923	0.99349
2493.32542	0.99352
2491.27161	0.99355
2489.21780	0.99362
2487.16399	0.99322
2485.11018	0.99253
2483.05637	0.99238
2481.00256	0.99281
2478.94875	0.99305
2476.89494	0.99306
2474.84113	0.99333
2472.78732	0.99322
2470.73351	0.99255
2468.67970	0.99253
2466.62589	0.99292
2464.57208	0.99302
2462.51827	0.99291
2460.46446	0.99274
2458.41065	0.99275
2456.35684	0.99294
2454.30303	0.99338
2452.24922	0.99390
2450.19541	0.99384
2448.14160	0.99330
2446.08779	0.99301
2444.03398	0.99324
2441.98017	0.99348
2439.92636	0.99368
2437.87255	0.99396
2435.81874	0.99384
2433.76493	0.99351
2431.71112	0.99321
2429.65731	0.99304
2427.60350	0.99327
2425.54969	0.99317
2423.49588	0.99240
2421.44207	0.99200
2419.38826	0.99267
2417.33445	0.99381
2415.28064	0.99447
2413.22683	0.99428
2411.17302	0.99370
2409.11921	0.99332
2407.06540	0.99314
2405.01159	0.99296
2402.95778	0.99278
2400.90397	0.99285
2398.85016	0.99329
2396.79635	0.99341
2394.74254	0.99300
2392.68873	0.99289
2390.63492	0.99273
2388.58111	0.99226
2386.52730	0.99241
2384.47349	0.99303
2382.41968	0.99317
2380.36587	0.99265
2378.31206	0.99210
2376.25825	0.99244
2374.20444	0.99395
2372.15063	0.99550
2370.09682	0.99589
2368.04301	0.99544
2365.98920	0.99477
2363.93539	0.99459
2361.88158	0.99543
2359.82777	0.99623
2357.77396	0.99568
2355.72015	0.99372
2353.66634	0.99199
2351.61253	0.99186
2349.55872	0.99245
2347.50491	0.99261
2345.45110	0.99227
2343.39729	0.99190
2341.34348	0.99193
2339.28967	0.99180
2337.23586	0.99116
2335.18205	0.99124
2333.12824	0.99243
2331.07443	0.99328
2329.02062	0.99286
2326.96681	0.99180
2324.91300	0.99092
2322.85919	0.99077
2320.80538	0.99159
2318.75157	0.99236
2316.69776	0.99246
2314.64395	0.99230
2312.59014	0.99255
2310.53633	0.99315
2308.48252	0.99306
2306.42871	0.99249
2304.37490	0.99221
2302.32109	0.99186
2300.26728	0.99152
2298.21347	0.99166
2296.15966	0.99155
2294.10585	0.99114
2292.05204	0.99165
2289.99823	0.99272
2287.94442	0.99292
2285.89061	0.99272
2283.83680	0.99277
2281.78299	0.99248
2279.72918	0.99218
2277.67537	0.99272
2275.62156	0.99367
2273.56775	0.99401
2271.51394	0.99390
2269.46013	0.99379
2267.40632	0.99372
2265.35251	0.99425
2263.29870	0.99537
2261.24489	0.99631
2259.19108	0.99666
2257.13727	0.99655
2255.08346	0.99627
2253.02965	0.99608
2250.97584	0.99586
2248.92203	0.99473
2246.86822	0.99295
2244.81441	0.99255
2242.76060	0.99407
2240.70679	0.99548
2238.65298	0.99541
2236.59917	0.99471
2234.54536	0.99497
2232.49155	0.99590
2230.43774	0.99620
2228.38393	0.99595
2226.33012	0.99511
2224.27631	0.99388
2222.22250	0.99362
2220.16869	0.99414
2218.11488	0.99460
2216.06107	0.99519
2214.00726	0.99546
2211.95344	0.99517
2209.89963	0.99436
2207.84582	0.99383
2205.79201	0.99476
2203.73820	0.99503
2201.68439	0.99382
2199.63058	0.99352
2197.57677	0.99418
2195.52296	0.99423
2193.46915	0.99318
2191.41534	0.99259
2189.36153	0.99317
2187.30772	0.99346
2185.25391	0.99357
2183.20010	0.99387
2181.14629	0.99449
2179.09248	0.99620
2177.03867	0.99773
2174.98486	0.99753
2172.93105	0.99588
2170.87724	0.99349
2168.82343	0.99187
2166.76962	0.99255
2164.71581	0.99544
2162.66200	0.99819
2160.60819	0.99832
2158.55438	0.99799
2156.50057	0.99963
2154.44676	1.00028
2152.39295	0.99916
2150.33914	0.99865
2148.28533	0.99765
2146.23152	0.99592
2144.17771	0.99622
2142.12390	0.99839
2140.07009	0.99982
2138.01628	0.99864
2135.96247	0.99661
2133.90866	0.99687
2131.85485	0.99814
2129.80104	0.99811
2127.74723	0.99747
2125.69342	0.99723
2123.63961	0.99682
2121.58580	0.99582
2119.53199	0.99505
2117.47818	0.99445
2115.42437	0.99396
2113.37056	0.99474
2111.31675	0.99613
2109.26294	0.99625
2107.20913	0.99541
2105.15532	0.99513
2103.10151	0.99533
2101.04770	0.99534
2098.99389	0.99572
2096.94008	0.99623
2094.88627	0.99566
2092.83246	0.99495
2090.77865	0.99522
2088.72484	0.99526
2086.67103	0.99472
2084.61722	0.99450
2082.56341	0.99495
2080.50960	0.99635
2078.45579	0.99775
2076.40198	0.99810
2074.34817	0.99714
2072.29436	0.99565
2070.24055	0.99570
2068.18674	0.99707
2066.13293	0.99758
2064.07912	0.99628
2062.02531	0.99404
2059.97150	0.99311
2057.91769	0.99370
2055.86388	0.99428
2053.81007	0.99507
2051.75626	0.99563
2049.70245	0.99549
2047.64864	0.99614
2045.59483	0.99771
2043.54102	0.99828
2041.48721	0.99676
2039.43340	0.99466
2037.37959	0.99377
2035.32578	0.99200
2033.27197	0.98928
2031.21816	0.98954
2029.16435	0.99165
2027.11054	0.99337
2025.05673	0.99432
2023.00292	0.99283
2020.94911	0.99077
2018.89530	0.99247
2016.84149	0.99573
2014.78768	0.99658
2012.73387	0.99711
2010.68006	0.99725
2008.62625	0.99582
2006.57244	0.99538
2004.51863	0.99675
2002.46482	0.99841
2000.41101	0.99912
1998.35720	0.99845
1996.30339	0.99827
1994.24958	0.99884
1992.19577	0.99794
1990.14196	0.99678
1988.08815	0.99661
1986.03434	0.99687
1983.98053	0.99688
1981.92672	0.99549
1979.87291	0.99346
1977.81910	0.99293
1975.76529	0.99421
1973.71148	0.99482
1971.65767	0.99411
1969.60386	0.99498
1967.55005	0.99804
1965.49624	1.00029
1963.44243	0.99972
1961.38862	0.99823
1959.33481	0.99833
1957.28100	0.99840
1955.22719	0.99643
1953.17338	0.99368
1951.11957	0.99273
1949.06576	0.99389
1947.01195	0.99461
1944.95814	0.99421
1942.90433	0.99394
1940.85052	0.99388
1938.79671	0.99424
1936.74290	0.99528
1934.68909	0.99639
1932.63528	0.99633
1930.58147	0.99490
1928.52766	0.99379
1926.47385	0.99369
1924.42004	0.99424
1922.36623	0.99477
1920.31242	0.99463
1918.25861	0.99429
1916.20479	0.99457
1914.15098	0.99524
1912.09717	0.99511
1910.04336	0.99388
1907.98955	0.99275
1905.93574	0.99249
1903.88193	0.99303
1901.82812	0.99399
1899.77431	0.99438
1897.72050	0.99411
1895.66669	0.99424
1893.61288	0.99474
1891.55907	0.99418
1889.50526	0.99327
1887.45145	0.99375
1885.39764	0.99435
1883.34383	0.99351
1881.29002	0.99211
1879.23621	0.99148
1877.18240	0.99128
1875.12859	0.99166
1873.07478	0.99221
1871.02097	0.99186
1868.96716	0.99162
1866.91335	0.99266
1864.85954	0.99359
1862.80573	0.99341
1860.75192	0.99290
1858.69811	0.99263
1856.64430	0.99268
1854.59049	0.99303
1852.53668	0.99304
1850.48287	0.99253
1848.42906	0.99238
1846.37525	0.99266
1844.32144	0.99291
1842.26763	0.99271
1840.21382	0.99233
1838.16001	0.99231
1836.10620	0.99231
1834.05239	0.99207
1831.99858	0.99191
1829.94477	0.99215
1827.89096	0.99232
1825.83715	0.99203
1823.78334	0.99140
1821.72953	0.99098
1819.67572	0.99117
1817.62191	0.99161
1815.56810	0.99152
1813.51429	0.99086
1811.46048	0.99004
1809.40667	0.98933
1807.35286	0.98888
1805.29905	0.98858
1803.24524	0.98868
1801.19143	0.98879
1799.13762	0.98845
1797.08381	0.98770
1795.03000	0.98689
1792.97619	0.98602
1790.92238	0.98525
1788.86857	0.98485
1786.81476	0.98425
1784.76095	0.98355
1782.70714	0.98301
1780.65333	0.98247
1778.59952	0.98173
1776.54571	0.98094
1774.49190	0.97976
1772.43809	0.97808
1770.38428	0.97653
1768.33047	0.97504
1766.27666	0.97242
1764.22285	0.96873
1762.16904	0.96450
1760.11523	0.96022
1758.06142	0.95543
1756.00761	0.94822
1753.95380	0.93828
1751.89999	0.92267
1749.84618	0.89547
1747.79237	0.85517
1745.73856	0.80401
1743.68475	0.74566
1741.63094	0.69254
1739.57713	0.65973
1737.52332	0.65405
1735.46951	0.67499
1733.41570	0.72468
1731.36189	0.77635
1729.30808	0.81723
1727.25427	0.85098
1725.20046	0.87537
1723.14665	0.89256
1721.09284	0.90332
1719.03903	0.91013
1716.98522	0.91588
1714.93141	0.92042
1712.87760	0.92368
1710.82379	0.92677
1708.76998	0.92973
1706.71617	0.93244
1704.66236	0.93438
1702.60855	0.93534
1700.55474	0.93585
1698.50093	0.93628
1696.44712	0.93700
1694.39331	0.93828
1692.33950	0.93898
1690.28569	0.93885
1688.23188	0.93848
1686.17807	0.93787
1684.12426	0.93645
1682.07045	0.93477
1680.01664	0.93371
1677.96283	0.93253
1675.90902	0.93098
1673.85521	0.92963
1671.80140	0.92840
1669.74759	0.92643
1667.69378	0.92411
1665.63997	0.92236
1663.58616	0.92083
1661.53235	0.91930
1659.47854	0.91781
1657.42473	0.91642
1655.37092	0.91509
1653.31711	0.91409
1651.26330	0.91423
1649.20949	0.91458
1647.15568	0.91487
1645.10187	0.91546
1643.04806	0.91613
1640.99425	0.91692
1638.94044	0.91782
1636.88663	0.91829
1634.83282	0.91810
1632.77901	0.91811
1630.72520	0.91859
1628.67139	0.91934
1626.61758	0.92030
1624.56377	0.92151
1622.50996	0.92323
1620.45614	0.92473
1618.40233	0.92562
1616.34852	0.92692
1614.29471	0.92858
1612.24090	0.92968
1610.18709	0.93023
1608.13328	0.93062
1606.07947	0.93094
1604.02566	0.93126
1601.97185	0.93186
1599.91804	0.93258
1597.86423	0.93308
1595.81042	0.93360
1593.75661	0.93447
1591.70280	0.93541
1589.64899	0.93608
1587.59518	0.93662
1585.54137	0.93733
1583.48756	0.93838
1581.43375	0.93948
1579.37994	0.94017
1577.32613	0.94078
1575.27232	0.94185
1573.21851	0.94283
1571.16470	0.94354
1569.11089	0.94439
1567.05708	0.94529
1565.00327	0.94584
1562.94946	0.94574
1560.89565	0.94499
1558.84184	0.94474
1556.78803	0.94590
1554.73422	0.94648
1552.68041	0.94623
1550.62660	0.94563
1548.57279	0.94561
1546.51898	0.94602
1544.46517	0.94612
1542.41136	0.94644
1540.35755	0.94785
1538.30374	0.94956
1536.24993	0.95047
1534.19612	0.95137
1532.14231	0.95273
1530.08850	0.95388
1528.03469	0.95489
1525.98088	0.95589
1523.92707	0.95634
1521.87326	0.95666
1519.81945	0.95746
1517.76564	0.95834
1515.71183	0.95921
1513.65802	0.96007
1511.60421	0.96080
1509.55040	0.96108
1507.49659	0.96142
1505.44278	0.96310
1503.38897	0.96436
1501.33516	0.96482
1499.28135	0.96472
1497.22754	0.96423
1495.17373	0.96387
1493.11992	0.96331
1491.06611	0.96206
1489.01230	0.96061
1486.95849	0.95934
1484.90468	0.95753
1482.85087	0.95447
1480.79706	0.94923
1478.74325	0.93897
1476.68944	0.91493
1474.63563	0.86916
1472.58182	0.81716
1470.52801	0.79102
1468.47420	0.78279
1466.42039	0.77438
1464.36658	0.76873
1462.31277	0.77893
1460.25896	0.80165
1458.20515	0.82666
1456.15134	0.84721
1454.09753	0.86059
1452.04372	0.87098
1449.98991	0.87982
1447.93610	0.88645
1445.88229	0.89068
1443.82848	0.89299
1441.77467	0.89436
1439.72086	0.89522
1437.66705	0.89621
1435.61324	0.89848
1433.55943	0.90179
1431.50562	0.90599
1429.45181	0.91107
1427.39800	0.91552
1425.34419	0.91913
1423.29038	0.92247
1421.23657	0.92491
1419.18276	0.92667
1417.12895	0.92879
1415.07514	0.93116
1413.02133	0.93324
1410.96752	0.93498
1408.91371	0.93629
1406.85990	0.93735
1404.80609	0.93847
1402.75228	0.93934
1400.69847	0.93950
1398.64466	0.93911
1396.59085	0.93863
1394.53704	0.93793
1392.48323	0.93641
1390.42942	0.93365
1388.37561	0.92898
1386.32180	0.92183
1384.26799	0.91296
1382.21418	0.90208
1380.16037	0.88842
1378.10656	0.87384
1376.05275	0.86110
1373.99894	0.85132
1371.94513	0.84623
1369.89132	0.84703
1367.83751	0.85292
1365.78370	0.86182
1363.72989	0.87244
1361.67608	0.88395
1359.62227	0.89356
1357.56846	0.90064
1355.51465	0.90641
1353.46084	0.91186
1351.40703	0.91758
1349.35322	0.92381
1347.29941	0.93031
1345.24560	0.93609
1343.19179	0.94017
1341.13798	0.94276
1339.08417	0.94493
1337.03036	0.94681
1334.97655	0.94785
1332.92274	0.94800
1330.86893	0.94756
1328.81512	0.94717
1326.76130	0.94692
1324.70749	0.94641
1322.65368	0.94554
1320.59987	0.94434
1318.54606	0.94303
1316.49225	0.94208
1314.43844	0.94179
1312.38463	0.94188
1310.33082	0.94168
1308.27701	0.94115
1306.22320	0.94077
1304.16939	0.94044
1302.11558	0.93978
1300.06177	0.93908
1298.00796	0.93869
1295.95415	0.93819
1293.90034	0.93711
1291.84653	0.93559
1289.79272	0.93373
1287.73891	0.93142
1285.68510	0.92880
1283.63129	0.92593
1281.57748	0.92252
1279.52367	0.91852
1277.46986	0.91416
1275.41605	0.90917
1273.36224	0.90333
1271.30843	0.89675
1269.25462	0.88919
1267.20081	0.88031
1265.14700	0.86996
1263.09319	0.85792
1261.03938	0.84396
1258.98557	0.82807
1256.93176	0.80990
1254.87795	0.78874
1252.82414	0.76441
1250.77033	0.73661
1248.71652	0.70566
1246.66271	0.67376
1244.60890	0.64359
1242.55509	0.61762
1240.50128	0.59887
1238.44747	0.59038
1236.39366	0.59475
1234.33985	0.61301
1232.28604	0.64308
1230.23223	0.67990
1228.17842	0.71786
1226.12461	0.75274
1224.07080	0.78230
1222.01699	0.80621
1219.96318	0.82522
1217.90937	0.84029
1215.85556	0.85233
1213.80175	0.86230
1211.74794	0.87103
1209.69413	0.87865
1207.64032	0.88518
1205.58651	0.89082
1203.53270	0.89543
1201.47889	0.89885
1199.42508	0.90146
1197.37127	0.90393
1195.31746	0.90637
1193.26365	0.90832
1191.20984	0.90948
1189.15603	0.91004
1187.10222	0.91031
1185.04841	0.91009
1182.99460	0.90930
1180.94079	0.90843
1178.88698	0.90770
1176.83317	0.90675
1174.77936	0.90571
1172.72555	0.90481
1170.67174	0.90392
1168.61793	0.90304
1166.56412	0.90217
1164.51031	0.90128
1162.45650	0.90044
1160.40269	0.89970
1158.34888	0.89893
1156.29507	0.89795
1154.24126	0.89696
1152.18745	0.89596
1150.13364	0.89469
1148.07983	0.89359
1146.02602	0.89294
1143.97221	0.89231
1141.91840	0.89177
1139.86459	0.89155
1137.81078	0.89117
1135.75697	0.89015
1133.70316	0.88862
1131.64935	0.88682
1129.59554	0.88489
1127.54173	0.88301
1125.48792	0.88161
1123.43411	0.88071
1121.38030	0.87972
1119.32649	0.87885
1117.27268	0.87841
1115.21887	0.87812
1113.16506	0.87780
1111.11125	0.87761
1109.05744	0.87751
1107.00363	0.87707
1104.94982	0.87616
1102.89601	0.87538
1100.84220	0.87501
1098.78839	0.87433
1096.73458	0.87333
1094.68077	0.87267
1092.62696	0.87224
1090.57315	0.87196
1088.51934	0.87170
1086.46553	0.87115
1084.41172	0.87053
1082.35791	0.86994
1080.30410	0.86920
1078.25029	0.86834
1076.19648	0.86718
1074.14267	0.86585
1072.08886	0.86471
1070.03505	0.86367
1067.98124	0.86246
1065.92743	0.86139
1063.87362	0.86048
1061.81981	0.85925
1059.76600	0.85765
1057.71219	0.85560
1055.65838	0.85298
1053.60457	0.84963
1051.55076	0.84505
1049.49695	0.83965
1047.44314	0.83468
1045.38933	0.83104
1043.33552	0.82891
1041.28171	0.82745
1039.22790	0.82559
1037.17409	0.82283
1035.12028	0.81872
1033.06647	0.81298
1031.01265	0.80576
1028.95884	0.79696
1026.90503	0.78631
1024.85122	0.77473
1022.79741	0.76441
1020.74360	0.75826
1018.68979	0.75917
1016.63598	0.76823
1014.58217	0.78367
1012.52836	0.80185
1010.47455	0.81919
1008.42074	0.83407
1006.36693	0.84678
1004.31312	0.85766
1002.25931	0.86691
1000.20550	0.87496
998.15169	0.88165
996.09788	0.88689
994.04407	0.89126
991.99026	0.89517
989.93645	0.89870
987.88264	0.90203
985.82883	0.90481
983.77502	0.90685
981.72121	0.90868
979.66740	0.91058
977.61359	0.91209
975.55978	0.91281
973.50597	0.91304
971.45216	0.91312
969.39835	0.91301
967.34454	0.91294
965.29073	0.91307
963.23692	0.91345
961.18311	0.91409
959.12930	0.91457
957.07549	0.91511
955.02168	0.91633
952.96787	0.91790
950.91406	0.91922
948.86025	0.92044
946.80644	0.92182
944.75263	0.92283
942.69882	0.92317
940.64501	0.92313
938.59120	0.92296
936.53739	0.92277
934.48358	0.92327
932.42977	0.92540
930.37596	0.92891
928.32215	0.93285
926.26834	0.93627
924.21453	0.93856
922.16072	0.93999
920.10691	0.94118
918.05310	0.94236
915.99929	0.94310
913.94548	0.94314
911.89167	0.94305
909.83786	0.94350
907.78405	0.94447
905.73024	0.94576
903.67643	0.94728
901.62262	0.94845
899.56881	0.94902
897.51500	0.94955
895.46119	0.95042
893.40738	0.95128
891.35357	0.95155
889.29976	0.95180
887.24595	0.95259
885.19214	0.95309
883.13833	0.95324
881.08452	0.95325
879.03071	0.95283
876.97690	0.95267
874.92309	0.95284
872.86928	0.95270
870.81547	0.95271
868.76166	0.95313
866.70785	0.95355
864.65404	0.95401
862.60023	0.95404
860.54642	0.95340
858.49261	0.95308
856.43880	0.95310
854.38499	0.95332
852.33118	0.95453
850.27737	0.95593
848.22356	0.95626
846.16975	0.95594
844.11594	0.95561
842.06213	0.95563
840.00832	0.95613
837.95451	0.95704
835.90070	0.95769
833.84689	0.95767
831.79308	0.95749
829.73927	0.95723
827.68546	0.95661
825.63165	0.95566
823.57784	0.95503
821.52403	0.95483
819.47022	0.95437
817.41641	0.95386
815.36260	0.95373
813.30879	0.95353
811.25498	0.95260
809.20117	0.95158
807.14736	0.95116
805.09355	0.95043
803.03974	0.94923
800.98593	0.94845
798.93212	0.94831
796.87831	0.94914
794.82450	0.95059
792.77069	0.95099
790.71688	0.95045
788.66307	0.95034
786.60926	0.95059
784.55545	0.95080
782.50164	0.95064
780.44783	0.94976
778.39402	0.94902
776.34021	0.94924
774.28640	0.95016
772.23259	0.95075
770.17878	0.95045
768.12497	0.95018
766.07116	0.95024
764.01735	0.95023
761.96354	0.95055
759.90973	0.95070
757.85592	0.94963
755.80211	0.94790
753.74830	0.94654
751.69449	0.94566
749.64068	0.94494
747.58687	0.94414
745.53306	0.94258
743.47925	0.94011
741.42544	0.93737
739.37163	0.93430
737.31781	0.92918
735.26400	0.91745
733.21019	0.89219
731.15638	0.85670
729.10257	0.83205
727.04876	0.82647
724.99495	0.82044
722.94114	0.79630
720.88733	0.76155
718.83352	0.74992
716.77971	0.78104
714.72590	0.83212
712.67209	0.87390
710.61828	0.89907
708.56447	0.91379
706.51066	0.92328
704.45685	0.92926
702.40304	0.93222
700.34923	0.93403
698.29542	0.93592
696.24161	0.93691
694.18780	0.93746
692.13399	0.93936
690.08018	0.94152
688.02637	0.94180
685.97256	0.94141
683.91875	0.94193
681.86494	0.94273
679.81113	0.94296
677.75732	0.94290
675.70351	0.94327
673.64970	0.94347
671.59589	0.94278
669.54208	0.94207
667.48827	0.94309
665.43446	0.94409
663.38065	0.94382
661.32684	0.94349
659.27303	0.94352
657.21922	0.94315
655.16541	0.94182
653.11160	0.94003
651.05779	0.93827
649.00398	0.93597
646.95017	0.93369
644.89636	0.93230
642.84255	0.93150
640.78874	0.93122
638.73493	0.93052
636.68112	0.92877
634.62731	0.92707
632.57350	0.92530
630.51969	0.92271
628.46588	0.92022
626.41207	0.91961
624.35826	0.92115
622.30445	0.92317
620.25064	0.92431
618.19683	0.92389
616.14302	0.92045
614.08921	0.91250
612.03540	0.90279
609.98159	0.89600
607.92778	0.89424
605.87397	0.89808
603.82016	0.90550
601.76635	0.91357
599.71254	0.92108
597.65873	0.92642
595.60492	0.92823
593.55111	0.92828
591.49730	0.92984
589.44349	0.93239
587.38968	0.93346
585.33587	0.93314
583.28206	0.93175
581.22825	0.92960
579.17444	0.92883
577.12063	0.93052
575.06682	0.93253
573.01301	0.93237
570.95920	0.93124
568.90539	0.93143
566.85158	0.93138
564.79777	0.92969
562.74396	0.92951
560.69015	0.93055
558.63634	0.92900
556.58253	0.92682
554.52872	0.92689
552.47491	0.92733
550.42110	0.92603
548.36729	0.92440
546.31348	0.92412
544.25967	0.92478
542.20586	0.92472
540.15205	0.92315
538.09824	0.92250
536.04443	0.92335
533.99062	0.92341
531.93681	0.92218
529.88300	0.92134
527.82919	0.92196
525.77538	0.92239
523.72157	0.92158
521.66776	0.92217
519.61395	0.92501
517.56014	0.92694
515.50633	0.92693
513.45252	0.92697
511.39871	0.92764
509.34490	0.92783
507.29109	0.92726
505.23728	0.92709
503.18347	0.92734
501.12966	0.92856
499.07585	0.93083
497.02204	0.93190
494.96823	0.93176
492.91442	0.93098
490.86061	0.92902
488.80680	0.92793
486.75299	0.92799
484.69918	0.92640
482.64537	0.92407
480.59156	0.92299
478.53775	0.92245
476.48394	0.92137
474.43013	0.91842
472.37632	0.91411
470.32251	0.91148
468.26870	0.91133
466.21489	0.91254
464.16108	0.91374
462.10727	0.91386
460.05346	0.91393
457.99965	0.91469
455.94584	0.91611
453.89203	0.91918
451.83822	0.92249
449.78441	0.92399
447.73060	0.92387
445.67679	0.92327
443.62298	0.92228
441.56916	0.92125
439.51535	0.92166
437.46154	0.92196
435.40773	0.92140
433.35392	0.92109
431.30011	0.92146
429.24630	0.92336
427.19249	0.92766
425.13868	0.93255
423.08487	0.93362
421.03106	0.93191
418.97725	0.92824
416.92344	0.92499
414.86963	0.92817
412.81582	0.93338
410.76201	0.93632
408.70820	0.93830
406.65439	0.93958
404.60058	0.94125
402.54677	0.94513
400.49296	0.94746
398.43915	0.94509
