3996.70104	0.98358
3994.64724	0.98380
3992.59344	0.98372
3990.53964	0.98360
3988.48583	0.98328
3986.43203	0.98298
3984.37823	0.98294
3982.32442	0.98308
3980.27062	0.98354
3978.21682	0.98374
3976.16301	0.98336
3974.10921	0.98309
3972.05541	0.98307
3970.00160	0.98327
3967.94780	0.98363
3965.89400	0.98358
3963.84019	0.98321
3961.78639	0.98286
3959.73259	0.98239
3957.67878	0.98207
3955.62498	0.98218
3953.57118	0.98262
3951.51737	0.98303
3949.46357	0.98321
3947.40977	0.98330
3945.35596	0.98327
3943.30216	0.98338
3941.24836	0.98330
3939.19455	0.98283
3937.14075	0.98280
3935.08695	0.98342
3933.03315	0.98406
3930.97934	0.98409
3928.92554	0.98363
3926.87174	0.98321
3924.81793	0.98296
3922.76413	0.98300
3920.71033	0.98349
3918.65652	0.98388
3916.60272	0.98381
3914.54892	0.98374
3912.49511	0.98392
3910.44131	0.98395
3908.38751	0.98354
3906.33370	0.98322
3904.27990	0.98339
3902.22610	0.98348
3900.17229	0.98333
3898.11849	0.98350
3896.06469	0.98379
3894.01088	0.98370
3891.95708	0.98329
3889.90328	0.98320
3887.84947	0.98344
3885.79567	0.98345
3883.74187	0.98340
3881.68807	0.98364
3879.63426	0.98401
3877.58046	0.98419
3875.52666	0.98378
3873.47285	0.98289
3871.41905	0.98237
3869.36525	0.98278
3867.31144	0.98367
3865.25764	0.98414
3863.20384	0.98347
3861.15003	0.98257
3859.09623	0.98240
3857.04243	0.98241
3854.98862	0.98260
3852.93482	0.98394
3850.88102	0.98516
3848.82721	0.98497
3846.77341	0.98420
3844.71961	0.98382
3842.66580	0.98385
3840.61200	0.98341
3838.55820	0.98251
3836.50439	0.98252
3834.45059	0.98352
3832.39679	0.98421
3830.34298	0.98393
3828.28918	0.98361
3826.23538	0.98397
3824.18158	0.98410
3822.12777	0.98362
3820.07397	0.98354
3818.02017	0.98430
3815.96636	0.98504
3813.91256	0.98489
3811.85876	0.98431
3809.80495	0.98401
3807.75115	0.98422
3805.69735	0.98462
3803.64354	0.98491
3801.58974	0.98526
3799.53594	0.98509
3797.48213	0.98473
3795.42833	0.98493
3793.37453	0.98509
3791.32072	0.98458
3789.26692	0.98396
3787.21312	0.98400
3785.15931	0.98406
3783.10551	0.98338
3781.05171	0.98310
3778.99790	0.98385
3776.94410	0.98415
3774.89030	0.98344
3772.83650	0.98283
3770.78269	0.98295
3768.72889	0.98314
3766.67509	0.98308
3764.62128	0.98332
3762.56748	0.98350
3760.51368	0.98350
3758.45987	0.98402
3756.40607	0.98483
3754.35227	0.98529
3752.29846	0.98484
3750.24466	0.98369
3748.19086	0.98363
3746.13705	0.98373
3744.08325	0.98371
3742.02945	0.98430
3739.97564	0.98427
3737.92184	0.98319
3735.86804	0.98254
3733.81423	0.98360
3731.76043	0.98433
3729.70663	0.98412
3727.65282	0.98337
3725.59902	0.98218
3723.54522	0.98112
3721.49141	0.98079
3719.43761	0.98049
3717.38381	0.97912
3715.33001	0.97706
3713.27620	0.97477
3711.22240	0.97138
3709.16860	0.96674
3707.11479	0.96200
3705.06099	0.95759
3703.00719	0.95361
3700.95338	0.95015
3698.89958	0.94764
3696.84578	0.94669
3694.79197	0.94731
3692.73817	0.94880
3690.68437	0.95102
3688.63056	0.95396
3686.57676	0.95636
3684.52296	0.95791
3682.46915	0.95937
3680.41535	0.96052
3678.36155	0.96068
3676.30774	0.96027
3674.25394	0.95948
3672.20014	0.95808
3670.14633	0.95658
3668.09253	0.95592
3666.03873	0.95573
3663.98492	0.95540
3661.93112	0.95471
3659.87732	0.95320
3657.82352	0.95166
3655.76971	0.95093
3653.71591	0.95075
3651.66211	0.95090
3649.60830	0.95069
3647.55450	0.94966
3645.50070	0.94911
3643.44689	0.94871
3641.39309	0.94780
3639.33929	0.94683
3637.28548	0.94647
3635.23168	0.94582
3633.17788	0.94399
3631.12407	0.94188
3629.07027	0.93996
3627.01647	0.93855
3624.96266	0.93741
3622.90886	0.93606
3620.85506	0.93545
3618.80125	0.93632
3616.74745	0.93781
3614.69365	0.93927
3612.63984	0.94058
3610.58604	0.94159
3608.53224	0.94230
3606.47844	0.94231
3604.42463	0.94201
3602.37083	0.94218
3600.31703	0.94232
3598.26322	0.94181
3596.20942	0.94129
3594.15562	0.94146
3592.10181	0.94196
3590.04801	0.94181
3587.99421	0.94116
3585.94040	0.94101
3583.88660	0.94124
3581.83280	0.94132
3579.77899	0.94094
3577.72519	0.94028
3575.67139	0.94002
3573.61758	0.94005
3571.56378	0.93957
3569.50998	0.93858
3567.45617	0.93805
3565.40237	0.93785
3563.34857	0.93704
3561.29476	0.93656
3559.24096	0.93685
3557.18716	0.93682
3555.13335	0.93600
3553.07955	0.93497
3551.02575	0.93438
3548.97195	0.93424
3546.91814	0.93380
3544.86434	0.93310
3542.81054	0.93260
3540.75673	0.93205
3538.70293	0.93176
3536.64913	0.93192
3534.59532	0.93209
3532.54152	0.93183
3530.48772	0.93156
3528.43391	0.93184
3526.38011	0.93221
3524.32631	0.93235
3522.27250	0.93235
3520.21870	0.93200
3518.16490	0.93176
3516.11109	0.93216
3514.05729	0.93251
3512.00349	0.93253
3509.94968	0.93286
3507.89588	0.93326
3505.84208	0.93347
3503.78827	0.93349
3501.73447	0.93326
3499.68067	0.93310
3497.62687	0.93287
3495.57306	0.93232
3493.51926	0.93162
3491.46546	0.93105
3489.41165	0.93082
3487.35785	0.93059
3485.30405	0.92995
3483.25024	0.92936
3481.19644	0.92921
3479.14264	0.92966
3477.08883	0.92986
3475.03503	0.92889
3472.98123	0.92787
3470.92742	0.92762
3468.87362	0.92735
3466.81982	0.92706
3464.76601	0.92703
3462.71221	0.92685
3460.65841	0.92656
3458.60460	0.92638
3456.55080	0.92632
3454.49700	0.92630
3452.44319	0.92597
3450.38939	0.92540
3448.33559	0.92506
3446.28178	0.92458
3444.22798	0.92391
3442.17418	0.92339
3440.12038	0.92267
3438.06657	0.92203
3436.01277	0.92198
3433.95897	0.92196
3431.90516	0.92143
3429.85136	0.92058
3427.79756	0.92003
3425.74375	0.92009
3423.68995	0.92011
3421.63615	0.91937
3419.58234	0.91831
3417.52854	0.91792
3415.47474	0.91812
3413.42093	0.91797
3411.36713	0.91740
3409.31333	0.91680
3407.25952	0.91632
3405.20572	0.91598
3403.15192	0.91579
3401.09811	0.91587
3399.04431	0.91598
3396.99051	0.91596
3394.93670	0.91591
3392.88290	0.91606
3390.82910	0.91675
3388.77529	0.91733
3386.72149	0.91716
3384.66769	0.91705
3382.61389	0.91751
3380.56008	0.91772
3378.50628	0.91753
3376.45248	0.91763
3374.39867	0.91804
3372.34487	0.91845
3370.29107	0.91872
3368.23726	0.91872
3366.18346	0.91878
3364.12966	0.91909
3362.07585	0.91936
3360.02205	0.91958
3357.96825	0.91977
3355.91444	0.92026
3353.86064	0.92096
3351.80684	0.92103
3349.75303	0.92077
3347.69923	0.92076
3345.64543	0.92083
3343.59162	0.92092
3341.53782	0.92094
3339.48402	0.92089
3337.43021	0.92123
3335.37641	0.92201
3333.32261	0.92263
3331.26881	0.92280
3329.21500	0.92263
3327.16120	0.92244
3325.10740	0.92238
3323.05359	0.92228
3320.99979	0.92243
3318.94599	0.92318
3316.89218	0.92407
3314.83838	0.92462
3312.78458	0.92488
3310.73077	0.92487
3308.67697	0.92469
3306.62317	0.92461
3304.56936	0.92473
3302.51556	0.92509
3300.46176	0.92537
3298.40795	0.92522
3296.35415	0.92519
3294.30035	0.92565
3292.24654	0.92617
3290.19274	0.92649
3288.13894	0.92664
3286.08513	0.92678
3284.03133	0.92717
3281.97753	0.92772
3279.92372	0.92815
3277.86992	0.92841
3275.81612	0.92848
3273.76232	0.92839
3271.70851	0.92811
3269.65471	0.92774
3267.60091	0.92805
3265.54710	0.92897
3263.49330	0.92964
3261.43950	0.93033
3259.38569	0.93123
3257.33189	0.93186
3255.27809	0.93183
3253.22428	0.93113
3251.17048	0.93068
3249.11668	0.93099
3247.06287	0.93169
3245.00907	0.93242
3242.95527	0.93295
3240.90146	0.93331
3238.84766	0.93372
3236.79386	0.93410
3234.74005	0.93431
3232.68625	0.93457
3230.63245	0.93473
3228.57864	0.93474
3226.52484	0.93528
3224.47104	0.93624
3222.41724	0.93670
3220.36343	0.93644
3218.30963	0.93653
3216.25583	0.93741
3214.20202	0.93799
3212.14822	0.93812
3210.09442	0.93841
3208.04061	0.93864
3205.98681	0.93873
3203.93301	0.93874
3201.87920	0.93878
3199.82540	0.93919
3197.77160	0.94009
3195.71779	0.94108
3193.66399	0.94175
3191.61019	0.94231
3189.55638	0.94270
3187.50258	0.94287
3185.44878	0.94336
3183.39497	0.94388
3181.34117	0.94408
3179.28737	0.94442
3177.23356	0.94480
3175.17976	0.94497
3173.12596	0.94531
3171.07215	0.94600
3169.01835	0.94667
3166.96455	0.94672
3164.91075	0.94645
3162.85694	0.94657
3160.80314	0.94720
3158.74934	0.94779
3156.69553	0.94787
3154.64173	0.94791
3152.58793	0.94846
3150.53412	0.94939
3148.48032	0.95029
3146.42652	0.95094
3144.37271	0.95163
3142.31891	0.95249
3140.26511	0.95288
3138.21130	0.95289
3136.15750	0.95341
3134.10370	0.95421
3132.04989	0.95433
3129.99609	0.95395
3127.94229	0.95404
3125.88848	0.95451
3123.83468	0.95476
3121.78088	0.95512
3119.72707	0.95595
3117.67327	0.95673
3115.61947	0.95704
3113.56566	0.95702
3111.51186	0.95709
3109.45806	0.95733
3107.40426	0.95710
3105.35045	0.95687
3103.29665	0.95732
3101.24285	0.95775
3099.18904	0.95780
3097.13524	0.95822
3095.08144	0.95881
3093.02763	0.95881
3090.97383	0.95847
3088.92003	0.95822
3086.86622	0.95844
3084.81242	0.95911
3082.75862	0.95926
3080.70481	0.95879
3078.65101	0.95869
3076.59721	0.95916
3074.54340	0.95968
3072.48960	0.96012
3070.43580	0.96042
3068.38199	0.96068
3066.32819	0.96102
3064.27439	0.96127
3062.22058	0.96139
3060.16678	0.96137
3058.11298	0.96133
3056.05918	0.96149
3054.00537	0.96196
3051.95157	0.96273
3049.89777	0.96322
3047.84396	0.96283
3045.79016	0.96225
3043.73636	0.96250
3041.68255	0.96312
3039.62875	0.96352
3037.57495	0.96398
3035.52114	0.96453
3033.46734	0.96492
3031.41354	0.96496
3029.35973	0.96474
3027.30593	0.96466
3025.25213	0.96445
3023.19832	0.96401
3021.14452	0.96402
3019.09072	0.96460
3017.03691	0.96517
3014.98311	0.96533
3012.92931	0.96531
3010.87550	0.96541
3008.82170	0.96557
3006.76790	0.96571
3004.71409	0.96576
3002.66029	0.96578
3000.60649	0.96570
2998.55269	0.96555
2996.49888	0.96553
2994.44508	0.96540
2992.39128	0.96505
2990.33747	0.96441
2988.28367	0.96385
2986.22987	0.96395
2984.17606	0.96393
2982.12226	0.96328
2980.06846	0.96269
2978.01465	0.96212
2975.96085	0.96119
2973.90705	0.96012
2971.85324	0.95892
2969.79944	0.95750
2967.74564	0.95600
2965.69183	0.95435
2963.63803	0.95239
2961.58423	0.95036
2959.53042	0.94844
2957.47662	0.94656
2955.42282	0.94488
2953.36901	0.94341
2951.31521	0.94185
2949.26141	0.93954
2947.20761	0.93601
2945.15380	0.93093
2943.10000	0.92387
2941.04620	0.91480
2938.99239	0.90399
2936.93859	0.89127
2934.88479	0.87651
2932.83098	0.85920
2930.77718	0.83828
2928.72338	0.81347
2926.66957	0.78479
2924.61577	0.75125
2922.56197	0.71225
2920.50816	0.66991
2918.45436	0.62980
2916.40056	0.60120
2914.34675	0.59340
2912.29295	0.60748
2910.23915	0.63470
2908.18534	0.66477
2906.13154	0.69203
2904.07774	0.71465
2902.02393	0.73280
2899.97013	0.74741
2897.91633	0.75971
2895.86252	0.77091
2893.80872	0.78191
2891.75492	0.79330
2889.70112	0.80513
2887.64731	0.81712
2885.59351	0.82929
2883.53971	0.84165
2881.48590	0.85407
2879.43210	0.86641
2877.37830	0.87828
2875.32449	0.88919
2873.27069	0.89842
2871.21689	0.90472
2869.16308	0.90752
2867.10928	0.90731
2865.05548	0.90387
2863.00167	0.89631
2860.94787	0.88361
2858.89407	0.86367
2856.84026	0.83327
2854.78646	0.78933
2852.73266	0.73196
2850.67885	0.67128
2848.62505	0.62909
2846.57125	0.62362
2844.51744	0.65262
2842.46364	0.69907
2840.40984	0.74724
2838.35603	0.78877
2836.30223	0.82151
2834.24843	0.84658
2832.19463	0.86577
2830.14082	0.88081
2828.08702	0.89312
2826.03322	0.90326
2823.97941	0.91126
2821.92561	0.91749
2819.87181	0.92294
2817.81800	0.92808
2815.76420	0.93250
2813.71040	0.93587
2811.65659	0.93835
2809.60279	0.94049
2807.54899	0.94295
2805.49518	0.94572
2803.44138	0.94789
2801.38758	0.94945
2799.33377	0.95108
2797.27997	0.95258
2795.22617	0.95396
2793.17236	0.95554
2791.11856	0.95714
2789.06476	0.95850
2787.01095	0.95971
2784.95715	0.96077
2782.90335	0.96172
2780.84955	0.96259
2778.79574	0.96313
2776.74194	0.96368
2774.68814	0.96468
2772.63433	0.96555
2770.58053	0.96595
2768.52673	0.96636
2766.47292	0.96694
2764.41912	0.96757
2762.36532	0.96808
2760.31151	0.96813
2758.25771	0.96802
2756.20391	0.96841
2754.15010	0.96898
2752.09630	0.96914
2750.04250	0.96929
2747.98869	0.96988
2745.93489	0.97037
2743.88109	0.97036
2741.82728	0.97022
2739.77348	0.97029
2737.71968	0.97060
2735.66587	0.97093
2733.61207	0.97090
2731.55827	0.97072
2729.50446	0.97076
2727.45066	0.97115
2725.39686	0.97165
2723.34306	0.97201
2721.28925	0.97218
2719.23545	0.97220
2717.18165	0.97228
2715.12784	0.97267
2713.07404	0.97325
2711.02024	0.97349
2708.96643	0.97347
2706.91263	0.97376
2704.85883	0.97411
2702.80502	0.97425
2700.75122	0.97440
2698.69742	0.97451
2696.64361	0.97469
2694.58981	0.97493
2692.53601	0.97497
2690.48220	0.97501
2688.42840	0.97517
2686.37460	0.97534
2684.32079	0.97530
2682.26699	0.97506
2680.21319	0.97504
2678.15938	0.97526
2676.10558	0.97529
2674.05178	0.97512
2671.99797	0.97504
2669.94417	0.97494
2667.89037	0.97469
2665.83657	0.97447
2663.78276	0.97439
2661.72896	0.97439
2659.67516	0.97436
2657.62135	0.97434
2655.56755	0.97440
2653.51375	0.97445
2651.45994	0.97445
2649.40614	0.97449
2647.35234	0.97471
2645.29853	0.97504
2643.24473	0.97508
2641.19093	0.97486
2639.13712	0.97470
2637.08332	0.97467
2635.02952	0.97500
2632.97571	0.97558
2630.92191	0.97577
2628.86811	0.97560
2626.81430	0.97578
2624.76050	0.97643
2622.70670	0.97703
2620.65289	0.97709
2618.59909	0.97711
2616.54529	0.97750
2614.49149	0.97776
2612.43768	0.97767
2610.38388	0.97753
2608.33008	0.97770
2606.27627	0.97836
2604.22247	0.97896
2602.16867	0.97891
2600.11486	0.97858
2598.06106	0.97866
2596.00726	0.97901
2593.95345	0.97889
2591.89965	0.97858
2589.84585	0.97893
2587.79204	0.97993
2585.73824	0.98092
2583.68444	0.98129
2581.63063	0.98144
2579.57683	0.98214
2577.52303	0.98261
2575.46922	0.98194
2573.41542	0.98094
2571.36162	0.98084
2569.30781	0.98134
2567.25401	0.98136
2565.20021	0.98102
2563.14640	0.98111
2561.09260	0.98158
2559.03880	0.98200
2556.98500	0.98206
2554.93119	0.98184
2552.87739	0.98168
2550.82359	0.98159
2548.76978	0.98156
2546.71598	0.98183
2544.66218	0.98217
2542.60837	0.98247
2540.55457	0.98292
2538.50077	0.98325
2536.44696	0.98327
2534.39316	0.98305
2532.33936	0.98246
2530.28555	0.98164
2528.23175	0.98117
2526.17795	0.98132
2524.12414	0.98205
2522.07034	0.98306
2520.01654	0.98391
2517.96273	0.98412
2515.90893	0.98350
2513.85513	0.98287
2511.80132	0.98307
2509.74752	0.98402
2507.69372	0.98482
2505.63992	0.98484
2503.58611	0.98430
2501.53231	0.98372
2499.47851	0.98352
2497.42470	0.98373
2495.37090	0.98379
2493.31710	0.98344
2491.26329	0.98318
2489.20949	0.98350
2487.15569	0.98442
2485.10188	0.98530
2483.04808	0.98540
2480.99428	0.98501
2478.94047	0.98439
2476.88667	0.98363
2474.83287	0.98320
2472.77906	0.98350
2470.72526	0.98436
2468.67146	0.98483
2466.61765	0.98449
2464.56385	0.98389
2462.51005	0.98368
2460.45624	0.98395
2458.40244	0.98415
2456.34864	0.98392
2454.29483	0.98380
2452.24103	0.98453
2450.18723	0.98552
2448.13343	0.98571
2446.07962	0.98510
2444.02582	0.98466
2441.97202	0.98461
2439.91821	0.98440
2437.86441	0.98436
2435.81061	0.98475
2433.75680	0.98544
2431.70300	0.98587
2429.64920	0.98532
2427.59539	0.98415
2425.54159	0.98333
2423.48779	0.98351
2421.43398	0.98415
2419.38018	0.98444
2417.32638	0.98469
2415.27257	0.98516
2413.21877	0.98549
2411.16497	0.98532
2409.11116	0.98470
2407.05736	0.98434
2405.00356	0.98414
2402.94975	0.98389
2400.89595	0.98416
2398.84215	0.98461
2396.78834	0.98500
2394.73454	0.98515
2392.68074	0.98483
2390.62694	0.98472
2388.57313	0.98484
2386.51933	0.98482
2384.46553	0.98489
2382.41172	0.98482
2380.35792	0.98454
2378.30412	0.98453
2376.25031	0.98423
2374.19651	0.98360
2372.14271	0.98371
2370.08890	0.98440
2368.03510	0.98498
2365.98130	0.98488
2363.92749	0.98413
2361.87369	0.98324
2359.81989	0.98244
2357.76608	0.98280
2355.71228	0.98381
2353.65848	0.98412
2351.60467	0.98390
2349.55087	0.98341
2347.49707	0.98289
2345.44326	0.98251
2343.38946	0.98241
2341.33566	0.98244
2339.28186	0.98220
2337.22805	0.98141
2335.17425	0.98040
2333.12045	0.98044
2331.06664	0.98141
2329.01284	0.98187
2326.95904	0.98173
2324.90523	0.98152
2322.85143	0.98176
2320.79763	0.98275
2318.74382	0.98380
2316.69002	0.98429
2314.63622	0.98417
2312.58241	0.98319
2310.52861	0.98190
2308.47481	0.98167
2306.42100	0.98236
2304.36720	0.98298
2302.31340	0.98329
2300.25959	0.98370
2298.20579	0.98450
2296.15199	0.98492
2294.09818	0.98449
2292.04438	0.98414
2289.99058	0.98416
2287.93677	0.98371
2285.88297	0.98322
2283.82917	0.98372
2281.77537	0.98425
2279.72156	0.98411
2277.66776	0.98411
2275.61396	0.98397
2273.56015	0.98386
2271.50635	0.98401
2269.45255	0.98362
2267.39874	0.98375
2265.34494	0.98484
2263.29114	0.98501
2261.23733	0.98432
2259.18353	0.98439
2257.12973	0.98470
2255.07592	0.98464
2253.02212	0.98470
2250.96832	0.98448
2248.91451	0.98376
2246.86071	0.98335
2244.80691	0.98428
2242.75310	0.98648
2240.69930	0.98782
2238.64550	0.98649
2236.59169	0.98483
2234.53789	0.98472
2232.48409	0.98418
2230.43029	0.98324
2228.37648	0.98380
2226.32268	0.98545
2224.26888	0.98668
2222.21507	0.98804
2220.16127	0.98935
2218.10747	0.98787
2216.05366	0.98476
2213.99986	0.98391
2211.94606	0.98549
2209.89225	0.98759
2207.83845	0.98903
2205.78465	0.98940
2203.73084	0.98827
2201.67704	0.98614
2199.62324	0.98494
2197.56943	0.98491
2195.51563	0.98491
2193.46183	0.98589
2191.40802	0.98772
2189.35422	0.98842
2187.30042	0.98832
2185.24661	0.98715
2183.19281	0.98524
2181.13901	0.98493
2179.08520	0.98620
2177.03140	0.98741
2174.97760	0.98872
2172.92380	0.99118
2170.86999	0.99196
2168.81619	0.98958
2166.76239	0.98770
2164.70858	0.98788
2162.65478	0.99015
2160.60098	0.99364
2158.54717	0.99515
2156.49337	0.99554
2154.43957	0.99545
2152.38576	0.99365
2150.33196	0.99087
2148.27816	0.98789
2146.22435	0.98731
2144.17055	0.98932
2142.11675	0.98942
2140.06294	0.98718
2138.00914	0.98644
2135.95534	0.98717
2133.90153	0.98697
2131.84773	0.98670
2129.79393	0.98802
2127.74012	0.98925
2125.68632	0.98844
2123.63252	0.98687
2121.57871	0.98593
2119.52491	0.98538
2117.47111	0.98508
2115.41731	0.98562
2113.36350	0.98711
2111.30970	0.98840
2109.25590	0.98815
2107.20209	0.98681
2105.14829	0.98639
2103.09449	0.98667
2101.04068	0.98608
2098.98688	0.98563
2096.93308	0.98663
2094.87927	0.98755
2092.82547	0.98661
2090.77167	0.98542
2088.71786	0.98586
2086.66406	0.98632
2084.61026	0.98620
2082.55645	0.98664
2080.50265	0.98649
2078.44885	0.98617
2076.39504	0.98790
2074.34124	0.99021
2072.28744	0.98992
2070.23363	0.98790
2068.17983	0.98674
2066.12603	0.98629
2064.07223	0.98635
2062.01842	0.98741
2059.96462	0.98735
2057.91082	0.98540
2055.85701	0.98519
2053.80321	0.98728
2051.74941	0.98770
2049.69560	0.98530
2047.64180	0.98347
2045.58800	0.98420
2043.53419	0.98523
2041.48039	0.98547
2039.42659	0.98609
2037.37278	0.98631
2035.31898	0.98539
2033.26518	0.98548
2031.21137	0.98722
2029.15757	0.98791
2027.10377	0.98581
2025.04996	0.98277
2022.99616	0.98205
2020.94236	0.98404
2018.88855	0.98512
2016.83475	0.98409
2014.78095	0.98432
2012.72714	0.98644
2010.67334	0.98857
2008.61954	0.98910
2006.56574	0.98722
2004.51193	0.98573
2002.45813	0.98721
2000.40433	0.98911
1998.35052	0.98818
1996.29672	0.98622
1994.24292	0.98710
1992.18911	0.99009
1990.13531	0.99094
1988.08151	0.98870
1986.02770	0.98681
1983.97390	0.98663
1981.92010	0.98600
1979.86629	0.98521
1977.81249	0.98589
1975.75869	0.98750
1973.70488	0.98925
1971.65108	0.99081
1969.59728	0.99151
1967.54347	0.99174
1965.48967	0.99165
1963.43587	0.99006
1961.38206	0.98796
1959.32826	0.98724
1957.27446	0.98729
1955.22066	0.98650
1953.16685	0.98562
1951.11305	0.98608
1949.05925	0.98753
1947.00544	0.98840
1944.95164	0.98761
1942.89784	0.98653
1940.84403	0.98672
1938.79023	0.98751
1936.73643	0.98768
1934.68262	0.98694
1932.62882	0.98657
1930.57502	0.98686
1928.52121	0.98651
1926.46741	0.98602
1924.41361	0.98663
1922.35980	0.98734
1920.30600	0.98760
1918.25220	0.98763
1916.19839	0.98617
1914.14459	0.98443
1912.09079	0.98475
1910.03698	0.98585
1907.98318	0.98587
1905.92938	0.98575
1903.87557	0.98585
1901.82177	0.98572
1899.76797	0.98550
1897.71417	0.98529
1895.66036	0.98520
1893.60656	0.98507
1891.55276	0.98499
1889.49895	0.98529
1887.44515	0.98578
1885.39135	0.98658
1883.33754	0.98734
1881.28374	0.98697
1879.22994	0.98588
1877.17613	0.98533
1875.12233	0.98540
1873.06853	0.98568
1871.01472	0.98594
1868.96092	0.98617
1866.90712	0.98650
1864.85331	0.98634
1862.79951	0.98584
1860.74571	0.98573
1858.69190	0.98595
1856.63810	0.98618
1854.58430	0.98607
1852.53049	0.98578
1850.47669	0.98584
1848.42289	0.98592
1846.36908	0.98598
1844.31528	0.98652
1842.26148	0.98677
1840.20768	0.98652
1838.15387	0.98619
1836.10007	0.98564
1834.04627	0.98537
1831.99246	0.98580
1829.93866	0.98621
1827.88486	0.98617
1825.83105	0.98599
1823.77725	0.98549
1821.72345	0.98485
1819.66964	0.98453
1817.61584	0.98449
1815.56204	0.98467
1813.50823	0.98485
1811.45443	0.98469
1809.40063	0.98465
1807.34682	0.98510
1805.29302	0.98536
1803.23922	0.98504
1801.18541	0.98455
1799.13161	0.98441
1797.07781	0.98445
1795.02400	0.98446
1792.97020	0.98468
1790.91640	0.98458
1788.86260	0.98415
1786.80879	0.98402
1784.75499	0.98379
1782.70119	0.98333
1780.64738	0.98302
1778.59358	0.98258
1776.53978	0.98220
1774.48597	0.98224
1772.43217	0.98228
1770.37837	0.98229
1768.32456	0.98244
1766.27076	0.98227
1764.21696	0.98179
1762.16315	0.98099
1760.10935	0.98023
1758.05555	0.98008
1756.00174	0.97985
1753.94794	0.97906
1751.89414	0.97802
1749.84033	0.97683
1747.78653	0.97581
1745.73273	0.97480
1743.67892	0.97341
1741.62512	0.97196
1739.57132	0.97089
1737.51751	0.97011
1735.46371	0.96994
1733.40991	0.97032
1731.35611	0.96986
1729.30230	0.96886
1727.24850	0.96841
1725.19470	0.96850
1723.14089	0.96850
1721.08709	0.96832
1719.03329	0.96806
1716.97948	0.96737
1714.92568	0.96649
1712.87188	0.96621
1710.81807	0.96611
1708.76427	0.96591
1706.71047	0.96590
1704.65666	0.96586
1702.60286	0.96519
1700.54906	0.96356
1698.49525	0.96163
1696.44145	0.96007
1694.38765	0.95819
1692.33384	0.95644
1690.28004	0.95473
1688.22624	0.95311
1686.17243	0.95183
1684.11863	0.95004
1682.06483	0.94783
1680.01103	0.94615
1677.95722	0.94463
1675.90342	0.94286
1673.84962	0.94123
1671.79581	0.94014
1669.74201	0.93856
1667.68821	0.93675
1665.63440	0.93564
1663.58060	0.93448
1661.52680	0.93293
1659.47299	0.93158
1657.41919	0.93070
1655.36539	0.93025
1653.31158	0.92966
1651.25778	0.92848
1649.20398	0.92772
1647.15017	0.92733
1645.09637	0.92698
1643.04257	0.92660
1640.98876	0.92639
1638.93496	0.92647
1636.88116	0.92665
1634.82735	0.92643
1632.77355	0.92617
1630.71975	0.92614
1628.66594	0.92611
1626.61214	0.92626
1624.55834	0.92647
1622.50454	0.92666
1620.45073	0.92742
1618.39693	0.92881
1616.34313	0.93069
1614.28932	0.93229
1612.23552	0.93335
1610.18172	0.93429
1608.12791	0.93547
1606.07411	0.93669
1604.02031	0.93773
1601.96650	0.93883
1599.91270	0.93975
1597.85890	0.94032
1595.80509	0.94093
1593.75129	0.94176
1591.69749	0.94263
1589.64368	0.94339
1587.58988	0.94400
1585.53608	0.94451
1583.48227	0.94486
1581.42847	0.94499
1579.37467	0.94539
1577.32086	0.94648
1575.26706	0.94792
1573.21326	0.94872
1571.15945	0.94915
1569.10565	0.94994
1567.05185	0.95116
1564.99805	0.95210
1562.94424	0.95233
1560.89044	0.95213
1558.83664	0.95236
1556.78283	0.95305
1554.72903	0.95345
1552.67523	0.95346
1550.62142	0.95305
1548.56762	0.95272
1546.51382	0.95282
1544.46001	0.95318
1542.40621	0.95355
1540.35241	0.95430
1538.29860	0.95569
1536.24480	0.95674
1534.19100	0.95771
1532.13719	0.95859
1530.08339	0.95920
1528.02959	0.95993
1525.97578	0.96096
1523.92198	0.96229
1521.86818	0.96339
1519.81437	0.96367
1517.76057	0.96366
1515.70677	0.96390
1513.65297	0.96468
1511.59916	0.96572
1509.54536	0.96616
1507.49156	0.96601
1505.43775	0.96638
1503.38395	0.96655
1501.33015	0.96639
1499.27634	0.96606
1497.22254	0.96581
1495.16874	0.96559
1493.11493	0.96530
1491.06113	0.96488
1489.00733	0.96398
1486.95352	0.96260
1484.89972	0.96086
1482.84592	0.95818
1480.79211	0.95326
1478.73831	0.94287
1476.68451	0.91719
1474.63070	0.86809
1472.57690	0.82069
1470.52310	0.81741
1468.46929	0.83377
1466.41549	0.84021
1464.36169	0.82835
1462.30788	0.82093
1460.25408	0.83757
1458.20028	0.87314
1456.14648	0.90571
1454.09267	0.91764
1452.03887	0.92352
1449.98507	0.92851
1447.93126	0.93250
1445.87746	0.93497
1443.82366	0.93614
1441.76985	0.93704
1439.71605	0.93801
1437.66225	0.93905
1435.60844	0.94023
1433.55464	0.94142
1431.50084	0.94290
1429.44703	0.94479
1427.39323	0.94662
1425.33943	0.94818
1423.28562	0.94951
1421.23182	0.95030
1419.17802	0.95069
1417.12421	0.95081
1415.07041	0.95094
1413.01661	0.95111
1410.96280	0.95136
1408.90900	0.95182
1406.85520	0.95246
1404.80139	0.95338
1402.74759	0.95415
1400.69379	0.95446
1398.63999	0.95456
1396.58618	0.95446
1394.53238	0.95415
1392.47858	0.95407
1390.42477	0.95438
1388.37097	0.95457
1386.31717	0.95434
1384.26336	0.95411
1382.20956	0.95381
1380.15576	0.95299
1378.10195	0.95215
1376.04815	0.95167
1373.99435	0.95120
1371.94054	0.95053
1369.88674	0.94996
1367.83294	0.94987
1365.77913	0.95053
1363.72533	0.95183
1361.67153	0.95329
1359.61772	0.95425
1357.56392	0.95476
1355.51012	0.95515
1353.45631	0.95562
1351.40251	0.95607
1349.34871	0.95638
1347.29491	0.95679
1345.24110	0.95753
1343.18730	0.95839
1341.13350	0.95905
1339.07969	0.95941
1337.02589	0.95968
1334.97209	0.95999
1332.91828	0.96017
1330.86448	0.96011
1328.81068	0.95973
1326.75687	0.95897
1324.70307	0.95806
1322.64927	0.95740
1320.59546	0.95724
1318.54166	0.95744
1316.48786	0.95759
1314.43405	0.95753
1312.38025	0.95729
1310.32645	0.95704
1308.27264	0.95702
1306.21884	0.95709
1304.16504	0.95701
1302.11123	0.95689
1300.05743	0.95703
1298.00363	0.95745
1295.94982	0.95768
1293.89602	0.95765
1291.84222	0.95750
1289.78842	0.95710
1287.73461	0.95659
1285.68081	0.95618
1283.62701	0.95585
1281.57320	0.95541
1279.51940	0.95484
1277.46560	0.95421
1275.41179	0.95362
1273.35799	0.95298
1271.30419	0.95222
1269.25038	0.95152
1267.19658	0.95101
1265.14278	0.95057
1263.08897	0.94995
1261.03517	0.94928
1258.98137	0.94891
1256.92756	0.94870
1254.87376	0.94856
1252.81996	0.94857
1250.76615	0.94843
1248.71235	0.94787
1246.65855	0.94710
1244.60474	0.94638
1242.55094	0.94570
1240.49714	0.94496
1238.44334	0.94416
1236.38953	0.94350
1234.33573	0.94319
1232.28193	0.94289
1230.22812	0.94208
1228.17432	0.94120
1226.12052	0.94083
1224.06671	0.94042
1222.01291	0.93961
1219.95911	0.93889
1217.90530	0.93815
1215.85150	0.93687
1213.79770	0.93556
1211.74389	0.93452
1209.69009	0.93339
1207.63629	0.93223
1205.58248	0.93095
1203.52868	0.92943
1201.47488	0.92777
1199.42107	0.92607
1197.36727	0.92441
1195.31347	0.92259
1193.25966	0.92041
1191.20586	0.91797
1189.15206	0.91523
1187.09825	0.91234
1185.04445	0.90953
1182.99065	0.90658
1180.93685	0.90333
1178.88304	0.89984
1176.82924	0.89620
1174.77544	0.89266
1172.72163	0.88929
1170.66783	0.88571
1168.61403	0.88189
1166.56022	0.87824
1164.50642	0.87519
1162.45262	0.87287
1160.39881	0.87084
1158.34501	0.86860
1156.29121	0.86605
1154.23740	0.86333
1152.18360	0.86059
1150.12980	0.85807
1148.07599	0.85569
1146.02219	0.85310
1143.96839	0.85041
1141.91458	0.84774
1139.86078	0.84502
1137.80698	0.84213
1135.75317	0.83892
1133.69937	0.83533
1131.64557	0.83143
1129.59176	0.82686
1127.53796	0.82132
1125.48416	0.81511
1123.43036	0.80857
1121.37655	0.80170
1119.32275	0.79459
1117.26895	0.78760
1115.21514	0.78116
1113.16134	0.77563
1111.10754	0.77088
1109.05373	0.76629
1106.99993	0.76156
1104.94613	0.75690
1102.89232	0.75298
1100.83852	0.75026
1098.78472	0.74806
1096.73091	0.74591
1094.67711	0.74433
1092.62331	0.74335
1090.56950	0.74244
1088.51570	0.74130
1086.46190	0.73990
1084.40809	0.73842
1082.35429	0.73712
1080.30049	0.73589
1078.24668	0.73442
1076.19288	0.73247
1074.13908	0.72980
1072.08528	0.72654
1070.03147	0.72320
1067.97767	0.71982
1065.92387	0.71573
1063.87006	0.71067
1061.81626	0.70504
1059.76246	0.69905
1057.70865	0.69270
1055.65485	0.68588
1053.60105	0.67844
1051.54724	0.67042
1049.49344	0.66236
1047.43964	0.65455
1045.38583	0.64680
1043.33203	0.63883
1041.27823	0.63115
1039.22442	0.62464
1037.17062	0.61910
1035.11682	0.61421
1033.06301	0.61080
1031.00921	0.60920
1028.95541	0.60897
1026.90160	0.61000
1024.84780	0.61201
1022.79400	0.61413
1020.74019	0.61574
1018.68639	0.61674
1016.63259	0.61741
1014.57879	0.61792
1012.52498	0.61803
1010.47118	0.61796
1008.41738	0.61841
1006.36357	0.62016
1004.30977	0.62358
1002.25597	0.62868
1000.20216	0.63547
998.14836	0.64371
996.09456	0.65319
994.04075	0.66345
991.98695	0.67391
989.93315	0.68438
987.87934	0.69504
985.82554	0.70610
983.77174	0.71749
981.71793	0.72866
979.66413	0.73904
977.61033	0.74883
975.55652	0.75872
973.50272	0.76859
971.44892	0.77761
969.39511	0.78571
967.34131	0.79339
965.28751	0.80063
963.23371	0.80712
961.17990	0.81270
959.12610	0.81743
957.07230	0.82169
955.01849	0.82536
952.96469	0.82847
950.91089	0.83156
948.85708	0.83441
946.80328	0.83694
944.74948	0.83907
942.69567	0.84038
940.64187	0.84120
938.58807	0.84204
936.53426	0.84301
934.48046	0.84394
932.42666	0.84463
930.37285	0.84510
928.31905	0.84549
926.26525	0.84564
924.21144	0.84516
922.15764	0.84341
920.10384	0.84057
918.05003	0.83741
915.99623	0.83432
913.94243	0.83200
911.88862	0.83155
909.83482	0.83382
907.78102	0.83907
905.72722	0.84677
903.67341	0.85532
901.61961	0.86295
899.56581	0.86923
897.51200	0.87482
895.45820	0.87991
893.40440	0.88379
891.35059	0.88642
889.29679	0.88890
887.24299	0.89143
885.18918	0.89341
883.13538	0.89482
881.08158	0.89584
879.02777	0.89651
876.97397	0.89735
874.92017	0.89889
872.86636	0.90101
870.81256	0.90340
868.75876	0.90608
866.70495	0.90847
864.65115	0.90992
862.59735	0.91118
860.54354	0.91301
858.48974	0.91496
856.43594	0.91673
854.38213	0.91819
852.32833	0.91900
850.27453	0.91938
848.22073	0.91981
846.16692	0.92049
844.11312	0.92149
842.05932	0.92209
840.00551	0.92163
837.95171	0.92096
835.89791	0.92035
833.84410	0.91911
831.79030	0.91785
829.73650	0.91714
827.68269	0.91630
825.62889	0.91506
823.57509	0.91427
821.52128	0.91431
819.46748	0.91437
817.41368	0.91387
815.35987	0.91297
813.30607	0.91197
811.25227	0.91103
809.19846	0.90928
807.14466	0.90632
805.09086	0.90314
803.03705	0.90044
800.98325	0.89809
798.92945	0.89625
796.87565	0.89569
794.82184	0.89577
792.76804	0.89553
790.71424	0.89511
788.66043	0.89463
786.60663	0.89434
784.55283	0.89452
782.49902	0.89473
780.44522	0.89458
778.39142	0.89427
776.33761	0.89435
774.28381	0.89500
772.23001	0.89523
770.17620	0.89462
768.12240	0.89362
766.06860	0.89239
764.01479	0.89074
761.96099	0.88864
759.90719	0.88694
757.85338	0.88595
755.79958	0.88511
753.74578	0.88451
751.69197	0.88447
749.63817	0.88451
747.58437	0.88430
745.53056	0.88406
743.47676	0.88362
741.42296	0.88283
739.36916	0.88182
737.31535	0.87903
735.26155	0.86710
733.20775	0.83785
731.15394	0.80551
729.10014	0.79896
727.04634	0.81376
724.99253	0.81894
722.93873	0.79679
720.88493	0.75131
718.83112	0.71374
716.77732	0.71521
714.72352	0.74915
712.66971	0.78902
710.61591	0.81715
708.56211	0.83189
706.50830	0.83819
704.45450	0.83998
702.40070	0.83910
700.34689	0.83690
698.29309	0.83546
696.23929	0.83511
694.18548	0.83500
692.13168	0.83504
690.07788	0.83534
688.02408	0.83635
685.97027	0.83854
683.91647	0.84021
681.86267	0.84004
679.80886	0.83983
677.75506	0.84094
675.70126	0.84210
673.64745	0.84265
671.59365	0.84295
669.53985	0.84301
667.48604	0.84448
665.43224	0.84762
663.37844	0.85071
661.32463	0.85326
659.27083	0.85435
657.21703	0.85444
655.16322	0.85474
653.10942	0.85469
651.05562	0.85321
649.00181	0.85080
646.94801	0.84944
644.89421	0.85020
642.84040	0.85135
640.78660	0.85177
638.73280	0.85186
636.67899	0.85155
634.62519	0.85109
632.57139	0.85057
630.51759	0.84924
628.46378	0.84745
626.40998	0.84686
624.35618	0.84673
622.30237	0.84566
620.24857	0.84396
618.19477	0.84176
616.14096	0.83903
614.08716	0.83647
612.03336	0.83426
609.97955	0.83177
607.92575	0.82913
605.87195	0.82669
603.81814	0.82409
601.76434	0.82181
599.71054	0.82089
597.65673	0.82027
595.60293	0.81917
593.54913	0.81875
591.49532	0.81818
589.44152	0.81608
587.38772	0.81288
585.33391	0.80924
583.28011	0.80644
581.22631	0.80570
579.17250	0.80544
577.11870	0.80329
575.06490	0.80001
573.01110	0.79713
570.95729	0.79491
568.90349	0.79256
566.84969	0.78966
564.79588	0.78704
562.74208	0.78417
560.68828	0.78065
558.63447	0.77733
556.58067	0.77367
554.52687	0.76891
552.47306	0.76369
550.41926	0.75942
548.36546	0.75574
546.31165	0.75068
544.25785	0.74459
542.20405	0.73886
540.15024	0.73382
538.09644	0.72954
536.04264	0.72567
533.98883	0.72284
531.93503	0.72200
529.88123	0.72196
527.82742	0.72286
525.77362	0.72611
523.71982	0.72960
521.66602	0.73208
519.61221	0.73573
517.55841	0.74028
515.50461	0.74388
513.45080	0.74661
511.39700	0.74873
509.34320	0.75173
507.28939	0.75626
505.23559	0.75989
503.18179	0.76163
501.12798	0.76261
499.07418	0.76302
497.02038	0.76250
494.96657	0.76068
492.91277	0.75782
490.85897	0.75599
488.80516	0.75498
486.75136	0.75167
484.69756	0.74462
482.64375	0.73433
480.58995	0.72290
478.53615	0.71158
476.48234	0.69993
474.42854	0.68781
472.37474	0.67560
470.32093	0.66732
468.26713	0.66414
466.21333	0.66353
464.15953	0.66484
462.10572	0.66807
460.05192	0.67447
457.99812	0.68481
455.94431	0.69595
453.89051	0.70416
451.83671	0.70933
449.78290	0.71371
447.72910	0.71689
445.67530	0.71656
443.62149	0.71664
441.56769	0.71977
439.51389	0.72237
437.46008	0.72360
435.40628	0.72226
433.35248	0.71780
431.29867	0.71514
429.24487	0.71706
427.19107	0.72125
425.13726	0.72415
423.08346	0.72209
421.02966	0.71889
418.97585	0.72622
416.92205	0.73890
414.86825	0.74537
412.81445	0.75034
410.76064	0.75593
408.70684	0.76515
406.65304	0.78030
404.59923	0.79435
402.54543	0.80054
400.49163	0.80345
398.43782	0.80802
