3996.71440	0.99142
3994.66059	0.99132
3992.60678	0.99136
3990.55297	0.99121
3988.49916	0.99107
3986.44535	0.99103
3984.39154	0.99105
3982.33773	0.99126
3980.28391	0.99141
3978.23010	0.99152
3976.17629	0.99160
3974.12248	0.99162
3972.06867	0.99183
3970.01486	0.99197
3967.96105	0.99171
3965.90724	0.99148
3963.85343	0.99146
3961.79962	0.99150
3959.74581	0.99165
3957.69200	0.99177
3955.63819	0.99182
3953.58438	0.99190
3951.53057	0.99188
3949.47676	0.99176
3947.42295	0.99172
3945.36914	0.99184
3943.31533	0.99183
3941.26152	0.99164
3939.20771	0.99157
3937.15390	0.99150
3935.10009	0.99131
3933.04628	0.99115
3930.99247	0.99100
3928.93866	0.99095
3926.88485	0.99111
3924.83104	0.99133
3922.77723	0.99134
3920.72342	0.99130
3918.66961	0.99143
3916.61580	0.99155
3914.56199	0.99142
3912.50818	0.99116
3910.45437	0.99113
3908.40056	0.99119
3906.34675	0.99113
3904.29294	0.99124
3902.23913	0.99125
3900.18532	0.99110
3898.13151	0.99139
3896.07770	0.99173
3894.02389	0.99170
3891.97008	0.99158
3889.91627	0.99180
3887.86246	0.99215
3885.80865	0.99223
3883.75484	0.99191
3881.70103	0.99155
3879.64722	0.99165
3877.59341	0.99193
3875.53960	0.99176
3873.48579	0.99126
3871.43198	0.99110
3869.37817	0.99157
3867.32436	0.99204
3865.27055	0.99220
3863.21674	0.99217
3861.16293	0.99195
3859.10912	0.99160
3857.05531	0.99157
3855.00150	0.99196
3852.94769	0.99182
3850.89388	0.99140
3848.84007	0.99168
3846.78626	0.99193
3844.73245	0.99166
3842.67864	0.99131
3840.62483	0.99153
3838.57102	0.99194
3836.51721	0.99186
3834.46340	0.99147
3832.40959	0.99113
3830.35578	0.99112
3828.30197	0.99145
3826.24816	0.99183
3824.19435	0.99219
3822.14054	0.99239
3820.08673	0.99232
3818.03292	0.99229
3815.97911	0.99225
3813.92530	0.99198
3811.87149	0.99178
3809.81768	0.99193
3807.76387	0.99244
3805.71006	0.99281
3803.65625	0.99255
3801.60244	0.99199
3799.54863	0.99184
3797.49482	0.99209
3795.44101	0.99214
3793.38720	0.99204
3791.33339	0.99199
3789.27958	0.99194
3787.22577	0.99184
3785.17196	0.99186
3783.11815	0.99203
3781.06434	0.99220
3779.01053	0.99228
3776.95672	0.99222
3774.90291	0.99204
3772.84910	0.99167
3770.79529	0.99137
3768.74148	0.99136
3766.68767	0.99152
3764.63386	0.99188
3762.58005	0.99211
3760.52624	0.99205
3758.47243	0.99204
3756.41862	0.99224
3754.36481	0.99244
3752.31100	0.99259
3750.25719	0.99282
3748.20338	0.99290
3746.14957	0.99290
3744.09576	0.99284
3742.04195	0.99259
3739.98814	0.99253
3737.93433	0.99297
3735.88052	0.99364
3733.82671	0.99365
3731.77290	0.99299
3729.71909	0.99246
3727.66528	0.99245
3725.61147	0.99259
3723.55766	0.99234
3721.50385	0.99222
3719.45004	0.99233
3717.39623	0.99211
3715.34242	0.99190
3713.28861	0.99184
3711.23480	0.99161
3709.18099	0.99144
3707.12718	0.99147
3705.07337	0.99154
3703.01956	0.99153
3700.96575	0.99137
3698.91194	0.99118
3696.85813	0.99085
3694.80432	0.99050
3692.75051	0.99055
3690.69670	0.99081
3688.64289	0.99064
3686.58907	0.99062
3684.53526	0.99113
3682.48145	0.99155
3680.42764	0.99183
3678.37383	0.99203
3676.32002	0.99168
3674.26621	0.99114
3672.21240	0.99114
3670.15859	0.99106
3668.10478	0.99091
3666.05097	0.99091
3663.99716	0.99072
3661.94335	0.99032
3659.88954	0.99013
3657.83573	0.99049
3655.78192	0.99090
3653.72811	0.99070
3651.67430	0.99051
3649.62049	0.99095
3647.56668	0.99089
3645.51287	0.99030
3643.45906	0.99007
3641.40525	0.98988
3639.35144	0.98962
3637.29763	0.98958
3635.24382	0.98970
3633.19001	0.98967
3631.13620	0.98939
3629.08239	0.98901
3627.02858	0.98888
3624.97477	0.98896
3622.92096	0.98872
3620.86715	0.98835
3618.81334	0.98858
3616.75953	0.98913
3614.70572	0.98922
3612.65191	0.98922
3610.59810	0.98938
3608.54429	0.98923
3606.49048	0.98874
3604.43667	0.98852
3602.38286	0.98869
3600.32905	0.98896
3598.27524	0.98910
3596.22143	0.98926
3594.16762	0.98950
3592.11381	0.98961
3590.06000	0.98949
3588.00619	0.98933
3585.95238	0.98949
3583.89857	0.98997
3581.84476	0.99037
3579.79095	0.99045
3577.73714	0.99023
3575.68333	0.99005
3573.62952	0.99006
3571.57571	0.99000
3569.52190	0.98984
3567.46809	0.98968
3565.41428	0.98957
3563.36047	0.98960
3561.30666	0.98942
3559.25285	0.98919
3557.19904	0.98931
3555.14523	0.98945
3553.09142	0.98951
3551.03761	0.98948
3548.98380	0.98924
3546.92999	0.98907
3544.87618	0.98914
3542.82237	0.98948
3540.76856	0.98966
3538.71475	0.98936
3536.66094	0.98894
3534.60713	0.98882
3532.55332	0.98899
3530.49951	0.98922
3528.44570	0.98930
3526.39189	0.98923
3524.33808	0.98916
3522.28427	0.98926
3520.23046	0.98950
3518.17665	0.98956
3516.12284	0.98936
3514.06903	0.98918
3512.01522	0.98918
3509.96141	0.98935
3507.90760	0.98948
3505.85379	0.98931
3503.79998	0.98888
3501.74617	0.98866
3499.69236	0.98886
3497.63855	0.98900
3495.58474	0.98890
3493.53093	0.98866
3491.47712	0.98829
3489.42331	0.98810
3487.36950	0.98817
3485.31569	0.98810
3483.26188	0.98806
3481.20807	0.98838
3479.15426	0.98856
3477.10045	0.98828
3475.04664	0.98808
3472.99283	0.98816
3470.93902	0.98829
3468.88521	0.98843
3466.83140	0.98854
3464.77759	0.98858
3462.72378	0.98849
3460.66997	0.98828
3458.61616	0.98814
3456.56235	0.98813
3454.50854	0.98824
3452.45473	0.98831
3450.40092	0.98816
3448.34711	0.98784
3446.29330	0.98773
3444.23949	0.98787
3442.18568	0.98775
3440.13187	0.98718
3438.07806	0.98669
3436.02425	0.98688
3433.97044	0.98744
3431.91663	0.98771
3429.86282	0.98777
3427.80901	0.98784
3425.75520	0.98783
3423.70139	0.98768
3421.64758	0.98749
3419.59377	0.98738
3417.53996	0.98764
3415.48615	0.98831
3413.43234	0.98873
3411.37853	0.98843
3409.32472	0.98785
3407.27091	0.98756
3405.21710	0.98749
3403.16329	0.98744
3401.10948	0.98745
3399.05567	0.98739
3397.00186	0.98735
3394.94805	0.98741
3392.89424	0.98740
3390.84042	0.98727
3388.78661	0.98720
3386.73280	0.98730
3384.67899	0.98750
3382.62518	0.98763
3380.57137	0.98747
3378.51756	0.98732
3376.46375	0.98750
3374.40994	0.98765
3372.35613	0.98758
3370.30232	0.98761
3368.24851	0.98781
3366.19470	0.98793
3364.14089	0.98772
3362.08708	0.98729
3360.03327	0.98710
3357.97946	0.98732
3355.92565	0.98742
3353.87184	0.98722
3351.81803	0.98700
3349.76422	0.98708
3347.71041	0.98739
3345.65660	0.98757
3343.60279	0.98762
3341.54898	0.98768
3339.49517	0.98776
3337.44136	0.98789
3335.38755	0.98802
3333.33374	0.98805
3331.27993	0.98801
3329.22612	0.98787
3327.17231	0.98760
3325.11850	0.98753
3323.06469	0.98795
3321.01088	0.98844
3318.95707	0.98859
3316.90326	0.98834
3314.84945	0.98793
3312.79564	0.98772
3310.74183	0.98779
3308.68802	0.98791
3306.63421	0.98803
3304.58040	0.98821
3302.52659	0.98801
3300.47278	0.98732
3298.41897	0.98676
3296.36516	0.98668
3294.31135	0.98700
3292.25754	0.98746
3290.20373	0.98780
3288.14992	0.98784
3286.09611	0.98772
3284.04230	0.98787
3281.98849	0.98828
3279.93468	0.98846
3277.88087	0.98814
3275.82706	0.98779
3273.77325	0.98791
3271.71944	0.98816
3269.66563	0.98826
3267.61182	0.98841
3265.55801	0.98842
3263.50420	0.98811
3261.45039	0.98782
3259.39658	0.98779
3257.34277	0.98778
3255.28896	0.98789
3253.23515	0.98821
3251.18134	0.98833
3249.12753	0.98822
3247.07372	0.98809
3245.01991	0.98804
3242.96610	0.98826
3240.91229	0.98869
3238.85848	0.98885
3236.80467	0.98876
3234.75086	0.98881
3232.69705	0.98883
3230.64324	0.98895
3228.58943	0.98921
3226.53562	0.98912
3224.48181	0.98887
3222.42800	0.98888
3220.37419	0.98883
3218.32038	0.98861
3216.26657	0.98863
3214.21276	0.98890
3212.15895	0.98911
3210.10514	0.98921
3208.05133	0.98904
3205.99752	0.98870
3203.94371	0.98870
3201.88990	0.98898
3199.83609	0.98933
3197.78228	0.98965
3195.72847	0.98981
3193.67466	0.98982
3191.62085	0.98963
3189.56704	0.98931
3187.51323	0.98899
3185.45942	0.98882
3183.40561	0.98891
3181.35180	0.98910
3179.29799	0.98928
3177.24418	0.98964
3175.19037	0.98986
3173.13656	0.98962
3171.08275	0.98929
3169.02894	0.98917
3166.97513	0.98933
3164.92132	0.98951
3162.86751	0.98939
3160.81370	0.98928
3158.75989	0.98952
3156.70608	0.98974
3154.65227	0.98968
3152.59846	0.98963
3150.54465	0.98986
3148.49084	0.99017
3146.43703	0.99029
3144.38322	0.99018
3142.32941	0.99001
3140.27560	0.98996
3138.22179	0.98991
3136.16798	0.98995
3134.11417	0.99026
3132.06036	0.99050
3130.00655	0.99030
3127.95274	0.98999
3125.89893	0.99005
3123.84512	0.99033
3121.79131	0.99028
3119.73750	0.98994
3117.68369	0.98981
3115.62988	0.98984
3113.57607	0.98970
3111.52226	0.98948
3109.46845	0.98923
3107.41464	0.98905
3105.36083	0.98913
3103.30702	0.98918
3101.25321	0.98894
3099.19940	0.98855
3097.14559	0.98817
3095.09177	0.98793
3093.03796	0.98782
3090.98415	0.98756
3088.93034	0.98709
3086.87653	0.98668
3084.82272	0.98656
3082.76891	0.98651
3080.71510	0.98635
3078.66129	0.98628
3076.60748	0.98647
3074.55367	0.98674
3072.49986	0.98684
3070.44605	0.98674
3068.39224	0.98641
3066.33843	0.98600
3064.28462	0.98577
3062.23081	0.98567
3060.17700	0.98544
3058.12319	0.98502
3056.06938	0.98494
3054.01557	0.98529
3051.96176	0.98539
3049.90795	0.98515
3047.85414	0.98495
3045.80033	0.98480
3043.74652	0.98464
3041.69271	0.98455
3039.63890	0.98437
3037.58509	0.98402
3035.53128	0.98376
3033.47747	0.98362
3031.42366	0.98363
3029.36985	0.98367
3027.31604	0.98341
3025.26223	0.98300
3023.20842	0.98270
3021.15461	0.98263
3019.10080	0.98271
3017.04699	0.98271
3014.99318	0.98252
3012.93937	0.98215
3010.88556	0.98183
3008.83175	0.98150
3006.77794	0.98108
3004.72413	0.98079
3002.67032	0.98062
3000.61651	0.98048
2998.56270	0.98010
2996.50889	0.97943
2994.45508	0.97896
2992.40127	0.97869
2990.34746	0.97828
2988.29365	0.97780
2986.23984	0.97711
2984.18603	0.97628
2982.13222	0.97553
2980.07841	0.97463
2978.02460	0.97338
2975.97079	0.97205
2973.91698	0.97078
2971.86317	0.96924
2969.80936	0.96743
2967.75555	0.96545
2965.70174	0.96302
2963.64793	0.96025
2961.59412	0.95753
2959.54031	0.95466
2957.48650	0.95118
2955.43269	0.94732
2953.37888	0.94322
2951.32507	0.93855
2949.27126	0.93295
2947.21745	0.92559
2945.16364	0.91560
2943.10983	0.90272
2941.05602	0.88679
2939.00221	0.86765
2936.94840	0.84501
2934.89459	0.81828
2932.84078	0.78708
2930.78697	0.75108
2928.73316	0.70959
2926.67935	0.66136
2924.62554	0.60489
2922.57173	0.54056
2920.51792	0.47251
2918.46411	0.40863
2916.41030	0.36069
2914.35649	0.34088
2912.30268	0.35224
2910.24887	0.38543
2908.19506	0.42744
2906.14125	0.46927
2904.08744	0.50630
2902.03363	0.53704
2899.97982	0.56250
2897.92601	0.58477
2895.87220	0.60531
2893.81839	0.62528
2891.76458	0.64581
2889.71077	0.66734
2887.65696	0.68968
2885.60315	0.71264
2883.54934	0.73603
2881.49553	0.75965
2879.44172	0.78337
2877.38791	0.80644
2875.33410	0.82706
2873.28029	0.84328
2871.22648	0.85393
2869.17267	0.85896
2867.11886	0.85853
2865.06505	0.85180
2863.01124	0.83715
2860.95743	0.81252
2858.90362	0.77458
2856.84981	0.71863
2854.79600	0.64086
2852.74219	0.54409
2850.68838	0.44657
2848.63457	0.38154
2846.58076	0.37498
2844.52695	0.42343
2842.47314	0.50154
2840.41933	0.58404
2838.36552	0.65643
2836.31171	0.71439
2834.25790	0.75918
2832.20409	0.79364
2830.15028	0.82051
2828.09647	0.84174
2826.04266	0.85875
2823.98885	0.87261
2821.93504	0.88416
2819.88123	0.89394
2817.82742	0.90224
2815.77361	0.90935
2813.71980	0.91557
2811.66599	0.92094
2809.61218	0.92568
2807.55837	0.92999
2805.50456	0.93377
2803.45075	0.93706
2801.39693	0.94010
2799.34312	0.94294
2797.28931	0.94543
2795.23550	0.94763
2793.18169	0.94995
2791.12788	0.95252
2789.07407	0.95499
2787.02026	0.95713
2784.96645	0.95908
2782.91264	0.96091
2780.85883	0.96243
2778.80502	0.96359
2776.75121	0.96461
2774.69740	0.96569
2772.64359	0.96682
2770.58978	0.96787
2768.53597	0.96884
2766.48216	0.96967
2764.42835	0.97027
2762.37454	0.97076
2760.32073	0.97118
2758.26692	0.97154
2756.21311	0.97213
2754.15930	0.97296
2752.10549	0.97353
2750.05168	0.97381
2747.99787	0.97397
2745.94406	0.97384
2743.89025	0.97371
2741.83644	0.97394
2739.78263	0.97423
2737.72882	0.97444
2735.67501	0.97481
2733.62120	0.97524
2731.56739	0.97557
2729.51358	0.97591
2727.45977	0.97612
2725.40596	0.97622
2723.35215	0.97657
2721.29834	0.97699
2719.24453	0.97719
2717.19072	0.97736
2715.13691	0.97759
2713.08310	0.97786
2711.02929	0.97820
2708.97548	0.97841
2706.92167	0.97847
2704.86786	0.97870
2702.81405	0.97914
2700.76024	0.97956
2698.70643	0.97992
2696.65262	0.98009
2694.59881	0.98002
2692.54500	0.97994
2690.49119	0.98008
2688.43738	0.98037
2686.38357	0.98057
2684.32976	0.98066
2682.27595	0.98064
2680.22214	0.98048
2678.16833	0.98020
2676.11452	0.97995
2674.06071	0.97962
2672.00690	0.97904
2669.95309	0.97843
2667.89928	0.97802
2665.84547	0.97775
2663.79166	0.97753
2661.73785	0.97733
2659.68404	0.97719
2657.63023	0.97703
2655.57642	0.97696
2653.52261	0.97717
2651.46880	0.97757
2649.41499	0.97790
2647.36118	0.97788
2645.30737	0.97764
2643.25356	0.97749
2641.19975	0.97744
2639.14594	0.97729
2637.09213	0.97702
2635.03832	0.97684
2632.98451	0.97695
2630.93070	0.97730
2628.87689	0.97787
2626.82308	0.97867
2624.76927	0.97932
2622.71546	0.97968
2620.66165	0.98013
2618.60784	0.98070
2616.55403	0.98140
2614.50022	0.98223
2612.44641	0.98274
2610.39260	0.98288
2608.33879	0.98308
2606.28498	0.98331
2604.23117	0.98347
2602.17736	0.98373
2600.12355	0.98412
2598.06974	0.98452
2596.01593	0.98492
2593.96212	0.98527
2591.90831	0.98546
2589.85450	0.98557
2587.80069	0.98562
2585.74688	0.98583
2583.69307	0.98635
2581.63926	0.98692
2579.58545	0.98731
2577.53164	0.98742
2575.47783	0.98732
2573.42402	0.98709
2571.37021	0.98698
2569.31640	0.98733
2567.26259	0.98798
2565.20878	0.98843
2563.15497	0.98835
2561.10116	0.98817
2559.04735	0.98827
2556.99354	0.98849
2554.93973	0.98869
2552.88592	0.98880
2550.83211	0.98872
2548.77830	0.98851
2546.72449	0.98827
2544.67068	0.98818
2542.61687	0.98842
2540.56306	0.98866
2538.50925	0.98877
2536.45544	0.98910
2534.40163	0.98963
2532.34782	0.98978
2530.29401	0.98952
2528.24020	0.98940
2526.18639	0.98924
2524.13258	0.98894
2522.07877	0.98920
2520.02496	0.98973
2517.97115	0.98973
2515.91734	0.98965
2513.86353	0.98990
2511.80972	0.99015
2509.75591	0.99047
2507.70210	0.99090
2505.64828	0.99101
2503.59447	0.99089
2501.54066	0.99110
2499.48685	0.99123
2497.43304	0.99086
2495.37923	0.99064
2493.32542	0.99085
2491.27161	0.99110
2489.21780	0.99131
2487.16399	0.99143
2485.11018	0.99119
2483.05637	0.99099
2481.00256	0.99116
2478.94875	0.99114
2476.89494	0.99076
2474.84113	0.99061
2472.78732	0.99099
2470.73351	0.99143
2468.67970	0.99159
2466.62589	0.99186
2464.57208	0.99224
2462.51827	0.99231
2460.46446	0.99221
2458.41065	0.99210
2456.35684	0.99196
2454.30303	0.99183
2452.24922	0.99178
2450.19541	0.99190
2448.14160	0.99209
2446.08779	0.99212
2444.03398	0.99208
2441.98017	0.99207
2439.92636	0.99206
2437.87255	0.99201
2435.81874	0.99160
2433.76493	0.99101
2431.71112	0.99109
2429.65731	0.99179
2427.60350	0.99221
2425.54969	0.99208
2423.49588	0.99161
2421.44207	0.99116
2419.38826	0.99109
2417.33445	0.99129
2415.28064	0.99147
2413.22683	0.99141
2411.17302	0.99106
2409.11921	0.99092
2407.06540	0.99137
2405.01159	0.99172
2402.95778	0.99142
2400.90397	0.99130
2398.85016	0.99172
2396.79635	0.99205
2394.74254	0.99210
2392.68873	0.99208
2390.63492	0.99211
2388.58111	0.99205
2386.52730	0.99179
2384.47349	0.99153
2382.41968	0.99157
2380.36587	0.99170
2378.31206	0.99166
2376.25825	0.99170
2374.20444	0.99171
2372.15063	0.99143
2370.09682	0.99118
2368.04301	0.99084
2365.98920	0.99024
2363.93539	0.99014
2361.88158	0.99093
2359.82777	0.99126
2357.77396	0.99031
2355.72015	0.98951
2353.66634	0.98951
2351.61253	0.98973
2349.55872	0.98963
2347.50491	0.98909
2345.45110	0.98867
2343.39729	0.98898
2341.34348	0.98918
2339.28967	0.98844
2337.23586	0.98752
2335.18205	0.98738
2333.12824	0.98783
2331.07443	0.98825
2329.02062	0.98832
2326.96681	0.98793
2324.91300	0.98720
2322.85919	0.98672
2320.80538	0.98716
2318.75157	0.98813
2316.69776	0.98864
2314.64395	0.98864
2312.59014	0.98861
2310.53633	0.98842
2308.48252	0.98831
2306.42871	0.98873
2304.37490	0.98936
2302.32109	0.98984
2300.26728	0.98997
2298.21347	0.98962
2296.15966	0.98909
2294.10585	0.98883
2292.05204	0.98899
2289.99823	0.98939
2287.94442	0.98965
2285.89061	0.98975
2283.83680	0.98987
2281.78299	0.98979
2279.72918	0.98942
2277.67537	0.98948
2275.62156	0.99017
2273.56775	0.99058
2271.51394	0.99031
2269.46013	0.98999
2267.40632	0.99049
2265.35251	0.99163
2263.29870	0.99206
2261.24489	0.99143
2259.19108	0.99086
2257.13727	0.99110
2255.08346	0.99185
2253.02965	0.99267
2250.97584	0.99324
2248.92203	0.99338
2246.86822	0.99320
2244.81441	0.99276
2242.76060	0.99201
2240.70679	0.99156
2238.65298	0.99178
2236.59917	0.99229
2234.54536	0.99304
2232.49155	0.99310
2230.43774	0.99198
2228.38393	0.99115
2226.33012	0.99096
2224.27631	0.99091
2222.22250	0.99202
2220.16869	0.99371
2218.11488	0.99446
2216.06107	0.99461
2214.00726	0.99477
2211.95344	0.99507
2209.89963	0.99491
2207.84582	0.99393
2205.79201	0.99334
2203.73820	0.99402
2201.68439	0.99458
2199.63058	0.99421
2197.57677	0.99409
2195.52296	0.99322
2193.46915	0.99103
2191.41534	0.98983
2189.36153	0.99039
2187.30772	0.99179
2185.25391	0.99313
2183.20010	0.99371
2181.14629	0.99367
2179.09248	0.99306
2177.03867	0.99283
2174.98486	0.99412
2172.93105	0.99523
2170.87724	0.99449
2168.82343	0.99341
2166.76962	0.99389
2164.71581	0.99455
2162.66200	0.99362
2160.60819	0.99307
2158.55438	0.99445
2156.50057	0.99606
2154.44676	0.99690
2152.39295	0.99675
2150.33914	0.99596
2148.28533	0.99546
2146.23152	0.99500
2144.17771	0.99477
2142.12390	0.99482
2140.07009	0.99397
2138.01628	0.99268
2135.96247	0.99310
2133.90866	0.99504
2131.85485	0.99613
2129.80104	0.99586
2127.74723	0.99499
2125.69342	0.99432
2123.63961	0.99435
2121.58580	0.99437
2119.53199	0.99374
2117.47818	0.99317
2115.42437	0.99304
2113.37056	0.99343
2111.31675	0.99451
2109.26294	0.99518
2107.20913	0.99483
2105.15532	0.99404
2103.10151	0.99341
2101.04770	0.99341
2098.99389	0.99341
2096.94008	0.99304
2094.88627	0.99326
2092.83246	0.99381
2090.77865	0.99446
2088.72484	0.99504
2086.67103	0.99430
2084.61722	0.99306
2082.56341	0.99274
2080.50960	0.99302
2078.45579	0.99298
2076.40198	0.99255
2074.34817	0.99244
2072.29436	0.99267
2070.24055	0.99332
2068.18674	0.99399
2066.13293	0.99367
2064.07912	0.99300
2062.02531	0.99303
2059.97150	0.99337
2057.91769	0.99322
2055.86388	0.99249
2053.81007	0.99165
2051.75626	0.99116
2049.70245	0.99145
2047.64864	0.99202
2045.59483	0.99220
2043.54102	0.99195
2041.48721	0.99153
2039.43340	0.99165
2037.37959	0.99131
2035.32578	0.99065
2033.27197	0.99156
2031.21816	0.99327
2029.16435	0.99408
2027.11054	0.99375
2025.05673	0.99289
2023.00292	0.99248
2020.94911	0.99229
2018.89530	0.99233
2016.84149	0.99385
2014.78768	0.99550
2012.73387	0.99589
2010.68006	0.99527
2008.62625	0.99413
2006.57244	0.99403
2004.51863	0.99483
2002.46482	0.99495
2000.41101	0.99436
1998.35720	0.99409
1996.30339	0.99454
1994.24958	0.99483
1992.19577	0.99417
1990.14196	0.99363
1988.08815	0.99441
1986.03434	0.99475
1983.98053	0.99359
1981.92672	0.99259
1979.87291	0.99258
1977.81910	0.99332
1975.76529	0.99433
1973.71148	0.99491
1971.65767	0.99479
1969.60386	0.99401
1967.55005	0.99300
1965.49624	0.99285
1963.44243	0.99407
1961.38862	0.99547
1959.33481	0.99675
1957.28100	0.99728
1955.22719	0.99588
1953.17338	0.99439
1951.11957	0.99431
1949.06576	0.99492
1947.01195	0.99539
1944.95814	0.99533
1942.90433	0.99492
1940.85052	0.99457
1938.79671	0.99422
1936.74290	0.99397
1934.68909	0.99433
1932.63528	0.99499
1930.58147	0.99501
1928.52766	0.99415
1926.47385	0.99331
1924.42004	0.99331
1922.36623	0.99395
1920.31242	0.99414
1918.25861	0.99323
1916.20479	0.99241
1914.15098	0.99261
1912.09717	0.99285
1910.04336	0.99261
1907.98955	0.99233
1905.93574	0.99205
1903.88193	0.99133
1901.82812	0.99066
1899.77431	0.99088
1897.72050	0.99153
1895.66669	0.99195
1893.61288	0.99225
1891.55907	0.99255
1889.50526	0.99276
1887.45145	0.99284
1885.39764	0.99280
1883.34383	0.99269
1881.29002	0.99270
1879.23621	0.99295
1877.18240	0.99327
1875.12859	0.99348
1873.07478	0.99362
1871.02097	0.99332
1868.96716	0.99253
1866.91335	0.99222
1864.85954	0.99284
1862.80573	0.99381
1860.75192	0.99422
1858.69811	0.99396
1856.64430	0.99350
1854.59049	0.99311
1852.53668	0.99310
1850.48287	0.99333
1848.42906	0.99344
1846.37525	0.99340
1844.32144	0.99340
1842.26763	0.99343
1840.21382	0.99319
1838.16001	0.99276
1836.10620	0.99257
1834.05239	0.99255
1831.99858	0.99233
1829.94477	0.99201
1827.89096	0.99195
1825.83715	0.99217
1823.78334	0.99247
1821.72953	0.99257
1819.67572	0.99255
1817.62191	0.99269
1815.56810	0.99260
1813.51429	0.99205
1811.46048	0.99161
1809.40667	0.99163
1807.35286	0.99181
1805.29905	0.99168
1803.24524	0.99122
1801.19143	0.99095
1799.13762	0.99114
1797.08381	0.99136
1795.03000	0.99130
1792.97619	0.99116
1790.92238	0.99106
1788.86857	0.99084
1786.81476	0.99056
1784.76095	0.99039
1782.70714	0.99026
1780.65333	0.99020
1778.59952	0.99044
1776.54571	0.99068
1774.49190	0.99040
1772.43809	0.98988
1770.38428	0.98963
1768.33047	0.98951
1766.27666	0.98945
1764.22285	0.98935
1762.16904	0.98902
1760.11523	0.98873
1758.06142	0.98867
1756.00761	0.98852
1753.95380	0.98833
1751.89999	0.98825
1749.84618	0.98816
1747.79237	0.98778
1745.73856	0.98713
1743.68475	0.98645
1741.63094	0.98601
1739.57713	0.98578
1737.52332	0.98553
1735.46951	0.98522
1733.41570	0.98490
1731.36189	0.98460
1729.30808	0.98406
1727.25427	0.98292
1725.20046	0.98115
1723.14665	0.97924
1721.09284	0.97781
1719.03903	0.97669
1716.98522	0.97550
1714.93141	0.97506
1712.87760	0.97565
1710.82379	0.97657
1708.76998	0.97747
1706.71617	0.97862
1704.66236	0.98002
1702.60855	0.98092
1700.55474	0.98122
1698.50093	0.98142
1696.44712	0.98203
1694.39331	0.98303
1692.33950	0.98376
1690.28569	0.98407
1688.23188	0.98403
1686.17807	0.98381
1684.12426	0.98377
1682.07045	0.98399
1680.01664	0.98398
1677.96283	0.98372
1675.90902	0.98352
1673.85521	0.98346
1671.80140	0.98331
1669.74759	0.98284
1667.69378	0.98245
1665.63997	0.98245
1663.58616	0.98241
1661.53235	0.98208
1659.47854	0.98172
1657.42473	0.98150
1655.37092	0.98139
1653.31711	0.98128
1651.26330	0.98117
1649.20949	0.98115
1647.15568	0.98108
1645.10187	0.98094
1643.04806	0.98067
1640.99425	0.98046
1638.94044	0.98051
1636.88663	0.98066
1634.83282	0.98086
1632.77901	0.98101
1630.72520	0.98092
1628.67139	0.98079
1626.61758	0.98090
1624.56377	0.98102
1622.50996	0.98093
1620.45614	0.98079
1618.40233	0.98080
1616.34852	0.98104
1614.29471	0.98136
1612.24090	0.98147
1610.18709	0.98149
1608.13328	0.98151
1606.07947	0.98137
1604.02566	0.98108
1601.97185	0.98086
1599.91804	0.98087
1597.86423	0.98102
1595.81042	0.98108
1593.75661	0.98097
1591.70280	0.98081
1589.64899	0.98077
1587.59518	0.98091
1585.54137	0.98099
1583.48756	0.98087
1581.43375	0.98082
1579.37994	0.98083
1577.32613	0.98072
1575.27232	0.98053
1573.21851	0.98043
1571.16470	0.98044
1569.11089	0.98050
1567.05708	0.98048
1565.00327	0.98042
1562.94946	0.98044
1560.89565	0.98064
1558.84184	0.98051
1556.78803	0.97970
1554.73422	0.97913
1552.68041	0.97869
1550.62660	0.97833
1548.57279	0.97802
1546.51898	0.97775
1544.46517	0.97743
1542.41136	0.97716
1540.35755	0.97690
1538.30374	0.97679
1536.24993	0.97683
1534.19612	0.97666
1532.14231	0.97616
1530.08850	0.97569
1528.03469	0.97549
1525.98088	0.97548
1523.92707	0.97570
1521.87326	0.97571
1519.81945	0.97501
1517.76564	0.97405
1515.71183	0.97338
1513.65802	0.97313
1511.60421	0.97320
1509.55040	0.97345
1507.49659	0.97307
1505.44278	0.97184
1503.38897	0.97111
1501.33516	0.97062
1499.28135	0.96991
1497.22754	0.96910
1495.17373	0.96819
1493.11992	0.96725
1491.06611	0.96582
1489.01230	0.96357
1486.95849	0.96102
1484.90468	0.95792
1482.85087	0.95294
1480.79706	0.94381
1478.74325	0.92370
1476.68944	0.87347
1474.63563	0.78101
1472.58182	0.69561
1470.52801	0.69097
1468.47420	0.72562
1466.42039	0.74418
1464.36658	0.73678
1462.31277	0.74218
1460.25896	0.78373
1458.20515	0.84446
1456.15134	0.89174
1454.09753	0.91149
1452.04372	0.92250
1449.98991	0.93092
1447.93610	0.93670
1445.88229	0.94050
1443.82848	0.94315
1441.77467	0.94535
1439.72086	0.94732
1437.66705	0.94949
1435.61324	0.95214
1433.55943	0.95476
1431.50562	0.95752
1429.45181	0.96028
1427.39800	0.96261
1425.34419	0.96463
1423.29038	0.96636
1421.23657	0.96761
1419.18276	0.96872
1417.12895	0.96953
1415.07514	0.97001
1413.02133	0.97051
1410.96752	0.97117
1408.91371	0.97191
1406.85990	0.97268
1404.80609	0.97370
1402.75228	0.97481
1400.69847	0.97574
1398.64466	0.97648
1396.59085	0.97704
1394.53704	0.97728
1392.48323	0.97727
1390.42942	0.97721
1388.37561	0.97711
1386.32180	0.97675
1384.26799	0.97588
1382.21418	0.97440
1380.16037	0.97238
1378.10656	0.97050
1376.05275	0.96954
1373.99894	0.96928
1371.94513	0.96877
1369.89132	0.96816
1367.83751	0.96834
1365.78370	0.96937
1363.72989	0.97068
1361.67608	0.97190
1359.62227	0.97258
1357.56846	0.97279
1355.51465	0.97280
1353.46084	0.97276
1351.40703	0.97299
1349.35322	0.97364
1347.29941	0.97450
1345.24560	0.97515
1343.19179	0.97560
1341.13798	0.97621
1339.08417	0.97725
1337.03036	0.97828
1334.97655	0.97880
1332.92274	0.97905
1330.86893	0.97924
1328.81512	0.97927
1326.76130	0.97920
1324.70749	0.97911
1322.65368	0.97887
1320.59987	0.97852
1318.54606	0.97812
1316.49225	0.97762
1314.43844	0.97709
1312.38463	0.97662
1310.33082	0.97613
1308.27701	0.97565
1306.22320	0.97528
1304.16939	0.97513
1302.11558	0.97518
1300.06177	0.97519
1298.00796	0.97514
1295.95415	0.97535
1293.90034	0.97597
1291.84653	0.97663
1289.79272	0.97698
1287.73891	0.97711
1285.68510	0.97731
1283.63129	0.97759
1281.57748	0.97785
1279.52367	0.97819
1277.46986	0.97846
1275.41605	0.97847
1273.36224	0.97846
1271.30843	0.97850
1269.25462	0.97850
1267.20081	0.97859
1265.14700	0.97885
1263.09319	0.97902
1261.03938	0.97904
1258.98557	0.97898
1256.93176	0.97892
1254.87795	0.97891
1252.82414	0.97891
1250.77033	0.97891
1248.71652	0.97895
1246.66271	0.97895
1244.60890	0.97900
1242.55509	0.97914
1240.50128	0.97923
1238.44747	0.97929
1236.39366	0.97944
1234.33985	0.97946
1232.28604	0.97942
1230.23223	0.97950
1228.17842	0.97944
1226.12461	0.97916
1224.07080	0.97896
1222.01699	0.97905
1219.96318	0.97926
1217.90937	0.97934
1215.85556	0.97939
1213.80175	0.97954
1211.74794	0.97962
1209.69413	0.97944
1207.64032	0.97922
1205.58651	0.97924
1203.53270	0.97934
1201.47889	0.97935
1199.42508	0.97942
1197.37127	0.97943
1195.31746	0.97923
1193.26365	0.97901
1191.20984	0.97893
1189.15603	0.97894
1187.10222	0.97877
1185.04841	0.97840
1182.99460	0.97799
1180.94079	0.97751
1178.88698	0.97696
1176.83317	0.97645
1174.77936	0.97613
1172.72555	0.97600
1170.67174	0.97585
1168.61793	0.97568
1166.56412	0.97570
1164.51031	0.97582
1162.45650	0.97587
1160.40269	0.97581
1158.34888	0.97566
1156.29507	0.97548
1154.24126	0.97536
1152.18745	0.97531
1150.13364	0.97517
1148.07983	0.97497
1146.02602	0.97492
1143.97221	0.97493
1141.91840	0.97481
1139.86459	0.97457
1137.81078	0.97409
1135.75697	0.97345
1133.70316	0.97303
1131.64935	0.97261
1129.59554	0.97203
1127.54173	0.97145
1125.48792	0.97077
1123.43411	0.97020
1121.38030	0.96998
1119.32649	0.96963
1117.27268	0.96873
1115.21887	0.96772
1113.16506	0.96705
1111.11125	0.96673
1109.05744	0.96661
1107.00363	0.96638
1104.94982	0.96578
1102.89601	0.96500
1100.84220	0.96435
1098.78839	0.96394
1096.73458	0.96366
1094.68077	0.96322
1092.62696	0.96261
1090.57315	0.96201
1088.51934	0.96127
1086.46553	0.96045
1084.41172	0.95999
1082.35791	0.95989
1080.30410	0.95973
1078.25029	0.95950
1076.19648	0.95953
1074.14267	0.95970
1072.08886	0.95973
1070.03505	0.95976
1067.98124	0.95964
1065.92743	0.95913
1063.87362	0.95872
1061.81981	0.95863
1059.76600	0.95858
1057.71219	0.95850
1055.65838	0.95814
1053.60457	0.95745
1051.55076	0.95684
1049.49695	0.95638
1047.44314	0.95602
1045.38933	0.95573
1043.33552	0.95538
1041.28171	0.95522
1039.22790	0.95546
1037.17409	0.95571
1035.12028	0.95561
1033.06647	0.95565
1031.01265	0.95600
1028.95884	0.95620
1026.90503	0.95644
1024.85122	0.95717
1022.79741	0.95786
1020.74360	0.95813
1018.68979	0.95850
1016.63598	0.95917
1014.58217	0.95979
1012.52836	0.96021
1010.47455	0.96052
1008.42074	0.96102
1006.36693	0.96189
1004.31312	0.96281
1002.25931	0.96346
1000.20550	0.96408
998.15169	0.96480
996.09788	0.96557
994.04407	0.96643
991.99026	0.96732
989.93645	0.96828
987.88264	0.96928
985.82883	0.97007
983.77502	0.97070
981.72121	0.97143
979.66740	0.97221
977.61359	0.97284
975.55978	0.97324
973.50597	0.97370
971.45216	0.97432
969.39835	0.97482
967.34454	0.97512
965.29073	0.97545
963.23692	0.97590
961.18311	0.97635
959.12930	0.97658
957.07549	0.97662
955.02168	0.97683
952.96787	0.97724
950.91406	0.97755
948.86025	0.97752
946.80644	0.97719
944.75263	0.97687
942.69882	0.97675
940.64501	0.97684
938.59120	0.97704
936.53739	0.97717
934.48358	0.97728
932.42977	0.97728
930.37596	0.97711
928.32215	0.97711
926.26834	0.97731
924.21453	0.97739
922.16072	0.97716
920.10691	0.97674
918.05310	0.97654
915.99929	0.97650
913.94548	0.97598
911.89167	0.97494
909.83786	0.97428
907.78405	0.97464
905.73024	0.97576
903.67643	0.97726
901.62262	0.97866
899.56881	0.97938
897.51500	0.97943
895.46119	0.97915
893.40738	0.97869
891.35357	0.97832
889.29976	0.97832
887.24595	0.97856
885.19214	0.97842
883.13833	0.97785
881.08452	0.97751
879.03071	0.97734
876.97690	0.97692
874.92309	0.97671
872.86928	0.97725
870.81547	0.97800
868.76166	0.97839
866.70785	0.97854
864.65404	0.97853
862.60023	0.97830
860.54642	0.97779
858.49261	0.97734
856.43880	0.97761
854.38499	0.97844
852.33118	0.97933
850.27737	0.98019
848.22356	0.98064
846.16975	0.98042
844.11594	0.98002
842.06213	0.97995
840.00832	0.98000
837.95451	0.97992
835.90070	0.98007
833.84689	0.98038
831.79308	0.98021
829.73927	0.97962
827.68546	0.97949
825.63165	0.97969
823.57784	0.97948
821.52403	0.97899
819.47022	0.97887
817.41641	0.97920
815.36260	0.97904
813.30879	0.97831
811.25498	0.97818
809.20117	0.97876
807.14736	0.97900
805.09355	0.97851
803.03974	0.97792
800.98593	0.97761
798.93212	0.97766
796.87831	0.97817
794.82450	0.97867
792.77069	0.97874
790.71688	0.97851
788.66307	0.97824
786.60926	0.97789
784.55545	0.97731
782.50164	0.97703
780.44783	0.97731
778.39402	0.97698
776.34021	0.97583
774.28640	0.97547
772.23259	0.97620
770.17878	0.97662
768.12497	0.97628
766.07116	0.97574
764.01735	0.97533
761.96354	0.97512
759.90973	0.97540
757.85592	0.97565
755.80211	0.97492
753.74830	0.97335
751.69449	0.97187
749.64068	0.97065
747.58687	0.96944
745.53306	0.96814
743.47925	0.96666
741.42544	0.96438
739.37163	0.95985
737.31781	0.95020
735.26400	0.92674
733.21019	0.87817
731.15638	0.82250
729.10257	0.80417
727.04876	0.82236
724.99495	0.82912
722.94114	0.79381
720.88733	0.72307
718.83352	0.66216
716.77971	0.66019
714.72590	0.71976
712.67209	0.80269
710.61828	0.86783
708.56447	0.90493
706.51066	0.92486
704.45685	0.93657
702.40304	0.94392
700.34923	0.94908
698.29542	0.95294
696.24161	0.95544
694.18780	0.95729
692.13399	0.95932
690.08018	0.96098
688.02637	0.96159
685.97256	0.96197
683.91875	0.96296
681.86494	0.96423
679.81113	0.96496
677.75732	0.96475
675.70351	0.96411
673.64970	0.96405
671.59589	0.96474
669.54208	0.96588
667.48827	0.96721
665.43446	0.96772
663.38065	0.96783
661.32684	0.96817
659.27303	0.96881
657.21922	0.96924
655.16541	0.96940
653.11160	0.96965
651.05779	0.96997
649.00398	0.97026
646.95017	0.97051
644.89636	0.97031
642.84255	0.96963
640.78874	0.96888
638.73493	0.96842
636.68112	0.96833
634.62731	0.96861
632.57350	0.96949
630.51969	0.97051
628.46588	0.97043
626.41207	0.96944
624.35826	0.96897
622.30445	0.96930
620.25064	0.96992
618.19683	0.97014
616.14302	0.97028
614.08921	0.97059
612.03540	0.97026
609.98159	0.96949
607.92778	0.96927
605.87397	0.97007
603.82016	0.97066
601.76635	0.97010
599.71254	0.96945
597.65873	0.96945
595.60492	0.96958
593.55111	0.96966
591.49730	0.96994
589.44349	0.97003
587.38968	0.96982
585.33587	0.96965
583.28206	0.96929
581.22825	0.96863
579.17444	0.96831
577.12063	0.96830
575.06682	0.96792
573.01301	0.96698
570.95920	0.96623
568.90539	0.96577
566.85158	0.96504
564.79777	0.96477
562.74396	0.96552
560.69015	0.96651
558.63634	0.96629
556.58253	0.96517
554.52872	0.96487
552.47491	0.96537
550.42110	0.96509
548.36729	0.96377
546.31348	0.96282
544.25967	0.96258
542.20586	0.96253
540.15205	0.96306
538.09824	0.96373
536.04443	0.96317
533.99062	0.96212
531.93681	0.96189
529.88300	0.96192
527.82919	0.96200
525.77538	0.96284
523.72157	0.96339
521.66776	0.96214
519.61395	0.96083
517.56014	0.96139
515.50633	0.96246
513.45252	0.96339
511.39871	0.96491
509.34490	0.96581
507.29109	0.96535
505.23728	0.96461
503.18347	0.96368
501.12966	0.96304
499.07585	0.96423
497.02204	0.96592
494.96823	0.96611
492.91442	0.96544
490.86061	0.96493
488.80680	0.96467
486.75299	0.96408
484.69918	0.96230
482.64537	0.95978
480.59156	0.95868
478.53775	0.95953
476.48394	0.96029
474.43013	0.95940
472.37632	0.95717
470.32251	0.95542
468.26870	0.95547
466.21489	0.95581
464.16108	0.95546
462.10727	0.95734
460.05346	0.96138
457.99965	0.96255
455.94584	0.96069
453.89203	0.95986
451.83822	0.96042
449.78441	0.96203
447.73060	0.96408
445.67679	0.96482
443.62298	0.96413
441.56916	0.96307
439.51535	0.96232
437.46154	0.96243
435.40773	0.96324
433.35392	0.96386
431.30011	0.96391
429.24630	0.96336
427.19249	0.96275
425.13868	0.96253
423.08487	0.96249
421.03106	0.96220
418.97725	0.96061
416.92344	0.96087
414.86963	0.96521
412.81582	0.97088
410.76201	0.97414
408.70820	0.97219
406.65439	0.96841
404.60058	0.96758
402.54677	0.96688
400.49296	0.96172
398.43915	0.95778
