3996.70104	0.99060
3994.64724	0.99045
3992.59344	0.98943
3990.53964	0.98828
3988.48583	0.98815
3986.43203	0.98895
3984.37823	0.98955
3982.32442	0.98957
3980.27062	0.98951
3978.21682	0.98956
3976.16301	0.98955
3974.10921	0.98961
3972.05541	0.98996
3970.00160	0.99020
3967.94780	0.99020
3965.89400	0.99035
3963.84019	0.99023
3961.78639	0.98944
3959.73259	0.98911
3957.67878	0.98949
3955.62498	0.98964
3953.57118	0.98978
3951.51737	0.99014
3949.46357	0.99053
3947.40977	0.99048
3945.35596	0.98995
3943.30216	0.98955
3941.24836	0.98935
3939.19455	0.98908
3937.14075	0.98896
3935.08695	0.98927
3933.03315	0.98959
3930.97934	0.98952
3928.92554	0.98942
3926.87174	0.98959
3924.81793	0.98993
3922.76413	0.99017
3920.71033	0.99000
3918.65652	0.98933
3916.60272	0.98924
3914.54892	0.99011
3912.49511	0.99052
3910.44131	0.99017
3908.38751	0.98978
3906.33370	0.98957
3904.27990	0.98967
3902.22610	0.98998
3900.17229	0.98977
3898.11849	0.98920
3896.06469	0.98913
3894.01088	0.98964
3891.95708	0.99000
3889.90328	0.98947
3887.84947	0.98894
3885.79567	0.98902
3883.74187	0.98905
3881.68807	0.98872
3879.63426	0.98874
3877.58046	0.98909
3875.52666	0.98892
3873.47285	0.98877
3871.41905	0.98941
3869.36525	0.98980
3867.31144	0.98963
3865.25764	0.98957
3863.20384	0.98938
3861.15003	0.98936
3859.09623	0.99022
3857.04243	0.99159
3854.98862	0.99201
3852.93482	0.99012
3850.88102	0.98899
3848.82721	0.98943
3846.77341	0.98999
3844.71961	0.99045
3842.66580	0.99054
3840.61200	0.98997
3838.55820	0.98957
3836.50439	0.98965
3834.45059	0.98997
3832.39679	0.99047
3830.34298	0.99046
3828.28918	0.99029
3826.23538	0.99008
3824.18158	0.98955
3822.12777	0.98929
3820.07397	0.98913
3818.02017	0.98948
3815.96636	0.99031
3813.91256	0.99003
3811.85876	0.98922
3809.80495	0.98914
3807.75115	0.98943
3805.69735	0.98950
3803.64354	0.98956
3801.58974	0.98940
3799.53594	0.98852
3797.48213	0.98792
3795.42833	0.98890
3793.37453	0.99023
3791.32072	0.99067
3789.26692	0.99073
3787.21312	0.99045
3785.15931	0.98987
3783.10551	0.98930
3781.05171	0.98918
3778.99790	0.99003
3776.94410	0.99052
3774.89030	0.98980
3772.83650	0.98923
3770.78269	0.98945
3768.72889	0.99011
3766.67509	0.99053
3764.62128	0.99012
3762.56748	0.98955
3760.51368	0.98935
3758.45987	0.98943
3756.40607	0.99015
3754.35227	0.99073
3752.29846	0.99023
3750.24466	0.98986
3748.19086	0.99017
3746.13705	0.98969
3744.08325	0.98940
3742.02945	0.99029
3739.97564	0.99073
3737.92184	0.99054
3735.86804	0.98992
3733.81423	0.98890
3731.76043	0.98880
3729.70663	0.98962
3727.65282	0.98986
3725.59902	0.98910
3723.54522	0.98871
3721.49141	0.98909
3719.43761	0.98892
3717.38381	0.98849
3715.33001	0.98875
3713.27620	0.98912
3711.22240	0.98888
3709.16860	0.98822
3707.11479	0.98728
3705.06099	0.98652
3703.00719	0.98640
3700.95338	0.98658
3698.89958	0.98663
3696.84578	0.98684
3694.79197	0.98709
3692.73817	0.98662
3690.68437	0.98576
3688.63056	0.98592
3686.57676	0.98663
3684.52296	0.98706
3682.46915	0.98747
3680.41535	0.98780
3678.36155	0.98725
3676.30774	0.98557
3674.25394	0.98535
3672.20014	0.98704
3670.14633	0.98752
3668.09253	0.98590
3666.03873	0.98454
3663.98492	0.98395
3661.93112	0.98317
3659.87732	0.98219
3657.82352	0.98188
3655.76971	0.98167
3653.71591	0.98089
3651.66211	0.98009
3649.60830	0.97872
3647.55450	0.97726
3645.50070	0.97707
3643.44689	0.97658
3641.39309	0.97497
3639.33929	0.97309
3637.28548	0.97198
3635.23168	0.97174
3633.17788	0.97197
3631.12407	0.97204
3629.07027	0.97038
3627.01647	0.96796
3624.96266	0.96779
3622.90886	0.96854
3620.85506	0.96841
3618.80125	0.96732
3616.74745	0.96699
3614.69365	0.96750
3612.63984	0.96771
3610.58604	0.96770
3608.53224	0.96775
3606.47844	0.96806
3604.42463	0.96909
3602.37083	0.97042
3600.31703	0.97150
3598.26322	0.97268
3596.20942	0.97407
3594.15562	0.97529
3592.10181	0.97627
3590.04801	0.97677
3587.99421	0.97701
3585.94040	0.97755
3583.88660	0.97808
3581.83280	0.97895
3579.77899	0.98059
3577.72519	0.98208
3575.67139	0.98276
3573.61758	0.98296
3571.56378	0.98291
3569.50998	0.98282
3567.45617	0.98290
3565.40237	0.98311
3563.34857	0.98348
3561.29476	0.98399
3559.24096	0.98441
3557.18716	0.98465
3555.13335	0.98490
3553.07955	0.98517
3551.02575	0.98499
3548.97195	0.98466
3546.91814	0.98495
3544.86434	0.98523
3542.81054	0.98499
3540.75673	0.98493
3538.70293	0.98501
3536.64913	0.98510
3534.59532	0.98529
3532.54152	0.98541
3530.48772	0.98557
3528.43391	0.98570
3526.38011	0.98567
3524.32631	0.98567
3522.27250	0.98567
3520.21870	0.98575
3518.16490	0.98563
3516.11109	0.98508
3514.05729	0.98461
3512.00349	0.98432
3509.94968	0.98440
3507.89588	0.98525
3505.84208	0.98578
3503.78827	0.98521
3501.73447	0.98461
3499.68067	0.98491
3497.62687	0.98532
3495.57306	0.98516
3493.51926	0.98503
3491.46546	0.98499
3489.41165	0.98451
3487.35785	0.98429
3485.30405	0.98477
3483.25024	0.98548
3481.19644	0.98568
3479.14264	0.98503
3477.08883	0.98444
3475.03503	0.98459
3472.98123	0.98504
3470.92742	0.98527
3468.87362	0.98492
3466.81982	0.98415
3464.76601	0.98376
3462.71221	0.98375
3460.65841	0.98373
3458.60460	0.98395
3456.55080	0.98433
3454.49700	0.98445
3452.44319	0.98447
3450.38939	0.98457
3448.33559	0.98437
3446.28178	0.98401
3444.22798	0.98411
3442.17418	0.98418
3440.12038	0.98403
3438.06657	0.98471
3436.01277	0.98569
3433.95897	0.98518
3431.90516	0.98417
3429.85136	0.98434
3427.79756	0.98485
3425.74375	0.98502
3423.68995	0.98499
3421.63615	0.98479
3419.58234	0.98449
3417.52854	0.98433
3415.47474	0.98467
3413.42093	0.98515
3411.36713	0.98526
3409.31333	0.98505
3407.25952	0.98439
3405.20572	0.98390
3403.15192	0.98443
3401.09811	0.98524
3399.04431	0.98545
3396.99051	0.98534
3394.93670	0.98515
3392.88290	0.98455
3390.82910	0.98378
3388.77529	0.98372
3386.72149	0.98453
3384.66769	0.98516
3382.61389	0.98485
3380.56008	0.98444
3378.50628	0.98445
3376.45248	0.98443
3374.39867	0.98440
3372.34487	0.98463
3370.29107	0.98478
3368.23726	0.98437
3366.18346	0.98371
3364.12966	0.98357
3362.07585	0.98409
3360.02205	0.98488
3357.96825	0.98510
3355.91444	0.98466
3353.86064	0.98443
3351.80684	0.98456
3349.75303	0.98457
3347.69923	0.98441
3345.64543	0.98447
3343.59162	0.98493
3341.53782	0.98495
3339.48402	0.98440
3337.43021	0.98424
3335.37641	0.98438
3333.32261	0.98451
3331.26881	0.98494
3329.21500	0.98516
3327.16120	0.98511
3325.10740	0.98541
3323.05359	0.98577
3320.99979	0.98576
3318.94599	0.98529
3316.89218	0.98511
3314.83838	0.98549
3312.78458	0.98541
3310.73077	0.98484
3308.67697	0.98450
3306.62317	0.98465
3304.56936	0.98527
3302.51556	0.98578
3300.46176	0.98584
3298.40795	0.98557
3296.35415	0.98510
3294.30035	0.98473
3292.24654	0.98463
3290.19274	0.98444
3288.13894	0.98418
3286.08513	0.98434
3284.03133	0.98494
3281.97753	0.98560
3279.92372	0.98598
3277.86992	0.98607
3275.81612	0.98578
3273.76232	0.98523
3271.70851	0.98501
3269.65471	0.98491
3267.60091	0.98476
3265.54710	0.98480
3263.49330	0.98492
3261.43950	0.98514
3259.38569	0.98521
3257.33189	0.98480
3255.27809	0.98431
3253.22428	0.98467
3251.17048	0.98563
3249.11668	0.98579
3247.06287	0.98530
3245.00907	0.98524
3242.95527	0.98554
3240.90146	0.98515
3238.84766	0.98419
3236.79386	0.98403
3234.74005	0.98470
3232.68625	0.98538
3230.63245	0.98597
3228.57864	0.98642
3226.52484	0.98648
3224.47104	0.98621
3222.41724	0.98609
3220.36343	0.98616
3218.30963	0.98605
3216.25583	0.98599
3214.20202	0.98599
3212.14822	0.98608
3210.09442	0.98647
3208.04061	0.98648
3205.98681	0.98605
3203.93301	0.98593
3201.87920	0.98630
3199.82540	0.98680
3197.77160	0.98687
3195.71779	0.98681
3193.66399	0.98688
3191.61019	0.98673
3189.55638	0.98655
3187.50258	0.98678
3185.44878	0.98686
3183.39497	0.98649
3181.34117	0.98639
3179.28737	0.98668
3177.23356	0.98676
3175.17976	0.98644
3173.12596	0.98612
3171.07215	0.98592
3169.01835	0.98570
3166.96455	0.98578
3164.91075	0.98612
3162.85694	0.98630
3160.80314	0.98648
3158.74934	0.98687
3156.69553	0.98700
3154.64173	0.98668
3152.58793	0.98651
3150.53412	0.98663
3148.48032	0.98663
3146.42652	0.98693
3144.37271	0.98767
3142.31891	0.98780
3140.26511	0.98734
3138.21130	0.98721
3136.15750	0.98735
3134.10370	0.98737
3132.04989	0.98729
3129.99609	0.98718
3127.94229	0.98706
3125.88848	0.98700
3123.83468	0.98718
3121.78088	0.98736
3119.72707	0.98718
3117.67327	0.98709
3115.61947	0.98738
3113.56566	0.98750
3111.51186	0.98730
3109.45806	0.98726
3107.40426	0.98736
3105.35045	0.98727
3103.29665	0.98717
3101.24285	0.98734
3099.18904	0.98739
3097.13524	0.98721
3095.08144	0.98725
3093.02763	0.98734
3090.97383	0.98749
3088.92003	0.98790
3086.86622	0.98825
3084.81242	0.98856
3082.75862	0.98885
3080.70481	0.98876
3078.65101	0.98832
3076.59721	0.98811
3074.54340	0.98831
3072.48960	0.98831
3070.43580	0.98818
3068.38199	0.98830
3066.32819	0.98848
3064.27439	0.98847
3062.22058	0.98826
3060.16678	0.98824
3058.11298	0.98838
3056.05918	0.98827
3054.00537	0.98828
3051.95157	0.98856
3049.89777	0.98862
3047.84396	0.98877
3045.79016	0.98919
3043.73636	0.98911
3041.68255	0.98877
3039.62875	0.98861
3037.57495	0.98842
3035.52114	0.98822
3033.46734	0.98819
3031.41354	0.98863
3029.35973	0.98924
3027.30593	0.98915
3025.25213	0.98855
3023.19832	0.98815
3021.14452	0.98819
3019.09072	0.98869
3017.03691	0.98908
3014.98311	0.98916
3012.92931	0.98935
3010.87550	0.98949
3008.82170	0.98956
3006.76790	0.98957
3004.71409	0.98919
3002.66029	0.98896
3000.60649	0.98902
2998.55269	0.98912
2996.49888	0.98966
2994.44508	0.99003
2992.39128	0.98986
2990.33747	0.98989
2988.28367	0.99018
2986.22987	0.99026
2984.17606	0.99003
2982.12226	0.98991
2980.06846	0.99021
2978.01465	0.99050
2975.96085	0.99050
2973.90705	0.99048
2971.85324	0.99047
2969.79944	0.99046
2967.74564	0.99052
2965.69183	0.99075
2963.63803	0.99107
2961.58423	0.99129
2959.53042	0.99146
2957.47662	0.99129
2955.42282	0.99085
2953.36901	0.99107
2951.31521	0.99177
2949.26141	0.99167
2947.20761	0.99114
2945.15380	0.99141
2943.10000	0.99203
2941.04620	0.99197
2938.99239	0.99173
2936.93859	0.99206
2934.88479	0.99224
2932.83098	0.99223
2930.77718	0.99272
2928.72338	0.99327
2926.66957	0.99346
2924.61577	0.99377
2922.56197	0.99433
2920.50816	0.99455
2918.45436	0.99422
2916.40056	0.99382
2914.34675	0.99362
2912.29295	0.99337
2910.23915	0.99309
2908.18534	0.99290
2906.13154	0.99249
2904.07774	0.99199
2902.02393	0.99182
2899.97013	0.99176
2897.91633	0.99163
2895.86252	0.99134
2893.80872	0.99068
2891.75492	0.99029
2889.70112	0.99073
2887.64731	0.99106
2885.59351	0.99049
2883.53971	0.98996
2881.48590	0.99036
2879.43210	0.99069
2877.37830	0.99032
2875.32449	0.99024
2873.27069	0.99080
2871.21689	0.99123
2869.16308	0.99124
2867.10928	0.99136
2865.05548	0.99174
2863.00167	0.99191
2860.94787	0.99200
2858.89407	0.99239
2856.84026	0.99270
2854.78646	0.99268
2852.73266	0.99247
2850.67885	0.99200
2848.62505	0.99144
2846.57125	0.99104
2844.51744	0.99067
2842.46364	0.99047
2840.40984	0.99079
2838.35603	0.99121
2836.30223	0.99106
2834.24843	0.99062
2832.19463	0.99047
2830.14082	0.99041
2828.08702	0.98998
2826.03322	0.98962
2823.97941	0.98991
2821.92561	0.99042
2819.87181	0.99041
2817.81800	0.98994
2815.76420	0.98974
2813.71040	0.98986
2811.65659	0.98995
2809.60279	0.99022
2807.54899	0.99044
2805.49518	0.99044
2803.44138	0.99063
2801.38758	0.99078
2799.33377	0.99066
2797.27997	0.99059
2795.22617	0.99078
2793.17236	0.99095
2791.11856	0.99067
2789.06476	0.99037
2787.01095	0.99044
2784.95715	0.99055
2782.90335	0.99073
2780.84955	0.99076
2778.79574	0.99041
2776.74194	0.99037
2774.68814	0.99076
2772.63433	0.99080
2770.58053	0.99039
2768.52673	0.98992
2766.47292	0.98978
2764.41912	0.99016
2762.36532	0.99050
2760.31151	0.99048
2758.25771	0.99030
2756.20391	0.99018
2754.15010	0.99037
2752.09630	0.99094
2750.04250	0.99142
2747.98869	0.99144
2745.93489	0.99137
2743.88109	0.99143
2741.82728	0.99128
2739.77348	0.99103
2737.71968	0.99105
2735.66587	0.99100
2733.61207	0.99093
2731.55827	0.99113
2729.50446	0.99113
2727.45066	0.99073
2725.39686	0.99044
2723.34306	0.99057
2721.28925	0.99056
2719.23545	0.99026
2717.18165	0.99051
2715.12784	0.99110
2713.07404	0.99120
2711.02024	0.99106
2708.96643	0.99094
2706.91263	0.99058
2704.85883	0.99053
2702.80502	0.99111
2700.75122	0.99161
2698.69742	0.99137
2696.64361	0.99085
2694.58981	0.99076
2692.53601	0.99095
2690.48220	0.99090
2688.42840	0.99056
2686.37460	0.99043
2684.32079	0.99087
2682.26699	0.99143
2680.21319	0.99161
2678.15938	0.99139
2676.10558	0.99083
2674.05178	0.99048
2671.99797	0.99061
2669.94417	0.99076
2667.89037	0.99098
2665.83657	0.99128
2663.78276	0.99105
2661.72896	0.99060
2659.67516	0.99057
2657.62135	0.99058
2655.56755	0.99032
2653.51375	0.99007
2651.45994	0.99017
2649.40614	0.99038
2647.35234	0.99025
2645.29853	0.99013
2643.24473	0.99010
2641.19093	0.98983
2639.13712	0.98952
2637.08332	0.98940
2635.02952	0.98941
2632.97571	0.98955
2630.92191	0.98972
2628.86811	0.98985
2626.81430	0.98993
2624.76050	0.99017
2622.70670	0.99073
2620.65289	0.99075
2618.59909	0.99027
2616.54529	0.99013
2614.49149	0.99028
2612.43768	0.99044
2610.38388	0.99078
2608.33008	0.99119
2606.27627	0.99113
2604.22247	0.99097
2602.16867	0.99121
2600.11486	0.99119
2598.06106	0.99096
2596.00726	0.99130
2593.95345	0.99158
2591.89965	0.99147
2589.84585	0.99167
2587.79204	0.99199
2585.73824	0.99199
2583.68444	0.99177
2581.63063	0.99140
2579.57683	0.99100
2577.52303	0.99087
2575.46922	0.99127
2573.41542	0.99177
2571.36162	0.99161
2569.30781	0.99120
2567.25401	0.99115
2565.20021	0.99113
2563.14640	0.99119
2561.09260	0.99140
2559.03880	0.99147
2556.98500	0.99143
2554.93119	0.99124
2552.87739	0.99104
2550.82359	0.99093
2548.76978	0.99073
2546.71598	0.99077
2544.66218	0.99108
2542.60837	0.99135
2540.55457	0.99137
2538.50077	0.99120
2536.44696	0.99094
2534.39316	0.99049
2532.33936	0.99070
2530.28555	0.99147
2528.23175	0.99146
2526.17795	0.99116
2524.12414	0.99165
2522.07034	0.99212
2520.01654	0.99212
2517.96273	0.99258
2515.90893	0.99324
2513.85513	0.99345
2511.80132	0.99342
2509.74752	0.99328
2507.69372	0.99313
2505.63992	0.99282
2503.58611	0.99228
2501.53231	0.99199
2499.47851	0.99171
2497.42470	0.99164
2495.37090	0.99207
2493.31710	0.99212
2491.26329	0.99203
2489.20949	0.99251
2487.15569	0.99319
2485.10188	0.99313
2483.04808	0.99235
2480.99428	0.99205
2478.94047	0.99188
2476.88667	0.99147
2474.83287	0.99195
2472.77906	0.99274
2470.72526	0.99235
2468.67146	0.99184
2466.61765	0.99220
2464.56385	0.99250
2462.51005	0.99255
2460.45624	0.99255
2458.40244	0.99224
2456.34864	0.99162
2454.29483	0.99145
2452.24103	0.99191
2450.18723	0.99218
2448.13343	0.99260
2446.07962	0.99317
2444.02582	0.99282
2441.97202	0.99229
2439.91821	0.99250
2437.86441	0.99265
2435.81061	0.99219
2433.75680	0.99156
2431.70300	0.99117
2429.64920	0.99090
2427.59539	0.99073
2425.54159	0.99136
2423.48779	0.99280
2421.43398	0.99370
2419.38018	0.99382
2417.32638	0.99373
2415.27257	0.99353
2413.21877	0.99325
2411.16497	0.99287
2409.11116	0.99270
2407.05736	0.99277
2405.00356	0.99323
2402.94975	0.99427
2400.89595	0.99473
2398.84215	0.99396
2396.78834	0.99320
2394.73454	0.99303
2392.68074	0.99312
2390.62694	0.99357
2388.57313	0.99408
2386.51933	0.99402
2384.46553	0.99336
2382.41172	0.99271
2380.35792	0.99243
2378.30412	0.99226
2376.25031	0.99273
2374.19651	0.99371
2372.14271	0.99379
2370.08890	0.99382
2368.03510	0.99381
2365.98130	0.99267
2363.92749	0.99222
2361.87369	0.99316
2359.81989	0.99426
2357.76608	0.99414
2355.71228	0.99213
2353.65848	0.99092
2351.60467	0.99158
2349.55087	0.99187
2347.49707	0.99172
2345.44326	0.99206
2343.38946	0.99209
2341.33566	0.99140
2339.28186	0.99127
2337.22805	0.99162
2335.17425	0.99146
2333.12045	0.99157
2331.06664	0.99226
2329.01284	0.99200
2326.95904	0.99085
2324.90523	0.98986
2322.85143	0.98930
2320.79763	0.98931
2318.74382	0.98998
2316.69002	0.99072
2314.63622	0.99090
2312.58241	0.99111
2310.52861	0.99217
2308.47481	0.99291
2306.42100	0.99225
2304.36720	0.99172
2302.31340	0.99181
2300.25959	0.99125
2298.20579	0.99073
2296.15199	0.99105
2294.09818	0.99118
2292.04438	0.99099
2289.99058	0.99107
2287.93677	0.99111
2285.88297	0.99074
2283.82917	0.99055
2281.77537	0.99120
2279.72156	0.99148
2277.66776	0.99060
2275.61396	0.99029
2273.56015	0.99100
2271.50635	0.99150
2269.45255	0.99191
2267.39874	0.99274
2265.34494	0.99387
2263.29114	0.99418
2261.23733	0.99356
2259.18353	0.99335
2257.12973	0.99314
2255.07592	0.99315
2253.02212	0.99383
2250.96832	0.99360
2248.91451	0.99243
2246.86071	0.99252
2244.80691	0.99489
2242.75310	0.99640
2240.69930	0.99507
2238.64550	0.99444
2236.59169	0.99483
2234.53789	0.99344
2232.48409	0.99239
2230.43029	0.99327
2228.37648	0.99330
2226.32268	0.99181
2224.26888	0.99103
2222.21507	0.99151
2220.16127	0.99145
2218.10747	0.99123
2216.05366	0.99176
2213.99986	0.99102
2211.94606	0.99072
2209.89225	0.99301
2207.83845	0.99369
2205.78465	0.99179
2203.73084	0.99083
2201.67704	0.99099
2199.62324	0.99058
2197.56943	0.99078
2195.51563	0.99306
2193.46183	0.99420
2191.40802	0.99273
2189.35422	0.99251
2187.30042	0.99399
2185.24661	0.99338
2183.19281	0.99217
2181.13901	0.99325
2179.08520	0.99403
2177.03140	0.99543
2174.97760	0.99798
2172.92380	0.99685
2170.86999	0.99267
2168.81619	0.99089
2166.76239	0.99320
2164.70858	0.99504
2162.65478	0.99341
2160.60098	0.99311
2158.54717	0.99584
2156.49337	0.99757
2154.43957	0.99900
2152.38576	0.99976
2150.33196	0.99877
2148.27816	0.99729
2146.22435	0.99541
2144.17055	0.99409
2142.11675	0.99363
2140.06294	0.99498
2138.00914	0.99825
2135.95534	0.99934
2133.90153	0.99852
2131.84773	0.99885
2129.79393	0.99943
2127.74012	0.99891
2125.68632	0.99732
2123.63252	0.99596
2121.57871	0.99553
2119.52491	0.99497
2117.47111	0.99418
2115.41731	0.99340
2113.36350	0.99333
2111.30970	0.99471
2109.25590	0.99575
2107.20209	0.99506
2105.14829	0.99397
2103.09449	0.99386
2101.04068	0.99407
2098.98688	0.99397
2096.93308	0.99468
2094.87927	0.99586
2092.82547	0.99544
2090.77167	0.99380
2088.71786	0.99273
2086.66406	0.99217
2084.61026	0.99174
2082.55645	0.99164
2080.50265	0.99177
2078.44885	0.99217
2076.39504	0.99314
2074.34124	0.99477
2072.28744	0.99498
2070.23363	0.99230
2068.17983	0.99133
2066.12603	0.99364
2064.07223	0.99373
2062.01842	0.99174
2059.96462	0.99096
2057.91082	0.99122
2055.85701	0.99280
2053.80321	0.99389
2051.74941	0.99352
2049.69560	0.99352
2047.64180	0.99367
2045.58800	0.99412
2043.53419	0.99434
2041.48039	0.99429
2039.42659	0.99520
2037.37278	0.99382
2035.31898	0.99099
2033.26518	0.99122
2031.21137	0.99343
2029.15757	0.99564
2027.10377	0.99576
2025.04996	0.99423
2022.99616	0.99338
2020.94236	0.99255
2018.88855	0.99345
2016.83475	0.99683
2014.78095	0.99759
2012.72714	0.99556
2010.67334	0.99512
2008.61954	0.99528
2006.56574	0.99561
2004.51193	0.99719
2002.45813	0.99801
2000.40433	0.99746
1998.35052	0.99553
1996.29672	0.99346
1994.24292	0.99258
1992.18911	0.99211
1990.13531	0.99294
1988.08151	0.99383
1986.02770	0.99263
1983.97390	0.99091
1981.92010	0.99021
1979.86629	0.99070
1977.81249	0.99100
1975.75869	0.99156
1973.70488	0.99355
1971.65108	0.99346
1969.59728	0.99236
1967.54347	0.99448
1965.48967	0.99677
1963.43587	0.99643
1961.38206	0.99596
1959.32826	0.99674
1957.27446	0.99745
1955.22066	0.99756
1953.16685	0.99806
1951.11305	0.99793
1949.05925	0.99651
1947.00544	0.99595
1944.95164	0.99645
1942.89784	0.99627
1940.84403	0.99573
1938.79023	0.99642
1936.73643	0.99813
1934.68262	0.99953
1932.62882	0.99949
1930.57502	0.99808
1928.52121	0.99683
1926.46741	0.99610
1924.41361	0.99540
1922.35980	0.99449
1920.30600	0.99371
1918.25220	0.99399
1916.19839	0.99431
1914.14459	0.99353
1912.09079	0.99316
1910.03698	0.99387
1907.98318	0.99434
1905.92938	0.99446
1903.87557	0.99523
1901.82177	0.99588
1899.76797	0.99486
1897.71417	0.99404
1895.66036	0.99514
1893.60656	0.99534
1891.55276	0.99401
1889.49895	0.99285
1887.44515	0.99174
1885.39135	0.99151
1883.33754	0.99293
1881.28374	0.99460
1879.22994	0.99501
1877.17613	0.99453
1875.12233	0.99434
1873.06853	0.99410
1871.01472	0.99320
1868.96092	0.99249
1866.90712	0.99236
1864.85331	0.99238
1862.79951	0.99262
1860.74571	0.99311
1858.69190	0.99371
1856.63810	0.99384
1854.58430	0.99355
1852.53049	0.99364
1850.47669	0.99374
1848.42289	0.99359
1846.36908	0.99374
1844.31528	0.99366
1842.26148	0.99362
1840.20768	0.99404
1838.15387	0.99416
1836.10007	0.99387
1834.04627	0.99356
1831.99246	0.99381
1829.93866	0.99424
1827.88486	0.99382
1825.83105	0.99350
1823.77725	0.99363
1821.72345	0.99347
1819.66964	0.99336
1817.61584	0.99359
1815.56204	0.99398
1813.50823	0.99407
1811.45443	0.99339
1809.40063	0.99266
1807.34682	0.99262
1805.29302	0.99312
1803.23922	0.99393
1801.18541	0.99443
1799.13161	0.99413
1797.07781	0.99366
1795.02400	0.99332
1792.97020	0.99286
1790.91640	0.99265
1788.86260	0.99307
1786.80879	0.99352
1784.75499	0.99338
1782.70119	0.99315
1780.64738	0.99346
1778.59358	0.99372
1776.53978	0.99372
1774.48597	0.99370
1772.43217	0.99359
1770.37837	0.99356
1768.32456	0.99371
1766.27076	0.99383
1764.21696	0.99373
1762.16315	0.99340
1760.10935	0.99328
1758.05555	0.99340
1756.00174	0.99360
1753.94794	0.99419
1751.89414	0.99468
1749.84033	0.99436
1747.78653	0.99405
1745.73273	0.99424
1743.67892	0.99421
1741.62512	0.99396
1739.57132	0.99407
1737.51751	0.99431
1735.46371	0.99402
1733.40991	0.99355
1731.35611	0.99348
1729.30230	0.99318
1727.24850	0.99300
1725.19470	0.99333
1723.14089	0.99340
1721.08709	0.99306
1719.03329	0.99279
1716.97948	0.99294
1714.92568	0.99346
1712.87188	0.99362
1710.81807	0.99366
1708.76427	0.99383
1706.71047	0.99374
1704.65666	0.99354
1702.60286	0.99345
1700.54906	0.99286
1698.49525	0.99256
1696.44145	0.99298
1694.38765	0.99271
1692.33384	0.99240
1690.28004	0.99264
1688.22624	0.99274
1686.17243	0.99238
1684.11863	0.99206
1682.06483	0.99219
1680.01103	0.99206
1677.95722	0.99177
1675.90342	0.99183
1673.84962	0.99202
1671.79581	0.99188
1669.74201	0.99166
1667.68821	0.99161
1665.63440	0.99145
1663.58060	0.99098
1661.52680	0.99058
1659.47299	0.99067
1657.41919	0.99088
1655.36539	0.99112
1653.31158	0.99133
1651.25778	0.99107
1649.20398	0.99109
1647.15017	0.99128
1645.09637	0.99116
1643.04257	0.99116
1640.98876	0.99126
1638.93496	0.99128
1636.88116	0.99120
1634.82735	0.99109
1632.77355	0.99116
1630.71975	0.99112
1628.66594	0.99093
1626.61214	0.99110
1624.55834	0.99159
1622.50454	0.99180
1620.45073	0.99173
1618.39693	0.99185
1616.34313	0.99210
1614.28932	0.99199
1612.23552	0.99197
1610.18172	0.99239
1608.12791	0.99262
1606.07411	0.99258
1604.02031	0.99277
1601.96650	0.99309
1599.91270	0.99330
1597.85890	0.99330
1595.80509	0.99318
1593.75129	0.99306
1591.69749	0.99293
1589.64368	0.99294
1587.58988	0.99314
1585.53608	0.99337
1583.48227	0.99366
1581.42847	0.99385
1579.37467	0.99386
1577.32086	0.99380
1575.26706	0.99373
1573.21326	0.99390
1571.15945	0.99410
1569.10565	0.99383
1567.05185	0.99352
1564.99805	0.99355
1562.94424	0.99359
1560.89044	0.99369
1558.83664	0.99366
1556.78283	0.99334
1554.72903	0.99358
1552.67523	0.99389
1550.62142	0.99386
1548.56762	0.99379
1546.51382	0.99404
1544.46001	0.99473
1542.40621	0.99528
1540.35241	0.99491
1538.29860	0.99425
1536.24480	0.99385
1534.19100	0.99387
1532.13719	0.99432
1530.08339	0.99436
1528.02959	0.99408
1525.97578	0.99415
1523.92198	0.99445
1521.86818	0.99426
1519.81437	0.99391
1517.76057	0.99406
1515.70677	0.99431
1513.65297	0.99451
1511.59916	0.99480
1509.54536	0.99465
1507.49156	0.99363
1505.43775	0.99314
1503.38395	0.99353
1501.33015	0.99374
1499.27634	0.99351
1497.22254	0.99322
1495.16874	0.99353
1493.11493	0.99384
1491.06113	0.99385
1489.00733	0.99408
1486.95352	0.99424
1484.89972	0.99412
1482.84592	0.99424
1480.79211	0.99435
1478.73831	0.99437
1476.68451	0.99451
1474.63070	0.99446
1472.57690	0.99396
1470.52310	0.99355
1468.46929	0.99359
1466.41549	0.99356
1464.36169	0.99331
1462.30788	0.99342
1460.25408	0.99362
1458.20028	0.99362
1456.14648	0.99375
1454.09267	0.99358
1452.03887	0.99309
1449.98507	0.99250
1447.93126	0.99208
1445.87746	0.99232
1443.82366	0.99260
1441.76985	0.99228
1439.71605	0.99206
1437.66225	0.99219
1435.60844	0.99226
1433.55464	0.99208
1431.50084	0.99174
1429.44703	0.99155
1427.39323	0.99141
1425.33943	0.99100
1423.28562	0.99078
1421.23182	0.99105
1419.17802	0.99154
1417.12421	0.99192
1415.07041	0.99168
1413.01661	0.99127
1410.96280	0.99133
1408.90900	0.99163
1406.85520	0.99197
1404.80139	0.99214
1402.74759	0.99198
1400.69379	0.99186
1398.63999	0.99199
1396.58618	0.99235
1394.53238	0.99241
1392.47858	0.99210
1390.42477	0.99221
1388.37097	0.99275
1386.31717	0.99302
1384.26336	0.99294
1382.20956	0.99301
1380.15576	0.99332
1378.10195	0.99354
1376.04815	0.99380
1373.99435	0.99400
1371.94054	0.99381
1369.88674	0.99365
1367.83294	0.99369
1365.77913	0.99365
1363.72533	0.99382
1361.67153	0.99431
1359.61772	0.99437
1357.56392	0.99400
1355.51012	0.99371
1353.45631	0.99370
1351.40251	0.99390
1349.34871	0.99410
1347.29491	0.99425
1345.24110	0.99413
1343.18730	0.99390
1341.13350	0.99412
1339.07969	0.99438
1337.02589	0.99395
1334.97209	0.99351
1332.91828	0.99350
1330.86448	0.99359
1328.81068	0.99357
1326.75687	0.99363
1324.70307	0.99372
1322.64927	0.99355
1320.59546	0.99348
1318.54166	0.99388
1316.48786	0.99403
1314.43405	0.99357
1312.38025	0.99317
1310.32645	0.99308
1308.27264	0.99322
1306.21884	0.99346
1304.16504	0.99362
1302.11123	0.99370
1300.05743	0.99360
1298.00363	0.99355
1295.94982	0.99384
1293.89602	0.99413
1291.84222	0.99408
1289.78842	0.99370
1287.73461	0.99316
1285.68081	0.99288
1283.62701	0.99295
1281.57320	0.99311
1279.51940	0.99317
1277.46560	0.99310
1275.41179	0.99306
1273.35799	0.99312
1271.30419	0.99309
1269.25038	0.99294
1267.19658	0.99283
1265.14278	0.99282
1263.08897	0.99281
1261.03517	0.99282
1258.98137	0.99280
1256.92756	0.99227
1254.87376	0.99146
1252.81996	0.99125
1250.76615	0.99131
1248.71235	0.99112
1246.65855	0.99098
1244.60474	0.99095
1242.55094	0.99088
1240.49714	0.99071
1238.44334	0.99021
1236.38953	0.98943
1234.33573	0.98882
1232.28193	0.98864
1230.22812	0.98858
1228.17432	0.98823
1226.12052	0.98803
1224.06671	0.98786
1222.01291	0.98716
1219.95911	0.98650
1217.90530	0.98596
1215.85150	0.98504
1213.79770	0.98414
1211.74389	0.98350
1209.69009	0.98279
1207.63629	0.98188
1205.58248	0.98116
1203.52868	0.98086
1201.47488	0.98009
1199.42107	0.97875
1197.36727	0.97759
1195.31347	0.97635
1193.25966	0.97494
1191.20586	0.97371
1189.15206	0.97250
1187.09825	0.97094
1185.04445	0.96925
1182.99065	0.96768
1180.93685	0.96604
1178.88304	0.96433
1176.82924	0.96250
1174.77544	0.96023
1172.72163	0.95768
1170.66783	0.95520
1168.61403	0.95258
1166.56022	0.94994
1164.50642	0.94750
1162.45262	0.94519
1160.39881	0.94342
1158.34501	0.94194
1156.29121	0.93968
1154.23740	0.93698
1152.18360	0.93470
1150.12980	0.93233
1148.07599	0.92949
1146.02219	0.92614
1143.96839	0.92264
1141.91458	0.91965
1139.86078	0.91693
1137.80698	0.91385
1135.75317	0.91046
1133.69937	0.90738
1131.64557	0.90469
1129.59176	0.90185
1127.53796	0.89909
1125.48416	0.89677
1123.43036	0.89426
1121.37655	0.89157
1119.32275	0.88938
1117.26895	0.88766
1115.21514	0.88553
1113.16134	0.88264
1111.10754	0.87993
1109.05373	0.87739
1106.99993	0.87440
1104.94613	0.87135
1102.89232	0.86799
1100.83852	0.86397
1098.78472	0.86010
1096.73091	0.85626
1094.67711	0.85193
1092.62331	0.84769
1090.56950	0.84394
1088.51570	0.84049
1086.46190	0.83697
1084.40809	0.83372
1082.35429	0.83140
1080.30049	0.82951
1078.24668	0.82805
1076.19288	0.82779
1074.13908	0.82775
1072.08528	0.82713
1070.03147	0.82644
1067.97767	0.82542
1065.92387	0.82362
1063.87006	0.82090
1061.81626	0.81734
1059.76246	0.81288
1057.70865	0.80709
1055.65485	0.80048
1053.60105	0.79373
1051.54724	0.78655
1049.49344	0.77893
1047.43964	0.77113
1045.38583	0.76316
1043.33203	0.75518
1041.27823	0.74717
1039.22442	0.73894
1037.17062	0.73035
1035.11682	0.72187
1033.06301	0.71439
1031.00921	0.70755
1028.95541	0.70095
1026.90160	0.69519
1024.84780	0.69014
1022.79400	0.68527
1020.74019	0.68056
1018.68639	0.67635
1016.63259	0.67298
1014.57879	0.66978
1012.52498	0.66603
1010.47118	0.66195
1008.41738	0.65755
1006.36357	0.65328
1004.30977	0.64985
1002.25597	0.64718
1000.20216	0.64487
998.14836	0.64248
996.09456	0.64035
994.04075	0.63884
991.98695	0.63728
989.93315	0.63578
987.87934	0.63480
985.82554	0.63386
983.77174	0.63317
981.71793	0.63268
979.66413	0.63205
977.61033	0.63210
975.55652	0.63312
973.50272	0.63417
971.44892	0.63517
969.39511	0.63717
967.34131	0.64051
965.28751	0.64421
963.23371	0.64815
961.17990	0.65311
959.12610	0.65824
957.07230	0.66308
955.01849	0.66892
952.96469	0.67545
950.91089	0.68156
948.85708	0.68749
946.80328	0.69359
944.74948	0.69952
942.69567	0.70505
940.64187	0.71019
938.58807	0.71433
936.53426	0.71690
934.48046	0.71902
932.42666	0.72138
930.37285	0.72323
928.31905	0.72474
926.26525	0.72641
924.21144	0.72755
922.15764	0.72765
920.10384	0.72736
918.05003	0.72715
915.99623	0.72604
913.94243	0.72395
911.88862	0.72223
909.83482	0.72087
907.78102	0.71995
905.72722	0.72025
903.67341	0.72150
901.61961	0.72368
899.56581	0.72689
897.51200	0.73098
895.45820	0.73622
893.40440	0.74209
891.35059	0.74787
889.29679	0.75365
887.24299	0.75906
885.18918	0.76455
883.13538	0.77088
881.08158	0.77712
879.02777	0.78318
876.97397	0.78948
874.92017	0.79573
872.86636	0.80180
870.81256	0.80758
868.75876	0.81376
866.70495	0.82026
864.65115	0.82565
862.59735	0.83037
860.54354	0.83557
858.48974	0.84050
856.43594	0.84475
854.38213	0.84883
852.32833	0.85237
850.27453	0.85482
848.22073	0.85614
846.16692	0.85655
844.11312	0.85608
842.05932	0.85530
840.00551	0.85515
837.95171	0.85461
835.89791	0.85240
833.84410	0.84884
831.79030	0.84427
829.73650	0.83987
827.68269	0.83720
825.62889	0.83614
823.57509	0.83602
821.52128	0.83670
819.46748	0.83882
817.41368	0.84180
815.35987	0.84364
813.30607	0.84501
811.25227	0.84739
809.19846	0.84933
807.14466	0.85027
805.09086	0.85148
803.03705	0.85235
800.98325	0.85198
798.92945	0.85179
796.87565	0.85310
794.82184	0.85499
792.76804	0.85707
790.71424	0.85980
788.66043	0.86174
786.60663	0.86246
784.55283	0.86279
782.49902	0.86229
780.44522	0.86139
778.39142	0.86075
776.33761	0.86043
774.28381	0.86070
772.23001	0.86086
770.17620	0.86096
768.12240	0.86169
766.06860	0.86241
764.01479	0.86273
761.96099	0.86211
759.90719	0.85988
757.85338	0.85729
755.79958	0.85561
753.74578	0.85477
751.69197	0.85440
749.63817	0.85444
747.58437	0.85576
745.53056	0.85831
743.47676	0.86029
741.42296	0.86200
739.36916	0.86525
737.31535	0.86920
735.26155	0.87176
733.20775	0.87262
731.15394	0.87359
729.10014	0.87593
727.04634	0.87849
724.99253	0.88042
722.93873	0.88154
720.88493	0.88233
718.83112	0.88405
716.77732	0.88622
714.72352	0.88818
712.66971	0.89034
710.61591	0.89231
708.56211	0.89296
706.50830	0.89233
704.45450	0.89219
702.40070	0.89305
700.34689	0.89363
698.29309	0.89366
696.23929	0.89318
694.18548	0.89240
692.13168	0.89284
690.07788	0.89431
688.02408	0.89528
685.97027	0.89662
683.91647	0.89926
681.86267	0.90241
679.80886	0.90452
677.75506	0.90525
675.70126	0.90610
673.64745	0.90701
671.59365	0.90744
669.53985	0.90819
667.48604	0.90880
665.43224	0.90973
663.37844	0.91134
661.32463	0.91169
659.27083	0.91030
657.21703	0.90863
655.16322	0.90764
653.10942	0.90602
651.05562	0.90241
649.00181	0.89868
646.94801	0.89538
644.89421	0.89088
642.84040	0.88722
640.78660	0.88677
638.73280	0.88770
636.67899	0.88798
634.62519	0.88762
632.57139	0.88737
630.51759	0.88776
628.46378	0.88807
626.40998	0.88749
624.35618	0.88554
622.30237	0.88328
620.24857	0.88334
618.19477	0.88391
616.14096	0.88141
614.08716	0.87698
612.03336	0.87287
609.97955	0.86958
607.92575	0.86610
605.87195	0.86230
603.81814	0.85932
601.76434	0.85535
599.71054	0.85019
597.65673	0.84660
595.60293	0.84341
593.54913	0.83957
591.49532	0.83582
589.44152	0.83228
587.38772	0.82864
585.33391	0.82401
583.28011	0.81935
581.22631	0.81592
579.17250	0.81291
577.11870	0.80958
575.06490	0.80614
573.01110	0.80266
570.95729	0.79947
568.90349	0.79709
566.84969	0.79478
564.79588	0.79201
562.74208	0.78978
560.68828	0.78814
558.63447	0.78520
556.58067	0.78110
554.52687	0.77746
552.47306	0.77283
550.41926	0.76682
548.36546	0.76136
546.31165	0.75461
544.25785	0.74595
542.20405	0.73880
540.15024	0.73370
538.09644	0.72883
536.04264	0.72223
533.98883	0.71469
531.93503	0.70835
529.88123	0.70173
527.82742	0.69494
525.77362	0.69064
523.71982	0.68812
521.66602	0.68618
519.61221	0.68481
517.55841	0.68195
515.50461	0.67859
513.45080	0.67866
511.39700	0.68152
509.34320	0.68460
507.28939	0.68820
505.23559	0.69283
503.18179	0.69482
501.12798	0.69438
499.07418	0.69741
497.02038	0.70208
494.96657	0.70446
492.91277	0.70709
490.85897	0.71029
488.80516	0.71089
486.75136	0.70751
484.69756	0.70153
482.64375	0.69472
480.58995	0.68569
478.53615	0.67643
476.48234	0.66977
474.42854	0.66214
472.37474	0.65216
470.32093	0.64364
468.26713	0.63776
466.21333	0.63393
464.15953	0.63086
462.10572	0.62842
460.05192	0.62875
457.99812	0.63048
455.94431	0.63287
453.89051	0.63568
451.83671	0.63557
449.78290	0.63552
447.72910	0.63748
445.67530	0.63752
443.62149	0.63570
441.56769	0.63482
439.51389	0.63743
437.46008	0.63894
435.40628	0.63401
433.35248	0.62937
431.29867	0.62559
429.24487	0.61852
427.19107	0.61374
425.13726	0.61050
423.08346	0.60489
421.02966	0.60187
418.97585	0.60281
416.92205	0.60084
414.86825	0.59658
412.81445	0.59745
410.76064	0.60370
408.70684	0.60403
406.65304	0.60110
404.59923	0.60371
402.54543	0.60248
400.49163	0.59786
398.43782	0.60166
