3996.70104	0.96800
3994.64724	0.96846
3992.59344	0.96858
3990.53964	0.96903
3988.48583	0.96933
3986.43203	0.96857
3984.37823	0.96759
3982.32442	0.96740
3980.27062	0.96751
3978.21682	0.96729
3976.16301	0.96730
3974.10921	0.96771
3972.05541	0.96800
3970.00160	0.96816
3967.94780	0.96817
3965.89400	0.96815
3963.84019	0.96832
3961.78639	0.96838
3959.73259	0.96807
3957.67878	0.96788
3955.62498	0.96800
3953.57118	0.96789
3951.51737	0.96768
3949.46357	0.96810
3947.40977	0.96899
3945.35596	0.96940
3943.30216	0.96879
3941.24836	0.96797
3939.19455	0.96784
3937.14075	0.96796
3935.08695	0.96787
3933.03315	0.96768
3930.97934	0.96781
3928.92554	0.96837
3926.87174	0.96869
3924.81793	0.96848
3922.76413	0.96811
3920.71033	0.96775
3918.65652	0.96777
3916.60272	0.96829
3914.54892	0.96850
3912.49511	0.96810
3910.44131	0.96751
3908.38751	0.96712
3906.33370	0.96693
3904.27990	0.96687
3902.22610	0.96692
3900.17229	0.96716
3898.11849	0.96741
3896.06469	0.96734
3894.01088	0.96754
3891.95708	0.96815
3889.90328	0.96830
3887.84947	0.96783
3885.79567	0.96739
3883.74187	0.96768
3881.68807	0.96861
3879.63426	0.96927
3877.58046	0.96913
3875.52666	0.96883
3873.47285	0.96876
3871.41905	0.96889
3869.36525	0.96887
3867.31144	0.96871
3865.25764	0.96864
3863.20384	0.96818
3861.15003	0.96769
3859.09623	0.96768
3857.04243	0.96829
3854.98862	0.96940
3852.93482	0.97000
3850.88102	0.97031
3848.82721	0.97058
3846.77341	0.97025
3844.71961	0.96966
3842.66580	0.96906
3840.61200	0.96859
3838.55820	0.96863
3836.50439	0.96890
3834.45059	0.96924
3832.39679	0.96957
3830.34298	0.96934
3828.28918	0.96920
3826.23538	0.96966
3824.18158	0.96991
3822.12777	0.97004
3820.07397	0.97044
3818.02017	0.97030
3815.96636	0.96975
3813.91256	0.96951
3811.85876	0.96960
3809.80495	0.96952
3807.75115	0.96921
3805.69735	0.96906
3803.64354	0.96881
3801.58974	0.96883
3799.53594	0.96965
3797.48213	0.97005
3795.42833	0.96987
3793.37453	0.96966
3791.32072	0.96971
3789.26692	0.96998
3787.21312	0.97019
3785.15931	0.97013
3783.10551	0.96975
3781.05171	0.96919
3778.99790	0.96917
3776.94410	0.96960
3774.89030	0.96955
3772.83650	0.96927
3770.78269	0.96943
3768.72889	0.96971
3766.67509	0.96966
3764.62128	0.96959
3762.56748	0.96947
3760.51368	0.96928
3758.45987	0.96932
3756.40607	0.96938
3754.35227	0.96933
3752.29846	0.96933
3750.24466	0.97044
3748.19086	0.97224
3746.13705	0.97285
3744.08325	0.97205
3742.02945	0.97083
3739.97564	0.96996
3737.92184	0.96864
3735.86804	0.96745
3733.81423	0.96866
3731.76043	0.97015
3729.70663	0.97012
3727.65282	0.96961
3725.59902	0.96927
3723.54522	0.96915
3721.49141	0.96916
3719.43761	0.96906
3717.38381	0.96869
3715.33001	0.96800
3713.27620	0.96679
3711.22240	0.96526
3709.16860	0.96417
3707.11479	0.96367
3705.06099	0.96329
3703.00719	0.96206
3700.95338	0.95956
3698.89958	0.95762
3696.84578	0.95707
3694.79197	0.95742
3692.73817	0.95843
3690.68437	0.95951
3688.63056	0.96016
3686.57676	0.96032
3684.52296	0.96045
3682.46915	0.96053
3680.41535	0.96024
3678.36155	0.95976
3676.30774	0.95946
3674.25394	0.95878
3672.20014	0.95748
3670.14633	0.95616
3668.09253	0.95550
3666.03873	0.95577
3663.98492	0.95601
3661.93112	0.95557
3659.87732	0.95485
3657.82352	0.95419
3655.76971	0.95324
3653.71591	0.95251
3651.66211	0.95254
3649.60830	0.95248
3647.55450	0.95153
3645.50070	0.95065
3643.44689	0.95009
3641.39309	0.94972
3639.33929	0.94942
3637.28548	0.94873
3635.23168	0.94743
3633.17788	0.94634
3631.12407	0.94603
3629.07027	0.94505
3627.01647	0.94291
3624.96266	0.94217
3622.90886	0.94233
3620.85506	0.94232
3618.80125	0.94210
3616.74745	0.94203
3614.69365	0.94184
3612.63984	0.94090
3610.58604	0.93965
3608.53224	0.93905
3606.47844	0.93936
3604.42463	0.94011
3602.37083	0.94065
3600.31703	0.94092
3598.26322	0.94105
3596.20942	0.94077
3594.15562	0.94013
3592.10181	0.93964
3590.04801	0.93964
3587.99421	0.93980
3585.94040	0.93916
3583.88660	0.93855
3581.83280	0.93863
3579.77899	0.93855
3577.72519	0.93815
3575.67139	0.93795
3573.61758	0.93777
3571.56378	0.93761
3569.50998	0.93806
3567.45617	0.93842
3565.40237	0.93747
3563.34857	0.93643
3561.29476	0.93589
3559.24096	0.93528
3557.18716	0.93460
3555.13335	0.93405
3553.07955	0.93343
3551.02575	0.93283
3548.97195	0.93263
3546.91814	0.93251
3544.86434	0.93205
3542.81054	0.93176
3540.75673	0.93183
3538.70293	0.93178
3536.64913	0.93128
3534.59532	0.93065
3532.54152	0.93026
3530.48772	0.93011
3528.43391	0.93017
3526.38011	0.93014
3524.32631	0.92978
3522.27250	0.92917
3520.21870	0.92877
3518.16490	0.92862
3516.11109	0.92829
3514.05729	0.92807
3512.00349	0.92811
3509.94968	0.92788
3507.89588	0.92696
3505.84208	0.92590
3503.78827	0.92564
3501.73447	0.92598
3499.68067	0.92601
3497.62687	0.92557
3495.57306	0.92483
3493.51926	0.92406
3491.46546	0.92400
3489.41165	0.92410
3487.35785	0.92330
3485.30405	0.92274
3483.25024	0.92314
3481.19644	0.92324
3479.14264	0.92260
3477.08883	0.92203
3475.03503	0.92188
3472.98123	0.92167
3470.92742	0.92089
3468.87362	0.91999
3466.81982	0.91963
3464.76601	0.91969
3462.71221	0.91955
3460.65841	0.91914
3458.60460	0.91875
3456.55080	0.91845
3454.49700	0.91841
3452.44319	0.91852
3450.38939	0.91872
3448.33559	0.91883
3446.28178	0.91849
3444.22798	0.91822
3442.17418	0.91826
3440.12038	0.91814
3438.06657	0.91769
3436.01277	0.91715
3433.95897	0.91696
3431.90516	0.91719
3429.85136	0.91724
3427.79756	0.91688
3425.74375	0.91703
3423.68995	0.91763
3421.63615	0.91753
3419.58234	0.91687
3417.52854	0.91644
3415.47474	0.91615
3413.42093	0.91595
3411.36713	0.91603
3409.31333	0.91602
3407.25952	0.91574
3405.20572	0.91542
3403.15192	0.91504
3401.09811	0.91478
3399.04431	0.91503
3396.99051	0.91536
3394.93670	0.91516
3392.88290	0.91481
3390.82910	0.91489
3388.77529	0.91534
3386.72149	0.91581
3384.66769	0.91592
3382.61389	0.91605
3380.56008	0.91648
3378.50628	0.91651
3376.45248	0.91648
3374.39867	0.91675
3372.34487	0.91674
3370.29107	0.91650
3368.23726	0.91635
3366.18346	0.91631
3364.12966	0.91631
3362.07585	0.91647
3360.02205	0.91713
3357.96825	0.91797
3355.91444	0.91810
3353.86064	0.91789
3351.80684	0.91817
3349.75303	0.91868
3347.69923	0.91878
3345.64543	0.91839
3343.59162	0.91796
3341.53782	0.91790
3339.48402	0.91836
3337.43021	0.91879
3335.37641	0.91865
3333.32261	0.91856
3331.26881	0.91881
3329.21500	0.91887
3327.16120	0.91865
3325.10740	0.91854
3323.05359	0.91879
3320.99979	0.91913
3318.94599	0.91971
3316.89218	0.92044
3314.83838	0.92080
3312.78458	0.92089
3310.73077	0.92086
3308.67697	0.92051
3306.62317	0.92026
3304.56936	0.92075
3302.51556	0.92149
3300.46176	0.92178
3298.40795	0.92202
3296.35415	0.92209
3294.30035	0.92147
3292.24654	0.92080
3290.19274	0.92071
3288.13894	0.92101
3286.08513	0.92135
3284.03133	0.92142
3281.97753	0.92154
3279.92372	0.92208
3277.86992	0.92249
3275.81612	0.92277
3273.76232	0.92319
3271.70851	0.92302
3269.65471	0.92239
3267.60091	0.92228
3265.54710	0.92250
3263.49330	0.92256
3261.43950	0.92266
3259.38569	0.92304
3257.33189	0.92348
3255.27809	0.92378
3253.22428	0.92393
3251.17048	0.92412
3249.11668	0.92464
3247.06287	0.92525
3245.00907	0.92530
3242.95527	0.92501
3240.90146	0.92522
3238.84766	0.92552
3236.79386	0.92554
3234.74005	0.92573
3232.68625	0.92572
3230.63245	0.92560
3228.57864	0.92600
3226.52484	0.92640
3224.47104	0.92630
3222.41724	0.92638
3220.36343	0.92715
3218.30963	0.92799
3216.25583	0.92845
3214.20202	0.92888
3212.14822	0.92915
3210.09442	0.92888
3208.04061	0.92837
3205.98681	0.92811
3203.93301	0.92854
3201.87920	0.92945
3199.82540	0.92995
3197.77160	0.93016
3195.71779	0.93045
3193.66399	0.93079
3191.61019	0.93135
3189.55638	0.93207
3187.50258	0.93282
3185.44878	0.93345
3183.39497	0.93360
3181.34117	0.93326
3179.28737	0.93316
3177.23356	0.93378
3175.17976	0.93462
3173.12596	0.93524
3171.07215	0.93584
3169.01835	0.93629
3166.96455	0.93633
3164.91075	0.93608
3162.85694	0.93577
3160.80314	0.93598
3158.74934	0.93680
3156.69553	0.93741
3154.64173	0.93774
3152.58793	0.93827
3150.53412	0.93865
3148.48032	0.93865
3146.42652	0.93870
3144.37271	0.93897
3142.31891	0.93926
3140.26511	0.93937
3138.21130	0.93944
3136.15750	0.93979
3134.10370	0.94058
3132.04989	0.94154
3129.99609	0.94203
3127.94229	0.94196
3125.88848	0.94199
3123.83468	0.94240
3121.78088	0.94289
3119.72707	0.94353
3117.67327	0.94420
3115.61947	0.94418
3113.56566	0.94379
3111.51186	0.94396
3109.45806	0.94448
3107.40426	0.94454
3105.35045	0.94417
3103.29665	0.94412
3101.24285	0.94442
3099.18904	0.94429
3097.13524	0.94366
3095.08144	0.94363
3093.02763	0.94428
3090.97383	0.94468
3088.92003	0.94480
3086.86622	0.94499
3084.81242	0.94522
3082.75862	0.94533
3080.70481	0.94513
3078.65101	0.94489
3076.59721	0.94521
3074.54340	0.94595
3072.48960	0.94663
3070.43580	0.94727
3068.38199	0.94792
3066.32819	0.94806
3064.27439	0.94747
3062.22058	0.94710
3060.16678	0.94756
3058.11298	0.94839
3056.05918	0.94887
3054.00537	0.94893
3051.95157	0.94889
3049.89777	0.94882
3047.84396	0.94866
3045.79016	0.94859
3043.73636	0.94893
3041.68255	0.94934
3039.62875	0.94932
3037.57495	0.94902
3035.52114	0.94898
3033.46734	0.94939
3031.41354	0.95001
3029.35973	0.95030
3027.30593	0.95009
3025.25213	0.94993
3023.19832	0.95007
3021.14452	0.95014
3019.09072	0.95005
3017.03691	0.95005
3014.98311	0.95018
3012.92931	0.95015
3010.87550	0.94988
3008.82170	0.94997
3006.76790	0.95044
3004.71409	0.95066
3002.66029	0.95073
3000.60649	0.95105
2998.55269	0.95131
2996.49888	0.95114
2994.44508	0.95061
2992.39128	0.95021
2990.33747	0.95011
2988.28367	0.95003
2986.22987	0.94973
2984.17606	0.94918
2982.12226	0.94856
2980.06846	0.94779
2978.01465	0.94702
2975.96085	0.94671
2973.90705	0.94637
2971.85324	0.94500
2969.79944	0.94258
2967.74564	0.94003
2965.69183	0.93765
2963.63803	0.93500
2961.58423	0.93210
2959.53042	0.92948
2957.47662	0.92730
2955.42282	0.92514
2953.36901	0.92294
2951.31521	0.92084
2949.26141	0.91818
2947.20761	0.91385
2945.15380	0.90723
2943.10000	0.89795
2941.04620	0.88585
2938.99239	0.87134
2936.93859	0.85439
2934.88479	0.83454
2932.83098	0.81142
2930.77718	0.78422
2928.72338	0.75245
2926.66957	0.71595
2924.61577	0.67392
2922.56197	0.62565
2920.50816	0.57268
2918.45436	0.52053
2916.40056	0.47977
2914.34675	0.46399
2912.29295	0.47916
2910.23915	0.51605
2908.18534	0.55906
2906.13154	0.59774
2904.07774	0.62860
2902.02393	0.65237
2899.97013	0.67128
2897.91633	0.68755
2895.86252	0.70260
2893.80872	0.71711
2891.75492	0.73195
2889.70112	0.74751
2887.64731	0.76334
2885.59351	0.77922
2883.53971	0.79515
2881.48590	0.81067
2879.43210	0.82535
2877.37830	0.83890
2875.32449	0.85059
2873.27069	0.85955
2871.21689	0.86547
2869.16308	0.86836
2867.10928	0.86815
2865.05548	0.86403
2863.00167	0.85432
2860.94787	0.83732
2858.89407	0.81065
2856.84026	0.77057
2854.78646	0.71401
2852.73266	0.64243
2850.67885	0.56787
2848.62505	0.51526
2846.57125	0.50718
2844.51744	0.54338
2842.46364	0.60343
2840.40984	0.66607
2838.35603	0.71987
2836.30223	0.76194
2834.24843	0.79388
2832.19463	0.81817
2830.14082	0.83663
2828.08702	0.85104
2826.03322	0.86293
2823.97941	0.87264
2821.92561	0.88046
2819.87181	0.88726
2817.81800	0.89314
2815.76420	0.89788
2813.71040	0.90201
2811.65659	0.90582
2809.60279	0.90915
2807.54899	0.91195
2805.49518	0.91427
2803.44138	0.91644
2801.38758	0.91868
2799.33377	0.92087
2797.27997	0.92307
2795.22617	0.92529
2793.17236	0.92695
2791.11856	0.92796
2789.06476	0.92904
2787.01095	0.93046
2784.95715	0.93191
2782.90335	0.93321
2780.84955	0.93461
2778.79574	0.93604
2776.74194	0.93707
2774.68814	0.93778
2772.63433	0.93844
2770.58053	0.93922
2768.52673	0.94004
2766.47292	0.94068
2764.41912	0.94145
2762.36532	0.94237
2760.31151	0.94296
2758.25771	0.94323
2756.20391	0.94353
2754.15010	0.94384
2752.09630	0.94405
2750.04250	0.94425
2747.98869	0.94432
2745.93489	0.94443
2743.88109	0.94470
2741.82728	0.94495
2739.77348	0.94515
2737.71968	0.94538
2735.66587	0.94553
2733.61207	0.94567
2731.55827	0.94607
2729.50446	0.94667
2727.45066	0.94706
2725.39686	0.94708
2723.34306	0.94712
2721.28925	0.94748
2719.23545	0.94790
2717.18165	0.94814
2715.12784	0.94858
2713.07404	0.94922
2711.02024	0.94936
2708.96643	0.94923
2706.91263	0.94954
2704.85883	0.94992
2702.80502	0.94992
2700.75122	0.94996
2698.69742	0.95026
2696.64361	0.95073
2694.58981	0.95116
2692.53601	0.95142
2690.48220	0.95149
2688.42840	0.95143
2686.37460	0.95147
2684.32079	0.95163
2682.26699	0.95167
2680.21319	0.95159
2678.15938	0.95164
2676.10558	0.95166
2674.05178	0.95145
2671.99797	0.95110
2669.94417	0.95079
2667.89037	0.95066
2665.83657	0.95059
2663.78276	0.95055
2661.72896	0.95071
2659.67516	0.95095
2657.62135	0.95111
2655.56755	0.95132
2653.51375	0.95162
2651.45994	0.95167
2649.40614	0.95147
2647.35234	0.95130
2645.29853	0.95144
2643.24473	0.95185
2641.19093	0.95204
2639.13712	0.95210
2637.08332	0.95219
2635.02952	0.95209
2632.97571	0.95200
2630.92191	0.95223
2628.86811	0.95285
2626.81430	0.95327
2624.76050	0.95330
2622.70670	0.95370
2620.65289	0.95431
2618.59909	0.95468
2616.54529	0.95519
2614.49149	0.95600
2612.43768	0.95690
2610.38388	0.95728
2608.33008	0.95687
2606.27627	0.95649
2604.22247	0.95658
2602.16867	0.95688
2600.11486	0.95729
2598.06106	0.95775
2596.00726	0.95823
2593.95345	0.95851
2591.89965	0.95843
2589.84585	0.95858
2587.79204	0.95929
2585.73824	0.95999
2583.68444	0.96044
2581.63063	0.96070
2579.57683	0.96066
2577.52303	0.96074
2575.46922	0.96115
2573.41542	0.96128
2571.36162	0.96086
2569.30781	0.96047
2567.25401	0.96089
2565.20021	0.96161
2563.14640	0.96165
2561.09260	0.96119
2559.03880	0.96088
2556.98500	0.96081
2554.93119	0.96090
2552.87739	0.96121
2550.82359	0.96129
2548.76978	0.96098
2546.71598	0.96125
2544.66218	0.96253
2542.60837	0.96319
2540.55457	0.96215
2538.50077	0.96065
2536.44696	0.96014
2534.39316	0.96061
2532.33936	0.96112
2530.28555	0.96142
2528.23175	0.96201
2526.17795	0.96267
2524.12414	0.96289
2522.07034	0.96297
2520.01654	0.96296
2517.96273	0.96295
2515.90893	0.96332
2513.85513	0.96373
2511.80132	0.96368
2509.74752	0.96335
2507.69372	0.96316
2505.63992	0.96349
2503.58611	0.96393
2501.53231	0.96393
2499.47851	0.96395
2497.42470	0.96410
2495.37090	0.96410
2493.31710	0.96402
2491.26329	0.96384
2489.20949	0.96349
2487.15569	0.96334
2485.10188	0.96381
2483.04808	0.96463
2480.99428	0.96502
2478.94047	0.96512
2476.88667	0.96537
2474.83287	0.96499
2472.77906	0.96411
2470.72526	0.96381
2468.67146	0.96387
2466.61765	0.96416
2464.56385	0.96495
2462.51005	0.96517
2460.45624	0.96433
2458.40244	0.96411
2456.34864	0.96472
2454.29483	0.96460
2452.24103	0.96427
2450.18723	0.96462
2448.13343	0.96488
2446.07962	0.96500
2444.02582	0.96489
2441.97202	0.96403
2439.91821	0.96357
2437.86441	0.96422
2435.81061	0.96478
2433.75680	0.96452
2431.70300	0.96424
2429.64920	0.96448
2427.59539	0.96494
2425.54159	0.96496
2423.48779	0.96437
2421.43398	0.96410
2419.38018	0.96467
2417.32638	0.96544
2415.27257	0.96605
2413.21877	0.96638
2411.16497	0.96582
2409.11116	0.96509
2407.05736	0.96517
2405.00356	0.96543
2402.94975	0.96545
2400.89595	0.96533
2398.84215	0.96523
2396.78834	0.96554
2394.73454	0.96597
2392.68074	0.96576
2390.62694	0.96529
2388.57313	0.96529
2386.51933	0.96551
2384.46553	0.96563
2382.41172	0.96580
2380.35792	0.96636
2378.30412	0.96703
2376.25031	0.96709
2374.19651	0.96660
2372.14271	0.96628
2370.08890	0.96602
2368.03510	0.96526
2365.98130	0.96472
2363.92749	0.96450
2361.87369	0.96455
2359.81989	0.96539
2357.76608	0.96540
2355.71228	0.96410
2353.65848	0.96330
2351.60467	0.96313
2349.55087	0.96302
2347.49707	0.96309
2345.44326	0.96338
2343.38946	0.96314
2341.33566	0.96237
2339.28186	0.96240
2337.22805	0.96296
2335.17425	0.96342
2333.12045	0.96430
2331.06664	0.96508
2329.01284	0.96481
2326.95904	0.96366
2324.90523	0.96195
2322.85143	0.96108
2320.79763	0.96190
2318.74382	0.96286
2316.69002	0.96344
2314.63622	0.96353
2312.58241	0.96316
2310.52861	0.96301
2308.47481	0.96332
2306.42100	0.96442
2304.36720	0.96524
2302.31340	0.96470
2300.25959	0.96396
2298.20579	0.96409
2296.15199	0.96473
2294.09818	0.96453
2292.04438	0.96358
2289.99058	0.96335
2287.93677	0.96372
2285.88297	0.96398
2283.82917	0.96396
2281.77537	0.96302
2279.72156	0.96213
2277.66776	0.96345
2275.61396	0.96522
2273.56015	0.96519
2271.50635	0.96511
2269.45255	0.96587
2267.39874	0.96642
2265.34494	0.96658
2263.29114	0.96632
2261.23733	0.96593
2259.18353	0.96649
2257.12973	0.96697
2255.07592	0.96600
2253.02212	0.96498
2250.96832	0.96538
2248.91451	0.96645
2246.86071	0.96744
2244.80691	0.96881
2242.75310	0.96982
2240.69930	0.96922
2238.64550	0.96748
2236.59169	0.96581
2234.53789	0.96510
2232.48409	0.96509
2230.43029	0.96535
2228.37648	0.96654
2226.32268	0.96773
2224.26888	0.96788
2222.21507	0.96746
2220.16127	0.96691
2218.10747	0.96700
2216.05366	0.96782
2213.99986	0.96859
2211.94606	0.96907
2209.89225	0.97002
2207.83845	0.97132
2205.78465	0.97115
2203.73084	0.96834
2201.67704	0.96504
2199.62324	0.96492
2197.56943	0.96782
2195.51563	0.96924
2193.46183	0.96733
2191.40802	0.96481
2189.35422	0.96400
2187.30042	0.96438
2185.24661	0.96434
2183.19281	0.96482
2181.13901	0.96669
2179.08520	0.96968
2177.03140	0.97266
2174.97760	0.97319
2172.92380	0.97160
2170.86999	0.96963
2168.81619	0.96815
2166.76239	0.96803
2164.70858	0.96938
2162.65478	0.97034
2160.60098	0.96874
2158.54717	0.96714
2156.49337	0.96887
2154.43957	0.97136
2152.38576	0.97159
2150.33196	0.97023
2148.27816	0.97066
2146.22435	0.97225
2144.17055	0.97129
2142.11675	0.96849
2140.06294	0.96759
2138.00914	0.96925
2135.95534	0.96959
2133.90153	0.96813
2131.84773	0.96751
2129.79393	0.96762
2127.74012	0.96785
2125.68632	0.96825
2123.63252	0.96872
2121.57871	0.96878
2119.52491	0.96795
2117.47111	0.96697
2115.41731	0.96692
2113.36350	0.96779
2111.30970	0.96886
2109.25590	0.96948
2107.20209	0.96989
2105.14829	0.96966
2103.09449	0.96837
2101.04068	0.96738
2098.98688	0.96733
2096.93308	0.96770
2094.87927	0.96850
2092.82547	0.96925
2090.77167	0.96909
2088.71786	0.96842
2086.66406	0.96794
2084.61026	0.96706
2082.55645	0.96591
2080.50265	0.96594
2078.44885	0.96683
2076.39504	0.96737
2074.34124	0.96768
2072.28744	0.96796
2070.23363	0.96888
2068.17983	0.97091
2066.12603	0.97197
2064.07223	0.97089
2062.01842	0.96946
2059.96462	0.96806
2057.91082	0.96703
2055.85701	0.96758
2053.80321	0.96859
2051.74941	0.96852
2049.69560	0.96857
2047.64180	0.97030
2045.58800	0.97275
2043.53419	0.97525
2041.48039	0.97678
2039.42659	0.97525
2037.37278	0.97149
2035.31898	0.96846
2033.26518	0.96689
2031.21137	0.96589
2029.15757	0.96636
2027.10377	0.96840
2025.04996	0.96931
2022.99616	0.96944
2020.94236	0.97064
2018.88855	0.97166
2016.83475	0.97112
2014.78095	0.96962
2012.72714	0.96883
2010.67334	0.96861
2008.61954	0.96895
2006.56574	0.97073
2004.51193	0.97172
2002.45813	0.97107
2000.40433	0.97076
1998.35052	0.97074
1996.29672	0.97135
1994.24292	0.97308
1992.18911	0.97414
1990.13531	0.97355
1988.08151	0.97157
1986.02770	0.96909
1983.97390	0.96861
1981.92010	0.96994
1979.86629	0.97021
1977.81249	0.97043
1975.75869	0.97164
1973.70488	0.97219
1971.65108	0.97193
1969.59728	0.97187
1967.54347	0.97295
1965.48967	0.97388
1963.43587	0.97257
1961.38206	0.97063
1959.32826	0.97004
1957.27446	0.97010
1955.22066	0.96961
1953.16685	0.96806
1951.11305	0.96741
1949.05925	0.96813
1947.00544	0.96856
1944.95164	0.96943
1942.89784	0.97042
1940.84403	0.97096
1938.79023	0.97131
1936.73643	0.97065
1934.68262	0.96994
1932.62882	0.96975
1930.57502	0.96864
1928.52121	0.96754
1926.46741	0.96748
1924.41361	0.96757
1922.35980	0.96808
1920.30600	0.96905
1918.25220	0.96916
1916.19839	0.96836
1914.14459	0.96759
1912.09079	0.96687
1910.03698	0.96609
1907.98318	0.96594
1905.92938	0.96673
1903.87557	0.96751
1901.82177	0.96784
1899.76797	0.96810
1897.71417	0.96787
1895.66036	0.96715
1893.60656	0.96690
1891.55276	0.96721
1889.49895	0.96773
1887.44515	0.96785
1885.39135	0.96734
1883.33754	0.96707
1881.28374	0.96760
1879.22994	0.96827
1877.17613	0.96856
1875.12233	0.96844
1873.06853	0.96788
1871.01472	0.96753
1868.96092	0.96751
1866.90712	0.96786
1864.85331	0.96860
1862.79951	0.96878
1860.74571	0.96818
1858.69190	0.96745
1856.63810	0.96721
1854.58430	0.96745
1852.53049	0.96758
1850.47669	0.96715
1848.42289	0.96664
1846.36908	0.96675
1844.31528	0.96756
1842.26148	0.96806
1840.20768	0.96814
1838.15387	0.96835
1836.10007	0.96817
1834.04627	0.96742
1831.99246	0.96670
1829.93866	0.96645
1827.88486	0.96685
1825.83105	0.96761
1823.77725	0.96779
1821.72345	0.96764
1819.66964	0.96777
1817.61584	0.96769
1815.56204	0.96730
1813.50823	0.96698
1811.45443	0.96693
1809.40063	0.96695
1807.34682	0.96698
1805.29302	0.96688
1803.23922	0.96666
1801.18541	0.96673
1799.13161	0.96706
1797.07781	0.96712
1795.02400	0.96667
1792.97020	0.96605
1790.91640	0.96568
1788.86260	0.96556
1786.80879	0.96580
1784.75499	0.96631
1782.70119	0.96650
1780.64738	0.96648
1778.59358	0.96652
1776.53978	0.96617
1774.48597	0.96570
1772.43217	0.96554
1770.37837	0.96520
1768.32456	0.96496
1766.27076	0.96514
1764.21696	0.96524
1762.16315	0.96502
1760.10935	0.96448
1758.05555	0.96415
1756.00174	0.96400
1753.94794	0.96334
1751.89414	0.96201
1749.84033	0.96042
1747.78653	0.95886
1745.73273	0.95763
1743.67892	0.95732
1741.62512	0.95769
1739.57132	0.95771
1737.51751	0.95704
1735.46371	0.95639
1733.40991	0.95668
1731.35611	0.95759
1729.30230	0.95803
1727.24850	0.95786
1725.19470	0.95719
1723.14089	0.95640
1721.08709	0.95593
1719.03329	0.95593
1716.97948	0.95605
1714.92568	0.95573
1712.87188	0.95530
1710.81807	0.95492
1708.76427	0.95465
1706.71047	0.95411
1704.65666	0.95291
1702.60286	0.95162
1700.54906	0.95089
1698.49525	0.95050
1696.44145	0.94919
1694.38765	0.94716
1692.33384	0.94574
1690.28004	0.94472
1688.22624	0.94344
1686.17243	0.94186
1684.11863	0.93953
1682.06483	0.93722
1680.01103	0.93572
1677.95722	0.93451
1675.90342	0.93296
1673.84962	0.93076
1671.79581	0.92882
1669.74201	0.92717
1667.68821	0.92555
1665.63440	0.92436
1663.58060	0.92325
1661.52680	0.92179
1659.47299	0.92031
1657.41919	0.91932
1655.36539	0.91868
1653.31158	0.91708
1651.25778	0.91536
1649.20398	0.91486
1647.15017	0.91390
1645.09637	0.91239
1643.04257	0.91114
1640.98876	0.90967
1638.93496	0.90823
1636.88116	0.90675
1634.82735	0.90408
1632.77355	0.90177
1630.71975	0.90022
1628.66594	0.89841
1626.61214	0.89625
1624.55834	0.89421
1622.50454	0.89231
1620.45073	0.89068
1618.39693	0.88881
1616.34313	0.88618
1614.28932	0.88436
1612.23552	0.88337
1610.18172	0.88217
1608.12791	0.88060
1606.07411	0.87918
1604.02031	0.87834
1601.96650	0.87793
1599.91270	0.87785
1597.85890	0.87812
1595.80509	0.87839
1593.75129	0.87831
1591.69749	0.87800
1589.64368	0.87793
1587.58988	0.87802
1585.53608	0.87733
1583.48227	0.87569
1581.42847	0.87400
1579.37467	0.87316
1577.32086	0.87375
1575.26706	0.87661
1573.21326	0.88032
1571.15945	0.88461
1569.10565	0.89046
1567.05185	0.89541
1564.99805	0.89887
1562.94424	0.90157
1560.89044	0.90364
1558.83664	0.90685
1556.78283	0.90968
1554.72903	0.91077
1552.67523	0.91133
1550.62142	0.91118
1548.56762	0.91025
1546.51382	0.90858
1544.46001	0.90592
1542.40621	0.90264
1540.35241	0.90079
1538.29860	0.90293
1536.24480	0.90652
1534.19100	0.91178
1532.13719	0.91808
1530.08339	0.92185
1528.02959	0.92390
1525.97578	0.92524
1523.92198	0.92605
1521.86818	0.92678
1519.81437	0.92761
1517.76057	0.92850
1515.70677	0.92931
1513.65297	0.92963
1511.59916	0.92962
1509.54536	0.92958
1507.49156	0.92887
1505.43775	0.92766
1503.38395	0.92725
1501.33015	0.92689
1499.27634	0.92599
1497.22254	0.92450
1495.16874	0.92300
1493.11493	0.92199
1491.06113	0.92092
1489.00733	0.91899
1486.95352	0.91631
1484.89972	0.91341
1482.84592	0.90949
1480.79211	0.90298
1478.73831	0.89081
1476.68451	0.86221
1474.63070	0.80697
1472.57690	0.75073
1470.52310	0.74147
1468.46929	0.75488
1466.41549	0.75952
1464.36169	0.74867
1462.30788	0.74530
1460.25408	0.76556
1458.20028	0.80302
1456.14648	0.83777
1454.09267	0.85309
1452.03887	0.86224
1449.98507	0.86998
1447.93126	0.87587
1445.87746	0.87945
1443.82366	0.88112
1441.76985	0.88218
1439.71605	0.88315
1437.66225	0.88418
1435.60844	0.88545
1433.55464	0.88683
1431.50084	0.88868
1429.44703	0.89096
1427.39323	0.89279
1425.33943	0.89359
1423.28562	0.89357
1421.23182	0.89325
1419.17802	0.89335
1417.12421	0.89417
1415.07041	0.89564
1413.01661	0.89790
1410.96280	0.90081
1408.90900	0.90391
1406.85520	0.90702
1404.80139	0.91022
1402.74759	0.91259
1400.69379	0.91416
1398.63999	0.91592
1396.58618	0.91769
1394.53238	0.91880
1392.47858	0.91958
1390.42477	0.92049
1388.37097	0.92145
1386.31717	0.92207
1384.26336	0.92224
1382.20956	0.92198
1380.15576	0.92122
1378.10195	0.92053
1376.04815	0.92055
1373.99435	0.92075
1371.94054	0.92004
1369.88674	0.91900
1367.83294	0.91842
1365.77913	0.91820
1363.72533	0.91847
1361.67153	0.91937
1359.61772	0.91984
1357.56392	0.91935
1355.51012	0.91868
1353.45631	0.91872
1351.40251	0.91990
1349.34871	0.92179
1347.29491	0.92383
1345.24110	0.92610
1343.18730	0.92872
1341.13350	0.93134
1339.07969	0.93342
1337.02589	0.93479
1334.97209	0.93607
1332.91828	0.93724
1330.86448	0.93775
1328.81068	0.93753
1326.75687	0.93698
1324.70307	0.93631
1322.64927	0.93566
1320.59546	0.93549
1318.54166	0.93594
1316.48786	0.93665
1314.43405	0.93748
1312.38025	0.93818
1310.32645	0.93854
1308.27264	0.93870
1306.21884	0.93874
1304.16504	0.93872
1302.11123	0.93868
1300.05743	0.93860
1298.00363	0.93876
1295.94982	0.93929
1293.89602	0.93996
1291.84222	0.94046
1289.78842	0.94070
1287.73461	0.94067
1285.68081	0.94039
1283.62701	0.93985
1281.57320	0.93870
1279.51940	0.93681
1277.46560	0.93490
1275.41179	0.93354
1273.35799	0.93277
1271.30419	0.93268
1269.25038	0.93329
1267.19658	0.93429
1265.14278	0.93527
1263.08897	0.93612
1261.03517	0.93692
1258.98137	0.93743
1256.92756	0.93756
1254.87376	0.93758
1252.81996	0.93746
1250.76615	0.93713
1248.71235	0.93706
1246.65855	0.93731
1244.60474	0.93742
1242.55094	0.93717
1240.49714	0.93682
1238.44334	0.93639
1236.38953	0.93588
1234.33573	0.93540
1232.28193	0.93483
1230.22812	0.93421
1228.17432	0.93387
1226.12052	0.93377
1224.06671	0.93339
1222.01291	0.93248
1219.95911	0.93130
1217.90530	0.93014
1215.85150	0.92880
1213.79770	0.92723
1211.74389	0.92581
1209.69009	0.92458
1207.63629	0.92310
1205.58248	0.92112
1203.52868	0.91890
1201.47488	0.91660
1199.42107	0.91420
1197.36727	0.91170
1195.31347	0.90900
1193.25966	0.90618
1191.20586	0.90339
1189.15206	0.90072
1187.09825	0.89825
1185.04445	0.89577
1182.99065	0.89304
1180.93685	0.89002
1178.88304	0.88698
1176.82924	0.88423
1174.77544	0.88167
1172.72163	0.87917
1170.66783	0.87667
1168.61403	0.87411
1166.56022	0.87187
1164.50642	0.87025
1162.45262	0.86899
1160.39881	0.86797
1158.34501	0.86687
1156.29121	0.86526
1154.23740	0.86319
1152.18360	0.86105
1150.12980	0.85922
1148.07599	0.85749
1146.02219	0.85538
1143.96839	0.85315
1141.91458	0.85126
1139.86078	0.84934
1137.80698	0.84685
1135.75317	0.84380
1133.69937	0.84023
1131.64557	0.83618
1129.59176	0.83216
1127.53796	0.82839
1125.48416	0.82465
1123.43036	0.82040
1121.37655	0.81438
1119.32275	0.80710
1117.26895	0.80073
1115.21514	0.79570
1113.16134	0.79095
1111.10754	0.78617
1109.05373	0.78167
1106.99993	0.77765
1104.94613	0.77447
1102.89232	0.77181
1100.83852	0.76905
1098.78472	0.76628
1096.73091	0.76344
1094.67711	0.76043
1092.62331	0.75762
1090.56950	0.75586
1088.51570	0.75546
1086.46190	0.75525
1084.40809	0.75465
1082.35429	0.75387
1080.30049	0.75268
1078.24668	0.75127
1076.19288	0.75009
1074.13908	0.74870
1072.08528	0.74680
1070.03147	0.74496
1067.97767	0.74316
1065.92387	0.74066
1063.87006	0.73733
1061.81626	0.73391
1059.76246	0.73080
1057.70865	0.72751
1055.65485	0.72374
1053.60105	0.71931
1051.54724	0.71382
1049.49344	0.70795
1047.43964	0.70247
1045.38583	0.69719
1043.33203	0.69187
1041.27823	0.68631
1039.22442	0.68037
1037.17062	0.67452
1035.11682	0.66930
1033.06301	0.66492
1031.00921	0.66163
1028.95541	0.65958
1026.90160	0.65834
1024.84780	0.65779
1022.79400	0.65781
1020.74019	0.65762
1018.68639	0.65701
1016.63259	0.65660
1014.57879	0.65641
1012.52498	0.65605
1010.47118	0.65568
1008.41738	0.65590
1006.36357	0.65724
1004.30977	0.65972
1002.25597	0.66303
1000.20216	0.66726
998.14836	0.67239
996.09456	0.67786
994.04075	0.68336
991.98695	0.68930
989.93315	0.69594
987.87934	0.70328
985.82554	0.71126
983.77174	0.71967
981.71793	0.72858
979.66413	0.73792
977.61033	0.74766
975.55652	0.75794
973.50272	0.76801
971.44892	0.77723
969.39511	0.78608
967.34131	0.79488
965.28751	0.80296
963.23371	0.80995
961.17990	0.81618
959.12610	0.82158
957.07230	0.82607
955.01849	0.83021
952.96469	0.83401
950.91089	0.83729
948.85708	0.84013
946.80328	0.84248
944.74948	0.84455
942.69567	0.84713
940.64187	0.85034
938.58807	0.85307
936.53426	0.85476
934.48046	0.85638
932.42666	0.85856
930.37285	0.86044
928.31905	0.86180
926.26525	0.86312
924.21144	0.86421
922.15764	0.86512
920.10384	0.86587
918.05003	0.86608
915.99623	0.86603
913.94243	0.86639
911.88862	0.86741
909.83482	0.86931
907.78102	0.87200
905.72722	0.87556
903.67341	0.87986
901.61961	0.88400
899.56581	0.88749
897.51200	0.89063
895.45820	0.89346
893.40440	0.89554
891.35059	0.89703
889.29679	0.89858
887.24299	0.90045
885.18918	0.90171
883.13538	0.90132
881.08158	0.89904
879.02777	0.89594
876.97397	0.89422
874.92017	0.89508
872.86636	0.89786
870.81256	0.90145
868.75876	0.90465
866.70495	0.90626
864.65115	0.90674
862.59735	0.90718
860.54354	0.90792
858.48974	0.90957
856.43594	0.91238
854.38213	0.91516
852.32833	0.91693
850.27453	0.91764
848.22073	0.91750
846.16692	0.91692
844.11312	0.91601
842.05932	0.91482
840.00551	0.91401
837.95171	0.91347
835.89791	0.91225
833.84410	0.91040
831.79030	0.90873
829.73650	0.90734
827.68269	0.90615
825.62889	0.90601
823.57509	0.90668
821.52128	0.90691
819.46748	0.90703
817.41368	0.90727
815.35987	0.90681
813.30607	0.90591
811.25227	0.90460
809.19846	0.90166
807.14466	0.89752
805.09086	0.89320
803.03705	0.88899
800.98325	0.88516
798.92945	0.88210
796.87565	0.88138
794.82184	0.88319
792.76804	0.88529
790.71424	0.88622
788.66043	0.88590
786.60663	0.88482
784.55283	0.88320
782.49902	0.88152
780.44522	0.88092
778.39142	0.88135
776.33761	0.88230
774.28381	0.88368
772.23001	0.88436
770.17620	0.88385
768.12240	0.88276
766.06860	0.88107
764.01479	0.87952
761.96099	0.87907
759.90719	0.87898
757.85338	0.87839
755.79958	0.87790
753.74578	0.87828
751.69197	0.87880
749.63817	0.87875
747.58437	0.87822
745.53056	0.87770
743.47676	0.87776
741.42296	0.87808
739.36916	0.87713
737.31535	0.87271
735.26155	0.85929
733.20775	0.82772
731.15394	0.78807
729.10014	0.77224
727.04634	0.78259
724.99253	0.78591
722.93873	0.75869
720.88493	0.70486
718.83112	0.66439
716.77732	0.67643
714.72352	0.72758
712.66971	0.78034
710.61591	0.81526
708.56211	0.83406
706.50830	0.84421
704.45450	0.85023
702.40070	0.85398
700.34689	0.85600
698.29309	0.85669
696.23929	0.85754
694.18548	0.85927
692.13168	0.86111
690.07788	0.86283
688.02408	0.86407
685.97027	0.86432
683.91647	0.86420
681.86267	0.86443
679.80886	0.86471
677.75506	0.86518
675.70126	0.86591
673.64745	0.86682
671.59365	0.86822
669.53985	0.86967
667.48604	0.87012
665.43224	0.86904
663.37844	0.86707
661.32463	0.86560
659.27083	0.86560
657.21703	0.86514
655.16322	0.86380
653.10942	0.86342
651.05562	0.86336
649.00181	0.86231
646.94801	0.86182
644.89421	0.86305
642.84040	0.86491
640.78660	0.86626
638.73280	0.86720
636.67899	0.86827
634.62519	0.86874
632.57139	0.86819
630.51759	0.86726
628.46378	0.86572
626.40998	0.86318
624.35618	0.86105
622.30237	0.85983
620.24857	0.85774
618.19477	0.85508
616.14096	0.85437
614.08716	0.85544
612.03336	0.85595
609.97955	0.85582
607.92575	0.85545
605.87195	0.85401
603.81814	0.85162
601.76434	0.84926
599.71054	0.84710
597.65673	0.84564
595.60293	0.84476
593.54913	0.84240
591.49532	0.83922
589.44152	0.83808
587.38772	0.83792
585.33391	0.83634
583.28011	0.83419
581.22631	0.83356
579.17250	0.83456
577.11870	0.83540
575.06490	0.83498
573.01110	0.83341
570.95729	0.83073
568.90349	0.82779
566.84969	0.82498
564.79588	0.82109
562.74208	0.81682
560.68828	0.81305
558.63447	0.80903
556.58067	0.80520
554.52687	0.80191
552.47306	0.79901
550.41926	0.79654
548.36546	0.79397
546.31165	0.79126
544.25785	0.78799
542.20405	0.78307
540.15024	0.77785
538.09644	0.77321
536.04264	0.76878
533.98883	0.76510
531.93503	0.76329
529.88123	0.76463
527.82742	0.76823
525.77362	0.77201
523.71982	0.77424
521.66602	0.77545
519.61221	0.77721
517.55841	0.77945
515.50461	0.78102
513.45080	0.78211
511.39700	0.78440
509.34320	0.78905
507.28939	0.79493
505.23559	0.79880
503.18179	0.80127
501.12798	0.80260
499.07418	0.80030
497.02038	0.79750
494.96657	0.79758
492.91277	0.79697
490.85897	0.79200
488.80516	0.78569
486.75136	0.77975
484.69756	0.77137
482.64375	0.76020
480.58995	0.74819
478.53615	0.73474
476.48234	0.72059
474.42854	0.70871
472.37474	0.70112
470.32093	0.69893
468.26713	0.70123
466.21333	0.70596
464.15953	0.71196
462.10572	0.71814
460.05192	0.72337
457.99812	0.73004
455.94431	0.73790
453.89051	0.74465
451.83671	0.75157
449.78290	0.75753
447.72910	0.76151
445.67530	0.76406
443.62149	0.76575
441.56769	0.76740
439.51389	0.76963
437.46008	0.77088
435.40628	0.76763
433.35248	0.76311
431.29867	0.76086
429.24487	0.75778
427.19107	0.75779
425.13726	0.76783
423.08346	0.78186
421.02966	0.78899
418.97585	0.79207
416.92205	0.79213
414.86825	0.78780
412.81445	0.78837
410.76064	0.79846
408.70684	0.80884
406.65304	0.81571
404.59923	0.82354
402.54543	0.82771
400.49163	0.82558
398.43782	0.82424
