3996.70104	0.98857
3994.64724	0.98810
3992.59344	0.98805
3990.53964	0.98811
3988.48583	0.98807
3986.43203	0.98773
3984.37823	0.98764
3982.32442	0.98813
3980.27062	0.98856
3978.21682	0.98866
3976.16301	0.98872
3974.10921	0.98847
3972.05541	0.98807
3970.00160	0.98830
3967.94780	0.98883
3965.89400	0.98893
3963.84019	0.98881
3961.78639	0.98881
3959.73259	0.98867
3957.67878	0.98845
3955.62498	0.98835
3953.57118	0.98827
3951.51737	0.98817
3949.46357	0.98835
3947.40977	0.98851
3945.35596	0.98806
3943.30216	0.98771
3941.24836	0.98821
3939.19455	0.98878
3937.14075	0.98874
3935.08695	0.98872
3933.03315	0.98900
3930.97934	0.98878
3928.92554	0.98810
3926.87174	0.98796
3924.81793	0.98819
3922.76413	0.98794
3920.71033	0.98767
3918.65652	0.98793
3916.60272	0.98813
3914.54892	0.98819
3912.49511	0.98835
3910.44131	0.98871
3908.38751	0.98920
3906.33370	0.98947
3904.27990	0.98962
3902.22610	0.98936
3900.17229	0.98884
3898.11849	0.98898
3896.06469	0.98927
3894.01088	0.98897
3891.95708	0.98832
3889.90328	0.98788
3887.84947	0.98772
3885.79567	0.98801
3883.74187	0.98847
3881.68807	0.98809
3879.63426	0.98752
3877.58046	0.98754
3875.52666	0.98773
3873.47285	0.98827
3871.41905	0.98871
3869.36525	0.98857
3867.31144	0.98852
3865.25764	0.98859
3863.20384	0.98889
3861.15003	0.98936
3859.09623	0.98955
3857.04243	0.98918
3854.98862	0.98821
3852.93482	0.98743
3850.88102	0.98775
3848.82721	0.98851
3846.77341	0.98913
3844.71961	0.98923
3842.66580	0.98904
3840.61200	0.98874
3838.55820	0.98827
3836.50439	0.98803
3834.45059	0.98817
3832.39679	0.98850
3830.34298	0.98885
3828.28918	0.98924
3826.23538	0.98963
3824.18158	0.98951
3822.12777	0.98931
3820.07397	0.98949
3818.02017	0.98939
3815.96636	0.98924
3813.91256	0.98912
3811.85876	0.98862
3809.80495	0.98821
3807.75115	0.98842
3805.69735	0.98900
3803.64354	0.98964
3801.58974	0.99025
3799.53594	0.99021
3797.48213	0.98979
3795.42833	0.98917
3793.37453	0.98837
3791.32072	0.98780
3789.26692	0.98769
3787.21312	0.98814
3785.15931	0.98886
3783.10551	0.98932
3781.05171	0.98917
3778.99790	0.98827
3776.94410	0.98748
3774.89030	0.98738
3772.83650	0.98776
3770.78269	0.98832
3768.72889	0.98861
3766.67509	0.98866
3764.62128	0.98865
3762.56748	0.98858
3760.51368	0.98884
3758.45987	0.98890
3756.40607	0.98805
3754.35227	0.98733
3752.29846	0.98762
3750.24466	0.98818
3748.19086	0.98808
3746.13705	0.98804
3744.08325	0.98880
3742.02945	0.98975
3739.97564	0.99006
3737.92184	0.99013
3735.86804	0.99023
3733.81423	0.98965
3731.76043	0.98888
3729.70663	0.98880
3727.65282	0.98907
3725.59902	0.98929
3723.54522	0.98911
3721.49141	0.98847
3719.43761	0.98824
3717.38381	0.98890
3715.33001	0.98981
3713.27620	0.99001
3711.22240	0.98900
3709.16860	0.98826
3707.11479	0.98845
3705.06099	0.98850
3703.00719	0.98841
3700.95338	0.98862
3698.89958	0.98876
3696.84578	0.98844
3694.79197	0.98786
3692.73817	0.98755
3690.68437	0.98767
3688.63056	0.98762
3686.57676	0.98732
3684.52296	0.98719
3682.46915	0.98676
3680.41535	0.98629
3678.36155	0.98706
3676.30774	0.98840
3674.25394	0.98811
3672.20014	0.98743
3670.14633	0.98747
3668.09253	0.98734
3666.03873	0.98720
3663.98492	0.98757
3661.93112	0.98799
3659.87732	0.98799
3657.82352	0.98771
3655.76971	0.98704
3653.71591	0.98587
3651.66211	0.98468
3649.60830	0.98433
3647.55450	0.98497
3645.50070	0.98533
3643.44689	0.98544
3641.39309	0.98547
3639.33929	0.98523
3637.28548	0.98487
3635.23168	0.98484
3633.17788	0.98503
3631.12407	0.98498
3629.07027	0.98469
3627.01647	0.98486
3624.96266	0.98518
3622.90886	0.98512
3620.85506	0.98513
3618.80125	0.98521
3616.74745	0.98429
3614.69365	0.98296
3612.63984	0.98281
3610.58604	0.98368
3608.53224	0.98408
3606.47844	0.98365
3604.42463	0.98320
3602.37083	0.98316
3600.31703	0.98338
3598.26322	0.98355
3596.20942	0.98363
3594.15562	0.98366
3592.10181	0.98328
3590.04801	0.98280
3587.99421	0.98275
3585.94040	0.98286
3583.88660	0.98250
3581.83280	0.98197
3579.77899	0.98177
3577.72519	0.98201
3575.67139	0.98217
3573.61758	0.98207
3571.56378	0.98214
3569.50998	0.98221
3567.45617	0.98219
3565.40237	0.98182
3563.34857	0.98098
3561.29476	0.98045
3559.24096	0.98053
3557.18716	0.98093
3555.13335	0.98123
3553.07955	0.98121
3551.02575	0.98111
3548.97195	0.98131
3546.91814	0.98180
3544.86434	0.98216
3542.81054	0.98212
3540.75673	0.98188
3538.70293	0.98160
3536.64913	0.98140
3534.59532	0.98124
3532.54152	0.98124
3530.48772	0.98120
3528.43391	0.98073
3526.38011	0.98033
3524.32631	0.98017
3522.27250	0.97982
3520.21870	0.97968
3518.16490	0.97991
3516.11109	0.97998
3514.05729	0.98004
3512.00349	0.98033
3509.94968	0.98027
3507.89588	0.97951
3505.84208	0.97870
3503.78827	0.97859
3501.73447	0.97889
3499.68067	0.97893
3497.62687	0.97871
3495.57306	0.97873
3493.51926	0.97888
3491.46546	0.97898
3489.41165	0.97927
3487.35785	0.97922
3485.30405	0.97860
3483.25024	0.97845
3481.19644	0.97907
3479.14264	0.97940
3477.08883	0.97923
3475.03503	0.97907
3472.98123	0.97871
3470.92742	0.97825
3468.87362	0.97818
3466.81982	0.97814
3464.76601	0.97773
3462.71221	0.97773
3460.65841	0.97834
3458.60460	0.97879
3456.55080	0.97879
3454.49700	0.97846
3452.44319	0.97806
3450.38939	0.97803
3448.33559	0.97839
3446.28178	0.97826
3444.22798	0.97745
3442.17418	0.97712
3440.12038	0.97751
3438.06657	0.97776
3436.01277	0.97751
3433.95897	0.97736
3431.90516	0.97741
3429.85136	0.97686
3427.79756	0.97622
3425.74375	0.97645
3423.68995	0.97693
3421.63615	0.97687
3419.58234	0.97659
3417.52854	0.97652
3415.47474	0.97659
3413.42093	0.97652
3411.36713	0.97665
3409.31333	0.97708
3407.25952	0.97695
3405.20572	0.97642
3403.15192	0.97633
3401.09811	0.97658
3399.04431	0.97685
3396.99051	0.97677
3394.93670	0.97647
3392.88290	0.97660
3390.82910	0.97699
3388.77529	0.97727
3386.72149	0.97736
3384.66769	0.97718
3382.61389	0.97697
3380.56008	0.97675
3378.50628	0.97684
3376.45248	0.97742
3374.39867	0.97753
3372.34487	0.97713
3370.29107	0.97720
3368.23726	0.97745
3366.18346	0.97722
3364.12966	0.97674
3362.07585	0.97649
3360.02205	0.97666
3357.96825	0.97698
3355.91444	0.97690
3353.86064	0.97658
3351.80684	0.97676
3349.75303	0.97724
3347.69923	0.97751
3345.64543	0.97766
3343.59162	0.97763
3341.53782	0.97749
3339.48402	0.97708
3337.43021	0.97655
3335.37641	0.97678
3333.32261	0.97753
3331.26881	0.97789
3329.21500	0.97796
3327.16120	0.97804
3325.10740	0.97793
3323.05359	0.97760
3320.99979	0.97730
3318.94599	0.97731
3316.89218	0.97764
3314.83838	0.97774
3312.78458	0.97763
3310.73077	0.97774
3308.67697	0.97758
3306.62317	0.97721
3304.56936	0.97732
3302.51556	0.97752
3300.46176	0.97765
3298.40795	0.97791
3296.35415	0.97792
3294.30035	0.97784
3292.24654	0.97807
3290.19274	0.97810
3288.13894	0.97780
3286.08513	0.97756
3284.03133	0.97763
3281.97753	0.97807
3279.92372	0.97848
3277.86992	0.97851
3275.81612	0.97851
3273.76232	0.97871
3271.70851	0.97876
3269.65471	0.97864
3267.60091	0.97849
3265.54710	0.97818
3263.49330	0.97805
3261.43950	0.97847
3259.38569	0.97887
3257.33189	0.97882
3255.27809	0.97851
3253.22428	0.97812
3251.17048	0.97776
3249.11668	0.97762
3247.06287	0.97797
3245.00907	0.97847
3242.95527	0.97834
3240.90146	0.97789
3238.84766	0.97805
3236.79386	0.97862
3234.74005	0.97892
3232.68625	0.97892
3230.63245	0.97889
3228.57864	0.97904
3226.52484	0.97924
3224.47104	0.97916
3222.41724	0.97912
3220.36343	0.97930
3218.30963	0.97919
3216.25583	0.97887
3214.20202	0.97874
3212.14822	0.97892
3210.09442	0.97914
3208.04061	0.97886
3205.98681	0.97849
3203.93301	0.97871
3201.87920	0.97927
3199.82540	0.97959
3197.77160	0.97961
3195.71779	0.97937
3193.66399	0.97924
3191.61019	0.97964
3189.55638	0.98009
3187.50258	0.98008
3185.44878	0.97996
3183.39497	0.98034
3181.34117	0.98117
3179.28737	0.98168
3177.23356	0.98141
3175.17976	0.98083
3173.12596	0.98065
3171.07215	0.98088
3169.01835	0.98103
3166.96455	0.98079
3164.91075	0.98042
3162.85694	0.98038
3160.80314	0.98078
3158.74934	0.98116
3156.69553	0.98100
3154.64173	0.98068
3152.58793	0.98096
3150.53412	0.98189
3148.48032	0.98265
3146.42652	0.98238
3144.37271	0.98167
3142.31891	0.98143
3140.26511	0.98137
3138.21130	0.98133
3136.15750	0.98147
3134.10370	0.98176
3132.04989	0.98197
3129.99609	0.98208
3127.94229	0.98210
3125.88848	0.98190
3123.83468	0.98200
3121.78088	0.98252
3119.72707	0.98266
3117.67327	0.98236
3115.61947	0.98226
3113.56566	0.98236
3111.51186	0.98241
3109.45806	0.98246
3107.40426	0.98232
3105.35045	0.98196
3103.29665	0.98192
3101.24285	0.98241
3099.18904	0.98298
3097.13524	0.98319
3095.08144	0.98303
3093.02763	0.98294
3090.97383	0.98304
3088.92003	0.98299
3086.86622	0.98267
3084.81242	0.98215
3082.75862	0.98195
3080.70481	0.98237
3078.65101	0.98295
3076.59721	0.98331
3074.54340	0.98345
3072.48960	0.98315
3070.43580	0.98241
3068.38199	0.98193
3066.32819	0.98192
3064.27439	0.98215
3062.22058	0.98242
3060.16678	0.98240
3058.11298	0.98226
3056.05918	0.98233
3054.00537	0.98232
3051.95157	0.98223
3049.89777	0.98260
3047.84396	0.98336
3045.79016	0.98382
3043.73636	0.98392
3041.68255	0.98389
3039.62875	0.98364
3037.57495	0.98347
3035.52114	0.98358
3033.46734	0.98332
3031.41354	0.98261
3029.35973	0.98191
3027.30593	0.98143
3025.25213	0.98118
3023.19832	0.98116
3021.14452	0.98153
3019.09072	0.98212
3017.03691	0.98260
3014.98311	0.98280
3012.92931	0.98282
3010.87550	0.98292
3008.82170	0.98303
3006.76790	0.98315
3004.71409	0.98320
3002.66029	0.98304
3000.60649	0.98310
2998.55269	0.98336
2996.49888	0.98317
2994.44508	0.98278
2992.39128	0.98279
2990.33747	0.98308
2988.28367	0.98325
2986.22987	0.98338
2984.17606	0.98364
2982.12226	0.98398
2980.06846	0.98425
2978.01465	0.98441
2975.96085	0.98451
2973.90705	0.98442
2971.85324	0.98399
2969.79944	0.98348
2967.74564	0.98312
2965.69183	0.98308
2963.63803	0.98363
2961.58423	0.98409
2959.53042	0.98393
2957.47662	0.98385
2955.42282	0.98408
2953.36901	0.98407
2951.31521	0.98378
2949.26141	0.98381
2947.20761	0.98397
2945.15380	0.98377
2943.10000	0.98333
2941.04620	0.98283
2938.99239	0.98248
2936.93859	0.98250
2934.88479	0.98271
2932.83098	0.98256
2930.77718	0.98216
2928.72338	0.98207
2926.66957	0.98201
2924.61577	0.98166
2922.56197	0.98130
2920.50816	0.98104
2918.45436	0.98104
2916.40056	0.98136
2914.34675	0.98172
2912.29295	0.98211
2910.23915	0.98229
2908.18534	0.98197
2906.13154	0.98172
2904.07774	0.98201
2902.02393	0.98241
2899.97013	0.98269
2897.91633	0.98302
2895.86252	0.98323
2893.80872	0.98324
2891.75492	0.98344
2889.70112	0.98373
2887.64731	0.98374
2885.59351	0.98359
2883.53971	0.98344
2881.48590	0.98330
2879.43210	0.98336
2877.37830	0.98354
2875.32449	0.98361
2873.27069	0.98391
2871.21689	0.98423
2869.16308	0.98408
2867.10928	0.98379
2865.05548	0.98388
2863.00167	0.98430
2860.94787	0.98465
2858.89407	0.98483
2856.84026	0.98480
2854.78646	0.98447
2852.73266	0.98417
2850.67885	0.98413
2848.62505	0.98430
2846.57125	0.98436
2844.51744	0.98426
2842.46364	0.98436
2840.40984	0.98458
2838.35603	0.98466
2836.30223	0.98479
2834.24843	0.98499
2832.19463	0.98500
2830.14082	0.98492
2828.08702	0.98502
2826.03322	0.98527
2823.97941	0.98554
2821.92561	0.98591
2819.87181	0.98613
2817.81800	0.98576
2815.76420	0.98531
2813.71040	0.98510
2811.65659	0.98463
2809.60279	0.98404
2807.54899	0.98401
2805.49518	0.98461
2803.44138	0.98524
2801.38758	0.98561
2799.33377	0.98565
2797.27997	0.98548
2795.22617	0.98563
2793.17236	0.98600
2791.11856	0.98614
2789.06476	0.98586
2787.01095	0.98535
2784.95715	0.98522
2782.90335	0.98562
2780.84955	0.98594
2778.79574	0.98583
2776.74194	0.98562
2774.68814	0.98561
2772.63433	0.98558
2770.58053	0.98551
2768.52673	0.98550
2766.47292	0.98549
2764.41912	0.98546
2762.36532	0.98549
2760.31151	0.98568
2758.25771	0.98590
2756.20391	0.98600
2754.15010	0.98583
2752.09630	0.98532
2750.04250	0.98490
2747.98869	0.98480
2745.93489	0.98497
2743.88109	0.98532
2741.82728	0.98559
2739.77348	0.98566
2737.71968	0.98577
2735.66587	0.98611
2733.61207	0.98630
2731.55827	0.98612
2729.50446	0.98626
2727.45066	0.98661
2725.39686	0.98627
2723.34306	0.98585
2721.28925	0.98613
2719.23545	0.98636
2717.18165	0.98613
2715.12784	0.98593
2713.07404	0.98579
2711.02024	0.98553
2708.96643	0.98541
2706.91263	0.98543
2704.85883	0.98534
2702.80502	0.98549
2700.75122	0.98602
2698.69742	0.98624
2696.64361	0.98612
2694.58981	0.98613
2692.53601	0.98597
2690.48220	0.98567
2688.42840	0.98578
2686.37460	0.98627
2684.32079	0.98664
2682.26699	0.98656
2680.21319	0.98622
2678.15938	0.98592
2676.10558	0.98594
2674.05178	0.98624
2671.99797	0.98630
2669.94417	0.98626
2667.89037	0.98652
2665.83657	0.98660
2663.78276	0.98615
2661.72896	0.98569
2659.67516	0.98549
2657.62135	0.98541
2655.56755	0.98537
2653.51375	0.98523
2651.45994	0.98504
2649.40614	0.98485
2647.35234	0.98482
2645.29853	0.98502
2643.24473	0.98513
2641.19093	0.98518
2639.13712	0.98537
2637.08332	0.98568
2635.02952	0.98596
2632.97571	0.98593
2630.92191	0.98552
2628.86811	0.98523
2626.81430	0.98543
2624.76050	0.98566
2622.70670	0.98545
2620.65289	0.98546
2618.59909	0.98597
2616.54529	0.98616
2614.49149	0.98590
2612.43768	0.98558
2610.38388	0.98524
2608.33008	0.98524
2606.27627	0.98570
2604.22247	0.98597
2602.16867	0.98566
2600.11486	0.98503
2598.06106	0.98491
2596.00726	0.98514
2593.95345	0.98496
2591.89965	0.98475
2589.84585	0.98504
2587.79204	0.98555
2585.73824	0.98605
2583.68444	0.98654
2581.63063	0.98667
2579.57683	0.98642
2577.52303	0.98617
2575.46922	0.98605
2573.41542	0.98599
2571.36162	0.98593
2569.30781	0.98605
2567.25401	0.98609
2565.20021	0.98590
2563.14640	0.98580
2561.09260	0.98579
2559.03880	0.98587
2556.98500	0.98608
2554.93119	0.98634
2552.87739	0.98676
2550.82359	0.98699
2548.76978	0.98694
2546.71598	0.98720
2544.66218	0.98733
2542.60837	0.98669
2540.55457	0.98597
2538.50077	0.98584
2536.44696	0.98612
2534.39316	0.98648
2532.33936	0.98656
2530.28555	0.98668
2528.23175	0.98692
2526.17795	0.98649
2524.12414	0.98591
2522.07034	0.98588
2520.01654	0.98556
2517.96273	0.98483
2515.90893	0.98478
2513.85513	0.98540
2511.80132	0.98578
2509.74752	0.98547
2507.69372	0.98481
2505.63992	0.98475
2503.58611	0.98553
2501.53231	0.98628
2499.47851	0.98658
2497.42470	0.98675
2495.37090	0.98691
2493.31710	0.98687
2491.26329	0.98675
2489.20949	0.98666
2487.15569	0.98656
2485.10188	0.98685
2483.04808	0.98748
2480.99428	0.98734
2478.94047	0.98665
2476.88667	0.98658
2474.83287	0.98660
2472.77906	0.98641
2470.72526	0.98673
2468.67146	0.98718
2466.61765	0.98715
2464.56385	0.98703
2462.51005	0.98705
2460.45624	0.98702
2458.40244	0.98704
2456.34864	0.98693
2454.29483	0.98661
2452.24103	0.98650
2450.18723	0.98671
2448.13343	0.98684
2446.07962	0.98671
2444.02582	0.98682
2441.97202	0.98727
2439.91821	0.98757
2437.86441	0.98756
2435.81061	0.98744
2433.75680	0.98723
2431.70300	0.98694
2429.64920	0.98668
2427.59539	0.98659
2425.54159	0.98663
2423.48779	0.98680
2421.43398	0.98672
2419.38018	0.98609
2417.32638	0.98614
2415.27257	0.98713
2413.21877	0.98775
2411.16497	0.98791
2409.11116	0.98829
2407.05736	0.98881
2405.00356	0.98874
2402.94975	0.98805
2400.89595	0.98759
2398.84215	0.98758
2396.78834	0.98759
2394.73454	0.98771
2392.68074	0.98822
2390.62694	0.98857
2388.57313	0.98813
2386.51933	0.98732
2384.46553	0.98711
2382.41172	0.98752
2380.35792	0.98772
2378.30412	0.98755
2376.25031	0.98775
2374.19651	0.98826
2372.14271	0.98842
2370.08890	0.98833
2368.03510	0.98863
2365.98130	0.98862
2363.92749	0.98761
2361.87369	0.98694
2359.81989	0.98666
2357.76608	0.98604
2355.71228	0.98607
2353.65848	0.98702
2351.60467	0.98728
2349.55087	0.98649
2347.49707	0.98561
2345.44326	0.98543
2343.38946	0.98622
2341.33566	0.98703
2339.28186	0.98725
2337.22805	0.98747
2335.17425	0.98758
2333.12045	0.98709
2331.06664	0.98625
2329.01284	0.98586
2326.95904	0.98613
2324.90523	0.98599
2322.85143	0.98520
2320.79763	0.98512
2318.74382	0.98582
2316.69002	0.98621
2314.63622	0.98610
2312.58241	0.98598
2310.52861	0.98578
2308.47481	0.98556
2306.42100	0.98548
2304.36720	0.98575
2302.31340	0.98639
2300.25959	0.98662
2298.20579	0.98629
2296.15199	0.98617
2294.09818	0.98594
2292.04438	0.98513
2289.99058	0.98492
2287.93677	0.98559
2285.88297	0.98571
2283.82917	0.98512
2281.77537	0.98450
2279.72156	0.98434
2277.66776	0.98464
2275.61396	0.98492
2273.56015	0.98558
2271.50635	0.98628
2269.45255	0.98594
2267.39874	0.98518
2265.34494	0.98477
2263.29114	0.98468
2261.23733	0.98568
2259.18353	0.98742
2257.12973	0.98788
2255.07592	0.98713
2253.02212	0.98657
2250.96832	0.98625
2248.91451	0.98608
2246.86071	0.98635
2244.80691	0.98648
2242.75310	0.98591
2240.69930	0.98560
2238.64550	0.98670
2236.59169	0.98829
2234.53789	0.98822
2232.48409	0.98673
2230.43029	0.98572
2228.37648	0.98604
2226.32268	0.98735
2224.26888	0.98797
2222.21507	0.98811
2220.16127	0.98936
2218.10747	0.98960
2216.05366	0.98793
2213.99986	0.98649
2211.94606	0.98544
2209.89225	0.98556
2207.83845	0.98714
2205.78465	0.98861
2203.73084	0.98946
2201.67704	0.98860
2199.62324	0.98684
2197.56943	0.98744
2195.51563	0.98849
2193.46183	0.98716
2191.40802	0.98665
2189.35422	0.98796
2187.30042	0.98875
2185.24661	0.98902
2183.19281	0.98977
2181.13901	0.99094
2179.08520	0.98987
2177.03140	0.98717
2174.97760	0.98667
2172.92380	0.98725
2170.86999	0.98678
2168.81619	0.98628
2166.76239	0.98614
2164.70858	0.98626
2162.65478	0.98752
2160.60098	0.99039
2158.54717	0.99368
2156.49337	0.99408
2154.43957	0.99144
2152.38576	0.98898
2150.33196	0.98737
2148.27816	0.98685
2146.22435	0.98838
2144.17055	0.98990
2142.11675	0.98885
2140.06294	0.98701
2138.00914	0.98625
2135.95534	0.98606
2133.90153	0.98740
2131.84773	0.98928
2129.79393	0.98958
2127.74012	0.98923
2125.68632	0.98878
2123.63252	0.98854
2121.57871	0.98909
2119.52491	0.98920
2117.47111	0.98854
2115.41731	0.98756
2113.36350	0.98621
2111.30970	0.98574
2109.25590	0.98671
2107.20209	0.98759
2105.14829	0.98768
2103.09449	0.98791
2101.04068	0.98848
2098.98688	0.98838
2096.93308	0.98736
2094.87927	0.98694
2092.82547	0.98785
2090.77167	0.98834
2088.71786	0.98733
2086.66406	0.98639
2084.61026	0.98672
2082.55645	0.98738
2080.50265	0.98764
2078.44885	0.98734
2076.39504	0.98640
2074.34124	0.98582
2072.28744	0.98706
2070.23363	0.98938
2068.17983	0.99039
2066.12603	0.99031
2064.07223	0.98966
2062.01842	0.98822
2059.96462	0.98800
2057.91082	0.98904
2055.85701	0.98939
2053.80321	0.98942
2051.74941	0.98903
2049.69560	0.98717
2047.64180	0.98588
2045.58800	0.98700
2043.53419	0.98755
2041.48039	0.98611
2039.42659	0.98608
2037.37278	0.98822
2035.31898	0.98940
2033.26518	0.98909
2031.21137	0.98765
2029.15757	0.98483
2027.10377	0.98433
2025.04996	0.98730
2022.99616	0.98984
2020.94236	0.98941
2018.88855	0.98764
2016.83475	0.98789
2014.78095	0.98866
2012.72714	0.98762
2010.67334	0.98635
2008.61954	0.98685
2006.56574	0.98950
2004.51193	0.99099
2002.45813	0.99033
2000.40433	0.99131
1998.35052	0.99339
1996.29672	0.99291
1994.24292	0.99057
1992.18911	0.98789
1990.13531	0.98538
1988.08151	0.98483
1986.02770	0.98606
1983.97390	0.98552
1981.92010	0.98250
1979.86629	0.98199
1977.81249	0.98595
1975.75869	0.98957
1973.70488	0.99151
1971.65108	0.99302
1969.59728	0.99228
1967.54347	0.98997
1965.48967	0.98905
1963.43587	0.98929
1961.38206	0.98912
1959.32826	0.98879
1957.27446	0.98858
1955.22066	0.98807
1953.16685	0.98731
1951.11305	0.98717
1949.05925	0.98784
1947.00544	0.98823
1944.95164	0.98808
1942.89784	0.98770
1940.84403	0.98741
1938.79023	0.98775
1936.73643	0.98889
1934.68262	0.98986
1932.62882	0.98952
1930.57502	0.98867
1928.52121	0.98835
1926.46741	0.98860
1924.41361	0.98939
1922.35980	0.98989
1920.30600	0.98891
1918.25220	0.98750
1916.19839	0.98738
1914.14459	0.98806
1912.09079	0.98865
1910.03698	0.98863
1907.98318	0.98791
1905.92938	0.98779
1903.87557	0.98829
1901.82177	0.98834
1899.76797	0.98834
1897.71417	0.98842
1895.66036	0.98810
1893.60656	0.98795
1891.55276	0.98850
1889.49895	0.98904
1887.44515	0.98878
1885.39135	0.98815
1883.33754	0.98783
1881.28374	0.98777
1879.22994	0.98817
1877.17613	0.98908
1875.12233	0.98941
1873.06853	0.98880
1871.01472	0.98793
1868.96092	0.98741
1866.90712	0.98777
1864.85331	0.98818
1862.79951	0.98780
1860.74571	0.98740
1858.69190	0.98757
1856.63810	0.98766
1854.58430	0.98755
1852.53049	0.98776
1850.47669	0.98810
1848.42289	0.98839
1846.36908	0.98865
1844.31528	0.98855
1842.26148	0.98849
1840.20768	0.98858
1838.15387	0.98816
1836.10007	0.98752
1834.04627	0.98736
1831.99246	0.98761
1829.93866	0.98767
1827.88486	0.98719
1825.83105	0.98663
1823.77725	0.98661
1821.72345	0.98735
1819.66964	0.98829
1817.61584	0.98867
1815.56204	0.98823
1813.50823	0.98748
1811.45443	0.98726
1809.40063	0.98774
1807.34682	0.98788
1805.29302	0.98729
1803.23922	0.98667
1801.18541	0.98622
1799.13161	0.98601
1797.07781	0.98641
1795.02400	0.98688
1792.97020	0.98671
1790.91640	0.98617
1788.86260	0.98593
1786.80879	0.98586
1784.75499	0.98602
1782.70119	0.98672
1780.64738	0.98743
1778.59358	0.98751
1776.53978	0.98713
1774.48597	0.98691
1772.43217	0.98718
1770.37837	0.98752
1768.32456	0.98731
1766.27076	0.98687
1764.21696	0.98682
1762.16315	0.98719
1760.10935	0.98760
1758.05555	0.98766
1756.00174	0.98719
1753.94794	0.98667
1751.89414	0.98663
1749.84033	0.98683
1747.78653	0.98693
1745.73273	0.98693
1743.67892	0.98691
1741.62512	0.98691
1739.57132	0.98666
1737.51751	0.98641
1735.46371	0.98674
1733.40991	0.98743
1731.35611	0.98752
1729.30230	0.98715
1727.24850	0.98685
1725.19470	0.98691
1723.14089	0.98710
1721.08709	0.98721
1719.03329	0.98747
1716.97948	0.98762
1714.92568	0.98733
1712.87188	0.98732
1710.81807	0.98741
1708.76427	0.98700
1706.71047	0.98624
1704.65666	0.98583
1702.60286	0.98568
1700.54906	0.98531
1698.49525	0.98506
1696.44145	0.98508
1694.38765	0.98514
1692.33384	0.98523
1690.28004	0.98519
1688.22624	0.98508
1686.17243	0.98513
1684.11863	0.98516
1682.06483	0.98476
1680.01103	0.98428
1677.95722	0.98392
1675.90342	0.98366
1673.84962	0.98341
1671.79581	0.98320
1669.74201	0.98306
1667.68821	0.98297
1665.63440	0.98292
1663.58060	0.98299
1661.52680	0.98281
1659.47299	0.98231
1657.41919	0.98197
1655.36539	0.98173
1653.31158	0.98129
1651.25778	0.98105
1649.20398	0.98084
1647.15017	0.98036
1645.09637	0.98029
1643.04257	0.98066
1640.98876	0.98082
1638.93496	0.98079
1636.88116	0.98104
1634.82735	0.98158
1632.77355	0.98158
1630.71975	0.98150
1628.66594	0.98162
1626.61214	0.98149
1624.55834	0.98127
1622.50454	0.98135
1620.45073	0.98153
1618.39693	0.98193
1616.34313	0.98244
1614.28932	0.98245
1612.23552	0.98218
1610.18172	0.98190
1608.12791	0.98165
1606.07411	0.98131
1604.02031	0.98100
1601.96650	0.98081
1599.91270	0.98047
1597.85890	0.98034
1595.80509	0.98074
1593.75129	0.98129
1591.69749	0.98196
1589.64368	0.98263
1587.58988	0.98259
1585.53608	0.98195
1583.48227	0.98135
1581.42847	0.98127
1579.37467	0.98170
1577.32086	0.98226
1575.26706	0.98242
1573.21326	0.98209
1571.15945	0.98165
1569.10565	0.98136
1567.05185	0.98121
1564.99805	0.98094
1562.94424	0.98080
1560.89044	0.98102
1558.83664	0.98074
1556.78283	0.97982
1554.72903	0.97932
1552.67523	0.97840
1550.62142	0.97722
1548.56762	0.97648
1546.51382	0.97593
1544.46001	0.97530
1542.40621	0.97475
1540.35241	0.97356
1538.29860	0.97219
1536.24480	0.97194
1534.19100	0.97148
1532.13719	0.96976
1530.08339	0.96823
1528.02959	0.96743
1525.97578	0.96640
1523.92198	0.96525
1521.86818	0.96410
1519.81437	0.96256
1517.76057	0.96099
1515.70677	0.95981
1513.65297	0.95903
1511.59916	0.95824
1509.54536	0.95733
1507.49156	0.95578
1505.43775	0.95365
1503.38395	0.95242
1501.33015	0.95121
1499.27634	0.94924
1497.22254	0.94623
1495.16874	0.94264
1493.11493	0.94009
1491.06113	0.93923
1489.00733	0.93965
1486.95352	0.94019
1484.89972	0.94035
1482.84592	0.93996
1480.79211	0.93910
1478.73831	0.93837
1476.68451	0.93782
1474.63070	0.93709
1472.57690	0.93612
1470.52310	0.93522
1468.46929	0.93459
1466.41549	0.93399
1464.36169	0.93321
1462.30788	0.93248
1460.25408	0.93204
1458.20028	0.93095
1456.14648	0.92741
1454.09267	0.92399
1452.03887	0.92231
1449.98507	0.92188
1447.93126	0.92224
1445.87746	0.92258
1443.82366	0.92251
1441.76985	0.92236
1439.71605	0.92248
1437.66225	0.92270
1435.60844	0.92285
1433.55464	0.92284
1431.50084	0.92251
1429.44703	0.92204
1427.39323	0.92170
1425.33943	0.92139
1423.28562	0.92101
1421.23182	0.92066
1419.17802	0.92024
1417.12421	0.91960
1415.07041	0.91892
1413.01661	0.91857
1410.96280	0.91849
1408.90900	0.91838
1406.85520	0.91851
1404.80139	0.91893
1402.74759	0.91939
1400.69379	0.92011
1398.63999	0.92120
1396.58618	0.92257
1394.53238	0.92415
1392.47858	0.92551
1390.42477	0.92682
1388.37097	0.92832
1386.31717	0.92967
1384.26336	0.93113
1382.20956	0.93312
1380.15576	0.93532
1378.10195	0.93730
1376.04815	0.93918
1373.99435	0.94097
1371.94054	0.94234
1369.88674	0.94349
1367.83294	0.94488
1365.77913	0.94658
1363.72533	0.94842
1361.67153	0.95018
1359.61772	0.95159
1357.56392	0.95295
1355.51012	0.95437
1353.45631	0.95558
1351.40251	0.95667
1349.34871	0.95786
1347.29491	0.95911
1345.24110	0.96017
1343.18730	0.96096
1341.13350	0.96165
1339.07969	0.96217
1337.02589	0.96273
1334.97209	0.96360
1332.91828	0.96432
1330.86448	0.96481
1328.81068	0.96559
1326.75687	0.96641
1324.70307	0.96690
1322.64927	0.96741
1320.59546	0.96802
1318.54166	0.96841
1316.48786	0.96873
1314.43405	0.96919
1312.38025	0.96972
1310.32645	0.97018
1308.27264	0.97054
1306.21884	0.97104
1304.16504	0.97174
1302.11123	0.97233
1300.05743	0.97267
1298.00363	0.97304
1295.94982	0.97344
1293.89602	0.97366
1291.84222	0.97384
1289.78842	0.97403
1287.73461	0.97412
1285.68081	0.97417
1283.62701	0.97442
1281.57320	0.97490
1279.51940	0.97545
1277.46560	0.97593
1275.41179	0.97607
1273.35799	0.97592
1271.30419	0.97582
1269.25038	0.97595
1267.19658	0.97651
1265.14278	0.97720
1263.08897	0.97732
1261.03517	0.97687
1258.98137	0.97637
1256.92756	0.97626
1254.87376	0.97658
1252.81996	0.97697
1250.76615	0.97715
1248.71235	0.97717
1246.65855	0.97733
1244.60474	0.97762
1242.55094	0.97752
1240.49714	0.97713
1238.44334	0.97692
1236.38953	0.97686
1234.33573	0.97684
1232.28193	0.97687
1230.22812	0.97683
1228.17432	0.97656
1226.12052	0.97621
1224.06671	0.97593
1222.01291	0.97554
1219.95911	0.97529
1217.90530	0.97535
1215.85150	0.97521
1213.79770	0.97475
1211.74389	0.97406
1209.69009	0.97316
1207.63629	0.97251
1205.58248	0.97196
1203.52868	0.97105
1201.47488	0.97023
1199.42107	0.96981
1197.36727	0.96928
1195.31347	0.96835
1193.25966	0.96731
1191.20586	0.96617
1189.15206	0.96484
1187.09825	0.96377
1185.04445	0.96307
1182.99065	0.96219
1180.93685	0.96100
1178.88304	0.95992
1176.82924	0.95923
1174.77544	0.95861
1172.72163	0.95760
1170.66783	0.95656
1168.61403	0.95593
1166.56022	0.95548
1164.50642	0.95481
1162.45262	0.95374
1160.39881	0.95288
1158.34501	0.95241
1156.29121	0.95156
1154.23740	0.95049
1152.18360	0.94982
1150.12980	0.94949
1148.07599	0.94917
1146.02219	0.94873
1143.96839	0.94822
1141.91458	0.94768
1139.86078	0.94714
1137.80698	0.94669
1135.75317	0.94626
1133.69937	0.94582
1131.64557	0.94552
1129.59176	0.94512
1127.53796	0.94431
1125.48416	0.94358
1123.43036	0.94288
1121.37655	0.94178
1119.32275	0.94087
1117.26895	0.94034
1115.21514	0.93960
1113.16134	0.93842
1111.10754	0.93720
1109.05373	0.93639
1106.99993	0.93591
1104.94613	0.93547
1102.89232	0.93486
1100.83852	0.93422
1098.78472	0.93385
1096.73091	0.93361
1094.67711	0.93302
1092.62331	0.93230
1090.56950	0.93200
1088.51570	0.93197
1086.46190	0.93175
1084.40809	0.93106
1082.35429	0.93013
1080.30049	0.92938
1078.24668	0.92887
1076.19288	0.92858
1074.13908	0.92829
1072.08528	0.92765
1070.03147	0.92667
1067.97767	0.92555
1065.92387	0.92460
1063.87006	0.92420
1061.81626	0.92412
1059.76246	0.92365
1057.70865	0.92249
1055.65485	0.92114
1053.60105	0.92000
1051.54724	0.91895
1049.49344	0.91794
1047.43964	0.91719
1045.38583	0.91629
1043.33203	0.91448
1041.27823	0.91220
1039.22442	0.91032
1037.17062	0.90871
1035.11682	0.90707
1033.06301	0.90547
1031.00921	0.90404
1028.95541	0.90293
1026.90160	0.90209
1024.84780	0.90135
1022.79400	0.90084
1020.74019	0.90064
1018.68639	0.90043
1016.63259	0.90003
1014.57879	0.89962
1012.52498	0.89945
1010.47118	0.89931
1008.41738	0.89880
1006.36357	0.89828
1004.30977	0.89824
1002.25597	0.89875
1000.20216	0.89947
998.14836	0.90015
996.09456	0.90104
994.04075	0.90197
991.98695	0.90268
989.93315	0.90360
987.87934	0.90469
985.82554	0.90577
983.77174	0.90681
981.71793	0.90771
979.66413	0.90901
977.61033	0.91078
975.55652	0.91239
973.50272	0.91404
971.44892	0.91595
969.39511	0.91776
967.34131	0.91915
965.28751	0.92031
963.23371	0.92173
961.17990	0.92337
959.12610	0.92500
957.07230	0.92670
955.01849	0.92826
952.96469	0.92935
950.91089	0.93032
948.85708	0.93153
946.80328	0.93249
944.74948	0.93299
942.69567	0.93364
940.64187	0.93484
938.58807	0.93637
936.53426	0.93790
934.48046	0.93895
932.42666	0.93929
930.37285	0.93959
928.31905	0.94038
926.26525	0.94142
924.21144	0.94199
922.15764	0.94199
920.10384	0.94229
918.05003	0.94310
915.99623	0.94375
913.94243	0.94383
911.88862	0.94338
909.83482	0.94283
907.78102	0.94288
905.72722	0.94354
903.67341	0.94441
901.61961	0.94526
899.56581	0.94623
897.51200	0.94779
895.45820	0.94953
893.40440	0.95075
891.35059	0.95153
889.29679	0.95172
887.24299	0.95088
885.18918	0.94803
883.13538	0.94211
881.08158	0.93335
879.02777	0.92343
876.97397	0.91478
874.92017	0.90923
872.86636	0.90821
870.81256	0.91235
868.75876	0.91952
866.70495	0.92600
864.65115	0.93024
862.59735	0.93348
860.54354	0.93627
858.48974	0.93759
856.43594	0.93761
854.38213	0.93809
852.32833	0.93994
850.27453	0.94188
848.22073	0.94298
846.16692	0.94454
844.11312	0.94669
842.05932	0.94774
840.00551	0.94803
837.95171	0.94874
835.89791	0.94939
833.84410	0.95001
831.79030	0.95086
829.73650	0.95125
827.68269	0.95110
825.62889	0.95102
823.57509	0.95149
821.52128	0.95267
819.46748	0.95383
817.41368	0.95417
815.35987	0.95388
813.30607	0.95319
811.25227	0.95233
809.19846	0.95189
807.14466	0.95147
805.09086	0.95040
803.03705	0.94915
800.98325	0.94859
798.92945	0.94891
796.87565	0.94953
794.82184	0.94984
792.76804	0.94984
790.71424	0.94984
788.66043	0.94993
786.60663	0.94977
784.55283	0.94892
782.49902	0.94754
780.44522	0.94665
778.39142	0.94679
776.33761	0.94671
774.28381	0.94551
772.23001	0.94465
770.17620	0.94444
768.12240	0.94326
766.06860	0.94128
764.01479	0.93954
761.96099	0.93789
759.90719	0.93619
757.85338	0.93487
755.79958	0.93432
753.74578	0.93437
751.69197	0.93446
749.63817	0.93459
747.58437	0.93478
745.53056	0.93520
743.47676	0.93683
741.42296	0.93913
739.36916	0.94070
737.31535	0.94173
735.26155	0.94257
733.20775	0.94327
731.15394	0.94402
729.10014	0.94448
727.04634	0.94449
724.99253	0.94461
722.93873	0.94511
720.88493	0.94494
718.83112	0.94321
716.77732	0.94052
714.72352	0.93775
712.66971	0.93598
710.61591	0.93572
708.56211	0.93499
706.50830	0.93143
704.45450	0.92415
702.40070	0.91330
700.34689	0.90027
698.29309	0.88840
696.23929	0.88427
694.18548	0.89236
692.13168	0.90736
690.07788	0.92017
688.02408	0.92728
685.97027	0.93037
683.91647	0.93256
681.86267	0.93416
679.80886	0.93364
677.75506	0.93279
675.70126	0.93306
673.64745	0.93317
671.59365	0.93305
669.53985	0.93276
667.48604	0.93241
665.43224	0.93305
663.37844	0.93431
661.32463	0.93569
659.27083	0.93644
657.21703	0.93570
655.16322	0.93374
653.10942	0.93205
651.05562	0.93168
649.00181	0.93218
646.94801	0.93213
644.89421	0.93125
642.84040	0.93072
640.78660	0.93046
638.73280	0.92993
636.67899	0.93017
634.62519	0.93107
632.57139	0.93105
630.51759	0.93003
628.46378	0.92887
626.40998	0.92837
624.35618	0.92870
622.30237	0.92885
620.24857	0.92846
618.19477	0.92813
616.14096	0.92769
614.08716	0.92654
612.03336	0.92498
609.97955	0.92373
607.92575	0.92253
605.87195	0.92142
603.81814	0.92118
601.76434	0.92150
599.71054	0.92188
597.65673	0.92198
595.60293	0.92105
593.54913	0.92001
591.49532	0.91986
589.44152	0.91960
587.38772	0.91915
585.33391	0.91913
583.28011	0.91903
581.22631	0.91862
579.17250	0.91786
577.11870	0.91563
575.06490	0.91311
573.01110	0.91384
570.95729	0.91644
568.90349	0.91676
566.84969	0.91458
564.79588	0.91246
562.74208	0.91076
560.68828	0.90865
558.63447	0.90671
556.58067	0.90428
554.52687	0.90168
552.47306	0.90138
550.41926	0.90197
548.36546	0.90089
546.31165	0.89948
544.25785	0.89840
542.20405	0.89700
540.15024	0.89574
538.09644	0.89448
536.04264	0.89291
533.98883	0.89178
531.93503	0.89162
529.88123	0.89218
527.82742	0.89406
525.77362	0.89720
523.71982	0.89930
521.66602	0.89953
519.61221	0.89909
517.55841	0.89963
515.50461	0.90186
513.45080	0.90466
511.39700	0.90608
509.34320	0.90553
507.28939	0.90542
505.23559	0.90666
503.18179	0.90669
501.12798	0.90506
499.07418	0.90326
497.02038	0.90166
494.96657	0.90131
492.91277	0.90293
490.85897	0.90542
488.80516	0.90608
486.75136	0.90208
484.69756	0.89465
482.64375	0.88789
480.58995	0.88414
478.53615	0.88121
476.48234	0.87525
474.42854	0.86949
472.37474	0.86925
470.32093	0.87057
468.26713	0.86999
466.21333	0.86934
464.15953	0.86857
462.10572	0.86990
460.05192	0.87517
457.99812	0.88071
455.94431	0.88072
453.89051	0.87394
451.83671	0.86735
449.78290	0.86764
447.72910	0.87262
445.67530	0.87848
443.62149	0.88168
441.56769	0.87952
439.51389	0.87484
437.46008	0.87060
435.40628	0.86948
433.35248	0.87211
431.29867	0.87288
429.24487	0.87004
427.19107	0.86627
425.13726	0.86374
423.08346	0.86437
421.02966	0.86567
418.97585	0.86547
416.92205	0.86621
414.86825	0.86733
412.81445	0.87032
410.76064	0.87666
408.70684	0.88162
406.65304	0.88039
404.59923	0.87508
402.54543	0.87218
400.49163	0.87167
398.43782	0.86733
