3996.70104	0.99586
3994.64724	0.99605
3992.59344	0.99599
3990.53964	0.99585
3988.48583	0.99543
3986.43203	0.99513
3984.37823	0.99525
3982.32442	0.99544
3980.27062	0.99570
3978.21682	0.99628
3976.16301	0.99677
3974.10921	0.99671
3972.05541	0.99628
3970.00160	0.99581
3967.94780	0.99570
3965.89400	0.99595
3963.84019	0.99611
3961.78639	0.99661
3959.73259	0.99738
3957.67878	0.99723
3955.62498	0.99650
3953.57118	0.99629
3951.51737	0.99624
3949.46357	0.99595
3947.40977	0.99579
3945.35596	0.99599
3943.30216	0.99633
3941.24836	0.99616
3939.19455	0.99591
3937.14075	0.99611
3935.08695	0.99622
3933.03315	0.99623
3930.97934	0.99654
3928.92554	0.99668
3926.87174	0.99644
3924.81793	0.99601
3922.76413	0.99568
3920.71033	0.99566
3918.65652	0.99608
3916.60272	0.99674
3914.54892	0.99697
3912.49511	0.99691
3910.44131	0.99666
3908.38751	0.99595
3906.33370	0.99520
3904.27990	0.99502
3902.22610	0.99552
3900.17229	0.99607
3898.11849	0.99651
3896.06469	0.99676
3894.01088	0.99670
3891.95708	0.99666
3889.90328	0.99692
3887.84947	0.99711
3885.79567	0.99716
3883.74187	0.99720
3881.68807	0.99680
3879.63426	0.99594
3877.58046	0.99556
3875.52666	0.99569
3873.47285	0.99601
3871.41905	0.99665
3869.36525	0.99693
3867.31144	0.99593
3865.25764	0.99512
3863.20384	0.99562
3861.15003	0.99618
3859.09623	0.99607
3857.04243	0.99586
3854.98862	0.99578
3852.93482	0.99597
3850.88102	0.99579
3848.82721	0.99541
3846.77341	0.99552
3844.71961	0.99620
3842.66580	0.99687
3840.61200	0.99708
3838.55820	0.99690
3836.50439	0.99667
3834.45059	0.99641
3832.39679	0.99588
3830.34298	0.99556
3828.28918	0.99606
3826.23538	0.99674
3824.18158	0.99667
3822.12777	0.99615
3820.07397	0.99570
3818.02017	0.99563
3815.96636	0.99570
3813.91256	0.99556
3811.85876	0.99558
3809.80495	0.99600
3807.75115	0.99640
3805.69735	0.99632
3803.64354	0.99600
3801.58974	0.99567
3799.53594	0.99537
3797.48213	0.99534
3795.42833	0.99595
3793.37453	0.99661
3791.32072	0.99665
3789.26692	0.99641
3787.21312	0.99603
3785.15931	0.99571
3783.10551	0.99571
3781.05171	0.99596
3778.99790	0.99642
3776.94410	0.99640
3774.89030	0.99590
3772.83650	0.99581
3770.78269	0.99644
3768.72889	0.99693
3766.67509	0.99647
3764.62128	0.99607
3762.56748	0.99638
3760.51368	0.99671
3758.45987	0.99683
3756.40607	0.99709
3754.35227	0.99741
3752.29846	0.99729
3750.24466	0.99719
3748.19086	0.99769
3746.13705	0.99729
3744.08325	0.99643
3742.02945	0.99648
3739.97564	0.99680
3737.92184	0.99727
3735.86804	0.99771
3733.81423	0.99738
3731.76043	0.99634
3729.70663	0.99507
3727.65282	0.99395
3725.59902	0.99419
3723.54522	0.99598
3721.49141	0.99678
3719.43761	0.99650
3717.38381	0.99644
3715.33001	0.99605
3713.27620	0.99541
3711.22240	0.99530
3709.16860	0.99519
3707.11479	0.99471
3705.06099	0.99432
3703.00719	0.99401
3700.95338	0.99308
3698.89958	0.99207
3696.84578	0.99219
3694.79197	0.99291
3692.73817	0.99330
3690.68437	0.99349
3688.63056	0.99380
3686.57676	0.99368
3684.52296	0.99298
3682.46915	0.99245
3680.41535	0.99280
3678.36155	0.99369
3676.30774	0.99377
3674.25394	0.99275
3672.20014	0.99182
3670.14633	0.99098
3668.09253	0.99056
3666.03873	0.99078
3663.98492	0.99141
3661.93112	0.99200
3659.87732	0.99197
3657.82352	0.99153
3655.76971	0.99079
3653.71591	0.98990
3651.66211	0.98944
3649.60830	0.98984
3647.55450	0.99085
3645.50070	0.99126
3643.44689	0.99100
3641.39309	0.99056
3639.33929	0.99011
3637.28548	0.98964
3635.23168	0.98937
3633.17788	0.98954
3631.12407	0.98990
3629.07027	0.99005
3627.01647	0.99015
3624.96266	0.99020
3622.90886	0.98988
3620.85506	0.98956
3618.80125	0.98964
3616.74745	0.98992
3614.69365	0.99029
3612.63984	0.99019
3610.58604	0.98919
3608.53224	0.98826
3606.47844	0.98831
3604.42463	0.98870
3602.37083	0.98881
3600.31703	0.98858
3598.26322	0.98826
3596.20942	0.98860
3594.15562	0.98930
3592.10181	0.98944
3590.04801	0.98941
3587.99421	0.98950
3585.94040	0.98939
3583.88660	0.98924
3581.83280	0.98908
3579.77899	0.98870
3577.72519	0.98828
3575.67139	0.98818
3573.61758	0.98848
3571.56378	0.98877
3569.50998	0.98887
3567.45617	0.98929
3565.40237	0.98952
3563.34857	0.98888
3561.29476	0.98834
3559.24096	0.98846
3557.18716	0.98838
3555.13335	0.98775
3553.07955	0.98775
3551.02575	0.98833
3548.97195	0.98837
3546.91814	0.98785
3544.86434	0.98721
3542.81054	0.98748
3540.75673	0.98847
3538.70293	0.98874
3536.64913	0.98853
3534.59532	0.98871
3532.54152	0.98876
3530.48772	0.98854
3528.43391	0.98825
3526.38011	0.98797
3524.32631	0.98778
3522.27250	0.98765
3520.21870	0.98758
3518.16490	0.98767
3516.11109	0.98803
3514.05729	0.98823
3512.00349	0.98805
3509.94968	0.98798
3507.89588	0.98811
3505.84208	0.98811
3503.78827	0.98787
3501.73447	0.98770
3499.68067	0.98788
3497.62687	0.98821
3495.57306	0.98829
3493.51926	0.98823
3491.46546	0.98783
3489.41165	0.98695
3487.35785	0.98651
3485.30405	0.98688
3483.25024	0.98709
3481.19644	0.98675
3479.14264	0.98660
3477.08883	0.98693
3475.03503	0.98721
3472.98123	0.98735
3470.92742	0.98750
3468.87362	0.98737
3466.81982	0.98714
3464.76601	0.98738
3462.71221	0.98782
3460.65841	0.98802
3458.60460	0.98801
3456.55080	0.98777
3454.49700	0.98739
3452.44319	0.98680
3450.38939	0.98635
3448.33559	0.98683
3446.28178	0.98747
3444.22798	0.98697
3442.17418	0.98604
3440.12038	0.98611
3438.06657	0.98705
3436.01277	0.98759
3433.95897	0.98733
3431.90516	0.98645
3429.85136	0.98569
3427.79756	0.98577
3425.74375	0.98607
3423.68995	0.98606
3421.63615	0.98593
3419.58234	0.98576
3417.52854	0.98579
3415.47474	0.98600
3413.42093	0.98615
3411.36713	0.98613
3409.31333	0.98624
3407.25952	0.98665
3405.20572	0.98666
3403.15192	0.98622
3401.09811	0.98617
3399.04431	0.98667
3396.99051	0.98711
3394.93670	0.98714
3392.88290	0.98695
3390.82910	0.98670
3388.77529	0.98657
3386.72149	0.98632
3384.66769	0.98593
3382.61389	0.98617
3380.56008	0.98683
3378.50628	0.98705
3376.45248	0.98704
3374.39867	0.98710
3372.34487	0.98705
3370.29107	0.98692
3368.23726	0.98642
3366.18346	0.98554
3364.12966	0.98515
3362.07585	0.98531
3360.02205	0.98553
3357.96825	0.98599
3355.91444	0.98691
3353.86064	0.98754
3351.80684	0.98711
3349.75303	0.98618
3347.69923	0.98577
3345.64543	0.98632
3343.59162	0.98721
3341.53782	0.98741
3339.48402	0.98714
3337.43021	0.98692
3335.37641	0.98669
3333.32261	0.98651
3331.26881	0.98633
3329.21500	0.98630
3327.16120	0.98687
3325.10740	0.98737
3323.05359	0.98725
3320.99979	0.98736
3318.94599	0.98737
3316.89218	0.98693
3314.83838	0.98692
3312.78458	0.98725
3310.73077	0.98769
3308.67697	0.98847
3306.62317	0.98901
3304.56936	0.98848
3302.51556	0.98762
3300.46176	0.98738
3298.40795	0.98729
3296.35415	0.98721
3294.30035	0.98741
3292.24654	0.98765
3290.19274	0.98783
3288.13894	0.98796
3286.08513	0.98807
3284.03133	0.98837
3281.97753	0.98874
3279.92372	0.98870
3277.86992	0.98832
3275.81612	0.98799
3273.76232	0.98791
3271.70851	0.98819
3269.65471	0.98813
3267.60091	0.98743
3265.54710	0.98720
3263.49330	0.98761
3261.43950	0.98793
3259.38569	0.98806
3257.33189	0.98804
3255.27809	0.98824
3253.22428	0.98882
3251.17048	0.98941
3249.11668	0.98957
3247.06287	0.98915
3245.00907	0.98863
3242.95527	0.98826
3240.90146	0.98779
3238.84766	0.98724
3236.79386	0.98717
3234.74005	0.98771
3232.68625	0.98821
3230.63245	0.98852
3228.57864	0.98877
3226.52484	0.98894
3224.47104	0.98901
3222.41724	0.98895
3220.36343	0.98901
3218.30963	0.98928
3216.25583	0.98924
3214.20202	0.98886
3212.14822	0.98863
3210.09442	0.98843
3208.04061	0.98808
3205.98681	0.98783
3203.93301	0.98800
3201.87920	0.98869
3199.82540	0.98951
3197.77160	0.98982
3195.71779	0.98956
3193.66399	0.98964
3191.61019	0.99012
3189.55638	0.99026
3187.50258	0.99006
3185.44878	0.98958
3183.39497	0.98916
3181.34117	0.98934
3179.28737	0.98967
3177.23356	0.98976
3175.17976	0.98993
3173.12596	0.99017
3171.07215	0.99016
3169.01835	0.98988
3166.96455	0.98992
3164.91075	0.99051
3162.85694	0.99080
3160.80314	0.99053
3158.74934	0.99028
3156.69553	0.99027
3154.64173	0.99039
3152.58793	0.99032
3150.53412	0.98999
3148.48032	0.99000
3146.42652	0.99048
3144.37271	0.99094
3142.31891	0.99127
3140.26511	0.99127
3138.21130	0.99095
3136.15750	0.99090
3134.10370	0.99128
3132.04989	0.99158
3129.99609	0.99158
3127.94229	0.99141
3125.88848	0.99119
3123.83468	0.99099
3121.78088	0.99071
3119.72707	0.99041
3117.67327	0.99021
3115.61947	0.99040
3113.56566	0.99080
3111.51186	0.99088
3109.45806	0.99111
3107.40426	0.99173
3105.35045	0.99193
3103.29665	0.99169
3101.24285	0.99172
3099.18904	0.99183
3097.13524	0.99170
3095.08144	0.99180
3093.02763	0.99203
3090.97383	0.99184
3088.92003	0.99146
3086.86622	0.99151
3084.81242	0.99200
3082.75862	0.99216
3080.70481	0.99191
3078.65101	0.99212
3076.59721	0.99253
3074.54340	0.99224
3072.48960	0.99170
3070.43580	0.99188
3068.38199	0.99233
3066.32819	0.99235
3064.27439	0.99254
3062.22058	0.99285
3060.16678	0.99259
3058.11298	0.99215
3056.05918	0.99203
3054.00537	0.99218
3051.95157	0.99251
3049.89777	0.99267
3047.84396	0.99246
3045.79016	0.99204
3043.73636	0.99166
3041.68255	0.99183
3039.62875	0.99246
3037.57495	0.99281
3035.52114	0.99269
3033.46734	0.99262
3031.41354	0.99280
3029.35973	0.99279
3027.30593	0.99256
3025.25213	0.99249
3023.19832	0.99258
3021.14452	0.99275
3019.09072	0.99275
3017.03691	0.99251
3014.98311	0.99239
3012.92931	0.99228
3010.87550	0.99205
3008.82170	0.99182
3006.76790	0.99167
3004.71409	0.99163
3002.66029	0.99145
3000.60649	0.99098
2998.55269	0.99065
2996.49888	0.99075
2994.44508	0.99096
2992.39128	0.99110
2990.33747	0.99098
2988.28367	0.99022
2986.22987	0.98909
2984.17606	0.98807
2982.12226	0.98695
2980.06846	0.98552
2978.01465	0.98417
2975.96085	0.98338
2973.90705	0.98318
2971.85324	0.98304
2969.79944	0.98230
2967.74564	0.98122
2965.69183	0.98062
2963.63803	0.98052
2961.58423	0.98041
2959.53042	0.98027
2957.47662	0.98039
2955.42282	0.98058
2953.36901	0.98045
2951.31521	0.98012
2949.26141	0.97996
2947.20761	0.97981
2945.15380	0.97933
2943.10000	0.97862
2941.04620	0.97782
2938.99239	0.97687
2936.93859	0.97592
2934.88479	0.97503
2932.83098	0.97378
2930.77718	0.97233
2928.72338	0.97168
2926.66957	0.97164
2924.61577	0.97122
2922.56197	0.97063
2920.50816	0.97035
2918.45436	0.97020
2916.40056	0.97024
2914.34675	0.97070
2912.29295	0.97131
2910.23915	0.97194
2908.18534	0.97283
2906.13154	0.97401
2904.07774	0.97529
2902.02393	0.97667
2899.97013	0.97847
2897.91633	0.98063
2895.86252	0.98252
2893.80872	0.98387
2891.75492	0.98494
2889.70112	0.98584
2887.64731	0.98654
2885.59351	0.98706
2883.53971	0.98743
2881.48590	0.98764
2879.43210	0.98766
2877.37830	0.98745
2875.32449	0.98698
2873.27069	0.98630
2871.21689	0.98595
2869.16308	0.98622
2867.10928	0.98645
2865.05548	0.98616
2863.00167	0.98545
2860.94787	0.98435
2858.89407	0.98349
2856.84026	0.98346
2854.78646	0.98348
2852.73266	0.98308
2850.67885	0.98323
2848.62505	0.98435
2846.57125	0.98588
2844.51744	0.98703
2842.46364	0.98765
2840.40984	0.98852
2838.35603	0.98972
2836.30223	0.99049
2834.24843	0.99067
2832.19463	0.99061
2830.14082	0.99070
2828.08702	0.99132
2826.03322	0.99207
2823.97941	0.99207
2821.92561	0.99174
2819.87181	0.99175
2817.81800	0.99186
2815.76420	0.99196
2813.71040	0.99204
2811.65659	0.99210
2809.60279	0.99229
2807.54899	0.99241
2805.49518	0.99250
2803.44138	0.99286
2801.38758	0.99319
2799.33377	0.99349
2797.27997	0.99402
2795.22617	0.99419
2793.17236	0.99362
2791.11856	0.99312
2789.06476	0.99316
2787.01095	0.99347
2784.95715	0.99374
2782.90335	0.99408
2780.84955	0.99452
2778.79574	0.99467
2776.74194	0.99453
2774.68814	0.99420
2772.63433	0.99377
2770.58053	0.99354
2768.52673	0.99350
2766.47292	0.99374
2764.41912	0.99410
2762.36532	0.99440
2760.31151	0.99473
2758.25771	0.99477
2756.20391	0.99441
2754.15010	0.99416
2752.09630	0.99430
2750.04250	0.99446
2747.98869	0.99435
2745.93489	0.99416
2743.88109	0.99398
2741.82728	0.99388
2739.77348	0.99385
2737.71968	0.99368
2735.66587	0.99342
2733.61207	0.99338
2731.55827	0.99349
2729.50446	0.99379
2727.45066	0.99431
2725.39686	0.99465
2723.34306	0.99457
2721.28925	0.99437
2719.23545	0.99431
2717.18165	0.99420
2715.12784	0.99402
2713.07404	0.99404
2711.02024	0.99411
2708.96643	0.99408
2706.91263	0.99434
2704.85883	0.99472
2702.80502	0.99443
2700.75122	0.99402
2698.69742	0.99430
2696.64361	0.99464
2694.58981	0.99474
2692.53601	0.99489
2690.48220	0.99500
2688.42840	0.99505
2686.37460	0.99506
2684.32079	0.99504
2682.26699	0.99493
2680.21319	0.99474
2678.15938	0.99463
2676.10558	0.99452
2674.05178	0.99436
2671.99797	0.99427
2669.94417	0.99427
2667.89037	0.99427
2665.83657	0.99420
2663.78276	0.99393
2661.72896	0.99367
2659.67516	0.99372
2657.62135	0.99394
2655.56755	0.99421
2653.51375	0.99437
2651.45994	0.99416
2649.40614	0.99404
2647.35234	0.99437
2645.29853	0.99462
2643.24473	0.99447
2641.19093	0.99428
2639.13712	0.99424
2637.08332	0.99425
2635.02952	0.99419
2632.97571	0.99417
2630.92191	0.99431
2628.86811	0.99435
2626.81430	0.99409
2624.76050	0.99367
2622.70670	0.99343
2620.65289	0.99374
2618.59909	0.99435
2616.54529	0.99489
2614.49149	0.99529
2612.43768	0.99539
2610.38388	0.99516
2608.33008	0.99502
2606.27627	0.99505
2604.22247	0.99496
2602.16867	0.99481
2600.11486	0.99477
2598.06106	0.99517
2596.00726	0.99564
2593.95345	0.99536
2591.89965	0.99478
2589.84585	0.99453
2587.79204	0.99438
2585.73824	0.99429
2583.68444	0.99433
2581.63063	0.99439
2579.57683	0.99466
2577.52303	0.99525
2575.46922	0.99577
2573.41542	0.99599
2571.36162	0.99605
2569.30781	0.99553
2567.25401	0.99456
2565.20021	0.99444
2563.14640	0.99519
2561.09260	0.99579
2559.03880	0.99580
2556.98500	0.99529
2554.93119	0.99500
2552.87739	0.99520
2550.82359	0.99532
2548.76978	0.99531
2546.71598	0.99526
2544.66218	0.99503
2542.60837	0.99488
2540.55457	0.99482
2538.50077	0.99461
2536.44696	0.99440
2534.39316	0.99460
2532.33936	0.99491
2530.28555	0.99490
2528.23175	0.99521
2526.17795	0.99557
2524.12414	0.99526
2522.07034	0.99488
2520.01654	0.99518
2517.96273	0.99593
2515.90893	0.99626
2513.85513	0.99602
2511.80132	0.99571
2509.74752	0.99538
2507.69372	0.99535
2505.63992	0.99599
2503.58611	0.99686
2501.53231	0.99721
2499.47851	0.99685
2497.42470	0.99631
2495.37090	0.99621
2493.31710	0.99650
2491.26329	0.99637
2489.20949	0.99565
2487.15569	0.99550
2485.10188	0.99661
2483.04808	0.99764
2480.99428	0.99714
2478.94047	0.99607
2476.88667	0.99575
2474.83287	0.99587
2472.77906	0.99564
2470.72526	0.99499
2468.67146	0.99462
2466.61765	0.99466
2464.56385	0.99478
2462.51005	0.99521
2460.45624	0.99601
2458.40244	0.99630
2456.34864	0.99560
2454.29483	0.99483
2452.24103	0.99473
2450.18723	0.99501
2448.13343	0.99518
2446.07962	0.99532
2444.02582	0.99578
2441.97202	0.99597
2439.91821	0.99551
2437.86441	0.99526
2435.81061	0.99539
2433.75680	0.99524
2431.70300	0.99508
2429.64920	0.99538
2427.59539	0.99563
2425.54159	0.99557
2423.48779	0.99574
2421.43398	0.99613
2419.38018	0.99649
2417.32638	0.99679
2415.27257	0.99683
2413.21877	0.99654
2411.16497	0.99611
2409.11116	0.99576
2407.05736	0.99574
2405.00356	0.99613
2402.94975	0.99645
2400.89595	0.99623
2398.84215	0.99576
2396.78834	0.99569
2394.73454	0.99603
2392.68074	0.99624
2390.62694	0.99617
2388.57313	0.99608
2386.51933	0.99595
2384.46553	0.99553
2382.41172	0.99522
2380.35792	0.99559
2378.30412	0.99611
2376.25031	0.99633
2374.19651	0.99624
2372.14271	0.99569
2370.08890	0.99542
2368.03510	0.99573
2365.98130	0.99559
2363.92749	0.99588
2361.87369	0.99719
2359.81989	0.99702
2357.76608	0.99543
2355.71228	0.99510
2353.65848	0.99594
2351.60467	0.99609
2349.55087	0.99532
2347.49707	0.99489
2345.44326	0.99556
2343.38946	0.99635
2341.33566	0.99630
2339.28186	0.99628
2337.22805	0.99617
2335.17425	0.99597
2333.12045	0.99602
2331.06664	0.99547
2329.01284	0.99453
2326.95904	0.99387
2324.90523	0.99363
2322.85143	0.99395
2320.79763	0.99439
2318.74382	0.99416
2316.69002	0.99360
2314.63622	0.99337
2312.58241	0.99306
2310.52861	0.99252
2308.47481	0.99254
2306.42100	0.99330
2304.36720	0.99422
2302.31340	0.99457
2300.25959	0.99456
2298.20579	0.99478
2296.15199	0.99471
2294.09818	0.99430
2292.04438	0.99400
2289.99058	0.99356
2287.93677	0.99344
2285.88297	0.99412
2283.82917	0.99512
2281.77537	0.99587
2279.72156	0.99550
2277.66776	0.99432
2275.61396	0.99385
2273.56015	0.99442
2271.50635	0.99606
2269.45255	0.99748
2267.39874	0.99719
2265.34494	0.99618
2263.29114	0.99556
2261.23733	0.99505
2259.18353	0.99464
2257.12973	0.99432
2255.07592	0.99363
2253.02212	0.99358
2250.96832	0.99452
2248.91451	0.99486
2246.86071	0.99515
2244.80691	0.99646
2242.75310	0.99743
2240.69930	0.99771
2238.64550	0.99772
2236.59169	0.99665
2234.53789	0.99574
2232.48409	0.99613
2230.43029	0.99684
2228.37648	0.99739
2226.32268	0.99674
2224.26888	0.99498
2222.21507	0.99512
2220.16127	0.99680
2218.10747	0.99629
2216.05366	0.99453
2213.99986	0.99451
2211.94606	0.99599
2209.89225	0.99808
2207.83845	0.99959
2205.78465	0.99945
2203.73084	0.99870
2201.67704	0.99703
2199.62324	0.99416
2197.56943	0.99280
2195.51563	0.99385
2193.46183	0.99499
2191.40802	0.99464
2189.35422	0.99421
2187.30042	0.99515
2185.24661	0.99686
2183.19281	0.99764
2181.13901	0.99675
2179.08520	0.99642
2177.03140	0.99723
2174.97760	0.99773
2172.92380	0.99846
2170.86999	0.99854
2168.81619	0.99705
2166.76239	0.99631
2164.70858	0.99778
2162.65478	0.99908
2160.60098	0.99883
2158.54717	1.00049
2156.49337	1.00339
2154.43957	1.00247
2152.38576	0.99907
2150.33196	0.99735
2148.27816	0.99748
2146.22435	0.99708
2144.17055	0.99655
2142.11675	0.99827
2140.06294	1.00108
2138.00914	1.00151
2135.95534	1.00015
2133.90153	0.99928
2131.84773	0.99854
2129.79393	0.99829
2127.74012	0.99901
2125.68632	0.99923
2123.63252	0.99833
2121.57871	0.99685
2119.52491	0.99521
2117.47111	0.99456
2115.41731	0.99532
2113.36350	0.99561
2111.30970	0.99501
2109.25590	0.99525
2107.20209	0.99627
2105.14829	0.99681
2103.09449	0.99625
2101.04068	0.99496
2098.98688	0.99426
2096.93308	0.99477
2094.87927	0.99598
2092.82547	0.99757
2090.77167	0.99896
2088.71786	0.99886
2086.66406	0.99722
2084.61026	0.99543
2082.55645	0.99451
2080.50265	0.99468
2078.44885	0.99548
2076.39504	0.99646
2074.34124	0.99733
2072.28744	0.99719
2070.23363	0.99619
2068.17983	0.99574
2066.12603	0.99588
2064.07223	0.99624
2062.01842	0.99746
2059.96462	0.99905
2057.91082	0.99962
2055.85701	0.99901
2053.80321	0.99791
2051.74941	0.99680
2049.69560	0.99609
2047.64180	0.99566
2045.58800	0.99491
2043.53419	0.99501
2041.48039	0.99603
2039.42659	0.99568
2037.37278	0.99469
2035.31898	0.99498
2033.26518	0.99558
2031.21137	0.99582
2029.15757	0.99492
2027.10377	0.99273
2025.04996	0.99349
2022.99616	0.99797
2020.94236	1.00080
2018.88855	0.99993
2016.83475	0.99936
2014.78095	1.00035
2012.72714	0.99912
2010.67334	0.99713
2008.61954	0.99646
2006.56574	0.99439
2004.51193	0.99173
2002.45813	0.99095
2000.40433	0.99116
1998.35052	0.99206
1996.29672	0.99449
1994.24292	0.99751
1992.18911	0.99908
1990.13531	0.99838
1988.08151	0.99691
1986.02770	0.99702
1983.97390	0.99927
1981.92010	1.00000
1979.86629	0.99871
1977.81249	0.99954
1975.75869	1.00115
1973.70488	1.00128
1971.65108	1.00049
1969.59728	0.99906
1967.54347	0.99829
1965.48967	0.99906
1963.43587	0.99953
1961.38206	0.99826
1959.32826	0.99730
1957.27446	0.99778
1955.22066	0.99874
1953.16685	0.99937
1951.11305	0.99884
1949.05925	0.99796
1947.00544	0.99797
1944.95164	0.99808
1942.89784	0.99793
1940.84403	0.99841
1938.79023	0.99892
1936.73643	0.99861
1934.68262	0.99812
1932.62882	0.99799
1930.57502	0.99726
1928.52121	0.99582
1926.46741	0.99538
1924.41361	0.99639
1922.35980	0.99706
1920.30600	0.99624
1918.25220	0.99464
1916.19839	0.99404
1914.14459	0.99458
1912.09079	0.99543
1910.03698	0.99691
1907.98318	0.99841
1905.92938	0.99899
1903.87557	0.99851
1901.82177	0.99700
1899.76797	0.99569
1897.71417	0.99562
1895.66036	0.99631
1893.60656	0.99700
1891.55276	0.99725
1889.49895	0.99684
1887.44515	0.99650
1885.39135	0.99668
1883.33754	0.99698
1881.28374	0.99704
1879.22994	0.99671
1877.17613	0.99630
1875.12233	0.99602
1873.06853	0.99593
1871.01472	0.99577
1868.96092	0.99507
1866.90712	0.99458
1864.85331	0.99476
1862.79951	0.99527
1860.74571	0.99585
1858.69190	0.99623
1856.63810	0.99670
1854.58430	0.99703
1852.53049	0.99681
1850.47669	0.99616
1848.42289	0.99552
1846.36908	0.99544
1844.31528	0.99575
1842.26148	0.99577
1840.20768	0.99552
1838.15387	0.99523
1836.10007	0.99522
1834.04627	0.99572
1831.99246	0.99632
1829.93866	0.99658
1827.88486	0.99667
1825.83105	0.99670
1823.77725	0.99645
1821.72345	0.99617
1819.66964	0.99585
1817.61584	0.99565
1815.56204	0.99571
1813.50823	0.99560
1811.45443	0.99539
1809.40063	0.99546
1807.34682	0.99562
1805.29302	0.99568
1803.23922	0.99569
1801.18541	0.99568
1799.13161	0.99568
1797.07781	0.99548
1795.02400	0.99498
1792.97020	0.99466
1790.91640	0.99497
1788.86260	0.99539
1786.80879	0.99556
1784.75499	0.99566
1782.70119	0.99555
1780.64738	0.99519
1778.59358	0.99495
1776.53978	0.99507
1774.48597	0.99538
1772.43217	0.99542
1770.37837	0.99498
1768.32456	0.99455
1766.27076	0.99444
1764.21696	0.99441
1762.16315	0.99395
1760.10935	0.99329
1758.05555	0.99283
1756.00174	0.99197
1753.94794	0.99077
1751.89414	0.98956
1749.84033	0.98781
1747.78653	0.98559
1745.73273	0.98361
1743.67892	0.98174
1741.62512	0.97987
1739.57132	0.97810
1737.51751	0.97666
1735.46371	0.97565
1733.40991	0.97515
1731.35611	0.97523
1729.30230	0.97542
1727.24850	0.97589
1725.19470	0.97678
1723.14089	0.97799
1721.08709	0.97935
1719.03329	0.98128
1716.97948	0.98418
1714.92568	0.98639
1712.87188	0.98745
1710.81807	0.98824
1708.76427	0.98893
1706.71047	0.98956
1704.65666	0.99009
1702.60286	0.99035
1700.54906	0.99080
1698.49525	0.99152
1696.44145	0.99158
1694.38765	0.99122
1692.33384	0.99103
1690.28004	0.99115
1688.22624	0.99157
1686.17243	0.99196
1684.11863	0.99171
1682.06483	0.99078
1680.01103	0.99000
1677.95722	0.98944
1675.90342	0.98901
1673.84962	0.98867
1671.79581	0.98863
1669.74201	0.98865
1667.68821	0.98852
1665.63440	0.98853
1663.58060	0.98865
1661.52680	0.98861
1659.47299	0.98826
1657.41919	0.98794
1655.36539	0.98787
1653.31158	0.98774
1651.25778	0.98784
1649.20398	0.98859
1647.15017	0.98922
1645.09637	0.98878
1643.04257	0.98839
1640.98876	0.98838
1638.93496	0.98828
1636.88116	0.98825
1634.82735	0.98815
1632.77355	0.98736
1630.71975	0.98641
1628.66594	0.98593
1626.61214	0.98617
1624.55834	0.98672
1622.50454	0.98701
1620.45073	0.98677
1618.39693	0.98659
1616.34313	0.98680
1614.28932	0.98702
1612.23552	0.98720
1610.18172	0.98719
1608.12791	0.98684
1606.07411	0.98675
1604.02031	0.98732
1601.96650	0.98795
1599.91270	0.98804
1597.85890	0.98782
1595.80509	0.98764
1593.75129	0.98777
1591.69749	0.98813
1589.64368	0.98820
1587.58988	0.98808
1585.53608	0.98803
1583.48227	0.98784
1581.42847	0.98770
1579.37467	0.98787
1577.32086	0.98814
1575.26706	0.98810
1573.21326	0.98801
1571.15945	0.98817
1569.10565	0.98843
1567.05185	0.98863
1564.99805	0.98908
1562.94424	0.99002
1560.89044	0.99104
1558.83664	0.99122
1556.78283	0.99035
1554.72903	0.98986
1552.67523	0.98969
1550.62142	0.98955
1548.56762	0.98902
1546.51382	0.98856
1544.46001	0.98851
1542.40621	0.98843
1540.35241	0.98851
1538.29860	0.98892
1536.24480	0.98915
1534.19100	0.98927
1532.13719	0.98918
1530.08339	0.98929
1528.02959	0.98984
1525.97578	0.99046
1523.92198	0.99064
1521.86818	0.99012
1519.81437	0.98945
1517.76057	0.98953
1515.70677	0.98985
1513.65297	0.98985
1511.59916	0.98992
1509.54536	0.99051
1507.49156	0.99122
1505.43775	0.99045
1503.38395	0.98941
1501.33015	0.98893
1499.27634	0.98886
1497.22254	0.98891
1495.16874	0.98838
1493.11493	0.98764
1491.06113	0.98726
1489.00733	0.98711
1486.95352	0.98681
1484.89972	0.98654
1482.84592	0.98623
1480.79211	0.98562
1478.73831	0.98503
1476.68451	0.98469
1474.63070	0.98417
1472.57690	0.98296
1470.52310	0.98129
1468.46929	0.97969
1466.41549	0.97826
1464.36169	0.97753
1462.30788	0.97771
1460.25408	0.97808
1458.20028	0.97826
1456.14648	0.97842
1454.09267	0.97859
1452.03887	0.97859
1449.98507	0.97823
1447.93126	0.97727
1445.87746	0.97573
1443.82366	0.97347
1441.76985	0.96983
1439.71605	0.96527
1437.66225	0.96003
1435.60844	0.95462
1433.55464	0.95183
1431.50084	0.95078
1429.44703	0.94869
1427.39323	0.94516
1425.33943	0.94375
1423.28562	0.94694
1421.23182	0.95261
1419.17802	0.95888
1417.12421	0.96408
1415.07041	0.96724
1413.01661	0.97047
1410.96280	0.97426
1408.90900	0.97782
1406.85520	0.98065
1404.80139	0.98269
1402.74759	0.98368
1400.69379	0.98390
1398.63999	0.98402
1396.58618	0.98408
1394.53238	0.98341
1392.47858	0.98229
1390.42477	0.98162
1388.37097	0.98130
1386.31717	0.98050
1384.26336	0.97945
1382.20956	0.97896
1380.15576	0.97886
1378.10195	0.97886
1376.04815	0.97923
1373.99435	0.97986
1371.94054	0.98014
1369.88674	0.98003
1367.83294	0.97953
1365.77913	0.97880
1363.72533	0.97810
1361.67153	0.97727
1359.61772	0.97625
1357.56392	0.97531
1355.51012	0.97466
1353.45631	0.97440
1351.40251	0.97451
1349.34871	0.97473
1347.29491	0.97459
1345.24110	0.97364
1343.18730	0.97194
1341.13350	0.96939
1339.07969	0.96547
1337.02589	0.96137
1334.97209	0.95874
1332.91828	0.95755
1330.86448	0.95712
1328.81068	0.95719
1326.75687	0.95772
1324.70307	0.95854
1322.64927	0.95956
1320.59546	0.96103
1318.54166	0.96298
1316.48786	0.96484
1314.43405	0.96633
1312.38025	0.96757
1310.32645	0.96843
1308.27264	0.96909
1306.21884	0.96969
1304.16504	0.97021
1302.11123	0.97114
1300.05743	0.97247
1298.00363	0.97353
1295.94982	0.97434
1293.89602	0.97512
1291.84222	0.97572
1289.78842	0.97591
1287.73461	0.97570
1285.68081	0.97520
1283.62701	0.97452
1281.57320	0.97364
1279.51940	0.97220
1277.46560	0.97020
1275.41179	0.96796
1273.35799	0.96538
1271.30419	0.96225
1269.25038	0.95877
1267.19658	0.95495
1265.14278	0.95094
1263.08897	0.94697
1261.03517	0.94289
1258.98137	0.93873
1256.92756	0.93500
1254.87376	0.93245
1252.81996	0.93157
1250.76615	0.93170
1248.71235	0.93161
1246.65855	0.93127
1244.60474	0.93141
1242.55094	0.93198
1240.49714	0.93275
1238.44334	0.93398
1236.38953	0.93568
1234.33573	0.93759
1232.28193	0.93961
1230.22812	0.94204
1228.17432	0.94551
1226.12052	0.95001
1224.06671	0.95468
1222.01291	0.95867
1219.95911	0.96143
1217.90530	0.96283
1215.85150	0.96311
1213.79770	0.96283
1211.74389	0.96237
1209.69009	0.96174
1207.63629	0.96092
1205.58248	0.95976
1203.52868	0.95847
1201.47488	0.95740
1199.42107	0.95662
1197.36727	0.95639
1195.31347	0.95655
1193.25966	0.95653
1191.20586	0.95650
1189.15206	0.95671
1187.09825	0.95726
1185.04445	0.95799
1182.99065	0.95831
1180.93685	0.95823
1178.88304	0.95828
1176.82924	0.95841
1174.77544	0.95826
1172.72163	0.95795
1170.66783	0.95760
1168.61403	0.95724
1166.56022	0.95714
1164.50642	0.95737
1162.45262	0.95789
1160.39881	0.95864
1158.34501	0.95969
1156.29121	0.96080
1154.23740	0.96127
1152.18360	0.96098
1150.12980	0.96030
1148.07599	0.95980
1146.02219	0.95994
1143.96839	0.96036
1141.91458	0.96069
1139.86078	0.96091
1137.80698	0.96080
1135.75317	0.96027
1133.69937	0.95948
1131.64557	0.95847
1129.59176	0.95717
1127.53796	0.95592
1125.48416	0.95476
1123.43036	0.95290
1121.37655	0.95022
1119.32275	0.94763
1117.26895	0.94575
1115.21514	0.94404
1113.16134	0.94185
1111.10754	0.93940
1109.05373	0.93699
1106.99993	0.93448
1104.94613	0.93215
1102.89232	0.93029
1100.83852	0.92891
1098.78472	0.92797
1096.73091	0.92721
1094.67711	0.92654
1092.62331	0.92634
1090.56950	0.92655
1088.51570	0.92658
1086.46190	0.92649
1084.40809	0.92647
1082.35429	0.92669
1080.30049	0.92746
1078.24668	0.92835
1076.19288	0.92858
1074.13908	0.92823
1072.08528	0.92782
1070.03147	0.92729
1067.97767	0.92667
1065.92387	0.92620
1063.87006	0.92579
1061.81626	0.92541
1059.76246	0.92507
1057.70865	0.92460
1055.65485	0.92384
1053.60105	0.92287
1051.54724	0.92202
1049.49344	0.92151
1047.43964	0.92096
1045.38583	0.91970
1043.33203	0.91794
1041.27823	0.91626
1039.22442	0.91459
1037.17062	0.91275
1035.11682	0.91112
1033.06301	0.91003
1031.00921	0.90939
1028.95541	0.90898
1026.90160	0.90861
1024.84780	0.90805
1022.79400	0.90734
1020.74019	0.90693
1018.68639	0.90686
1016.63259	0.90681
1014.57879	0.90679
1012.52498	0.90671
1010.47118	0.90642
1008.41738	0.90638
1006.36357	0.90674
1004.30977	0.90734
1002.25597	0.90798
1000.20216	0.90840
998.14836	0.90879
996.09456	0.90926
994.04075	0.90976
991.98695	0.91055
989.93315	0.91166
987.87934	0.91261
985.82554	0.91305
983.77174	0.91310
981.71793	0.91291
979.66413	0.91258
977.61033	0.91247
975.55652	0.91264
973.50272	0.91245
971.44892	0.91190
969.39511	0.91169
967.34131	0.91159
965.28751	0.91118
963.23371	0.91118
961.17990	0.91182
959.12610	0.91252
957.07230	0.91316
955.01849	0.91441
952.96469	0.91671
950.91089	0.91968
948.85708	0.92270
946.80328	0.92531
944.74948	0.92738
942.69567	0.92911
940.64187	0.93088
938.58807	0.93249
936.53426	0.93329
934.48046	0.93418
932.42666	0.93602
930.37285	0.93756
928.31905	0.93804
926.26525	0.93848
924.21144	0.93936
922.15764	0.94009
920.10384	0.94041
918.05003	0.94083
915.99623	0.94193
913.94243	0.94343
911.88862	0.94468
909.83482	0.94588
907.78102	0.94760
905.72722	0.94944
903.67341	0.95080
901.61961	0.95189
899.56581	0.95287
897.51200	0.95383
895.45820	0.95503
893.40440	0.95608
891.35059	0.95680
889.29679	0.95760
887.24299	0.95838
885.18918	0.95880
883.13538	0.95885
881.08158	0.95841
879.02777	0.95772
876.97397	0.95787
874.92017	0.95888
872.86636	0.95986
870.81256	0.96080
868.75876	0.96165
866.70495	0.96223
864.65115	0.96251
862.59735	0.96237
860.54354	0.96221
858.48974	0.96242
856.43594	0.96265
854.38213	0.96257
852.32833	0.96287
850.27453	0.96351
848.22073	0.96330
846.16692	0.96247
844.11312	0.96191
842.05932	0.96155
840.00551	0.96108
837.95171	0.96029
835.89791	0.95950
833.84410	0.95931
831.79030	0.95967
829.73650	0.96006
827.68269	0.96054
825.62889	0.96199
823.57509	0.96433
821.52128	0.96658
819.46748	0.96842
817.41368	0.96970
815.35987	0.97038
813.30607	0.97118
811.25227	0.97230
809.19846	0.97294
807.14466	0.97313
805.09086	0.97290
803.03705	0.97205
800.98325	0.97139
798.92945	0.97162
796.87565	0.97256
794.82184	0.97349
792.76804	0.97371
790.71424	0.97342
788.66043	0.97293
786.60663	0.97219
784.55283	0.97166
782.49902	0.97120
780.44522	0.97044
778.39142	0.96992
776.33761	0.96989
774.28381	0.96993
772.23001	0.97002
770.17620	0.97047
768.12240	0.97048
766.06860	0.96976
764.01479	0.96927
761.96099	0.96900
759.90719	0.96878
757.85338	0.96892
755.79958	0.96899
753.74578	0.96860
751.69197	0.96813
749.63817	0.96776
747.58437	0.96768
745.53056	0.96796
743.47676	0.96773
741.42296	0.96719
739.36916	0.96713
737.31535	0.96695
735.26155	0.96643
733.20775	0.96604
731.15394	0.96565
729.10014	0.96498
727.04634	0.96405
724.99253	0.96285
722.93873	0.96177
720.88493	0.96101
718.83112	0.96026
716.77732	0.95892
714.72352	0.95634
712.66971	0.95319
710.61591	0.95037
708.56211	0.94757
706.50830	0.94425
704.45450	0.94034
702.40070	0.93670
700.34689	0.93415
698.29309	0.93210
696.23929	0.92986
694.18548	0.92765
692.13168	0.92631
690.07788	0.92621
688.02408	0.92660
685.97027	0.92668
683.91647	0.92656
681.86267	0.92658
679.80886	0.92645
677.75506	0.92644
675.70126	0.92781
673.64745	0.93032
671.59365	0.93221
669.53985	0.93333
667.48604	0.93549
665.43224	0.93796
663.37844	0.93939
661.32463	0.93965
659.27083	0.93838
657.21703	0.93577
655.16322	0.93195
653.10942	0.92737
651.05562	0.92312
649.00181	0.91907
646.94801	0.91453
644.89421	0.90962
642.84040	0.90375
640.78660	0.89688
638.73280	0.89092
636.67899	0.88708
634.62519	0.88592
632.57139	0.88774
630.51759	0.88988
628.46378	0.88964
626.40998	0.88823
624.35618	0.88732
622.30237	0.88582
620.24857	0.88278
618.19477	0.87920
616.14096	0.87663
614.08716	0.87471
612.03336	0.87232
609.97955	0.86934
607.92575	0.86644
605.87195	0.86547
603.81814	0.86820
601.76434	0.87451
599.71054	0.88330
597.65673	0.89267
595.60293	0.90031
593.54913	0.90683
591.49532	0.91304
589.44152	0.91715
587.38772	0.91993
585.33391	0.92282
583.28011	0.92597
581.22631	0.92971
579.17250	0.93205
577.11870	0.93182
575.06490	0.93131
573.01110	0.93185
570.95729	0.93227
568.90349	0.93197
566.84969	0.93203
564.79588	0.93262
562.74208	0.93187
560.68828	0.92955
558.63447	0.92752
556.58067	0.92673
554.52687	0.92656
552.47306	0.92681
550.41926	0.92833
548.36546	0.92940
546.31165	0.92829
544.25785	0.92736
542.20405	0.92697
540.15024	0.92440
538.09644	0.92160
536.04264	0.92208
533.98883	0.92319
531.93503	0.92303
529.88123	0.92331
527.82742	0.92342
525.77362	0.92299
523.71982	0.92370
521.66602	0.92545
519.61221	0.92708
517.55841	0.92864
515.50461	0.93055
513.45080	0.93150
511.39700	0.93014
509.34320	0.92841
507.28939	0.92798
505.23559	0.92771
503.18179	0.92685
501.12798	0.92641
499.07418	0.92763
497.02038	0.92830
494.96657	0.92618
492.91277	0.92342
490.85897	0.92261
488.80516	0.92219
486.75136	0.91977
484.69756	0.91703
482.64375	0.91656
480.58995	0.91666
478.53615	0.91463
476.48234	0.91188
474.42854	0.91076
472.37474	0.90959
470.32093	0.90736
468.26713	0.90548
466.21333	0.90517
464.15953	0.90726
462.10572	0.91011
460.05192	0.91149
457.99812	0.91202
455.94431	0.91256
453.89051	0.91293
451.83671	0.91425
449.78290	0.91540
447.72910	0.91547
445.67530	0.91474
443.62149	0.91181
441.56769	0.90936
439.51389	0.91020
437.46008	0.91221
435.40628	0.91405
433.35248	0.91399
431.29867	0.91210
429.24487	0.91080
427.19107	0.90840
425.13726	0.90429
423.08346	0.90422
421.02966	0.90911
418.97585	0.91053
416.92205	0.90773
414.86825	0.90763
412.81445	0.90779
410.76064	0.90982
408.70684	0.91658
406.65304	0.92002
404.59923	0.91408
402.54543	0.90796
400.49163	0.90721
398.43782	0.90674
