3996.70104	0.97826
3994.64724	0.97789
3992.59344	0.97765
3990.53964	0.97775
3988.48583	0.97765
3986.43203	0.97751
3984.37823	0.97793
3982.32442	0.97853
3980.27062	0.97856
3978.21682	0.97821
3976.16301	0.97786
3974.10921	0.97771
3972.05541	0.97784
3970.00160	0.97794
3967.94780	0.97792
3965.89400	0.97783
3963.84019	0.97787
3961.78639	0.97835
3959.73259	0.97870
3957.67878	0.97843
3955.62498	0.97818
3953.57118	0.97839
3951.51737	0.97853
3949.46357	0.97842
3947.40977	0.97878
3945.35596	0.97931
3943.30216	0.97910
3941.24836	0.97873
3939.19455	0.97914
3937.14075	0.97956
3935.08695	0.97917
3933.03315	0.97841
3930.97934	0.97811
3928.92554	0.97842
3926.87174	0.97880
3924.81793	0.97858
3922.76413	0.97807
3920.71033	0.97823
3918.65652	0.97886
3916.60272	0.97904
3914.54892	0.97858
3912.49511	0.97798
3910.44131	0.97753
3908.38751	0.97735
3906.33370	0.97776
3904.27990	0.97840
3902.22610	0.97835
3900.17229	0.97843
3898.11849	0.97878
3896.06469	0.97829
3894.01088	0.97740
3891.95708	0.97692
3889.90328	0.97692
3887.84947	0.97716
3885.79567	0.97784
3883.74187	0.97837
3881.68807	0.97807
3879.63426	0.97788
3877.58046	0.97827
3875.52666	0.97883
3873.47285	0.97919
3871.41905	0.97872
3869.36525	0.97779
3867.31144	0.97738
3865.25764	0.97766
3863.20384	0.97823
3861.15003	0.97882
3859.09623	0.97916
3857.04243	0.97851
3854.98862	0.97720
3852.93482	0.97751
3850.88102	0.97903
3848.82721	0.97917
3846.77341	0.97831
3844.71961	0.97787
3842.66580	0.97855
3840.61200	0.97949
3838.55820	0.97987
3836.50439	0.97930
3834.45059	0.97861
3832.39679	0.97872
3830.34298	0.97896
3828.28918	0.97864
3826.23538	0.97832
3824.18158	0.97842
3822.12777	0.97869
3820.07397	0.97902
3818.02017	0.97940
3815.96636	0.97951
3813.91256	0.97901
3811.85876	0.97836
3809.80495	0.97799
3807.75115	0.97809
3805.69735	0.97842
3803.64354	0.97860
3801.58974	0.97864
3799.53594	0.97859
3797.48213	0.97888
3795.42833	0.97931
3793.37453	0.97952
3791.32072	0.97984
3789.26692	0.98002
3787.21312	0.97975
3785.15931	0.97953
3783.10551	0.97942
3781.05171	0.97921
3778.99790	0.97924
3776.94410	0.97972
3774.89030	0.98029
3772.83650	0.98057
3770.78269	0.98030
3768.72889	0.97981
3766.67509	0.97944
3764.62128	0.97872
3762.56748	0.97824
3760.51368	0.97892
3758.45987	0.97997
3756.40607	0.98033
3754.35227	0.98040
3752.29846	0.97987
3750.24466	0.97888
3748.19086	0.97863
3746.13705	0.97872
3744.08325	0.97937
3742.02945	0.98021
3739.97564	0.98058
3737.92184	0.98053
3735.86804	0.97990
3733.81423	0.97901
3731.76043	0.97847
3729.70663	0.97844
3727.65282	0.97848
3725.59902	0.97844
3723.54522	0.97857
3721.49141	0.97878
3719.43761	0.97871
3717.38381	0.97831
3715.33001	0.97826
3713.27620	0.97854
3711.22240	0.97867
3709.16860	0.97883
3707.11479	0.97843
3705.06099	0.97732
3703.00719	0.97629
3700.95338	0.97559
3698.89958	0.97543
3696.84578	0.97582
3694.79197	0.97565
3692.73817	0.97481
3690.68437	0.97456
3688.63056	0.97566
3686.57676	0.97682
3684.52296	0.97683
3682.46915	0.97627
3680.41535	0.97595
3678.36155	0.97603
3676.30774	0.97635
3674.25394	0.97643
3672.20014	0.97608
3670.14633	0.97563
3668.09253	0.97499
3666.03873	0.97411
3663.98492	0.97379
3661.93112	0.97426
3659.87732	0.97453
3657.82352	0.97391
3655.76971	0.97297
3653.71591	0.97274
3651.66211	0.97287
3649.60830	0.97250
3647.55450	0.97197
3645.50070	0.97190
3643.44689	0.97162
3641.39309	0.97124
3639.33929	0.97120
3637.28548	0.97123
3635.23168	0.97123
3633.17788	0.97138
3631.12407	0.97177
3629.07027	0.97229
3627.01647	0.97174
3624.96266	0.97039
3622.90886	0.96935
3620.85506	0.96907
3618.80125	0.96946
3616.74745	0.96972
3614.69365	0.96982
3612.63984	0.97024
3610.58604	0.97065
3608.53224	0.97055
3606.47844	0.97033
3604.42463	0.97021
3602.37083	0.97003
3600.31703	0.97026
3598.26322	0.97093
3596.20942	0.97126
3594.15562	0.97104
3592.10181	0.97090
3590.04801	0.97088
3587.99421	0.97073
3585.94040	0.97083
3583.88660	0.97132
3581.83280	0.97196
3579.77899	0.97207
3577.72519	0.97141
3575.67139	0.97085
3573.61758	0.97023
3571.56378	0.96929
3569.50998	0.96920
3567.45617	0.97008
3565.40237	0.97029
3563.34857	0.96993
3561.29476	0.96988
3559.24096	0.96988
3557.18716	0.96965
3555.13335	0.96931
3553.07955	0.96883
3551.02575	0.96861
3548.97195	0.96904
3546.91814	0.96944
3544.86434	0.96936
3542.81054	0.96909
3540.75673	0.96890
3538.70293	0.96866
3536.64913	0.96842
3534.59532	0.96853
3532.54152	0.96901
3530.48772	0.96942
3528.43391	0.96930
3526.38011	0.96908
3524.32631	0.96895
3522.27250	0.96831
3520.21870	0.96763
3518.16490	0.96796
3516.11109	0.96899
3514.05729	0.96960
3512.00349	0.96937
3509.94968	0.96866
3507.89588	0.96805
3505.84208	0.96765
3503.78827	0.96764
3501.73447	0.96821
3499.68067	0.96863
3497.62687	0.96853
3495.57306	0.96842
3493.51926	0.96839
3491.46546	0.96837
3489.41165	0.96833
3487.35785	0.96799
3485.30405	0.96783
3483.25024	0.96822
3481.19644	0.96843
3479.14264	0.96829
3477.08883	0.96841
3475.03503	0.96851
3472.98123	0.96814
3470.92742	0.96791
3468.87362	0.96816
3466.81982	0.96824
3464.76601	0.96805
3462.71221	0.96791
3460.65841	0.96777
3458.60460	0.96770
3456.55080	0.96769
3454.49700	0.96754
3452.44319	0.96745
3450.38939	0.96754
3448.33559	0.96732
3446.28178	0.96693
3444.22798	0.96693
3442.17418	0.96727
3440.12038	0.96757
3438.06657	0.96752
3436.01277	0.96738
3433.95897	0.96703
3431.90516	0.96615
3429.85136	0.96554
3427.79756	0.96578
3425.74375	0.96631
3423.68995	0.96643
3421.63615	0.96634
3419.58234	0.96652
3417.52854	0.96685
3415.47474	0.96665
3413.42093	0.96589
3411.36713	0.96546
3409.31333	0.96506
3407.25952	0.96442
3405.20572	0.96435
3403.15192	0.96475
3401.09811	0.96505
3399.04431	0.96540
3396.99051	0.96590
3394.93670	0.96642
3392.88290	0.96649
3390.82910	0.96580
3388.77529	0.96527
3386.72149	0.96548
3384.66769	0.96557
3382.61389	0.96503
3380.56008	0.96462
3378.50628	0.96471
3376.45248	0.96510
3374.39867	0.96566
3372.34487	0.96610
3370.29107	0.96606
3368.23726	0.96544
3366.18346	0.96478
3364.12966	0.96473
3362.07585	0.96494
3360.02205	0.96511
3357.96825	0.96551
3355.91444	0.96578
3353.86064	0.96565
3351.80684	0.96574
3349.75303	0.96642
3347.69923	0.96710
3345.64543	0.96712
3343.59162	0.96666
3341.53782	0.96615
3339.48402	0.96600
3337.43021	0.96640
3335.37641	0.96712
3333.32261	0.96749
3331.26881	0.96733
3329.21500	0.96730
3327.16120	0.96746
3325.10740	0.96744
3323.05359	0.96745
3320.99979	0.96764
3318.94599	0.96744
3316.89218	0.96688
3314.83838	0.96699
3312.78458	0.96747
3310.73077	0.96727
3308.67697	0.96688
3306.62317	0.96668
3304.56936	0.96637
3302.51556	0.96647
3300.46176	0.96702
3298.40795	0.96749
3296.35415	0.96768
3294.30035	0.96747
3292.24654	0.96742
3290.19274	0.96789
3288.13894	0.96807
3286.08513	0.96809
3284.03133	0.96865
3281.97753	0.96896
3279.92372	0.96839
3277.86992	0.96765
3275.81612	0.96742
3273.76232	0.96742
3271.70851	0.96715
3269.65471	0.96684
3267.60091	0.96692
3265.54710	0.96738
3263.49330	0.96787
3261.43950	0.96791
3259.38569	0.96738
3257.33189	0.96669
3255.27809	0.96673
3253.22428	0.96772
3251.17048	0.96860
3249.11668	0.96895
3247.06287	0.96920
3245.00907	0.96948
3242.95527	0.96957
3240.90146	0.96919
3238.84766	0.96878
3236.79386	0.96867
3234.74005	0.96869
3232.68625	0.96872
3230.63245	0.96876
3228.57864	0.96864
3226.52484	0.96860
3224.47104	0.96921
3222.41724	0.96986
3220.36343	0.96968
3218.30963	0.96926
3216.25583	0.96938
3214.20202	0.96972
3212.14822	0.96981
3210.09442	0.96997
3208.04061	0.97017
3205.98681	0.97017
3203.93301	0.97007
3201.87920	0.96998
3199.82540	0.97006
3197.77160	0.97009
3195.71779	0.96979
3193.66399	0.96981
3191.61019	0.97032
3189.55638	0.97052
3187.50258	0.97040
3185.44878	0.97085
3183.39497	0.97177
3181.34117	0.97184
3179.28737	0.97127
3177.23356	0.97107
3175.17976	0.97106
3173.12596	0.97097
3171.07215	0.97079
3169.01835	0.97069
3166.96455	0.97101
3164.91075	0.97129
3162.85694	0.97126
3160.80314	0.97149
3158.74934	0.97172
3156.69553	0.97168
3154.64173	0.97190
3152.58793	0.97213
3150.53412	0.97196
3148.48032	0.97188
3146.42652	0.97236
3144.37271	0.97309
3142.31891	0.97335
3140.26511	0.97314
3138.21130	0.97315
3136.15750	0.97328
3134.10370	0.97331
3132.04989	0.97341
3129.99609	0.97322
3127.94229	0.97281
3125.88848	0.97291
3123.83468	0.97334
3121.78088	0.97341
3119.72707	0.97310
3117.67327	0.97270
3115.61947	0.97263
3113.56566	0.97302
3111.51186	0.97308
3109.45806	0.97257
3107.40426	0.97232
3105.35045	0.97257
3103.29665	0.97310
3101.24285	0.97372
3099.18904	0.97389
3097.13524	0.97382
3095.08144	0.97414
3093.02763	0.97429
3090.97383	0.97356
3088.92003	0.97249
3086.86622	0.97201
3084.81242	0.97191
3082.75862	0.97152
3080.70481	0.97117
3078.65101	0.97136
3076.59721	0.97198
3074.54340	0.97255
3072.48960	0.97243
3070.43580	0.97164
3068.38199	0.97122
3066.32819	0.97102
3064.27439	0.97039
3062.22058	0.97001
3060.16678	0.96989
3058.11298	0.96972
3056.05918	0.97012
3054.00537	0.97101
3051.95157	0.97176
3049.89777	0.97228
3047.84396	0.97257
3045.79016	0.97281
3043.73636	0.97311
3041.68255	0.97310
3039.62875	0.97266
3037.57495	0.97210
3035.52114	0.97145
3033.46734	0.97034
3031.41354	0.96875
3029.35973	0.96716
3027.30593	0.96595
3025.25213	0.96533
3023.19832	0.96568
3021.14452	0.96735
3019.09072	0.96959
3017.03691	0.97105
3014.98311	0.97165
3012.92931	0.97220
3010.87550	0.97273
3008.82170	0.97311
3006.76790	0.97355
3004.71409	0.97376
3002.66029	0.97372
3000.60649	0.97376
2998.55269	0.97373
2996.49888	0.97386
2994.44508	0.97441
2992.39128	0.97492
2990.33747	0.97536
2988.28367	0.97588
2986.22987	0.97613
2984.17606	0.97603
2982.12226	0.97589
2980.06846	0.97586
2978.01465	0.97601
2975.96085	0.97646
2973.90705	0.97687
2971.85324	0.97705
2969.79944	0.97736
2967.74564	0.97769
2965.69183	0.97780
2963.63803	0.97797
2961.58423	0.97817
2959.53042	0.97817
2957.47662	0.97813
2955.42282	0.97832
2953.36901	0.97854
2951.31521	0.97824
2949.26141	0.97715
2947.20761	0.97615
2945.15380	0.97612
2943.10000	0.97654
2941.04620	0.97649
2938.99239	0.97602
2936.93859	0.97571
2934.88479	0.97553
2932.83098	0.97528
2930.77718	0.97487
2928.72338	0.97424
2926.66957	0.97376
2924.61577	0.97331
2922.56197	0.97260
2920.50816	0.97165
2918.45436	0.97069
2916.40056	0.97018
2914.34675	0.97019
2912.29295	0.97038
2910.23915	0.97053
2908.18534	0.97099
2906.13154	0.97187
2904.07774	0.97241
2902.02393	0.97250
2899.97013	0.97275
2897.91633	0.97329
2895.86252	0.97380
2893.80872	0.97406
2891.75492	0.97408
2889.70112	0.97395
2887.64731	0.97352
2885.59351	0.97329
2883.53971	0.97367
2881.48590	0.97429
2879.43210	0.97494
2877.37830	0.97544
2875.32449	0.97569
2873.27069	0.97588
2871.21689	0.97621
2869.16308	0.97660
2867.10928	0.97677
2865.05548	0.97679
2863.00167	0.97687
2860.94787	0.97705
2858.89407	0.97704
2856.84026	0.97686
2854.78646	0.97673
2852.73266	0.97649
2850.67885	0.97607
2848.62505	0.97568
2846.57125	0.97545
2844.51744	0.97510
2842.46364	0.97469
2840.40984	0.97480
2838.35603	0.97509
2836.30223	0.97514
2834.24843	0.97537
2832.19463	0.97576
2830.14082	0.97585
2828.08702	0.97599
2826.03322	0.97634
2823.97941	0.97655
2821.92561	0.97678
2819.87181	0.97714
2817.81800	0.97722
2815.76420	0.97675
2813.71040	0.97607
2811.65659	0.97590
2809.60279	0.97617
2807.54899	0.97632
2805.49518	0.97638
2803.44138	0.97659
2801.38758	0.97695
2799.33377	0.97718
2797.27997	0.97707
2795.22617	0.97678
2793.17236	0.97664
2791.11856	0.97687
2789.06476	0.97710
2787.01095	0.97702
2784.95715	0.97687
2782.90335	0.97681
2780.84955	0.97661
2778.79574	0.97638
2776.74194	0.97660
2774.68814	0.97711
2772.63433	0.97742
2770.58053	0.97728
2768.52673	0.97686
2766.47292	0.97670
2764.41912	0.97702
2762.36532	0.97738
2760.31151	0.97739
2758.25771	0.97729
2756.20391	0.97754
2754.15010	0.97795
2752.09630	0.97793
2750.04250	0.97745
2747.98869	0.97727
2745.93489	0.97751
2743.88109	0.97766
2741.82728	0.97779
2739.77348	0.97786
2737.71968	0.97755
2735.66587	0.97728
2733.61207	0.97756
2731.55827	0.97782
2729.50446	0.97752
2727.45066	0.97734
2725.39686	0.97761
2723.34306	0.97773
2721.28925	0.97750
2719.23545	0.97731
2717.18165	0.97737
2715.12784	0.97750
2713.07404	0.97776
2711.02024	0.97825
2708.96643	0.97852
2706.91263	0.97835
2704.85883	0.97791
2702.80502	0.97767
2700.75122	0.97786
2698.69742	0.97783
2696.64361	0.97757
2694.58981	0.97761
2692.53601	0.97772
2690.48220	0.97768
2688.42840	0.97773
2686.37460	0.97791
2684.32079	0.97820
2682.26699	0.97857
2680.21319	0.97886
2678.15938	0.97877
2676.10558	0.97842
2674.05178	0.97823
2671.99797	0.97815
2669.94417	0.97796
2667.89037	0.97786
2665.83657	0.97799
2663.78276	0.97823
2661.72896	0.97842
2659.67516	0.97835
2657.62135	0.97799
2655.56755	0.97783
2653.51375	0.97801
2651.45994	0.97816
2649.40614	0.97810
2647.35234	0.97790
2645.29853	0.97778
2643.24473	0.97796
2641.19093	0.97819
2639.13712	0.97814
2637.08332	0.97801
2635.02952	0.97800
2632.97571	0.97808
2630.92191	0.97816
2628.86811	0.97819
2626.81430	0.97811
2624.76050	0.97777
2622.70670	0.97735
2620.65289	0.97745
2618.59909	0.97784
2616.54529	0.97795
2614.49149	0.97804
2612.43768	0.97824
2610.38388	0.97825
2608.33008	0.97804
2606.27627	0.97801
2604.22247	0.97836
2602.16867	0.97874
2600.11486	0.97864
2598.06106	0.97818
2596.00726	0.97801
2593.95345	0.97831
2591.89965	0.97863
2589.84585	0.97872
2587.79204	0.97861
2585.73824	0.97863
2583.68444	0.97897
2581.63063	0.97888
2579.57683	0.97838
2577.52303	0.97862
2575.46922	0.97910
2573.41542	0.97901
2571.36162	0.97908
2569.30781	0.97948
2567.25401	0.97974
2565.20021	0.97967
2563.14640	0.97926
2561.09260	0.97887
2559.03880	0.97859
2556.98500	0.97861
2554.93119	0.97935
2552.87739	0.98034
2550.82359	0.98074
2548.76978	0.98033
2546.71598	0.97969
2544.66218	0.97928
2542.60837	0.97929
2540.55457	0.97976
2538.50077	0.98001
2536.44696	0.97961
2534.39316	0.97895
2532.33936	0.97847
2530.28555	0.97871
2528.23175	0.97944
2526.17795	0.97989
2524.12414	0.98005
2522.07034	0.98012
2520.01654	0.98022
2517.96273	0.98033
2515.90893	0.98020
2513.85513	0.98015
2511.80132	0.98042
2509.74752	0.98052
2507.69372	0.98027
2505.63992	0.98015
2503.58611	0.98033
2501.53231	0.98032
2499.47851	0.97991
2497.42470	0.97914
2495.37090	0.97848
2493.31710	0.97882
2491.26329	0.97997
2489.20949	0.98080
2487.15569	0.98076
2485.10188	0.98065
2483.04808	0.98072
2480.99428	0.98037
2478.94047	0.98006
2476.88667	0.98020
2474.83287	0.98034
2472.77906	0.98019
2470.72526	0.97975
2468.67146	0.97952
2466.61765	0.97981
2464.56385	0.97993
2462.51005	0.97983
2460.45624	0.97975
2458.40244	0.97973
2456.34864	0.97976
2454.29483	0.97980
2452.24103	0.97992
2450.18723	0.98006
2448.13343	0.98047
2446.07962	0.98096
2444.02582	0.98111
2441.97202	0.98126
2439.91821	0.98130
2437.86441	0.98090
2435.81061	0.98022
2433.75680	0.97971
2431.70300	0.97970
2429.64920	0.97997
2427.59539	0.98023
2425.54159	0.98063
2423.48779	0.98090
2421.43398	0.98060
2419.38018	0.98020
2417.32638	0.98017
2415.27257	0.98030
2413.21877	0.98060
2411.16497	0.98094
2409.11116	0.98109
2407.05736	0.98112
2405.00356	0.98105
2402.94975	0.98097
2400.89595	0.98115
2398.84215	0.98154
2396.78834	0.98132
2394.73454	0.98060
2392.68074	0.98058
2390.62694	0.98110
2388.57313	0.98125
2386.51933	0.98108
2384.46553	0.98080
2382.41172	0.98042
2380.35792	0.98025
2378.30412	0.98058
2376.25031	0.98125
2374.19651	0.98168
2372.14271	0.98134
2370.08890	0.98108
2368.03510	0.98160
2365.98130	0.98152
2363.92749	0.98051
2361.87369	0.98053
2359.81989	0.98181
2357.76608	0.98251
2355.71228	0.98185
2353.65848	0.98064
2351.60467	0.97998
2349.55087	0.98035
2347.49707	0.98102
2345.44326	0.98107
2343.38946	0.98035
2341.33566	0.97972
2339.28186	0.98012
2337.22805	0.98122
2335.17425	0.98182
2333.12045	0.98189
2331.06664	0.98169
2329.01284	0.98096
2326.95904	0.98003
2324.90523	0.97905
2322.85143	0.97848
2320.79763	0.97887
2318.74382	0.97968
2316.69002	0.98026
2314.63622	0.98044
2312.58241	0.98061
2310.52861	0.98087
2308.47481	0.98069
2306.42100	0.97981
2304.36720	0.97884
2302.31340	0.97894
2300.25959	0.97963
2298.20579	0.97988
2296.15199	0.97974
2294.09818	0.97962
2292.04438	0.97986
2289.99058	0.97991
2287.93677	0.97915
2285.88297	0.97849
2283.82917	0.97896
2281.77537	0.97965
2279.72156	0.97998
2277.66776	0.98021
2275.61396	0.98021
2273.56015	0.98050
2271.50635	0.98110
2269.45255	0.98151
2267.39874	0.98164
2265.34494	0.98186
2263.29114	0.98199
2261.23733	0.98083
2259.18353	0.97954
2257.12973	0.97952
2255.07592	0.97969
2253.02212	0.97995
2250.96832	0.98077
2248.91451	0.98140
2246.86071	0.98143
2244.80691	0.98087
2242.75310	0.97979
2240.69930	0.97911
2238.64550	0.98021
2236.59169	0.98236
2234.53789	0.98353
2232.48409	0.98283
2230.43029	0.98135
2228.37648	0.98136
2226.32268	0.98307
2224.26888	0.98428
2222.21507	0.98424
2220.16127	0.98419
2218.10747	0.98386
2216.05366	0.98290
2213.99986	0.98286
2211.94606	0.98351
2209.89225	0.98357
2207.83845	0.98326
2205.78465	0.98329
2203.73084	0.98386
2201.67704	0.98350
2199.62324	0.98248
2197.56943	0.98256
2195.51563	0.98253
2193.46183	0.98202
2191.40802	0.98161
2189.35422	0.98129
2187.30042	0.98199
2185.24661	0.98209
2183.19281	0.98053
2181.13901	0.98019
2179.08520	0.98161
2177.03140	0.98217
2174.97760	0.98164
2172.92380	0.98220
2170.86999	0.98270
2168.81619	0.98147
2166.76239	0.98042
2164.70858	0.97900
2162.65478	0.97654
2160.60098	0.97744
2158.54717	0.98320
2156.49337	0.98738
2154.43957	0.98702
2152.38576	0.98558
2150.33196	0.98478
2148.27816	0.98454
2146.22435	0.98511
2144.17055	0.98544
2142.11675	0.98479
2140.06294	0.98451
2138.00914	0.98409
2135.95534	0.98256
2133.90153	0.98219
2131.84773	0.98355
2129.79393	0.98408
2127.74012	0.98342
2125.68632	0.98273
2123.63252	0.98274
2121.57871	0.98379
2119.52491	0.98476
2117.47111	0.98475
2115.41731	0.98398
2113.36350	0.98348
2111.30970	0.98407
2109.25590	0.98496
2107.20209	0.98506
2105.14829	0.98435
2103.09449	0.98264
2101.04068	0.98064
2098.98688	0.98095
2096.93308	0.98263
2094.87927	0.98235
2092.82547	0.98132
2090.77167	0.98168
2088.71786	0.98178
2086.66406	0.98104
2084.61026	0.98199
2082.55645	0.98405
2080.50265	0.98368
2078.44885	0.98164
2076.39504	0.98148
2074.34124	0.98280
2072.28744	0.98358
2070.23363	0.98424
2068.17983	0.98449
2066.12603	0.98353
2064.07223	0.98263
2062.01842	0.98281
2059.96462	0.98329
2057.91082	0.98329
2055.85701	0.98339
2053.80321	0.98542
2051.74941	0.98850
2049.69560	0.98870
2047.64180	0.98529
2045.58800	0.98168
2043.53419	0.98042
2041.48039	0.98142
2039.42659	0.98230
2037.37278	0.98136
2035.31898	0.98194
2033.26518	0.98650
2031.21137	0.99002
2029.15757	0.98878
2027.10377	0.98665
2025.04996	0.98614
2022.99616	0.98551
2020.94236	0.98441
2018.88855	0.98457
2016.83475	0.98678
2014.78095	0.98836
2012.72714	0.98725
2010.67334	0.98543
2008.61954	0.98501
2006.56574	0.98625
2004.51193	0.98617
2002.45813	0.98350
2000.40433	0.98297
1998.35052	0.98511
1996.29672	0.98625
1994.24292	0.98724
1992.18911	0.98664
1990.13531	0.98279
1988.08151	0.98096
1986.02770	0.98254
1983.97390	0.98415
1981.92010	0.98520
1979.86629	0.98683
1977.81249	0.98887
1975.75869	0.99000
1973.70488	0.99008
1971.65108	0.99020
1969.59728	0.98914
1967.54347	0.98645
1965.48967	0.98539
1963.43587	0.98639
1961.38206	0.98646
1959.32826	0.98591
1957.27446	0.98603
1955.22066	0.98577
1953.16685	0.98547
1951.11305	0.98489
1949.05925	0.98309
1947.00544	0.98200
1944.95164	0.98265
1942.89784	0.98370
1940.84403	0.98474
1938.79023	0.98507
1936.73643	0.98425
1934.68262	0.98350
1932.62882	0.98356
1930.57502	0.98457
1928.52121	0.98552
1926.46741	0.98519
1924.41361	0.98433
1922.35980	0.98377
1920.30600	0.98305
1918.25220	0.98283
1916.19839	0.98430
1914.14459	0.98531
1912.09079	0.98436
1910.03698	0.98298
1907.98318	0.98232
1905.92938	0.98193
1903.87557	0.98172
1901.82177	0.98178
1899.76797	0.98182
1897.71417	0.98206
1895.66036	0.98234
1893.60656	0.98252
1891.55276	0.98260
1889.49895	0.98256
1887.44515	0.98285
1885.39135	0.98261
1883.33754	0.98141
1881.28374	0.98112
1879.22994	0.98203
1877.17613	0.98240
1875.12233	0.98213
1873.06853	0.98182
1871.01472	0.98097
1868.96092	0.97994
1866.90712	0.98016
1864.85331	0.98121
1862.79951	0.98196
1860.74571	0.98240
1858.69190	0.98277
1856.63810	0.98264
1854.58430	0.98228
1852.53049	0.98232
1850.47669	0.98245
1848.42289	0.98257
1846.36908	0.98297
1844.31528	0.98341
1842.26148	0.98337
1840.20768	0.98321
1838.15387	0.98326
1836.10007	0.98313
1834.04627	0.98278
1831.99246	0.98279
1829.93866	0.98342
1827.88486	0.98409
1825.83105	0.98398
1823.77725	0.98329
1821.72345	0.98303
1819.66964	0.98319
1817.61584	0.98307
1815.56204	0.98261
1813.50823	0.98238
1811.45443	0.98268
1809.40063	0.98296
1807.34682	0.98278
1805.29302	0.98224
1803.23922	0.98176
1801.18541	0.98172
1799.13161	0.98181
1797.07781	0.98175
1795.02400	0.98161
1792.97020	0.98137
1790.91640	0.98160
1788.86260	0.98237
1786.80879	0.98280
1784.75499	0.98269
1782.70119	0.98235
1780.64738	0.98199
1778.59358	0.98184
1776.53978	0.98209
1774.48597	0.98254
1772.43217	0.98290
1770.37837	0.98313
1768.32456	0.98326
1766.27076	0.98315
1764.21696	0.98286
1762.16315	0.98259
1760.10935	0.98268
1758.05555	0.98320
1756.00174	0.98370
1753.94794	0.98394
1751.89414	0.98403
1749.84033	0.98374
1747.78653	0.98340
1745.73273	0.98332
1743.67892	0.98319
1741.62512	0.98308
1739.57132	0.98317
1737.51751	0.98313
1735.46371	0.98273
1733.40991	0.98210
1731.35611	0.98203
1729.30230	0.98235
1727.24850	0.98263
1725.19470	0.98289
1723.14089	0.98287
1721.08709	0.98256
1719.03329	0.98249
1716.97948	0.98287
1714.92568	0.98320
1712.87188	0.98328
1710.81807	0.98323
1708.76427	0.98294
1706.71047	0.98214
1704.65666	0.98126
1702.60286	0.98103
1700.54906	0.98123
1698.49525	0.98140
1696.44145	0.98129
1694.38765	0.98032
1692.33384	0.97882
1690.28004	0.97765
1688.22624	0.97721
1686.17243	0.97726
1684.11863	0.97723
1682.06483	0.97693
1680.01103	0.97658
1677.95722	0.97603
1675.90342	0.97552
1673.84962	0.97531
1671.79581	0.97491
1669.74201	0.97404
1667.68821	0.97339
1665.63440	0.97319
1663.58060	0.97300
1661.52680	0.97273
1659.47299	0.97235
1657.41919	0.97194
1655.36539	0.97158
1653.31158	0.97131
1651.25778	0.97132
1649.20398	0.97124
1647.15017	0.97102
1645.09637	0.97125
1643.04257	0.97186
1640.98876	0.97215
1638.93496	0.97178
1636.88116	0.97127
1634.82735	0.97148
1632.77355	0.97182
1630.71975	0.97181
1628.66594	0.97172
1626.61214	0.97161
1624.55834	0.97151
1622.50454	0.97176
1620.45073	0.97208
1618.39693	0.97218
1616.34313	0.97246
1614.28932	0.97268
1612.23552	0.97259
1610.18172	0.97227
1608.12791	0.97140
1606.07411	0.97003
1604.02031	0.96842
1601.96650	0.96697
1599.91270	0.96666
1597.85890	0.96775
1595.80509	0.96947
1593.75129	0.97107
1591.69749	0.97241
1589.64368	0.97335
1587.58988	0.97343
1585.53608	0.97303
1583.48227	0.97300
1581.42847	0.97359
1579.37467	0.97444
1577.32086	0.97497
1575.26706	0.97526
1573.21326	0.97566
1571.15945	0.97588
1569.10565	0.97598
1567.05185	0.97633
1564.99805	0.97644
1562.94424	0.97582
1560.89044	0.97486
1558.83664	0.97493
1556.78283	0.97603
1554.72903	0.97624
1552.67523	0.97595
1550.62142	0.97546
1548.56762	0.97508
1546.51382	0.97517
1544.46001	0.97587
1542.40621	0.97688
1540.35241	0.97709
1538.29860	0.97629
1536.24480	0.97586
1534.19100	0.97562
1532.13719	0.97547
1530.08339	0.97553
1528.02959	0.97561
1525.97578	0.97576
1523.92198	0.97579
1521.86818	0.97538
1519.81437	0.97514
1517.76057	0.97553
1515.70677	0.97613
1513.65297	0.97640
1511.59916	0.97635
1509.54536	0.97632
1507.49156	0.97627
1505.43775	0.97575
1503.38395	0.97502
1501.33015	0.97395
1499.27634	0.97166
1497.22254	0.96545
1495.16874	0.95551
1493.11493	0.94900
1491.06113	0.95005
1489.00733	0.95763
1486.95352	0.96406
1484.89972	0.96710
1482.84592	0.96875
1480.79211	0.96972
1478.73831	0.97039
1476.68451	0.97094
1474.63070	0.97136
1472.57690	0.97190
1470.52310	0.97230
1468.46929	0.97246
1466.41549	0.97277
1464.36169	0.97293
1462.30788	0.97240
1460.25408	0.97130
1458.20028	0.96804
1456.14648	0.95935
1454.09267	0.95108
1452.03887	0.94778
1449.98507	0.94941
1447.93126	0.95376
1445.87746	0.95754
1443.82366	0.96034
1441.76985	0.96294
1439.71605	0.96474
1437.66225	0.96584
1435.60844	0.96723
1433.55464	0.96859
1431.50084	0.96972
1429.44703	0.97067
1427.39323	0.97126
1425.33943	0.97176
1423.28562	0.97216
1421.23182	0.97241
1419.17802	0.97313
1417.12421	0.97388
1415.07041	0.97382
1413.01661	0.97368
1410.96280	0.97404
1408.90900	0.97459
1406.85520	0.97510
1404.80139	0.97556
1402.74759	0.97571
1400.69379	0.97589
1398.63999	0.97627
1396.58618	0.97643
1394.53238	0.97652
1392.47858	0.97671
1390.42477	0.97679
1388.37097	0.97680
1386.31717	0.97677
1384.26336	0.97660
1382.20956	0.97644
1380.15576	0.97657
1378.10195	0.97673
1376.04815	0.97643
1373.99435	0.97579
1371.94054	0.97539
1369.88674	0.97542
1367.83294	0.97564
1365.77913	0.97578
1363.72533	0.97581
1361.67153	0.97590
1359.61772	0.97601
1357.56392	0.97606
1355.51012	0.97634
1353.45631	0.97687
1351.40251	0.97722
1349.34871	0.97725
1347.29491	0.97713
1345.24110	0.97709
1343.18730	0.97713
1341.13350	0.97719
1339.07969	0.97726
1337.02589	0.97735
1334.97209	0.97746
1332.91828	0.97755
1330.86448	0.97742
1328.81068	0.97716
1326.75687	0.97701
1324.70307	0.97694
1322.64927	0.97698
1320.59546	0.97721
1318.54166	0.97742
1316.48786	0.97736
1314.43405	0.97716
1312.38025	0.97706
1310.32645	0.97699
1308.27264	0.97696
1306.21884	0.97708
1304.16504	0.97733
1302.11123	0.97763
1300.05743	0.97812
1298.00363	0.97875
1295.94982	0.97897
1293.89602	0.97870
1291.84222	0.97831
1289.78842	0.97806
1287.73461	0.97812
1285.68081	0.97833
1283.62701	0.97834
1281.57320	0.97811
1279.51940	0.97793
1277.46560	0.97781
1275.41179	0.97754
1273.35799	0.97744
1271.30419	0.97759
1269.25038	0.97767
1267.19658	0.97786
1265.14278	0.97813
1263.08897	0.97793
1261.03517	0.97743
1258.98137	0.97730
1256.92756	0.97737
1254.87376	0.97701
1252.81996	0.97640
1250.76615	0.97593
1248.71235	0.97558
1246.65855	0.97529
1244.60474	0.97487
1242.55094	0.97442
1240.49714	0.97418
1238.44334	0.97407
1236.38953	0.97397
1234.33573	0.97370
1232.28193	0.97324
1230.22812	0.97292
1228.17432	0.97277
1226.12052	0.97231
1224.06671	0.97145
1222.01291	0.97041
1219.95911	0.96934
1217.90530	0.96821
1215.85150	0.96696
1213.79770	0.96566
1211.74389	0.96436
1209.69009	0.96319
1207.63629	0.96209
1205.58248	0.96070
1203.52868	0.95895
1201.47488	0.95704
1199.42107	0.95509
1197.36727	0.95328
1195.31347	0.95177
1193.25966	0.95031
1191.20586	0.94861
1189.15206	0.94675
1187.09825	0.94474
1185.04445	0.94242
1182.99065	0.94001
1180.93685	0.93783
1178.88304	0.93604
1176.82924	0.93474
1174.77544	0.93366
1172.72163	0.93218
1170.66783	0.93002
1168.61403	0.92768
1166.56022	0.92540
1164.50642	0.92308
1162.45262	0.92132
1160.39881	0.92058
1158.34501	0.92015
1156.29121	0.91928
1154.23740	0.91799
1152.18360	0.91658
1150.12980	0.91542
1148.07599	0.91459
1146.02219	0.91368
1143.96839	0.91255
1141.91458	0.91136
1139.86078	0.90977
1137.80698	0.90767
1135.75317	0.90563
1133.69937	0.90395
1131.64557	0.90221
1129.59176	0.89985
1127.53796	0.89718
1125.48416	0.89473
1123.43036	0.89193
1121.37655	0.88838
1119.32275	0.88448
1117.26895	0.88067
1115.21514	0.87729
1113.16134	0.87437
1111.10754	0.87176
1109.05373	0.86914
1106.99993	0.86635
1104.94613	0.86357
1102.89232	0.86096
1100.83852	0.85857
1098.78472	0.85642
1096.73091	0.85427
1094.67711	0.85177
1092.62331	0.84940
1090.56950	0.84743
1088.51570	0.84547
1086.46190	0.84368
1084.40809	0.84231
1082.35429	0.84097
1080.30049	0.83941
1078.24668	0.83774
1076.19288	0.83567
1074.13908	0.83349
1072.08528	0.83195
1070.03147	0.83035
1067.97767	0.82789
1065.92387	0.82529
1063.87006	0.82296
1061.81626	0.82074
1059.76246	0.81880
1057.70865	0.81700
1055.65485	0.81469
1053.60105	0.81150
1051.54724	0.80779
1049.49344	0.80420
1047.43964	0.80046
1045.38583	0.79567
1043.33203	0.79019
1041.27823	0.78486
1039.22442	0.77968
1037.17062	0.77463
1035.11682	0.76960
1033.06301	0.76470
1031.00921	0.76029
1028.95541	0.75668
1026.90160	0.75441
1024.84780	0.75369
1022.79400	0.75386
1020.74019	0.75396
1018.68639	0.75364
1016.63259	0.75311
1014.57879	0.75224
1012.52498	0.75083
1010.47118	0.74933
1008.41738	0.74841
1006.36357	0.74840
1004.30977	0.74899
1002.25597	0.74997
1000.20216	0.75187
998.14836	0.75471
996.09456	0.75771
994.04075	0.76091
991.98695	0.76446
989.93315	0.76797
987.87934	0.77196
985.82554	0.77698
983.77174	0.78261
981.71793	0.78839
979.66413	0.79400
977.61033	0.79946
975.55652	0.80540
973.50272	0.81213
971.44892	0.81900
969.39511	0.82539
967.34131	0.83132
965.28751	0.83675
963.23371	0.84170
961.17990	0.84640
959.12610	0.85092
957.07230	0.85521
955.01849	0.85921
952.96469	0.86270
950.91089	0.86566
948.85708	0.86827
946.80328	0.87033
944.74948	0.87214
942.69567	0.87438
940.64187	0.87701
938.58807	0.87946
936.53426	0.88153
934.48046	0.88355
932.42666	0.88561
930.37285	0.88732
928.31905	0.88840
926.26525	0.88894
924.21144	0.88942
922.15764	0.88966
920.10384	0.88938
918.05003	0.88909
915.99623	0.88863
913.94243	0.88778
911.88862	0.88711
909.83482	0.88741
907.78102	0.88905
905.72722	0.89176
903.67341	0.89515
901.61961	0.89908
899.56581	0.90354
897.51200	0.90814
895.45820	0.91229
893.40440	0.91537
891.35059	0.91735
889.29679	0.91907
887.24299	0.92097
885.18918	0.92270
883.13538	0.92400
881.08158	0.92497
879.02777	0.92585
876.97397	0.92681
874.92017	0.92809
872.86636	0.92976
870.81256	0.93168
868.75876	0.93384
866.70495	0.93582
864.65115	0.93673
862.59735	0.93693
860.54354	0.93763
858.48974	0.93868
856.43594	0.93978
854.38213	0.94118
852.32833	0.94228
850.27453	0.94270
848.22073	0.94300
846.16692	0.94370
844.11312	0.94399
842.05932	0.94313
840.00551	0.94185
837.95171	0.94102
835.89791	0.94113
833.84410	0.94185
831.79030	0.94223
829.73650	0.94208
827.68269	0.94202
825.62889	0.94257
823.57509	0.94335
821.52128	0.94347
819.46748	0.94300
817.41368	0.94205
815.35987	0.94069
813.30607	0.93937
811.25227	0.93764
809.19846	0.93489
807.14466	0.93063
805.09086	0.92407
803.03705	0.91658
800.98325	0.91079
798.92945	0.90738
796.87565	0.90642
794.82184	0.90777
792.76804	0.90961
790.71424	0.91070
788.66043	0.91102
786.60663	0.91010
784.55283	0.90808
782.49902	0.90521
780.44522	0.90181
778.39142	0.89924
776.33761	0.89807
774.28381	0.89752
772.23001	0.89627
770.17620	0.89352
768.12240	0.89032
766.06860	0.88790
764.01479	0.88560
761.96099	0.88217
759.90719	0.87848
757.85338	0.87605
755.79958	0.87491
753.74578	0.87494
751.69197	0.87604
749.63817	0.87788
747.58437	0.88096
745.53056	0.88560
743.47676	0.89144
741.42296	0.89840
739.36916	0.90543
737.31535	0.91134
735.26155	0.91617
733.20775	0.91969
731.15394	0.92217
729.10014	0.92383
727.04634	0.92488
724.99253	0.92618
722.93873	0.92808
720.88493	0.92993
718.83112	0.93067
716.77732	0.93071
714.72352	0.93047
712.66971	0.92868
710.61591	0.92391
708.56211	0.91455
706.50830	0.89810
704.45450	0.87269
702.40070	0.83926
700.34689	0.80063
698.29309	0.76458
696.23929	0.75024
694.18548	0.77230
692.13168	0.81622
690.07788	0.85429
688.02408	0.87627
685.97027	0.88732
683.91647	0.89350
681.86267	0.89823
679.80886	0.90225
677.75506	0.90450
675.70126	0.90512
673.64745	0.90556
671.59365	0.90675
669.53985	0.90900
667.48604	0.91103
665.43224	0.91097
663.37844	0.91051
661.32463	0.91005
659.27083	0.90978
657.21703	0.91024
655.16322	0.91023
653.10942	0.90939
651.05562	0.90923
649.00181	0.91011
646.94801	0.91122
644.89421	0.91248
642.84040	0.91390
640.78660	0.91502
638.73280	0.91544
636.67899	0.91511
634.62519	0.91471
632.57139	0.91431
630.51759	0.91410
628.46378	0.91480
626.40998	0.91490
624.35618	0.91337
622.30237	0.91207
620.24857	0.91140
618.19477	0.91103
616.14096	0.91070
614.08716	0.90929
612.03336	0.90709
609.97955	0.90455
607.92575	0.90220
605.87195	0.90143
603.81814	0.90211
601.76434	0.90214
599.71054	0.90052
597.65673	0.89781
595.60293	0.89387
593.54913	0.88995
591.49532	0.88875
589.44152	0.88957
587.38772	0.88986
585.33391	0.88920
583.28011	0.88785
581.22631	0.88644
579.17250	0.88566
577.11870	0.88431
575.06490	0.88109
573.01110	0.87815
570.95729	0.87670
568.90349	0.87464
566.84969	0.87207
564.79588	0.86947
562.74208	0.86638
560.68828	0.86327
558.63447	0.85911
556.58067	0.85250
554.52687	0.84460
552.47306	0.83763
550.41926	0.83187
548.36546	0.82604
546.31165	0.81984
544.25785	0.81322
542.20405	0.80470
540.15024	0.79454
538.09644	0.78590
536.04264	0.78068
533.98883	0.77828
531.93503	0.77757
529.88123	0.77827
527.82742	0.78032
525.77362	0.78253
523.71982	0.78396
521.66602	0.78576
519.61221	0.78924
517.55841	0.79344
515.50461	0.79619
513.45080	0.79804
511.39700	0.80129
509.34320	0.80717
507.28939	0.81393
505.23559	0.81640
503.18179	0.81445
501.12798	0.81393
499.07418	0.81380
497.02038	0.80971
494.96657	0.80478
492.91277	0.80208
490.85897	0.79743
488.80516	0.78752
486.75136	0.77588
484.69756	0.76493
482.64375	0.75457
480.58995	0.74483
478.53615	0.73414
476.48234	0.72283
474.42854	0.71324
472.37474	0.70515
470.32093	0.69926
468.26713	0.69712
466.21333	0.69695
464.15953	0.69773
462.10572	0.70004
460.05192	0.70369
457.99812	0.70834
455.94431	0.71239
453.89051	0.71651
451.83671	0.72218
449.78290	0.72646
447.72910	0.72794
445.67530	0.72936
443.62149	0.73363
441.56769	0.73821
439.51389	0.73666
437.46008	0.73281
435.40628	0.73460
433.35248	0.73694
431.29867	0.73164
429.24487	0.72735
427.19107	0.73614
425.13726	0.75117
423.08346	0.75629
421.02966	0.74955
418.97585	0.74368
416.92205	0.75016
414.86825	0.75968
412.81445	0.76760
410.76064	0.77577
408.70684	0.78318
406.65304	0.78993
404.59923	0.79596
402.54543	0.79631
400.49163	0.78844
398.43782	0.77631
