3996.70104	1.00139
3994.64724	1.00135
3992.59344	1.00142
3990.53964	1.00153
3988.48583	1.00144
3986.43203	1.00143
3984.37823	1.00154
3982.32442	1.00185
3980.27062	1.00202
3978.21682	1.00173
3976.16301	1.00138
3974.10921	1.00113
3972.05541	1.00084
3970.00160	1.00060
3967.94780	1.00068
3965.89400	1.00072
3963.84019	1.00045
3961.78639	1.00033
3959.73259	1.00087
3957.67878	1.00161
3955.62498	1.00152
3953.57118	1.00087
3951.51737	1.00063
3949.46357	1.00051
3947.40977	1.00013
3945.35596	1.00018
3943.30216	1.00047
3941.24836	1.00048
3939.19455	1.00062
3937.14075	1.00081
3935.08695	1.00080
3933.03315	1.00089
3930.97934	1.00111
3928.92554	1.00141
3926.87174	1.00171
3924.81793	1.00144
3922.76413	1.00083
3920.71033	1.00062
3918.65652	1.00081
3916.60272	1.00124
3914.54892	1.00149
3912.49511	1.00161
3910.44131	1.00200
3908.38751	1.00199
3906.33370	1.00124
3904.27990	1.00093
3902.22610	1.00149
3900.17229	1.00201
3898.11849	1.00214
3896.06469	1.00154
3894.01088	1.00073
3891.95708	1.00080
3889.90328	1.00157
3887.84947	1.00157
3885.79567	1.00104
3883.74187	1.00083
3881.68807	1.00047
3879.63426	1.00025
3877.58046	1.00065
3875.52666	1.00115
3873.47285	1.00142
3871.41905	1.00089
3869.36525	1.00020
3867.31144	1.00012
3865.25764	1.00009
3863.20384	1.00063
3861.15003	1.00196
3859.09623	1.00260
3857.04243	1.00220
3854.98862	1.00170
3852.93482	1.00166
3850.88102	1.00129
3848.82721	1.00072
3846.77341	1.00064
3844.71961	1.00096
3842.66580	1.00126
3840.61200	1.00143
3838.55820	1.00138
3836.50439	1.00152
3834.45059	1.00159
3832.39679	1.00114
3830.34298	1.00049
3828.28918	0.99993
3826.23538	0.99993
3824.18158	1.00038
3822.12777	1.00080
3820.07397	1.00108
3818.02017	1.00068
3815.96636	1.00004
3813.91256	1.00009
3811.85876	1.00033
3809.80495	1.00041
3807.75115	1.00060
3805.69735	1.00054
3803.64354	1.00012
3801.58974	1.00014
3799.53594	1.00074
3797.48213	1.00108
3795.42833	1.00094
3793.37453	1.00059
3791.32072	1.00040
3789.26692	1.00051
3787.21312	1.00105
3785.15931	1.00170
3783.10551	1.00175
3781.05171	1.00135
3778.99790	1.00119
3776.94410	1.00128
3774.89030	1.00105
3772.83650	1.00056
3770.78269	1.00064
3768.72889	1.00141
3766.67509	1.00181
3764.62128	1.00154
3762.56748	1.00078
3760.51368	1.00007
3758.45987	1.00004
3756.40607	1.00025
3754.35227	1.00018
3752.29846	1.00054
3750.24466	1.00174
3748.19086	1.00187
3746.13705	1.00083
3744.08325	1.00006
3742.02945	0.99997
3739.97564	0.99990
3737.92184	0.99969
3735.86804	0.99934
3733.81423	0.99939
3731.76043	1.00003
3729.70663	1.00047
3727.65282	1.00054
3725.59902	1.00060
3723.54522	1.00072
3721.49141	1.00107
3719.43761	1.00182
3717.38381	1.00222
3715.33001	1.00193
3713.27620	1.00119
3711.22240	0.99999
3709.16860	0.99924
3707.11479	0.99965
3705.06099	1.00012
3703.00719	0.99978
3700.95338	0.99886
3698.89958	0.99813
3696.84578	0.99799
3694.79197	0.99845
3692.73817	0.99898
3690.68437	0.99901
3688.63056	0.99912
3686.57676	1.00006
3684.52296	1.00052
3682.46915	1.00029
3680.41535	1.00039
3678.36155	1.00081
3676.30774	1.00039
3674.25394	0.99946
3672.20014	0.99904
3670.14633	0.99864
3668.09253	0.99883
3666.03873	0.99945
3663.98492	0.99957
3661.93112	0.99927
3659.87732	0.99932
3657.82352	0.99976
3655.76971	0.99971
3653.71591	0.99866
3651.66211	0.99715
3649.60830	0.99660
3647.55450	0.99853
3645.50070	1.00000
3643.44689	0.99957
3641.39309	0.99867
3639.33929	0.99879
3637.28548	0.99962
3635.23168	0.99988
3633.17788	0.99924
3631.12407	0.99868
3629.07027	0.99852
3627.01647	0.99865
3624.96266	0.99923
3622.90886	0.99953
3620.85506	0.99913
3618.80125	0.99894
3616.74745	0.99939
3614.69365	0.99915
3612.63984	0.99852
3610.58604	0.99842
3608.53224	0.99827
3606.47844	0.99758
3604.42463	0.99692
3602.37083	0.99693
3600.31703	0.99739
3598.26322	0.99760
3596.20942	0.99774
3594.15562	0.99788
3592.10181	0.99752
3590.04801	0.99677
3587.99421	0.99591
3585.94040	0.99576
3583.88660	0.99651
3581.83280	0.99711
3579.77899	0.99682
3577.72519	0.99605
3575.67139	0.99609
3573.61758	0.99673
3571.56378	0.99704
3569.50998	0.99704
3567.45617	0.99658
3565.40237	0.99576
3563.34857	0.99529
3561.29476	0.99508
3559.24096	0.99497
3557.18716	0.99496
3555.13335	0.99489
3553.07955	0.99459
3551.02575	0.99459
3548.97195	0.99517
3546.91814	0.99580
3544.86434	0.99604
3542.81054	0.99584
3540.75673	0.99538
3538.70293	0.99491
3536.64913	0.99448
3534.59532	0.99406
3532.54152	0.99397
3530.48772	0.99449
3528.43391	0.99485
3526.38011	0.99446
3524.32631	0.99428
3522.27250	0.99460
3520.21870	0.99477
3518.16490	0.99502
3516.11109	0.99524
3514.05729	0.99492
3512.00349	0.99477
3509.94968	0.99521
3507.89588	0.99516
3505.84208	0.99444
3503.78827	0.99375
3501.73447	0.99365
3499.68067	0.99445
3497.62687	0.99525
3495.57306	0.99512
3493.51926	0.99464
3491.46546	0.99443
3489.41165	0.99450
3487.35785	0.99445
3485.30405	0.99393
3483.25024	0.99361
3481.19644	0.99366
3479.14264	0.99344
3477.08883	0.99297
3475.03503	0.99293
3472.98123	0.99328
3470.92742	0.99320
3468.87362	0.99284
3466.81982	0.99307
3464.76601	0.99375
3462.71221	0.99405
3460.65841	0.99383
3458.60460	0.99343
3456.55080	0.99330
3454.49700	0.99352
3452.44319	0.99371
3450.38939	0.99358
3448.33559	0.99299
3446.28178	0.99290
3444.22798	0.99376
3442.17418	0.99417
3440.12038	0.99394
3438.06657	0.99390
3436.01277	0.99403
3433.95897	0.99384
3431.90516	0.99344
3429.85136	0.99327
3427.79756	0.99304
3425.74375	0.99275
3423.68995	0.99281
3421.63615	0.99297
3419.58234	0.99278
3417.52854	0.99231
3415.47474	0.99195
3413.42093	0.99168
3411.36713	0.99137
3409.31333	0.99121
3407.25952	0.99121
3405.20572	0.99104
3403.15192	0.99069
3401.09811	0.99115
3399.04431	0.99229
3396.99051	0.99246
3394.93670	0.99191
3392.88290	0.99182
3390.82910	0.99186
3388.77529	0.99186
3386.72149	0.99230
3384.66769	0.99276
3382.61389	0.99263
3380.56008	0.99228
3378.50628	0.99208
3376.45248	0.99191
3374.39867	0.99177
3372.34487	0.99180
3370.29107	0.99169
3368.23726	0.99149
3366.18346	0.99156
3364.12966	0.99223
3362.07585	0.99331
3360.02205	0.99360
3357.96825	0.99303
3355.91444	0.99273
3353.86064	0.99285
3351.80684	0.99300
3349.75303	0.99278
3347.69923	0.99206
3345.64543	0.99169
3343.59162	0.99202
3341.53782	0.99218
3339.48402	0.99216
3337.43021	0.99255
3335.37641	0.99319
3333.32261	0.99350
3331.26881	0.99346
3329.21500	0.99349
3327.16120	0.99343
3325.10740	0.99321
3323.05359	0.99329
3320.99979	0.99344
3318.94599	0.99339
3316.89218	0.99339
3314.83838	0.99365
3312.78458	0.99380
3310.73077	0.99355
3308.67697	0.99335
3306.62317	0.99345
3304.56936	0.99379
3302.51556	0.99423
3300.46176	0.99425
3298.40795	0.99359
3296.35415	0.99299
3294.30035	0.99325
3292.24654	0.99387
3290.19274	0.99439
3288.13894	0.99441
3286.08513	0.99379
3284.03133	0.99362
3281.97753	0.99422
3279.92372	0.99463
3277.86992	0.99472
3275.81612	0.99475
3273.76232	0.99459
3271.70851	0.99405
3269.65471	0.99349
3267.60091	0.99374
3265.54710	0.99444
3263.49330	0.99432
3261.43950	0.99374
3259.38569	0.99397
3257.33189	0.99465
3255.27809	0.99489
3253.22428	0.99470
3251.17048	0.99419
3249.11668	0.99372
3247.06287	0.99373
3245.00907	0.99396
3242.95527	0.99409
3240.90146	0.99424
3238.84766	0.99443
3236.79386	0.99465
3234.74005	0.99472
3232.68625	0.99443
3230.63245	0.99435
3228.57864	0.99470
3226.52484	0.99491
3224.47104	0.99487
3222.41724	0.99484
3220.36343	0.99461
3218.30963	0.99432
3216.25583	0.99463
3214.20202	0.99530
3212.14822	0.99570
3210.09442	0.99572
3208.04061	0.99568
3205.98681	0.99570
3203.93301	0.99549
3201.87920	0.99514
3199.82540	0.99514
3197.77160	0.99552
3195.71779	0.99572
3193.66399	0.99556
3191.61019	0.99534
3189.55638	0.99526
3187.50258	0.99526
3185.44878	0.99556
3183.39497	0.99607
3181.34117	0.99629
3179.28737	0.99617
3177.23356	0.99596
3175.17976	0.99594
3173.12596	0.99638
3171.07215	0.99685
3169.01835	0.99691
3166.96455	0.99686
3164.91075	0.99689
3162.85694	0.99685
3160.80314	0.99684
3158.74934	0.99714
3156.69553	0.99756
3154.64173	0.99733
3152.58793	0.99674
3150.53412	0.99679
3148.48032	0.99718
3146.42652	0.99708
3144.37271	0.99690
3142.31891	0.99711
3140.26511	0.99740
3138.21130	0.99763
3136.15750	0.99791
3134.10370	0.99813
3132.04989	0.99815
3129.99609	0.99803
3127.94229	0.99794
3125.88848	0.99774
3123.83468	0.99741
3121.78088	0.99750
3119.72707	0.99792
3117.67327	0.99812
3115.61947	0.99826
3113.56566	0.99823
3111.51186	0.99789
3109.45806	0.99764
3107.40426	0.99778
3105.35045	0.99810
3103.29665	0.99814
3101.24285	0.99774
3099.18904	0.99740
3097.13524	0.99739
3095.08144	0.99753
3093.02763	0.99763
3090.97383	0.99763
3088.92003	0.99773
3086.86622	0.99829
3084.81242	0.99915
3082.75862	0.99952
3080.70481	0.99923
3078.65101	0.99883
3076.59721	0.99855
3074.54340	0.99855
3072.48960	0.99876
3070.43580	0.99893
3068.38199	0.99912
3066.32819	0.99925
3064.27439	0.99925
3062.22058	0.99941
3060.16678	0.99952
3058.11298	0.99905
3056.05918	0.99851
3054.00537	0.99826
3051.95157	0.99813
3049.89777	0.99833
3047.84396	0.99869
3045.79016	0.99906
3043.73636	0.99948
3041.68255	0.99955
3039.62875	0.99929
3037.57495	0.99921
3035.52114	0.99926
3033.46734	0.99895
3031.41354	0.99839
3029.35973	0.99807
3027.30593	0.99841
3025.25213	0.99932
3023.19832	0.99984
3021.14452	0.99944
3019.09072	0.99881
3017.03691	0.99865
3014.98311	0.99872
3012.92931	0.99863
3010.87550	0.99845
3008.82170	0.99858
3006.76790	0.99906
3004.71409	0.99942
3002.66029	0.99943
3000.60649	0.99922
2998.55269	0.99906
2996.49888	0.99924
2994.44508	0.99957
2992.39128	0.99969
2990.33747	0.99952
2988.28367	0.99929
2986.22987	0.99899
2984.17606	0.99859
2982.12226	0.99838
2980.06846	0.99825
2978.01465	0.99793
2975.96085	0.99775
2973.90705	0.99803
2971.85324	0.99837
2969.79944	0.99855
2967.74564	0.99880
2965.69183	0.99919
2963.63803	0.99956
2961.58423	0.99960
2959.53042	0.99935
2957.47662	0.99917
2955.42282	0.99909
2953.36901	0.99891
2951.31521	0.99866
2949.26141	0.99856
2947.20761	0.99843
2945.15380	0.99817
2943.10000	0.99788
2941.04620	0.99785
2938.99239	0.99824
2936.93859	0.99848
2934.88479	0.99812
2932.83098	0.99772
2930.77718	0.99789
2928.72338	0.99819
2926.66957	0.99770
2924.61577	0.99669
2922.56197	0.99634
2920.50816	0.99694
2918.45436	0.99760
2916.40056	0.99793
2914.34675	0.99824
2912.29295	0.99843
2910.23915	0.99875
2908.18534	0.99922
2906.13154	0.99937
2904.07774	0.99956
2902.02393	0.99997
2899.97013	1.00013
2897.91633	0.99992
2895.86252	0.99950
2893.80872	0.99916
2891.75492	0.99921
2889.70112	0.99955
2887.64731	0.99971
2885.59351	0.99956
2883.53971	0.99939
2881.48590	0.99939
2879.43210	0.99946
2877.37830	0.99945
2875.32449	0.99950
2873.27069	0.99969
2871.21689	1.00005
2869.16308	1.00033
2867.10928	1.00035
2865.05548	1.00044
2863.00167	1.00041
2860.94787	0.99994
2858.89407	0.99952
2856.84026	0.99941
2854.78646	0.99949
2852.73266	0.99957
2850.67885	0.99964
2848.62505	0.99989
2846.57125	1.00010
2844.51744	1.00003
2842.46364	0.99999
2840.40984	1.00022
2838.35603	1.00040
2836.30223	1.00032
2834.24843	1.00031
2832.19463	1.00044
2830.14082	1.00054
2828.08702	1.00056
2826.03322	1.00059
2823.97941	1.00073
2821.92561	1.00081
2819.87181	1.00084
2817.81800	1.00090
2815.76420	1.00076
2813.71040	1.00052
2811.65659	1.00041
2809.60279	1.00062
2807.54899	1.00099
2805.49518	1.00113
2803.44138	1.00114
2801.38758	1.00111
2799.33377	1.00090
2797.27997	1.00068
2795.22617	1.00051
2793.17236	1.00018
2791.11856	0.99993
2789.06476	0.99999
2787.01095	1.00017
2784.95715	1.00017
2782.90335	1.00028
2780.84955	1.00071
2778.79574	1.00099
2776.74194	1.00103
2774.68814	1.00105
2772.63433	1.00090
2770.58053	1.00059
2768.52673	1.00041
2766.47292	1.00044
2764.41912	1.00055
2762.36532	1.00080
2760.31151	1.00107
2758.25771	1.00121
2756.20391	1.00137
2754.15010	1.00133
2752.09630	1.00076
2750.04250	1.00042
2747.98869	1.00060
2745.93489	1.00078
2743.88109	1.00108
2741.82728	1.00154
2739.77348	1.00166
2737.71968	1.00155
2735.66587	1.00151
2733.61207	1.00144
2731.55827	1.00107
2729.50446	1.00062
2727.45066	1.00039
2725.39686	1.00016
2723.34306	1.00002
2721.28925	1.00020
2719.23545	1.00059
2717.18165	1.00092
2715.12784	1.00099
2713.07404	1.00099
2711.02024	1.00101
2708.96643	1.00112
2706.91263	1.00131
2704.85883	1.00144
2702.80502	1.00140
2700.75122	1.00122
2698.69742	1.00132
2696.64361	1.00172
2694.58981	1.00192
2692.53601	1.00171
2690.48220	1.00132
2688.42840	1.00112
2686.37460	1.00110
2684.32079	1.00110
2682.26699	1.00123
2680.21319	1.00139
2678.15938	1.00136
2676.10558	1.00134
2674.05178	1.00143
2671.99797	1.00116
2669.94417	1.00065
2667.89037	1.00068
2665.83657	1.00098
2663.78276	1.00089
2661.72896	1.00066
2659.67516	1.00068
2657.62135	1.00072
2655.56755	1.00057
2653.51375	1.00048
2651.45994	1.00034
2649.40614	1.00005
2647.35234	1.00011
2645.29853	1.00047
2643.24473	1.00055
2641.19093	1.00035
2639.13712	1.00022
2637.08332	1.00017
2635.02952	1.00022
2632.97571	1.00035
2630.92191	1.00019
2628.86811	0.99983
2626.81430	0.99970
2624.76050	0.99964
2622.70670	0.99950
2620.65289	0.99950
2618.59909	0.99955
2616.54529	0.99964
2614.49149	1.00002
2612.43768	1.00048
2610.38388	1.00049
2608.33008	1.00017
2606.27627	1.00006
2604.22247	1.00022
2602.16867	1.00020
2600.11486	0.99965
2598.06106	0.99912
2596.00726	0.99936
2593.95345	1.00021
2591.89965	1.00070
2589.84585	1.00037
2587.79204	0.99985
2585.73824	0.99974
2583.68444	0.99984
2581.63063	0.99993
2579.57683	1.00009
2577.52303	0.99998
2575.46922	0.99934
2573.41542	0.99895
2571.36162	0.99936
2569.30781	0.99997
2567.25401	0.99990
2565.20021	0.99942
2563.14640	0.99946
2561.09260	1.00003
2559.03880	1.00060
2556.98500	1.00056
2554.93119	0.99978
2552.87739	0.99922
2550.82359	0.99950
2548.76978	0.99970
2546.71598	0.99915
2544.66218	0.99881
2542.60837	0.99913
2540.55457	0.99910
2538.50077	0.99880
2536.44696	0.99905
2534.39316	0.99943
2532.33936	0.99925
2530.28555	0.99887
2528.23175	0.99854
2526.17795	0.99817
2524.12414	0.99786
2522.07034	0.99756
2520.01654	0.99762
2517.96273	0.99839
2515.90893	0.99936
2513.85513	1.00016
2511.80132	1.00011
2509.74752	0.99938
2507.69372	0.99950
2505.63992	1.00039
2503.58611	1.00036
2501.53231	0.99932
2499.47851	0.99881
2497.42470	0.99921
2495.37090	0.99962
2493.31710	0.99978
2491.26329	0.99998
2489.20949	1.00006
2487.15569	0.99991
2485.10188	0.99993
2483.04808	1.00042
2480.99428	1.00106
2478.94047	1.00109
2476.88667	1.00083
2474.83287	1.00079
2472.77906	1.00080
2470.72526	1.00114
2468.67146	1.00151
2466.61765	1.00111
2464.56385	1.00050
2462.51005	1.00050
2460.45624	1.00084
2458.40244	1.00104
2456.34864	1.00079
2454.29483	1.00030
2452.24103	1.00011
2450.18723	1.00021
2448.13343	1.00067
2446.07962	1.00113
2444.02582	1.00098
2441.97202	1.00115
2439.91821	1.00162
2437.86441	1.00114
2435.81061	1.00057
2433.75680	1.00087
2431.70300	1.00102
2429.64920	1.00078
2427.59539	1.00094
2425.54159	1.00149
2423.48779	1.00204
2421.43398	1.00232
2419.38018	1.00215
2417.32638	1.00205
2415.27257	1.00247
2413.21877	1.00238
2411.16497	1.00151
2409.11116	1.00158
2407.05736	1.00261
2405.00356	1.00272
2402.94975	1.00185
2400.89595	1.00143
2398.84215	1.00193
2396.78834	1.00258
2394.73454	1.00230
2392.68074	1.00130
2390.62694	1.00068
2388.57313	1.00087
2386.51933	1.00106
2384.46553	1.00068
2382.41172	1.00061
2380.35792	1.00105
2378.30412	1.00137
2376.25031	1.00136
2374.19651	1.00101
2372.14271	1.00066
2370.08890	1.00077
2368.03510	1.00139
2365.98130	1.00203
2363.92749	1.00225
2361.87369	1.00170
2359.81989	1.00093
2357.76608	1.00073
2355.71228	1.00052
2353.65848	1.00019
2351.60467	1.00000
2349.55087	1.00019
2347.49707	1.00062
2345.44326	1.00079
2343.38946	1.00120
2341.33566	1.00224
2339.28186	1.00192
2337.22805	1.00004
2335.17425	0.99887
2333.12045	0.99931
2331.06664	1.00071
2329.01284	1.00143
2326.95904	1.00025
2324.90523	0.99868
2322.85143	0.99877
2320.79763	1.00013
2318.74382	1.00074
2316.69002	1.00019
2314.63622	0.99935
2312.58241	0.99884
2310.52861	0.99869
2308.47481	0.99856
2306.42100	0.99893
2304.36720	0.99947
2302.31340	0.99910
2300.25959	0.99902
2298.20579	1.00062
2296.15199	1.00210
2294.09818	1.00188
2292.04438	1.00083
2289.99058	0.99990
2287.93677	0.99934
2285.88297	0.99883
2283.82917	0.99835
2281.77537	0.99842
2279.72156	0.99875
2277.66776	0.99920
2275.61396	0.99984
2273.56015	0.99992
2271.50635	0.99939
2269.45255	0.99916
2267.39874	0.99961
2265.34494	0.99992
2263.29114	0.99943
2261.23733	0.99930
2259.18353	1.00024
2257.12973	1.00109
2255.07592	1.00089
2253.02212	1.00035
2250.96832	1.00073
2248.91451	1.00116
2246.86071	1.00059
2244.80691	1.00011
2242.75310	0.99994
2240.69930	0.99979
2238.64550	1.00010
2236.59169	1.00027
2234.53789	0.99929
2232.48409	0.99800
2230.43029	0.99754
2228.37648	0.99746
2226.32268	0.99756
2224.26888	0.99790
2222.21507	0.99830
2220.16127	0.99942
2218.10747	1.00145
2216.05366	1.00325
2213.99986	1.00368
2211.94606	1.00171
2209.89225	0.99848
2207.83845	0.99723
2205.78465	0.99814
2203.73084	0.99924
2201.67704	1.00003
2199.62324	1.00090
2197.56943	1.00166
2195.51563	1.00172
2193.46183	1.00181
2191.40802	1.00241
2189.35422	1.00282
2187.30042	1.00361
2185.24661	1.00419
2183.19281	1.00265
2181.13901	0.99994
2179.08520	0.99834
2177.03140	0.99933
2174.97760	1.00147
2172.92380	1.00070
2170.86999	0.99741
2168.81619	0.99542
2166.76239	0.99524
2164.70858	0.99474
2162.65478	0.99369
2160.60098	0.99485
2158.54717	1.00101
2156.49337	1.00890
2154.43957	1.01135
2152.38576	1.00811
2150.33196	1.00428
2148.27816	1.00305
2146.22435	1.00381
2144.17055	1.00308
2142.11675	0.99992
2140.06294	0.99858
2138.00914	1.00104
2135.95534	1.00376
2133.90153	1.00446
2131.84773	1.00389
2129.79393	1.00295
2127.74012	1.00239
2125.68632	1.00208
2123.63252	1.00166
2121.57871	1.00073
2119.52491	0.99966
2117.47111	1.00010
2115.41731	1.00122
2113.36350	1.00073
2111.30970	0.99998
2109.25590	1.00062
2107.20209	1.00109
2105.14829	1.00086
2103.09449	1.00101
2101.04068	1.00089
2098.98688	0.99978
2096.93308	0.99966
2094.87927	1.00145
2092.82547	1.00282
2090.77167	1.00293
2088.71786	1.00235
2086.66406	1.00112
2084.61026	1.00024
2082.55645	1.00032
2080.50265	1.00066
2078.44885	1.00069
2076.39504	1.00006
2074.34124	0.99938
2072.28744	0.99959
2070.23363	1.00011
2068.17983	1.00035
2066.12603	1.00059
2064.07223	1.00016
2062.01842	0.99901
2059.96462	0.99900
2057.91082	0.99985
2055.85701	1.00096
2053.80321	1.00247
2051.74941	1.00214
2049.69560	0.99937
2047.64180	0.99676
2045.58800	0.99589
2043.53419	0.99651
2041.48039	0.99828
2039.42659	1.00025
2037.37278	1.00106
2035.31898	0.99995
2033.26518	0.99775
2031.21137	0.99734
2029.15757	0.99924
2027.10377	1.00095
2025.04996	1.00279
2022.99616	1.00419
2020.94236	1.00173
2018.88855	0.99744
2016.83475	0.99454
2014.78095	0.99329
2012.72714	0.99418
2010.67334	0.99621
2008.61954	0.99810
2006.56574	1.00068
2004.51193	1.00256
2002.45813	1.00150
2000.40433	0.99988
1998.35052	0.99956
1996.29672	0.99942
1994.24292	0.99914
1992.18911	1.00021
1990.13531	1.00152
1988.08151	0.99966
1986.02770	0.99675
1983.97390	0.99617
1981.92010	0.99744
1979.86629	0.99903
1977.81249	1.00004
1975.75869	1.00075
1973.70488	1.00182
1971.65108	1.00215
1969.59728	1.00202
1967.54347	1.00267
1965.48967	1.00157
1963.43587	0.99779
1961.38206	0.99667
1959.32826	1.00008
1957.27446	1.00292
1955.22066	1.00307
1953.16685	1.00169
1951.11305	1.00110
1949.05925	1.00258
1947.00544	1.00358
1944.95164	1.00285
1942.89784	1.00198
1940.84403	1.00253
1938.79023	1.00392
1936.73643	1.00432
1934.68262	1.00341
1932.62882	1.00250
1930.57502	1.00182
1928.52121	1.00119
1926.46741	1.00159
1924.41361	1.00287
1922.35980	1.00384
1920.30600	1.00345
1918.25220	1.00145
1916.19839	1.00003
1914.14459	1.00065
1912.09079	1.00170
1910.03698	1.00199
1907.98318	1.00197
1905.92938	1.00200
1903.87557	1.00184
1901.82177	1.00135
1899.76797	1.00067
1897.71417	1.00080
1895.66036	1.00221
1893.60656	1.00308
1891.55276	1.00272
1889.49895	1.00239
1887.44515	1.00249
1885.39135	1.00235
1883.33754	1.00181
1881.28374	1.00189
1879.22994	1.00286
1877.17613	1.00330
1875.12233	1.00248
1873.06853	1.00149
1871.01472	1.00103
1868.96092	1.00098
1866.90712	1.00174
1864.85331	1.00252
1862.79951	1.00263
1860.74571	1.00239
1858.69190	1.00181
1856.63810	1.00160
1854.58430	1.00216
1852.53049	1.00239
1850.47669	1.00170
1848.42289	1.00091
1846.36908	1.00092
1844.31528	1.00156
1842.26148	1.00198
1840.20768	1.00234
1838.15387	1.00279
1836.10007	1.00250
1834.04627	1.00132
1831.99246	1.00044
1829.93866	1.00097
1827.88486	1.00203
1825.83105	1.00220
1823.77725	1.00188
1821.72345	1.00154
1819.66964	1.00133
1817.61584	1.00159
1815.56204	1.00216
1813.50823	1.00238
1811.45443	1.00202
1809.40063	1.00173
1807.34682	1.00166
1805.29302	1.00149
1803.23922	1.00161
1801.18541	1.00179
1799.13161	1.00114
1797.07781	0.99997
1795.02400	0.99867
1792.97020	0.99721
1790.91640	0.99603
1788.86260	0.99541
1786.80879	0.99503
1784.75499	0.99506
1782.70119	0.99576
1780.64738	0.99684
1778.59358	0.99792
1776.53978	0.99873
1774.48597	0.99949
1772.43217	1.00032
1770.37837	1.00054
1768.32456	1.00024
1766.27076	1.00035
1764.21696	1.00080
1762.16315	1.00095
1760.10935	1.00055
1758.05555	0.99989
1756.00174	0.99973
1753.94794	1.00000
1751.89414	1.00018
1749.84033	1.00030
1747.78653	1.00029
1745.73273	1.00018
1743.67892	1.00027
1741.62512	1.00069
1739.57132	1.00101
1737.51751	1.00084
1735.46371	1.00036
1733.40991	0.99999
1731.35611	0.99993
1729.30230	0.99997
1727.24850	1.00016
1725.19470	1.00013
1723.14089	0.99975
1721.08709	0.99959
1719.03329	0.99975
1716.97948	0.99984
1714.92568	0.99967
1712.87188	0.99917
1710.81807	0.99868
1708.76427	0.99859
1706.71047	0.99869
1704.65666	0.99868
1702.60286	0.99875
1700.54906	0.99851
1698.49525	0.99765
1696.44145	0.99759
1694.38765	0.99802
1692.33384	0.99770
1690.28004	0.99699
1688.22624	0.99644
1686.17243	0.99618
1684.11863	0.99620
1682.06483	0.99612
1680.01103	0.99601
1677.95722	0.99591
1675.90342	0.99561
1673.84962	0.99547
1671.79581	0.99547
1669.74201	0.99546
1667.68821	0.99571
1665.63440	0.99571
1663.58060	0.99538
1661.52680	0.99540
1659.47299	0.99567
1657.41919	0.99551
1655.36539	0.99502
1653.31158	0.99505
1651.25778	0.99547
1649.20398	0.99540
1647.15017	0.99494
1645.09637	0.99454
1643.04257	0.99487
1640.98876	0.99547
1638.93496	0.99566
1636.88116	0.99529
1634.82735	0.99496
1632.77355	0.99486
1630.71975	0.99453
1628.66594	0.99404
1626.61214	0.99370
1624.55834	0.99345
1622.50454	0.99321
1620.45073	0.99314
1618.39693	0.99320
1616.34313	0.99313
1614.28932	0.99308
1612.23552	0.99328
1610.18172	0.99349
1608.12791	0.99368
1606.07411	0.99370
1604.02031	0.99353
1601.96650	0.99359
1599.91270	0.99383
1597.85890	0.99403
1595.80509	0.99412
1593.75129	0.99403
1591.69749	0.99379
1589.64368	0.99326
1587.58988	0.99254
1585.53608	0.99189
1583.48227	0.99148
1581.42847	0.99115
1579.37467	0.99035
1577.32086	0.98866
1575.26706	0.98615
1573.21326	0.98414
1571.15945	0.98270
1569.10565	0.98152
1567.05185	0.98033
1564.99805	0.97862
1562.94424	0.97712
1560.89044	0.97617
1558.83664	0.97358
1556.78283	0.97049
1554.72903	0.96897
1552.67523	0.96741
1550.62142	0.96568
1548.56762	0.96422
1546.51382	0.96352
1544.46001	0.96269
1542.40621	0.96071
1540.35241	0.95681
1538.29860	0.95377
1536.24480	0.95325
1534.19100	0.95242
1532.13719	0.95059
1530.08339	0.94913
1528.02959	0.94779
1525.97578	0.94613
1523.92198	0.94468
1521.86818	0.94254
1519.81437	0.94010
1517.76057	0.93844
1515.70677	0.93675
1513.65297	0.93543
1511.59916	0.93471
1509.54536	0.93426
1507.49156	0.93181
1505.43775	0.92722
1503.38395	0.92579
1501.33015	0.92532
1499.27634	0.92404
1497.22254	0.92144
1495.16874	0.91889
1493.11493	0.91768
1491.06113	0.91625
1489.00733	0.91344
1486.95352	0.91086
1484.89972	0.90930
1482.84592	0.90771
1480.79211	0.90568
1478.73831	0.90399
1476.68451	0.90263
1474.63070	0.90074
1472.57690	0.89789
1470.52310	0.89568
1468.46929	0.89503
1466.41549	0.89453
1464.36169	0.89380
1462.30788	0.89411
1460.25408	0.89510
1458.20028	0.89485
1456.14648	0.89361
1454.09267	0.89445
1452.03887	0.89568
1449.98507	0.89607
1447.93126	0.89610
1445.87746	0.89680
1443.82366	0.89837
1441.76985	0.90066
1439.71605	0.90337
1437.66225	0.90556
1435.60844	0.90699
1433.55464	0.90853
1431.50084	0.91000
1429.44703	0.91117
1427.39323	0.91237
1425.33943	0.91355
1423.28562	0.91461
1421.23182	0.91560
1419.17802	0.91630
1417.12421	0.91708
1415.07041	0.91844
1413.01661	0.91984
1410.96280	0.92091
1408.90900	0.92184
1406.85520	0.92273
1404.80139	0.92340
1402.74759	0.92421
1400.69379	0.92534
1398.63999	0.92640
1396.58618	0.92702
1394.53238	0.92738
1392.47858	0.92802
1390.42477	0.92901
1388.37097	0.92980
1386.31717	0.93010
1384.26336	0.93059
1382.20956	0.93129
1380.15576	0.93196
1378.10195	0.93282
1376.04815	0.93346
1373.99435	0.93386
1371.94054	0.93466
1369.88674	0.93558
1367.83294	0.93644
1365.77913	0.93741
1363.72533	0.93808
1361.67153	0.93829
1359.61772	0.93859
1357.56392	0.93930
1355.51012	0.94012
1353.45631	0.94080
1351.40251	0.94155
1349.34871	0.94251
1347.29491	0.94349
1345.24110	0.94423
1343.18730	0.94471
1341.13350	0.94514
1339.07969	0.94580
1337.02589	0.94672
1334.97209	0.94762
1332.91828	0.94833
1330.86448	0.94888
1328.81068	0.94947
1326.75687	0.94997
1324.70307	0.95018
1322.64927	0.95026
1320.59546	0.95056
1318.54166	0.95125
1316.48786	0.95221
1314.43405	0.95301
1312.38025	0.95348
1310.32645	0.95394
1308.27264	0.95448
1306.21884	0.95503
1304.16504	0.95554
1302.11123	0.95607
1300.05743	0.95670
1298.00363	0.95711
1295.94982	0.95731
1293.89602	0.95767
1291.84222	0.95821
1289.78842	0.95875
1287.73461	0.95918
1285.68081	0.95945
1283.62701	0.95954
1281.57320	0.95975
1279.51940	0.96028
1277.46560	0.96078
1275.41179	0.96102
1273.35799	0.96143
1271.30419	0.96201
1269.25038	0.96244
1267.19658	0.96287
1265.14278	0.96341
1263.08897	0.96390
1261.03517	0.96437
1258.98137	0.96464
1256.92756	0.96475
1254.87376	0.96508
1252.81996	0.96543
1250.76615	0.96572
1248.71235	0.96612
1246.65855	0.96645
1244.60474	0.96655
1242.55094	0.96660
1240.49714	0.96693
1238.44334	0.96748
1236.38953	0.96791
1234.33573	0.96827
1232.28193	0.96857
1230.22812	0.96861
1228.17432	0.96861
1226.12052	0.96876
1224.06671	0.96880
1222.01291	0.96877
1219.95911	0.96903
1217.90530	0.96964
1215.85150	0.97034
1213.79770	0.97086
1211.74389	0.97111
1209.69009	0.97114
1207.63629	0.97102
1205.58248	0.97078
1203.52868	0.97065
1201.47488	0.97057
1199.42107	0.97049
1197.36727	0.97061
1195.31347	0.97068
1193.25966	0.97049
1191.20586	0.97021
1189.15206	0.96982
1187.09825	0.96938
1185.04445	0.96907
1182.99065	0.96881
1180.93685	0.96834
1178.88304	0.96785
1176.82924	0.96753
1174.77544	0.96711
1172.72163	0.96681
1170.66783	0.96662
1168.61403	0.96615
1166.56022	0.96573
1164.50642	0.96576
1162.45262	0.96577
1160.39881	0.96522
1158.34501	0.96457
1156.29121	0.96427
1154.23740	0.96412
1152.18360	0.96411
1150.12980	0.96414
1148.07599	0.96403
1146.02219	0.96377
1143.96839	0.96362
1141.91458	0.96382
1139.86078	0.96378
1137.80698	0.96346
1135.75317	0.96327
1133.69937	0.96312
1131.64557	0.96329
1129.59176	0.96380
1127.53796	0.96409
1125.48416	0.96404
1123.43036	0.96394
1121.37655	0.96381
1119.32275	0.96345
1117.26895	0.96308
1115.21514	0.96326
1113.16134	0.96366
1111.10754	0.96364
1109.05373	0.96368
1106.99993	0.96395
1104.94613	0.96415
1102.89232	0.96421
1100.83852	0.96421
1098.78472	0.96448
1096.73091	0.96501
1094.67711	0.96561
1092.62331	0.96604
1090.56950	0.96602
1088.51570	0.96523
1086.46190	0.96184
1084.40809	0.95526
1082.35429	0.95151
1080.30049	0.95479
1078.24668	0.96018
1076.19288	0.96330
1074.13908	0.96456
1072.08528	0.96526
1070.03147	0.96623
1067.97767	0.96722
1065.92387	0.96756
1063.87006	0.96739
1061.81626	0.96746
1059.76246	0.96780
1057.70865	0.96760
1055.65485	0.96705
1053.60105	0.96718
1051.54724	0.96782
1049.49344	0.96857
1047.43964	0.96943
1045.38583	0.96994
1043.33203	0.97031
1041.27823	0.97099
1039.22442	0.97156
1037.17062	0.97168
1035.11682	0.97189
1033.06301	0.97277
1031.00921	0.97372
1028.95541	0.97392
1026.90160	0.97378
1024.84780	0.97394
1022.79400	0.97459
1020.74019	0.97520
1018.68639	0.97529
1016.63259	0.97514
1014.57879	0.97501
1012.52498	0.97527
1010.47118	0.97595
1008.41738	0.97646
1006.36357	0.97693
1004.30977	0.97763
1002.25597	0.97828
1000.20216	0.97861
998.14836	0.97856
996.09456	0.97844
994.04075	0.97856
991.98695	0.97893
989.93315	0.97929
987.87934	0.97954
985.82554	0.98005
983.77174	0.98087
981.71793	0.98162
979.66413	0.98222
977.61033	0.98254
975.55652	0.98239
973.50272	0.98223
971.44892	0.98248
969.39511	0.98298
967.34131	0.98351
965.28751	0.98386
963.23371	0.98400
961.17990	0.98395
959.12610	0.98395
957.07230	0.98432
955.01849	0.98468
952.96469	0.98456
950.91089	0.98439
948.85708	0.98470
946.80328	0.98519
944.74948	0.98542
942.69567	0.98565
940.64187	0.98616
938.58807	0.98657
936.53426	0.98639
934.48046	0.98581
932.42666	0.98574
930.37285	0.98596
928.31905	0.98580
926.26525	0.98573
924.21144	0.98593
922.15764	0.98648
920.10384	0.98728
918.05003	0.98731
915.99623	0.98667
913.94243	0.98654
911.88862	0.98660
909.83482	0.98623
907.78102	0.98655
905.72722	0.98782
903.67341	0.98876
901.61961	0.98878
899.56581	0.98875
897.51200	0.98948
895.45820	0.98995
893.40440	0.98937
891.35059	0.98867
889.29679	0.98881
887.24299	0.98912
885.18918	0.98887
883.13538	0.98852
881.08158	0.98813
879.02777	0.98692
876.97397	0.98357
874.92017	0.97648
872.86636	0.96552
870.81256	0.95285
868.75876	0.94105
866.70495	0.93128
864.65115	0.92417
862.59735	0.91959
860.54354	0.91647
858.48974	0.91489
856.43594	0.91442
854.38213	0.91423
852.32833	0.91573
850.27453	0.91957
848.22073	0.92430
846.16692	0.92771
844.11312	0.92853
842.05932	0.92872
840.00551	0.93093
837.95171	0.93465
835.89791	0.93850
833.84410	0.94276
831.79030	0.94755
829.73650	0.95191
827.68269	0.95531
825.62889	0.95822
823.57509	0.96112
821.52128	0.96403
819.46748	0.96661
817.41368	0.96868
815.35987	0.97033
813.30607	0.97174
811.25227	0.97288
809.19846	0.97368
807.14466	0.97450
805.09086	0.97509
803.03705	0.97528
800.98325	0.97523
798.92945	0.97497
796.87565	0.97527
794.82184	0.97617
792.76804	0.97692
790.71424	0.97742
788.66043	0.97795
786.60663	0.97832
784.55283	0.97841
782.49902	0.97866
780.44522	0.97912
778.39142	0.97954
776.33761	0.98004
774.28381	0.98031
772.23001	0.98034
770.17620	0.98058
768.12240	0.98049
766.06860	0.98016
764.01479	0.98053
761.96099	0.98109
759.90719	0.98090
757.85338	0.98046
755.79958	0.98050
753.74578	0.98092
751.69197	0.98125
749.63817	0.98107
747.58437	0.98083
745.53056	0.98069
743.47676	0.98031
741.42296	0.98026
739.36916	0.98102
737.31535	0.98151
735.26155	0.98108
733.20775	0.98079
731.15394	0.98087
729.10014	0.98084
727.04634	0.98101
724.99253	0.98100
722.93873	0.98021
720.88493	0.97878
718.83112	0.97645
716.77732	0.96945
714.72352	0.95518
712.66971	0.94488
710.61591	0.95028
708.56211	0.96284
706.50830	0.97017
704.45450	0.97088
702.40070	0.96579
700.34689	0.95824
698.29309	0.95723
696.23929	0.96392
694.18548	0.97042
692.13168	0.97318
690.07788	0.97385
688.02408	0.97472
685.97027	0.97590
683.91647	0.97626
681.86267	0.97625
679.80886	0.97643
677.75506	0.97611
675.70126	0.97504
673.64745	0.97430
671.59365	0.97437
669.53985	0.97473
667.48604	0.97523
665.43224	0.97613
663.37844	0.97691
661.32463	0.97699
659.27083	0.97660
657.21703	0.97637
655.16322	0.97648
653.10942	0.97695
651.05562	0.97709
649.00181	0.97690
646.94801	0.97748
644.89421	0.97782
642.84040	0.97749
640.78660	0.97806
638.73280	0.97896
636.67899	0.97912
634.62519	0.97932
632.57139	0.97949
630.51759	0.97874
628.46378	0.97729
626.40998	0.97609
624.35618	0.97584
622.30237	0.97562
620.24857	0.97500
618.19477	0.97556
616.14096	0.97707
614.08716	0.97726
612.03336	0.97587
609.97955	0.97477
607.92575	0.97439
605.87195	0.97401
603.81814	0.97440
601.76434	0.97527
599.71054	0.97524
597.65673	0.97515
595.60293	0.97644
593.54913	0.97765
591.49532	0.97646
589.44152	0.97454
587.38772	0.97493
585.33391	0.97687
583.28011	0.97758
581.22631	0.97705
579.17250	0.97715
577.11870	0.97738
575.06490	0.97751
573.01110	0.97796
570.95729	0.97758
568.90349	0.97623
566.84969	0.97522
564.79588	0.97573
562.74208	0.97711
560.68828	0.97749
558.63447	0.97689
556.58067	0.97648
554.52687	0.97652
552.47306	0.97755
550.41926	0.97922
548.36546	0.98042
546.31165	0.98065
544.25785	0.97858
542.20405	0.97612
540.15024	0.97654
538.09644	0.97853
536.04264	0.97982
533.98883	0.98006
531.93503	0.98064
529.88123	0.98188
527.82742	0.98138
525.77362	0.97991
523.71982	0.98072
521.66602	0.98224
519.61221	0.98246
517.55841	0.98237
515.50461	0.98197
513.45080	0.98062
511.39700	0.97897
509.34320	0.97834
507.28939	0.97943
505.23559	0.98075
503.18179	0.98124
501.12798	0.98203
499.07418	0.98294
497.02038	0.98275
494.96657	0.98211
492.91277	0.98141
490.85897	0.98032
488.80516	0.97940
486.75136	0.97747
484.69756	0.97517
482.64375	0.97581
480.58995	0.97788
478.53615	0.97802
476.48234	0.97727
474.42854	0.97845
472.37474	0.98027
470.32093	0.97833
468.26713	0.97460
466.21333	0.97404
464.15953	0.97658
462.10572	0.97882
460.05192	0.97794
457.99812	0.97555
455.94431	0.97727
453.89051	0.98023
451.83671	0.97895
449.78290	0.97698
447.72910	0.97839
445.67530	0.98072
443.62149	0.98388
441.56769	0.98824
439.51389	0.98835
437.46008	0.98281
435.40628	0.97698
433.35248	0.97341
431.29867	0.97120
429.24487	0.97365
427.19107	0.97903
425.13726	0.97992
423.08346	0.97690
421.02966	0.97770
418.97585	0.98057
416.92205	0.97683
414.86825	0.97401
412.81445	0.97572
410.76064	0.97443
408.70684	0.96859
406.65304	0.96848
404.59923	0.97227
402.54543	0.97233
400.49163	0.97160
398.43782	0.97352
